Data from BA17729_Reflection_00008.txt Node
Date: Tue Nov 19 11:50:49 EST 2019
User: vgr7
Spectrometer: USB2G7710
Scans to average: 3
Trigger mode: 4
Integration Time (sec): 2.000000E-2
Electric dark correction enabled: true
Boxcar width: 10
XAxis mode: Wavelengths
Number of Pixels in Spectrum: 2048
>>>>>Begin Spectral Data<<<<<
177.721	-8.53
178.105	-31.02
178.488	-42.22
178.871	-29.41
179.254	-100
179.636	-139.88
180.019	-137.58
180.402	566.67
180.785	170.42
181.168	-79.92
181.55	36.79
181.933	15.82
182.316	21.35
182.698	0.2
183.081	9.09
183.463	-4.82
183.846	45.14
184.228	-52.74
184.611	14.51
184.993	39.53
185.376	1805.88
185.758	27.76
186.14	87.16
186.522	125.97
186.904	124.18
187.287	314.66
187.669	644
188.051	6281.82
188.433	677.46
188.815	616.78
189.197	1929.79
189.579	-322.92
189.961	-395.21
190.342	-432.92
190.724	3397.87
191.106	-2229.67
191.488	-1707.34
191.869	-451.45
192.251	-502.61
192.633	-728.88
193.014	-722.09
193.396	-648.47
193.777	-163.16
194.159	-95.34
194.54	-53.34
194.922	-114.43
195.303	-109.6
195.684	-104.59
196.065	-287.62
196.447	-162.53
196.828	-85.39
197.209	-61.91
197.59	-39.95
197.971	-56.07
198.352	-20.78
198.733	-27.03
199.114	-26.03
199.495	-38.43
199.876	-78.23
200.257	-102.47
200.638	-62.31
201.018	-71.45
201.399	-78.64
201.78	-86.55
202.16	-88.05
202.541	-103.14
202.922	-88.24
203.302	-120.31
203.683	-141.31
204.063	-127.86
204.444	-168.78
204.824	-189
205.204	-184.38
205.585	-202.42
205.965	-140.92
206.345	-203.31
206.725	-111.21
207.106	-65.95
207.486	-49.87
207.866	-37.77
208.246	-41.69
208.626	-58.3
209.006	-75.24
209.386	-60.98
209.766	-72.46
210.145	-80.55
210.525	-76.51
210.905	-70.73
211.285	-64.88
211.664	-22.65
212.044	6.23
212.424	12.33
212.803	1.04
213.183	-19.27
213.562	8.71
213.942	5.55
214.321	13.69
214.701	-9.59
215.08	-30.12
215.459	1.14
215.838	-19.87
216.218	-21.42
216.597	-21.19
216.976	-32.63
217.355	-43.25
217.734	-25.29
218.113	-26.42
218.492	-30.79
218.871	-18.09
219.25	-7.43
219.629	-47.92
220.008	-72.5
220.387	-104.38
220.766	-54.63
221.144	-35.14
221.523	-86.64
221.902	-61.75
222.28	-74.9
222.659	-46.07
223.037	-31.56
223.416	-66.56
223.794	-63.88
224.173	-58.07
224.551	-52.67
224.929	-46.55
225.308	-29.78
225.686	-31.86
226.064	-22.32
226.442	-10.3
226.821	-7.46
227.199	-9.82
227.577	-1.41
227.955	1.11
228.333	0.96
228.711	0.44
229.089	-0.61
229.467	0.54
229.845	-2.37
230.222	3.25
230.6	1.02
230.978	-0.71
231.356	2.99
231.733	3.28
232.111	2.31
232.488	1.49
232.866	4.05
233.243	1.93
233.621	3.39
233.998	4.13
234.376	0.64
234.753	0.97
235.13	0.72
235.508	-0.14
235.885	-2.05
236.262	-1.82
236.639	-3.63
237.016	-1.6
237.393	-0.82
237.77	1.16
238.147	0.26
238.524	0.9
238.901	0.16
239.278	0.27
239.655	0.23
240.032	0.65
240.409	1.31
240.785	2.14
241.162	2.62
241.539	3.08
241.915	3.42
242.292	3.47
242.668	3.66
243.045	4.58
243.421	4.75
243.798	4.83
244.174	5.13
244.551	5.74
244.927	5.57
245.303	5.38
245.679	5.24
246.056	5.66
246.432	6.08
246.808	6.26
247.184	6.28
247.56	6.24
247.936	6.48
248.312	6.68
248.688	6.61
249.064	6.67
249.44	6.32
249.815	6.16
250.191	6.39
250.567	6.15
250.943	6.06
251.318	6.2
251.694	6.26
252.069	5.93
252.445	6
252.82	6.39
253.196	6.8
253.571	7.17
253.947	6.91
254.322	6.58
254.697	6.71
255.073	6.43
255.448	6.4
255.823	6.39
256.198	5.92
256.573	5.89
256.948	5.93
257.323	6.11
257.698	6.19
258.073	6.1
258.448	6.04
258.823	6.04
259.198	5.92
259.573	5.81
259.948	6.25
260.322	5.94
260.697	5.75
261.072	5.65
261.446	5.4
261.821	5.41
262.195	5.41
262.57	5.59
262.944	5.75
263.319	6.14
263.693	5.91
264.067	5.85
264.442	6.03
264.816	6.06
265.19	5.96
265.564	6.05
265.938	5.95
266.313	6.01
266.687	5.84
267.061	5.72
267.435	5.91
267.809	5.55
268.183	5.64
268.556	5.61
268.93	5.66
269.304	5.81
269.678	5.69
270.051	6.04
270.425	6.01
270.799	5.85
271.172	5.49
271.546	5.69
271.919	5.7
272.293	5.59
272.666	5.47
273.04	5.47
273.413	5.25
273.787	5.44
274.16	5.42
274.533	5.49
274.906	5.69
275.279	5.71
275.653	5.66
276.026	5.9
276.399	6.11
276.772	6.13
277.145	6.02
277.518	5.98
277.891	5.67
278.263	5.56
278.636	5.84
279.009	6.01
279.382	6.07
279.755	6.29
280.127	6.26
280.5	6.46
280.872	6.52
281.245	6.57
281.617	6.6
281.99	6.72
282.362	6.85
282.735	6.72
283.107	6.58
283.479	6.68
283.852	6.76
284.224	6.67
284.596	6.67
284.968	6.81
285.34	6.85
285.713	6.98
286.085	7.09
286.457	7.04
286.829	6.84
287.201	6.68
287.572	6.81
287.944	6.85
288.316	6.74
288.688	6.82
289.06	6.95
289.431	6.88
289.803	6.84
290.175	6.81
290.546	6.81
290.918	7.03
291.289	6.79
291.661	6.74
292.032	6.84
292.403	6.98
292.775	7.24
293.146	7.48
293.517	7.37
293.889	7.23
294.26	7.2
294.631	7.51
295.002	7.87
295.373	7.73
295.744	7.78
296.115	7.75
296.486	7.76
296.857	7.74
297.228	7.74
297.599	7.75
297.97	7.89
298.34	7.99
298.711	8.04
299.082	8.28
299.452	8.23
299.823	8.16
300.194	8.11
300.564	7.93
300.935	7.91
301.305	8.08
301.676	8.14
302.046	8.16
302.416	8.13
302.787	8.12
303.157	8.2
303.527	8.34
303.897	8.47
304.267	8.45
304.637	8.51
305.008	8.77
305.378	8.82
305.748	8.67
306.117	8.75
306.487	8.59
306.857	8.85
307.227	8.95
307.597	9.01
307.967	9.03
308.336	9.08
308.706	9.06
309.076	9.01
309.445	9.17
309.815	9.2
310.184	9.21
310.554	9.12
310.923	9.07
311.293	8.93
311.662	9.2
312.031	9.34
312.401	9.26
312.77	9.08
313.139	9.18
313.508	9.32
313.877	9.54
314.246	9.76
314.616	9.66
314.985	9.7
315.353	9.66
315.722	9.76
316.091	9.65
316.46	9.64
316.829	9.7
317.198	9.78
317.567	9.86
317.935	9.85
318.304	9.87
318.672	10.06
319.041	10.14
319.41	9.84
319.778	9.89
320.147	10.13
320.515	10.29
320.883	10.13
321.252	10.09
321.62	9.89
321.988	9.78
322.357	9.67
322.725	9.72
323.093	9.74
323.461	9.78
323.829	9.93
324.197	9.84
324.565	9.95
324.933	9.92
325.301	9.96
325.669	10.03
326.037	10.15
326.405	10.25
326.772	10.42
327.14	10.45
327.508	10.26
327.875	10.33
328.243	10.35
328.61	10.42
328.978	10.53
329.346	10.59
329.713	10.7
330.08	10.69
330.448	10.7
330.815	10.9
331.182	10.77
331.55	10.83
331.917	10.94
332.284	10.93
332.651	10.86
333.018	10.87
333.385	10.94
333.752	10.9
334.119	10.74
334.486	10.62
334.853	10.69
335.22	10.66
335.587	10.52
335.954	10.45
336.32	10.51
336.687	10.52
337.054	10.46
337.42	10.35
337.787	10.44
338.153	10.56
338.52	10.64
338.886	10.78
339.253	10.81
339.619	10.82
339.986	10.88
340.352	11.04
340.718	11.15
341.084	11.14
341.451	11.24
341.817	11.33
342.183	11.38
342.549	11.49
342.915	11.67
343.281	11.71
343.647	11.76
344.013	11.89
344.379	11.81
344.745	11.89
345.11	11.94
345.476	12.02
345.842	11.99
346.208	11.99
346.573	11.95
346.939	11.8
347.304	11.89
347.67	11.87
348.035	11.8
348.401	11.76
348.766	11.66
349.132	11.64
349.497	11.73
349.862	11.66
350.228	11.7
350.593	11.73
350.958	11.77
351.323	11.79
351.688	11.67
352.053	11.62
352.418	11.64
352.783	11.65
353.148	11.58
353.513	11.57
353.878	11.5
354.243	11.43
354.608	11.73
354.972	11.65
355.337	11.62
355.702	11.52
356.066	11.54
356.431	11.66
356.795	11.6
357.16	11.57
357.524	11.65
357.889	11.52
358.253	11.55
358.618	11.54
358.982	11.51
359.346	11.48
359.71	11.47
360.075	11.43
360.439	11.38
360.803	11.41
361.167	11.38
361.531	11.34
361.895	11.44
362.259	11.31
362.623	11.36
362.987	11.32
363.351	11.35
363.714	11.31
364.078	11.27
364.442	11.21
364.806	11.13
365.169	11.08
365.533	11.05
365.896	10.97
366.26	10.99
366.623	10.97
366.987	11
367.35	10.97
367.714	10.9
368.077	10.93
368.44	10.86
368.803	10.78
369.167	10.67
369.53	10.57
369.893	10.55
370.256	10.52
370.619	10.48
370.982	10.43
371.345	10.41
371.708	10.3
372.071	10.3
372.434	10.28
372.797	10.25
373.159	10.21
373.522	10.13
373.885	10.16
374.247	10.13
374.61	10.09
374.973	10.13
375.335	10.13
375.698	10.04
376.06	10.06
376.423	10.02
376.785	10.1
377.147	10.06
377.51	9.98
377.872	9.92
378.234	9.93
378.596	9.92
378.958	9.88
379.321	9.91
379.683	9.91
380.045	9.84
380.407	9.8
380.769	9.8
381.13	9.75
381.492	9.61
381.854	9.62
382.216	9.62
382.578	9.53
382.939	9.45
383.301	9.41
383.663	9.41
384.024	9.37
384.386	9.3
384.747	9.22
385.109	9.19
385.47	9.12
385.832	9.02
386.193	9.01
386.554	8.97
386.916	8.96
387.277	8.92
387.638	8.88
387.999	8.86
388.36	8.77
388.721	8.77
389.082	8.73
389.443	8.66
389.804	8.59
390.165	8.57
390.526	8.58
390.887	8.51
391.248	8.39
391.609	8.37
391.969	8.33
392.33	8.33
392.691	8.29
393.051	8.28
393.412	8.28
393.772	8.21
394.133	8.15
394.493	8.07
394.854	8.04
395.214	8.02
395.574	7.93
395.935	7.87
396.295	7.82
396.655	7.79
397.015	7.73
397.376	7.66
397.736	7.62
398.096	7.56
398.456	7.54
398.816	7.57
399.176	7.52
399.535	7.45
399.895	7.37
400.255	7.36
400.615	7.31
400.975	7.29
401.334	7.3
401.694	7.31
402.054	7.31
402.413	7.24
402.773	7.2
403.132	7.19
403.492	7.19
403.851	7.16
404.211	7.13
404.57	7.1
404.929	7.08
405.288	7.06
405.648	7.05
406.007	7.05
406.366	7.02
406.725	6.97
407.084	7.01
407.443	7.03
407.802	6.96
408.161	6.95
408.52	6.92
408.879	6.88
409.238	6.85
409.596	6.82
409.955	6.83
410.314	6.82
410.673	6.81
411.031	6.8
411.39	6.78
411.748	6.77
412.107	6.75
412.465	6.78
412.824	6.74
413.182	6.7
413.54	6.66
413.899	6.61
414.257	6.62
414.615	6.57
414.974	6.55
415.332	6.58
415.69	6.52
416.048	6.51
416.406	6.47
416.764	6.45
417.122	6.43
417.48	6.41
417.838	6.37
418.195	6.34
418.553	6.33
418.911	6.31
419.269	6.29
419.626	6.29
419.984	6.27
420.342	6.27
420.699	6.23
421.057	6.23
421.414	6.23
421.772	6.2
422.129	6.18
422.486	6.15
422.844	6.12
423.201	6.1
423.558	6.07
423.915	6.07
424.273	6.05
424.63	6.04
424.987	6.04
425.344	6.04
425.701	6.03
426.058	6.02
426.415	6.01
426.772	5.98
427.128	5.97
427.485	5.94
427.842	5.92
428.199	5.94
428.555	5.94
428.912	5.92
429.269	5.96
429.625	5.96
429.982	5.97
430.338	5.97
430.695	5.99
431.051	5.99
431.407	5.99
431.764	5.98
432.12	5.98
432.476	5.98
432.832	5.96
433.189	5.96
433.545	5.94
433.901	5.95
434.257	5.96
434.613	5.95
434.969	5.95
435.325	5.97
435.681	5.99
436.036	6
436.392	6
436.748	5.99
437.104	5.97
437.459	5.98
437.815	5.98
438.171	5.97
438.526	5.98
438.882	5.97
439.237	5.96
439.593	5.97
439.948	5.94
440.304	5.93
440.659	5.93
441.014	5.92
441.369	5.91
441.725	5.91
442.08	5.91
442.435	5.9
442.79	5.87
443.145	5.85
443.5	5.82
443.855	5.8
444.21	5.78
444.565	5.79
444.92	5.78
445.275	5.79
445.629	5.78
445.984	5.75
446.339	5.74
446.693	5.73
447.048	5.71
447.403	5.7
447.757	5.71
448.112	5.7
448.466	5.69
448.82	5.67
449.175	5.65
449.529	5.63
449.883	5.62
450.238	5.62
450.592	5.6
450.946	5.6
451.3	5.58
451.654	5.57
452.008	5.56
452.362	5.54
452.716	5.49
453.07	5.5
453.424	5.48
453.778	5.48
454.132	5.47
454.486	5.49
454.839	5.51
455.193	5.53
455.547	5.53
455.9	5.54
456.254	5.57
456.607	5.58
456.961	5.57
457.314	5.57
457.668	5.57
458.021	5.58
458.375	5.58
458.728	5.59
459.081	5.61
459.434	5.63
459.787	5.64
460.141	5.66
460.494	5.66
460.847	5.7
461.2	5.69
461.553	5.71
461.906	5.69
462.259	5.68
462.611	5.67
462.964	5.69
463.317	5.7
463.67	5.73
464.022	5.75
464.375	5.77
464.728	5.8
465.08	5.83
465.433	5.86
465.785	5.89
466.138	5.91
466.49	5.92
466.843	5.93
467.195	5.94
467.547	5.96
467.899	5.98
468.252	5.99
468.604	6
468.956	6.01
469.308	6.02
469.66	6.05
470.012	6.08
470.364	6.1
470.716	6.12
471.068	6.11
471.42	6.07
471.772	6.08
472.123	6.07
472.475	6.08
472.827	6.07
473.178	6.07
473.53	6.04
473.882	6.03
474.233	6.03
474.585	6.03
474.936	6.04
475.288	6.04
475.639	6.05
475.99	6.04
476.342	6.05
476.693	6.06
477.044	6.06
477.395	6.04
477.746	5.99
478.097	5.98
478.448	5.94
478.8	5.94
479.15	5.92
479.501	5.92
479.852	5.89
480.203	5.88
480.554	5.87
480.905	5.88
481.255	5.88
481.606	5.89
481.957	5.89
482.307	5.89
482.658	5.89
483.009	5.89
483.359	5.9
483.709	5.89
484.06	5.9
484.41	5.89
484.761	5.9
485.111	5.91
485.461	5.91
485.811	5.93
486.162	5.94
486.512	5.95
486.862	5.97
487.212	5.99
487.562	6
487.912	6.01
488.262	6.02
488.612	6.04
488.961	6.05
489.311	6.06
489.661	6.07
490.011	6.08
490.36	6.09
490.71	6.11
491.06	6.13
491.409	6.15
491.759	6.18
492.108	6.19
492.458	6.22
492.807	6.25
493.157	6.28
493.506	6.32
493.855	6.34
494.204	6.37
494.554	6.4
494.903	6.44
495.252	6.47
495.601	6.5
495.95	6.54
496.299	6.59
496.648	6.61
496.997	6.67
497.346	6.72
497.695	6.76
498.043	6.81
498.392	6.87
498.741	6.92
499.09	6.97
499.438	7.02
499.787	7.05
500.135	7.1
500.484	7.14
500.832	7.17
501.181	7.24
501.529	7.31
501.878	7.36
502.226	7.45
502.574	7.52
502.923	7.62
503.271	7.69
503.619	7.74
503.967	7.84
504.315	7.91
504.663	7.98
505.011	8.08
505.359	8.13
505.707	8.16
506.055	8.22
506.403	8.3
506.751	8.39
507.098	8.49
507.446	8.57
507.794	8.65
508.141	8.73
508.489	8.8
508.837	8.86
509.184	8.92
509.531	8.95
509.879	9.01
510.226	9.08
510.574	9.15
510.921	9.25
511.268	9.33
511.616	9.4
511.963	9.47
512.31	9.54
512.657	9.65
513.004	9.76
513.351	9.83
513.698	9.91
514.045	9.99
514.392	10.06
514.739	10.16
515.086	10.27
515.432	10.38
515.779	10.49
516.126	10.59
516.473	10.71
516.819	10.82
517.166	10.94
517.512	11.04
517.859	11.12
518.205	11.16
518.552	11.23
518.898	11.33
519.245	11.42
519.591	11.5
519.937	11.54
520.283	11.62
520.629	11.7
520.976	11.79
521.322	11.87
521.668	12
522.014	12.07
522.36	12.2
522.706	12.33
523.052	12.43
523.398	12.56
523.743	12.73
524.089	12.88
524.435	13.03
524.781	13.15
525.126	13.29
525.472	13.44
525.817	13.56
526.163	13.64
526.509	13.72
526.854	13.81
527.199	13.92
527.545	14.02
527.89	14.13
528.235	14.24
528.581	14.34
528.926	14.42
529.271	14.54
529.616	14.65
529.961	14.73
530.306	14.83
530.651	14.94
530.996	15.04
531.341	15.16
531.686	15.28
532.031	15.43
532.376	15.55
532.721	15.69
533.065	15.84
533.41	16.02
533.755	16.2
534.099	16.36
534.444	16.51
534.788	16.67
535.133	16.83
535.477	16.98
535.822	17.17
536.166	17.37
536.51	17.57
536.855	17.76
537.199	17.98
537.543	18.22
537.887	18.46
538.231	18.68
538.576	18.91
538.92	19.13
539.264	19.3
539.608	19.51
539.951	19.7
540.295	19.88
540.639	20.04
540.983	20.2
541.327	20.39
541.671	20.58
542.014	20.76
542.358	20.94
542.701	21.12
543.045	21.32
543.389	21.53
543.732	21.7
544.075	21.91
544.419	22.13
544.762	22.32
545.105	22.57
545.449	22.81
545.792	23.04
546.135	23.29
546.478	23.57
546.821	23.88
547.165	24.17
547.508	24.46
547.851	24.79
548.194	25.1
548.536	25.38
548.879	25.68
549.222	25.97
549.565	26.25
549.908	26.57
550.25	26.83
550.593	27.09
550.936	27.4
551.278	27.7
551.621	28.03
551.963	28.35
552.306	28.63
552.648	28.91
552.991	29.19
553.333	29.44
553.675	29.76
554.017	30.03
554.36	30.33
554.702	30.55
555.044	30.79
555.386	31.06
555.728	31.36
556.07	31.7
556.412	32.01
556.754	32.31
557.096	32.63
557.438	32.96
557.78	33.26
558.121	33.57
558.463	33.84
558.805	34.11
559.147	34.39
559.488	34.62
559.83	34.9
560.171	35.18
560.513	35.5
560.854	35.73
561.196	36
561.537	36.2
561.878	36.56
562.22	36.84
562.561	37.1
562.902	37.4
563.243	37.64
563.584	37.86
563.925	38.12
564.266	38.33
564.607	38.55
564.948	38.8
565.289	39.03
565.63	39.33
565.971	39.56
566.312	39.79
566.653	40.07
566.993	40.31
567.334	40.59
567.675	40.76
568.015	41.02
568.356	41.22
568.696	41.54
569.037	41.71
569.377	41.94
569.718	42.14
570.058	42.31
570.398	42.49
570.739	42.72
571.079	42.91
571.419	43.1
571.759	43.29
572.099	43.45
572.439	43.66
572.779	43.78
573.119	43.96
573.459	44.13
573.799	44.28
574.139	44.44
574.479	44.54
574.819	44.7
575.158	44.8
575.498	44.93
575.838	45.04
576.177	45.12
576.517	45.26
576.856	45.48
577.196	45.67
577.535	45.89
577.875	46.07
578.214	46.25
578.553	46.43
578.893	46.58
579.232	46.71
579.571	46.8
579.91	46.96
580.25	47.08
580.589	47.28
580.928	47.38
581.267	47.52
581.606	47.76
581.945	47.94
582.283	48.18
582.622	48.37
582.961	48.55
583.3	48.69
583.639	48.85
583.977	48.92
584.316	49
584.654	49.05
584.993	49.21
585.332	49.34
585.67	49.48
586.008	49.7
586.347	49.94
586.685	50.06
587.024	50.2
587.362	50.35
587.7	50.4
588.038	50.56
588.376	50.69
588.715	50.7
589.053	50.78
589.391	50.81
589.729	50.83
590.067	50.88
590.404	51.04
590.742	51.11
591.08	51.2
591.418	51.42
591.756	51.51
592.093	51.51
592.431	51.57
592.769	51.67
593.106	51.67
593.444	51.8
593.781	51.89
594.119	51.95
594.456	51.97
594.793	52.05
595.131	52.06
595.468	52.09
595.805	52.17
596.143	52.24
596.48	52.29
596.817	52.44
597.154	52.51
597.491	52.6
597.828	52.7
598.165	52.81
598.502	52.73
598.839	52.85
599.176	53.03
599.512	53.17
599.849	53.21
600.186	53.25
600.523	53.27
600.859	53.31
601.196	53.33
601.532	53.44
601.869	53.51
602.205	53.65
602.542	53.68
602.878	53.68
603.215	53.74
603.551	53.78
603.887	53.75
604.223	53.85
604.56	53.9
604.896	53.96
605.232	53.94
605.568	54.01
605.904	53.99
606.24	53.98
606.576	54.03
606.912	54.09
607.248	54.23
607.583	54.31
607.919	54.38
608.255	54.47
608.591	54.52
608.926	54.62
609.262	54.65
609.597	54.76
609.933	54.82
610.268	54.83
610.604	54.92
610.939	55.02
611.275	55.01
611.61	55.06
611.945	55.09
612.281	55.23
612.616	55.34
612.951	55.47
613.286	55.56
613.621	55.53
613.956	55.53
614.291	55.55
614.626	55.5
614.961	55.56
615.296	55.62
615.631	55.7
615.966	55.62
616.3	55.71
616.635	55.67
616.97	55.93
617.304	55.97
617.639	56.03
617.973	56.04
618.308	56.1
618.642	56.2
618.977	56.13
619.311	56.08
619.646	56.11
619.98	56.11
620.314	56.15
620.648	56.23
620.983	56.32
621.317	56.38
621.651	56.5
621.985	56.56
622.319	56.59
622.653	56.54
622.987	56.61
623.321	56.59
623.655	56.74
623.988	56.7
624.322	56.83
624.656	56.83
624.99	56.82
625.323	56.9
625.657	56.96
625.99	57.08
626.324	57.11
626.657	57.02
626.991	57.08
627.324	57.1
627.658	57.13
627.991	57.11
628.324	57.09
628.657	57.04
628.991	57.01
629.324	57.13
629.657	57.19
629.99	57.2
630.323	57.18
630.656	57.08
630.989	57.02
631.322	57
631.655	56.99
631.987	57.21
632.32	57.02
632.653	56.87
632.986	56.93
633.318	56.93
633.651	56.98
633.984	56.97
634.316	57.01
634.649	56.98
634.981	57.06
635.313	57.13
635.646	57.21
635.978	57.26
636.31	57.18
636.643	57.13
636.975	57.21
637.307	57.24
637.639	57.3
637.971	57.24
638.303	57.17
638.635	57.26
638.967	57.14
639.299	57.38
639.631	57.49
639.963	57.45
640.295	57.61
640.626	57.7
640.958	57.84
641.29	57.79
641.621	57.73
641.953	57.75
642.285	57.77
642.616	57.75
642.948	57.71
643.279	57.75
643.61	57.89
643.942	57.92
644.273	58.04
644.604	57.98
644.936	58.2
645.267	58.37
645.598	58.27
645.929	58.26
646.26	58.3
646.591	58.35
646.922	58.41
647.253	58.28
647.584	58.27
647.915	58.24
648.245	58.21
648.576	58.26
648.907	58.18
649.238	58.17
649.568	58.14
649.899	58.22
650.229	58.25
650.56	58.18
650.89	58.11
651.221	58.06
651.551	58.19
651.882	58.22
652.212	58.05
652.542	58.2
652.872	58.2
653.203	58.13
653.533	58.08
653.863	58.08
654.193	58.11
654.523	58
654.853	58.01
655.183	58.13
655.513	58.18
655.843	58.34
656.172	58.34
656.502	58.37
656.832	58.42
657.162	58.42
657.491	58.43
657.821	58.58
658.15	58.56
658.48	58.39
658.809	58.36
659.139	58.56
659.468	58.63
659.798	58.65
660.127	58.66
660.456	58.56
660.785	58.54
661.115	58.56
661.444	58.57
661.773	58.53
662.102	58.48
662.431	58.59
662.76	58.44
663.089	58.41
663.418	58.43
663.747	58.38
664.076	58.42
664.404	58.51
664.733	58.38
665.062	58.51
665.39	58.59
665.719	58.56
666.048	58.39
666.376	58.28
666.705	58.38
667.033	58.32
667.362	58.39
667.69	58.38
668.018	58.37
668.347	58.55
668.675	58.59
669.003	58.55
669.331	58.49
669.659	58.47
669.987	58.57
670.315	58.52
670.643	58.75
670.971	58.79
671.299	58.8
671.627	58.81
671.955	58.76
672.283	58.85
672.61	58.89
672.938	58.91
673.266	58.84
673.593	58.53
673.921	58.57
674.249	58.62
674.576	58.59
674.904	58.79
675.231	58.77
675.558	58.84
675.886	59.05
676.213	59.14
676.54	59.38
676.867	59.34
677.195	59.33
677.522	59.14
677.849	59.11
678.176	59.03
678.503	59.09
678.83	59.07
679.157	59.12
679.484	59.11
679.81	59.06
680.137	59.06
680.464	59.31
680.791	59.4
681.117	59.5
681.444	59.61
681.771	59.43
682.097	59.47
682.424	59.38
682.75	59.26
683.077	59.19
683.403	59.09
683.729	59.1
684.056	59.27
684.382	59.31
684.708	59.37
685.034	59.37
685.36	59.39
685.686	59.46
686.012	59.53
686.339	59.48
686.664	59.63
686.99	59.61
687.316	59.53
687.642	59.38
687.968	59.33
688.294	59.12
688.619	59.16
688.945	59.23
689.271	59.3
689.596	59.3
689.922	59.28
690.247	59.22
690.573	59.2
690.898	59.16
691.224	59.18
691.549	59.2
691.874	59.24
692.2	59.17
692.525	59.1
692.85	59.03
693.175	59.24
693.5	59.21
693.825	59.32
694.15	59.36
694.475	59.44
694.8	59.51
695.125	59.66
695.45	59.49
695.775	59.33
696.099	59.3
696.424	59.22
696.749	59.28
697.073	59.32
697.398	59.25
697.723	59.07
698.047	59.11
698.372	58.91
698.696	59.04
699.02	59.13
699.345	59.11
699.669	59.14
699.993	59.01
700.318	59.09
700.642	59.08
700.966	59.16
701.29	59.33
701.614	59.14
701.938	59.3
702.262	59.55
702.586	59.6
702.91	59.59
703.234	59.81
703.557	59.92
703.881	59.95
704.205	60.03
704.529	60.28
704.852	60.23
705.176	60.43
705.499	60.32
705.823	60.25
706.146	60.37
706.47	60.42
706.793	60.63
707.117	60.58
707.44	60.72
707.763	60.56
708.086	60.46
708.409	60.63
708.733	60.58
709.056	60.62
709.379	60.75
709.702	60.85
710.025	60.76
710.348	60.66
710.671	60.78
710.993	60.68
711.316	60.67
711.639	60.69
711.962	60.85
712.284	61.02
712.607	61.21
712.93	61.26
713.252	61.15
713.575	60.89
713.897	61.06
714.22	60.9
714.542	61.1
714.864	61.07
715.187	60.98
715.509	60.94
715.831	60.73
716.153	60.51
716.475	60.52
716.798	60.6
717.12	60.41
717.442	60.43
717.764	60.63
718.085	60.63
718.407	60.8
718.729	60.73
719.051	60.29
719.373	60.07
719.695	59.96
720.016	59.89
720.338	60.15
720.659	60.1
720.981	59.89
721.302	59.82
721.624	60.01
721.945	60.12
722.267	60.25
722.588	60.71
722.909	60.83
723.231	60.64
723.552	60.51
723.873	60.64
724.194	60.37
724.515	60.58
724.836	60.75
725.157	60.55
725.478	60.32
725.799	60.42
726.12	60.4
726.441	60.53
726.762	60.8
727.083	60.64
727.403	60.66
727.724	61.09
728.045	61.4
728.365	61.1
728.686	61.06
729.006	60.9
729.327	60.74
729.647	60.71
729.967	60.93
730.288	60.8
730.608	60.91
730.928	61.09
731.249	60.92
731.569	60.86
731.889	60.95
732.209	61.04
732.529	61.24
732.849	61.39
733.169	61.28
733.489	61.26
733.809	61.33
734.129	61.27
734.448	61.26
734.768	60.92
735.088	61.19
735.408	61.19
735.727	61.33
736.047	61.39
736.366	61.29
736.686	61.27
737.005	61.36
737.325	61.22
737.644	61.08
737.963	61.03
738.283	60.7
738.602	60.63
738.921	60.69
739.24	60.6
739.56	60.48
739.879	60.45
740.198	60.38
740.517	60.23
740.836	60.19
741.155	59.9
741.473	59.77
741.792	59.91
742.111	59.66
742.43	59.55
742.748	59.22
743.067	59.44
743.386	59.16
743.704	59.2
744.023	59.38
744.341	59.39
744.66	59.24
744.978	59.72
745.297	59.73
745.615	59.72
745.933	59.8
746.252	59.66
746.57	59.87
746.888	60.17
747.206	60.42
747.524	60.41
747.842	60.61
748.16	60.77
748.478	60.24
748.796	60.57
749.114	60.61
749.432	60.85
749.749	60.85
750.067	61.24
750.385	61.59
750.703	61.37
751.02	61.37
751.338	61.62
751.655	61.17
751.973	61.51
752.29	61.66
752.608	61.41
752.925	61.66
753.242	61.52
753.56	61.3
753.877	61.04
754.194	61.03
754.511	60.9
754.828	60.89
755.145	61.15
755.462	61.22
755.779	60.95
756.096	60.59
756.413	60.23
756.73	60.07
757.047	59.52
757.364	59.75
757.68	59.67
757.997	59.73
758.314	60.04
758.63	59.56
758.947	59.39
759.264	59.75
759.58	59.54
759.896	59.27
760.213	59.08
760.529	59.25
760.846	59.12
761.162	58.99
761.478	59.2
761.794	58.96
762.11	59.16
762.426	59.39
762.743	59.48
763.059	59.84
763.375	59.84
763.69	60.04
764.006	59.88
764.322	60.04
764.638	60.05
764.954	59.96
765.27	59.98
765.585	60.13
765.901	60.06
766.216	60.22
766.532	60.19
766.848	60.33
767.163	60.27
767.478	60.39
767.794	60.51
768.109	60.44
768.424	60.67
768.74	60.43
769.055	60.27
769.37	60.35
769.685	59.92
770	59.81
770.315	59.55
770.63	59.69
770.945	59.94
771.26	59.98
771.575	59.81
771.89	59.59
772.205	59.31
772.52	59.34
772.834	59.47
773.149	59.85
773.464	60.21
773.778	59.54
774.093	59.42
774.407	59.62
774.722	59.26
775.036	59.12
775.351	59.11
775.665	58.79
775.979	58.78
776.293	59.36
776.608	59.36
776.922	59.68
777.236	59.25
777.55	58.63
777.864	58.28
778.178	58.45
778.492	58.98
778.806	58.6
779.12	58.74
779.434	58.43
779.747	58.66
780.061	58.1
780.375	58.56
780.689	58.8
781.002	59.33
781.316	59.51
781.629	59.27
781.943	59.4
782.256	60.27
782.57	59.69
782.883	59.32
783.196	59.69
783.51	59.29
783.823	59.71
784.136	59.83
784.449	60.27
784.762	60.46
785.075	60.41
785.388	61.3
785.701	61.04
786.014	61.54
786.327	61.22
786.64	61.48
786.953	61.72
787.266	61.49
787.578	61.65
787.891	61.92
788.204	62.08
788.516	61.91
788.829	61.43
789.141	62.26
789.454	61.99
789.766	61.96
790.079	62
790.391	62.29
790.703	62.4
791.016	62.25
791.328	62.34
791.64	61.86
791.952	61.69
792.264	61.55
792.576	61.53
792.888	61.74
793.2	62.12
793.512	62.05
793.824	62.24
794.136	61.26
794.448	60.99
794.76	61.33
795.071	61.79
795.383	62.1
795.695	61.2
796.006	61.29
796.318	61.15
796.629	61
796.941	60.82
797.252	60.13
797.564	60.26
797.875	60.49
798.186	61.56
798.497	61.61
798.809	61.53
799.12	61.31
799.431	61.34
799.742	61.06
800.053	61.11
800.364	60.66
800.675	61.25
800.986	61.48
801.297	62.09
801.608	61.52
801.918	61.7
802.229	62.25
802.54	62.58
802.851	63.05
803.161	63.69
803.472	63.46
803.782	64.72
804.093	63.95
804.403	63.73
804.714	63.23
805.024	63.45
805.334	64.01
805.645	63.73
805.955	63.36
806.265	62.93
806.575	63.34
806.885	63.92
807.195	63.52
807.505	63.61
807.815	63.01
808.125	63.87
808.435	63.34
808.745	63.27
809.055	63.33
809.365	62.68
809.674	61.97
809.984	62.55
810.294	61.76
810.603	61.82
810.913	62.15
811.222	62.12
811.532	61.65
811.841	61.57
812.151	62.15
812.46	61.69
812.769	62.57
813.079	62.11
813.388	62.01
813.697	61.88
814.006	60.88
814.315	61.38
814.624	60.61
814.933	60.68
815.242	62.36
815.551	62.86
815.86	63.38
816.169	64.43
816.478	64.32
816.786	64.51
817.095	65.04
817.404	64.22
817.712	64.07
818.021	64.43
818.33	63.55
818.638	63.27
818.947	63.53
819.255	62.65
819.563	62.32
819.872	62.21
820.18	62.17
820.488	62.3
820.796	61.86
821.105	61.71
821.413	61.63
821.721	60.94
822.029	60.87
822.337	60.68
822.645	60.44
822.953	60.34
823.26	60.36
823.568	60.47
823.876	60.51
824.184	60.32
824.491	60.13
824.799	60.23
825.107	60.27
825.414	60.21
825.722	60.38
826.029	60.49
826.337	60.4
826.644	60.39
826.951	60.48
827.259	60.4
827.566	60.27
827.873	60.48
828.18	60.66
828.488	60.79
828.795	61.12
829.102	61.58
829.409	61.43
829.716	61.61
830.023	61.13
830.329	61.28
830.636	61.56
830.943	61.02
831.25	61.11
831.557	60.57
831.863	60.68
832.17	60.44
832.476	60.61
832.783	60.49
833.089	60.71
833.396	60.72
833.702	60.94
834.009	61.45
834.315	61.02
834.621	61.18
834.928	60.29
835.234	59.83
835.54	59.68
835.846	60.55
836.152	60.4
836.458	60.79
836.764	60.48
837.07	60.93
837.376	61.87
837.682	61.79
837.988	61.77
838.293	61.74
838.599	62.06
838.905	62.19
839.211	62.38
839.516	62.02
839.822	62.46
840.127	61.82
840.433	60.94
840.738	60.56
841.044	60.96
841.349	61.66
841.654	61.76
841.959	61.79
842.265	60.94
842.57	60.71
842.875	61.52
843.18	61.44
843.485	59.73
843.79	60.89
844.095	61.84
844.4	61.98
844.705	62.69
845.01	63.1
845.315	62.3
845.619	64.5
845.924	64.88
846.229	64.04
846.533	66.44
846.838	68.46
847.142	70.41
847.447	69.58
847.751	70.75
848.056	71.81
848.36	72.74
848.664	71.99
848.969	72.36
849.273	71.2
849.577	69.62
849.881	72.81
850.185	71.16
850.489	68.59
850.794	71.12
851.097	73.27
851.401	70.54
851.705	69.63
852.009	66.24
852.313	61.89
852.617	60.82
852.92	59.01
853.224	58.91
853.528	56.46
853.831	57.58
854.135	59.72
854.438	57.72
854.742	55.36
855.045	55.16
855.349	55.64
855.652	54.27
855.955	57.45
856.259	56.1
856.562	53.83
856.865	57.16
857.168	56.69
857.471	52.67
857.774	55.12
858.077	53.9
858.38	54.6
858.683	58.87
858.986	60.53
859.289	62.11
859.592	61.22
859.894	63.38
860.197	63.84
860.5	61.1
860.802	61.43
861.105	60.49
861.407	60.29
861.71	61.08
862.012	64.82
862.315	65.11
862.617	62.55
862.919	64.63
863.222	61.78
863.524	60.52
863.826	63.04
864.128	62.52
864.43	65
864.732	63.64
865.034	64.03
865.336	63.73
865.638	59.61
865.94	59.21
866.242	57.94
866.544	56.87
866.846	55.64
867.147	56.53
867.449	57.45
867.751	59.41
868.052	55.55
868.354	53.56
868.655	53.08
868.957	55.54
869.258	54.83
869.56	55.26
869.861	55.05
870.162	52.41
870.463	53.03
870.765	50.66
871.066	53.64
871.367	55.5
871.668	54.72
871.969	58.02
872.27	58.61
872.571	59.37
872.872	58.55
873.173	59.7
873.473	56.48
873.774	56.3
874.075	56.2
874.376	58.49
874.676	59.56
874.977	57.82
875.277	56.63
875.578	56.76
875.878	56.93
876.179	57.82
876.479	58.83
876.78	57.91
877.08	60.05
877.38	58.05
877.68	55.37
877.981	54.46
878.281	53.91
878.581	52.83
