Data from BA17718_Reflection_00004.txt Node
Date: Tue Nov 19 11:47:34 EST 2019
User: vgr7
Spectrometer: USB2G7710
Scans to average: 3
Trigger mode: 4
Integration Time (sec): 2.000000E-2
Electric dark correction enabled: true
Boxcar width: 10
XAxis mode: Wavelengths
Number of Pixels in Spectrum: 2048
>>>>>Begin Spectral Data<<<<<
177.721	83.83
178.105	92.7
178.488	95.97
178.871	115.04
179.254	207.5
179.636	-3321.05
180.019	382.37
180.402	19.23
180.785	-124.55
181.168	-24.01
181.55	-15.45
181.933	-7.23
182.316	-18.74
182.698	-60.35
183.081	-70.69
183.463	-88.77
183.846	-76.44
184.228	-60.46
184.611	-101.25
184.993	-325
185.376	350
185.758	-9.5
186.14	-118.75
186.522	34.66
186.904	210.71
187.287	-159.43
187.669	1325
188.051	725
188.433	151.2
188.815	-641.07
189.197	-200.53
189.579	-90.69
189.961	-47.84
190.342	-41.68
190.724	-53.39
191.106	-57.23
191.488	-46.57
191.869	-33.72
192.251	-12.29
192.633	-10.13
193.014	-13.17
193.396	1.48
193.777	55.41
194.159	60.33
194.54	58.2
194.922	62.14
195.303	95.99
195.684	134.5
196.065	119.89
196.447	92.83
196.828	56.62
197.209	50.29
197.59	37.15
197.971	28.14
198.352	25.78
198.733	18.59
199.114	20.79
199.495	17.2
199.876	16.26
200.257	12.53
200.638	28.29
201.018	40.07
201.399	42.9
201.78	43.04
202.16	51.4
202.541	49.85
202.922	35.37
203.302	13.63
203.683	10.78
204.063	5.07
204.444	15.86
204.824	36.44
205.204	57.23
205.585	69.82
205.965	81.76
206.345	93.1
206.725	95.16
207.106	121.8
207.486	123.28
207.866	169.84
208.246	232.87
208.626	260.86
209.006	157.77
209.386	105.59
209.766	194.23
210.145	84.2
210.525	88.03
210.905	91.38
211.285	112.53
211.664	96.88
212.044	100.64
212.424	93.33
212.803	44.36
213.183	41.96
213.562	110
213.942	96.39
214.321	109.31
214.701	111.28
215.08	109.64
215.459	60.46
215.838	31.53
216.218	23.04
216.597	42.52
216.976	52.5
217.355	50.99
217.734	55.93
218.113	50.26
218.492	39.32
218.871	62
219.25	38.02
219.629	26.42
220.008	34.64
220.387	65.7
220.766	91.68
221.144	61.62
221.523	47.56
221.902	15.2
222.28	47.9
222.659	41.4
223.037	31.32
223.416	48.64
223.794	44.28
224.173	38.86
224.551	28.19
224.929	13.78
225.308	14.96
225.686	10.58
226.064	7.76
226.442	2.91
226.821	-0.81
227.199	2.66
227.577	3.73
227.955	4.97
228.333	3.78
228.711	7.35
229.089	11.35
229.467	15.21
229.845	16.53
230.222	12.38
230.6	12.88
230.978	15.32
231.356	13.27
231.733	10.86
232.111	10.42
232.488	10.84
232.866	15.98
233.243	18.06
233.621	18.14
233.998	18.61
234.376	23.33
234.753	23.91
235.13	22.97
235.508	25.52
235.885	22.6
236.262	20.35
236.639	18.05
237.016	17.59
237.393	17.12
237.77	17.52
238.147	15.37
238.524	14.86
238.901	12.9
239.278	11.56
239.655	10.69
240.032	10.71
240.409	10.5
240.785	10.66
241.162	9.31
241.539	9.11
241.915	8.94
242.292	8.14
242.668	8.22
243.045	8.34
243.421	7.9
243.798	8.18
244.174	7.72
244.551	7.56
244.927	7.09
245.303	6.48
245.679	6.06
246.056	5.75
246.432	5.58
246.808	5.83
247.184	5.99
247.56	5.89
247.936	5.58
248.312	5.52
248.688	5.31
249.064	5.44
249.44	5.19
249.815	5.2
250.191	4.96
250.567	4.76
250.943	4.8
251.318	4.58
251.694	4.49
252.069	4.65
252.445	4.61
252.82	4.84
253.196	5.04
253.571	5.49
253.947	5.88
254.322	5.93
254.697	5.88
255.073	6.01
255.448	6.36
255.823	6.96
256.198	6.75
256.573	6.8
256.948	6.94
257.323	7.17
257.698	6.84
258.073	6.87
258.448	6.63
258.823	6.17
259.198	6.1
259.573	5.83
259.948	5.82
260.322	5.77
260.697	5.8
261.072	5.96
261.446	5.74
261.821	5.57
262.195	5.45
262.57	5.5
262.944	5.51
263.319	5.27
263.693	5.09
264.067	5.21
264.442	5.02
264.816	4.72
265.19	4.74
265.564	4.92
265.938	4.9
266.313	5.16
266.687	5.31
267.061	5.44
267.435	5.46
267.809	5.31
268.183	5.42
268.556	5.19
268.93	5.11
269.304	5.21
269.678	5.21
270.051	5.45
270.425	5.36
270.799	4.97
271.172	5.19
271.546	5.22
271.919	5.01
272.293	5.18
272.666	5.4
273.04	5.21
273.413	5.09
273.787	5.1
274.16	4.87
274.533	5.01
274.906	4.93
275.279	4.9
275.653	5.1
276.026	5.01
276.399	5.05
276.772	5.02
277.145	4.92
277.518	4.86
277.891	4.83
278.263	4.99
278.636	5.07
279.009	5.03
279.382	4.99
279.755	4.91
280.127	4.84
280.5	4.68
280.872	4.61
281.245	4.65
281.617	4.73
281.99	4.81
282.362	4.55
282.735	4.59
283.107	4.78
283.479	4.81
283.852	5.06
284.224	5.22
284.596	5.18
284.968	5.14
285.34	5.2
285.713	5.14
286.085	4.92
286.457	5.02
286.829	5
287.201	4.98
287.572	5.28
287.944	5.46
288.316	5.59
288.688	5.58
289.06	5.61
289.431	5.55
289.803	5.64
290.175	5.72
290.546	5.58
290.918	5.47
291.289	5.14
291.661	4.98
292.032	4.79
292.403	4.72
292.775	5.02
293.146	5.1
293.517	5.01
293.889	5.07
294.26	5.2
294.631	5.16
295.002	5.1
295.373	4.84
295.744	4.68
296.115	4.55
296.486	4.72
296.857	4.7
297.228	4.76
297.599	4.74
297.97	4.82
298.34	5
298.711	5.15
299.082	5.52
299.452	5.39
299.823	5.44
300.194	5.46
300.564	5.13
300.935	5.1
301.305	5.26
301.676	5.17
302.046	5.08
302.416	5.04
302.787	5.15
303.157	5.37
303.527	5.52
303.897	5.44
304.267	5.41
304.637	5.35
305.008	5.26
305.378	5.27
305.748	5.24
306.117	5.11
306.487	4.98
306.857	4.9
307.227	5.01
307.597	5.04
307.967	5.08
308.336	5.3
308.706	5.24
309.076	5.36
309.445	5.52
309.815	5.43
310.184	5.41
310.554	5.36
310.923	5.25
311.293	5.13
311.662	5.17
312.031	5.14
312.401	5
312.77	4.93
313.139	4.71
313.508	4.72
313.877	4.72
314.246	4.65
314.616	4.53
314.985	4.46
315.353	4.44
315.722	4.55
316.091	4.51
316.46	4.38
316.829	4.11
317.198	3.9
317.567	3.94
317.935	4.03
318.304	4.29
318.672	4.3
319.041	4.26
319.41	4.24
319.778	4.16
320.147	4.33
320.515	4.44
320.883	4.57
321.252	4.56
321.62	4.54
321.988	4.55
322.357	4.55
322.725	4.6
323.093	4.51
323.461	4.37
323.829	4.34
324.197	4.47
324.565	4.59
324.933	4.69
325.301	4.57
325.669	4.39
326.037	4.26
326.405	4.26
326.772	4.22
327.14	4.23
327.508	4.28
327.875	4.27
328.243	4.21
328.61	4.12
328.978	4.12
329.346	4.13
329.713	4.24
330.08	4.18
330.448	4.1
330.815	4.16
331.182	4.13
331.55	4.13
331.917	4.08
332.284	3.97
332.651	4.05
333.018	4.1
333.385	4.38
333.752	4.41
334.119	4.42
334.486	4.65
334.853	4.52
335.22	4.52
335.587	4.47
335.954	4.47
336.32	4.65
336.687	4.7
337.054	4.71
337.42	4.62
337.787	4.68
338.153	4.71
338.52	4.71
338.886	4.83
339.253	4.76
339.619	4.77
339.986	4.79
340.352	4.8
340.718	4.89
341.084	4.73
341.451	4.59
341.817	4.49
342.183	4.21
342.549	4.47
342.915	4.38
343.281	4.4
343.647	4.43
344.013	4.34
344.379	4.16
344.745	4.16
345.11	4.06
345.476	4.04
345.842	4.03
346.208	4.1
346.573	4.01
346.939	4.08
347.304	4.08
347.67	4.06
348.035	3.94
348.401	3.89
348.766	3.84
349.132	3.98
349.497	3.98
349.862	4.08
350.228	3.86
350.593	3.97
350.958	4.11
351.323	4
351.688	4.06
352.053	4.08
352.418	4.07
352.783	4.12
353.148	4.14
353.513	4.12
353.878	4.07
354.243	3.93
354.608	3.96
354.972	3.94
355.337	3.95
355.702	3.9
356.066	3.88
356.431	4.04
356.795	4
357.16	4.04
357.524	4.06
357.889	4.11
358.253	4.07
358.618	3.97
358.982	4.08
359.346	4
359.71	3.98
360.075	4.04
360.439	4.09
360.803	4.14
361.167	4.16
361.531	4.12
361.895	4.14
362.259	4.15
362.623	4.12
362.987	4.11
363.351	4.13
363.714	4.1
364.078	4.01
364.442	3.97
364.806	3.99
365.169	3.98
365.533	3.97
365.896	4.02
366.26	3.93
366.623	3.86
366.987	3.87
367.35	4.03
367.714	3.95
368.077	3.92
368.44	3.82
368.803	3.83
369.167	3.8
369.53	3.85
369.893	3.78
370.256	3.83
370.619	3.78
370.982	3.75
371.345	3.84
371.708	3.79
372.071	3.76
372.434	3.77
372.797	3.79
373.159	3.8
373.522	3.72
373.885	3.81
374.247	3.86
374.61	3.89
374.973	3.8
375.335	3.82
375.698	3.75
376.06	3.76
376.423	3.69
376.785	3.73
377.147	3.77
377.51	3.8
377.872	3.74
378.234	3.74
378.596	3.78
378.958	3.76
379.321	3.75
379.683	3.8
380.045	3.74
380.407	3.73
380.769	3.73
381.13	3.76
381.492	3.71
381.854	3.68
382.216	3.63
382.578	3.65
382.939	3.7
383.301	3.74
383.663	3.7
384.024	3.8
384.386	3.82
384.747	3.77
385.109	3.73
385.47	3.8
385.832	3.8
386.193	3.73
386.554	3.69
386.916	3.74
387.277	3.69
387.638	3.69
387.999	3.66
388.36	3.64
388.721	3.61
389.082	3.66
389.443	3.65
389.804	3.7
390.165	3.69
390.526	3.66
390.887	3.65
391.248	3.67
391.609	3.63
391.969	3.65
392.33	3.71
392.691	3.7
393.051	3.65
393.412	3.65
393.772	3.71
394.133	3.71
394.493	3.7
394.854	3.71
395.214	3.72
395.574	3.71
395.935	3.71
396.295	3.71
396.655	3.69
397.015	3.72
397.376	3.71
397.736	3.68
398.096	3.64
398.456	3.67
398.816	3.65
399.176	3.64
399.535	3.6
399.895	3.54
400.255	3.57
400.615	3.57
400.975	3.58
401.334	3.55
401.694	3.56
402.054	3.57
402.413	3.61
402.773	3.63
403.132	3.64
403.492	3.67
403.851	3.7
404.211	3.69
404.57	3.68
404.929	3.61
405.288	3.65
405.648	3.67
406.007	3.65
406.366	3.68
406.725	3.69
407.084	3.74
407.443	3.77
407.802	3.77
408.161	3.81
408.52	3.81
408.879	3.83
409.238	3.84
409.596	3.81
409.955	3.79
410.314	3.79
410.673	3.81
411.031	3.76
411.39	3.76
411.748	3.79
412.107	3.78
412.465	3.85
412.824	3.84
413.182	3.83
413.54	3.83
413.899	3.83
414.257	3.79
414.615	3.72
414.974	3.74
415.332	3.75
415.69	3.75
416.048	3.75
416.406	3.73
416.764	3.71
417.122	3.72
417.48	3.73
417.838	3.72
418.195	3.71
418.553	3.69
418.911	3.67
419.269	3.67
419.626	3.67
419.984	3.65
420.342	3.65
420.699	3.65
421.057	3.66
421.414	3.65
421.772	3.7
422.129	3.71
422.486	3.69
422.844	3.68
423.201	3.68
423.558	3.67
423.915	3.68
424.273	3.69
424.63	3.69
424.987	3.67
425.344	3.67
425.701	3.67
426.058	3.69
426.415	3.71
426.772	3.69
427.128	3.7
427.485	3.71
427.842	3.71
428.199	3.74
428.555	3.74
428.912	3.76
429.269	3.73
429.625	3.73
429.982	3.73
430.338	3.73
430.695	3.69
431.051	3.73
431.407	3.74
431.764	3.74
432.12	3.77
432.476	3.78
432.832	3.8
433.189	3.79
433.545	3.79
433.901	3.79
434.257	3.78
434.613	3.77
434.969	3.76
435.325	3.76
435.681	3.74
436.036	3.73
436.392	3.72
436.748	3.71
437.104	3.71
437.459	3.72
437.815	3.74
438.171	3.76
438.526	3.75
438.882	3.74
439.237	3.75
439.593	3.73
439.948	3.74
440.304	3.72
440.659	3.72
441.014	3.72
441.369	3.73
441.725	3.73
442.08	3.74
442.435	3.75
442.79	3.75
443.145	3.74
443.5	3.73
443.855	3.73
444.21	3.72
444.565	3.72
444.92	3.7
445.275	3.69
445.629	3.68
445.984	3.67
446.339	3.68
446.693	3.69
447.048	3.67
447.403	3.69
447.757	3.69
448.112	3.68
448.466	3.68
448.82	3.68
449.175	3.7
449.529	3.68
449.883	3.68
450.238	3.67
450.592	3.68
450.946	3.68
451.3	3.7
451.654	3.71
452.008	3.7
452.362	3.71
452.716	3.69
453.07	3.69
453.424	3.68
453.778	3.68
454.132	3.64
454.486	3.67
454.839	3.65
455.193	3.65
455.547	3.68
455.9	3.69
456.254	3.69
456.607	3.67
456.961	3.68
457.314	3.66
457.668	3.66
458.021	3.64
458.375	3.64
458.728	3.64
459.081	3.63
459.434	3.64
459.787	3.67
460.141	3.69
460.494	3.71
460.847	3.73
461.2	3.73
461.553	3.74
461.906	3.76
462.259	3.75
462.611	3.75
462.964	3.73
463.317	3.73
463.67	3.72
464.022	3.73
464.375	3.73
464.728	3.76
465.08	3.76
465.433	3.76
465.785	3.77
466.138	3.76
466.49	3.78
466.843	3.79
467.195	3.79
467.547	3.78
467.899	3.78
468.252	3.74
468.604	3.73
468.956	3.71
469.308	3.69
469.66	3.7
470.012	3.71
470.364	3.71
470.716	3.71
471.068	3.74
471.42	3.74
471.772	3.74
472.123	3.75
472.475	3.76
472.827	3.75
473.178	3.75
473.53	3.76
473.882	3.76
474.233	3.72
474.585	3.69
474.936	3.66
475.288	3.67
475.639	3.69
475.99	3.69
476.342	3.71
476.693	3.71
477.044	3.69
477.395	3.68
477.746	3.67
478.097	3.69
478.448	3.69
478.8	3.69
479.15	3.7
479.501	3.69
479.852	3.7
480.203	3.73
480.554	3.73
480.905	3.72
481.255	3.71
481.606	3.72
481.957	3.73
482.307	3.73
482.658	3.72
483.009	3.72
483.359	3.72
483.709	3.73
484.06	3.73
484.41	3.74
484.761	3.75
485.111	3.75
485.461	3.75
485.811	3.75
486.162	3.75
486.512	3.75
486.862	3.75
487.212	3.74
487.562	3.73
487.912	3.73
488.262	3.75
488.612	3.76
488.961	3.75
489.311	3.75
489.661	3.76
490.011	3.76
490.36	3.77
490.71	3.77
491.06	3.76
491.409	3.74
491.759	3.75
492.108	3.75
492.458	3.74
492.807	3.75
493.157	3.75
493.506	3.74
493.855	3.75
494.204	3.77
494.554	3.78
494.903	3.78
495.252	3.78
495.601	3.77
495.95	3.77
496.299	3.78
496.648	3.78
496.997	3.79
497.346	3.81
497.695	3.82
498.043	3.84
498.392	3.84
498.741	3.86
499.09	3.88
499.438	3.88
499.787	3.9
500.135	3.86
500.484	3.86
500.832	3.89
501.181	3.88
501.529	3.89
501.878	3.9
502.226	3.9
502.574	3.9
502.923	3.91
503.271	3.9
503.619	3.92
503.967	3.9
504.315	3.9
504.663	3.89
505.011	3.89
505.359	3.87
505.707	3.88
506.055	3.87
506.403	3.86
506.751	3.85
507.098	3.88
507.446	3.88
507.794	3.87
508.141	3.85
508.489	3.85
508.837	3.84
509.184	3.82
509.531	3.83
509.879	3.83
510.226	3.82
510.574	3.85
510.921	3.84
511.268	3.86
511.616	3.88
511.963	3.89
512.31	3.89
512.657	3.9
513.004	3.92
513.351	3.92
513.698	3.91
514.045	3.91
514.392	3.89
514.739	3.91
515.086	3.94
515.432	3.96
515.779	3.95
516.126	3.98
516.473	4.01
516.819	4.01
517.166	4.04
517.512	4.05
517.859	4.06
518.205	4.06
518.552	4.06
518.898	4.05
519.245	4.06
519.591	4.07
519.937	4.06
520.283	4.04
520.629	4.05
520.976	4.05
521.322	4.05
521.668	4.06
522.014	4.09
522.36	4.09
522.706	4.09
523.052	4.12
523.398	4.1
523.743	4.07
524.089	4.08
524.435	4.06
524.781	4.07
525.126	4.06
525.472	4.07
525.817	4.1
526.163	4.08
526.509	4.09
526.854	4.08
527.199	4.09
527.545	4.09
527.89	4.1
528.235	4.11
528.581	4.11
528.926	4.1
529.271	4.08
529.616	4.08
529.961	4.08
530.306	4.07
530.651	4.07
530.996	4.08
531.341	4.08
531.686	4.08
532.031	4.07
532.376	4.07
532.721	4.06
533.065	4.04
533.41	4.05
533.755	4.04
534.099	4.04
534.444	4.04
534.788	4.04
535.133	4.04
535.477	4.04
535.822	4.04
536.166	4.05
536.51	4.04
536.855	4.03
537.199	4.05
537.543	4.06
537.887	4.07
538.231	4.07
538.576	4.07
538.92	4.08
539.264	4.1
539.608	4.1
539.951	4.1
540.295	4.12
540.639	4.13
540.983	4.14
541.327	4.16
541.671	4.17
542.014	4.18
542.358	4.17
542.701	4.17
543.045	4.18
543.389	4.2
543.732	4.2
544.075	4.22
544.419	4.22
544.762	4.21
545.105	4.2
545.449	4.21
545.792	4.21
546.135	4.19
546.478	4.2
546.821	4.22
547.165	4.23
547.508	4.21
547.851	4.19
548.194	4.17
548.536	4.13
548.879	4.11
549.222	4.11
549.565	4.14
549.908	4.14
550.25	4.12
550.593	4.08
550.936	4.11
551.278	4.06
551.621	4.06
551.963	4.08
552.306	4.08
552.648	4.07
552.991	4.07
553.333	4.09
553.675	4.1
554.017	4.07
554.36	4.09
554.702	4.11
555.044	4.13
555.386	4.18
555.728	4.21
556.07	4.22
556.412	4.21
556.754	4.18
557.096	4.18
557.438	4.2
557.78	4.2
558.121	4.18
558.463	4.21
558.805	4.19
559.147	4.21
559.488	4.22
559.83	4.25
560.171	4.22
560.513	4.21
560.854	4.2
561.196	4.22
561.537	4.22
561.878	4.24
562.22	4.23
562.561	4.24
562.902	4.26
563.243	4.28
563.584	4.3
563.925	4.35
564.266	4.35
564.607	4.37
564.948	4.38
565.289	4.38
565.63	4.39
565.971	4.4
566.312	4.37
566.653	4.38
566.993	4.37
567.334	4.4
567.675	4.41
568.015	4.41
568.356	4.38
568.696	4.38
569.037	4.35
569.377	4.36
569.718	4.36
570.058	4.34
570.398	4.32
570.739	4.31
571.079	4.26
571.419	4.26
571.759	4.23
572.099	4.21
572.439	4.21
572.779	4.21
573.119	4.22
573.459	4.2
573.799	4.19
574.139	4.17
574.479	4.16
574.819	4.14
575.158	4.14
575.498	4.17
575.838	4.14
576.177	4.11
576.517	4.09
576.856	4.07
577.196	4.06
577.535	4.07
577.875	4.06
578.214	4.09
578.553	4.09
578.893	4.1
579.232	4.12
579.571	4.14
579.91	4.18
580.25	4.18
580.589	4.22
580.928	4.22
581.267	4.23
581.606	4.24
581.945	4.21
582.283	4.24
582.622	4.23
582.961	4.26
583.3	4.3
583.639	4.34
583.977	4.34
584.316	4.36
584.654	4.36
584.993	4.37
585.332	4.37
585.67	4.38
586.008	4.39
586.347	4.42
586.685	4.36
587.024	4.31
587.362	4.3
587.7	4.3
588.038	4.36
588.376	4.37
588.715	4.37
589.053	4.38
589.391	4.36
589.729	4.37
590.067	4.38
590.404	4.36
590.742	4.34
591.08	4.34
591.418	4.32
591.756	4.33
592.093	4.35
592.431	4.35
592.769	4.34
593.106	4.32
593.444	4.36
593.781	4.34
594.119	4.38
594.456	4.37
594.793	4.34
595.131	4.3
595.468	4.31
595.805	4.3
596.143	4.33
596.48	4.38
596.817	4.35
597.154	4.35
597.491	4.38
597.828	4.41
598.165	4.41
598.502	4.41
598.839	4.43
599.176	4.45
599.512	4.46
599.849	4.45
600.186	4.45
600.523	4.41
600.859	4.45
601.196	4.42
601.532	4.42
601.869	4.45
602.205	4.45
602.542	4.43
602.878	4.53
603.215	4.54
603.551	4.49
603.887	4.49
604.223	4.47
604.56	4.49
604.896	4.53
605.232	4.49
605.568	4.5
605.904	4.46
606.24	4.42
606.576	4.43
606.912	4.39
607.248	4.42
607.583	4.44
607.919	4.46
608.255	4.46
608.591	4.51
608.926	4.51
609.262	4.52
609.597	4.54
609.933	4.46
610.268	4.45
610.604	4.46
610.939	4.5
611.275	4.52
611.61	4.46
611.945	4.41
612.281	4.43
612.616	4.44
612.951	4.45
613.286	4.5
613.621	4.49
613.956	4.54
614.291	4.48
614.626	4.5
614.961	4.5
615.296	4.53
615.631	4.5
615.966	4.48
616.3	4.52
616.635	4.49
616.97	4.49
617.304	4.51
617.639	4.49
617.973	4.46
618.308	4.46
618.642	4.51
618.977	4.46
619.311	4.51
619.646	4.5
619.98	4.5
620.314	4.43
620.648	4.45
620.983	4.46
621.317	4.5
621.651	4.49
621.985	4.5
622.319	4.5
622.653	4.5
622.987	4.55
623.321	4.53
623.655	4.57
623.988	4.6
624.322	4.58
624.656	4.6
624.99	4.57
625.323	4.59
625.657	4.58
625.99	4.64
626.324	4.6
626.657	4.58
626.991	4.57
627.324	4.59
627.658	4.54
627.991	4.59
628.324	4.58
628.657	4.58
628.991	4.59
629.324	4.58
629.657	4.58
629.99	4.56
630.323	4.6
630.656	4.58
630.989	4.58
631.322	4.52
631.655	4.52
631.987	4.61
632.32	4.62
632.653	4.58
632.986	4.56
633.318	4.62
633.651	4.63
633.984	4.66
634.316	4.64
634.649	4.69
634.981	4.64
635.313	4.67
635.646	4.66
635.978	4.68
636.31	4.65
636.643	4.68
636.975	4.7
637.307	4.65
637.639	4.61
637.971	4.6
638.303	4.62
638.635	4.64
638.967	4.54
639.299	4.58
639.631	4.65
639.963	4.69
640.295	4.7
640.626	4.75
640.958	4.77
641.29	4.81
641.621	4.85
641.953	4.84
642.285	4.81
642.616	4.83
642.948	4.81
643.279	4.8
643.61	4.84
643.942	4.79
644.273	4.86
644.604	4.96
644.936	4.93
645.267	4.93
645.598	4.92
645.929	4.94
646.26	4.91
646.591	4.91
646.922	4.9
647.253	4.84
647.584	4.83
647.915	4.77
648.245	4.81
648.576	4.74
648.907	4.73
649.238	4.67
649.568	4.67
649.899	4.69
650.229	4.74
650.56	4.74
650.89	4.81
651.221	4.76
651.551	4.68
651.882	4.72
652.212	4.74
652.542	4.75
652.872	4.77
653.203	4.84
653.533	4.8
653.863	4.8
654.193	4.81
654.523	4.75
654.853	4.82
655.183	4.79
655.513	4.85
655.843	4.83
656.172	4.96
656.502	4.93
656.832	4.9
657.162	4.87
657.491	4.91
657.821	4.89
658.15	4.89
658.48	4.95
658.809	4.88
659.139	4.95
659.468	5
659.798	4.99
660.127	4.96
660.456	4.94
660.785	4.95
661.115	4.89
661.444	4.97
661.773	4.97
662.102	5.01
662.431	4.99
662.76	5.08
663.089	5.07
663.418	5.12
663.747	5.09
664.076	5.09
664.404	5.03
664.733	5.04
665.062	5.15
665.39	5.2
665.719	5.22
666.048	5.23
666.376	5.17
666.705	5.24
667.033	5.22
667.362	5.26
667.69	5.25
668.018	5.29
668.347	5.25
668.675	5.21
669.003	5.14
669.331	5.08
669.659	5.08
669.987	5.02
670.315	4.98
670.643	4.97
670.971	5.02
671.299	4.95
671.627	4.93
671.955	4.77
672.283	4.75
672.61	4.84
672.938	4.82
673.266	4.89
673.593	4.87
673.921	4.87
674.249	4.84
674.576	4.82
674.904	4.82
675.231	4.89
675.558	4.96
675.886	4.96
676.213	5.02
676.54	5.02
676.867	5.06
677.195	5.18
677.522	5.27
677.849	5.29
678.176	5.31
678.503	5.26
678.83	5.32
679.157	5.31
679.484	5.24
679.81	5.27
680.137	5.19
680.464	5.23
680.791	5.19
681.117	5.27
681.444	5.25
681.771	5.3
682.097	5.28
682.424	5.22
682.75	5.2
683.077	5.26
683.403	5.33
683.729	5.31
684.056	5.2
684.382	5.21
684.708	5.28
685.034	5.31
685.36	5.31
685.686	5.36
686.012	5.38
686.339	5.44
686.664	5.44
686.99	5.44
687.316	5.42
687.642	5.44
687.968	5.38
688.294	5.41
688.619	5.38
688.945	5.41
689.271	5.37
689.596	5.54
689.922	5.44
690.247	5.34
690.573	5.33
690.898	5.4
691.224	5.45
691.549	5.38
691.874	5.31
692.2	5.29
692.525	5.22
692.85	5.22
693.175	5.18
693.5	5.17
693.825	5.16
694.15	5.12
694.475	5.08
694.8	5.11
695.125	5.2
695.45	5.13
695.775	5.12
696.099	5.13
696.424	5.18
696.749	5.27
697.073	5.27
697.398	5.29
697.723	5.34
698.047	5.29
698.372	5.34
698.696	5.36
699.02	5.4
699.345	5.35
699.669	5.43
699.993	5.45
700.318	5.42
700.642	5.53
700.966	5.5
701.29	5.64
701.614	5.63
701.938	5.62
702.262	5.77
702.586	5.93
702.91	5.96
703.234	5.9
703.557	5.96
703.881	6.02
704.205	5.87
704.529	5.91
704.852	5.91
705.176	5.88
705.499	6.07
705.823	6.09
706.146	6.15
706.47	6.05
706.793	6.19
707.117	6.22
707.44	6.04
707.763	6.29
708.086	6.15
708.409	6.11
708.733	6.1
709.056	6.04
709.379	5.97
709.702	6.13
710.025	5.99
710.348	6
710.671	5.92
710.993	6.08
711.316	6.02
711.639	6.13
711.962	6.22
712.284	6.08
712.607	6.03
712.93	6.09
713.252	6.1
713.575	5.93
713.897	5.94
714.22	6.03
714.542	5.93
714.864	5.92
715.187	5.97
715.509	5.95
715.831	5.98
716.153	5.98
716.475	5.95
716.798	6.06
717.12	5.98
717.442	6.01
717.764	5.9
718.085	5.93
718.407	5.85
718.729	5.7
719.051	5.73
719.373	6.06
719.695	6.06
720.016	6.04
720.338	6.1
720.659	6.08
720.981	6.03
721.302	6.17
721.624	6.26
721.945	6.22
722.267	6.43
722.588	6.47
722.909	6.48
723.231	6.29
723.552	6.24
723.873	6.34
724.194	6.27
724.515	6.5
724.836	6.37
725.157	6.41
725.478	6.45
725.799	6.48
726.12	6.35
726.441	6.22
726.762	6.23
727.083	6.31
727.403	6.3
727.724	6.25
728.045	6.22
728.365	6.25
728.686	6.49
729.006	6.39
729.327	6.46
729.647	6.44
729.967	6.63
730.288	6.62
730.608	6.69
730.928	6.94
731.249	6.95
731.569	7.1
731.889	7.03
732.209	7.01
732.529	6.92
732.849	6.94
733.169	7.04
733.489	7.05
733.809	7.09
734.129	7.21
734.448	7.43
734.768	7.25
735.088	7.08
735.408	6.99
735.727	6.87
736.047	6.76
736.366	6.62
736.686	6.53
737.005	6.61
737.325	6.33
737.644	6.03
737.963	5.89
738.283	5.78
738.602	5.88
738.921	6.1
739.24	6.32
739.56	6.24
739.879	6.16
740.198	6.13
740.517	5.97
740.836	5.82
741.155	5.85
741.473	6.09
741.792	6.25
742.111	6.45
742.43	6.68
742.748	6.74
743.067	6.88
743.386	6.94
743.704	7.1
744.023	7.42
744.341	7.74
744.66	7.91
744.978	7.93
745.297	7.91
745.615	7.64
745.933	7.57
746.252	7.57
746.57	7.95
746.888	7.99
747.206	8.07
747.524	8.19
747.842	7.83
748.16	7.95
748.478	8.11
748.796	7.87
749.114	7.66
749.432	7.59
749.749	7.52
750.067	7.71
750.385	7.57
750.703	7.37
751.02	7.16
751.338	7.13
751.655	7.19
751.973	7.17
752.29	7.09
752.608	7.1
752.925	7.16
753.242	6.98
753.56	6.96
753.877	7
754.194	7.36
754.511	7.54
754.828	7.25
755.145	7.16
755.462	7.17
755.779	7.43
756.096	7.49
756.413	7.57
756.73	7.49
757.047	7.55
757.364	7.55
757.68	7.9
757.997	7.81
758.314	7.98
758.63	8.12
758.947	8.69
759.264	8.55
759.58	8.39
759.896	8.44
760.213	8.44
760.529	8.43
760.846	8.35
761.162	8.32
761.478	8.26
761.794	8.19
762.11	8.12
762.426	7.92
762.743	8.14
763.059	8.29
763.375	7.98
763.69	8.23
764.006	8.29
764.322	8.3
764.638	8.56
764.954	8.47
765.27	8.43
765.585	8.28
765.901	8.14
766.216	8.15
766.532	7.9
766.848	7.94
767.163	7.87
767.478	7.55
767.794	7.51
768.109	7.65
768.424	7.67
768.74	7.71
769.055	7.66
769.37	7.13
769.685	7.06
770	7.25
770.315	6.86
770.63	7.05
770.945	6.74
771.26	6.51
771.575	6.31
771.89	5.97
772.205	5.8
772.52	6.09
772.834	6.36
773.149	6.41
773.464	6.49
773.778	6.19
774.093	6.18
774.407	6.3
774.722	6.51
775.036	6.79
775.351	6.87
775.665	7.14
775.979	7.69
776.293	7.58
776.608	7.64
776.922	7.33
777.236	7.17
777.55	7.54
777.864	7.53
778.178	7.8
778.492	8.04
778.806	8.27
779.12	8.32
779.434	8.19
779.747	8.67
780.061	8.36
780.375	8.94
780.689	9.48
781.002	9.64
781.316	9.61
781.629	9.5
781.943	9.6
782.256	9.42
782.57	9.21
782.883	9.34
783.196	9.62
783.51	10.67
783.823	10.74
784.136	10.64
784.449	10.84
784.762	10.87
785.075	10.98
785.388	11.11
785.701	11.27
786.014	11.25
786.327	10.49
786.64	11.42
786.953	11.52
787.266	10.9
787.578	10.86
787.891	10.41
788.204	10.28
788.516	10.38
788.829	10.53
789.141	10.67
789.454	10.51
789.766	10.43
790.079	10.08
790.391	9.76
790.703	9.29
791.016	9.42
791.328	9.12
791.64	9.2
791.952	9.45
792.264	9.08
792.576	9.52
792.888	10.37
793.2	9.68
793.512	9.81
793.824	10.39
794.136	10.23
794.448	10.59
794.76	10.74
795.071	10.65
795.383	10.23
795.695	9.77
796.006	9.66
796.318	9.58
796.629	9.27
796.941	9.73
797.252	9.5
797.564	9.44
797.875	9.91
798.186	9.89
798.497	9.22
798.809	9.62
799.12	9.4
799.431	9.11
799.742	9.52
800.053	9.14
800.364	9.05
800.675	8.95
800.986	9
801.297	9
801.608	9.04
801.918	9.78
802.229	9.7
802.54	9.87
802.851	9.7
803.161	9.39
803.472	9.33
803.782	10.12
804.093	9.55
804.403	9.01
804.714	9.43
805.024	9.51
805.334	9.74
805.645	9.21
805.955	9.16
806.265	8.38
806.575	8.38
806.885	8.22
807.195	8.65
807.505	8.31
807.815	8.65
808.125	8.58
808.435	7.91
808.745	8.4
809.055	8.79
809.365	9.02
809.674	9.4
809.984	9.75
810.294	8.97
810.603	9.32
810.913	9.19
811.222	8.63
811.532	8.4
811.841	8.66
812.151	9.03
812.46	9.57
812.769	10.23
813.079	10.82
813.388	10.85
813.697	10.3
814.006	11.46
814.315	10.94
814.624	10.97
814.933	11.48
815.242	11.26
815.551	11.21
815.86	11.24
816.169	10.59
816.478	10.35
816.786	11.22
817.095	11.05
817.404	11.6
817.712	11.17
818.021	11.12
818.33	10.17
818.638	10.33
818.947	10.2
819.255	9.66
819.563	8.82
819.872	8.84
820.18	9.06
820.488	8.97
820.796	9.29
821.105	9.53
821.413	9.56
821.721	9.42
822.029	9.32
822.337	9.42
822.645	9.68
822.953	9.62
823.26	9.56
823.568	9.61
823.876	9.68
824.184	9.72
824.491	9.7
824.799	9.8
825.107	9.72
825.414	9.65
825.722	9.7
826.029	9.97
826.337	10.12
826.644	10.12
826.951	9.79
827.259	9.64
827.566	9.51
827.873	9.64
828.18	9.73
828.488	9.75
828.795	9.68
829.102	9.69
829.409	9.73
829.716	9.67
830.023	9.77
830.329	9.37
830.636	9.51
830.943	9.6
831.25	9.74
831.557	9.56
831.863	9.5
832.17	9.19
832.476	9.36
832.783	9.09
833.089	9.1
833.396	9.65
833.702	9.74
834.009	10.12
834.315	9.81
834.621	10.2
834.928	10.28
835.234	10.43
835.54	10.13
835.846	10.02
836.152	10.27
836.458	10.05
836.764	10.39
837.07	10.42
837.376	10.23
837.682	9.83
837.988	9.94
838.293	10.28
838.599	11.35
838.905	10.75
839.211	11.05
839.516	10.51
839.822	10.64
840.127	10.02
840.433	9.32
840.738	9.2
841.044	9.06
841.349	8.68
841.654	7.87
841.959	8.29
842.265	8.27
842.57	8.45
842.875	8.11
843.18	8.1
843.485	8.77
843.79	9.47
844.095	9.35
844.4	11.12
844.705	11.54
845.01	11.06
845.315	12.44
845.619	11.86
845.924	13.19
846.229	13.45
846.533	14.39
846.838	13.28
847.142	13.48
847.447	13.45
847.751	14.27
848.056	15.1
848.36	15.35
848.664	15.64
848.969	14.62
849.273	15.1
849.577	16.65
849.881	16.52
850.185	17.52
850.489	20.18
850.794	17.6
851.097	16.87
851.401	18.67
851.705	15.86
852.009	16.4
852.313	17.03
852.617	17.13
852.92	20.16
853.224	20.76
853.528	20.18
853.831	20.7
854.135	20.33
854.438	19.32
854.742	19.33
855.045	19.88
855.349	19.87
855.652	20.27
855.955	19.35
856.259	19.63
856.562	18.32
856.865	15.78
857.168	18.4
857.471	19.73
857.774	17.03
858.077	19.94
858.38	19.77
858.683	19.18
858.986	18.42
859.289	16.57
859.592	18.08
859.894	19.92
860.197	18.57
860.5	19.35
860.802	20.83
861.105	20.82
861.407	18.8
861.71	18.66
862.012	19
862.315	18.95
862.617	17.16
862.919	18.71
863.222	20.68
863.524	17.33
863.826	14.47
864.128	16.4
864.43	15.74
864.732	16.55
865.034	18.89
865.336	19.58
865.638	17.85
865.94	17.71
866.242	17.69
866.544	18.01
866.846	16.85
867.147	19.77
867.449	18.7
867.751	20.21
868.052	20
868.354	17.98
868.655	17
868.957	18.62
869.258	14.93
869.56	14.04
869.861	16.6
870.162	19.61
870.463	19.7
870.765	18.48
871.066	19.63
871.367	16.56
871.668	14.95
871.969	17.13
872.27	16.8
872.571	14.67
872.872	16.01
873.173	16.12
873.473	10.95
873.774	11.96
874.075	13.38
874.376	15.25
874.676	17.84
874.977	18.94
875.277	16.93
875.578	18.67
875.878	18.95
876.179	18.42
876.479	16.85
876.78	15.92
877.08	16.74
877.38	14.93
877.68	17.17
877.981	19.19
878.281	17.45
878.581	16.78
