Data from BA17718_Reflection_00005.txt Node
Date: Tue Nov 19 11:47:36 EST 2019
User: vgr7
Spectrometer: USB2G7710
Scans to average: 3
Trigger mode: 4
Integration Time (sec): 2.000000E-2
Electric dark correction enabled: true
Boxcar width: 10
XAxis mode: Wavelengths
Number of Pixels in Spectrum: 2048
>>>>>Begin Spectral Data<<<<<
177.721	16.82
178.105	-9.49
178.488	6.68
178.871	52.21
179.254	25
179.636	-136.84
180.019	-29.5
180.402	80.77
180.785	214.55
181.168	147.49
181.55	57.01
181.933	60.9
182.316	74.94
182.698	17.01
183.081	52.73
183.463	33.2
183.846	37.38
184.228	51.71
184.611	41.5
184.993	86.36
185.376	-481.63
185.758	-333.88
186.14	-1325
186.522	-581.82
186.904	-628.57
187.287	892.45
187.669	-3800
188.051	-1877.27
188.433	515.66
188.815	-703.57
189.197	-298.94
189.579	-86.13
189.961	-59.9
190.342	-27.66
190.724	-70.35
191.106	-43.25
191.488	-48.71
191.869	-35.86
192.251	-43.46
192.633	-48.73
193.014	-58.52
193.396	-36.67
193.777	-11.22
194.159	-3.25
194.54	10.6
194.922	5.55
195.303	16.79
195.684	6.43
196.065	34.25
196.447	17.71
196.828	8.22
197.209	12.94
197.59	2.99
197.971	3.92
198.352	-2.19
198.733	4.78
199.114	11.61
199.495	14.21
199.876	-5.69
200.257	4.34
200.638	5.42
201.018	2.21
201.399	0.36
201.78	10.52
202.16	10.7
202.541	15.99
202.922	8.92
203.302	-6.57
203.683	-18.35
204.063	-38.77
204.444	-33.13
204.824	-35.64
205.204	-25.72
205.585	-25.79
205.965	-49.47
206.345	-12.01
206.725	15.49
207.106	19.93
207.486	40.46
207.866	78.65
208.246	118.89
208.626	93.85
209.006	55.88
209.386	-24.6
209.766	-188.46
210.145	-44.23
210.525	-102.82
210.905	-50.47
211.285	-42.48
211.664	-20
212.044	-19.85
212.424	34.47
212.803	43.64
213.183	35.71
213.562	134.29
213.942	91.33
214.321	22.64
214.701	-17.58
215.08	-73.59
215.459	-84.99
215.838	-62.68
216.218	-98.35
216.597	-76.05
216.976	-62.27
217.355	-40.86
217.734	-23.56
218.113	-18.84
218.492	-9.01
218.871	-46.4
219.25	-47.25
219.629	-80.99
220.008	-42.6
220.387	-123.26
220.766	-90.8
221.144	-76.47
221.523	-76.59
221.902	-70.24
222.28	-59.44
222.659	-32.8
223.037	-23.23
223.416	-30.32
223.794	-33.47
224.173	-36.48
224.551	-14.33
224.929	-15.54
225.308	-17.74
225.686	-15.94
226.064	-20
226.442	-16.96
226.821	-0.23
227.199	1.23
227.577	7.22
227.955	1.5
228.333	-0.3
228.711	-5.14
229.089	-4.78
229.467	-7.4
229.845	-8.77
230.222	-8.46
230.6	-8.64
230.978	-2.05
231.356	1.15
231.733	2.15
232.111	4.22
232.488	4.19
232.866	8.14
233.243	8.56
233.621	9.66
233.998	8.39
234.376	7.99
234.753	4.17
235.13	4.05
235.508	4.47
235.885	3.38
236.262	4.98
236.639	4.58
237.016	5.7
237.393	7.19
237.77	7.95
238.147	7.97
238.524	6.38
238.901	5.26
239.278	4.6
239.655	4.3
240.032	4.42
240.409	4.53
240.785	4.09
241.162	5.16
241.539	4.64
241.915	4.59
242.292	5.34
242.668	5.6
243.045	6.05
243.421	5.91
243.798	5.88
244.174	5.9
244.551	6.23
244.927	5.99
245.303	5.57
245.679	5.19
246.056	5.04
246.432	5.1
246.808	5.1
247.184	5.17
247.56	5.34
247.936	5.26
248.312	5.27
248.688	5.28
249.064	4.81
249.44	4.35
249.815	4.84
250.191	4.61
250.567	4.43
250.943	4.32
251.318	4.27
251.694	4.14
252.069	4.22
252.445	3.94
252.82	4.15
253.196	4.4
253.571	4.47
253.947	4.3
254.322	4.4
254.697	4.29
255.073	4.46
255.448	4.28
255.823	4.39
256.198	4.03
256.573	3.9
256.948	4.12
257.323	4.63
257.698	4.11
258.073	3.92
258.448	4.14
258.823	3.85
259.198	3.99
259.573	3.9
259.948	3.98
260.322	4.1
260.697	3.9
261.072	3.81
261.446	3.86
261.821	4.02
262.195	3.84
262.57	3.81
262.944	3.84
263.319	3.79
263.693	3.74
264.067	3.87
264.442	3.89
264.816	3.78
265.19	3.6
265.564	3.61
265.938	3.57
266.313	3.45
266.687	3.58
267.061	3.42
267.435	3.9
267.809	3.7
268.183	3.7
268.556	3.68
268.93	3.88
269.304	4
269.678	4.07
270.051	4.27
270.425	4.03
270.799	3.7
271.172	3.96
271.546	4.23
271.919	4.21
272.293	4.33
272.666	4.27
273.04	4.56
273.413	4.7
273.787	4.72
274.16	4.59
274.533	4.79
274.906	4.94
275.279	4.57
275.653	4.68
276.026	4.51
276.399	4.48
276.772	4.22
277.145	4.05
277.518	3.89
277.891	3.75
278.263	4.19
278.636	4.3
279.009	4.1
279.382	3.8
279.755	3.69
280.127	3.58
280.5	3.6
280.872	3.5
281.245	3.51
281.617	3.7
281.99	3.79
282.362	3.67
282.735	3.62
283.107	3.85
283.479	3.82
283.852	3.88
284.224	4.08
284.596	4.07
284.968	4.13
285.34	4.19
285.713	4.29
286.085	4.14
286.457	4.16
286.829	4.14
287.201	4.16
287.572	4.16
287.944	4.04
288.316	3.92
288.688	3.87
289.06	3.87
289.431	3.91
289.803	3.91
290.175	3.85
290.546	3.78
290.918	3.67
291.289	3.39
291.661	3.45
292.032	3.2
292.403	3.09
292.775	3.07
293.146	3
293.517	2.87
293.889	2.9
294.26	2.84
294.631	2.9
295.002	2.92
295.373	3.03
295.744	3.19
296.115	3.25
296.486	3.23
296.857	3.12
297.228	2.92
297.599	2.99
297.97	3.04
298.34	3.11
298.711	3.23
299.082	3.45
299.452	3.35
299.823	3.31
300.194	3.41
300.564	3.35
300.935	3.43
301.305	3.51
301.676	3.45
302.046	3.48
302.416	3.55
302.787	3.54
303.157	3.4
303.527	3.51
303.897	3.46
304.267	3.51
304.637	3.5
305.008	3.54
305.378	3.45
305.748	3.48
306.117	3.49
306.487	3.38
306.857	3.32
307.227	3.57
307.597	3.78
307.967	3.83
308.336	3.83
308.706	3.71
309.076	3.66
309.445	3.83
309.815	3.86
310.184	3.62
310.554	3.63
310.923	3.77
311.293	3.64
311.662	3.78
312.031	3.6
312.401	3.63
312.77	3.67
313.139	3.57
313.508	3.45
313.877	3.46
314.246	3.38
314.616	3.5
314.985	3.37
315.353	3.39
315.722	3.51
316.091	3.64
316.46	3.59
316.829	3.74
317.198	3.61
317.567	3.66
317.935	3.89
318.304	3.91
318.672	3.78
319.041	3.82
319.41	3.67
319.778	3.79
320.147	3.91
320.515	3.88
320.883	3.76
321.252	3.86
321.62	3.59
321.988	3.74
322.357	3.62
322.725	3.57
323.093	3.46
323.461	3.3
323.829	3.18
324.197	3.27
324.565	3.11
324.933	2.99
325.301	2.87
325.669	2.73
326.037	2.7
326.405	2.69
326.772	2.68
327.14	2.71
327.508	2.52
327.875	2.45
328.243	2.53
328.61	2.67
328.978	2.67
329.346	2.79
329.713	2.73
330.08	2.8
330.448	2.79
330.815	2.8
331.182	2.88
331.55	2.77
331.917	2.61
332.284	2.52
332.651	2.69
333.018	2.68
333.385	2.87
333.752	2.92
334.119	2.96
334.486	3.05
334.853	3.02
335.22	3.12
335.587	3.13
335.954	3.01
336.32	2.9
336.687	3
337.054	3.08
337.42	3.13
337.787	3.07
338.153	3.19
338.52	3.27
338.886	3.18
339.253	3.19
339.619	3.38
339.986	3.52
340.352	3.63
340.718	3.8
341.084	3.75
341.451	3.69
341.817	3.69
342.183	3.58
342.549	3.7
342.915	3.84
343.281	3.91
343.647	3.94
344.013	3.95
344.379	3.79
344.745	3.81
345.11	3.76
345.476	3.84
345.842	3.73
346.208	3.79
346.573	3.82
346.939	3.95
347.304	4
347.67	3.95
348.035	3.87
348.401	3.74
348.766	3.86
349.132	3.87
349.497	3.8
349.862	3.76
350.228	3.79
350.593	3.64
350.958	3.58
351.323	3.62
351.688	3.73
352.053	3.74
352.418	3.68
352.783	3.68
353.148	3.77
353.513	3.77
353.878	3.63
354.243	3.44
354.608	3.49
354.972	3.44
355.337	3.53
355.702	3.48
356.066	3.44
356.431	3.35
356.795	3.33
357.16	3.43
357.524	3.52
357.889	3.39
358.253	3.46
358.618	3.46
358.982	3.39
359.346	3.43
359.71	3.49
360.075	3.4
360.439	3.39
360.803	3.29
361.167	3.28
361.531	3.32
361.895	3.4
362.259	3.34
362.623	3.39
362.987	3.38
363.351	3.46
363.714	3.55
364.078	3.55
364.442	3.55
364.806	3.53
365.169	3.45
365.533	3.5
365.896	3.51
366.26	3.54
366.623	3.55
366.987	3.52
367.35	3.51
367.714	3.61
368.077	3.67
368.44	3.73
368.803	3.71
369.167	3.65
369.53	3.68
369.893	3.69
370.256	3.58
370.619	3.52
370.982	3.4
371.345	3.4
371.708	3.44
372.071	3.33
372.434	3.31
372.797	3.36
373.159	3.4
373.522	3.33
373.885	3.23
374.247	3.23
374.61	3.23
374.973	3.24
375.335	3.22
375.698	3.24
376.06	3.17
376.423	3.22
376.785	3.19
377.147	3.18
377.51	3.18
377.872	3.23
378.234	3.25
378.596	3.25
378.958	3.24
379.321	3.19
379.683	3.3
380.045	3.28
380.407	3.26
380.769	3.23
381.13	3.26
381.492	3.28
381.854	3.3
382.216	3.27
382.578	3.25
382.939	3.23
383.301	3.16
383.663	3.22
384.024	3.14
384.386	3.19
384.747	3.17
385.109	3.14
385.47	3.14
385.832	3.12
386.193	3.13
386.554	3.06
386.916	3.07
387.277	3.03
387.638	3.1
387.999	3.11
388.36	3.1
388.721	3.11
389.082	3.15
389.443	3.18
389.804	3.19
390.165	3.17
390.526	3.16
390.887	3.18
391.248	3.16
391.609	3.23
391.969	3.22
392.33	3.2
392.691	3.24
393.051	3.25
393.412	3.26
393.772	3.27
394.133	3.28
394.493	3.29
394.854	3.28
395.214	3.22
395.574	3.22
395.935	3.26
396.295	3.25
396.655	3.27
397.015	3.27
397.376	3.28
397.736	3.31
398.096	3.31
398.456	3.31
398.816	3.3
399.176	3.28
399.535	3.3
399.895	3.34
400.255	3.35
400.615	3.35
400.975	3.33
401.334	3.31
401.694	3.33
402.054	3.34
402.413	3.36
402.773	3.41
403.132	3.44
403.492	3.42
403.851	3.42
404.211	3.41
404.57	3.43
404.929	3.41
405.288	3.42
405.648	3.42
406.007	3.43
406.366	3.44
406.725	3.43
407.084	3.44
407.443	3.41
407.802	3.41
408.161	3.43
408.52	3.45
408.879	3.51
409.238	3.51
409.596	3.48
409.955	3.48
410.314	3.47
410.673	3.45
411.031	3.43
411.39	3.44
411.748	3.43
412.107	3.4
412.465	3.38
412.824	3.38
413.182	3.38
413.54	3.38
413.899	3.4
414.257	3.36
414.615	3.32
414.974	3.33
415.332	3.31
415.69	3.28
416.048	3.27
416.406	3.23
416.764	3.26
417.122	3.25
417.48	3.27
417.838	3.26
418.195	3.25
418.553	3.25
418.911	3.26
419.269	3.26
419.626	3.28
419.984	3.27
420.342	3.26
420.699	3.26
421.057	3.27
421.414	3.26
421.772	3.29
422.129	3.3
422.486	3.32
422.844	3.33
423.201	3.34
423.558	3.33
423.915	3.34
424.273	3.33
424.63	3.34
424.987	3.34
425.344	3.35
425.701	3.35
426.058	3.38
426.415	3.36
426.772	3.37
427.128	3.36
427.485	3.36
427.842	3.37
428.199	3.38
428.555	3.36
428.912	3.36
429.269	3.32
429.625	3.31
429.982	3.29
430.338	3.27
430.695	3.27
431.051	3.27
431.407	3.27
431.764	3.26
432.12	3.27
432.476	3.27
432.832	3.26
433.189	3.27
433.545	3.26
433.901	3.27
434.257	3.24
434.613	3.24
434.969	3.24
435.325	3.24
435.681	3.23
436.036	3.24
436.392	3.23
436.748	3.25
437.104	3.28
437.459	3.29
437.815	3.3
438.171	3.3
438.526	3.3
438.882	3.31
439.237	3.32
439.593	3.31
439.948	3.3
440.304	3.3
440.659	3.3
441.014	3.3
441.369	3.31
441.725	3.31
442.08	3.32
442.435	3.33
442.79	3.32
443.145	3.34
443.5	3.34
443.855	3.33
444.21	3.34
444.565	3.33
444.92	3.32
445.275	3.31
445.629	3.31
445.984	3.33
446.339	3.34
446.693	3.34
447.048	3.32
447.403	3.34
447.757	3.31
448.112	3.31
448.466	3.31
448.82	3.3
449.175	3.3
449.529	3.3
449.883	3.29
450.238	3.3
450.592	3.29
450.946	3.3
451.3	3.31
451.654	3.29
452.008	3.29
452.362	3.3
452.716	3.31
453.07	3.3
453.424	3.26
453.778	3.25
454.132	3.24
454.486	3.25
454.839	3.23
455.193	3.25
455.547	3.26
455.9	3.27
456.254	3.25
456.607	3.25
456.961	3.25
457.314	3.25
457.668	3.24
458.021	3.23
458.375	3.2
458.728	3.2
459.081	3.21
459.434	3.21
459.787	3.19
460.141	3.19
460.494	3.19
460.847	3.19
461.2	3.18
461.553	3.21
461.906	3.21
462.259	3.2
462.611	3.2
462.964	3.18
463.317	3.17
463.67	3.19
464.022	3.19
464.375	3.18
464.728	3.19
465.08	3.19
465.433	3.18
465.785	3.22
466.138	3.25
466.49	3.26
466.843	3.24
467.195	3.26
467.547	3.25
467.899	3.25
468.252	3.29
468.604	3.29
468.956	3.28
469.308	3.29
469.66	3.32
470.012	3.31
470.364	3.32
470.716	3.33
471.068	3.33
471.42	3.33
471.772	3.35
472.123	3.37
472.475	3.37
472.827	3.37
473.178	3.35
473.53	3.34
473.882	3.31
474.233	3.32
474.585	3.32
474.936	3.32
475.288	3.33
475.639	3.32
475.99	3.32
476.342	3.3
476.693	3.29
477.044	3.29
477.395	3.33
477.746	3.32
478.097	3.33
478.448	3.33
478.8	3.33
479.15	3.33
479.501	3.33
479.852	3.33
480.203	3.35
480.554	3.36
480.905	3.35
481.255	3.35
481.606	3.36
481.957	3.36
482.307	3.36
482.658	3.37
483.009	3.36
483.359	3.36
483.709	3.36
484.06	3.37
484.41	3.37
484.761	3.36
485.111	3.36
485.461	3.37
485.811	3.36
486.162	3.36
486.512	3.35
486.862	3.35
487.212	3.35
487.562	3.34
487.912	3.34
488.262	3.34
488.612	3.35
488.961	3.34
489.311	3.34
489.661	3.35
490.011	3.34
490.36	3.33
490.71	3.33
491.06	3.33
491.409	3.33
491.759	3.34
492.108	3.33
492.458	3.32
492.807	3.31
493.157	3.31
493.506	3.32
493.855	3.33
494.204	3.33
494.554	3.34
494.903	3.35
495.252	3.34
495.601	3.36
495.95	3.38
496.299	3.39
496.648	3.39
496.997	3.39
497.346	3.42
497.695	3.45
498.043	3.48
498.392	3.48
498.741	3.47
499.09	3.48
499.438	3.49
499.787	3.5
500.135	3.53
500.484	3.52
500.832	3.51
501.181	3.54
501.529	3.54
501.878	3.55
502.226	3.56
502.574	3.54
502.923	3.5
503.271	3.5
503.619	3.52
503.967	3.49
504.315	3.47
504.663	3.46
505.011	3.47
505.359	3.44
505.707	3.45
506.055	3.45
506.403	3.46
506.751	3.44
507.098	3.44
507.446	3.42
507.794	3.45
508.141	3.44
508.489	3.42
508.837	3.44
509.184	3.47
509.531	3.45
509.879	3.47
510.226	3.49
510.574	3.5
510.921	3.49
511.268	3.49
511.616	3.51
511.963	3.51
512.31	3.48
512.657	3.49
513.004	3.49
513.351	3.48
513.698	3.47
514.045	3.48
514.392	3.49
514.739	3.51
515.086	3.5
515.432	3.53
515.779	3.53
516.126	3.53
516.473	3.51
516.819	3.54
517.166	3.56
517.512	3.57
517.859	3.55
518.205	3.55
518.552	3.57
518.898	3.56
519.245	3.57
519.591	3.6
519.937	3.6
520.283	3.6
520.629	3.62
520.976	3.62
521.322	3.66
521.668	3.65
522.014	3.65
522.36	3.65
522.706	3.64
523.052	3.65
523.398	3.65
523.743	3.65
524.089	3.66
524.435	3.65
524.781	3.65
525.126	3.65
525.472	3.66
525.817	3.66
526.163	3.68
526.509	3.67
526.854	3.67
527.199	3.66
527.545	3.66
527.89	3.66
528.235	3.65
528.581	3.65
528.926	3.64
529.271	3.64
529.616	3.64
529.961	3.64
530.306	3.63
530.651	3.64
530.996	3.66
531.341	3.65
531.686	3.64
532.031	3.65
532.376	3.66
532.721	3.66
533.065	3.65
533.41	3.64
533.755	3.64
534.099	3.65
534.444	3.67
534.788	3.67
535.133	3.67
535.477	3.69
535.822	3.69
536.166	3.7
536.51	3.7
536.855	3.71
537.199	3.71
537.543	3.73
537.887	3.71
538.231	3.69
538.576	3.69
538.92	3.69
539.264	3.68
539.608	3.68
539.951	3.68
540.295	3.68
540.639	3.69
540.983	3.69
541.327	3.7
541.671	3.7
542.014	3.71
542.358	3.71
542.701	3.72
543.045	3.71
543.389	3.73
543.732	3.74
544.075	3.75
544.419	3.75
544.762	3.75
545.105	3.77
545.449	3.78
545.792	3.8
546.135	3.81
546.478	3.82
546.821	3.83
547.165	3.83
547.508	3.85
547.851	3.84
548.194	3.82
548.536	3.81
548.879	3.8
549.222	3.79
549.565	3.81
549.908	3.78
550.25	3.8
550.593	3.76
550.936	3.74
551.278	3.74
551.621	3.74
551.963	3.74
552.306	3.72
552.648	3.7
552.991	3.71
553.333	3.73
553.675	3.74
554.017	3.72
554.36	3.73
554.702	3.72
555.044	3.73
555.386	3.76
555.728	3.72
556.07	3.72
556.412	3.7
556.754	3.68
557.096	3.73
557.438	3.72
557.78	3.73
558.121	3.71
558.463	3.68
558.805	3.7
559.147	3.69
559.488	3.67
559.83	3.67
560.171	3.66
560.513	3.64
560.854	3.63
561.196	3.65
561.537	3.67
561.878	3.69
562.22	3.69
562.561	3.69
562.902	3.73
563.243	3.72
563.584	3.73
563.925	3.75
564.266	3.71
564.607	3.72
564.948	3.72
565.289	3.76
565.63	3.74
565.971	3.76
566.312	3.74
566.653	3.75
566.993	3.75
567.334	3.77
567.675	3.77
568.015	3.78
568.356	3.77
568.696	3.78
569.037	3.79
569.377	3.8
569.718	3.84
570.058	3.8
570.398	3.82
570.739	3.81
571.079	3.79
571.419	3.79
571.759	3.75
572.099	3.74
572.439	3.76
572.779	3.78
573.119	3.76
573.459	3.79
573.799	3.81
574.139	3.8
574.479	3.79
574.819	3.79
575.158	3.79
575.498	3.77
575.838	3.75
576.177	3.71
576.517	3.7
576.856	3.66
577.196	3.71
577.535	3.7
577.875	3.71
578.214	3.73
578.553	3.72
578.893	3.79
579.232	3.79
579.571	3.77
579.91	3.8
580.25	3.81
580.589	3.79
580.928	3.78
581.267	3.82
581.606	3.82
581.945	3.84
582.283	3.84
582.622	3.8
582.961	3.8
583.3	3.86
583.639	3.89
583.977	3.87
584.316	3.84
584.654	3.85
584.993	3.83
585.332	3.81
585.67	3.86
586.008	3.82
586.347	3.85
586.685	3.82
587.024	3.81
587.362	3.83
587.7	3.88
588.038	3.9
588.376	3.9
588.715	3.86
589.053	3.82
589.391	3.82
589.729	3.88
590.067	3.9
590.404	3.84
590.742	3.83
591.08	3.85
591.418	3.89
591.756	3.91
592.093	3.91
592.431	3.95
592.769	3.91
593.106	3.92
593.444	3.93
593.781	3.96
594.119	4.01
594.456	4.02
594.793	3.98
595.131	3.98
595.468	3.96
595.805	3.96
596.143	4.01
596.48	4.02
596.817	4.03
597.154	4.04
597.491	4.07
597.828	4.05
598.165	4.08
598.502	4.05
598.839	4.07
599.176	4.1
599.512	4.08
599.849	4.08
600.186	4.07
600.523	4.06
600.859	4.05
601.196	3.98
601.532	3.94
601.869	3.94
602.205	3.93
602.542	3.95
602.878	4.01
603.215	3.99
603.551	3.99
603.887	4
604.223	3.96
604.56	3.97
604.896	4.01
605.232	3.96
605.568	3.96
605.904	3.93
606.24	3.94
606.576	4
606.912	4.02
607.248	4.03
607.583	4.03
607.919	4.03
608.255	4.05
608.591	4.1
608.926	4.1
609.262	4.1
609.597	4.09
609.933	4.06
610.268	4.05
610.604	4.03
610.939	4.02
611.275	4.03
611.61	4.02
611.945	3.96
612.281	3.99
612.616	4
612.951	4.05
613.286	4.06
613.621	4.01
613.956	3.99
614.291	4
614.626	4.03
614.961	4.01
615.296	4.06
615.631	4.02
615.966	3.99
616.3	3.99
616.635	4.04
616.97	4.05
617.304	4.04
617.639	4.02
617.973	3.99
618.308	4.01
618.642	4.02
618.977	4.09
619.311	4.1
619.646	4.12
619.98	4.06
620.314	4.01
620.648	4.05
620.983	4.08
621.317	4.07
621.651	4.04
621.985	4.03
622.319	4.01
622.653	4.03
622.987	4.05
623.321	4.07
623.655	4.06
623.988	4.08
624.322	4.12
624.656	4.14
624.99	4.16
625.323	4.11
625.657	4.12
625.99	4.1
626.324	4.14
626.657	4.12
626.991	4.17
627.324	4.09
627.658	4.01
627.991	4.01
628.324	3.99
628.657	3.96
628.991	3.95
629.324	3.93
629.657	3.81
629.99	3.84
630.323	3.85
630.656	3.8
630.989	3.79
631.322	3.8
631.655	3.81
631.987	3.8
632.32	3.87
632.653	3.88
632.986	3.9
633.318	3.84
633.651	3.84
633.984	3.81
634.316	3.95
634.649	3.98
634.981	4.02
635.313	4.07
635.646	4.07
635.978	4.18
636.31	4.21
636.643	4.33
636.975	4.34
637.307	4.39
637.639	4.42
637.971	4.35
638.303	4.32
638.635	4.38
638.967	4.36
639.299	4.31
639.631	4.26
639.963	4.25
640.295	4.27
640.626	4.3
640.958	4.36
641.29	4.32
641.621	4.41
641.953	4.34
642.285	4.39
642.616	4.51
642.948	4.52
643.279	4.52
643.61	4.46
643.942	4.45
644.273	4.4
644.604	4.4
644.936	4.46
645.267	4.45
645.598	4.41
645.929	4.4
646.26	4.43
646.591	4.45
646.922	4.45
647.253	4.42
647.584	4.38
647.915	4.36
648.245	4.39
648.576	4.33
648.907	4.32
649.238	4.21
649.568	4.13
649.899	4.08
650.229	4.09
650.56	4.08
650.89	4.12
651.221	4.12
651.551	4.11
651.882	4.12
652.212	4.06
652.542	4.08
652.872	4.09
653.203	4.19
653.533	4.19
653.863	4.18
654.193	4.2
654.523	4.12
654.853	4.15
655.183	4.16
655.513	4.23
655.843	4.27
656.172	4.4
656.502	4.39
656.832	4.37
657.162	4.36
657.491	4.5
657.821	4.42
658.15	4.47
658.48	4.56
658.809	4.54
659.139	4.63
659.468	4.59
659.798	4.66
660.127	4.55
660.456	4.54
660.785	4.59
661.115	4.6
661.444	4.74
661.773	4.77
662.102	4.77
662.431	4.68
662.76	4.68
663.089	4.62
663.418	4.66
663.747	4.67
664.076	4.71
664.404	4.71
664.733	4.81
665.062	4.78
665.39	4.64
665.719	4.69
666.048	4.72
666.376	4.8
666.705	4.8
667.033	4.87
667.362	4.91
667.69	4.87
668.018	4.89
668.347	4.84
668.675	4.84
669.003	4.77
669.331	4.89
669.659	4.89
669.987	4.97
670.315	4.96
670.643	4.97
670.971	4.93
671.299	4.84
671.627	4.91
671.955	4.9
672.283	4.89
672.61	4.85
672.938	4.76
673.266	4.72
673.593	4.58
673.921	4.6
674.249	4.55
674.576	4.54
674.904	4.51
675.231	4.52
675.558	4.51
675.886	4.59
676.213	4.51
676.54	4.59
676.867	4.47
677.195	4.51
677.522	4.48
677.849	4.57
678.176	4.48
678.503	4.42
678.83	4.42
679.157	4.54
679.484	4.52
679.81	4.59
680.137	4.69
680.464	4.79
680.791	4.67
681.117	4.76
681.444	4.69
681.771	4.71
682.097	4.76
682.424	4.64
682.75	4.7
683.077	4.72
683.403	4.76
683.729	4.76
684.056	4.87
684.382	4.89
684.708	4.77
685.034	4.85
685.36	4.81
685.686	4.86
686.012	4.85
686.339	4.88
686.664	4.84
686.99	4.71
687.316	4.71
687.642	4.75
687.968	4.7
688.294	4.81
688.619	4.86
688.945	4.75
689.271	4.9
689.596	4.77
689.922	4.81
690.247	4.77
690.573	4.74
690.898	4.65
691.224	4.69
691.549	4.81
691.874	4.82
692.2	4.74
692.525	4.75
692.85	4.73
693.175	4.73
693.5	4.69
693.825	4.77
694.15	4.72
694.475	4.77
694.8	4.75
695.125	4.83
695.45	4.76
695.775	4.82
696.099	4.86
696.424	4.94
696.749	5.02
697.073	4.88
697.398	4.95
697.723	4.91
698.047	4.87
698.372	4.88
698.696	4.89
699.02	5
699.345	4.98
699.669	4.97
699.993	4.91
700.318	4.96
700.642	5.01
700.966	5.06
701.29	5.12
701.614	5.13
701.938	5.02
702.262	5.01
702.586	5.03
702.91	4.93
703.234	4.85
703.557	4.74
703.881	4.88
704.205	5
704.529	4.96
704.852	4.97
705.176	5.06
705.499	4.97
705.823	4.96
706.146	4.99
706.47	5.05
706.793	5.17
707.117	5.19
707.44	5.09
707.763	5.05
708.086	4.97
708.409	5.08
708.733	5.17
709.056	5.2
709.379	5.27
709.702	5.34
710.025	5.46
710.348	5.32
710.671	5.24
710.993	5.1
711.316	5.05
711.639	5.18
711.962	5
712.284	5.15
712.607	5.14
712.93	5
713.252	5.01
713.575	5.03
713.897	5.08
714.22	5.15
714.542	5.17
714.864	5.13
715.187	5
715.509	5.05
715.831	5.04
716.153	4.96
716.475	4.99
716.798	4.95
717.12	5.11
717.442	5.24
717.764	5.34
718.085	5.46
718.407	5.43
718.729	5.4
719.051	5.36
719.373	5.33
719.695	5.5
720.016	5.49
720.338	5.44
720.659	5.52
720.981	5.39
721.302	5.46
721.624	5.48
721.945	5.64
722.267	5.78
722.588	5.84
722.909	5.95
723.231	5.87
723.552	5.9
723.873	6.05
724.194	6.05
724.515	6.18
724.836	6.12
725.157	5.99
725.478	6.2
725.799	6.23
726.12	6.36
726.441	6.42
726.762	6.55
727.083	6.53
727.403	6.43
727.724	6.45
728.045	6.62
728.365	6.6
728.686	6.47
729.006	6.17
729.327	6.34
729.647	6.17
729.967	6.12
730.288	6
730.608	5.83
730.928	5.84
731.249	5.71
731.569	5.81
731.889	5.88
732.209	5.84
732.529	5.8
732.849	5.69
733.169	5.49
733.489	5.25
733.809	5.15
734.129	5.21
734.448	5.24
734.768	4.97
735.088	5.09
735.408	5.02
735.727	4.95
736.047	4.8
736.366	4.9
736.686	4.84
737.005	4.94
737.325	5.01
737.644	4.88
737.963	4.94
738.283	4.86
738.602	4.78
738.921	4.6
739.24	4.55
739.56	4.74
739.879	4.83
740.198	4.93
740.517	5.22
740.836	5.23
741.155	5.42
741.473	5.57
741.792	5.47
742.111	5.5
742.43	5.85
742.748	5.8
743.067	5.6
743.386	5.59
743.704	5.53
744.023	5.55
744.341	5.57
744.66	5.57
744.978	5.67
745.297	5.72
745.615	5.77
745.933	5.72
746.252	5.74
746.57	5.83
746.888	5.97
747.206	5.75
747.524	5.76
747.842	5.56
748.16	5.57
748.478	5.81
748.796	5.85
749.114	5.63
749.432	5.66
749.749	5.63
750.067	5.91
750.385	6.28
750.703	6.16
751.02	6.48
751.338	6.27
751.655	6.24
751.973	6.08
752.29	6.25
752.608	6.33
752.925	6.31
753.242	6.33
753.56	6.02
753.877	6.12
754.194	6.18
754.511	6.11
754.828	5.9
755.145	5.76
755.462	5.82
755.779	6
756.096	5.77
756.413	5.85
756.73	5.78
757.047	5.29
757.364	5.45
757.68	5.05
757.997	5.41
758.314	5.32
758.63	5.52
758.947	5.47
759.264	5.77
759.58	5.61
759.896	5.54
760.213	5.89
760.529	5.89
760.846	6.08
761.162	6.1
761.478	6.44
761.794	6.5
762.11	6.6
762.426	6.3
762.743	6.53
763.059	6.86
763.375	6.79
763.69	6.83
764.006	6.79
764.322	6.8
764.638	6.74
764.954	6.99
765.27	7.04
765.585	7.25
765.901	7.08
766.216	7.13
766.532	7.28
766.848	7.35
767.163	7.51
767.478	7.25
767.794	7.41
768.109	7.17
768.424	7.15
768.74	7.15
769.055	7.6
769.37	7.71
769.685	7.47
770	7.42
770.315	7.58
770.63	7.61
770.945	7.79
771.26	7.77
771.575	7.95
771.89	7.85
772.205	7.54
772.52	7.69
772.834	7.65
773.149	7.31
773.464	6.96
773.778	6.87
774.093	7.07
774.407	7.13
774.722	6.92
775.036	7.07
775.351	7.19
775.665	6.88
775.979	7.21
776.293	7.14
776.608	7.41
776.922	7.25
777.236	7.38
777.55	7.35
777.864	7.19
778.178	6.45
778.492	6.65
778.806	6.86
779.12	6.73
779.434	6.74
779.747	7.02
780.061	6.82
780.375	6.71
780.689	6.66
781.002	6.15
781.316	6.74
781.629	6.77
781.943	6.46
782.256	6.49
782.57	5.82
782.883	6.26
783.196	5.98
783.51	6.35
783.823	6.04
784.136	6
784.449	6.26
784.762	7.12
785.075	7
785.388	7.18
785.701	7.11
786.014	7.18
786.327	6.88
786.64	7.39
786.953	7.28
787.266	7.47
787.578	7.92
787.891	7.85
788.204	7.73
788.516	7.56
788.829	7.39
789.141	7.73
789.454	7.31
789.766	7.62
790.079	7.68
790.391	7.78
790.703	7.95
791.016	7.68
791.328	7.59
791.64	7.58
791.952	7.77
792.264	7.64
792.576	8.06
792.888	8.49
793.2	8.35
793.512	8.68
793.824	8.33
794.136	8.35
794.448	8.75
794.76	8.97
795.071	9.69
795.383	9.83
795.695	9.57
796.006	10.09
796.318	9.77
796.629	9.26
796.941	9.13
797.252	9.35
797.564	9.58
797.875	9.01
798.186	8.98
798.497	8.82
798.809	9.06
799.12	8.89
799.431	8.85
799.742	9.1
800.053	9.29
800.364	9.66
800.675	9.72
800.986	9.62
801.297	9.2
801.608	9.19
801.918	9.35
802.229	9.48
802.54	9.1
802.851	9.03
803.161	9.43
803.472	9.65
803.782	9.34
804.093	9.32
804.403	9.38
804.714	9.2
805.024	9.05
805.334	8.78
805.645	8.81
805.955	9.09
806.265	8.48
806.575	8.66
806.885	8.61
807.195	7.96
807.505	7.03
807.815	6.86
808.125	6.29
808.435	5.62
808.745	6.07
809.055	6.11
809.365	6.38
809.674	6.27
809.984	6.22
810.294	6.42
810.603	5.79
810.913	5.8
811.222	5.97
811.532	5.35
811.841	5.87
812.151	5.69
812.46	5.66
812.769	6.28
813.079	5.43
813.388	5.59
813.697	6.17
814.006	6.79
814.315	7.85
814.624	8.5
814.933	9.82
815.242	9.46
815.551	10.03
815.86	10.61
816.169	10.72
816.478	11.08
816.786	10.2
817.095	11.1
817.404	11.33
817.712	11.85
818.021	12.09
818.33	11.72
818.638	11.6
818.947	11.21
819.255	10.43
819.563	10.43
819.872	9.69
820.18	9.54
820.488	9.61
820.796	9.01
821.105	8.98
821.413	8.79
821.721	8.65
822.029	8.58
822.337	8.53
822.645	8.51
822.953	8.55
823.26	8.73
823.568	8.64
823.876	8.74
824.184	8.62
824.491	8.58
824.799	8.71
825.107	8.73
825.414	8.57
825.722	8.8
826.029	8.85
826.337	9.01
826.644	9.02
826.951	8.93
827.259	9.28
827.566	9.33
827.873	9.55
828.18	9.79
828.488	9.81
828.795	9.82
829.102	10
829.409	9.78
829.716	9.81
830.023	9.95
830.329	9.71
830.636	9.99
830.943	10.35
831.25	10.4
831.557	10.02
831.863	10.41
832.17	10.24
832.476	10.36
832.783	10.15
833.089	10.21
833.396	10.17
833.702	10.14
834.009	9.82
834.315	9.76
834.621	9.81
834.928	10.23
835.234	10.29
835.54	9.82
835.846	9.79
836.152	9.73
836.458	9.27
836.764	9.41
837.07	9.13
837.376	9.01
837.682	8.96
837.988	9.77
838.293	10.05
838.599	9.91
838.905	10.08
839.211	10.98
839.516	11.03
839.822	11.6
840.127	11.49
840.433	12.11
840.738	11.69
841.044	11.5
841.349	10.89
841.654	10.91
841.959	13.29
842.265	13.39
842.57	14.27
842.875	14.64
843.18	14.27
843.485	13.49
843.79	14.1
844.095	13.65
844.4	14
844.705	13.33
845.01	14.11
845.315	12.83
845.619	12.4
845.924	13.01
846.229	13.12
846.533	11.69
846.838	11.95
847.142	11.22
847.447	11.5
847.751	11.46
848.056	11.87
848.36	10.06
848.664	11.41
848.969	9.34
849.273	9.77
849.577	11.21
849.881	12.86
850.185	10.87
850.489	10.89
850.794	10.29
851.097	8.66
851.401	6.09
851.705	7.86
852.009	8.63
852.313	7.96
852.617	8.76
852.92	11.56
853.224	10.11
853.528	11.66
853.831	11.34
854.135	11.78
854.438	9.93
854.742	7.68
855.045	7.24
855.349	7.81
855.652	7.52
855.955	6.31
856.259	5.85
856.562	7.2
856.865	7.44
857.168	6.09
857.471	7.26
857.774	10.83
858.077	9.07
858.38	8.61
858.683	9.36
858.986	6.82
859.289	5.38
859.592	6.18
859.894	6.26
860.197	4.5
860.5	2.35
860.802	2.11
861.105	2.2
861.407	3.06
861.71	1.91
862.012	3.58
862.315	1.87
862.617	1.66
862.919	0.97
863.222	0.26
863.524	0.46
863.826	0.9
864.128	-1.48
864.43	-0.47
864.732	-2.46
865.034	-3.35
865.336	-3.05
865.638	-4.56
865.94	-4.86
866.242	-5.31
866.544	-2.29
866.846	-0.03
867.147	1.22
867.449	3.58
867.751	3.17
868.052	4.33
868.354	5.17
868.655	7.63
868.957	6.43
869.258	5.37
869.56	4.95
869.861	2.11
870.162	1.75
870.463	3.59
870.765	3.88
871.066	3.56
871.367	2.65
871.668	3.58
871.969	4.82
872.27	5.42
872.571	7
872.872	4.68
873.173	1.45
873.473	1.27
873.774	0.28
874.075	1.18
874.376	0.12
874.676	0.74
874.977	0.07
875.277	3.36
875.578	5.5
875.878	6.26
876.179	8.43
876.479	8.94
876.78	8.22
877.08	7.6
877.38	8.87
877.68	11.68
877.981	11.14
878.281	11.5
878.581	10.11
