Data from BA17724_Reflection_00005.txt Node
Date: Tue Nov 19 11:57:52 EST 2019
User: vgr7
Spectrometer: USB2G7710
Scans to average: 3
Trigger mode: 4
Integration Time (sec): 2.000000E-2
Electric dark correction enabled: true
Boxcar width: 10
XAxis mode: Wavelengths
Number of Pixels in Spectrum: 2048
>>>>>Begin Spectral Data<<<<<
177.721	113.72
178.105	87.8
178.488	57.78
178.871	64.77
179.254	-18.75
179.636	358.06
180.019	-95.12
180.402	15.15
180.785	-21.43
181.168	78.61
181.55	225
181.933	109.22
182.316	65.4
182.698	54.06
183.081	53.04
183.463	74.3
183.846	75.46
184.228	56.69
184.611	1350
184.993	-180
185.376	66.1
185.758	-900
186.14	-11.54
186.522	-138.81
186.904	-337.5
187.287	-22.53
187.669	-10.71
188.051	41.28
188.433	34.15
188.815	41.45
189.197	32.08
189.579	-18.35
189.961	28.32
190.342	34.98
190.724	42.48
191.106	40.07
191.488	85.07
191.869	94.82
192.251	35.74
192.633	29.38
193.014	49.37
193.396	63.3
193.777	19.89
194.159	62.57
194.54	202.94
194.922	245.27
195.303	975
195.684	730.43
196.065	-607.32
196.447	-315.58
196.828	216.28
197.209	-58.54
197.59	-580.85
197.971	67.11
198.352	42.15
198.733	13.37
199.114	40.83
199.495	-65.82
199.876	-31.58
200.257	-119.01
200.638	-978.95
201.018	-65.73
201.399	-1462.5
201.78	-41.83
202.16	-34.29
202.541	-74.37
202.922	-75.89
203.302	-72.41
203.683	-71.83
204.063	-77.53
204.444	-178.63
204.824	-535.71
205.204	-454.69
205.585	-1542.86
205.965	232.08
206.345	156.94
206.725	116.95
207.106	141.25
207.486	111.57
207.866	103.54
208.246	124.7
208.626	144.18
209.006	149.72
209.386	126.46
209.766	99.11
210.145	83.68
210.525	51.72
210.905	75.85
211.285	67.29
211.664	74.56
212.044	45.65
212.424	47.44
212.803	44.77
213.183	48.07
213.562	40.11
213.942	28.14
214.321	23.8
214.701	15.34
215.08	6.98
215.459	7.35
215.838	17.87
216.218	-7.92
216.597	10.15
216.976	-17.75
217.355	-24.86
217.734	-33.03
218.113	-17.33
218.492	-5.43
218.871	-11.92
219.25	0.69
219.629	-19.94
220.008	5.78
220.387	32.93
220.766	37.76
221.144	35.38
221.523	48.15
221.902	55.58
222.28	54.22
222.659	56
223.037	54.01
223.416	47.23
223.794	42.86
224.173	58.2
224.551	59.9
224.929	64.05
225.308	70.11
225.686	60.13
226.064	45.91
226.442	53.77
226.821	48.95
227.199	38.23
227.577	35.46
227.955	29.91
228.333	23.32
228.711	25.57
229.089	27.24
229.467	29.38
229.845	21.28
230.222	20.64
230.6	17.59
230.978	17.39
231.356	16.59
231.733	12.87
232.111	10.45
232.488	10.2
232.866	12.85
233.243	12.26
233.621	13.85
233.998	15.1
234.376	10.35
234.753	8.27
235.13	11.52
235.508	10.58
235.885	10.35
236.262	7.52
236.639	5.69
237.016	4.74
237.393	3.64
237.77	5.31
238.147	5.76
238.524	5.59
238.901	5.59
239.278	4.99
239.655	5.82
240.032	5.92
240.409	5.27
240.785	4.4
241.162	5.01
241.539	5.51
241.915	5.4
242.292	5.68
242.668	6.56
243.045	6.38
243.421	6.43
243.798	6.16
244.174	6.91
244.551	6.89
244.927	6.84
245.303	6.45
245.679	6.39
246.056	6.5
246.432	6.61
246.808	6.53
247.184	6.64
247.56	6.27
247.936	6.23
248.312	6.49
248.688	6.39
249.064	6.2
249.44	6.11
249.815	6.23
250.191	6.42
250.567	6.32
250.943	6.14
251.318	6.2
251.694	6.39
252.069	6.24
252.445	6.14
252.82	6.44
253.196	6.66
253.571	7.05
253.947	6.98
254.322	6.87
254.697	6.67
255.073	6.76
255.448	6.49
255.823	6.26
256.198	5.69
256.573	5.86
256.948	5.85
257.323	5.77
257.698	5.57
258.073	5.26
258.448	5.02
258.823	4.91
259.198	4.82
259.573	4.56
259.948	4.57
260.322	4.58
260.697	4.34
261.072	4.32
261.446	4.29
261.821	4.33
262.195	4.38
262.57	4.44
262.944	4.26
263.319	4.49
263.693	4.63
264.067	4.86
264.442	4.81
264.816	4.74
265.19	4.71
265.564	4.69
265.938	4.77
266.313	4.9
266.687	4.91
267.061	4.88
267.435	5.16
267.809	5.11
268.183	4.97
268.556	5.09
268.93	5.24
269.304	5.22
269.678	5.17
270.051	5.28
270.425	5.37
270.799	5.44
271.172	5.42
271.546	5.52
271.919	5.48
272.293	5.43
272.666	5.48
273.04	5.45
273.413	5.68
273.787	5.63
274.16	5.51
274.533	5.67
274.906	5.72
275.279	5.51
275.653	5.56
276.026	5.67
276.399	5.7
276.772	5.66
277.145	5.49
277.518	5.52
277.891	5.43
278.263	5.32
278.636	5.43
279.009	5.46
279.382	5.26
279.755	5.33
280.127	5.34
280.5	5.13
280.872	5.03
281.245	4.76
281.617	4.85
281.99	4.81
282.362	4.56
282.735	4.6
283.107	4.7
283.479	4.77
283.852	4.78
284.224	4.7
284.596	4.72
284.968	4.69
285.34	4.49
285.713	4.61
286.085	4.68
286.457	4.58
286.829	4.42
287.201	4.47
287.572	4.54
287.944	4.64
288.316	4.65
288.688	4.83
289.06	4.77
289.431	4.87
289.803	4.93
290.175	5.06
290.546	4.94
290.918	5.12
291.289	4.99
291.661	4.99
292.032	5.06
292.403	5.09
292.775	5.21
293.146	5.25
293.517	4.94
293.889	4.96
294.26	4.99
294.631	5.13
295.002	5.04
295.373	4.98
295.744	4.98
296.115	5.09
296.486	5.09
296.857	5.11
297.228	4.92
297.599	4.92
297.97	5.03
298.34	5.07
298.711	5.16
299.082	5.25
299.452	5.26
299.823	5.15
300.194	5.16
300.564	5.19
300.935	5.26
301.305	5.36
301.676	5.29
302.046	5.28
302.416	5.2
302.787	5.24
303.157	5.02
303.527	5.07
303.897	5.01
304.267	4.83
304.637	5.05
305.008	5.27
305.378	5.22
305.748	5
306.117	5.06
306.487	4.85
306.857	4.81
307.227	4.93
307.597	4.96
307.967	4.96
308.336	4.86
308.706	4.87
309.076	5.01
309.445	5.08
309.815	5.07
310.184	5.12
310.554	5.13
310.923	5.25
311.293	5.01
311.662	5.09
312.031	5.11
312.401	5.03
312.77	5.01
313.139	4.95
313.508	5
313.877	5.03
314.246	4.99
314.616	4.97
314.985	4.88
315.353	4.98
315.722	4.9
316.091	4.87
316.46	4.88
316.829	4.76
317.198	4.85
317.567	4.89
317.935	4.94
318.304	4.87
318.672	4.92
319.041	5.18
319.41	5.19
319.778	5.25
320.147	5.19
320.515	5.11
320.883	5.03
321.252	5.1
321.62	5
321.988	5.15
322.357	5.15
322.725	5.27
323.093	5.16
323.461	5.19
323.829	5.37
324.197	5.27
324.565	5.4
324.933	5.14
325.301	5.06
325.669	5.09
326.037	5.09
326.405	5.12
326.772	5.06
327.14	4.9
327.508	4.89
327.875	4.97
328.243	4.79
328.61	5.04
328.978	4.95
329.346	4.95
329.713	4.9
330.08	4.92
330.448	4.83
330.815	4.88
331.182	4.91
331.55	4.86
331.917	4.79
332.284	4.75
332.651	4.8
333.018	4.85
333.385	4.82
333.752	4.89
334.119	4.91
334.486	4.91
334.853	5.07
335.22	4.99
335.587	4.91
335.954	4.97
336.32	4.78
336.687	4.89
337.054	4.98
337.42	4.79
337.787	4.78
338.153	4.8
338.52	4.92
338.886	5.03
339.253	4.98
339.619	5.29
339.986	5.29
340.352	5.4
340.718	5.34
341.084	5.3
341.451	5.25
341.817	5.15
342.183	5.12
342.549	5.18
342.915	5.24
343.281	5.26
343.647	5.27
344.013	5.31
344.379	5.23
344.745	5.2
345.11	5.32
345.476	5.33
345.842	5.27
346.208	5.24
346.573	5.23
346.939	5.24
347.304	5.03
347.67	4.9
348.035	4.86
348.401	4.91
348.766	4.95
349.132	5.04
349.497	5.03
349.862	5.06
350.228	4.97
350.593	4.9
350.958	5
351.323	5.03
351.688	5.06
352.053	5.16
352.418	5.21
352.783	5.3
353.148	5.32
353.513	5.3
353.878	5.15
354.243	4.97
354.608	5.07
354.972	5.06
355.337	5.23
355.702	5.19
356.066	5.27
356.431	5.27
356.795	5.2
357.16	5.25
357.524	5.14
357.889	5.14
358.253	5.16
358.618	5.08
358.982	5.11
359.346	5.11
359.71	5.05
360.075	5.03
360.439	5.01
360.803	5.03
361.167	4.98
361.531	5.03
361.895	5.08
362.259	5.01
362.623	5.02
362.987	4.99
363.351	5.01
363.714	4.93
364.078	4.91
364.442	4.93
364.806	4.91
365.169	4.95
365.533	4.94
365.896	4.97
366.26	4.94
366.623	4.84
366.987	4.85
367.35	4.87
367.714	4.83
368.077	4.83
368.44	4.79
368.803	4.88
369.167	4.85
369.53	4.89
369.893	4.94
370.256	4.95
370.619	4.86
370.982	4.81
371.345	4.88
371.708	4.85
372.071	4.79
372.434	4.86
372.797	4.94
373.159	4.93
373.522	4.88
373.885	4.89
374.247	4.95
374.61	4.88
374.973	4.85
375.335	4.89
375.698	4.79
376.06	4.81
376.423	4.78
376.785	4.82
377.147	4.8
377.51	4.73
377.872	4.73
378.234	4.82
378.596	4.86
378.958	4.91
379.321	4.94
379.683	5.03
380.045	4.97
380.407	4.92
380.769	4.96
381.13	5.01
381.492	5.04
381.854	5.07
382.216	5.18
382.578	5.23
382.939	5.18
383.301	5.21
383.663	5.22
384.024	5.25
384.386	5.22
384.747	5.19
385.109	5.18
385.47	5.22
385.832	5.16
386.193	5.12
386.554	5.06
386.916	5.07
387.277	5.03
387.638	4.99
387.999	4.98
388.36	4.93
388.721	4.91
389.082	4.91
389.443	4.85
389.804	4.81
390.165	4.79
390.526	4.82
390.887	4.85
391.248	4.83
391.609	4.82
391.969	4.83
392.33	4.87
392.691	4.87
393.051	4.83
393.412	4.79
393.772	4.84
394.133	4.83
394.493	4.8
394.854	4.79
395.214	4.82
395.574	4.83
395.935	4.82
396.295	4.81
396.655	4.8
397.015	4.84
397.376	4.84
397.736	4.81
398.096	4.78
398.456	4.74
398.816	4.77
399.176	4.69
399.535	4.71
399.895	4.66
400.255	4.65
400.615	4.66
400.975	4.68
401.334	4.65
401.694	4.62
402.054	4.64
402.413	4.66
402.773	4.67
403.132	4.65
403.492	4.68
403.851	4.69
404.211	4.66
404.57	4.67
404.929	4.64
405.288	4.66
405.648	4.67
406.007	4.68
406.366	4.67
406.725	4.69
407.084	4.66
407.443	4.69
407.802	4.72
408.161	4.74
408.52	4.76
408.879	4.77
409.238	4.8
409.596	4.77
409.955	4.76
410.314	4.74
410.673	4.77
411.031	4.75
411.39	4.74
411.748	4.77
412.107	4.74
412.465	4.78
412.824	4.75
413.182	4.74
413.54	4.73
413.899	4.7
414.257	4.72
414.615	4.71
414.974	4.69
415.332	4.65
415.69	4.62
416.048	4.63
416.406	4.62
416.764	4.61
417.122	4.6
417.48	4.61
417.838	4.62
418.195	4.59
418.553	4.57
418.911	4.57
419.269	4.55
419.626	4.55
419.984	4.53
420.342	4.52
420.699	4.53
421.057	4.53
421.414	4.53
421.772	4.51
422.129	4.5
422.486	4.5
422.844	4.5
423.201	4.5
423.558	4.51
423.915	4.49
424.273	4.51
424.63	4.53
424.987	4.51
425.344	4.48
425.701	4.47
426.058	4.5
426.415	4.5
426.772	4.5
427.128	4.51
427.485	4.51
427.842	4.52
428.199	4.52
428.555	4.54
428.912	4.54
429.269	4.53
429.625	4.55
429.982	4.56
430.338	4.59
430.695	4.57
431.051	4.54
431.407	4.55
431.764	4.51
432.12	4.5
432.476	4.52
432.832	4.53
433.189	4.52
433.545	4.5
433.901	4.52
434.257	4.53
434.613	4.52
434.969	4.53
435.325	4.52
435.681	4.51
436.036	4.49
436.392	4.49
436.748	4.51
437.104	4.5
437.459	4.47
437.815	4.47
438.171	4.47
438.526	4.46
438.882	4.46
439.237	4.47
439.593	4.49
439.948	4.48
440.304	4.47
440.659	4.48
441.014	4.46
441.369	4.43
441.725	4.42
442.08	4.42
442.435	4.41
442.79	4.41
443.145	4.42
443.5	4.41
443.855	4.42
444.21	4.42
444.565	4.43
444.92	4.45
445.275	4.44
445.629	4.45
445.984	4.46
446.339	4.49
446.693	4.47
447.048	4.44
447.403	4.44
447.757	4.45
448.112	4.46
448.466	4.48
448.82	4.49
449.175	4.5
449.529	4.5
449.883	4.52
450.238	4.5
450.592	4.51
450.946	4.52
451.3	4.52
451.654	4.53
452.008	4.52
452.362	4.5
452.716	4.49
453.07	4.48
453.424	4.48
453.778	4.46
454.132	4.46
454.486	4.47
454.839	4.47
455.193	4.49
455.547	4.49
455.9	4.48
456.254	4.49
456.607	4.47
456.961	4.48
457.314	4.47
457.668	4.48
458.021	4.48
458.375	4.46
458.728	4.45
459.081	4.45
459.434	4.47
459.787	4.49
460.141	4.52
460.494	4.52
460.847	4.53
461.2	4.52
461.553	4.51
461.906	4.51
462.259	4.51
462.611	4.51
462.964	4.51
463.317	4.51
463.67	4.53
464.022	4.56
464.375	4.55
464.728	4.54
465.08	4.56
465.433	4.57
465.785	4.6
466.138	4.61
466.49	4.6
466.843	4.6
467.195	4.6
467.547	4.59
467.899	4.61
468.252	4.62
468.604	4.62
468.956	4.64
469.308	4.61
469.66	4.64
470.012	4.64
470.364	4.64
470.716	4.66
471.068	4.63
471.42	4.62
471.772	4.63
472.123	4.65
472.475	4.67
472.827	4.66
473.178	4.65
473.53	4.63
473.882	4.64
474.233	4.64
474.585	4.63
474.936	4.62
475.288	4.6
475.639	4.62
475.99	4.63
476.342	4.63
476.693	4.66
477.044	4.66
477.395	4.64
477.746	4.62
478.097	4.59
478.448	4.59
478.8	4.58
479.15	4.59
479.501	4.57
479.852	4.55
480.203	4.56
480.554	4.56
480.905	4.55
481.255	4.56
481.606	4.57
481.957	4.58
482.307	4.58
482.658	4.58
483.009	4.57
483.359	4.58
483.709	4.59
484.06	4.59
484.41	4.57
484.761	4.58
485.111	4.59
485.461	4.59
485.811	4.6
486.162	4.6
486.512	4.6
486.862	4.61
487.212	4.61
487.562	4.61
487.912	4.63
488.262	4.63
488.612	4.64
488.961	4.63
489.311	4.61
489.661	4.61
490.011	4.62
490.36	4.62
490.71	4.61
491.06	4.61
491.409	4.61
491.759	4.63
492.108	4.62
492.458	4.62
492.807	4.62
493.157	4.62
493.506	4.62
493.855	4.62
494.204	4.61
494.554	4.64
494.903	4.62
495.252	4.59
495.601	4.59
495.95	4.59
496.299	4.61
496.648	4.65
496.997	4.65
497.346	4.66
497.695	4.67
498.043	4.67
498.392	4.69
498.741	4.69
499.09	4.7
499.438	4.73
499.787	4.74
500.135	4.74
500.484	4.75
500.832	4.77
501.181	4.78
501.529	4.8
501.878	4.8
502.226	4.84
502.574	4.86
502.923	4.86
503.271	4.87
503.619	4.86
503.967	4.83
504.315	4.85
504.663	4.84
505.011	4.84
505.359	4.85
505.707	4.84
506.055	4.85
506.403	4.87
506.751	4.88
507.098	4.89
507.446	4.91
507.794	4.9
508.141	4.91
508.489	4.92
508.837	4.93
509.184	4.93
509.531	4.93
509.879	4.95
510.226	4.96
510.574	4.96
510.921	4.99
511.268	5.01
511.616	5.02
511.963	5.02
512.31	5.02
512.657	5.05
513.004	5.05
513.351	5.08
513.698	5.08
514.045	5.09
514.392	5.1
514.739	5.12
515.086	5.14
515.432	5.17
515.779	5.16
516.126	5.2
516.473	5.2
516.819	5.2
517.166	5.19
517.512	5.22
517.859	5.24
518.205	5.23
518.552	5.24
518.898	5.25
519.245	5.28
519.591	5.27
519.937	5.25
520.283	5.27
520.629	5.25
520.976	5.24
521.322	5.23
521.668	5.23
522.014	5.24
522.36	5.24
522.706	5.24
523.052	5.27
523.398	5.25
523.743	5.26
524.089	5.29
524.435	5.28
524.781	5.27
525.126	5.28
525.472	5.3
525.817	5.3
526.163	5.3
526.509	5.3
526.854	5.33
527.199	5.34
527.545	5.36
527.89	5.37
528.235	5.38
528.581	5.37
528.926	5.37
529.271	5.38
529.616	5.39
529.961	5.4
530.306	5.41
530.651	5.41
530.996	5.43
531.341	5.43
531.686	5.45
532.031	5.48
532.376	5.48
532.721	5.49
533.065	5.49
533.41	5.5
533.755	5.5
534.099	5.51
534.444	5.53
534.788	5.52
535.133	5.53
535.477	5.54
535.822	5.57
536.166	5.58
536.51	5.59
536.855	5.61
537.199	5.58
537.543	5.59
537.887	5.6
538.231	5.6
538.576	5.6
538.92	5.62
539.264	5.62
539.608	5.64
539.951	5.62
540.295	5.65
540.639	5.66
540.983	5.66
541.327	5.67
541.671	5.66
542.014	5.7
542.358	5.7
542.701	5.7
543.045	5.7
543.389	5.71
543.732	5.71
544.075	5.71
544.419	5.72
544.762	5.73
545.105	5.74
545.449	5.75
545.792	5.77
546.135	5.74
546.478	5.73
546.821	5.73
547.165	5.77
547.508	5.76
547.851	5.74
548.194	5.74
548.536	5.74
548.879	5.71
549.222	5.66
549.565	5.65
549.908	5.65
550.25	5.64
550.593	5.62
550.936	5.6
551.278	5.61
551.621	5.6
551.963	5.61
552.306	5.6
552.648	5.58
552.991	5.58
553.333	5.61
553.675	5.64
554.017	5.61
554.36	5.61
554.702	5.62
555.044	5.64
555.386	5.63
555.728	5.63
556.07	5.65
556.412	5.68
556.754	5.68
557.096	5.69
557.438	5.71
557.78	5.73
558.121	5.75
558.463	5.74
558.805	5.76
559.147	5.73
559.488	5.69
559.83	5.71
560.171	5.7
560.513	5.72
560.854	5.7
561.196	5.74
561.537	5.69
561.878	5.69
562.22	5.7
562.561	5.73
562.902	5.71
563.243	5.72
563.584	5.72
563.925	5.75
564.266	5.73
564.607	5.72
564.948	5.7
565.289	5.72
565.63	5.71
565.971	5.71
566.312	5.7
566.653	5.73
566.993	5.73
567.334	5.73
567.675	5.69
568.015	5.7
568.356	5.7
568.696	5.75
569.037	5.75
569.377	5.74
569.718	5.74
570.058	5.75
570.398	5.77
570.739	5.78
571.079	5.75
571.419	5.77
571.759	5.78
572.099	5.8
572.439	5.76
572.779	5.76
573.119	5.76
573.459	5.79
573.799	5.79
574.139	5.8
574.479	5.8
574.819	5.82
575.158	5.81
575.498	5.8
575.838	5.76
576.177	5.72
576.517	5.73
576.856	5.72
577.196	5.76
577.535	5.71
577.875	5.68
578.214	5.7
578.553	5.71
578.893	5.71
579.232	5.7
579.571	5.77
579.91	5.81
580.25	5.82
580.589	5.82
580.928	5.84
581.267	5.83
581.606	5.84
581.945	5.83
582.283	5.83
582.622	5.81
582.961	5.82
583.3	5.85
583.639	5.88
583.977	5.86
584.316	5.84
584.654	5.86
584.993	5.89
585.332	5.89
585.67	5.88
586.008	5.89
586.347	5.9
586.685	5.83
587.024	5.8
587.362	5.84
587.7	5.88
588.038	5.87
588.376	5.87
588.715	5.87
589.053	5.88
589.391	5.93
589.729	5.96
590.067	5.96
590.404	5.98
590.742	5.96
591.08	6.02
591.418	6.04
591.756	6.08
592.093	6.07
592.431	6.11
592.769	6.13
593.106	6.11
593.444	6.14
593.781	6.18
594.119	6.2
594.456	6.17
594.793	6.1
595.131	6.1
595.468	6.13
595.805	6.13
596.143	6.15
596.48	6.18
596.817	6.18
597.154	6.19
597.491	6.2
597.828	6.23
598.165	6.15
598.502	6.09
598.839	6.09
599.176	6.08
599.512	6.07
599.849	6.08
600.186	6.11
600.523	6.12
600.859	6.14
601.196	6.16
601.532	6.17
601.869	6.22
602.205	6.18
602.542	6.2
602.878	6.25
603.215	6.23
603.551	6.21
603.887	6.24
604.223	6.25
604.56	6.25
604.896	6.24
605.232	6.25
605.568	6.31
605.904	6.27
606.24	6.29
606.576	6.31
606.912	6.26
607.248	6.28
607.583	6.26
607.919	6.24
608.255	6.23
608.591	6.28
608.926	6.24
609.262	6.3
609.597	6.29
609.933	6.26
610.268	6.31
610.604	6.28
610.939	6.27
611.275	6.26
611.61	6.27
611.945	6.24
612.281	6.27
612.616	6.3
612.951	6.35
613.286	6.36
613.621	6.37
613.956	6.44
614.291	6.42
614.626	6.45
614.961	6.43
615.296	6.46
615.631	6.41
615.966	6.48
616.3	6.52
616.635	6.5
616.97	6.47
617.304	6.41
617.639	6.46
617.973	6.41
618.308	6.46
618.642	6.44
618.977	6.46
619.311	6.44
619.646	6.44
619.98	6.46
620.314	6.41
620.648	6.36
620.983	6.32
621.317	6.33
621.651	6.28
621.985	6.29
622.319	6.27
622.653	6.31
622.987	6.29
623.321	6.28
623.655	6.29
623.988	6.37
624.322	6.39
624.656	6.4
624.99	6.46
625.323	6.39
625.657	6.44
625.99	6.45
626.324	6.49
626.657	6.49
626.991	6.48
627.324	6.51
627.658	6.52
627.991	6.57
628.324	6.59
628.657	6.6
628.991	6.62
629.324	6.61
629.657	6.58
629.99	6.64
630.323	6.6
630.656	6.66
630.989	6.6
631.322	6.65
631.655	6.62
631.987	6.57
632.32	6.62
632.653	6.59
632.986	6.62
633.318	6.65
633.651	6.65
633.984	6.62
634.316	6.63
634.649	6.63
634.981	6.58
635.313	6.55
635.646	6.59
635.978	6.62
636.31	6.66
636.643	6.66
636.975	6.6
637.307	6.64
637.639	6.62
637.971	6.63
638.303	6.6
638.635	6.6
638.967	6.67
639.299	6.69
639.631	6.68
639.963	6.68
640.295	6.71
640.626	6.66
640.958	6.65
641.29	6.66
641.621	6.73
641.953	6.75
642.285	6.79
642.616	6.88
642.948	6.88
643.279	6.81
643.61	6.83
643.942	6.95
644.273	6.96
644.604	6.83
644.936	6.82
645.267	6.8
645.598	6.84
645.929	6.75
646.26	6.73
646.591	6.79
646.922	6.82
647.253	6.71
647.584	6.74
647.915	6.83
648.245	6.85
648.576	6.72
648.907	6.77
649.238	6.78
649.568	6.72
649.899	6.65
650.229	6.73
650.56	6.72
650.89	6.61
651.221	6.66
651.551	6.81
651.882	6.85
652.212	6.9
652.542	6.91
652.872	6.92
653.203	6.89
653.533	6.89
653.863	6.82
654.193	6.8
654.523	6.76
654.853	6.78
655.183	6.8
655.513	6.92
655.843	6.91
656.172	6.93
656.502	6.86
656.832	6.89
657.162	6.83
657.491	6.81
657.821	6.84
658.15	6.83
658.48	6.82
658.809	6.82
659.139	6.83
659.468	6.83
659.798	6.89
660.127	6.89
660.456	6.83
660.785	6.82
661.115	6.91
661.444	6.95
661.773	6.98
662.102	7.02
662.431	6.93
662.76	6.94
663.089	6.9
663.418	6.98
663.747	7.01
664.076	7.07
664.404	7.16
664.733	7.12
665.062	7.15
665.39	7.08
665.719	7.08
666.048	7.08
666.376	7.11
666.705	7
667.033	7.13
667.362	7.14
667.69	7.16
668.018	7.2
668.347	7.26
668.675	7.2
669.003	7.2
669.331	7.33
669.659	7.26
669.987	7.3
670.315	7.29
670.643	7.29
670.971	7.34
671.299	7.29
671.627	7.28
671.955	7.21
672.283	7.27
672.61	7.27
672.938	7.33
673.266	7.31
673.593	7.42
673.921	7.39
674.249	7.37
674.576	7.51
674.904	7.44
675.231	7.43
675.558	7.38
675.886	7.43
676.213	7.42
676.54	7.52
676.867	7.52
677.195	7.54
677.522	7.51
677.849	7.53
678.176	7.54
678.503	7.51
678.83	7.51
679.157	7.51
679.484	7.51
679.81	7.41
680.137	7.43
680.464	7.44
680.791	7.37
681.117	7.52
681.444	7.42
681.771	7.47
682.097	7.47
682.424	7.48
682.75	7.45
683.077	7.42
683.403	7.39
683.729	7.4
684.056	7.42
684.382	7.51
684.708	7.51
685.034	7.57
685.36	7.59
685.686	7.65
686.012	7.6
686.339	7.62
686.664	7.69
686.99	7.66
687.316	7.61
687.642	7.81
687.968	7.78
688.294	7.84
688.619	7.83
688.945	7.77
689.271	7.84
689.596	7.75
689.922	7.79
690.247	7.86
690.573	7.78
690.898	7.83
691.224	7.71
691.549	7.78
691.874	7.88
692.2	7.93
692.525	7.93
692.85	8.03
693.175	8.14
693.5	8.14
693.825	8.15
694.15	8.17
694.475	7.98
694.8	7.85
695.125	7.83
695.45	7.9
695.775	7.9
696.099	7.91
696.424	7.92
696.749	7.93
697.073	7.8
697.398	7.84
697.723	7.83
698.047	7.98
698.372	7.91
698.696	7.72
699.02	7.69
699.345	7.73
699.669	7.77
699.993	7.65
700.318	7.69
700.642	7.69
700.966	7.73
701.29	7.73
701.614	7.79
701.938	7.75
702.262	7.68
702.586	7.72
702.91	7.73
703.234	7.79
703.557	7.79
703.881	7.98
704.205	8.16
704.529	8
704.852	7.82
705.176	7.92
705.499	8.11
705.823	8.16
706.146	8.24
706.47	8.2
706.793	8.28
707.117	8.27
707.44	8.39
707.763	8.37
708.086	8.37
708.409	8.44
708.733	8.5
709.056	8.52
709.379	8.59
709.702	8.71
710.025	8.65
710.348	8.67
710.671	8.55
710.993	8.4
711.316	8.45
711.639	8.4
711.962	8.33
712.284	8.41
712.607	8.51
712.93	8.35
713.252	8.27
713.575	8.26
713.897	8.13
714.22	8.11
714.542	8.23
714.864	8.29
715.187	8.2
715.509	8.31
715.831	8.37
716.153	8.42
716.475	8.31
716.798	8.38
717.12	8.34
717.442	8.28
717.764	8.19
718.085	8.39
718.407	8.56
718.729	8.48
719.051	8.28
719.373	8.37
719.695	8.38
720.016	8.42
720.338	8.45
720.659	8.59
720.981	8.64
721.302	8.52
721.624	8.57
721.945	8.6
722.267	8.55
722.588	8.53
722.909	8.52
723.231	8.48
723.552	8.48
723.873	8.55
724.194	8.68
724.515	8.69
724.836	8.48
725.157	8.52
725.478	8.52
725.799	8.6
726.12	8.47
726.441	8.65
726.762	8.64
727.083	8.58
727.403	8.75
727.724	8.61
728.045	8.74
728.365	8.76
728.686	8.88
729.006	8.93
729.327	8.89
729.647	8.85
729.967	8.84
730.288	8.8
730.608	8.79
730.928	8.87
731.249	9.11
731.569	9.26
731.889	9.23
732.209	9.25
732.529	9.4
732.849	9.3
733.169	9.32
733.489	9.17
733.809	9.23
734.129	9.13
734.448	9.21
734.768	9.07
735.088	9.14
735.408	9.16
735.727	9.09
736.047	9.17
736.366	9.07
736.686	9.08
737.005	9.34
737.325	9.26
737.644	9.21
737.963	9.09
738.283	8.93
738.602	9.01
738.921	9.01
739.24	8.87
739.56	9.04
739.879	8.91
740.198	9.24
740.517	9.33
740.836	9.16
741.155	9.12
741.473	9.16
741.792	9.04
742.111	9.16
742.43	9.55
742.748	9.6
743.067	9.59
743.386	9.71
743.704	9.44
744.023	9.56
744.341	9.7
744.66	9.64
744.978	9.58
745.297	9.56
745.615	9.64
745.933	9.83
746.252	9.69
746.57	9.75
746.888	9.65
747.206	9.36
747.524	9.64
747.842	9.49
748.16	9.49
748.478	9.64
748.796	9.74
749.114	9.07
749.432	9.06
749.749	9.3
750.067	9.15
750.385	9.2
750.703	9.2
751.02	9.15
751.338	9.18
751.655	9.46
751.973	9.3
752.29	9.13
752.608	9.17
752.925	9.24
753.242	9.38
753.56	9.27
753.877	9.47
754.194	9.31
754.511	9.5
754.828	9.62
755.145	9.34
755.462	9.21
755.779	9.1
756.096	8.86
756.413	8.9
756.73	8.92
757.047	8.99
757.364	9.16
757.68	9.32
757.997	9.48
758.314	9.65
758.63	9.73
758.947	9.82
759.264	10
759.58	9.97
759.896	9.79
760.213	10.19
760.529	10.23
760.846	10.3
761.162	10.28
761.478	10.26
761.794	10.53
762.11	10.52
762.426	10.94
762.743	11.13
763.059	11.32
763.375	11.38
763.69	11.52
764.006	11.49
764.322	11.46
764.638	11.52
764.954	11.52
765.27	11.64
765.585	11.67
765.901	11.35
766.216	11.38
766.532	11.51
766.848	11.48
767.163	11.55
767.478	11.36
767.794	11.48
768.109	11.55
768.424	11.45
768.74	11.42
769.055	11.58
769.37	11.5
769.685	11.2
770	11.29
770.315	10.8
770.63	10.47
770.945	10.46
771.26	10.08
771.575	9.58
771.89	9.62
772.205	9.72
772.52	10.09
772.834	9.85
773.149	9.8
773.464	9.46
773.778	9.56
774.093	10.14
774.407	10.19
774.722	10.35
775.036	10.34
775.351	10.71
775.665	10.37
775.979	10.64
776.293	11.03
776.608	10.68
776.922	11.01
777.236	11.38
777.55	11.08
777.864	11.27
778.178	11.66
778.492	11.69
778.806	12
779.12	11.81
779.434	12.11
779.747	12.27
780.061	12.27
780.375	12.34
780.689	12.12
781.002	12.11
781.316	11.92
781.629	11.9
781.943	11.09
782.256	11.19
782.57	11.26
782.883	11.3
783.196	11.64
783.51	11.79
783.823	11.45
784.136	11.85
784.449	12.06
784.762	12.61
785.075	12.54
785.388	12.59
785.701	12.59
786.014	12.68
786.327	12.75
786.64	13.12
786.953	13.07
787.266	13.43
787.578	13.24
787.891	13.12
788.204	13.27
788.516	13.75
788.829	13.63
789.141	13.69
789.454	13.26
789.766	13.7
790.079	13.54
790.391	14.2
790.703	14.25
791.016	14.39
791.328	13.93
791.64	14.11
791.952	13.99
792.264	13.93
792.576	13.85
792.888	13.88
793.2	13.81
793.512	13.9
793.824	13.75
794.136	14.47
794.448	15.09
794.76	15.58
795.071	15.16
795.383	14.89
795.695	14.49
796.006	14.52
796.318	14.54
796.629	14.94
796.941	14.62
797.252	14.18
797.564	13.81
797.875	13.92
798.186	13.78
798.497	14.02
798.809	14.1
799.12	14.03
799.431	13.54
799.742	13.79
800.053	13.69
800.364	13.24
800.675	13.42
800.986	12.94
801.297	12.57
801.608	12.66
801.918	13.26
802.229	13.35
802.54	13.6
802.851	13.21
803.161	12.67
803.472	12.56
803.782	12.85
804.093	13.54
804.403	12.78
804.714	12.41
805.024	11.99
805.334	11.72
805.645	11.77
805.955	12.66
806.265	12.8
806.575	12.78
806.885	13.64
807.195	13.18
807.505	13.49
807.815	13.58
808.125	13.64
808.435	13.46
808.745	13.96
809.055	14.1
809.365	13.74
809.674	13.86
809.984	13.87
810.294	13.7
810.603	13.21
810.913	14.17
811.222	14.75
811.532	15.08
811.841	15.5
812.151	15.57
812.46	15.22
812.769	15.1
813.079	14.74
813.388	14.43
813.697	13.36
814.006	11.92
814.315	11.07
814.624	11.71
814.933	11.3
815.242	10.74
815.551	10.58
815.86	11.62
816.169	11.64
816.478	11.89
816.786	11.64
817.095	11.54
817.404	11.43
817.712	11.6
818.021	11.58
818.33	11.32
818.638	11.85
818.947	12.12
819.255	12.39
819.563	12.74
819.872	12.55
820.18	13.26
820.488	13.58
820.796	13.82
821.105	13.8
821.413	13.9
821.721	13.85
822.029	13.96
822.337	13.72
822.645	13.92
822.953	13.83
823.26	13.91
823.568	13.86
823.876	13.79
824.184	13.72
824.491	13.69
824.799	13.94
825.107	13.92
825.414	13.89
825.722	13.76
826.029	13.85
826.337	13.86
826.644	13.67
826.951	13.82
827.259	13.86
827.566	13.94
827.873	14.04
828.18	14.21
828.488	13.97
828.795	14.3
829.102	14.01
829.409	14.21
829.716	14.53
830.023	15.07
830.329	15.41
830.636	15.08
830.943	15.15
831.25	14.86
831.557	14.7
831.863	14.79
832.17	14.95
832.476	14.91
832.783	15.32
833.089	15.43
833.396	15.01
833.702	15.01
834.009	14.66
834.315	14.17
834.621	14.35
834.928	14.42
835.234	13.84
835.54	14.06
835.846	13.85
836.152	13.06
836.458	12.65
836.764	12.18
837.07	12.6
837.376	12.49
837.682	12.2
837.988	12.57
838.293	12.17
838.599	11.64
838.905	11.28
839.211	10.77
839.516	10.81
839.822	11.94
840.127	11.73
840.433	12.48
840.738	13.63
841.044	13.12
841.349	13.98
841.654	13.99
841.959	14.09
842.265	14.96
842.57	16.71
842.875	17.12
843.18	16.77
843.485	17.18
843.79	16.62
844.095	17.82
844.4	17.36
844.705	18.71
845.01	20.51
845.315	19.97
845.619	21.89
845.924	21.71
846.229	21.48
846.533	22.14
846.838	21.9
847.142	21.88
847.447	23.04
847.751	22.22
848.056	23.68
848.36	24.72
848.664	23.04
848.969	21.5
849.273	20.37
849.577	21.4
849.881	22.57
850.185	23.72
850.489	23.5
850.794	24.8
851.097	24.81
851.401	23.91
851.705	25.56
852.009	24.37
852.313	23.81
852.617	23.17
852.92	23.54
853.224	23.57
853.528	24.01
853.831	25.01
854.135	24.42
854.438	24.86
854.742	23.91
855.045	23.92
855.349	24.2
855.652	23.91
855.955	22.78
856.259	21.65
856.562	24.07
856.865	24.43
857.168	23.68
857.471	21.77
857.774	22.26
858.077	21.99
858.38	22.44
858.683	23.16
858.986	24.59
859.289	24.42
859.592	24.01
859.894	21.5
860.197	19.79
860.5	21.74
860.802	20.32
861.105	20.04
861.407	21.69
861.71	22.76
862.012	23.87
862.315	24.34
862.617	22.24
862.919	20.8
863.222	20.64
863.524	19.35
863.826	19.88
864.128	19.35
864.43	20.01
864.732	17.65
865.034	18.03
865.336	17.68
865.638	17.37
865.94	18.08
866.242	19.58
866.544	19.82
866.846	18.46
867.147	20.13
867.449	22.41
867.751	22.22
868.052	19.76
868.354	17.09
868.655	19.34
868.957	22.83
869.258	19.54
869.56	20.88
869.861	20.74
870.162	22.23
870.463	21.97
870.765	21.56
871.066	20.23
871.367	18.98
871.668	19.4
871.969	17.95
872.27	17.85
872.571	17.17
872.872	16.39
873.173	17.06
873.473	15.06
873.774	13.69
874.075	13.71
874.376	16.56
874.676	18.51
874.977	14.76
875.277	13.97
875.578	15.89
875.878	13.58
876.179	14.94
876.479	13.79
876.78	13.5
877.08	13.48
877.38	15.81
877.68	17.97
877.981	15.19
878.281	17.63
878.581	15.77
