Data from BA17729_Reflection_00015.txt Node
Date: Tue Nov 19 11:51:05 EST 2019
User: vgr7
Spectrometer: USB2G7710
Scans to average: 3
Trigger mode: 4
Integration Time (sec): 2.000000E-2
Electric dark correction enabled: true
Boxcar width: 10
XAxis mode: Wavelengths
Number of Pixels in Spectrum: 2048
>>>>>Begin Spectral Data<<<<<
177.721	150.95
178.105	3.74
178.488	51.29
178.871	55.88
179.254	78.05
179.636	108.67
180.019	135.64
180.402	433.33
180.785	197.18
181.168	30.96
181.55	15.35
181.933	15.09
182.316	1.28
182.698	17.52
183.081	22.6
183.463	27.76
183.846	51.37
184.228	24.82
184.611	-93.84
184.993	-409.3
185.376	-4576.47
185.758	-316.35
186.14	-29.36
186.522	-25.23
186.904	-41.76
187.287	-96.34
187.669	-272
188.051	-2490.91
188.433	-47.89
188.815	49.66
189.197	-697.87
189.579	177.08
189.961	66.45
190.342	95.3
190.724	-123.4
191.106	215.38
191.488	-244.04
191.869	16.89
192.251	65.8
192.633	59.89
193.014	219.63
193.396	146.01
193.777	55.19
194.159	65.04
194.54	95.07
194.922	163.13
195.303	116.8
195.684	102.87
196.065	222.15
196.447	139.08
196.828	73.61
197.209	48.94
197.59	42.53
197.971	38.46
198.352	26.86
198.733	47.71
199.114	51.7
199.495	72.41
199.876	88.79
200.257	64.54
200.638	35.43
201.018	23.37
201.399	34.2
201.78	43.55
202.16	36.65
202.541	38.39
202.922	23.41
203.302	33.31
203.683	32.13
204.063	24.77
204.444	26.8
204.824	38.28
205.204	36.4
205.585	32.03
205.965	61.47
206.345	74.34
206.725	59.79
207.106	53.33
207.486	52.15
207.866	39.5
208.246	51.89
208.626	62.77
209.006	66.33
209.386	65.5
209.766	59.67
210.145	53.27
210.525	51.96
210.905	79.32
211.285	71.56
211.664	84.32
212.044	76.87
212.424	77.57
212.803	82.48
213.183	96.73
213.562	101.05
213.942	96.76
214.321	101.01
214.701	105.41
215.08	128.66
215.459	179.6
215.838	127.76
216.218	119.51
216.597	126.97
216.976	123.74
217.355	98.97
217.734	87.39
218.113	101.14
218.492	110.97
218.871	86.69
219.25	81.61
219.629	85.39
220.008	101.81
220.387	106.57
220.766	73.24
221.144	68.22
221.523	63.41
221.902	41.48
222.28	51.05
222.659	51.42
223.037	27.57
223.416	15.48
223.794	20.74
224.173	6.92
224.551	-6.28
224.929	7.49
225.308	15.76
225.686	13.15
226.064	6.47
226.442	11.61
226.821	14.66
227.199	21.16
227.577	20.17
227.955	24.29
228.333	19.52
228.711	20.91
229.089	19.1
229.467	24.41
229.845	23.51
230.222	22.47
230.6	21.31
230.978	23.36
231.356	20.3
231.733	21.85
232.111	21.57
232.488	18.42
232.866	18.41
233.243	19.1
233.621	21.92
233.998	21.24
234.376	18.48
234.753	17.95
235.13	16.41
235.508	16.15
235.885	14.86
236.262	19.2
236.639	17.6
237.016	16.93
237.393	14.84
237.77	15.38
238.147	13.85
238.524	13.72
238.901	11.95
239.278	10.78
239.655	9
240.032	9.51
240.409	10.17
240.785	9.16
241.162	8.64
241.539	7.9
241.915	7.8
242.292	8.41
242.668	8.34
243.045	8.57
243.421	7.97
243.798	7.75
244.174	7.03
244.551	7.51
244.927	7.3
245.303	7.08
245.679	6.83
246.056	6.62
246.432	6.56
246.808	7.04
247.184	7.39
247.56	7.53
247.936	7.48
248.312	7.7
248.688	7.76
249.064	7.89
249.44	7.94
249.815	8.03
250.191	7.97
250.567	8.01
250.943	8
251.318	8.38
251.694	8.33
252.069	8.26
252.445	7.85
252.82	8.28
253.196	8.1
253.571	8.34
253.947	8.59
254.322	8.63
254.697	8.18
255.073	7.89
255.448	7.87
255.823	7.84
256.198	7.47
256.573	7.48
256.948	7.36
257.323	7.3
257.698	7.22
258.073	7.13
258.448	7.11
258.823	6.9
259.198	6.88
259.573	6.73
259.948	7.02
260.322	6.9
260.697	6.96
261.072	7.08
261.446	6.95
261.821	6.82
262.195	6.76
262.57	6.92
262.944	7.1
263.319	7.22
263.693	6.99
264.067	6.91
264.442	7.04
264.816	7.09
265.19	6.92
265.564	7.09
265.938	6.93
266.313	6.93
266.687	6.93
267.061	6.86
267.435	7.15
267.809	6.76
268.183	6.66
268.556	6.3
268.93	6.27
269.304	6.28
269.678	6.53
270.051	6.57
270.425	6.43
270.799	6.1
271.172	6.04
271.546	6.29
271.919	6.22
272.293	6.2
272.666	6.29
273.04	6.36
273.413	6.32
273.787	6.24
274.16	6.03
274.533	6.16
274.906	6.15
275.279	5.98
275.653	6.2
276.026	6.48
276.399	6.62
276.772	6.77
277.145	6.83
277.518	6.55
277.891	6.46
278.263	6.55
278.636	7.01
279.009	6.99
279.382	6.77
279.755	6.77
280.127	6.74
280.5	6.63
280.872	6.61
281.245	6.4
281.617	6.43
281.99	6.57
282.362	6.69
282.735	6.59
283.107	6.71
283.479	6.62
283.852	6.44
284.224	6.42
284.596	6.29
284.968	6.26
285.34	6.42
285.713	6.37
286.085	6.31
286.457	6.01
286.829	5.78
287.201	5.92
287.572	6.01
287.944	5.95
288.316	5.98
288.688	6.12
289.06	6.24
289.431	6.33
289.803	6.37
290.175	6.11
290.546	6.03
290.918	6.09
291.289	6
291.661	6.06
292.032	6.16
292.403	6.16
292.775	6.22
293.146	6.19
293.517	6.27
293.889	6.22
294.26	6.38
294.631	6.45
295.002	6.4
295.373	6.4
295.744	6.34
296.115	6.38
296.486	6.37
296.857	6.53
297.228	6.42
297.599	6.5
297.97	6.7
298.34	7.01
298.711	6.97
299.082	7.08
299.452	7.14
299.823	7
300.194	7.08
300.564	7.07
300.935	7.2
301.305	7.15
301.676	7.22
302.046	7.16
302.416	7.46
302.787	7.4
303.157	7.45
303.527	7.61
303.897	7.68
304.267	7.64
304.637	7.42
305.008	7.64
305.378	7.56
305.748	7.49
306.117	7.35
306.487	7.27
306.857	7.37
307.227	7.39
307.597	7.56
307.967	7.61
308.336	7.61
308.706	7.61
309.076	7.83
309.445	7.92
309.815	7.96
310.184	7.89
310.554	8.02
310.923	7.9
311.293	7.86
311.662	7.8
312.031	7.85
312.401	7.95
312.77	7.86
313.139	8.02
313.508	7.97
313.877	8
314.246	8.16
314.616	8.13
314.985	8.23
315.353	8.27
315.722	8.31
316.091	8.36
316.46	8.21
316.829	8.15
317.198	8.19
317.567	8.44
317.935	8.44
318.304	8.62
318.672	8.87
319.041	8.87
319.41	9.04
319.778	9.22
320.147	9.31
320.515	9.45
320.883	9.24
321.252	9.5
321.62	9.5
321.988	9.53
322.357	9.72
322.725	9.69
323.093	9.5
323.461	9.5
323.829	9.44
324.197	9.68
324.565	9.63
324.933	9.6
325.301	9.34
325.669	9.51
326.037	9.42
326.405	9.41
326.772	9.36
327.14	9.07
327.508	8.86
327.875	8.75
328.243	8.76
328.61	8.71
328.978	8.78
329.346	8.89
329.713	8.93
330.08	8.72
330.448	8.73
330.815	8.9
331.182	8.86
331.55	8.92
331.917	8.84
332.284	8.84
332.651	8.81
333.018	8.88
333.385	8.87
333.752	8.9
334.119	8.93
334.486	9
334.853	9.15
335.22	9.12
335.587	9.21
335.954	9.14
336.32	9.3
336.687	9.16
337.054	9.08
337.42	9
337.787	9.09
338.153	8.99
338.52	8.97
338.886	9.08
339.253	9.13
339.619	9.14
339.986	9.14
340.352	9.11
340.718	9.18
341.084	9.14
341.451	9.16
341.817	9.19
342.183	9.21
342.549	9.21
342.915	9.49
343.281	9.43
343.647	9.56
344.013	9.61
344.379	9.52
344.745	9.48
345.11	9.53
345.476	9.59
345.842	9.74
346.208	9.76
346.573	9.74
346.939	9.69
347.304	9.74
347.67	9.73
348.035	9.82
348.401	9.8
348.766	9.75
349.132	9.78
349.497	9.74
349.862	9.7
350.228	9.79
350.593	9.55
350.958	9.72
351.323	9.65
351.688	9.55
352.053	9.58
352.418	9.52
352.783	9.45
353.148	9.44
353.513	9.5
353.878	9.44
354.243	9.39
354.608	9.43
354.972	9.37
355.337	9.36
355.702	9.3
356.066	9.29
356.431	9.34
356.795	9.28
357.16	9.24
357.524	9.21
357.889	9.15
358.253	9.21
358.618	9.1
358.982	9.1
359.346	9.04
359.71	9.01
360.075	9.09
360.439	9.05
360.803	9.01
361.167	8.9
361.531	8.9
361.895	8.87
362.259	8.85
362.623	8.79
362.987	8.77
363.351	8.74
363.714	8.8
364.078	8.75
364.442	8.66
364.806	8.67
365.169	8.64
365.533	8.63
365.896	8.62
366.26	8.55
366.623	8.55
366.987	8.57
367.35	8.57
367.714	8.51
368.077	8.55
368.44	8.55
368.803	8.43
369.167	8.45
369.53	8.43
369.893	8.36
370.256	8.36
370.619	8.34
370.982	8.31
371.345	8.16
371.708	8.2
372.071	8.1
372.434	8.04
372.797	8.04
373.159	8.06
373.522	7.97
373.885	7.91
374.247	7.81
374.61	7.73
374.973	7.71
375.335	7.68
375.698	7.61
376.06	7.53
376.423	7.5
376.785	7.48
377.147	7.49
377.51	7.47
377.872	7.42
378.234	7.38
378.596	7.41
378.958	7.38
379.321	7.23
379.683	7.31
380.045	7.31
380.407	7.27
380.769	7.18
381.13	7.16
381.492	7.16
381.854	7.15
382.216	7.16
382.578	7.11
382.939	7.08
383.301	7.04
383.663	6.95
384.024	6.96
384.386	6.88
384.747	6.8
385.109	6.79
385.47	6.74
385.832	6.72
386.193	6.67
386.554	6.64
386.916	6.67
387.277	6.61
387.638	6.58
387.999	6.61
388.36	6.58
388.721	6.6
389.082	6.59
389.443	6.59
389.804	6.57
390.165	6.55
390.526	6.54
390.887	6.54
391.248	6.54
391.609	6.55
391.969	6.52
392.33	6.53
392.691	6.47
393.051	6.47
393.412	6.44
393.772	6.43
394.133	6.43
394.493	6.41
394.854	6.41
395.214	6.38
395.574	6.32
395.935	6.29
396.295	6.23
396.655	6.14
397.015	6.11
397.376	6.09
397.736	6.05
398.096	6
398.456	5.99
398.816	5.98
399.176	5.93
399.535	5.92
399.895	5.9
400.255	5.89
400.615	5.86
400.975	5.85
401.334	5.81
401.694	5.75
402.054	5.72
402.413	5.7
402.773	5.7
403.132	5.64
403.492	5.65
403.851	5.67
404.211	5.69
404.57	5.66
404.929	5.61
405.288	5.61
405.648	5.58
406.007	5.54
406.366	5.55
406.725	5.51
407.084	5.51
407.443	5.52
407.802	5.5
408.161	5.51
408.52	5.48
408.879	5.49
409.238	5.51
409.596	5.49
409.955	5.48
410.314	5.43
410.673	5.49
411.031	5.46
411.39	5.38
411.748	5.39
412.107	5.34
412.465	5.39
412.824	5.39
413.182	5.39
413.54	5.39
413.899	5.38
414.257	5.38
414.615	5.36
414.974	5.32
415.332	5.32
415.69	5.29
416.048	5.31
416.406	5.28
416.764	5.25
417.122	5.24
417.48	5.22
417.838	5.23
418.195	5.2
418.553	5.2
418.911	5.2
419.269	5.18
419.626	5.18
419.984	5.14
420.342	5.12
420.699	5.11
421.057	5.1
421.414	5.08
421.772	5.08
422.129	5.06
422.486	5.04
422.844	5.03
423.201	5.02
423.558	4.99
423.915	5
424.273	5
424.63	5.01
424.987	5.02
425.344	5
425.701	4.98
426.058	4.98
426.415	4.97
426.772	4.96
427.128	4.96
427.485	4.98
427.842	4.98
428.199	4.99
428.555	5
428.912	5
429.269	4.97
429.625	4.98
429.982	4.95
430.338	4.97
430.695	4.95
431.051	4.96
431.407	4.97
431.764	4.95
432.12	4.94
432.476	4.93
432.832	4.95
433.189	4.95
433.545	4.94
433.901	4.95
434.257	4.95
434.613	4.96
434.969	4.95
435.325	4.95
435.681	4.93
436.036	4.95
436.392	4.94
436.748	4.95
437.104	4.95
437.459	4.96
437.815	4.95
438.171	4.99
438.526	4.96
438.882	4.96
439.237	4.95
439.593	4.95
439.948	4.94
440.304	4.91
440.659	4.9
441.014	4.89
441.369	4.89
441.725	4.88
442.08	4.87
442.435	4.86
442.79	4.84
443.145	4.85
443.5	4.82
443.855	4.8
444.21	4.81
444.565	4.8
444.92	4.79
445.275	4.8
445.629	4.78
445.984	4.78
446.339	4.77
446.693	4.76
447.048	4.74
447.403	4.75
447.757	4.76
448.112	4.76
448.466	4.77
448.82	4.76
449.175	4.78
449.529	4.79
449.883	4.8
450.238	4.79
450.592	4.8
450.946	4.8
451.3	4.81
451.654	4.79
452.008	4.8
452.362	4.83
452.716	4.81
453.07	4.81
453.424	4.8
453.778	4.78
454.132	4.79
454.486	4.8
454.839	4.8
455.193	4.79
455.547	4.79
455.9	4.78
456.254	4.77
456.607	4.76
456.961	4.75
457.314	4.74
457.668	4.75
458.021	4.71
458.375	4.72
458.728	4.71
459.081	4.72
459.434	4.7
459.787	4.7
460.141	4.72
460.494	4.72
460.847	4.73
461.2	4.73
461.553	4.74
461.906	4.76
462.259	4.75
462.611	4.75
462.964	4.76
463.317	4.78
463.67	4.8
464.022	4.79
464.375	4.8
464.728	4.81
465.08	4.78
465.433	4.83
465.785	4.84
466.138	4.86
466.49	4.85
466.843	4.88
467.195	4.86
467.547	4.84
467.899	4.88
468.252	4.89
468.604	4.9
468.956	4.89
469.308	4.88
469.66	4.9
470.012	4.94
470.364	4.94
470.716	4.96
471.068	4.96
471.42	5
471.772	5.01
472.123	4.99
472.475	5.03
472.827	5.01
473.178	5
473.53	5.02
473.882	5.02
474.233	4.99
474.585	5.01
474.936	5.01
475.288	4.98
475.639	4.96
475.99	4.96
476.342	4.96
476.693	4.97
477.044	4.97
477.395	4.93
477.746	4.92
478.097	4.9
478.448	4.88
478.8	4.86
479.15	4.84
479.501	4.86
479.852	4.84
480.203	4.84
480.554	4.83
480.905	4.81
481.255	4.82
481.606	4.85
481.957	4.87
482.307	4.88
482.658	4.88
483.009	4.89
483.359	4.9
483.709	4.9
484.06	4.9
484.41	4.9
484.761	4.92
485.111	4.92
485.461	4.92
485.811	4.91
486.162	4.93
486.512	4.94
486.862	4.94
487.212	4.97
487.562	4.97
487.912	5
488.262	5.02
488.612	5.03
488.961	5.03
489.311	5.03
489.661	5.03
490.011	5.04
490.36	5.04
490.71	5.03
491.06	5.05
491.409	5.05
491.759	5.06
492.108	5.05
492.458	5.07
492.807	5.1
493.157	5.13
493.506	5.12
493.855	5.14
494.204	5.15
494.554	5.16
494.903	5.17
495.252	5.18
495.601	5.19
495.95	5.22
496.299	5.26
496.648	5.28
496.997	5.28
497.346	5.32
497.695	5.37
498.043	5.43
498.392	5.45
498.741	5.5
499.09	5.55
499.438	5.6
499.787	5.64
500.135	5.68
500.484	5.71
500.832	5.75
501.181	5.78
501.529	5.82
501.878	5.86
502.226	5.91
502.574	5.96
502.923	6.01
503.271	6.04
503.619	6.06
503.967	6.08
504.315	6.14
504.663	6.17
505.011	6.21
505.359	6.22
505.707	6.26
506.055	6.31
506.403	6.33
506.751	6.35
507.098	6.4
507.446	6.42
507.794	6.45
508.141	6.49
508.489	6.55
508.837	6.57
509.184	6.63
509.531	6.67
509.879	6.69
510.226	6.73
510.574	6.78
510.921	6.83
511.268	6.87
511.616	6.93
511.963	6.98
512.31	7.01
512.657	7.06
513.004	7.09
513.351	7.14
513.698	7.19
514.045	7.23
514.392	7.27
514.739	7.33
515.086	7.39
515.432	7.45
515.779	7.48
516.126	7.56
516.473	7.58
516.819	7.62
517.166	7.67
517.512	7.69
517.859	7.74
518.205	7.79
518.552	7.83
518.898	7.86
519.245	7.9
519.591	7.96
519.937	8.01
520.283	8.05
520.629	8.09
520.976	8.14
521.322	8.23
521.668	8.3
522.014	8.36
522.36	8.43
522.706	8.51
523.052	8.62
523.398	8.7
523.743	8.78
524.089	8.88
524.435	8.96
524.781	9.04
525.126	9.1
525.472	9.17
525.817	9.23
526.163	9.29
526.509	9.33
526.854	9.39
527.199	9.44
527.545	9.52
527.89	9.56
528.235	9.63
528.581	9.68
528.926	9.72
529.271	9.8
529.616	9.86
529.961	9.91
530.306	9.95
530.651	10.01
530.996	10.1
531.341	10.18
531.686	10.26
532.031	10.35
532.376	10.45
532.721	10.54
533.065	10.64
533.41	10.75
533.755	10.88
534.099	10.98
534.444	11.1
534.788	11.19
535.133	11.29
535.477	11.39
535.822	11.51
536.166	11.64
536.51	11.75
536.855	11.89
537.199	12.05
537.543	12.22
537.887	12.39
538.231	12.52
538.576	12.68
538.92	12.85
539.264	13
539.608	13.16
539.951	13.29
540.295	13.44
540.639	13.56
540.983	13.7
541.327	13.84
541.671	13.97
542.014	14.12
542.358	14.26
542.701	14.4
543.045	14.54
543.389	14.71
543.732	14.86
544.075	15
544.419	15.16
544.762	15.32
545.105	15.5
545.449	15.69
545.792	15.88
546.135	16.1
546.478	16.3
546.821	16.52
547.165	16.77
547.508	16.97
547.851	17.21
548.194	17.45
548.536	17.7
548.879	17.92
549.222	18.18
549.565	18.46
549.908	18.74
550.25	18.97
550.593	19.2
550.936	19.45
551.278	19.74
551.621	20
551.963	20.3
552.306	20.54
552.648	20.81
552.991	21.06
553.333	21.29
553.675	21.58
554.017	21.82
554.36	22.06
554.702	22.34
555.044	22.61
555.386	22.9
555.728	23.17
556.07	23.47
556.412	23.77
556.754	24.06
557.096	24.4
557.438	24.73
557.78	25.08
558.121	25.4
558.463	25.71
558.805	26.02
559.147	26.32
559.488	26.67
559.83	27.01
560.171	27.3
560.513	27.55
560.854	27.83
561.196	28.14
561.537	28.44
561.878	28.78
562.22	29.08
562.561	29.37
562.902	29.67
563.243	29.96
563.584	30.21
563.925	30.47
564.266	30.72
564.607	30.96
564.948	31.18
565.289	31.46
565.63	31.75
565.971	32.06
566.312	32.3
566.653	32.52
566.993	32.77
567.334	33.06
567.675	33.35
568.015	33.61
568.356	33.9
568.696	34.17
569.037	34.37
569.377	34.63
569.718	34.88
570.058	35.13
570.398	35.38
570.739	35.64
571.079	35.95
571.419	36.22
571.759	36.52
572.099	36.79
572.439	36.99
572.779	37.21
573.119	37.44
573.459	37.67
573.799	37.92
574.139	38.11
574.479	38.3
574.819	38.51
575.158	38.75
575.498	38.95
575.838	39.17
576.177	39.36
576.517	39.56
576.856	39.75
577.196	40.01
577.535	40.28
577.875	40.5
578.214	40.73
578.553	40.92
578.893	41.12
579.232	41.34
579.571	41.66
579.91	41.84
580.25	42.03
580.589	42.26
580.928	42.44
581.267	42.7
581.606	43.06
581.945	43.31
582.283	43.48
582.622	43.63
582.961	43.83
583.3	44.12
583.639	44.36
583.977	44.61
584.316	44.8
584.654	44.91
584.993	45.14
585.332	45.24
585.67	45.48
586.008	45.61
586.347	45.8
586.685	45.86
587.024	46.09
587.362	46.26
587.7	46.48
588.038	46.66
588.376	46.8
588.715	46.89
589.053	46.98
589.391	47.15
589.729	47.26
590.067	47.45
590.404	47.67
590.742	47.84
591.08	47.93
591.418	48.11
591.756	48.29
592.093	48.45
592.431	48.57
592.769	48.65
593.106	48.79
593.444	48.95
593.781	49.12
594.119	49.18
594.456	49.42
594.793	49.44
595.131	49.56
595.468	49.69
595.805	49.79
596.143	49.89
596.48	50
596.817	50.21
597.154	50.31
597.491	50.37
597.828	50.48
598.165	50.62
598.502	50.6
598.839	50.74
599.176	50.85
599.512	51.1
599.849	51.21
600.186	51.35
600.523	51.45
600.859	51.52
601.196	51.6
601.532	51.52
601.869	51.59
602.205	51.67
602.542	51.7
602.878	51.79
603.215	51.83
603.551	51.86
603.887	51.91
604.223	51.98
604.56	52.03
604.896	52.12
605.232	52.19
605.568	52.37
605.904	52.32
606.24	52.33
606.576	52.26
606.912	52.41
607.248	52.51
607.583	52.56
607.919	52.66
608.255	52.81
608.591	53.04
608.926	53.2
609.262	53.31
609.597	53.42
609.933	53.47
610.268	53.65
610.604	53.76
610.939	53.85
611.275	53.94
611.61	54
611.945	54.01
612.281	54.14
612.616	54.22
612.951	54.39
613.286	54.53
613.621	54.65
613.956	54.66
614.291	54.82
614.626	54.91
614.961	55.06
615.296	55.1
615.631	55.09
615.966	55.17
616.3	55.2
616.635	55.36
616.97	55.46
617.304	55.47
617.639	55.55
617.973	55.59
618.308	55.71
618.642	55.88
618.977	55.84
619.311	55.82
619.646	55.89
619.98	55.9
620.314	56.1
620.648	56.33
620.983	56.43
621.317	56.43
621.651	56.55
621.985	56.56
622.319	56.62
622.653	56.75
622.987	56.81
623.321	56.94
623.655	57.02
623.988	57.02
624.322	57.21
624.656	57.23
624.99	57.21
625.323	57.17
625.657	57.18
625.99	57.36
626.324	57.37
626.657	57.27
626.991	57.31
627.324	57.23
627.658	57.19
627.991	57.26
628.324	57.35
628.657	57.33
628.991	57.39
629.324	57.49
629.657	57.5
629.99	57.54
630.323	57.56
630.656	57.46
630.989	57.44
631.322	57.36
631.655	57.44
631.987	57.6
632.32	57.64
632.653	57.62
632.986	57.7
633.318	57.82
633.651	57.92
633.984	58.06
634.316	58.13
634.649	58.2
634.981	58.2
635.313	58.18
635.646	58.18
635.978	58.27
636.31	58.34
636.643	58.38
636.975	58.4
637.307	58.5
637.639	58.71
637.971	58.72
638.303	58.79
638.635	58.84
638.967	58.9
639.299	59.02
639.631	59.15
639.963	59.2
640.295	59.16
640.626	59.36
640.958	59.42
641.29	59.35
641.621	59.35
641.953	59.33
642.285	59.5
642.616	59.48
642.948	59.51
643.279	59.36
643.61	59.36
643.942	59.3
644.273	59.3
644.604	59.18
644.936	59.44
645.267	59.49
645.598	59.52
645.929	59.48
646.26	59.54
646.591	59.41
646.922	59.26
647.253	59.31
647.584	59.25
647.915	59.15
648.245	59.43
648.576	59.29
648.907	59.33
649.238	59.31
649.568	59.46
649.899	59.36
650.229	59.58
650.56	59.6
650.89	59.73
651.221	59.76
651.551	59.73
651.882	59.7
652.212	59.71
652.542	59.9
652.872	59.9
653.203	59.76
653.533	59.83
653.863	60.04
654.193	60.15
654.523	60.09
654.853	60.25
655.183	60.01
655.513	60.09
655.843	60.09
656.172	60.03
656.502	60.06
656.832	60.15
657.162	60.07
657.491	60.05
657.821	60.07
658.15	59.97
658.48	59.98
658.809	59.89
659.139	59.91
659.468	59.83
659.798	59.96
660.127	60.01
660.456	60
660.785	59.99
661.115	60.01
661.444	60.12
661.773	60.09
662.102	60.23
662.431	60.45
662.76	60.56
663.089	60.48
663.418	60.38
663.747	60.47
664.076	60.33
664.404	60.47
664.733	60.43
665.062	60.64
665.39	60.86
665.719	61.01
666.048	61.02
666.376	61.07
666.705	61.04
667.033	61.02
667.362	61.13
667.69	61.25
668.018	61.23
668.347	61.26
668.675	61.3
669.003	61.23
669.331	61.18
669.659	61.21
669.987	61.31
670.315	61.46
670.643	61.6
670.971	61.84
671.299	61.9
671.627	61.96
671.955	61.92
672.283	61.79
672.61	61.8
672.938	61.72
673.266	61.75
673.593	61.61
673.921	61.67
674.249	61.63
674.576	61.48
674.904	61.49
675.231	61.49
675.558	61.54
675.886	61.55
676.213	61.44
676.54	61.33
676.867	61.35
677.195	61.31
677.522	61.26
677.849	61.23
678.176	61.2
678.503	61.13
678.83	61.13
679.157	61.15
679.484	61.08
679.81	61.21
680.137	61.1
680.464	61.23
680.791	61.3
681.117	61.44
681.444	61.38
681.771	61.41
682.097	61.49
682.424	61.37
682.75	61.41
683.077	61.61
683.403	61.66
683.729	61.75
684.056	61.84
684.382	61.69
684.708	61.69
685.034	61.55
685.36	61.51
685.686	61.46
686.012	61.54
686.339	61.45
686.664	61.44
686.99	61.45
687.316	61.46
687.642	61.43
687.968	61.23
688.294	61.33
688.619	61.25
688.945	61.23
689.271	61.28
689.596	61.32
689.922	61.28
690.247	61.35
690.573	61.28
690.898	61.27
691.224	61.35
691.549	61.52
691.874	61.5
692.2	61.7
692.525	61.63
692.85	61.56
693.175	61.62
693.5	61.34
693.825	61.41
694.15	61.3
694.475	61.43
694.8	61.61
695.125	61.6
695.45	61.48
695.775	61.47
696.099	61.39
696.424	61.32
696.749	61.28
697.073	61.29
697.398	61.15
697.723	61.14
698.047	61.21
698.372	61.1
698.696	61.13
699.02	61.23
699.345	61.3
699.669	61.33
699.993	61.41
700.318	61.61
700.642	61.65
700.966	61.69
701.29	61.6
701.614	61.57
701.938	61.74
702.262	62.03
702.586	61.99
702.91	62.19
703.234	62.34
703.557	62.36
703.881	62.4
704.205	62.58
704.529	62.51
704.852	62.42
705.176	62.45
705.499	62.49
705.823	62.48
706.146	62.44
706.47	62.49
706.793	62.6
707.117	62.7
707.44	62.56
707.763	62.61
708.086	62.6
708.409	62.61
708.733	62.59
709.056	62.47
709.379	62.35
709.702	62.25
710.025	62.06
710.348	61.91
710.671	61.89
710.993	61.87
711.316	62.03
711.639	61.99
711.962	62.15
712.284	62.37
712.607	62.32
712.93	62.5
713.252	62.44
713.575	62.34
713.897	62.19
714.22	62.21
714.542	62.32
714.864	62.43
715.187	62.42
715.509	62.16
715.831	62.17
716.153	62.3
716.475	62.26
716.798	62.46
717.12	62.63
717.442	62.78
717.764	62.8
718.085	62.97
718.407	63
718.729	62.88
719.051	62.86
719.373	62.72
719.695	62.67
720.016	62.49
720.338	62.54
720.659	62.83
720.981	62.83
721.302	62.85
721.624	62.83
721.945	62.75
722.267	63.15
722.588	63.19
722.909	63.17
723.231	63.46
723.552	63.45
723.873	63.09
724.194	62.73
724.515	62.78
724.836	62.45
725.157	62.25
725.478	62.08
725.799	61.93
726.12	62.12
726.441	61.86
726.762	61.9
727.083	61.88
727.403	61.62
727.724	61.81
728.045	61.86
728.365	61.55
728.686	61.38
729.006	60.9
729.327	60.88
729.647	60.79
729.967	60.52
730.288	60.41
730.608	60.57
730.928	60.56
731.249	60.51
731.569	60.59
731.889	60.7
732.209	60.88
732.529	60.81
732.849	60.82
733.169	60.99
733.489	61.14
733.809	61.23
734.129	61.41
734.448	61.53
734.768	61.27
735.088	61.55
735.408	61.91
735.727	62.35
736.047	62.38
736.366	62.4
736.686	62.35
737.005	62.42
737.325	62.42
737.644	62.53
737.963	62.54
738.283	62.45
738.602	62.49
738.921	62.51
739.24	62.86
739.56	63.09
739.879	63.24
740.198	63.3
740.517	63.43
740.836	63.37
741.155	62.99
741.473	63.09
741.792	63.14
742.111	62.69
742.43	62.36
742.748	62.31
743.067	62.15
743.386	62.39
743.704	62.31
744.023	62.59
744.341	62.53
744.66	62.45
744.978	62.9
745.297	63.03
745.615	62.79
745.933	62.63
746.252	62.04
746.57	62
746.888	62.41
747.206	62.25
747.524	62.08
747.842	62.46
748.16	62.44
748.478	62.23
748.796	62.92
749.114	63.13
749.432	63.2
749.749	63.74
750.067	63.6
750.385	64.07
750.703	64.29
751.02	64.43
751.338	64.54
751.655	63.98
751.973	64.36
752.29	64.53
752.608	64.53
752.925	64.86
753.242	64.68
753.56	64.02
753.877	63.89
754.194	64.08
754.511	63.71
754.828	64.11
755.145	64.25
755.462	63.74
755.779	63.87
756.096	63.59
756.413	62.89
756.73	63.1
757.047	62.71
757.364	62.32
757.68	62.54
757.997	62.4
758.314	62.65
758.63	62.28
758.947	61.96
759.264	61.7
759.58	61.43
759.896	61.45
760.213	61.36
760.529	61.35
760.846	61.27
761.162	61.28
761.478	61.36
761.794	61.09
762.11	61.25
762.426	61.13
762.743	61.42
763.059	61.74
763.375	61.7
763.69	61.45
764.006	61.19
764.322	61.02
764.638	61.29
764.954	61.59
765.27	61.46
765.585	61.83
765.901	62.06
766.216	62.27
766.532	62.21
766.848	62.37
767.163	62.24
767.478	62.27
767.794	62.48
768.109	62.03
768.424	62.36
768.74	62.64
769.055	62.62
769.37	62.46
769.685	62.07
770	62.33
770.315	62.66
770.63	63.04
770.945	63.13
771.26	63.09
771.575	62.39
771.89	62.72
772.205	62.48
772.52	62.54
772.834	62.51
773.149	62.57
773.464	62.56
773.778	62.73
774.093	62.48
774.407	62.16
774.722	62.5
775.036	62.28
775.351	62.39
775.665	62.64
775.979	62.25
776.293	62.97
776.608	62.32
776.922	62.42
777.236	62.64
777.55	62.79
777.864	62.5
778.178	63.07
778.492	62.95
778.806	62.9
779.12	63.13
779.434	62.97
779.747	63.6
780.061	63.64
780.375	64.34
780.689	64.9
781.002	65.35
781.316	65.04
781.629	65.07
781.943	64.42
782.256	64.14
782.57	65.01
782.883	65.09
783.196	65.85
783.51	66.52
783.823	66.47
784.136	66.78
784.449	67.71
784.762	67.1
785.075	67.1
785.388	67.57
785.701	67.17
786.014	67.26
786.327	66.92
786.64	67.09
786.953	66.78
787.266	66.75
787.578	67.02
787.891	66.72
788.204	66.8
788.516	67.13
788.829	67.35
789.141	67.19
789.454	66.71
789.766	66.32
790.079	65.37
790.391	64.89
790.703	64.22
791.016	63.73
791.328	64.19
791.64	63.93
791.952	63.94
792.264	63.95
792.576	65.08
792.888	65.16
793.2	65.16
793.512	65.26
793.824	65.38
794.136	64.96
794.448	66.03
794.76	66.34
795.071	65.91
795.383	65.85
795.695	65.48
796.006	65.78
796.318	66.36
796.629	66.39
796.941	67.33
797.252	67.45
797.564	67.59
797.875	67.44
798.186	67.99
798.497	67.18
798.809	66.52
799.12	65.61
799.431	65.3
799.742	65.54
800.053	64.56
800.364	64.02
800.675	64.34
800.986	63.94
801.297	64.13
801.608	64.38
801.918	64.05
802.229	64.14
802.54	63.89
802.851	62.79
803.161	62.61
803.472	61.88
803.782	61.86
804.093	61.79
804.403	61.23
804.714	61.29
805.024	61.93
805.334	62.71
805.645	63.5
805.955	63.72
806.265	63.35
806.575	64.53
806.885	64.82
807.195	64.48
807.505	64.82
807.815	64.64
808.125	64.18
808.435	65.18
808.745	65.39
809.055	66.3
809.365	67.01
809.674	67.8
809.984	68.13
810.294	68.99
810.603	68.12
810.913	68.2
811.222	68.16
811.532	67.92
811.841	67.29
812.151	65.93
812.46	65.81
812.769	65.41
813.079	64.55
813.388	64.26
813.697	63.73
814.006	63.78
814.315	63.52
814.624	64.09
814.933	63.59
815.242	63.78
815.551	63.58
815.86	63.25
816.169	63.67
816.478	64.13
816.786	64.03
817.095	64.65
817.404	65.36
817.712	65.62
818.021	65.06
818.33	64.74
818.638	64.47
818.947	64.82
819.255	64.75
819.563	64.54
819.872	64.07
820.18	63.72
820.488	62.96
820.796	62.52
821.105	62.19
821.413	62.05
821.721	61.66
822.029	61.49
822.337	61.5
822.645	61.34
822.953	60.97
823.26	60.73
823.568	60.54
823.876	60.53
824.184	60.42
824.491	60.3
824.799	60.21
825.107	60.34
825.414	60.26
825.722	60.4
826.029	60.33
826.337	60.47
826.644	60.61
826.951	60.75
827.259	60.83
827.566	60.94
827.873	61.03
828.18	61.25
828.488	61.3
828.795	61.54
829.102	61.69
829.409	61.74
829.716	62.28
830.023	62.91
830.329	62.88
830.636	62.92
830.943	63.29
831.25	63.88
831.557	63.78
831.863	63.49
832.17	62.77
832.476	62.97
832.783	63.26
833.089	63.41
833.396	63.43
833.702	63.24
834.009	62.87
834.315	62.15
834.621	61.97
834.928	61.69
835.234	60.84
835.54	60.66
835.846	61.18
836.152	60.4
836.458	59.88
836.764	59.83
837.07	60.03
837.376	60.01
837.682	59.95
837.988	59.29
838.293	59.34
838.599	59.33
838.905	59.45
839.211	59.08
839.516	58.8
839.822	58.69
840.127	59.15
840.433	59.97
840.738	60.66
841.044	61.97
841.349	63.35
841.654	64.35
841.959	64.56
842.265	64.38
842.57	65.1
842.875	66.67
843.18	65.8
843.485	65.35
843.79	65.67
844.095	65.13
844.4	67.2
844.705	67.47
845.01	68.52
845.315	69.24
845.619	69.35
845.924	69.49
846.229	70.25
846.533	71.39
846.838	71.77
847.142	71.88
847.447	70.43
847.751	69.95
848.056	68.81
848.36	70.89
848.664	71.5
848.969	70.6
849.273	69.05
849.577	72.95
849.881	75.7
850.185	78.03
850.489	78.14
850.794	78.54
851.097	79.41
851.401	80.15
851.705	78.44
852.009	76.83
852.313	74.9
852.617	72.84
852.92	76.28
853.224	76.49
853.528	76.82
853.831	79.35
854.135	78.8
854.438	80.89
854.742	76.19
855.045	75.06
855.349	76.74
855.652	78.16
855.955	77.83
856.259	76.94
856.562	77.09
856.865	76.88
857.168	76.3
857.471	75.3
857.774	75.11
858.077	74.61
858.38	77.38
858.683	81.67
858.986	83.88
859.289	77.47
859.592	75.33
859.894	77.38
860.197	74.2
860.5	74.13
860.802	73.75
861.105	77.65
861.407	76.9
861.71	76.36
862.012	75.87
862.315	73.99
862.617	74.06
862.919	71.49
863.222	73.5
863.524	72.11
863.826	73.24
864.128	74.08
864.43	75.59
864.732	74.45
865.034	75
865.336	75.81
865.638	75.7
865.94	76.28
866.242	73.22
866.544	75.9
866.846	76.72
867.147	77.76
867.449	75.16
867.751	78.83
868.052	81.92
868.354	82.14
868.655	85.25
868.957	83.6
869.258	83.15
869.56	82.29
869.861	82.26
870.162	79.07
870.463	80.13
870.765	78.27
871.066	78.81
871.367	75.78
871.668	73.56
871.969	74.22
872.27	75.55
872.571	79.38
872.872	74.79
873.173	72.85
873.473	68.22
873.774	70.85
874.075	69.09
874.376	65.03
874.676	63.56
874.977	61.2
875.277	60.46
875.578	62.95
875.878	62.91
876.179	63.2
876.479	65.41
876.78	63.91
877.08	65.19
877.38	64.4
877.68	64.69
877.981	65.57
878.281	67.32
878.581	66.71
