Data from BA17718_Reflection_00001.txt Node
Date: Tue Nov 19 11:47:25 EST 2019
User: vgr7
Spectrometer: USB2G7710
Scans to average: 3
Trigger mode: 4
Integration Time (sec): 2.000000E-2
Electric dark correction enabled: true
Boxcar width: 10
XAxis mode: Wavelengths
Number of Pixels in Spectrum: 2048
>>>>>Begin Spectral Data<<<<<
177.721	84.75
178.105	34.31
178.488	-5.41
178.871	-69.91
179.254	-117.5
179.636	-926.32
180.019	202.52
180.402	103.85
180.785	-131.82
181.168	-165.17
181.55	-88.69
181.933	-43.96
182.316	-34.25
182.698	-36.78
183.081	-15.02
183.463	4.35
183.846	3.08
184.228	-31.29
184.611	-90.11
184.993	-247.73
185.376	574.49
185.758	69.01
186.14	-593.75
186.522	-266.48
186.904	-553.57
187.287	453.77
187.669	-725
188.051	-138.64
188.433	199.4
188.815	-1158.93
189.197	-610.11
189.579	-236.68
189.961	-156.98
190.342	-78.43
190.724	-85.73
191.106	-66.78
191.488	-47.8
191.869	-31.27
192.251	-35.29
192.633	-56.16
193.014	-50.24
193.396	-110.14
193.777	-45.79
194.159	-16.16
194.54	-20.45
194.922	-29.31
195.303	-58.76
195.684	-74.39
196.065	-61.93
196.447	-44.95
196.828	-31.64
197.209	-27.74
197.59	-25.51
197.971	-24.3
198.352	-28.05
198.733	-27.99
199.114	-27.46
199.495	-33.53
199.876	-58.54
200.257	-69.4
200.638	-71.18
201.018	-78.28
201.399	-45.36
201.78	-47.27
202.16	-48.6
202.541	-55.04
202.922	-40.06
203.302	-31.22
203.683	-35.55
204.063	-39.43
204.444	-41.7
204.824	-57.18
205.204	-45.52
205.585	-36.28
205.965	-82.83
206.345	-64.37
206.725	-67.69
207.106	-56.14
207.486	-47.71
207.866	-18.77
208.246	26.32
208.626	-1.43
209.006	-16.6
209.386	-79.71
209.766	-148.08
210.145	-42.17
210.525	-62.68
210.905	-66.93
211.285	-52.37
211.664	-40.63
212.044	-56.57
212.424	-43.81
212.803	-45.23
213.183	-63.39
213.562	-75.71
213.942	11.13
214.321	-22.49
214.701	-54.99
215.08	-75.82
215.459	-42.76
215.838	-36.49
216.218	-78.2
216.597	-26.61
216.976	-32.11
217.355	-7.5
217.734	-29.74
218.113	-33.36
218.492	-7.92
218.871	-9.2
219.25	16.39
219.629	16.36
220.008	27.33
220.387	42.44
220.766	39.82
221.144	21.45
221.523	-0.47
221.902	0.69
222.28	19.23
222.659	49.45
223.037	46.33
223.416	47.74
223.794	52.33
224.173	63.06
224.551	41.25
224.929	31.82
225.308	19.11
225.686	15.64
226.064	8.03
226.442	7.72
226.821	7.77
227.199	3.53
227.577	2.73
227.955	6.29
228.333	-0.59
228.711	2.14
229.089	4.04
229.467	-3.48
229.845	-11.98
230.222	-10.08
230.6	-15.4
230.978	-13.94
231.356	-13.51
231.733	-16.52
232.111	-15.12
232.488	-10.91
232.866	-8.58
233.243	-4.4
233.621	-1.64
233.998	-0.52
234.376	-1.97
234.753	-1.29
235.13	-0.22
235.508	-0.66
235.885	-1
236.262	0.34
236.639	-0.33
237.016	2.03
237.393	6.27
237.77	9.57
238.147	7.21
238.524	7.45
238.901	6.96
239.278	6.15
239.655	6.51
240.032	6.1
240.409	6.02
240.785	7
241.162	6.63
241.539	6.66
241.915	6.76
242.292	7.05
242.668	7.22
243.045	7.01
243.421	7.26
243.798	7.11
244.174	7.77
244.551	8.03
244.927	7.52
245.303	7.16
245.679	6.9
246.056	6.96
246.432	7.06
246.808	7.16
247.184	7.19
247.56	7.24
247.936	7.37
248.312	7.24
248.688	7.11
249.064	7.06
249.44	6.82
249.815	6.99
250.191	6.92
250.567	6.73
250.943	6.63
251.318	6.54
251.694	6.81
252.069	6.38
252.445	6.02
252.82	6.02
253.196	6.2
253.571	6.44
253.947	6.86
254.322	6.56
254.697	6.37
255.073	6.58
255.448	6.57
255.823	6.68
256.198	6.85
256.573	6.72
256.948	6.63
257.323	6.75
257.698	6.76
258.073	6.67
258.448	6.79
258.823	6.64
259.198	6.56
259.573	6.26
259.948	6.43
260.322	6.34
260.697	6.43
261.072	6.38
261.446	6.28
261.821	6.11
262.195	6.04
262.57	6.27
262.944	6.3
263.319	6.27
263.693	6.1
264.067	6.04
264.442	6.02
264.816	6.11
265.19	6
265.564	5.97
265.938	6.11
266.313	5.74
266.687	5.61
267.061	5.87
267.435	6
267.809	5.6
268.183	5.83
268.556	5.68
268.93	5.75
269.304	5.74
269.678	5.88
270.051	6.03
270.425	5.84
270.799	5.67
271.172	5.68
271.546	5.92
271.919	5.8
272.293	5.91
272.666	5.93
273.04	5.9
273.413	5.85
273.787	5.63
274.16	5.68
274.533	5.93
274.906	5.75
275.279	5.56
275.653	5.9
276.026	5.76
276.399	5.69
276.772	5.77
277.145	5.92
277.518	5.61
277.891	5.81
278.263	5.96
278.636	6.09
279.009	6.07
279.382	5.82
279.755	5.98
280.127	5.96
280.5	5.9
280.872	5.97
281.245	5.84
281.617	6.01
281.99	6.06
282.362	5.98
282.735	5.93
283.107	6.14
283.479	5.99
283.852	6.12
284.224	6.38
284.596	6.26
284.968	6.11
285.34	6.2
285.713	6.06
286.085	5.78
286.457	5.69
286.829	5.75
287.201	5.89
287.572	5.89
287.944	5.87
288.316	5.96
288.688	6.05
289.06	6.25
289.431	6.34
289.803	6.42
290.175	6.51
290.546	6.4
290.918	6.53
291.289	6.61
291.661	6.7
292.032	6.55
292.403	6.47
292.775	6.64
293.146	6.75
293.517	6.74
293.889	6.86
294.26	7.07
294.631	7.22
295.002	7.06
295.373	7.09
295.744	7.09
296.115	6.97
296.486	6.93
296.857	6.9
297.228	6.84
297.599	6.88
297.97	6.71
298.34	7.04
298.711	7
299.082	6.93
299.452	6.9
299.823	6.83
300.194	6.85
300.564	6.66
300.935	6.69
301.305	6.7
301.676	6.75
302.046	6.77
302.416	6.55
302.787	6.85
303.157	6.82
303.527	6.89
303.897	6.96
304.267	6.81
304.637	6.65
305.008	6.67
305.378	6.74
305.748	6.94
306.117	6.71
306.487	6.75
306.857	6.78
307.227	6.86
307.597	7.01
307.967	7.15
308.336	7.13
308.706	7.19
309.076	7.16
309.445	7.07
309.815	7.01
310.184	7.09
310.554	6.79
310.923	6.66
311.293	6.7
311.662	6.75
312.031	6.74
312.401	6.8
312.77	6.85
313.139	6.89
313.508	6.73
313.877	6.73
314.246	6.67
314.616	6.76
314.985	6.52
315.353	6.47
315.722	6.49
316.091	6.57
316.46	6.54
316.829	6.65
317.198	6.65
317.567	6.56
317.935	6.63
318.304	6.87
318.672	7.1
319.041	7.05
319.41	7.08
319.778	7.26
320.147	7.35
320.515	7.28
320.883	7.1
321.252	7.27
321.62	7.28
321.988	7.24
322.357	7.14
322.725	7.18
323.093	7.04
323.461	6.86
323.829	6.96
324.197	6.85
324.565	6.8
324.933	6.87
325.301	6.8
325.669	6.64
326.037	6.54
326.405	6.47
326.772	6.5
327.14	6.39
327.508	6.41
327.875	6.44
328.243	6.29
328.61	6.29
328.978	6.3
329.346	6.26
329.713	6.34
330.08	6.51
330.448	6.66
330.815	6.87
331.182	6.93
331.55	6.84
331.917	6.8
332.284	6.89
332.651	6.88
333.018	6.98
333.385	6.97
333.752	7.06
334.119	6.99
334.486	6.74
334.853	6.74
335.22	6.7
335.587	6.68
335.954	6.85
336.32	6.82
336.687	6.86
337.054	6.93
337.42	6.74
337.787	6.63
338.153	6.69
338.52	6.65
338.886	6.6
339.253	6.5
339.619	6.47
339.986	6.31
340.352	6.41
340.718	6.41
341.084	6.44
341.451	6.35
341.817	6.55
342.183	6.83
342.549	6.9
342.915	6.86
343.281	6.79
343.647	6.92
344.013	6.89
344.379	6.66
344.745	6.7
345.11	6.83
345.476	6.78
345.842	6.53
346.208	6.59
346.573	6.81
346.939	6.89
347.304	6.98
347.67	6.92
348.035	6.8
348.401	6.8
348.766	6.74
349.132	6.8
349.497	6.77
349.862	6.7
350.228	6.63
350.593	6.71
350.958	6.86
351.323	6.69
351.688	6.82
352.053	6.94
352.418	6.87
352.783	6.89
353.148	6.94
353.513	7.05
353.878	6.98
354.243	6.87
354.608	6.88
354.972	6.86
355.337	6.85
355.702	6.86
356.066	6.8
356.431	6.94
356.795	6.93
357.16	6.84
357.524	6.85
357.889	6.84
358.253	6.8
358.618	6.75
358.982	6.74
359.346	6.68
359.71	6.73
360.075	6.76
360.439	6.76
360.803	6.78
361.167	6.77
361.531	6.83
361.895	6.8
362.259	6.84
362.623	6.89
362.987	6.92
363.351	6.96
363.714	6.98
364.078	6.91
364.442	6.89
364.806	6.87
365.169	6.82
365.533	6.85
365.896	6.86
366.26	6.79
366.623	6.8
366.987	6.82
367.35	6.85
367.714	6.81
368.077	6.69
368.44	6.73
368.803	6.66
369.167	6.51
369.53	6.5
369.893	6.46
370.256	6.41
370.619	6.46
370.982	6.44
371.345	6.45
371.708	6.56
372.071	6.53
372.434	6.54
372.797	6.56
373.159	6.59
373.522	6.62
373.885	6.64
374.247	6.59
374.61	6.59
374.973	6.57
375.335	6.6
375.698	6.63
376.06	6.62
376.423	6.68
376.785	6.78
377.147	6.83
377.51	6.84
377.872	6.85
378.234	6.88
378.596	6.92
378.958	6.88
379.321	6.79
379.683	6.78
380.045	6.79
380.407	6.8
380.769	6.85
381.13	6.76
381.492	6.75
381.854	6.76
382.216	6.78
382.578	6.81
382.939	6.82
383.301	6.77
383.663	6.81
384.024	6.82
384.386	6.85
384.747	6.79
385.109	6.75
385.47	6.73
385.832	6.68
386.193	6.64
386.554	6.66
386.916	6.68
387.277	6.72
387.638	6.69
387.999	6.68
388.36	6.6
388.721	6.7
389.082	6.71
389.443	6.77
389.804	6.79
390.165	6.74
390.526	6.73
390.887	6.73
391.248	6.66
391.609	6.67
391.969	6.58
392.33	6.59
392.691	6.61
393.051	6.6
393.412	6.62
393.772	6.62
394.133	6.62
394.493	6.63
394.854	6.61
395.214	6.6
395.574	6.61
395.935	6.59
396.295	6.54
396.655	6.53
397.015	6.49
397.376	6.45
397.736	6.48
398.096	6.44
398.456	6.46
398.816	6.48
399.176	6.4
399.535	6.45
399.895	6.46
400.255	6.49
400.615	6.51
400.975	6.48
401.334	6.46
401.694	6.49
402.054	6.45
402.413	6.47
402.773	6.52
403.132	6.49
403.492	6.52
403.851	6.55
404.211	6.52
404.57	6.55
404.929	6.56
405.288	6.49
405.648	6.53
406.007	6.54
406.366	6.51
406.725	6.55
407.084	6.55
407.443	6.56
407.802	6.5
408.161	6.51
408.52	6.53
408.879	6.56
409.238	6.52
409.596	6.54
409.955	6.53
410.314	6.52
410.673	6.53
411.031	6.51
411.39	6.47
411.748	6.53
412.107	6.49
412.465	6.47
412.824	6.52
413.182	6.52
413.54	6.53
413.899	6.53
414.257	6.53
414.615	6.52
414.974	6.5
415.332	6.53
415.69	6.52
416.048	6.51
416.406	6.52
416.764	6.51
417.122	6.5
417.48	6.51
417.838	6.5
418.195	6.48
418.553	6.51
418.911	6.51
419.269	6.48
419.626	6.48
419.984	6.46
420.342	6.44
420.699	6.44
421.057	6.42
421.414	6.44
421.772	6.45
422.129	6.44
422.486	6.45
422.844	6.45
423.201	6.45
423.558	6.45
423.915	6.43
424.273	6.41
424.63	6.4
424.987	6.41
425.344	6.4
425.701	6.42
426.058	6.41
426.415	6.4
426.772	6.4
427.128	6.39
427.485	6.41
427.842	6.4
428.199	6.41
428.555	6.42
428.912	6.4
429.269	6.35
429.625	6.35
429.982	6.36
430.338	6.34
430.695	6.33
431.051	6.33
431.407	6.34
431.764	6.35
432.12	6.34
432.476	6.33
432.832	6.36
433.189	6.32
433.545	6.33
433.901	6.33
434.257	6.36
434.613	6.36
434.969	6.37
435.325	6.37
435.681	6.37
436.036	6.37
436.392	6.38
436.748	6.38
437.104	6.4
437.459	6.37
437.815	6.37
438.171	6.36
438.526	6.35
438.882	6.35
439.237	6.35
439.593	6.37
439.948	6.37
440.304	6.34
440.659	6.35
441.014	6.34
441.369	6.34
441.725	6.35
442.08	6.36
442.435	6.37
442.79	6.37
443.145	6.37
443.5	6.38
443.855	6.36
444.21	6.38
444.565	6.37
444.92	6.38
445.275	6.4
445.629	6.42
445.984	6.41
446.339	6.41
446.693	6.42
447.048	6.39
447.403	6.38
447.757	6.38
448.112	6.38
448.466	6.38
448.82	6.35
449.175	6.35
449.529	6.32
449.883	6.31
450.238	6.31
450.592	6.3
450.946	6.29
451.3	6.29
451.654	6.27
452.008	6.28
452.362	6.24
452.716	6.21
453.07	6.2
453.424	6.2
453.778	6.21
454.132	6.19
454.486	6.21
454.839	6.23
455.193	6.23
455.547	6.24
455.9	6.22
456.254	6.22
456.607	6.24
456.961	6.25
457.314	6.24
457.668	6.25
458.021	6.23
458.375	6.23
458.728	6.23
459.081	6.23
459.434	6.22
459.787	6.24
460.141	6.27
460.494	6.29
460.847	6.28
461.2	6.27
461.553	6.27
461.906	6.28
462.259	6.26
462.611	6.26
462.964	6.26
463.317	6.28
463.67	6.3
464.022	6.27
464.375	6.28
464.728	6.3
465.08	6.3
465.433	6.31
465.785	6.31
466.138	6.36
466.49	6.39
466.843	6.39
467.195	6.4
467.547	6.39
467.899	6.36
468.252	6.39
468.604	6.4
468.956	6.4
469.308	6.4
469.66	6.42
470.012	6.44
470.364	6.47
470.716	6.45
471.068	6.47
471.42	6.46
471.772	6.48
472.123	6.48
472.475	6.48
472.827	6.5
473.178	6.49
473.53	6.46
473.882	6.44
474.233	6.43
474.585	6.44
474.936	6.46
475.288	6.47
475.639	6.47
475.99	6.48
476.342	6.5
476.693	6.51
477.044	6.51
477.395	6.47
477.746	6.47
478.097	6.48
478.448	6.48
478.8	6.49
479.15	6.48
479.501	6.48
479.852	6.49
480.203	6.49
480.554	6.49
480.905	6.49
481.255	6.5
481.606	6.53
481.957	6.53
482.307	6.52
482.658	6.52
483.009	6.53
483.359	6.53
483.709	6.53
484.06	6.53
484.41	6.53
484.761	6.53
485.111	6.53
485.461	6.53
485.811	6.53
486.162	6.54
486.512	6.56
486.862	6.56
487.212	6.56
487.562	6.56
487.912	6.57
488.262	6.58
488.612	6.59
488.961	6.58
489.311	6.58
489.661	6.59
490.011	6.59
490.36	6.59
490.71	6.59
491.06	6.6
491.409	6.61
491.759	6.62
492.108	6.64
492.458	6.63
492.807	6.63
493.157	6.65
493.506	6.65
493.855	6.65
494.204	6.64
494.554	6.63
494.903	6.63
495.252	6.65
495.601	6.66
495.95	6.65
496.299	6.66
496.648	6.68
496.997	6.67
497.346	6.71
497.695	6.7
498.043	6.71
498.392	6.72
498.741	6.74
499.09	6.76
499.438	6.77
499.787	6.78
500.135	6.81
500.484	6.81
500.832	6.81
501.181	6.82
501.529	6.86
501.878	6.92
502.226	6.92
502.574	6.9
502.923	6.9
503.271	6.92
503.619	6.93
503.967	6.93
504.315	6.96
504.663	6.94
505.011	6.97
505.359	6.96
505.707	6.95
506.055	6.96
506.403	6.97
506.751	6.98
507.098	6.99
507.446	7
507.794	6.99
508.141	6.99
508.489	7
508.837	6.99
509.184	6.98
509.531	6.96
509.879	6.97
510.226	6.96
510.574	6.97
510.921	6.96
511.268	6.97
511.616	6.98
511.963	6.98
512.31	7
512.657	7
513.004	7.01
513.351	6.99
513.698	7
514.045	6.97
514.392	6.99
514.739	7.01
515.086	7.02
515.432	7.04
515.779	7.06
516.126	7.09
516.473	7.12
516.819	7.15
517.166	7.17
517.512	7.18
517.859	7.18
518.205	7.18
518.552	7.21
518.898	7.22
519.245	7.24
519.591	7.24
519.937	7.26
520.283	7.27
520.629	7.3
520.976	7.28
521.322	7.31
521.668	7.31
522.014	7.29
522.36	7.3
522.706	7.29
523.052	7.3
523.398	7.28
523.743	7.27
524.089	7.3
524.435	7.32
524.781	7.34
525.126	7.36
525.472	7.38
525.817	7.35
526.163	7.34
526.509	7.36
526.854	7.38
527.199	7.39
527.545	7.39
527.89	7.4
528.235	7.42
528.581	7.43
528.926	7.43
529.271	7.45
529.616	7.45
529.961	7.48
530.306	7.48
530.651	7.49
530.996	7.5
531.341	7.5
531.686	7.49
532.031	7.5
532.376	7.5
532.721	7.5
533.065	7.53
533.41	7.55
533.755	7.54
534.099	7.53
534.444	7.53
534.788	7.53
535.133	7.53
535.477	7.54
535.822	7.52
536.166	7.52
536.51	7.5
536.855	7.51
537.199	7.48
537.543	7.47
537.887	7.48
538.231	7.48
538.576	7.46
538.92	7.49
539.264	7.48
539.608	7.49
539.951	7.5
540.295	7.49
540.639	7.49
540.983	7.49
541.327	7.5
541.671	7.5
542.014	7.52
542.358	7.52
542.701	7.51
543.045	7.51
543.389	7.53
543.732	7.55
544.075	7.56
544.419	7.58
544.762	7.6
545.105	7.6
545.449	7.61
545.792	7.65
546.135	7.64
546.478	7.65
546.821	7.64
547.165	7.64
547.508	7.67
547.851	7.67
548.194	7.65
548.536	7.62
548.879	7.62
549.222	7.63
549.565	7.65
549.908	7.64
550.25	7.64
550.593	7.67
550.936	7.68
551.278	7.67
551.621	7.66
551.963	7.66
552.306	7.67
552.648	7.66
552.991	7.64
553.333	7.62
553.675	7.64
554.017	7.64
554.36	7.64
554.702	7.62
555.044	7.63
555.386	7.65
555.728	7.7
556.07	7.69
556.412	7.68
556.754	7.67
557.096	7.68
557.438	7.7
557.78	7.69
558.121	7.71
558.463	7.72
558.805	7.76
559.147	7.75
559.488	7.73
559.83	7.74
560.171	7.76
560.513	7.81
560.854	7.82
561.196	7.84
561.537	7.87
561.878	7.88
562.22	7.88
562.561	7.91
562.902	7.89
563.243	7.91
563.584	7.9
563.925	7.92
564.266	7.95
564.607	7.96
564.948	7.98
565.289	7.98
565.63	7.95
565.971	7.94
566.312	7.88
566.653	7.89
566.993	7.9
567.334	7.88
567.675	7.87
568.015	7.88
568.356	7.84
568.696	7.88
569.037	7.87
569.377	7.93
569.718	7.94
570.058	7.94
570.398	7.95
570.739	7.97
571.079	7.95
571.419	7.93
571.759	7.92
572.099	7.89
572.439	7.91
572.779	7.93
573.119	7.92
573.459	7.96
573.799	7.96
574.139	7.95
574.479	7.97
574.819	7.96
575.158	7.96
575.498	7.99
575.838	7.96
576.177	7.98
576.517	7.93
576.856	7.94
577.196	7.95
577.535	7.94
577.875	7.91
578.214	7.92
578.553	7.94
578.893	7.93
579.232	7.98
579.571	7.97
579.91	7.98
580.25	8
580.589	8.01
580.928	8.01
581.267	8
581.606	8.04
581.945	8.06
582.283	8.05
582.622	8.03
582.961	8.05
583.3	7.99
583.639	8.01
583.977	7.98
584.316	8.01
584.654	8.04
584.993	8.08
585.332	8.09
585.67	8.11
586.008	8.12
586.347	8.09
586.685	8.05
587.024	8.04
587.362	8.04
587.7	8.08
588.038	8.16
588.376	8.22
588.715	8.18
589.053	8.2
589.391	8.22
589.729	8.25
590.067	8.22
590.404	8.29
590.742	8.32
591.08	8.37
591.418	8.32
591.756	8.3
592.093	8.28
592.431	8.33
592.769	8.3
593.106	8.3
593.444	8.28
593.781	8.31
594.119	8.33
594.456	8.34
594.793	8.34
595.131	8.28
595.468	8.24
595.805	8.23
596.143	8.23
596.48	8.23
596.817	8.22
597.154	8.25
597.491	8.22
597.828	8.22
598.165	8.17
598.502	8.19
598.839	8.2
599.176	8.22
599.512	8.18
599.849	8.18
600.186	8.2
600.523	8.27
600.859	8.26
601.196	8.27
601.532	8.25
601.869	8.27
602.205	8.26
602.542	8.28
602.878	8.32
603.215	8.33
603.551	8.33
603.887	8.34
604.223	8.31
604.56	8.3
604.896	8.33
605.232	8.38
605.568	8.38
605.904	8.39
606.24	8.41
606.576	8.42
606.912	8.42
607.248	8.42
607.583	8.37
607.919	8.39
608.255	8.37
608.591	8.39
608.926	8.36
609.262	8.37
609.597	8.39
609.933	8.39
610.268	8.39
610.604	8.38
610.939	8.38
611.275	8.45
611.61	8.47
611.945	8.38
612.281	8.36
612.616	8.34
612.951	8.36
613.286	8.3
613.621	8.3
613.956	8.36
614.291	8.38
614.626	8.44
614.961	8.46
615.296	8.47
615.631	8.49
615.966	8.51
616.3	8.54
616.635	8.54
616.97	8.56
617.304	8.53
617.639	8.53
617.973	8.54
618.308	8.55
618.642	8.52
618.977	8.62
619.311	8.63
619.646	8.68
619.98	8.63
620.314	8.64
620.648	8.66
620.983	8.66
621.317	8.68
621.651	8.67
621.985	8.64
622.319	8.66
622.653	8.67
622.987	8.69
623.321	8.68
623.655	8.65
623.988	8.6
624.322	8.66
624.656	8.69
624.99	8.75
625.323	8.68
625.657	8.74
625.99	8.74
626.324	8.73
626.657	8.76
626.991	8.82
627.324	8.84
627.658	8.82
627.991	8.85
628.324	8.8
628.657	8.8
628.991	8.83
629.324	8.83
629.657	8.83
629.99	8.83
630.323	8.85
630.656	8.9
630.989	8.94
631.322	8.96
631.655	8.96
631.987	8.88
632.32	8.93
632.653	8.87
632.986	8.86
633.318	8.93
633.651	8.95
633.984	8.98
634.316	9.03
634.649	9.07
634.981	9.07
635.313	9.07
635.646	9.06
635.978	9.03
636.31	9.07
636.643	9.04
636.975	9.02
637.307	9.01
637.639	8.99
637.971	8.97
638.303	8.96
638.635	8.94
638.967	9.01
639.299	9.03
639.631	9.04
639.963	8.97
640.295	8.89
640.626	8.85
640.958	8.77
641.29	8.77
641.621	8.68
641.953	8.62
642.285	8.71
642.616	8.74
642.948	8.73
643.279	8.72
643.61	8.75
643.942	8.78
644.273	8.84
644.604	8.82
644.936	8.83
645.267	8.82
645.598	8.85
645.929	8.76
646.26	8.72
646.591	8.78
646.922	8.87
647.253	8.88
647.584	8.86
647.915	8.85
648.245	8.84
648.576	8.83
648.907	8.78
649.238	8.75
649.568	8.75
649.899	8.78
650.229	8.84
650.56	8.83
650.89	8.82
651.221	8.82
651.551	8.86
651.882	8.95
652.212	8.92
652.542	8.95
652.872	9.05
653.203	9.06
653.533	8.98
653.863	9
654.193	8.9
654.523	8.87
654.853	8.95
655.183	9.02
655.513	9.13
655.843	9.22
656.172	9.17
656.502	9.13
656.832	9.11
657.162	9.04
657.491	9.07
657.821	9.12
658.15	9.12
658.48	9.16
658.809	9.14
659.139	9.16
659.468	9.16
659.798	9.18
660.127	9.21
660.456	9.23
660.785	9.23
661.115	9.33
661.444	9.44
661.773	9.42
662.102	9.38
662.431	9.33
662.76	9.3
663.089	9.39
663.418	9.43
663.747	9.43
664.076	9.42
664.404	9.37
664.733	9.44
665.062	9.4
665.39	9.3
665.719	9.34
666.048	9.3
666.376	9.35
666.705	9.25
667.033	9.34
667.362	9.38
667.69	9.36
668.018	9.41
668.347	9.36
668.675	9.43
669.003	9.41
669.331	9.53
669.659	9.57
669.987	9.61
670.315	9.71
670.643	9.74
670.971	9.81
671.299	9.82
671.627	9.7
671.955	9.75
672.283	9.85
672.61	9.78
672.938	9.87
673.266	9.76
673.593	9.82
673.921	9.64
674.249	9.65
674.576	9.69
674.904	9.73
675.231	9.73
675.558	9.74
675.886	9.77
676.213	9.64
676.54	9.57
676.867	9.52
677.195	9.52
677.522	9.61
677.849	9.54
678.176	9.63
678.503	9.65
678.83	9.68
679.157	9.71
679.484	9.64
679.81	9.58
680.137	9.64
680.464	9.67
680.791	9.81
681.117	9.88
681.444	9.87
681.771	9.82
682.097	9.89
682.424	9.85
682.75	9.9
683.077	9.88
683.403	9.89
683.729	9.9
684.056	9.86
684.382	9.82
684.708	9.93
685.034	9.94
685.36	9.98
685.686	9.91
686.012	9.97
686.339	9.95
686.664	9.95
686.99	9.82
687.316	9.76
687.642	9.7
687.968	9.69
688.294	9.68
688.619	9.69
688.945	9.54
689.271	9.58
689.596	9.47
689.922	9.61
690.247	9.63
690.573	9.71
690.898	9.65
691.224	9.64
691.549	9.57
691.874	9.58
692.2	9.56
692.525	9.67
692.85	9.52
693.175	9.66
693.5	9.69
693.825	9.81
694.15	9.73
694.475	9.75
694.8	9.73
695.125	9.75
695.45	9.75
695.775	9.88
696.099	9.84
696.424	9.96
696.749	9.94
697.073	9.96
697.398	9.92
697.723	10.06
698.047	10.12
698.372	10.2
698.696	10.1
699.02	10.12
699.345	10.14
699.669	10.18
699.993	10.2
700.318	10.28
700.642	10.32
700.966	10.45
701.29	10.49
701.614	10.51
701.938	10.56
702.262	10.6
702.586	10.58
702.91	10.59
703.234	10.48
703.557	10.6
703.881	10.65
704.205	10.66
704.529	10.58
704.852	10.51
705.176	10.58
705.499	10.63
705.823	10.71
706.146	10.62
706.47	10.72
706.793	10.67
707.117	10.66
707.44	10.55
707.763	10.56
708.086	10.54
708.409	10.44
708.733	10.47
709.056	10.41
709.379	10.57
709.702	10.52
710.025	10.73
710.348	10.65
710.671	10.82
710.993	10.8
711.316	10.88
711.639	10.96
711.962	10.86
712.284	10.86
712.607	10.82
712.93	10.78
713.252	10.76
713.575	10.78
713.897	10.9
714.22	10.98
714.542	11.09
714.864	11.16
715.187	11.14
715.509	10.95
715.831	10.96
716.153	10.87
716.475	10.99
716.798	10.87
717.12	10.99
717.442	10.85
717.764	10.93
718.085	10.81
718.407	10.75
718.729	10.89
719.051	10.88
719.373	10.94
719.695	11.16
720.016	11.1
720.338	11.37
720.659	11.23
720.981	11.35
721.302	11.42
721.624	11.42
721.945	11.64
722.267	11.87
722.588	12
722.909	11.96
723.231	11.98
723.552	12.01
723.873	11.98
724.194	11.77
724.515	11.79
724.836	11.74
725.157	11.82
725.478	11.69
725.799	11.9
726.12	11.83
726.441	11.72
726.762	11.81
727.083	11.56
727.403	11.47
727.724	11.65
728.045	11.34
728.365	11.24
728.686	11.28
729.006	11.31
729.327	11.26
729.647	11.36
729.967	11.54
730.288	11.5
730.608	11.44
730.928	11.73
731.249	11.64
731.569	11.87
731.889	11.69
732.209	11.62
732.529	11.45
732.849	11.49
733.169	11.49
733.489	11.46
733.809	11.27
734.129	11.56
734.448	11.49
734.768	11.52
735.088	11.68
735.408	11.59
735.727	11.6
736.047	11.71
736.366	11.58
736.686	11.34
737.005	11.5
737.325	11.58
737.644	11.49
737.963	11.59
738.283	11.4
738.602	11.54
738.921	11.56
739.24	11.77
739.56	12.03
739.879	12.07
740.198	11.99
740.517	12.11
740.836	11.91
741.155	11.69
741.473	11.92
741.792	11.96
742.111	12.04
742.43	12.21
742.748	12.24
743.067	12.37
743.386	12.41
743.704	12.38
744.023	12.38
744.341	12.61
744.66	12.51
744.978	12.5
745.297	12.63
745.615	12.84
745.933	12.72
746.252	12.42
746.57	12.49
746.888	12.89
747.206	13.28
747.524	13.36
747.842	13.28
748.16	13.34
748.478	13.21
748.796	13.34
749.114	12.96
749.432	12.82
749.749	12.79
750.067	12.79
750.385	12.88
750.703	12.97
751.02	12.74
751.338	12.67
751.655	12.77
751.973	12.88
752.29	12.7
752.608	12.62
752.925	12.69
753.242	12.68
753.56	12.26
753.877	12.16
754.194	12.47
754.511	12.43
754.828	12.27
755.145	12.23
755.462	12.28
755.779	12.65
756.096	12.72
756.413	12.74
756.73	12.9
757.047	12.76
757.364	12.59
757.68	12.61
757.997	12.59
758.314	12.66
758.63	12.97
758.947	13.23
759.264	13.43
759.58	13.45
759.896	13.25
760.213	13.42
760.529	13.37
760.846	13.26
761.162	13.58
761.478	13.72
761.794	13.88
762.11	13.84
762.426	13.78
762.743	13.99
763.059	14.04
763.375	13.94
763.69	14.01
764.006	14
764.322	14.06
764.638	14.39
764.954	14.51
765.27	14.08
765.585	13.99
765.901	13.96
766.216	13.99
766.532	13.97
766.848	14.01
767.163	13.8
767.478	13.83
767.794	13.87
768.109	14.05
768.424	13.93
768.74	13.99
769.055	14.03
769.37	13.54
769.685	13.51
770	13.92
770.315	13.9
770.63	14.06
770.945	14.15
771.26	13.86
771.575	13.8
771.89	13.82
772.205	13.75
772.52	13.72
772.834	14.09
773.149	14.4
773.464	14.38
773.778	14.5
774.093	13.96
774.407	14.1
774.722	13.89
775.036	14.08
775.351	14.21
775.665	14.17
775.979	14.7
776.293	14.69
776.608	14.12
776.922	13.86
777.236	13.67
777.55	13.63
777.864	13.87
778.178	13.56
778.492	13.63
778.806	14.28
779.12	14.42
779.434	14.29
779.747	14.02
780.061	14.03
780.375	14.48
780.689	14.6
781.002	14.27
781.316	14.2
781.629	14.13
781.943	13.89
782.256	14.12
782.57	14.02
782.883	14.22
783.196	14.58
783.51	14.79
783.823	15.15
784.136	15.03
784.449	14.91
784.762	15.73
785.075	16.26
785.388	15.61
785.701	15.31
786.014	14.94
786.327	15.42
786.64	15.46
786.953	15.34
787.266	15.61
787.578	15.48
787.891	15.54
788.204	15.43
788.516	15.68
788.829	15.43
789.141	15.66
789.454	15.55
789.766	15.85
790.079	15.9
790.391	15.93
790.703	15.91
791.016	16.09
791.328	15.51
791.64	15.11
791.952	15.74
792.264	16
792.576	16.35
792.888	16.24
793.2	16.39
793.512	16.36
793.824	16.68
794.136	17
794.448	17.43
794.76	17.38
795.071	17.73
795.383	18.23
795.695	17.65
796.006	17.82
796.318	17.05
796.629	17.12
796.941	17.24
797.252	17.14
797.564	17.28
797.875	17.54
798.186	17.57
798.497	17.23
798.809	17.24
799.12	16.84
799.431	16.76
799.742	16.49
800.053	16.43
800.364	16.46
800.675	16.41
800.986	15.95
801.297	16.08
801.608	15.57
801.918	15.38
802.229	16.37
802.54	16.9
802.851	17.15
803.161	16.91
803.472	17.15
803.782	17.56
804.093	16.99
804.403	16.85
804.714	16.95
805.024	16.8
805.334	16.91
805.645	17.38
805.955	17.57
806.265	17.8
806.575	17.55
806.885	17.95
807.195	18.17
807.505	18.07
807.815	18.05
808.125	18.11
808.435	17.19
808.745	16.49
809.055	15.75
809.365	16.63
809.674	16.43
809.984	16.15
810.294	16.37
810.603	16.62
810.913	16.73
811.222	16.59
811.532	16.66
811.841	16.76
812.151	16.26
812.46	16.47
812.769	16.07
813.079	16.96
813.388	16.19
813.697	16.28
814.006	16.34
814.315	17.05
814.624	16.93
814.933	17.5
815.242	17.4
815.551	17.1
815.86	17.19
816.169	17.07
816.478	15.86
816.786	15.4
817.095	15.01
817.404	14.85
817.712	15.44
818.021	15.71
818.33	14.99
818.638	16
818.947	15.6
819.255	15.68
819.563	15.53
819.872	15.26
820.18	15.21
820.488	15.29
820.796	15.21
821.105	15.41
821.413	15.52
821.721	15.7
822.029	15.87
822.337	15.95
822.645	16.09
822.953	16.38
823.26	16.44
823.568	16.57
823.876	16.59
824.184	16.51
824.491	16.39
824.799	16.49
825.107	16.43
825.414	16.55
825.722	16.67
826.029	16.55
826.337	16.87
826.644	17.1
826.951	17.16
827.259	17.21
827.566	17.07
827.873	17.32
828.18	17.4
828.488	17.58
828.795	17.53
829.102	17.86
829.409	17.79
829.716	17.86
830.023	18.11
830.329	18.18
830.636	18.54
830.943	18.79
831.25	19.02
831.557	18.59
831.863	18.79
832.17	18.36
832.476	18.62
832.783	18.39
833.089	18.02
833.396	18.17
833.702	17.91
834.009	18.34
834.315	18.11
834.621	17.9
834.928	17.39
835.234	16.81
835.54	16.66
835.846	16.85
836.152	16.48
836.458	16.06
836.764	16.31
837.07	15.8
837.376	16.02
837.682	15.8
837.988	15.94
838.293	15.71
838.599	16.35
838.905	16.51
839.211	16.68
839.516	16.67
839.822	17.19
840.127	17.55
840.433	17.37
840.738	17.37
841.044	16.78
841.349	17.94
841.654	17.91
841.959	17.98
842.265	18.27
842.57	19.12
842.875	18.98
843.18	18.83
843.485	19.33
843.79	18.56
844.095	19.39
844.4	20.13
844.705	20.12
845.01	20.33
845.315	20.26
845.619	20.04
845.924	21.05
846.229	20.05
846.533	21.37
846.838	21.49
847.142	19.36
847.447	21.53
847.751	19.02
848.056	20.68
848.36	22.66
848.664	22.1
848.969	21.61
849.273	22.54
849.577	21.54
849.881	20.2
850.185	21.67
850.489	20.82
850.794	20.54
851.097	19.86
851.401	18.33
851.705	17.15
852.009	17.1
852.313	13.32
852.617	14.07
852.92	13.75
853.224	13.68
853.528	16.61
853.831	17.52
854.135	18.98
854.438	17.36
854.742	14.91
855.045	14.58
855.349	14.64
855.652	14.8
855.955	14.95
856.259	18.24
856.562	16.95
856.865	16.89
857.168	17.18
857.471	18.5
857.774	19.87
858.077	20.86
858.38	22.9
858.683	25.12
858.986	24.39
859.289	21.58
859.592	22.9
859.894	24.01
860.197	21.81
860.5	21.72
860.802	20.91
861.105	21.36
861.407	20.72
861.71	22.86
862.012	21.77
862.315	21.47
862.617	18.21
862.919	18.79
863.222	22.71
863.524	19.61
863.826	18.73
864.128	19.13
864.43	20.23
864.732	19.67
865.034	20.25
865.336	19.67
865.638	22.62
865.94	21.82
866.242	19.89
866.544	21.17
866.846	21.78
867.147	26.89
867.449	26.94
867.751	25.96
868.052	23.39
868.354	23.5
868.655	26.89
868.957	27.21
869.258	26.28
869.56	25.44
869.861	27.64
870.162	26.13
870.463	25.91
870.765	24.84
871.066	22.1
871.367	20.95
871.668	22.26
871.969	21.14
872.27	18.57
872.571	18.2
872.872	18.6
873.173	19.29
873.473	14.94
873.774	15.23
874.075	16.37
874.376	17.68
874.676	19.22
874.977	17.77
875.277	17.99
875.578	18.75
875.878	16.46
876.179	16.47
876.479	17.94
876.78	18.06
877.08	17.67
877.38	19.33
877.68	21
877.981	19.47
878.281	19.85
878.581	22.58
