Data from BA17724_Reflection_00014.txt Node
Date: Tue Nov 19 11:58:12 EST 2019
User: vgr7
Spectrometer: USB2G7710
Scans to average: 3
Trigger mode: 4
Integration Time (sec): 2.000000E-2
Electric dark correction enabled: true
Boxcar width: 10
XAxis mode: Wavelengths
Number of Pixels in Spectrum: 2048
>>>>>Begin Spectral Data<<<<<
177.721	3.99
178.105	-89.02
178.488	-67.55
178.871	-11.36
179.254	50
179.636	906.45
180.019	66.46
180.402	69.7
180.785	50
181.168	45.19
181.55	92.19
181.933	70.05
182.316	82.7
182.698	82.33
183.081	97.24
183.463	27.57
183.846	115.34
184.228	84.25
184.611	-1900
184.993	-700
185.376	515.25
185.758	-4150
186.14	-134.62
186.522	-265.67
186.904	-962.5
187.287	-210.28
187.669	-158.93
188.051	-128.19
188.433	-75.22
188.815	-73.3
189.197	-70.52
189.579	-56.91
189.961	-43.36
190.342	-56.95
190.724	-28.32
191.106	-19.86
191.488	-19.4
191.869	-89.12
192.251	-89.66
192.633	-71.98
193.014	-58.23
193.396	-4.36
193.777	-35.36
194.159	-22.99
194.54	-36.03
194.922	106.76
195.303	650
195.684	317.39
196.065	-217.07
196.447	-49.35
196.828	-400
197.209	770.73
197.59	844.68
197.971	-696.05
198.352	-461.98
198.733	-377.72
199.114	-391.12
199.495	-246.94
199.876	-148.36
200.257	-226.45
200.638	-1426.32
201.018	-172.47
201.399	-2087.5
201.78	-212.5
202.16	-220
202.541	-210.92
202.922	-216.21
203.302	-155.49
203.683	-91.55
204.063	-46.07
204.444	-73.66
204.824	-100
205.204	-189.06
205.585	-667.86
205.965	38.68
206.345	53.74
206.725	14.04
207.106	25.55
207.486	36.36
207.866	45.54
208.246	59.97
208.626	49.35
209.006	50.28
209.386	21.53
209.766	36.61
210.145	29.53
210.525	30.34
210.905	45.31
211.285	56.61
211.664	79.29
212.044	70.7
212.424	70.11
212.803	70.62
213.183	54.14
213.562	55.61
213.942	84.17
214.321	64.74
214.701	60.06
215.08	58.47
215.459	66.31
215.838	44.04
216.218	21.58
216.597	27.07
216.976	16.85
217.355	20.39
217.734	-12.96
218.113	-0.24
218.492	-39.07
218.871	-60.26
219.25	-53.58
219.629	-86.39
220.008	-88.44
220.387	-89.02
220.766	-36.8
221.144	-19.82
221.523	-22.87
221.902	-25
222.28	8.43
222.659	36.65
223.037	38.85
223.416	18.72
223.794	21.62
224.173	31.78
224.551	29.43
224.929	28.11
225.308	34.1
225.686	36.27
226.064	33.77
226.442	38.68
226.821	33.68
227.199	27.48
227.577	27.62
227.955	19.63
228.333	15.52
228.711	15.07
229.089	14.46
229.467	7.59
229.845	6.06
230.222	3.93
230.6	-6.19
230.978	-2.31
231.356	1.61
231.733	0.78
232.111	-3.29
232.488	-3.25
232.866	-3.43
233.243	-3.34
233.621	0.27
233.998	-2.24
234.376	-2.72
234.753	-0.75
235.13	-0.52
235.508	-0.66
235.885	-0.56
236.262	0.78
236.639	1.25
237.016	-0.3
237.393	2.65
237.77	2.96
238.147	2.88
238.524	4.62
238.901	4.19
239.278	3.5
239.655	4.72
240.032	5.48
240.409	5.63
240.785	5.25
241.162	5.54
241.539	4.64
241.915	5.38
242.292	5.43
242.668	5.81
243.045	6.27
243.421	6.1
243.798	5.98
244.174	5.91
244.551	5.5
244.927	5.4
245.303	4.87
245.679	4.82
246.056	4.93
246.432	4.86
246.808	4.72
247.184	4.8
247.56	4.61
247.936	4.49
248.312	4.68
248.688	4.78
249.064	4.71
249.44	4.52
249.815	4.42
250.191	4.74
250.567	4.63
250.943	4.42
251.318	4.29
251.694	4.06
252.069	4.26
252.445	4.5
252.82	4.99
253.196	5.19
253.571	5
253.947	5.08
254.322	5.09
254.697	4.97
255.073	4.71
255.448	4.52
255.823	4.51
256.198	4.21
256.573	4.18
256.948	4.06
257.323	4.1
257.698	4.07
258.073	3.79
258.448	3.82
258.823	3.81
259.198	3.89
259.573	4.01
259.948	3.99
260.322	4
260.697	4.12
261.072	4.05
261.446	4.11
261.821	3.96
262.195	3.97
262.57	3.97
262.944	4.06
263.319	4.09
263.693	4.25
264.067	4.29
264.442	4.36
264.816	4.31
265.19	4.33
265.564	4.09
265.938	3.78
266.313	3.72
266.687	3.62
267.061	3.75
267.435	3.87
267.809	3.75
268.183	3.49
268.556	3.19
268.93	3.4
269.304	3.39
269.678	3.54
270.051	3.54
270.425	3.72
270.799	3.61
271.172	3.63
271.546	3.62
271.919	3.64
272.293	3.58
272.666	3.82
273.04	3.82
273.413	3.94
273.787	4.11
274.16	3.9
274.533	3.99
274.906	4.02
275.279	4.26
275.653	4.17
276.026	4.38
276.399	4.34
276.772	4.1
277.145	4.2
277.518	3.99
277.891	4.11
278.263	4.13
278.636	4.26
279.009	4.26
279.382	4.2
279.755	4.18
280.127	4.21
280.5	4.04
280.872	4.28
281.245	4.35
281.617	4.48
281.99	4.64
282.362	4.62
282.735	4.42
283.107	4.09
283.479	4.22
283.852	4.24
284.224	4.29
284.596	4.34
284.968	4.24
285.34	4.31
285.713	4.26
286.085	4.19
286.457	4.04
286.829	4.09
287.201	4.14
287.572	4.2
287.944	4.2
288.316	4.16
288.688	4.01
289.06	3.94
289.431	3.93
289.803	4.06
290.175	3.99
290.546	4.14
290.918	4.28
291.289	4.18
291.661	4.22
292.032	4.12
292.403	4.17
292.775	4.33
293.146	4.46
293.517	4.32
293.889	4.24
294.26	4.44
294.631	4.33
295.002	4.28
295.373	4.29
295.744	4.41
296.115	4.5
296.486	4.52
296.857	4.52
297.228	4.39
297.599	4.2
297.97	4.29
298.34	4.2
298.711	4.18
299.082	4.17
299.452	4.22
299.823	4.28
300.194	4.28
300.564	4.12
300.935	4.08
301.305	4.31
301.676	4.27
302.046	4.31
302.416	4.33
302.787	4.33
303.157	4.38
303.527	4.46
303.897	4.56
304.267	4.52
304.637	4.6
305.008	4.75
305.378	4.88
305.748	4.95
306.117	4.82
306.487	4.8
306.857	4.9
307.227	4.78
307.597	4.67
307.967	4.82
308.336	4.88
308.706	4.83
309.076	4.75
309.445	4.89
309.815	4.85
310.184	4.93
310.554	4.95
310.923	4.84
311.293	4.77
311.662	4.74
312.031	4.83
312.401	4.79
312.77	4.74
313.139	4.7
313.508	4.71
313.877	4.89
314.246	4.92
314.616	5.06
314.985	5.02
315.353	5.26
315.722	5.38
316.091	5.48
316.46	5.58
316.829	5.65
317.198	5.72
317.567	5.71
317.935	5.76
318.304	5.93
318.672	6.12
319.041	6.37
319.41	6.38
319.778	6.47
320.147	6.59
320.515	6.79
320.883	6.8
321.252	6.9
321.62	7.01
321.988	7.12
322.357	6.87
322.725	7
323.093	6.88
323.461	6.63
323.829	6.59
324.197	6.47
324.565	6.33
324.933	6.24
325.301	6.2
325.669	6.18
326.037	6.19
326.405	5.99
326.772	5.74
327.14	5.82
327.508	5.74
327.875	5.73
328.243	5.7
328.61	5.74
328.978	5.56
329.346	5.43
329.713	5.49
330.08	5.65
330.448	5.63
330.815	5.75
331.182	5.81
331.55	5.83
331.917	6
332.284	6.28
332.651	6.29
333.018	6.33
333.385	6.43
333.752	6.32
334.119	6.51
334.486	6.62
334.853	6.64
335.22	6.69
335.587	6.62
335.954	6.56
336.32	6.56
336.687	6.65
337.054	6.68
337.42	6.64
337.787	6.58
338.153	6.64
338.52	6.65
338.886	6.71
339.253	6.7
339.619	6.63
339.986	6.51
340.352	6.57
340.718	6.64
341.084	6.63
341.451	6.67
341.817	6.71
342.183	6.66
342.549	6.76
342.915	6.83
343.281	6.95
343.647	7.02
344.013	7.07
344.379	7.03
344.745	7
345.11	6.93
345.476	7.03
345.842	6.92
346.208	7.11
346.573	7.15
346.939	7.24
347.304	7.39
347.67	7.44
348.035	7.41
348.401	7.38
348.766	7.31
349.132	7.43
349.497	7.41
349.862	7.4
350.228	7.32
350.593	7.24
350.958	7.32
351.323	7.26
351.688	7.27
352.053	7.27
352.418	7.38
352.783	7.47
353.148	7.5
353.513	7.6
353.878	7.38
354.243	7.33
354.608	7.37
354.972	7.19
355.337	7.2
355.702	7.19
356.066	7.18
356.431	7.13
356.795	7.11
357.16	7.1
357.524	7.11
357.889	7.1
358.253	7.12
358.618	7.04
358.982	7.07
359.346	7.05
359.71	7.02
360.075	7.02
360.439	6.94
360.803	6.92
361.167	6.94
361.531	6.93
361.895	6.85
362.259	6.86
362.623	6.97
362.987	6.86
363.351	6.89
363.714	6.97
364.078	7.01
364.442	6.93
364.806	6.92
365.169	6.83
365.533	6.78
365.896	6.79
366.26	6.76
366.623	6.74
366.987	6.79
367.35	6.93
367.714	6.89
368.077	6.94
368.44	6.82
368.803	6.77
369.167	6.77
369.53	6.78
369.893	6.73
370.256	6.56
370.619	6.61
370.982	6.49
371.345	6.42
371.708	6.36
372.071	6.26
372.434	6.25
372.797	6.3
373.159	6.23
373.522	6.17
373.885	6.14
374.247	6.18
374.61	6.07
374.973	5.99
375.335	5.96
375.698	5.92
376.06	5.97
376.423	5.95
376.785	6.01
377.147	5.97
377.51	5.87
377.872	5.96
378.234	5.9
378.596	5.89
378.958	5.85
379.321	5.85
379.683	5.92
380.045	5.86
380.407	5.85
380.769	5.86
381.13	5.8
381.492	5.81
381.854	5.74
382.216	5.74
382.578	5.71
382.939	5.65
383.301	5.65
383.663	5.58
384.024	5.53
384.386	5.53
384.747	5.51
385.109	5.53
385.47	5.44
385.832	5.43
386.193	5.45
386.554	5.42
386.916	5.39
387.277	5.38
387.638	5.34
387.999	5.31
388.36	5.29
388.721	5.29
389.082	5.23
389.443	5.26
389.804	5.22
390.165	5.23
390.526	5.21
390.887	5.17
391.248	5.13
391.609	5.14
391.969	5.08
392.33	5.07
392.691	5.06
393.051	5.02
393.412	5.02
393.772	5.01
394.133	5.01
394.493	5.01
394.854	4.97
395.214	4.97
395.574	4.89
395.935	4.84
396.295	4.82
396.655	4.81
397.015	4.72
397.376	4.68
397.736	4.61
398.096	4.6
398.456	4.57
398.816	4.57
399.176	4.49
399.535	4.44
399.895	4.42
400.255	4.41
400.615	4.43
400.975	4.42
401.334	4.39
401.694	4.37
402.054	4.38
402.413	4.4
402.773	4.39
403.132	4.41
403.492	4.41
403.851	4.42
404.211	4.42
404.57	4.41
404.929	4.43
405.288	4.46
405.648	4.42
406.007	4.39
406.366	4.35
406.725	4.37
407.084	4.37
407.443	4.37
407.802	4.31
408.161	4.31
408.52	4.28
408.879	4.29
409.238	4.26
409.596	4.2
409.955	4.15
410.314	4.15
410.673	4.14
411.031	4.12
411.39	4.11
411.748	4.09
412.107	4.06
412.465	4.01
412.824	3.92
413.182	3.94
413.54	3.97
413.899	3.96
414.257	3.91
414.615	3.87
414.974	3.83
415.332	3.86
415.69	3.86
416.048	3.86
416.406	3.83
416.764	3.82
417.122	3.8
417.48	3.78
417.838	3.77
418.195	3.76
418.553	3.74
418.911	3.71
419.269	3.7
419.626	3.7
419.984	3.7
420.342	3.72
420.699	3.67
421.057	3.65
421.414	3.66
421.772	3.66
422.129	3.65
422.486	3.65
422.844	3.62
423.201	3.59
423.558	3.59
423.915	3.58
424.273	3.56
424.63	3.58
424.987	3.6
425.344	3.58
425.701	3.57
426.058	3.57
426.415	3.56
426.772	3.53
427.128	3.54
427.485	3.55
427.842	3.53
428.199	3.55
428.555	3.54
428.912	3.52
429.269	3.51
429.625	3.53
429.982	3.52
430.338	3.52
430.695	3.51
431.051	3.49
431.407	3.46
431.764	3.47
432.12	3.47
432.476	3.46
432.832	3.45
433.189	3.45
433.545	3.46
433.901	3.47
434.257	3.48
434.613	3.45
434.969	3.44
435.325	3.45
435.681	3.43
436.036	3.44
436.392	3.44
436.748	3.45
437.104	3.43
437.459	3.41
437.815	3.42
438.171	3.44
438.526	3.45
438.882	3.47
439.237	3.47
439.593	3.46
439.948	3.45
440.304	3.46
440.659	3.44
441.014	3.44
441.369	3.44
441.725	3.42
442.08	3.43
442.435	3.43
442.79	3.41
443.145	3.42
443.5	3.4
443.855	3.41
444.21	3.4
444.565	3.4
444.92	3.42
445.275	3.39
445.629	3.38
445.984	3.36
446.339	3.35
446.693	3.33
447.048	3.3
447.403	3.3
447.757	3.28
448.112	3.31
448.466	3.31
448.82	3.31
449.175	3.31
449.529	3.32
449.883	3.31
450.238	3.32
450.592	3.32
450.946	3.33
451.3	3.34
451.654	3.32
452.008	3.32
452.362	3.3
452.716	3.32
453.07	3.31
453.424	3.3
453.778	3.3
454.132	3.31
454.486	3.33
454.839	3.34
455.193	3.34
455.547	3.32
455.9	3.33
456.254	3.32
456.607	3.32
456.961	3.31
457.314	3.32
457.668	3.33
458.021	3.33
458.375	3.3
458.728	3.3
459.081	3.32
459.434	3.33
459.787	3.36
460.141	3.35
460.494	3.36
460.847	3.37
461.2	3.37
461.553	3.37
461.906	3.38
462.259	3.37
462.611	3.38
462.964	3.38
463.317	3.36
463.67	3.39
464.022	3.4
464.375	3.39
464.728	3.39
465.08	3.4
465.433	3.4
465.785	3.43
466.138	3.42
466.49	3.42
466.843	3.44
467.195	3.46
467.547	3.48
467.899	3.49
468.252	3.51
468.604	3.54
468.956	3.58
469.308	3.58
469.66	3.59
470.012	3.6
470.364	3.62
470.716	3.65
471.068	3.61
471.42	3.61
471.772	3.65
472.123	3.67
472.475	3.68
472.827	3.7
473.178	3.7
473.53	3.7
473.882	3.69
474.233	3.68
474.585	3.65
474.936	3.66
475.288	3.64
475.639	3.65
475.99	3.64
476.342	3.6
476.693	3.6
477.044	3.62
477.395	3.61
477.746	3.58
478.097	3.58
478.448	3.57
478.8	3.55
479.15	3.52
479.501	3.51
479.852	3.48
480.203	3.46
480.554	3.45
480.905	3.46
481.255	3.46
481.606	3.46
481.957	3.47
482.307	3.46
482.658	3.47
483.009	3.46
483.359	3.45
483.709	3.45
484.06	3.45
484.41	3.46
484.761	3.46
485.111	3.46
485.461	3.46
485.811	3.47
486.162	3.48
486.512	3.49
486.862	3.5
487.212	3.51
487.562	3.51
487.912	3.52
488.262	3.52
488.612	3.53
488.961	3.54
489.311	3.54
489.661	3.55
490.011	3.55
490.36	3.55
490.71	3.57
491.06	3.57
491.409	3.58
491.759	3.59
492.108	3.61
492.458	3.63
492.807	3.63
493.157	3.63
493.506	3.64
493.855	3.66
494.204	3.67
494.554	3.68
494.903	3.7
495.252	3.71
495.601	3.74
495.95	3.76
496.299	3.79
496.648	3.82
496.997	3.86
497.346	3.9
497.695	3.93
498.043	3.98
498.392	4.02
498.741	4.05
499.09	4.09
499.438	4.1
499.787	4.13
500.135	4.17
500.484	4.23
500.832	4.27
501.181	4.31
501.529	4.35
501.878	4.37
502.226	4.44
502.574	4.5
502.923	4.55
503.271	4.58
503.619	4.63
503.967	4.65
504.315	4.68
504.663	4.72
505.011	4.78
505.359	4.8
505.707	4.84
506.055	4.87
506.403	4.91
506.751	4.96
507.098	5.02
507.446	5.07
507.794	5.1
508.141	5.15
508.489	5.2
508.837	5.22
509.184	5.29
509.531	5.33
509.879	5.37
510.226	5.42
510.574	5.45
510.921	5.5
511.268	5.56
511.616	5.63
511.963	5.7
512.31	5.74
512.657	5.81
513.004	5.86
513.351	5.93
513.698	6
514.045	6.08
514.392	6.15
514.739	6.24
515.086	6.33
515.432	6.42
515.779	6.48
516.126	6.61
516.473	6.67
516.819	6.73
517.166	6.8
517.512	6.87
517.859	6.95
518.205	7.02
518.552	7.09
518.898	7.15
519.245	7.2
519.591	7.27
519.937	7.34
520.283	7.41
520.629	7.51
520.976	7.59
521.322	7.66
521.668	7.75
522.014	7.81
522.36	7.89
522.706	7.98
523.052	8.09
523.398	8.19
523.743	8.31
524.089	8.43
524.435	8.53
524.781	8.64
525.126	8.72
525.472	8.84
525.817	8.93
526.163	9.02
526.509	9.11
526.854	9.2
527.199	9.28
527.545	9.37
527.89	9.44
528.235	9.54
528.581	9.63
528.926	9.7
529.271	9.81
529.616	9.92
529.961	10.03
530.306	10.13
530.651	10.24
530.996	10.37
531.341	10.51
531.686	10.65
532.031	10.79
532.376	10.96
532.721	11.09
533.065	11.24
533.41	11.41
533.755	11.61
534.099	11.78
534.444	11.97
534.788	12.15
535.133	12.34
535.477	12.55
535.822	12.76
536.166	13
536.51	13.22
536.855	13.45
537.199	13.69
537.543	13.96
537.887	14.22
538.231	14.5
538.576	14.75
538.92	14.99
539.264	15.24
539.608	15.45
539.951	15.68
540.295	15.92
540.639	16.14
540.983	16.36
541.327	16.58
541.671	16.78
542.014	17.03
542.358	17.24
542.701	17.45
543.045	17.67
543.389	17.93
543.732	18.18
544.075	18.44
544.419	18.69
544.762	18.96
545.105	19.26
545.449	19.54
545.792	19.87
546.135	20.26
546.478	20.66
546.821	21.11
547.165	21.55
547.508	21.95
547.851	22.38
548.194	22.77
548.536	23.19
548.879	23.65
549.222	24.09
549.565	24.54
549.908	24.95
550.25	25.41
550.593	25.81
550.936	26.29
551.278	26.74
551.621	27.23
551.963	27.7
552.306	28.11
552.648	28.52
552.991	28.92
553.333	29.3
553.675	29.69
554.017	30.02
554.36	30.44
554.702	30.83
555.044	31.27
555.386	31.66
555.728	32.13
556.07	32.46
556.412	32.87
556.754	33.23
557.096	33.71
557.438	34.09
557.78	34.47
558.121	34.77
558.463	35.19
558.805	35.57
559.147	35.93
559.488	36.36
559.83	36.76
560.171	37.14
560.513	37.49
560.854	37.77
561.196	38.18
561.537	38.45
561.878	38.72
562.22	38.99
562.561	39.33
562.902	39.58
563.243	39.89
563.584	40.13
563.925	40.5
564.266	40.78
564.607	41.06
564.948	41.35
565.289	41.66
565.63	41.88
565.971	42.12
566.312	42.3
566.653	42.49
566.993	42.7
567.334	42.94
567.675	43.18
568.015	43.43
568.356	43.57
568.696	43.78
569.037	44.04
569.377	44.21
569.718	44.44
570.058	44.62
570.398	44.88
570.739	45.08
571.079	45.24
571.419	45.43
571.759	45.62
572.099	45.84
572.439	46.07
572.779	46.27
573.119	46.44
573.459	46.69
573.799	46.9
574.139	47.15
574.479	47.38
574.819	47.61
575.158	47.94
575.498	48.31
575.838	48.61
576.177	48.96
576.517	49.33
576.856	49.6
577.196	49.99
577.535	50.32
577.875	50.72
578.214	50.98
578.553	51.35
578.893	51.73
579.232	52.14
579.571	52.5
579.91	52.86
580.25	53.21
580.589	53.69
580.928	54.01
581.267	54.29
581.606	54.6
581.945	54.92
582.283	55.1
582.622	55.31
582.961	55.54
583.3	55.76
583.639	55.96
583.977	56.15
584.316	56.21
584.654	56.38
584.993	56.5
585.332	56.7
585.67	56.8
586.008	56.91
586.347	56.91
586.685	57.04
587.024	57.19
587.362	57.38
587.7	57.43
588.038	57.48
588.376	57.59
588.715	57.73
589.053	57.8
589.391	57.9
589.729	57.89
590.067	57.98
590.404	57.92
590.742	57.92
591.08	57.98
591.418	58.1
591.756	58.13
592.093	58.19
592.431	58.26
592.769	58.27
593.106	58.28
593.444	58.33
593.781	58.36
594.119	58.35
594.456	58.29
594.793	58.27
595.131	58.36
595.468	58.53
595.805	58.5
596.143	58.55
596.48	58.6
596.817	58.72
597.154	58.77
597.491	58.94
597.828	59.11
598.165	59.19
598.502	59.31
598.839	59.44
599.176	59.46
599.512	59.48
599.849	59.46
600.186	59.48
600.523	59.53
600.859	59.5
601.196	59.57
601.532	59.66
601.869	59.65
602.205	59.68
602.542	59.58
602.878	59.61
603.215	59.61
603.551	59.63
603.887	59.62
604.223	59.63
604.56	59.62
604.896	59.56
605.232	59.58
605.568	59.53
605.904	59.6
606.24	59.64
606.576	59.69
606.912	59.9
607.248	60.07
607.583	60.11
607.919	60.27
608.255	60.42
608.591	60.55
608.926	60.76
609.262	60.91
609.597	61.09
609.933	61.2
610.268	61.38
610.604	61.55
610.939	61.76
611.275	61.96
611.61	62.12
611.945	62.34
612.281	62.54
612.616	62.83
612.951	62.99
613.286	63.2
613.621	63.48
613.956	63.6
614.291	63.76
614.626	64.12
614.961	64.34
615.296	64.49
615.631	64.65
615.966	64.79
616.3	65.01
616.635	65.14
616.97	65.27
617.304	65.32
617.639	65.33
617.973	65.43
618.308	65.44
618.642	65.46
618.977	65.51
619.311	65.61
619.646	65.67
619.98	65.65
620.314	65.76
620.648	65.77
620.983	65.84
621.317	65.91
621.651	65.76
621.985	65.65
622.319	65.53
622.653	65.4
622.987	65.23
623.321	65.07
623.655	64.88
623.988	64.68
624.322	64.59
624.656	64.59
624.99	64.45
625.323	64.37
625.657	64.35
625.99	64.33
626.324	64.19
626.657	64.1
626.991	64.12
627.324	64.07
627.658	64.08
627.991	64.21
628.324	64.21
628.657	64.3
628.991	64.38
629.324	64.49
629.657	64.67
629.99	64.78
630.323	64.87
630.656	64.97
630.989	65.12
631.322	65.27
631.655	65.39
631.987	65.47
632.32	65.62
632.653	65.75
632.986	65.78
633.318	65.95
633.651	65.98
633.984	66.01
634.316	66.11
634.649	66.13
634.981	66.06
635.313	66.08
635.646	66.3
635.978	66.39
636.31	66.52
636.643	66.54
636.975	66.62
637.307	66.72
637.639	66.92
637.971	67.11
638.303	67.12
638.635	67.16
638.967	67.28
639.299	67.44
639.631	67.51
639.963	67.61
640.295	67.65
640.626	67.72
640.958	67.87
641.29	67.94
641.621	68.13
641.953	68.15
642.285	68.25
642.616	68.1
642.948	68.08
643.279	67.98
643.61	68.05
643.942	68.14
644.273	68.05
644.604	68.07
644.936	68.1
645.267	68.34
645.598	68.29
645.929	68.16
646.26	68
646.591	67.98
646.922	68.03
647.253	67.93
647.584	67.87
647.915	67.75
648.245	67.6
648.576	67.49
648.907	67.45
649.238	67.42
649.568	67.47
649.899	67.45
650.229	67.59
650.56	67.45
650.89	67.46
651.221	67.66
651.551	67.53
651.882	67.47
652.212	67.23
652.542	67.24
652.872	67.25
653.203	67.37
653.533	67.34
653.863	67.21
654.193	67.27
654.523	67.19
654.853	67.12
655.183	66.97
655.513	66.77
655.843	66.55
656.172	66.33
656.502	66.15
656.832	66.18
657.162	65.89
657.491	65.73
657.821	65.59
658.15	65.3
658.48	65.3
658.809	65.37
659.139	65.38
659.468	65.33
659.798	65.55
660.127	65.55
660.456	65.46
660.785	65.5
661.115	65.63
661.444	65.77
661.773	65.87
662.102	66.04
662.431	66.27
662.76	66.67
663.089	66.83
663.418	67.17
663.747	67.24
664.076	67.54
664.404	67.64
664.733	67.76
665.062	68.08
665.39	68.17
665.719	68.08
666.048	68.16
666.376	68.26
666.705	68.01
667.033	67.83
667.362	67.86
667.69	67.84
668.018	67.76
668.347	67.69
668.675	67.73
669.003	67.76
669.331	67.72
669.659	67.55
669.987	67.61
670.315	67.5
670.643	67.44
670.971	67.34
671.299	67.61
671.627	67.55
671.955	67.32
672.283	67.36
672.61	67.43
672.938	67.48
673.266	67.37
673.593	67.42
673.921	67.49
674.249	67.53
674.576	67.58
674.904	67.52
675.231	67.55
675.558	67.5
675.886	67.33
676.213	67.19
676.54	67
676.867	66.79
677.195	66.59
677.522	66.34
677.849	66.24
678.176	65.95
678.503	65.84
678.83	65.91
679.157	65.78
679.484	65.71
679.81	65.43
680.137	65.41
680.464	65.43
680.791	65.29
681.117	65.2
681.444	64.99
681.771	64.82
682.097	64.69
682.424	64.65
682.75	64.65
683.077	64.75
683.403	64.68
683.729	64.67
684.056	64.62
684.382	64.76
684.708	64.74
685.034	64.87
685.36	64.72
685.686	64.78
686.012	64.55
686.339	64.56
686.664	64.55
686.99	64.35
687.316	64.49
687.642	64.5
687.968	64.6
688.294	64.72
688.619	64.79
688.945	64.78
689.271	64.62
689.596	64.75
689.922	64.58
690.247	64.79
690.573	64.92
690.898	65.05
691.224	65.04
691.549	65.17
691.874	65.3
692.2	65.55
692.525	65.44
692.85	65.56
693.175	65.35
693.5	65.46
693.825	65.67
694.15	65.38
694.475	65.26
694.8	65.06
695.125	64.84
695.45	64.58
695.775	64.45
696.099	64.25
696.424	63.88
696.749	63.87
697.073	63.59
697.398	63.28
697.723	63.09
698.047	62.98
698.372	62.79
698.696	62.46
699.02	62.39
699.345	62.44
699.669	62.55
699.993	62.64
700.318	62.64
700.642	62.71
700.966	62.79
701.29	62.94
701.614	63.09
701.938	63.3
702.262	63.36
702.586	63.36
702.91	63.64
703.234	63.91
703.557	64.15
703.881	64.5
704.205	64.86
704.529	64.98
704.852	65.11
705.176	65.28
705.499	65.68
705.823	65.84
706.146	65.85
706.47	65.77
706.793	65.81
707.117	65.88
707.44	65.67
707.763	65.73
708.086	65.47
708.409	65.34
708.733	65.29
709.056	65.39
709.379	65.71
709.702	65.65
710.025	65.52
710.348	65.31
710.671	65.22
710.993	64.99
711.316	65.16
711.639	65.19
711.962	65.17
712.284	64.95
712.607	64.83
712.93	64.54
713.252	64.42
713.575	64.22
713.897	63.97
714.22	63.8
714.542	63.66
714.864	63.53
715.187	63.54
715.509	63.32
715.831	63.35
716.153	63.09
716.475	63.22
716.798	63.33
717.12	63.41
717.442	63.4
717.764	63.66
718.085	63.42
718.407	63.24
718.729	63.25
719.051	63.09
719.373	63.11
719.695	63.38
720.016	63.15
720.338	63.32
720.659	63.48
720.981	63.53
721.302	63.36
721.624	63.91
721.945	63.51
722.267	63.84
722.588	63.96
722.909	64.03
723.231	63.89
723.552	63.73
723.873	63.32
724.194	63.34
724.515	63.39
724.836	63.33
725.157	63.2
725.478	63.17
725.799	63.1
726.12	63.08
726.441	62.91
726.762	63.35
727.083	63.49
727.403	63.53
727.724	63.61
728.045	63.68
728.365	63.64
728.686	63.89
729.006	63.78
729.327	63.39
729.647	63.39
729.967	63.33
730.288	63.25
730.608	63.33
730.928	63.19
731.249	63
731.569	62.87
731.889	63.1
732.209	63.22
732.529	63.49
732.849	63.4
733.169	63.3
733.489	63.32
733.809	62.9
734.129	62.85
734.448	62.79
734.768	62.76
735.088	62.6
735.408	62.59
735.727	62.58
736.047	62.87
736.366	62.59
736.686	62.47
737.005	62.85
737.325	62.94
737.644	63.09
737.963	63.15
738.283	63.33
738.602	63.16
738.921	62.98
739.24	63.1
739.56	63.3
739.879	63.4
740.198	63.42
740.517	63.72
740.836	63.77
741.155	63.88
741.473	63.84
741.792	63.6
742.111	63.45
742.43	63.68
742.748	63.64
743.067	64.07
743.386	64.37
743.704	63.97
744.023	64.33
744.341	64.28
744.66	64.17
744.978	64.32
745.297	64.21
745.615	64.22
745.933	63.93
746.252	63.83
746.57	64.3
746.888	64.13
747.206	64.03
747.524	64.21
747.842	64.34
748.16	64.64
748.478	64.31
748.796	64.35
749.114	64.11
749.432	64.41
749.749	64.34
750.067	64.37
750.385	64.44
750.703	64.48
751.02	64.51
751.338	64.4
751.655	64.33
751.973	64.39
752.29	64.62
752.608	64.68
752.925	64.56
753.242	64.09
753.56	64.05
753.877	63.79
754.194	63.53
754.511	63.56
754.828	63.28
755.145	63.99
755.462	63.94
755.779	63.62
756.096	63.17
756.413	62.71
756.73	62.06
757.047	62.37
757.364	61.92
757.68	61.58
757.997	61.43
758.314	61.07
758.63	60.92
758.947	60.58
759.264	60.33
759.58	59.97
759.896	59.31
760.213	58.85
760.529	59.11
760.846	58.58
761.162	58.07
761.478	57.93
761.794	57.32
762.11	57.2
762.426	57.25
762.743	56.97
763.059	56.85
763.375	57.09
763.69	57.07
764.006	56.93
764.322	56.86
764.638	57.04
764.954	57.06
765.27	57.21
765.585	57.14
765.901	57.17
766.216	57.52
766.532	57.77
766.848	57.93
767.163	58.03
767.478	58.57
767.794	59.11
768.109	59.49
768.424	60.01
768.74	60.48
769.055	60.93
769.37	61.22
769.685	61.98
770	62.06
770.315	62.18
770.63	62.72
770.945	63.71
771.26	63.53
771.575	64.01
771.89	64.57
772.205	64.86
772.52	65.21
772.834	65.4
773.149	66.07
773.464	66.53
773.778	66.53
774.093	66.69
774.407	66.65
774.722	66.7
775.036	66.66
775.351	66.83
775.665	66.28
775.979	66.35
776.293	66.26
776.608	66.74
776.922	66.06
777.236	66.01
777.55	65.79
777.864	66.04
778.178	65.94
778.492	65.81
778.806	65.74
779.12	65.76
779.434	65.67
779.747	65.31
780.061	65.1
780.375	64.74
780.689	64.39
781.002	64.72
781.316	64.5
781.629	65.49
781.943	65.31
782.256	65.7
782.57	65.5
782.883	65.49
783.196	65.01
783.51	65.62
783.823	65.3
784.136	64.49
784.449	64.57
784.762	64.86
785.075	64.41
785.388	64.35
785.701	64.41
786.014	63.88
786.327	63.95
786.64	64.28
786.953	64.58
787.266	64.8
787.578	64.08
787.891	63.95
788.204	63.58
788.516	62.72
788.829	62.64
789.141	62.47
789.454	61.62
789.766	62.05
790.079	61.57
790.391	61.67
790.703	61.88
791.016	61.61
791.328	60.95
791.64	60.81
791.952	61.28
792.264	60.99
792.576	61.54
792.888	61
793.2	60.48
793.512	60.73
793.824	60.06
794.136	60.1
794.448	59.97
794.76	59.09
795.071	60.18
795.383	59.66
795.695	60.39
796.006	61.31
796.318	61.22
796.629	61.45
796.941	61.74
797.252	62.11
797.564	62.25
797.875	62.41
798.186	62.42
798.497	61.95
798.809	62.21
799.12	62.26
799.431	63.61
799.742	64.26
800.053	63.97
800.364	64.56
800.675	64.85
800.986	65.51
801.297	65.99
801.608	64.81
801.918	65.43
802.229	65.6
802.54	64.88
802.851	64.19
803.161	64.43
803.472	64.25
803.782	63.8
804.093	64.65
804.403	64.67
804.714	63.88
805.024	63.63
805.334	63.06
805.645	62.21
805.955	61.17
806.265	60.79
806.575	60.72
806.885	60.44
807.195	60.68
807.505	59.91
807.815	59.62
808.125	60.97
808.435	60.16
808.745	59.41
809.055	60.49
809.365	60.4
809.674	60.13
809.984	59.52
810.294	59.32
810.603	59.31
810.913	60.41
811.222	61.46
811.532	61.13
811.841	61.34
812.151	61.59
812.46	61.35
812.769	60.95
813.079	60.33
813.388	60.37
813.697	59.49
814.006	59.92
814.315	59
814.624	58.66
814.933	59.36
815.242	59.86
815.551	59.24
815.86	59.66
816.169	59.68
816.478	59.84
816.786	60.19
817.095	58.45
817.404	57.3
817.712	58.04
818.021	58.13
818.33	57.46
818.638	56.98
818.947	56.51
819.255	55.99
819.563	56.51
819.872	56.22
820.18	55.9
820.488	55.62
820.796	56.32
821.105	56.01
821.413	55.81
821.721	55.47
822.029	55.15
822.337	55.15
822.645	55.16
822.953	55.15
823.26	55.07
823.568	55.14
823.876	55.17
824.184	54.94
824.491	54.84
824.799	54.98
825.107	55
825.414	55
825.722	55.14
826.029	54.89
826.337	55.09
826.644	55.46
826.951	55.49
827.259	54.83
827.566	54.95
827.873	54.97
828.18	55.47
828.488	55.59
828.795	55.32
829.102	55.21
829.409	55.3
829.716	55.21
830.023	55.35
830.329	55.6
830.636	55.39
830.943	55.58
831.25	55.67
831.557	55.76
831.863	55.8
832.17	55.98
832.476	56.53
832.783	56.02
833.089	55.11
833.396	55.45
833.702	55.97
834.009	55.8
834.315	56.02
834.621	55.01
834.928	55.14
835.234	55.83
835.54	56.02
835.846	55.92
836.152	55.8
836.458	55.9
836.764	55.53
837.07	55.57
837.376	55.42
837.682	55.25
837.988	55.05
838.293	55.49
838.599	55.08
838.905	54.1
839.211	54.15
839.516	54.65
839.822	54.89
840.127	55.07
840.433	55.17
840.738	56.15
841.044	57.56
841.349	58.45
841.654	58.13
841.959	57.48
842.265	57.14
842.57	57.65
842.875	57.56
843.18	58.98
843.485	59.48
843.79	59.68
844.095	59.78
844.4	60.67
844.705	59.83
845.01	60.74
845.315	61.57
845.619	63.17
845.924	63.4
846.229	61.51
846.533	60.78
846.838	61.62
847.142	60.94
847.447	61.13
847.751	60.49
848.056	59.06
848.36	60.32
848.664	60.93
848.969	60.33
849.273	59.49
849.577	56.02
849.881	55.02
850.185	55.36
850.489	55.55
850.794	55.92
851.097	57.88
851.401	55.75
851.705	55.12
852.009	54.61
852.313	54.15
852.617	57.84
852.92	59
853.224	57.57
853.528	56.98
853.831	57.02
854.135	56.8
854.438	58.64
854.742	60.36
855.045	58.85
855.349	59.8
855.652	60.01
855.955	60.74
856.259	62.12
856.562	64.41
856.865	62.75
857.168	65.51
857.471	65.19
857.774	67.5
858.077	68.29
858.38	67.33
858.683	67.73
858.986	65.93
859.289	63.36
859.592	65.09
859.894	63.12
860.197	63.42
860.5	65.33
860.802	63.75
861.105	60.6
861.407	63.77
861.71	64.39
862.012	66.38
862.315	65.53
862.617	67.94
862.919	67.27
863.222	69.87
863.524	66.79
863.826	65.53
864.128	65.34
864.43	67.93
864.732	67.7
865.034	67.76
865.336	65.95
865.638	71.21
865.94	68.53
866.242	70.05
866.544	69.66
866.846	68.91
867.147	70.85
867.449	73.52
867.751	72.43
868.052	72.47
868.354	70.55
868.655	71.27
868.957	68.5
869.258	67.93
869.56	66.53
869.861	66.26
870.162	67.9
870.463	69.99
870.765	67.81
871.066	65.61
871.367	63.89
871.668	61.14
871.969	61.32
872.27	64.01
872.571	64.59
872.872	63.4
873.173	60.83
873.473	59.99
873.774	59.06
874.075	60.16
874.376	56.62
874.676	57.49
874.977	59
875.277	59.8
875.578	60.49
875.878	61.06
876.179	60.78
876.479	59.98
876.78	56.97
877.08	56.51
877.38	59.03
877.68	62.01
877.981	68.16
878.281	65.9
878.581	63.38
