Data from BA17726_Reflection_00014.txt Node
Date: Tue Nov 19 11:57:17 EST 2019
User: vgr7
Spectrometer: USB2G7710
Scans to average: 3
Trigger mode: 4
Integration Time (sec): 2.000000E-2
Electric dark correction enabled: true
Boxcar width: 10
XAxis mode: Wavelengths
Number of Pixels in Spectrum: 2048
>>>>>Begin Spectral Data<<<<<
177.721	50.57
178.105	62.12
178.488	6.42
178.871	33.33
179.254	-26.88
179.636	10.92
180.019	1.11
180.402	150
180.785	50.72
181.168	28.48
181.55	27.17
181.933	-174.51
182.316	-267.82
182.698	-327.67
183.081	-239.34
183.463	-547.34
183.846	-466.31
184.228	-333.05
184.611	-209.41
184.993	-227.93
185.376	-270.6
185.758	-158.02
186.14	-210.57
186.522	-127.97
186.904	-116.92
187.287	-219.62
187.669	-177.52
188.051	-273.8
188.433	-14788.89
188.815	-1296.4
189.197	1881.61
189.579	-910.93
189.961	-450.96
190.342	-315.13
190.724	-796.17
191.106	1423.23
191.488	-1450.72
191.869	-136.61
192.251	-134.71
192.633	-114.41
193.014	-110.68
193.396	-48.73
193.777	-50.03
194.159	-67.07
194.54	-56.28
194.922	-52.16
195.303	-32.82
195.684	-56.57
196.065	-41.5
196.447	-40.06
196.828	-34.47
197.209	-35.19
197.59	-33.25
197.971	-31.52
198.352	-32.76
198.733	-39.63
199.114	-35.65
199.495	-44.17
199.876	-55.21
200.257	-64.54
200.638	-58.95
201.018	-53.98
201.399	-53.54
201.78	-44.91
202.16	-41.61
202.541	-63.35
202.922	-75.64
203.302	-71.2
203.683	-71.74
204.063	-84.37
204.444	-87.47
204.824	-98.21
205.204	-116
205.585	-143.23
205.965	-155
206.345	-171.58
206.725	-146.05
207.106	-128.54
207.486	-147.72
207.866	-130.14
208.246	-113.84
208.626	-147.6
209.006	-173.38
209.386	-166.92
209.766	-169.67
210.145	-152.94
210.525	-145.69
210.905	-131.16
211.285	-152.14
211.664	-111.33
212.044	-112.41
212.424	-106.73
212.803	-126.49
213.183	-110.03
213.562	-87.96
213.942	-77.85
214.321	-79.69
214.701	-82.5
215.08	-89.35
215.459	-67.39
215.838	-70.26
216.218	-77.3
216.597	-69.7
216.976	-76.18
217.355	-84.72
217.734	-72.86
218.113	-65.99
218.492	-57.71
218.871	-59.24
219.25	-61.65
219.629	-75.33
220.008	-60.46
220.387	-62.94
220.766	-57.02
221.144	-57.61
221.523	-53.53
221.902	-49.7
222.28	-36.71
222.659	-34.4
223.037	-34.84
223.416	-40.95
223.794	-38.71
224.173	-32.95
224.551	-26.8
224.929	-19.53
225.308	-23.15
225.686	-24
226.064	-22.25
226.442	-18.39
226.821	-14.08
227.199	-12.66
227.577	-7.88
227.955	-9.48
228.333	-9.6
228.711	-10.99
229.089	-10.12
229.467	-12.89
229.845	-14.03
230.222	-10.8
230.6	-11.42
230.978	-10.44
231.356	-6.13
231.733	-4.48
232.111	-4.94
232.488	-7.48
232.866	-5.04
233.243	-2.08
233.621	-2.01
233.998	-0.83
234.376	-2.46
234.753	-4.55
235.13	-2.3
235.508	-3.89
235.885	-3.53
236.262	-3.17
236.639	-2.09
237.016	-2.05
237.393	-0.28
237.77	0.24
238.147	-0.43
238.524	0.18
238.901	0.81
239.278	-0.71
239.655	-1.18
240.032	-0.72
240.409	0.03
240.785	0.29
241.162	0.77
241.539	1.21
241.915	0.86
242.292	1.38
242.668	1.54
243.045	1.74
243.421	2.18
243.798	2.09
244.174	2.56
244.551	2.82
244.927	3.18
245.303	3
245.679	3.21
246.056	3.3
246.432	3.4
246.808	3.48
247.184	3.82
247.56	3.42
247.936	3.57
248.312	3.86
248.688	3.62
249.064	3.37
249.44	2.99
249.815	3.21
250.191	3.09
250.567	3.31
250.943	3.11
251.318	2.86
251.694	2.72
252.069	2.68
252.445	2.65
252.82	2.72
253.196	2.8
253.571	2.81
253.947	2.5
254.322	2.25
254.697	2.28
255.073	2.09
255.448	2.85
255.823	2.78
256.198	2.69
256.573	2.87
256.948	3.11
257.323	3.89
257.698	3.87
258.073	3.89
258.448	3.97
258.823	3.93
259.198	4.11
259.573	4.19
259.948	4.21
260.322	3.98
260.697	3.88
261.072	3.92
261.446	4.02
261.821	4.12
262.195	4.05
262.57	4.03
262.944	4.05
263.319	3.97
263.693	4.01
264.067	3.94
264.442	3.81
264.816	3.79
265.19	3.41
265.564	3.36
265.938	3.29
266.313	2.96
266.687	3
267.061	2.69
267.435	2.98
267.809	2.64
268.183	2.82
268.556	2.86
268.93	2.7
269.304	2.62
269.678	2.58
270.051	2.64
270.425	2.56
270.799	2.5
271.172	2.56
271.546	2.61
271.919	2.68
272.293	2.85
272.666	2.79
273.04	2.65
273.413	2.76
273.787	2.77
274.16	2.82
274.533	2.88
274.906	2.94
275.279	2.65
275.653	2.91
276.026	2.92
276.399	2.97
276.772	3.03
277.145	2.96
277.518	2.84
277.891	2.98
278.263	3.21
278.636	3.31
279.009	3.42
279.382	3.31
279.755	3.28
280.127	3.19
280.5	3.22
280.872	3.44
281.245	3.49
281.617	3.54
281.99	3.76
282.362	3.83
282.735	3.92
283.107	3.97
283.479	4.03
283.852	3.96
284.224	3.84
284.596	3.85
284.968	3.76
285.34	3.81
285.713	3.79
286.085	3.7
286.457	3.63
286.829	3.47
287.201	3.63
287.572	3.5
287.944	3.54
288.316	3.56
288.688	3.43
289.06	3.34
289.431	3.35
289.803	3.23
290.175	3.09
290.546	3.14
290.918	3.15
291.289	2.95
291.661	2.91
292.032	2.9
292.403	2.85
292.775	3.03
293.146	3.28
293.517	3.23
293.889	3.23
294.26	3.34
294.631	3.66
295.002	3.64
295.373	3.73
295.744	3.86
296.115	3.97
296.486	3.99
296.857	4.08
297.228	4.1
297.599	4.2
297.97	4.29
298.34	4.3
298.711	4.4
299.082	4.55
299.452	4.67
299.823	4.65
300.194	4.71
300.564	4.76
300.935	4.66
301.305	4.74
301.676	4.75
302.046	4.76
302.416	4.56
302.787	4.53
303.157	4.54
303.527	4.52
303.897	4.3
304.267	4.36
304.637	4.32
305.008	4.38
305.378	4.42
305.748	4.44
306.117	4.48
306.487	4.44
306.857	4.55
307.227	4.63
307.597	4.79
307.967	5
308.336	4.99
308.706	4.95
309.076	5.08
309.445	5.21
309.815	5.2
310.184	5.2
310.554	5.04
310.923	5.18
311.293	5.09
311.662	5.28
312.031	5.29
312.401	5.21
312.77	5.11
313.139	4.97
313.508	4.93
313.877	4.98
314.246	4.95
314.616	4.89
314.985	4.79
315.353	4.81
315.722	4.83
316.091	4.81
316.46	4.94
316.829	4.85
317.198	4.83
317.567	5.04
317.935	5.07
318.304	5.37
318.672	5.34
319.041	5.45
319.41	5.55
319.778	5.6
320.147	5.7
320.515	5.83
320.883	6.02
321.252	6.31
321.62	6.55
321.988	6.61
322.357	6.72
322.725	6.62
323.093	6.63
323.461	6.43
323.829	6.59
324.197	6.73
324.565	6.7
324.933	6.73
325.301	6.74
325.669	6.72
326.037	6.64
326.405	6.56
326.772	6.57
327.14	6.44
327.508	6.49
327.875	6.63
328.243	6.67
328.61	6.8
328.978	6.52
329.346	6.33
329.713	6.44
330.08	6.51
330.448	6.68
330.815	6.71
331.182	6.93
331.55	6.86
331.917	6.75
332.284	6.87
332.651	6.78
333.018	6.68
333.385	6.78
333.752	7.01
334.119	7.14
334.486	7.27
334.853	7.2
335.22	7.24
335.587	7.07
335.954	7.17
336.32	7.11
336.687	7.34
337.054	7.3
337.42	7.4
337.787	7.4
338.153	7.52
338.52	7.63
338.886	7.61
339.253	7.51
339.619	7.65
339.986	7.64
340.352	7.79
340.718	7.75
341.084	7.7
341.451	7.7
341.817	7.63
342.183	7.57
342.549	7.85
342.915	7.87
343.281	8
343.647	7.92
344.013	7.92
344.379	7.85
344.745	7.91
345.11	7.87
345.476	7.9
345.842	7.79
346.208	7.76
346.573	7.8
346.939	7.86
347.304	7.76
347.67	7.79
348.035	7.7
348.401	7.75
348.766	7.84
349.132	7.78
349.497	7.91
349.862	7.93
350.228	7.75
350.593	7.84
350.958	7.86
351.323	7.79
351.688	7.8
352.053	7.81
352.418	7.82
352.783	7.81
353.148	7.64
353.513	7.68
353.878	7.71
354.243	7.65
354.608	7.7
354.972	7.7
355.337	7.69
355.702	7.7
356.066	7.73
356.431	7.65
356.795	7.63
357.16	7.61
357.524	7.6
357.889	7.61
358.253	7.5
358.618	7.43
358.982	7.47
359.346	7.5
359.71	7.46
360.075	7.45
360.439	7.38
360.803	7.43
361.167	7.44
361.531	7.36
361.895	7.4
362.259	7.37
362.623	7.3
362.987	7.24
363.351	7.25
363.714	7.19
364.078	7.2
364.442	7.21
364.806	7.22
365.169	7.15
365.533	7.11
365.896	7.11
366.26	7.1
366.623	7.1
366.987	7.02
367.35	7.02
367.714	7.02
368.077	7.06
368.44	6.96
368.803	6.89
369.167	6.81
369.53	6.77
369.893	6.73
370.256	6.71
370.619	6.69
370.982	6.59
371.345	6.57
371.708	6.53
372.071	6.41
372.434	6.34
372.797	6.31
373.159	6.26
373.522	6.23
373.885	6.19
374.247	6.22
374.61	6.18
374.973	6.19
375.335	6.13
375.698	6.07
376.06	6.05
376.423	5.96
376.785	5.97
377.147	5.92
377.51	5.84
377.872	5.84
378.234	5.88
378.596	5.84
378.958	5.79
379.321	5.71
379.683	5.74
380.045	5.63
380.407	5.6
380.769	5.66
381.13	5.67
381.492	5.65
381.854	5.57
382.216	5.56
382.578	5.52
382.939	5.45
383.301	5.38
383.663	5.37
384.024	5.44
384.386	5.48
384.747	5.44
385.109	5.43
385.47	5.38
385.832	5.26
386.193	5.28
386.554	5.24
386.916	5.26
387.277	5.24
387.638	5.31
387.999	5.32
388.36	5.26
388.721	5.2
389.082	5.21
389.443	5.2
389.804	5.14
390.165	5.08
390.526	5.1
390.887	5.09
391.248	5.07
391.609	4.99
391.969	4.92
392.33	4.91
392.691	4.91
393.051	4.87
393.412	4.92
393.772	4.96
394.133	4.97
394.493	4.94
394.854	4.9
395.214	4.82
395.574	4.75
395.935	4.76
396.295	4.72
396.655	4.69
397.015	4.71
397.376	4.74
397.736	4.74
398.096	4.75
398.456	4.72
398.816	4.73
399.176	4.71
399.535	4.7
399.895	4.65
400.255	4.65
400.615	4.67
400.975	4.61
401.334	4.51
401.694	4.49
402.054	4.48
402.413	4.49
402.773	4.46
403.132	4.46
403.492	4.42
403.851	4.39
404.211	4.38
404.57	4.31
404.929	4.23
405.288	4.22
405.648	4.17
406.007	4.16
406.366	4.13
406.725	4.15
407.084	4.15
407.443	4.15
407.802	4.08
408.161	4.05
408.52	4.03
408.879	4.02
409.238	4.03
409.596	4.02
409.955	3.99
410.314	4.02
410.673	4.04
411.031	4.05
411.39	4.05
411.748	4.03
412.107	4.01
412.465	4.05
412.824	4
413.182	3.97
413.54	3.97
413.899	3.93
414.257	3.91
414.615	3.88
414.974	3.87
415.332	3.91
415.69	3.93
416.048	3.93
416.406	3.91
416.764	3.91
417.122	3.89
417.48	3.89
417.838	3.89
418.195	3.88
418.553	3.85
418.911	3.85
419.269	3.84
419.626	3.84
419.984	3.81
420.342	3.81
420.699	3.81
421.057	3.81
421.414	3.82
421.772	3.81
422.129	3.8
422.486	3.8
422.844	3.8
423.201	3.77
423.558	3.77
423.915	3.78
424.273	3.77
424.63	3.77
424.987	3.75
425.344	3.72
425.701	3.68
426.058	3.69
426.415	3.67
426.772	3.67
427.128	3.66
427.485	3.67
427.842	3.67
428.199	3.68
428.555	3.67
428.912	3.66
429.269	3.65
429.625	3.66
429.982	3.64
430.338	3.62
430.695	3.63
431.051	3.61
431.407	3.61
431.764	3.59
432.12	3.59
432.476	3.6
432.832	3.6
433.189	3.63
433.545	3.61
433.901	3.62
434.257	3.61
434.613	3.61
434.969	3.61
435.325	3.61
435.681	3.59
436.036	3.59
436.392	3.6
436.748	3.63
437.104	3.6
437.459	3.61
437.815	3.61
438.171	3.59
438.526	3.61
438.882	3.6
439.237	3.6
439.593	3.59
439.948	3.57
440.304	3.58
440.659	3.56
441.014	3.54
441.369	3.53
441.725	3.52
442.08	3.52
442.435	3.51
442.79	3.5
443.145	3.51
443.5	3.5
443.855	3.49
444.21	3.48
444.565	3.48
444.92	3.48
445.275	3.46
445.629	3.47
445.984	3.45
446.339	3.44
446.693	3.44
447.048	3.42
447.403	3.42
447.757	3.42
448.112	3.43
448.466	3.43
448.82	3.44
449.175	3.43
449.529	3.42
449.883	3.42
450.238	3.4
450.592	3.37
450.946	3.35
451.3	3.36
451.654	3.34
452.008	3.34
452.362	3.33
452.716	3.33
453.07	3.34
453.424	3.33
453.778	3.32
454.132	3.33
454.486	3.34
454.839	3.35
455.193	3.36
455.547	3.35
455.9	3.35
456.254	3.35
456.607	3.34
456.961	3.35
457.314	3.35
457.668	3.35
458.021	3.35
458.375	3.35
458.728	3.33
459.081	3.35
459.434	3.35
459.787	3.36
460.141	3.37
460.494	3.35
460.847	3.35
461.2	3.36
461.553	3.35
461.906	3.34
462.259	3.35
462.611	3.36
462.964	3.36
463.317	3.38
463.67	3.39
464.022	3.4
464.375	3.4
464.728	3.4
465.08	3.42
465.433	3.44
465.785	3.45
466.138	3.48
466.49	3.46
466.843	3.48
467.195	3.47
467.547	3.49
467.899	3.52
468.252	3.54
468.604	3.55
468.956	3.57
469.308	3.58
469.66	3.59
470.012	3.58
470.364	3.58
470.716	3.58
471.068	3.58
471.42	3.57
471.772	3.59
472.123	3.6
472.475	3.61
472.827	3.59
473.178	3.59
473.53	3.6
473.882	3.61
474.233	3.6
474.585	3.59
474.936	3.57
475.288	3.54
475.639	3.56
475.99	3.55
476.342	3.54
476.693	3.54
477.044	3.53
477.395	3.51
477.746	3.5
478.097	3.5
478.448	3.48
478.8	3.49
479.15	3.48
479.501	3.48
479.852	3.49
480.203	3.51
480.554	3.52
480.905	3.5
481.255	3.53
481.606	3.53
481.957	3.53
482.307	3.53
482.658	3.54
483.009	3.53
483.359	3.53
483.709	3.54
484.06	3.55
484.41	3.56
484.761	3.56
485.111	3.58
485.461	3.59
485.811	3.59
486.162	3.6
486.512	3.6
486.862	3.61
487.212	3.61
487.562	3.61
487.912	3.61
488.262	3.62
488.612	3.61
488.961	3.62
489.311	3.62
489.661	3.64
490.011	3.64
490.36	3.65
490.71	3.65
491.06	3.67
491.409	3.67
491.759	3.67
492.108	3.68
492.458	3.67
492.807	3.67
493.157	3.67
493.506	3.69
493.855	3.7
494.204	3.69
494.554	3.7
494.903	3.71
495.252	3.73
495.601	3.76
495.95	3.78
496.299	3.79
496.648	3.83
496.997	3.84
497.346	3.87
497.695	3.88
498.043	3.92
498.392	3.92
498.741	3.96
499.09	3.98
499.438	4.01
499.787	4.04
500.135	4.09
500.484	4.12
500.832	4.16
501.181	4.19
501.529	4.25
501.878	4.29
502.226	4.34
502.574	4.38
502.923	4.4
503.271	4.42
503.619	4.48
503.967	4.53
504.315	4.61
504.663	4.66
505.011	4.74
505.359	4.77
505.707	4.83
506.055	4.91
506.403	4.99
506.751	5.05
507.098	5.12
507.446	5.15
507.794	5.2
508.141	5.24
508.489	5.32
508.837	5.36
509.184	5.4
509.531	5.42
509.879	5.49
510.226	5.54
510.574	5.62
510.921	5.66
511.268	5.71
511.616	5.76
511.963	5.8
512.31	5.84
512.657	5.9
513.004	5.95
513.351	5.99
513.698	6.04
514.045	6.1
514.392	6.14
514.739	6.25
515.086	6.34
515.432	6.44
515.779	6.49
516.126	6.59
516.473	6.66
516.819	6.76
517.166	6.82
517.512	6.88
517.859	6.97
518.205	7.02
518.552	7.08
518.898	7.14
519.245	7.2
519.591	7.27
519.937	7.35
520.283	7.45
520.629	7.52
520.976	7.6
521.322	7.7
521.668	7.8
522.014	7.88
522.36	7.96
522.706	8.05
523.052	8.19
523.398	8.3
523.743	8.45
524.089	8.6
524.435	8.7
524.781	8.83
525.126	8.92
525.472	9.05
525.817	9.14
526.163	9.24
526.509	9.34
526.854	9.42
527.199	9.51
527.545	9.58
527.89	9.66
528.235	9.73
528.581	9.82
528.926	9.91
529.271	10
529.616	10.1
529.961	10.19
530.306	10.28
530.651	10.37
530.996	10.47
531.341	10.58
531.686	10.71
532.031	10.82
532.376	10.94
532.721	11.05
533.065	11.2
533.41	11.32
533.755	11.48
534.099	11.63
534.444	11.76
534.788	11.91
535.133	12.08
535.477	12.25
535.822	12.43
536.166	12.6
536.51	12.79
536.855	12.99
537.199	13.18
537.543	13.4
537.887	13.61
538.231	13.83
538.576	14.04
538.92	14.23
539.264	14.44
539.608	14.65
539.951	14.83
540.295	15
540.639	15.2
540.983	15.36
541.327	15.55
541.671	15.75
542.014	15.93
542.358	16.1
542.701	16.27
543.045	16.43
543.389	16.62
543.732	16.78
544.075	16.96
544.419	17.16
544.762	17.33
545.105	17.54
545.449	17.76
545.792	17.97
546.135	18.22
546.478	18.49
546.821	18.76
547.165	19.05
547.508	19.3
547.851	19.56
548.194	19.82
548.536	20.03
548.879	20.3
549.222	20.58
549.565	20.84
549.908	21.15
550.25	21.42
550.593	21.69
550.936	22
551.278	22.23
551.621	22.55
551.963	22.89
552.306	23.18
552.648	23.45
552.991	23.7
553.333	23.94
553.675	24.22
554.017	24.43
554.36	24.67
554.702	24.96
555.044	25.24
555.386	25.53
555.728	25.88
556.07	26.14
556.412	26.48
556.754	26.77
557.096	27.05
557.438	27.34
557.78	27.68
558.121	27.98
558.463	28.36
558.805	28.66
559.147	28.97
559.488	29.3
559.83	29.62
560.171	29.92
560.513	30.31
560.854	30.58
561.196	30.96
561.537	31.26
561.878	31.62
562.22	31.91
562.561	32.24
562.902	32.53
563.243	32.84
563.584	33.13
563.925	33.44
564.266	33.71
564.607	34.08
564.948	34.33
565.289	34.63
565.63	34.88
565.971	35.13
566.312	35.38
566.653	35.68
566.993	35.94
567.334	36.28
567.675	36.55
568.015	36.85
568.356	37.08
568.696	37.38
569.037	37.62
569.377	37.87
569.718	38.1
570.058	38.36
570.398	38.61
570.739	38.78
571.079	39.02
571.419	39.27
571.759	39.41
572.099	39.66
572.439	39.84
572.779	40.09
573.119	40.38
573.459	40.59
573.799	40.76
574.139	41.04
574.479	41.22
574.819	41.44
575.158	41.67
575.498	41.95
575.838	42.19
576.177	42.4
576.517	42.63
576.856	42.91
577.196	43.1
577.535	43.37
577.875	43.68
578.214	44
578.553	44.31
578.893	44.69
579.232	44.98
579.571	45.31
579.91	45.56
580.25	45.75
580.589	46.02
580.928	46.25
581.267	46.45
581.606	46.64
581.945	46.85
582.283	47.07
582.622	47.26
582.961	47.44
583.3	47.66
583.639	47.86
583.977	48.03
584.316	48.34
584.654	48.51
584.993	48.7
585.332	48.8
585.67	48.91
586.008	49
586.347	49.11
586.685	49.23
587.024	49.44
587.362	49.63
587.7	49.84
588.038	50.04
588.376	50.15
588.715	50.36
589.053	50.54
589.391	50.72
589.729	50.86
590.067	50.96
590.404	51.12
590.742	51.36
591.08	51.55
591.418	51.65
591.756	51.88
592.093	52.04
592.431	52.24
592.769	52.47
593.106	52.61
593.444	52.8
593.781	53.01
594.119	53.15
594.456	53.23
594.793	53.29
595.131	53.44
595.468	53.59
595.805	53.77
596.143	53.91
596.48	53.95
596.817	54.08
597.154	54.18
597.491	54.35
597.828	54.41
598.165	54.51
598.502	54.64
598.839	54.68
599.176	54.86
599.512	54.99
599.849	55.12
600.186	55.15
600.523	55.31
600.859	55.4
601.196	55.55
601.532	55.69
601.869	55.81
602.205	55.95
602.542	56.08
602.878	56.12
603.215	56.1
603.551	56.23
603.887	56.37
604.223	56.59
604.56	56.62
604.896	56.74
605.232	56.8
605.568	56.81
605.904	56.87
606.24	56.87
606.576	56.95
606.912	57.01
607.248	57.2
607.583	57.25
607.919	57.32
608.255	57.4
608.591	57.5
608.926	57.63
609.262	57.6
609.597	57.72
609.933	57.82
610.268	57.99
610.604	58.01
610.939	58.05
611.275	58
611.61	58.12
611.945	58.11
612.281	58.26
612.616	58.41
612.951	58.56
613.286	58.73
613.621	58.85
613.956	58.91
614.291	59
614.626	59.09
614.961	59.14
615.296	59.2
615.631	59.27
615.966	59.39
616.3	59.51
616.635	59.45
616.97	59.52
617.304	59.61
617.639	59.76
617.973	59.75
618.308	59.82
618.642	59.86
618.977	59.92
619.311	59.88
619.646	60
619.98	60.08
620.314	60.07
620.648	60.05
620.983	60.06
621.317	60.11
621.651	60.22
621.985	60.38
622.319	60.4
622.653	60.53
622.987	60.57
623.321	60.67
623.655	60.79
623.988	60.85
624.322	60.93
624.656	61.01
624.99	61.02
625.323	61.12
625.657	61.14
625.99	61.18
626.324	61.36
626.657	61.39
626.991	61.37
627.324	61.49
627.658	61.59
627.991	61.67
628.324	61.7
628.657	61.65
628.991	61.65
629.324	61.77
629.657	61.68
629.99	61.7
630.323	61.7
630.656	61.65
630.989	61.68
631.322	61.61
631.655	61.62
631.987	61.71
632.32	61.83
632.653	61.88
632.986	61.92
633.318	61.87
633.651	61.87
633.984	61.93
634.316	61.93
634.649	61.92
634.981	62
635.313	62.22
635.646	62.24
635.978	62.2
636.31	62.13
636.643	62.19
636.975	62.32
637.307	62.38
637.639	62.48
637.971	62.43
638.303	62.5
638.635	62.54
638.967	62.62
639.299	62.59
639.631	62.62
639.963	62.81
640.295	62.89
640.626	62.98
640.958	63.2
641.29	63.32
641.621	63.45
641.953	63.41
642.285	63.31
642.616	63.39
642.948	63.47
643.279	63.57
643.61	63.68
643.942	63.54
644.273	63.66
644.604	63.79
644.936	63.88
645.267	63.82
645.598	63.82
645.929	63.75
646.26	63.76
646.591	63.84
646.922	63.71
647.253	63.62
647.584	63.63
647.915	63.45
648.245	63.42
648.576	63.5
648.907	63.6
649.238	63.61
649.568	63.54
649.899	63.72
650.229	63.82
650.56	63.85
650.89	63.86
651.221	63.81
651.551	63.73
651.882	63.77
652.212	63.89
652.542	63.94
652.872	64.02
653.203	64.14
653.533	64.14
653.863	64.12
654.193	64.21
654.523	64.23
654.853	64.38
655.183	64.39
655.513	64.32
655.843	64.33
656.172	64.27
656.502	64.45
656.832	64.31
657.162	64.2
657.491	64.19
657.821	64.15
658.15	64.3
658.48	64.36
658.809	64.4
659.139	64.38
659.468	64.38
659.798	64.43
660.127	64.48
660.456	64.49
660.785	64.55
661.115	64.6
661.444	64.61
661.773	64.51
662.102	64.52
662.431	64.4
662.76	64.35
663.089	64.49
663.418	64.43
663.747	64.57
664.076	64.65
664.404	64.74
664.733	64.94
665.062	64.79
665.39	64.82
665.719	64.86
666.048	64.91
666.376	64.86
666.705	64.86
667.033	64.71
667.362	64.78
667.69	64.75
668.018	64.71
668.347	64.62
668.675	64.63
669.003	64.62
669.331	64.73
669.659	64.72
669.987	64.54
670.315	64.67
670.643	64.52
670.971	64.44
671.299	64.46
671.627	64.38
671.955	64.29
672.283	64.33
672.61	64.34
672.938	64.36
673.266	64.59
673.593	64.6
673.921	64.69
674.249	64.69
674.576	64.82
674.904	64.68
675.231	64.75
675.558	64.8
675.886	64.98
676.213	64.92
676.54	64.99
676.867	65.01
677.195	65
677.522	64.88
677.849	64.98
678.176	64.92
678.503	64.96
678.83	65.11
679.157	65.13
679.484	65.09
679.81	65.12
680.137	65.05
680.464	65.06
680.791	65.06
681.117	65.15
681.444	65.16
681.771	65.25
682.097	65.27
682.424	65.37
682.75	65.26
683.077	65.36
683.403	65.35
683.729	65.36
684.056	65.36
684.382	65.65
684.708	65.73
685.034	65.74
685.36	65.62
685.686	65.59
686.012	65.52
686.339	65.46
686.664	65.4
686.99	65.42
687.316	65.39
687.642	65.34
687.968	65.2
688.294	65.05
688.619	65.19
688.945	65.19
689.271	65.17
689.596	65.08
689.922	65.01
690.247	65.05
690.573	65.14
690.898	65
691.224	65.04
691.549	64.85
691.874	64.87
692.2	64.98
692.525	64.94
692.85	64.86
693.175	65.05
693.5	65.18
693.825	65.25
694.15	65.24
694.475	65.18
694.8	65.29
695.125	65.14
695.45	65.18
695.775	65.11
696.099	64.91
696.424	64.95
696.749	64.87
697.073	64.75
697.398	64.83
697.723	64.9
698.047	64.78
698.372	64.86
698.696	65.11
699.02	65.24
699.345	65.23
699.669	65.36
699.993	65.3
700.318	65.29
700.642	65.3
700.966	65.28
701.29	65.38
701.614	65.36
701.938	65.62
702.262	65.47
702.586	65.43
702.91	65.54
703.234	65.44
703.557	65.53
703.881	65.76
704.205	65.83
704.529	65.82
704.852	65.87
705.176	66.04
705.499	65.97
705.823	65.92
706.146	66
706.47	65.95
706.793	65.91
707.117	66.05
707.44	65.91
707.763	66.01
708.086	66.09
708.409	66.26
708.733	66.24
709.056	66.55
709.379	66.85
709.702	66.9
710.025	67.08
710.348	67.3
710.671	67.29
710.993	67.2
711.316	67.11
711.639	66.97
711.962	66.77
712.284	66.57
712.607	66.36
712.93	66.19
713.252	66.08
713.575	65.97
713.897	65.87
714.22	65.98
714.542	66.08
714.864	65.99
715.187	65.67
715.509	65.62
715.831	65.53
716.153	65.41
716.475	65.58
716.798	65.54
717.12	65.38
717.442	65.26
717.764	65.01
718.085	64.95
718.407	65.09
718.729	65.28
719.051	64.97
719.373	65.22
719.695	65.49
720.016	65.57
720.338	65.66
720.659	65.48
720.981	65.22
721.302	65.13
721.624	65.12
721.945	65.13
722.267	65.33
722.588	65.16
722.909	65.02
723.231	64.55
723.552	64.52
723.873	64.57
724.194	64.66
724.515	64.98
724.836	65.24
725.157	64.95
725.478	64.52
725.799	64.63
726.12	64.41
726.441	64.34
726.762	64.34
727.083	64.44
727.403	64.55
727.724	64.79
728.045	64.91
728.365	65.04
728.686	65.25
729.006	65.28
729.327	65.4
729.647	65.4
729.967	65.77
730.288	65.73
730.608	65.44
730.928	65.48
731.249	65.49
731.569	65.5
731.889	65.65
732.209	65.92
732.529	66.19
732.849	66.34
733.169	66.26
733.489	66.18
733.809	66.23
734.129	66.03
734.448	65.97
734.768	65.8
735.088	65.91
735.408	65.67
735.727	65.72
736.047	65.54
736.366	65.62
736.686	65.33
737.005	65.54
737.325	65.94
737.644	66.2
737.963	66.07
738.283	66.15
738.602	66.45
738.921	66.41
739.24	66.27
739.56	66.01
739.879	66.23
740.198	66.31
740.517	66.23
740.836	66.62
741.155	66.43
741.473	66.38
741.792	65.99
742.111	66.06
742.43	66.18
742.748	66.26
743.067	66.3
743.386	66.52
743.704	66.54
744.023	66.37
744.341	65.63
744.66	65.74
744.978	65.14
745.297	65.02
745.615	64.72
745.933	64.82
746.252	65.06
746.57	65.15
746.888	65.27
747.206	65.3
747.524	64.75
747.842	65.27
748.16	65.2
748.478	65.27
748.796	65.43
749.114	65.04
749.432	65.15
749.749	65.18
750.067	64.99
750.385	64.57
750.703	64.64
751.02	65.03
751.338	64.85
751.655	65.21
751.973	65
752.29	65.37
752.608	65.43
752.925	65.26
753.242	65.04
753.56	64.8
753.877	64.62
754.194	64.79
754.511	64.42
754.828	64.59
755.145	64.39
755.462	64.32
755.779	64.18
756.096	63.96
756.413	63.72
756.73	63.75
757.047	63.91
757.364	63.54
757.68	63.63
757.997	64
758.314	64.02
758.63	64.02
758.947	64.13
759.264	64.32
759.58	64.81
759.896	65.06
760.213	65.38
760.529	65.58
760.846	65.8
761.162	65.65
761.478	65.68
761.794	65.94
762.11	66.18
762.426	66.18
762.743	66.2
763.059	66.35
763.375	66.31
763.69	66.34
764.006	66.59
764.322	66.83
764.638	66.59
764.954	66.61
765.27	66.81
765.585	66.87
765.901	66.48
766.216	66.25
766.532	65.69
766.848	65.36
767.163	65.32
767.478	65.34
767.794	65.66
768.109	65.77
768.424	65.5
768.74	65.32
769.055	65.66
769.37	65.59
769.685	65.58
770	65.32
770.315	65.14
770.63	65.11
770.945	64.47
771.26	64.46
771.575	63.98
771.89	63.79
772.205	63.49
772.52	63.58
772.834	63.67
773.149	63.48
773.464	63.6
773.778	63.29
774.093	63.33
774.407	63.36
774.722	62.96
775.036	63.33
775.351	63.39
775.665	62.87
775.979	62.5
776.293	62.37
776.608	62.83
776.922	62.94
777.236	62.88
777.55	63.27
777.864	63.24
778.178	64.25
778.492	64.04
778.806	63.92
779.12	64.26
779.434	64.06
779.747	64.56
780.061	64.83
780.375	65.13
780.689	65.21
781.002	65.12
781.316	65.48
781.629	65.27
781.943	64.99
782.256	65.62
782.57	66.29
782.883	66.21
783.196	66.04
783.51	65.71
783.823	65.5
784.136	65.4
784.449	65.09
784.762	64.76
785.075	64.54
785.388	65.01
785.701	65.15
786.014	64.9
786.327	65.05
786.64	65.23
786.953	65.19
787.266	64.95
787.578	64.63
787.891	64.03
788.204	63.86
788.516	63.43
788.829	62.93
789.141	62.91
789.454	63.03
789.766	63.66
790.079	63.79
790.391	63.86
790.703	64.06
791.016	64.54
791.328	64.03
791.64	64.37
791.952	64.47
792.264	63.73
792.576	64.08
792.888	63.97
793.2	63.74
793.512	63.97
793.824	63.69
794.136	63.5
794.448	64.26
794.76	64.15
795.071	64.49
795.383	64.68
795.695	64.26
796.006	65.05
796.318	64.61
796.629	65.45
796.941	65.81
797.252	65.21
797.564	65.21
797.875	65.28
798.186	65.07
798.497	64.91
798.809	65.87
799.12	64.93
799.431	65.54
799.742	65.06
800.053	64.7
800.364	64.85
800.675	65.63
800.986	65.09
801.297	65.61
801.608	66.08
801.918	65.75
802.229	66.89
802.54	65.61
802.851	65.48
803.161	64.86
803.472	64.27
803.782	65.11
804.093	64.65
804.403	64.52
804.714	64.32
805.024	63.86
805.334	62.59
805.645	63.1
805.955	62.47
806.265	62.68
806.575	62.81
806.885	62.76
807.195	62.82
807.505	62.92
807.815	62.78
808.125	62.05
808.435	61.91
808.745	60.57
809.055	60.93
809.365	61.69
809.674	61.96
809.984	62.44
810.294	61.54
810.603	61.35
810.913	61.66
811.222	61.71
811.532	61.83
811.841	62.31
812.151	63.75
812.46	63.93
812.769	63.89
813.079	63.24
813.388	63.36
813.697	61.57
814.006	61.9
814.315	61.73
814.624	62.23
814.933	62.5
815.242	63.29
815.551	63.45
815.86	62.5
816.169	61.99
816.478	60.96
816.786	60.92
817.095	61.31
817.404	61.47
817.712	62.33
818.021	62.01
818.33	62.06
818.638	61.91
818.947	62.74
819.255	64.3
819.563	64.86
819.872	65.12
820.18	65.85
820.488	66.55
820.796	67.05
821.105	66.98
821.413	67.39
821.721	67.35
822.029	67.51
822.337	67.48
822.645	67.48
822.953	67.69
823.26	67.57
823.568	67.65
823.876	67.61
824.184	67.33
824.491	67.45
824.799	67.6
825.107	67.54
825.414	67.3
825.722	67.07
826.029	67.15
826.337	67.18
826.644	67.2
826.951	66.98
827.259	66.85
827.566	66.89
827.873	66.53
828.18	66.3
828.488	65.96
828.795	66.14
829.102	66
829.409	65.82
829.716	65.94
830.023	65.8
830.329	66.01
830.636	66.1
830.943	65.67
831.25	65.35
831.557	65.38
831.863	65.58
832.17	65.29
832.476	64.94
832.783	64.77
833.089	64.63
833.396	64.13
833.702	63.77
834.009	63.5
834.315	63.93
834.621	64.64
834.928	64.71
835.234	64.8
835.54	64.58
835.846	64.54
836.152	64.59
836.458	64.45
836.764	63.75
837.07	63.83
837.376	64.11
837.682	64.21
837.988	63.92
838.293	63.8
838.599	64.2
838.905	64.26
839.211	64.35
839.516	64.3
839.822	64.18
840.127	63.24
840.433	63.88
840.738	62.55
841.044	62.25
841.349	61.65
841.654	60.52
841.959	60.94
842.265	61.3
842.57	62.66
842.875	62.8
843.18	62.72
843.485	63.88
843.79	64.29
844.095	65.06
844.4	64.68
844.705	64.68
845.01	63.8
845.315	63.51
845.619	63.17
845.924	61.98
846.229	62.17
846.533	63.24
846.838	62.69
847.142	64.09
847.447	63.51
847.751	64.62
848.056	64.37
848.36	64.58
848.664	64.26
848.969	60.16
849.273	58.89
849.577	60.12
849.881	55.56
850.185	53.03
850.489	51.3
850.794	53.18
851.097	52.58
851.401	51.84
851.705	53
852.009	51.46
852.313	51.9
852.617	52.56
852.92	52.13
853.224	51.91
853.528	50.76
853.831	50.13
854.135	48.53
854.438	48.13
854.742	47.58
855.045	46.12
855.349	48.07
855.652	50.51
855.955	50.55
856.259	52.37
856.562	54.14
856.865	54.49
857.168	51.01
857.471	53.83
857.774	51.47
858.077	50.95
858.38	52.29
858.683	52.59
858.986	53.33
859.289	55.22
859.592	55.22
859.894	55.23
860.197	57.16
860.5	57.69
860.802	58.8
861.105	58.83
861.407	59.16
861.71	57.93
862.012	57.17
862.315	56
862.617	56.28
862.919	56.64
863.222	57.49
863.524	57.92
863.826	53.47
864.128	55.7
864.43	55.31
864.732	54.76
865.034	54.55
865.336	50.19
865.638	50.63
865.94	49.83
866.242	49.1
866.544	47.32
866.846	48.01
867.147	47.93
867.449	48.16
867.751	48.47
868.052	48.5
868.354	48.44
868.655	49.54
868.957	52.3
869.258	52.11
869.56	51.14
869.861	50.51
870.162	50.98
870.463	54.1
870.765	54.68
871.066	53.92
871.367	53.37
871.668	53.84
871.969	51.37
872.27	53.33
872.571	54.17
872.872	52.58
873.173	52.49
873.473	52.58
873.774	53.26
874.075	54.42
874.376	53.64
874.676	56.3
874.977	55.22
875.277	54.13
875.578	57.39
875.878	58.29
876.179	60.31
876.479	62.44
876.78	58.92
877.08	57.37
877.38	59.24
877.68	60.41
877.981	63.77
878.281	64.31
878.581	61.66
