Data from BA17729_Reflection_00012.txt Node
Date: Tue Nov 19 11:50:58 EST 2019
User: vgr7
Spectrometer: USB2G7710
Scans to average: 3
Trigger mode: 4
Integration Time (sec): 2.000000E-2
Electric dark correction enabled: true
Boxcar width: 10
XAxis mode: Wavelengths
Number of Pixels in Spectrum: 2048
>>>>>Begin Spectral Data<<<<<
177.721	4.72
178.105	-9.63
178.488	-26.54
178.871	114.71
179.254	95.12
179.636	84.1
180.019	58.96
180.402	-33.33
180.785	122.54
181.168	123.01
181.55	20.99
181.933	40.49
182.316	-4.33
182.698	-32.38
183.081	-111.3
183.463	-41.64
183.846	-17.21
184.228	45.11
184.611	-35.19
184.993	-118.6
185.376	-1782.35
185.758	-55.89
186.14	-35.78
186.522	-42.86
186.904	-115.38
187.287	-256.02
187.669	-420
188.051	-5263.64
188.433	-435.21
188.815	-255.7
189.197	-2112.77
189.579	392.49
189.961	365.18
190.342	237.93
190.724	-900
191.106	-9.89
191.488	8.26
191.869	121.11
192.251	214.01
192.633	479.68
193.014	425.15
193.396	222.7
193.777	17.5
194.159	-7.66
194.54	-6.24
194.922	-52.3
195.303	-55.2
195.684	-137.09
196.065	-391.86
196.447	-190.58
196.828	-140.87
197.209	-113.43
197.59	-107.19
197.971	-132.5
198.352	-116.8
198.733	-121.53
199.114	-110.67
199.495	-112.97
199.876	-154
200.257	-144.6
200.638	-133.59
201.018	-125.33
201.399	-97.08
201.78	-107.37
202.16	-115.94
202.541	-113.59
202.922	-72.25
203.302	-91.77
203.683	-79.67
204.063	-65.94
204.444	-82.03
204.824	-104.78
205.204	-130.61
205.585	-97.05
205.965	-57.66
206.345	-65.34
206.725	-39.72
207.106	-26.91
207.486	-14.43
207.866	-13.67
208.246	-5.31
208.626	-6.45
209.006	-22.38
209.386	-29.26
209.766	-26.56
210.145	-18.88
210.525	-11.74
210.905	-18.77
211.285	-14.59
211.664	13.59
212.044	12.4
212.424	8.2
212.803	9.04
213.183	20.73
213.562	21.95
213.942	25.74
214.321	18.41
214.701	19.25
215.08	11.74
215.459	24.04
215.838	29.2
216.218	5.46
216.597	10.09
216.976	26.9
217.355	33.52
217.734	35.06
218.113	42.47
218.492	23.64
218.871	25.6
219.25	36.55
219.629	3.45
220.008	58.99
220.387	19.71
220.766	7.39
221.144	9.42
221.523	-28.31
221.902	-52.24
222.28	-18.83
222.659	-3.77
223.037	-7.77
223.416	-25.08
223.794	-37.12
224.173	-35.86
224.551	-30.02
224.929	-23.88
225.308	-27.89
225.686	-33.73
226.064	-33.22
226.442	-19.59
226.821	-12.52
227.199	-13.62
227.577	-2.96
227.955	-2.82
228.333	2.58
228.711	4.22
229.089	4.23
229.467	5.04
229.845	4.97
230.222	1.24
230.6	-0.58
230.978	3.82
231.356	5.97
231.733	5.17
232.111	4.38
232.488	1.85
232.866	2.06
233.243	-0.03
233.621	3.97
233.998	4.45
234.376	4.42
234.753	2.44
235.13	1.02
235.508	-0.29
235.885	-2.64
236.262	-1.97
236.639	-4.18
237.016	-3.1
237.393	-0.59
237.77	2.02
238.147	3.34
238.524	3.53
238.901	2.58
239.278	2.99
239.655	4
240.032	4.7
240.409	5.34
240.785	4.89
241.162	6.05
241.539	6.13
241.915	6.33
242.292	6.5
242.668	6.01
243.045	6.79
243.421	7
243.798	7.37
244.174	7.58
244.551	7.92
244.927	7.51
245.303	7.06
245.679	6.99
246.056	7.07
246.432	7.18
246.808	7.34
247.184	7.08
247.56	6.58
247.936	6.46
248.312	6.78
248.688	6.87
249.064	6.65
249.44	6.62
249.815	6.7
250.191	6.45
250.567	6.67
250.943	7
251.318	6.8
251.694	6.47
252.069	6.35
252.445	6.38
252.82	6.62
253.196	6.45
253.571	6.33
253.947	6.08
254.322	6.21
254.697	5.95
255.073	6.24
255.448	6.74
255.823	6.86
256.198	6.57
256.573	6.44
256.948	6.48
257.323	6.39
257.698	6.24
258.073	6.24
258.448	6
258.823	5.38
259.198	5.48
259.573	5.39
259.948	5.21
260.322	5.15
260.697	5.27
261.072	5.38
261.446	5.28
261.821	5.4
262.195	5.39
262.57	5.34
262.944	5.32
263.319	5.25
263.693	5.18
264.067	5.18
264.442	5.24
264.816	5.13
265.19	5.1
265.564	5.06
265.938	5.11
266.313	5.14
266.687	5.3
267.061	5.22
267.435	5.54
267.809	5.36
268.183	5.15
268.556	4.88
268.93	4.99
269.304	4.87
269.678	4.75
270.051	4.64
270.425	4.79
270.799	4.59
271.172	4.63
271.546	4.67
271.919	4.56
272.293	4.51
272.666	4.5
273.04	4.54
273.413	4.55
273.787	4.58
274.16	4.58
274.533	4.74
274.906	4.58
275.279	4.48
275.653	4.63
276.026	4.73
276.399	4.9
276.772	4.74
277.145	4.84
277.518	4.89
277.891	4.96
278.263	4.92
278.636	5.15
279.009	5.14
279.382	5.1
279.755	5.13
280.127	5.21
280.5	5.36
280.872	5.49
281.245	5.54
281.617	5.6
281.99	5.93
282.362	5.86
282.735	6.04
283.107	6.1
283.479	6.18
283.852	6.34
284.224	6.3
284.596	6.23
284.968	6.33
285.34	6.26
285.713	6.29
286.085	6.24
286.457	6.24
286.829	6.23
287.201	6.19
287.572	6.2
287.944	6.27
288.316	6.29
288.688	6.25
289.06	6.32
289.431	6.19
289.803	6.09
290.175	6.24
290.546	6.21
290.918	6.35
291.289	6.22
291.661	6.17
292.032	6.3
292.403	6.35
292.775	6.33
293.146	6.51
293.517	6.48
293.889	6.67
294.26	6.69
294.631	6.76
295.002	6.83
295.373	6.75
295.744	6.7
296.115	6.72
296.486	6.78
296.857	6.81
297.228	6.86
297.599	6.88
297.97	6.81
298.34	7.03
298.711	6.96
299.082	7.15
299.452	7.17
299.823	6.98
300.194	7.2
300.564	7.13
300.935	7.12
301.305	7.3
301.676	7.21
302.046	7.11
302.416	7.11
302.787	7.16
303.157	7.35
303.527	7.58
303.897	7.68
304.267	7.85
304.637	7.65
305.008	7.68
305.378	7.75
305.748	7.84
306.117	7.66
306.487	7.68
306.857	7.69
307.227	7.79
307.597	7.86
307.967	7.78
308.336	7.89
308.706	7.98
309.076	8.11
309.445	8.22
309.815	8.43
310.184	8.5
310.554	8.59
310.923	8.63
311.293	8.52
311.662	8.44
312.031	8.2
312.401	8.44
312.77	8.49
313.139	8.57
313.508	8.49
313.877	8.56
314.246	8.56
314.616	8.71
314.985	8.62
315.353	8.7
315.722	8.79
316.091	8.91
316.46	8.81
316.829	8.76
317.198	8.85
317.567	9
317.935	9.03
318.304	9.24
318.672	9.31
319.041	9.38
319.41	9.3
319.778	9.67
320.147	9.61
320.515	9.62
320.883	9.39
321.252	9.66
321.62	9.74
321.988	9.82
322.357	9.63
322.725	9.72
323.093	9.55
323.461	9.67
323.829	9.64
324.197	9.78
324.565	9.78
324.933	9.68
325.301	9.45
325.669	9.38
326.037	9.11
326.405	9.06
326.772	9.02
327.14	8.97
327.508	8.83
327.875	8.84
328.243	8.99
328.61	9.09
328.978	9.01
329.346	8.86
329.713	8.99
330.08	9.22
330.448	9.3
330.815	9.43
331.182	9.31
331.55	9.47
331.917	9.44
332.284	9.41
332.651	9.48
333.018	9.62
333.385	9.6
333.752	9.77
334.119	9.74
334.486	9.83
334.853	9.98
335.22	10.06
335.587	9.86
335.954	9.68
336.32	9.7
336.687	9.66
337.054	9.79
337.42	9.76
337.787	9.51
338.153	9.59
338.52	9.62
338.886	9.74
339.253	9.74
339.619	9.74
339.986	9.57
340.352	9.6
340.718	9.57
341.084	9.69
341.451	9.75
341.817	9.83
342.183	9.76
342.549	9.94
342.915	9.88
343.281	10.03
343.647	10.21
344.013	10.27
344.379	10.28
344.745	10.34
345.11	10.22
345.476	10.47
345.842	10.47
346.208	10.52
346.573	10.51
346.939	10.46
347.304	10.53
347.67	10.62
348.035	10.62
348.401	10.71
348.766	10.72
349.132	10.64
349.497	10.57
349.862	10.68
350.228	10.58
350.593	10.66
350.958	10.63
351.323	10.61
351.688	10.64
352.053	10.55
352.418	10.52
352.783	10.58
353.148	10.38
353.513	10.35
353.878	10.33
354.243	10.22
354.608	10.31
354.972	10.14
355.337	10.23
355.702	10.16
356.066	10.06
356.431	9.92
356.795	9.91
357.16	9.91
357.524	9.83
357.889	9.76
358.253	9.79
358.618	9.84
358.982	9.77
359.346	9.68
359.71	9.74
360.075	9.69
360.439	9.68
360.803	9.67
361.167	9.58
361.531	9.51
361.895	9.55
362.259	9.42
362.623	9.47
362.987	9.4
363.351	9.33
363.714	9.35
364.078	9.41
364.442	9.38
364.806	9.39
365.169	9.36
365.533	9.35
365.896	9.31
366.26	9.17
366.623	9.07
366.987	9.06
367.35	9.01
367.714	9.02
368.077	8.88
368.44	8.89
368.803	8.85
369.167	8.91
369.53	8.86
369.893	8.91
370.256	8.9
370.619	8.86
370.982	8.82
371.345	8.75
371.708	8.63
372.071	8.6
372.434	8.49
372.797	8.43
373.159	8.34
373.522	8.3
373.885	8.4
374.247	8.47
374.61	8.45
374.973	8.41
375.335	8.29
375.698	8.32
376.06	8.34
376.423	8.29
376.785	8.24
377.147	8.25
377.51	8.16
377.872	8.16
378.234	8.16
378.596	8.22
378.958	8.23
379.321	8.18
379.683	8.21
380.045	8.22
380.407	8.24
380.769	8.25
381.13	8.13
381.492	8.06
381.854	8
382.216	7.96
382.578	7.94
382.939	7.94
383.301	7.93
383.663	7.86
384.024	7.82
384.386	7.82
384.747	7.72
385.109	7.7
385.47	7.68
385.832	7.6
386.193	7.54
386.554	7.43
386.916	7.44
387.277	7.37
387.638	7.39
387.999	7.35
388.36	7.3
388.721	7.33
389.082	7.29
389.443	7.21
389.804	7.17
390.165	7.12
390.526	7.1
390.887	7.05
391.248	7.02
391.609	7.04
391.969	6.99
392.33	6.95
392.691	6.88
393.051	6.81
393.412	6.81
393.772	6.8
394.133	6.8
394.493	6.74
394.854	6.76
395.214	6.68
395.574	6.67
395.935	6.65
396.295	6.61
396.655	6.59
397.015	6.59
397.376	6.56
397.736	6.52
398.096	6.5
398.456	6.45
398.816	6.41
399.176	6.39
399.535	6.35
399.895	6.34
400.255	6.36
400.615	6.33
400.975	6.29
401.334	6.24
401.694	6.29
402.054	6.31
402.413	6.22
402.773	6.22
403.132	6.14
403.492	6.14
403.851	6.12
404.211	6.11
404.57	6.09
404.929	6.05
405.288	6.09
405.648	6.08
406.007	6.07
406.366	6.07
406.725	5.98
407.084	5.98
407.443	5.98
407.802	5.94
408.161	5.9
408.52	5.91
408.879	5.89
409.238	5.87
409.596	5.85
409.955	5.85
410.314	5.81
410.673	5.81
411.031	5.79
411.39	5.73
411.748	5.72
412.107	5.73
412.465	5.73
412.824	5.68
413.182	5.66
413.54	5.7
413.899	5.65
414.257	5.67
414.615	5.66
414.974	5.66
415.332	5.66
415.69	5.67
416.048	5.64
416.406	5.61
416.764	5.56
417.122	5.52
417.48	5.53
417.838	5.52
418.195	5.51
418.553	5.49
418.911	5.47
419.269	5.45
419.626	5.43
419.984	5.42
420.342	5.42
420.699	5.39
421.057	5.35
421.414	5.36
421.772	5.35
422.129	5.32
422.486	5.3
422.844	5.3
423.201	5.28
423.558	5.27
423.915	5.28
424.273	5.25
424.63	5.25
424.987	5.21
425.344	5.2
425.701	5.2
426.058	5.21
426.415	5.21
426.772	5.21
427.128	5.19
427.485	5.19
427.842	5.16
428.199	5.17
428.555	5.16
428.912	5.16
429.269	5.15
429.625	5.15
429.982	5.14
430.338	5.13
430.695	5.12
431.051	5.12
431.407	5.13
431.764	5.15
432.12	5.15
432.476	5.19
432.832	5.19
433.189	5.17
433.545	5.15
433.901	5.17
434.257	5.16
434.613	5.14
434.969	5.15
435.325	5.18
435.681	5.17
436.036	5.18
436.392	5.17
436.748	5.19
437.104	5.16
437.459	5.15
437.815	5.15
438.171	5.16
438.526	5.14
438.882	5.11
439.237	5.12
439.593	5.14
439.948	5.11
440.304	5.09
440.659	5.09
441.014	5.09
441.369	5.05
441.725	5.04
442.08	5.04
442.435	5.04
442.79	5.03
443.145	5.02
443.5	5
443.855	4.97
444.21	4.94
444.565	4.94
444.92	4.94
445.275	4.93
445.629	4.93
445.984	4.93
446.339	4.93
446.693	4.92
447.048	4.89
447.403	4.9
447.757	4.89
448.112	4.89
448.466	4.9
448.82	4.91
449.175	4.9
449.529	4.91
449.883	4.89
450.238	4.87
450.592	4.88
450.946	4.87
451.3	4.88
451.654	4.91
452.008	4.92
452.362	4.9
452.716	4.9
453.07	4.89
453.424	4.89
453.778	4.87
454.132	4.86
454.486	4.88
454.839	4.88
455.193	4.88
455.547	4.88
455.9	4.9
456.254	4.89
456.607	4.91
456.961	4.9
457.314	4.91
457.668	4.91
458.021	4.89
458.375	4.9
458.728	4.91
459.081	4.91
459.434	4.91
459.787	4.92
460.141	4.92
460.494	4.93
460.847	4.93
461.2	4.94
461.553	4.95
461.906	4.94
462.259	4.94
462.611	4.95
462.964	4.96
463.317	4.92
463.67	4.94
464.022	4.93
464.375	4.94
464.728	4.93
465.08	4.95
465.433	4.98
465.785	4.99
466.138	4.99
466.49	5
466.843	5.01
467.195	5.04
467.547	5.05
467.899	5.05
468.252	5.06
468.604	5.07
468.956	5.1
469.308	5.08
469.66	5.08
470.012	5.09
470.364	5.11
470.716	5.16
471.068	5.17
471.42	5.16
471.772	5.19
472.123	5.21
472.475	5.22
472.827	5.21
473.178	5.21
473.53	5.24
473.882	5.24
474.233	5.23
474.585	5.19
474.936	5.2
475.288	5.2
475.639	5.22
475.99	5.22
476.342	5.22
476.693	5.23
477.044	5.22
477.395	5.2
477.746	5.15
478.097	5.15
478.448	5.16
478.8	5.14
479.15	5.11
479.501	5.1
479.852	5.08
480.203	5.1
480.554	5.1
480.905	5.08
481.255	5.07
481.606	5.1
481.957	5.12
482.307	5.11
482.658	5.11
483.009	5.11
483.359	5.11
483.709	5.1
484.06	5.11
484.41	5.12
484.761	5.13
485.111	5.14
485.461	5.14
485.811	5.13
486.162	5.15
486.512	5.16
486.862	5.18
487.212	5.21
487.562	5.2
487.912	5.2
488.262	5.22
488.612	5.23
488.961	5.23
489.311	5.24
489.661	5.25
490.011	5.27
490.36	5.28
490.71	5.28
491.06	5.3
491.409	5.31
491.759	5.31
492.108	5.32
492.458	5.36
492.807	5.37
493.157	5.39
493.506	5.42
493.855	5.43
494.204	5.41
494.554	5.4
494.903	5.44
495.252	5.46
495.601	5.48
495.95	5.5
496.299	5.51
496.648	5.55
496.997	5.57
497.346	5.61
497.695	5.61
498.043	5.64
498.392	5.67
498.741	5.7
499.09	5.72
499.438	5.76
499.787	5.78
500.135	5.83
500.484	5.85
500.832	5.86
501.181	5.9
501.529	5.97
501.878	6.01
502.226	6.04
502.574	6.06
502.923	6.08
503.271	6.13
503.619	6.14
503.967	6.15
504.315	6.19
504.663	6.22
505.011	6.26
505.359	6.28
505.707	6.33
506.055	6.36
506.403	6.4
506.751	6.44
507.098	6.45
507.446	6.48
507.794	6.54
508.141	6.6
508.489	6.65
508.837	6.68
509.184	6.75
509.531	6.78
509.879	6.83
510.226	6.87
510.574	6.92
510.921	6.96
511.268	7.02
511.616	7.06
511.963	7.08
512.31	7.15
512.657	7.21
513.004	7.24
513.351	7.29
513.698	7.33
514.045	7.39
514.392	7.46
514.739	7.49
515.086	7.54
515.432	7.59
515.779	7.63
516.126	7.69
516.473	7.72
516.819	7.77
517.166	7.82
517.512	7.86
517.859	7.89
518.205	7.95
518.552	8.01
518.898	8.06
519.245	8.12
519.591	8.18
519.937	8.2
520.283	8.26
520.629	8.31
520.976	8.39
521.322	8.44
521.668	8.5
522.014	8.56
522.36	8.62
522.706	8.69
523.052	8.8
523.398	8.86
523.743	8.95
524.089	9.05
524.435	9.15
524.781	9.24
525.126	9.33
525.472	9.4
525.817	9.47
526.163	9.54
526.509	9.6
526.854	9.65
527.199	9.75
527.545	9.81
527.89	9.87
528.235	9.95
528.581	10.02
528.926	10.07
529.271	10.14
529.616	10.22
529.961	10.28
530.306	10.36
530.651	10.42
530.996	10.51
531.341	10.58
531.686	10.67
532.031	10.75
532.376	10.84
532.721	10.94
533.065	11.05
533.41	11.16
533.755	11.27
534.099	11.39
534.444	11.47
534.788	11.57
535.133	11.71
535.477	11.8
535.822	11.92
536.166	12.08
536.51	12.21
536.855	12.36
537.199	12.51
537.543	12.65
537.887	12.83
538.231	12.99
538.576	13.19
538.92	13.35
539.264	13.53
539.608	13.69
539.951	13.83
540.295	13.98
540.639	14.12
540.983	14.26
541.327	14.41
541.671	14.54
542.014	14.72
542.358	14.86
542.701	15.01
543.045	15.17
543.389	15.32
543.732	15.48
544.075	15.64
544.419	15.81
544.762	15.98
545.105	16.19
545.449	16.38
545.792	16.58
546.135	16.79
546.478	17.02
546.821	17.26
547.165	17.51
547.508	17.76
547.851	18.02
548.194	18.3
548.536	18.54
548.879	18.82
549.222	19.08
549.565	19.34
549.908	19.6
550.25	19.86
550.593	20.14
550.936	20.46
551.278	20.73
551.621	21.04
551.963	21.38
552.306	21.65
552.648	21.9
552.991	22.14
553.333	22.41
553.675	22.66
554.017	22.92
554.36	23.16
554.702	23.43
555.044	23.73
555.386	23.97
555.728	24.29
556.07	24.6
556.412	24.93
556.754	25.18
557.096	25.48
557.438	25.81
557.78	26.12
558.121	26.45
558.463	26.79
558.805	27.11
559.147	27.37
559.488	27.73
559.83	28.09
560.171	28.42
560.513	28.79
560.854	29.13
561.196	29.5
561.537	29.83
561.878	30.15
562.22	30.48
562.561	30.83
562.902	31.13
563.243	31.43
563.584	31.75
563.925	32.12
564.266	32.45
564.607	32.73
564.948	33.04
565.289	33.3
565.63	33.59
565.971	33.85
566.312	34.14
566.653	34.39
566.993	34.66
567.334	34.93
567.675	35.19
568.015	35.43
568.356	35.7
568.696	36.02
569.037	36.3
569.377	36.53
569.718	36.8
570.058	37.05
570.398	37.33
570.739	37.57
571.079	37.83
571.419	38.1
571.759	38.37
572.099	38.58
572.439	38.84
572.779	39.11
573.119	39.39
573.459	39.58
573.799	39.8
574.139	40.04
574.479	40.28
574.819	40.51
575.158	40.79
575.498	40.91
575.838	41.15
576.177	41.31
576.517	41.51
576.856	41.73
577.196	41.98
577.535	42.21
577.875	42.49
578.214	42.75
578.553	42.96
578.893	43.14
579.232	43.37
579.571	43.58
579.91	43.73
580.25	43.96
580.589	44.29
580.928	44.47
581.267	44.7
581.606	44.96
581.945	45.12
582.283	45.29
582.622	45.59
582.961	45.7
583.3	45.98
583.639	46.22
583.977	46.47
584.316	46.58
584.654	46.75
584.993	46.85
585.332	46.95
585.67	47.17
586.008	47.44
586.347	47.56
586.685	47.73
587.024	47.96
587.362	48.05
587.7	48.17
588.038	48.44
588.376	48.66
588.715	48.83
589.053	48.98
589.391	49.12
589.729	49.2
590.067	49.37
590.404	49.52
590.742	49.66
591.08	49.72
591.418	50
591.756	50.13
592.093	50.22
592.431	50.42
592.769	50.56
593.106	50.63
593.444	50.84
593.781	50.93
594.119	51.1
594.456	51.32
594.793	51.42
595.131	51.49
595.468	51.49
595.805	51.57
596.143	51.69
596.48	51.86
596.817	52.1
597.154	52.19
597.491	52.28
597.828	52.39
598.165	52.54
598.502	52.52
598.839	52.66
599.176	52.86
599.512	53.02
599.849	53.07
600.186	53.28
600.523	53.39
600.859	53.53
601.196	53.55
601.532	53.53
601.869	53.56
602.205	53.69
602.542	53.74
602.878	53.82
603.215	53.87
603.551	53.83
603.887	53.82
604.223	53.96
604.56	54.06
604.896	54.15
605.232	54.17
605.568	54.28
605.904	54.28
606.24	54.27
606.576	54.23
606.912	54.38
607.248	54.45
607.583	54.57
607.919	54.58
608.255	54.7
608.591	54.85
608.926	54.95
609.262	54.95
609.597	55.11
609.933	55.17
610.268	55.34
610.604	55.41
610.939	55.45
611.275	55.45
611.61	55.41
611.945	55.42
612.281	55.54
612.616	55.63
612.951	55.75
613.286	55.93
613.621	56.01
613.956	55.96
614.291	55.98
614.626	56
614.961	56.19
615.296	56.25
615.631	56.3
615.966	56.36
616.3	56.5
616.635	56.47
616.97	56.6
617.304	56.57
617.639	56.68
617.973	56.73
618.308	56.74
618.642	56.85
618.977	56.88
619.311	56.99
619.646	57.16
619.98	57.18
620.314	57.2
620.648	57.35
620.983	57.39
621.317	57.41
621.651	57.42
621.985	57.44
622.319	57.44
622.653	57.55
622.987	57.65
623.321	57.68
623.655	57.76
623.988	57.76
624.322	57.89
624.656	57.97
624.99	58.04
625.323	58.05
625.657	58.15
625.99	58.21
626.324	58.16
626.657	58.09
626.991	58.14
627.324	58.07
627.658	58.03
627.991	58.1
628.324	58.1
628.657	58.14
628.991	58.14
629.324	58.31
629.657	58.26
629.99	58.25
630.323	58.29
630.656	58.35
630.989	58.35
631.322	58.26
631.655	58.34
631.987	58.46
632.32	58.47
632.653	58.51
632.986	58.61
633.318	58.63
633.651	58.61
633.984	58.7
634.316	58.78
634.649	58.83
634.981	58.86
635.313	58.99
635.646	59.03
635.978	59.16
636.31	59.15
636.643	59.21
636.975	59.15
637.307	59.14
637.639	59.19
637.971	59.09
638.303	59.16
638.635	59.11
638.967	59.1
639.299	59.2
639.631	59.2
639.963	59.23
640.295	59.28
640.626	59.41
640.958	59.42
641.29	59.53
641.621	59.59
641.953	59.58
642.285	59.56
642.616	59.5
642.948	59.5
643.279	59.37
643.61	59.37
643.942	59.62
644.273	59.7
644.604	59.75
644.936	60.08
645.267	60.18
645.598	60.1
645.929	60.14
646.26	60.29
646.591	60.3
646.922	60.19
647.253	60.19
647.584	60.13
647.915	60.04
648.245	60.09
648.576	59.93
648.907	60.02
649.238	60.04
649.568	60.16
649.899	60.1
650.229	60.29
650.56	60.3
650.89	60.32
651.221	60.37
651.551	60.33
651.882	60.26
652.212	60.18
652.542	60.29
652.872	60.23
653.203	60.04
653.533	60.1
653.863	60.22
654.193	60.26
654.523	60.19
654.853	60.33
655.183	60.38
655.513	60.55
655.843	60.6
656.172	60.57
656.502	60.56
656.832	60.57
657.162	60.52
657.491	60.53
657.821	60.53
658.15	60.54
658.48	60.45
658.809	60.44
659.139	60.53
659.468	60.59
659.798	60.67
660.127	60.73
660.456	60.65
660.785	60.58
661.115	60.65
661.444	60.68
661.773	60.62
662.102	60.47
662.431	60.48
662.76	60.45
663.089	60.46
663.418	60.34
663.747	60.41
664.076	60.25
664.404	60.33
664.733	60.21
665.062	60.19
665.39	60.4
665.719	60.36
666.048	60.27
666.376	60.3
666.705	60.3
667.033	60.4
667.362	60.39
667.69	60.42
668.018	60.39
668.347	60.48
668.675	60.62
669.003	60.61
669.331	60.63
669.659	60.62
669.987	60.66
670.315	60.91
670.643	61.03
670.971	61.23
671.299	61.25
671.627	61.31
671.955	61.27
672.283	61.22
672.61	61.19
672.938	61.28
673.266	61.22
673.593	61.02
673.921	61.13
674.249	61.22
674.576	61.25
674.904	61.24
675.231	61.36
675.558	61.4
675.886	61.63
676.213	61.62
676.54	61.77
676.867	61.69
677.195	61.77
677.522	61.61
677.849	61.5
678.176	61.47
678.503	61.38
678.83	61.49
679.157	61.61
679.484	61.67
679.81	61.58
680.137	61.64
680.464	61.78
680.791	61.65
681.117	61.71
681.444	61.75
681.771	61.8
682.097	61.77
682.424	61.57
682.75	61.41
683.077	61.47
683.403	61.48
683.729	61.6
684.056	61.49
684.382	61.51
684.708	61.56
685.034	61.72
685.36	61.87
685.686	61.73
686.012	61.62
686.339	61.57
686.664	61.74
686.99	61.65
687.316	61.69
687.642	61.7
687.968	61.6
688.294	61.53
688.619	61.47
688.945	61.48
689.271	61.68
689.596	61.82
689.922	61.78
690.247	61.67
690.573	61.72
690.898	61.71
691.224	61.75
691.549	61.83
691.874	61.56
692.2	61.52
692.525	61.63
692.85	61.5
693.175	61.63
693.5	61.43
693.825	61.45
694.15	61.49
694.475	61.53
694.8	61.59
695.125	61.73
695.45	61.63
695.775	61.51
696.099	61.5
696.424	61.5
696.749	61.52
697.073	61.46
697.398	61.27
697.723	61.29
698.047	61.26
698.372	61.17
698.696	61.13
699.02	61.2
699.345	61.16
699.669	61.34
699.993	61.24
700.318	61.38
700.642	61.45
700.966	61.4
701.29	61.56
701.614	61.65
701.938	61.62
702.262	61.72
702.586	61.81
702.91	61.68
703.234	61.6
703.557	61.57
703.881	61.59
704.205	61.68
704.529	61.65
704.852	61.61
705.176	61.73
705.499	61.74
705.823	61.58
706.146	61.63
706.47	61.66
706.793	61.77
707.117	61.72
707.44	61.64
707.763	61.58
708.086	61.35
708.409	61.26
708.733	61.29
709.056	61.55
709.379	61.53
709.702	61.55
710.025	61.44
710.348	61.32
710.671	61.28
710.993	61.27
711.316	61.2
711.639	61.36
711.962	61.56
712.284	61.8
712.607	61.91
712.93	61.87
713.252	61.89
713.575	61.65
713.897	61.61
714.22	61.72
714.542	61.83
714.864	61.79
715.187	61.72
715.509	61.58
715.831	61.43
716.153	61.27
716.475	61.41
716.798	61.42
717.12	61.5
717.442	61.66
717.764	61.85
718.085	61.95
718.407	61.86
718.729	61.76
719.051	61.67
719.373	61.61
719.695	61.57
720.016	61.6
720.338	61.87
720.659	62.3
720.981	61.9
721.302	61.81
721.624	62
721.945	62.04
722.267	62.54
722.588	62.34
722.909	62.39
723.231	62.19
723.552	62.59
723.873	62.55
724.194	62.52
724.515	62.36
724.836	62.4
725.157	62.31
725.478	62.17
725.799	62.21
726.12	62.45
726.441	62.59
726.762	62.39
727.083	62.53
727.403	62.39
727.724	62.66
728.045	62.75
728.365	62.74
728.686	62.89
729.006	62.46
729.327	62.94
729.647	63.06
729.967	63.16
730.288	62.82
730.608	63.01
730.928	62.91
731.249	62.95
731.569	63.04
731.889	63.33
732.209	63.52
732.529	63.33
732.849	63.25
733.169	63.38
733.489	63.52
733.809	63.29
734.129	63.12
734.448	63.36
734.768	63.29
735.088	63.36
735.408	63.27
735.727	63.59
736.047	63.22
736.366	63.23
736.686	63.02
737.005	63.34
737.325	63.23
737.644	63.37
737.963	63.29
738.283	63.15
738.602	63.15
738.921	62.96
739.24	63.26
739.56	63.04
739.879	62.7
740.198	62.44
740.517	62.6
740.836	62.7
741.155	62.38
741.473	62.16
741.792	62.23
742.111	62.14
742.43	62.15
742.748	62.16
743.067	62.13
743.386	62.2
743.704	61.79
744.023	61.93
744.341	61.76
744.66	61.63
744.978	61.92
745.297	61.6
745.615	61.4
745.933	61.04
746.252	61.01
746.57	61.27
746.888	61.8
747.206	61.87
747.524	61.53
747.842	61.71
748.16	62.34
748.478	62.02
748.796	62.21
749.114	61.99
749.432	61.73
749.749	61.92
750.067	62.15
750.385	62.91
750.703	62.52
751.02	62.83
751.338	62.99
751.655	62.71
751.973	63.03
752.29	63.16
752.608	63.42
752.925	63.63
753.242	63.5
753.56	62.65
753.877	62.52
754.194	62.74
754.511	62.28
754.828	61.78
755.145	61.88
755.462	61.93
755.779	62.11
756.096	62.26
756.413	61.75
756.73	61.67
757.047	60.91
757.364	61
757.68	61.14
757.997	61.24
758.314	61.26
758.63	61.03
758.947	60.83
759.264	61.02
759.58	61.06
759.896	61.36
760.213	61.73
760.529	61.88
760.846	62.02
761.162	62.29
761.478	62.57
761.794	62.32
762.11	62.16
762.426	62.11
762.743	62.13
763.059	62.83
763.375	63
763.69	63.21
764.006	63.31
764.322	62.96
764.638	63.15
764.954	62.93
765.27	62.71
765.585	62.94
765.901	62.69
766.216	62.52
766.532	62.38
766.848	62.27
767.163	62.09
767.478	62.14
767.794	62.09
768.109	61.91
768.424	62.36
768.74	62.75
769.055	62.37
769.37	62.41
769.685	61.91
770	62.05
770.315	61.87
770.63	61.74
770.945	62.16
771.26	61.91
771.575	61.84
771.89	61.78
772.205	61.82
772.52	61.99
772.834	62.48
773.149	61.9
773.464	61.92
773.778	61.84
774.093	61.28
774.407	61.64
774.722	61.74
775.036	61.72
775.351	61.08
775.665	61.14
775.979	60.81
776.293	61.05
776.608	60.54
776.922	60.76
777.236	61.2
777.55	60.85
777.864	61.34
778.178	62.02
778.492	62.65
778.806	62.34
779.12	62.25
779.434	61.94
779.747	62.25
780.061	61.79
780.375	62.01
780.689	62.65
781.002	63.27
781.316	63.03
781.629	62.81
781.943	63.07
782.256	63.57
782.57	64.02
782.883	63.88
783.196	64.37
783.51	64.02
783.823	63.87
784.136	63.99
784.449	63.72
784.762	63.03
785.075	62.59
785.388	63.41
785.701	63.59
786.014	63.75
786.327	64.08
786.64	65
786.953	65.13
787.266	64.89
787.578	64.65
787.891	65.09
788.204	65.29
788.516	65.2
788.829	65.09
789.141	65.23
789.454	65.26
789.766	65.34
790.079	65.46
790.391	65.59
790.703	65.39
791.016	64.82
791.328	65.16
791.64	65.44
791.952	65.19
792.264	64.93
792.576	65.18
792.888	65.44
793.2	64.94
793.512	64.66
793.824	64.83
794.136	64.03
794.448	63.6
794.76	62.9
795.071	62.89
795.383	62.68
795.695	62.07
796.006	62.12
796.318	61.88
796.629	61.59
796.941	61.46
797.252	61.39
797.564	61.72
797.875	61.96
798.186	62.55
798.497	62.66
798.809	62.49
799.12	61.77
799.431	61.55
799.742	62.12
800.053	62.07
800.364	62.03
800.675	62.38
800.986	62.62
801.297	63.88
801.608	64.39
801.918	64.65
802.229	64.91
802.54	64.43
802.851	64.21
803.161	64.52
803.472	64.19
803.782	64.69
804.093	64.92
804.403	64.58
804.714	64.14
805.024	63.81
805.334	64.32
805.645	64.72
805.955	64.36
806.265	64.64
806.575	65.07
806.885	65.01
807.195	65.09
807.505	65.37
807.815	64.77
808.125	64.25
808.435	64.58
808.745	65.4
809.055	66.44
809.365	65.88
809.674	66.34
809.984	66.4
810.294	66.11
810.603	65.48
810.913	66.06
811.222	65.33
811.532	65.68
811.841	65.74
812.151	66.55
812.46	66.64
812.769	65.77
813.079	65.6
813.388	65.74
813.697	65.85
814.006	65.63
814.315	64.66
814.624	64.89
814.933	64.59
815.242	64.29
815.551	63.94
815.86	65.15
816.169	64.59
816.478	65.46
816.786	65.84
817.095	66.15
817.404	65.71
817.712	66.34
818.021	66.81
818.33	66.1
818.638	64.69
818.947	64.83
819.255	64.49
819.563	64.34
819.872	64.08
820.18	63.46
820.488	63.14
820.796	63.04
821.105	62.87
821.413	63.13
821.721	62.91
822.029	62.68
822.337	62.37
822.645	62.39
822.953	62.3
823.26	62.07
823.568	62.14
823.876	62.1
824.184	61.85
824.491	61.58
824.799	61.65
825.107	61.85
825.414	61.85
825.722	62.1
826.029	62.08
826.337	62.08
826.644	62.18
826.951	62.19
827.259	62.48
827.566	62.7
827.873	62.41
828.18	62.4
828.488	62.38
828.795	62.65
829.102	62.97
829.409	63.07
829.716	63.51
830.023	63.43
830.329	63.58
830.636	64.22
830.943	64.18
831.25	64.42
831.557	64.23
831.863	63.5
832.17	63.12
832.476	63.13
832.783	62.99
833.089	63.09
833.396	63.69
833.702	63.37
834.009	63.09
834.315	63.06
834.621	63.36
834.928	63.18
835.234	63.42
835.54	63.34
835.846	63.23
836.152	62.93
836.458	62.96
836.764	62.73
837.07	62.81
837.376	62.77
837.682	62.63
837.988	62.69
838.293	63.35
838.599	63.39
838.905	63.29
839.211	63.47
839.516	63.36
839.822	63.03
840.127	62.79
840.433	62.8
840.738	63.48
841.044	63.66
841.349	64.34
841.654	63.91
841.959	63.34
842.265	63.81
842.57	63.82
842.875	63.71
843.18	64.33
843.485	62.78
843.79	63.03
844.095	61.88
844.4	63.79
844.705	63.22
845.01	63.64
845.315	64.17
845.619	65.35
845.924	64.79
846.229	63.8
846.533	64.4
846.838	62.1
847.142	61.76
847.447	62.55
847.751	62.7
848.056	60.94
848.36	61.18
848.664	60.89
848.969	61.45
849.273	61.27
849.577	61.06
849.881	62.77
850.185	65.37
850.489	67.1
850.794	66.33
851.097	68.22
851.401	67.01
851.705	64.24
852.009	61.61
852.313	61.57
852.617	62.43
852.92	63.34
853.224	65.6
853.528	65.21
853.831	63.97
854.135	66.75
854.438	68.12
854.742	67.28
855.045	65.58
855.349	65.93
855.652	65.95
855.955	67.69
856.259	67.54
856.562	66.04
856.865	68.96
857.168	67.22
857.471	67.14
857.774	67.25
858.077	68.93
858.38	69.39
858.683	72.15
858.986	72.95
859.289	73.16
859.592	73.13
859.894	74.26
860.197	74.7
860.5	72.82
860.802	71.78
861.105	73.24
861.407	74.95
861.71	72.48
862.012	74.37
862.315	72.26
862.617	69.24
862.919	68.89
863.222	65.96
863.524	66.15
863.826	65.15
864.128	64.44
864.43	64.16
864.732	63.72
865.034	63.65
865.336	63.57
865.638	60.41
865.94	60.51
866.242	58.26
866.544	59.8
866.846	60.21
867.147	63.67
867.449	62.71
867.751	61.89
868.052	66.95
868.354	65.63
868.655	65.15
868.957	66.64
869.258	64.26
869.56	66.24
869.861	66.39
870.162	67.49
870.463	70.18
870.765	72.35
871.066	76.06
871.367	76.85
871.668	76.11
871.969	79.14
872.27	76.36
872.571	77.84
872.872	76.14
873.173	74.77
873.473	70.13
873.774	70.9
874.075	71.01
874.376	63.78
874.676	67.02
874.977	67.9
875.277	67.07
875.578	68.9
875.878	67.86
876.179	66.7
876.479	66.84
876.78	66
877.08	64.83
877.38	62.32
877.68	59.74
877.981	57.99
878.281	57.23
878.581	60.83
