Data from BA17718_Reflection_00006.txt Node
Date: Tue Nov 19 11:47:38 EST 2019
User: vgr7
Spectrometer: USB2G7710
Scans to average: 3
Trigger mode: 4
Integration Time (sec): 2.000000E-2
Electric dark correction enabled: true
Boxcar width: 10
XAxis mode: Wavelengths
Number of Pixels in Spectrum: 2048
>>>>>Begin Spectral Data<<<<<
177.721	190.57
178.105	245.99
178.488	159.91
178.871	101.77
179.254	95
179.636	-1110.53
180.019	53.24
180.402	42.31
180.785	-138.18
181.168	3.69
181.55	34.71
181.933	44.31
182.316	26.01
182.698	14.96
183.081	0.21
183.463	3.85
183.846	35.39
184.228	55.73
184.611	38.72
184.993	36.36
185.376	-32.65
185.758	-127.27
186.14	-550
186.522	-331.82
186.904	-657.14
187.287	1383.02
187.669	-7300
188.051	-3877.27
188.433	1100
188.815	-4364.29
189.197	-1213.83
189.579	-410.95
189.961	-278.17
190.342	-194
190.724	-170.5
191.106	-129.88
191.488	-130.11
191.869	-122.77
192.251	-114.89
192.633	-142.92
193.014	-175.24
193.396	-273.58
193.777	-219.64
194.159	-207.84
194.54	-169.04
194.922	-125.64
195.303	-117.52
195.684	-173.16
196.065	-146.75
196.447	-104.49
196.828	-61.48
197.209	-58.9
197.59	-37.43
197.971	-45.72
198.352	-46.76
198.733	-53.75
199.114	-57.98
199.495	-37.45
199.876	-43.82
200.257	-42.6
200.638	-37.66
201.018	-37.41
201.399	-20.56
201.78	-27.17
202.16	-33.02
202.541	-36.46
202.922	-43.97
203.302	-40.32
203.683	-38.07
204.063	-25.99
204.444	-32.25
204.824	-34.57
205.204	-26.29
205.585	-30.24
205.965	-50.36
206.345	-61.53
206.725	-61.97
207.106	-79.72
207.486	-77.1
207.866	-66.37
208.246	-105.29
208.626	-264.75
209.006	-261.34
209.386	-208.31
209.766	-411.54
210.145	-66.21
210.525	-100
210.905	-94.36
211.285	-31.93
211.664	5
212.044	-5.67
212.424	-10.44
212.803	-35.84
213.183	-51.79
213.562	-125.71
213.942	-44.51
214.321	-64.76
214.701	-40.14
215.08	5.04
215.459	38.34
215.838	13.6
216.218	18.39
216.597	38.91
216.976	22.33
217.355	12.69
217.734	7.74
218.113	-14.44
218.492	-3.2
218.871	-4
219.25	-20.63
219.629	-46.25
220.008	-43.51
220.387	-12.79
220.766	-21.33
221.144	-31.99
221.523	-20.43
221.902	4.79
222.28	27.97
222.659	37.63
223.037	25.35
223.416	14.03
223.794	28.39
224.173	20.7
224.551	13.9
224.929	22.62
225.308	24.06
225.686	18.98
226.064	12.89
226.442	12.41
226.821	5.8
227.199	4.96
227.577	7.02
227.955	9.19
228.333	4.07
228.711	8.16
229.089	6.27
229.467	-1.29
229.845	-6.46
230.222	-4.92
230.6	-8.8
230.978	-5.22
231.356	-4.21
231.733	-6.24
232.111	-3.49
232.488	0.25
232.866	2.51
233.243	4.19
233.621	5.64
233.998	6.6
234.376	5.99
234.753	8.87
235.13	9.14
235.508	8.14
235.885	6.38
236.262	5.13
236.639	4.52
237.016	5.07
237.393	6.3
237.77	6.21
238.147	6.26
238.524	5.58
238.901	4.75
239.278	3.92
239.655	2.8
240.032	3.21
240.409	3.23
240.785	2.06
241.162	2.36
241.539	2.56
241.915	2.63
242.292	2.72
242.668	2.68
243.045	3.02
243.421	3.3
243.798	3.39
244.174	3.66
244.551	3.68
244.927	3.93
245.303	3.98
245.679	4.09
246.056	4.07
246.432	4.04
246.808	4.21
247.184	4.35
247.56	4.36
247.936	4.29
248.312	4.28
248.688	4.52
249.064	4.17
249.44	3.93
249.815	4.05
250.191	4.11
250.567	3.96
250.943	4.04
251.318	4
251.694	4.07
252.069	4.09
252.445	4.21
252.82	4.47
253.196	4.46
253.571	4.57
253.947	4.22
254.322	4.25
254.697	4.38
255.073	4.28
255.448	4.23
255.823	4.19
256.198	4.08
256.573	3.92
256.948	3.96
257.323	4.19
257.698	4.1
258.073	4.1
258.448	4.17
258.823	3.93
259.198	4.03
259.573	3.83
259.948	3.96
260.322	3.88
260.697	3.91
261.072	3.94
261.446	3.76
261.821	3.78
262.195	3.69
262.57	3.64
262.944	3.69
263.319	3.9
263.693	3.85
264.067	3.93
264.442	3.98
264.816	4.26
265.19	4.37
265.564	4.28
265.938	4.14
266.313	4.14
266.687	3.88
267.061	3.86
267.435	4.18
267.809	4.04
268.183	4
268.556	3.95
268.93	4
269.304	4.08
269.678	4.22
270.051	4.46
270.425	4.27
270.799	4.15
271.172	3.86
271.546	4.08
271.919	3.93
272.293	4.03
272.666	3.92
273.04	3.68
273.413	3.68
273.787	3.78
274.16	3.89
274.533	4.15
274.906	3.96
275.279	3.68
275.653	3.64
276.026	3.72
276.399	3.48
276.772	3.51
277.145	3.39
277.518	3.28
277.891	3.16
278.263	3.26
278.636	3.45
279.009	3.68
279.382	3.73
279.755	3.84
280.127	3.77
280.5	3.61
280.872	3.59
281.245	3.52
281.617	3.36
281.99	3.32
282.362	3.26
282.735	3.29
283.107	3.42
283.479	3.57
283.852	3.52
284.224	3.61
284.596	3.47
284.968	3.6
285.34	3.63
285.713	3.63
286.085	3.51
286.457	3.32
286.829	3.35
287.201	3.23
287.572	3.11
287.944	3.08
288.316	3.24
288.688	3.44
289.06	3.57
289.431	3.69
289.803	3.76
290.175	3.86
290.546	3.8
290.918	3.74
291.289	3.51
291.661	3.57
292.032	3.71
292.403	3.73
292.775	3.78
293.146	3.83
293.517	3.73
293.889	3.78
294.26	3.88
294.631	3.84
295.002	3.8
295.373	3.95
295.744	3.9
296.115	3.9
296.486	3.78
296.857	3.74
297.228	3.71
297.599	3.55
297.97	3.41
298.34	3.48
298.711	3.53
299.082	3.66
299.452	3.53
299.823	3.32
300.194	3.32
300.564	3.06
300.935	3.08
301.305	3.06
301.676	3.2
302.046	3.19
302.416	3.25
302.787	3.15
303.157	3.13
303.527	3.21
303.897	3.2
304.267	3.32
304.637	3.19
305.008	3.1
305.378	3.14
305.748	3.26
306.117	3.17
306.487	3.17
306.857	3.06
307.227	3.18
307.597	3.22
307.967	3.3
308.336	3.49
308.706	3.37
309.076	3.52
309.445	3.52
309.815	3.57
310.184	3.49
310.554	3.54
310.923	3.53
311.293	3.45
311.662	3.39
312.031	3.23
312.401	3.27
312.77	3.3
313.139	3.36
313.508	3.29
313.877	3.36
314.246	3.5
314.616	3.59
314.985	3.62
315.353	3.72
315.722	3.79
316.091	3.85
316.46	3.89
316.829	3.79
317.198	3.69
317.567	3.8
317.935	3.77
318.304	3.94
318.672	3.89
319.041	3.95
319.41	3.84
319.778	3.92
320.147	3.96
320.515	4.19
320.883	4.14
321.252	4.18
321.62	4.12
321.988	4
322.357	4.1
322.725	3.94
323.093	3.75
323.461	3.68
323.829	3.77
324.197	3.79
324.565	4
324.933	3.95
325.301	3.71
325.669	3.68
326.037	3.52
326.405	3.61
326.772	3.63
327.14	3.65
327.508	3.6
327.875	3.64
328.243	3.49
328.61	3.51
328.978	3.54
329.346	3.5
329.713	3.52
330.08	3.33
330.448	3.39
330.815	3.5
331.182	3.38
331.55	3.23
331.917	3.18
332.284	3.03
332.651	3.11
333.018	3.16
333.385	3.11
333.752	3.1
334.119	3.09
334.486	3.22
334.853	3.3
335.22	3.31
335.587	3.18
335.954	3.09
336.32	3.19
336.687	3.3
337.054	3.46
337.42	3.36
337.787	3.33
338.153	3.27
338.52	3.42
338.886	3.53
339.253	3.43
339.619	3.53
339.986	3.43
340.352	3.36
340.718	3.41
341.084	3.49
341.451	3.56
341.817	3.35
342.183	3.3
342.549	3.31
342.915	3.27
343.281	3.36
343.647	3.45
344.013	3.32
344.379	3.31
344.745	3.25
345.11	3.31
345.476	3.46
345.842	3.4
346.208	3.35
346.573	3.27
346.939	3.32
347.304	3.24
347.67	3.27
348.035	3.26
348.401	3.29
348.766	3.25
349.132	3.27
349.497	3.4
349.862	3.33
350.228	3.32
350.593	3.34
350.958	3.36
351.323	3.35
351.688	3.4
352.053	3.38
352.418	3.43
352.783	3.51
353.148	3.47
353.513	3.64
353.878	3.57
354.243	3.56
354.608	3.68
354.972	3.67
355.337	3.71
355.702	3.71
356.066	3.69
356.431	3.69
356.795	3.72
357.16	3.71
357.524	3.72
357.889	3.66
358.253	3.67
358.618	3.65
358.982	3.6
359.346	3.57
359.71	3.59
360.075	3.61
360.439	3.58
360.803	3.62
361.167	3.6
361.531	3.62
361.895	3.64
362.259	3.65
362.623	3.68
362.987	3.67
363.351	3.63
363.714	3.59
364.078	3.63
364.442	3.61
364.806	3.63
365.169	3.61
365.533	3.66
365.896	3.74
366.26	3.75
366.623	3.74
366.987	3.83
367.35	3.89
367.714	3.9
368.077	3.86
368.44	3.91
368.803	3.83
369.167	3.76
369.53	3.78
369.893	3.74
370.256	3.71
370.619	3.74
370.982	3.78
371.345	3.84
371.708	3.8
372.071	3.79
372.434	3.72
372.797	3.76
373.159	3.74
373.522	3.7
373.885	3.71
374.247	3.74
374.61	3.73
374.973	3.6
375.335	3.55
375.698	3.52
376.06	3.4
376.423	3.46
376.785	3.52
377.147	3.52
377.51	3.5
377.872	3.54
378.234	3.51
378.596	3.51
378.958	3.45
379.321	3.49
379.683	3.46
380.045	3.46
380.407	3.49
380.769	3.45
381.13	3.45
381.492	3.38
381.854	3.39
382.216	3.38
382.578	3.43
382.939	3.46
383.301	3.5
383.663	3.54
384.024	3.53
384.386	3.56
384.747	3.53
385.109	3.52
385.47	3.49
385.832	3.49
386.193	3.54
386.554	3.53
386.916	3.52
387.277	3.48
387.638	3.54
387.999	3.54
388.36	3.59
388.721	3.54
389.082	3.58
389.443	3.6
389.804	3.62
390.165	3.62
390.526	3.63
390.887	3.64
391.248	3.66
391.609	3.66
391.969	3.65
392.33	3.67
392.691	3.64
393.051	3.65
393.412	3.63
393.772	3.64
394.133	3.64
394.493	3.62
394.854	3.65
395.214	3.64
395.574	3.62
395.935	3.58
396.295	3.6
396.655	3.6
397.015	3.62
397.376	3.61
397.736	3.6
398.096	3.57
398.456	3.55
398.816	3.56
399.176	3.55
399.535	3.53
399.895	3.52
400.255	3.57
400.615	3.58
400.975	3.59
401.334	3.56
401.694	3.59
402.054	3.61
402.413	3.62
402.773	3.61
403.132	3.58
403.492	3.61
403.851	3.61
404.211	3.6
404.57	3.61
404.929	3.6
405.288	3.61
405.648	3.61
406.007	3.59
406.366	3.53
406.725	3.52
407.084	3.54
407.443	3.54
407.802	3.53
408.161	3.53
408.52	3.53
408.879	3.54
409.238	3.53
409.596	3.51
409.955	3.52
410.314	3.5
410.673	3.53
411.031	3.54
411.39	3.53
411.748	3.56
412.107	3.53
412.465	3.53
412.824	3.51
413.182	3.53
413.54	3.54
413.899	3.59
414.257	3.6
414.615	3.58
414.974	3.6
415.332	3.59
415.69	3.6
416.048	3.64
416.406	3.62
416.764	3.65
417.122	3.64
417.48	3.64
417.838	3.67
418.195	3.66
418.553	3.65
418.911	3.66
419.269	3.65
419.626	3.65
419.984	3.64
420.342	3.66
420.699	3.64
421.057	3.66
421.414	3.64
421.772	3.63
422.129	3.62
422.486	3.63
422.844	3.64
423.201	3.64
423.558	3.61
423.915	3.62
424.273	3.61
424.63	3.62
424.987	3.62
425.344	3.6
425.701	3.6
426.058	3.6
426.415	3.59
426.772	3.58
427.128	3.59
427.485	3.61
427.842	3.59
428.199	3.57
428.555	3.58
428.912	3.59
429.269	3.58
429.625	3.59
429.982	3.59
430.338	3.59
430.695	3.55
431.051	3.59
431.407	3.58
431.764	3.55
432.12	3.55
432.476	3.55
432.832	3.54
433.189	3.56
433.545	3.55
433.901	3.55
434.257	3.53
434.613	3.51
434.969	3.51
435.325	3.51
435.681	3.53
436.036	3.5
436.392	3.5
436.748	3.51
437.104	3.5
437.459	3.47
437.815	3.48
438.171	3.49
438.526	3.47
438.882	3.47
439.237	3.49
439.593	3.48
439.948	3.48
440.304	3.48
440.659	3.47
441.014	3.48
441.369	3.48
441.725	3.5
442.08	3.51
442.435	3.52
442.79	3.52
443.145	3.52
443.5	3.52
443.855	3.52
444.21	3.53
444.565	3.53
444.92	3.55
445.275	3.55
445.629	3.54
445.984	3.54
446.339	3.56
446.693	3.55
447.048	3.54
447.403	3.54
447.757	3.55
448.112	3.53
448.466	3.53
448.82	3.53
449.175	3.52
449.529	3.53
449.883	3.5
450.238	3.49
450.592	3.49
450.946	3.49
451.3	3.51
451.654	3.49
452.008	3.5
452.362	3.5
452.716	3.48
453.07	3.49
453.424	3.49
453.778	3.46
454.132	3.45
454.486	3.47
454.839	3.48
455.193	3.48
455.547	3.51
455.9	3.53
456.254	3.52
456.607	3.52
456.961	3.52
457.314	3.52
457.668	3.53
458.021	3.52
458.375	3.52
458.728	3.52
459.081	3.53
459.434	3.52
459.787	3.53
460.141	3.55
460.494	3.55
460.847	3.54
461.2	3.55
461.553	3.57
461.906	3.57
462.259	3.55
462.611	3.54
462.964	3.53
463.317	3.52
463.67	3.54
464.022	3.54
464.375	3.53
464.728	3.56
465.08	3.55
465.433	3.56
465.785	3.58
466.138	3.56
466.49	3.58
466.843	3.58
467.195	3.6
467.547	3.6
467.899	3.62
468.252	3.64
468.604	3.62
468.956	3.62
469.308	3.61
469.66	3.62
470.012	3.64
470.364	3.64
470.716	3.62
471.068	3.62
471.42	3.61
471.772	3.62
472.123	3.63
472.475	3.61
472.827	3.6
473.178	3.59
473.53	3.6
473.882	3.58
474.233	3.55
474.585	3.51
474.936	3.49
475.288	3.47
475.639	3.46
475.99	3.48
476.342	3.52
476.693	3.52
477.044	3.53
477.395	3.52
477.746	3.5
478.097	3.55
478.448	3.55
478.8	3.59
479.15	3.59
479.501	3.56
479.852	3.6
480.203	3.61
480.554	3.62
480.905	3.61
481.255	3.62
481.606	3.65
481.957	3.66
482.307	3.66
482.658	3.66
483.009	3.66
483.359	3.66
483.709	3.65
484.06	3.67
484.41	3.68
484.761	3.68
485.111	3.7
485.461	3.69
485.811	3.69
486.162	3.68
486.512	3.68
486.862	3.69
487.212	3.68
487.562	3.67
487.912	3.66
488.262	3.67
488.612	3.67
488.961	3.67
489.311	3.67
489.661	3.66
490.011	3.67
490.36	3.67
490.71	3.67
491.06	3.66
491.409	3.65
491.759	3.64
492.108	3.63
492.458	3.62
492.807	3.62
493.157	3.63
493.506	3.64
493.855	3.65
494.204	3.65
494.554	3.67
494.903	3.67
495.252	3.68
495.601	3.71
495.95	3.71
496.299	3.71
496.648	3.72
496.997	3.72
497.346	3.73
497.695	3.75
498.043	3.77
498.392	3.78
498.741	3.78
499.09	3.82
499.438	3.83
499.787	3.82
500.135	3.8
500.484	3.8
500.832	3.78
501.181	3.76
501.529	3.77
501.878	3.8
502.226	3.82
502.574	3.84
502.923	3.83
503.271	3.83
503.619	3.82
503.967	3.8
504.315	3.8
504.663	3.8
505.011	3.79
505.359	3.76
505.707	3.76
506.055	3.76
506.403	3.72
506.751	3.72
507.098	3.74
507.446	3.74
507.794	3.77
508.141	3.77
508.489	3.79
508.837	3.76
509.184	3.74
509.531	3.74
509.879	3.72
510.226	3.69
510.574	3.71
510.921	3.71
511.268	3.74
511.616	3.77
511.963	3.78
512.31	3.81
512.657	3.84
513.004	3.83
513.351	3.85
513.698	3.86
514.045	3.88
514.392	3.87
514.739	3.9
515.086	3.9
515.432	3.91
515.779	3.91
516.126	3.95
516.473	3.94
516.819	3.93
517.166	3.96
517.512	4
517.859	4.01
518.205	4.01
518.552	4.02
518.898	3.99
519.245	3.99
519.591	3.98
519.937	3.98
520.283	4.01
520.629	3.99
520.976	4.01
521.322	4.02
521.668	4.03
522.014	4.01
522.36	4
522.706	4
523.052	4.02
523.398	4.02
523.743	4.04
524.089	4.05
524.435	4.04
524.781	4.03
525.126	4.01
525.472	4.02
525.817	4.01
526.163	4.02
526.509	4.03
526.854	4.03
527.199	4.04
527.545	4.04
527.89	4.05
528.235	4.05
528.581	4.04
528.926	4.05
529.271	4.06
529.616	4.07
529.961	4.07
530.306	4.06
530.651	4.05
530.996	4.06
531.341	4.07
531.686	4.08
532.031	4.09
532.376	4.1
532.721	4.11
533.065	4.12
533.41	4.11
533.755	4.13
534.099	4.12
534.444	4.1
534.788	4.09
535.133	4.09
535.477	4.1
535.822	4.09
536.166	4.09
536.51	4.1
536.855	4.09
537.199	4.09
537.543	4.1
537.887	4.1
538.231	4.1
538.576	4.1
538.92	4.11
539.264	4.1
539.608	4.1
539.951	4.1
540.295	4.1
540.639	4.11
540.983	4.11
541.327	4.12
541.671	4.15
542.014	4.18
542.358	4.18
542.701	4.17
543.045	4.19
543.389	4.21
543.732	4.21
544.075	4.2
544.419	4.22
544.762	4.23
545.105	4.23
545.449	4.24
545.792	4.25
546.135	4.21
546.478	4.21
546.821	4.23
547.165	4.22
547.508	4.22
547.851	4.22
548.194	4.21
548.536	4.18
548.879	4.15
549.222	4.13
549.565	4.14
549.908	4.14
550.25	4.11
550.593	4.09
550.936	4.11
551.278	4.15
551.621	4.13
551.963	4.13
552.306	4.15
552.648	4.16
552.991	4.14
553.333	4.16
553.675	4.16
554.017	4.13
554.36	4.16
554.702	4.19
555.044	4.17
555.386	4.18
555.728	4.21
556.07	4.23
556.412	4.24
556.754	4.24
557.096	4.25
557.438	4.24
557.78	4.24
558.121	4.22
558.463	4.18
558.805	4.18
559.147	4.19
559.488	4.19
559.83	4.18
560.171	4.18
560.513	4.21
560.854	4.23
561.196	4.27
561.537	4.27
561.878	4.24
562.22	4.27
562.561	4.28
562.902	4.28
563.243	4.28
563.584	4.25
563.925	4.26
564.266	4.26
564.607	4.29
564.948	4.28
565.289	4.29
565.63	4.29
565.971	4.3
566.312	4.24
566.653	4.22
566.993	4.2
567.334	4.23
567.675	4.24
568.015	4.24
568.356	4.22
568.696	4.22
569.037	4.23
569.377	4.23
569.718	4.22
570.058	4.23
570.398	4.21
570.739	4.21
571.079	4.21
571.419	4.19
571.759	4.18
572.099	4.2
572.439	4.19
572.779	4.21
573.119	4.23
573.459	4.25
573.799	4.25
574.139	4.28
574.479	4.3
574.819	4.29
575.158	4.27
575.498	4.26
575.838	4.23
576.177	4.24
576.517	4.24
576.856	4.25
577.196	4.26
577.535	4.28
577.875	4.31
578.214	4.32
578.553	4.33
578.893	4.36
579.232	4.37
579.571	4.41
579.91	4.41
580.25	4.41
580.589	4.45
580.928	4.43
581.267	4.4
581.606	4.34
581.945	4.33
582.283	4.33
582.622	4.32
582.961	4.35
583.3	4.33
583.639	4.32
583.977	4.32
584.316	4.32
584.654	4.36
584.993	4.34
585.332	4.32
585.67	4.38
586.008	4.33
586.347	4.31
586.685	4.25
587.024	4.25
587.362	4.27
587.7	4.25
588.038	4.32
588.376	4.33
588.715	4.34
589.053	4.35
589.391	4.39
589.729	4.37
590.067	4.37
590.404	4.37
590.742	4.4
591.08	4.41
591.418	4.42
591.756	4.38
592.093	4.4
592.431	4.44
592.769	4.4
593.106	4.45
593.444	4.49
593.781	4.49
594.119	4.47
594.456	4.44
594.793	4.45
595.131	4.44
595.468	4.43
595.805	4.46
596.143	4.48
596.48	4.49
596.817	4.53
597.154	4.54
597.491	4.56
597.828	4.52
598.165	4.48
598.502	4.46
598.839	4.46
599.176	4.48
599.512	4.46
599.849	4.49
600.186	4.46
600.523	4.47
600.859	4.49
601.196	4.56
601.532	4.57
601.869	4.58
602.205	4.59
602.542	4.58
602.878	4.6
603.215	4.61
603.551	4.59
603.887	4.53
604.223	4.54
604.56	4.51
604.896	4.55
605.232	4.58
605.568	4.57
605.904	4.56
606.24	4.56
606.576	4.59
606.912	4.55
607.248	4.57
607.583	4.55
607.919	4.56
608.255	4.51
608.591	4.49
608.926	4.48
609.262	4.48
609.597	4.5
609.933	4.47
610.268	4.44
610.604	4.43
610.939	4.48
611.275	4.48
611.61	4.52
611.945	4.49
612.281	4.47
612.616	4.5
612.951	4.55
613.286	4.53
613.621	4.54
613.956	4.59
614.291	4.56
614.626	4.55
614.961	4.59
615.296	4.62
615.631	4.63
615.966	4.63
616.3	4.66
616.635	4.65
616.97	4.63
617.304	4.63
617.639	4.64
617.973	4.66
618.308	4.66
618.642	4.65
618.977	4.66
619.311	4.68
619.646	4.65
619.98	4.6
620.314	4.57
620.648	4.54
620.983	4.48
621.317	4.55
621.651	4.56
621.985	4.52
622.319	4.46
622.653	4.49
622.987	4.5
623.321	4.49
623.655	4.51
623.988	4.58
624.322	4.63
624.656	4.7
624.99	4.65
625.323	4.62
625.657	4.66
625.99	4.67
626.324	4.65
626.657	4.69
626.991	4.68
627.324	4.71
627.658	4.7
627.991	4.76
628.324	4.71
628.657	4.7
628.991	4.65
629.324	4.67
629.657	4.62
629.99	4.64
630.323	4.62
630.656	4.67
630.989	4.62
631.322	4.6
631.655	4.54
631.987	4.58
632.32	4.65
632.653	4.59
632.986	4.61
633.318	4.63
633.651	4.63
633.984	4.62
634.316	4.64
634.649	4.61
634.981	4.59
635.313	4.67
635.646	4.74
635.978	4.79
636.31	4.77
636.643	4.82
636.975	4.8
637.307	4.82
637.639	4.76
637.971	4.78
638.303	4.83
638.635	4.79
638.967	4.77
639.299	4.73
639.631	4.77
639.963	4.76
640.295	4.77
640.626	4.77
640.958	4.8
641.29	4.88
641.621	4.92
641.953	4.91
642.285	4.91
642.616	4.87
642.948	4.91
643.279	4.96
643.61	4.97
643.942	5.01
644.273	5.02
644.604	5.02
644.936	5
645.267	4.96
645.598	4.96
645.929	5.01
646.26	5.01
646.591	5.02
646.922	5.01
647.253	5
647.584	4.97
647.915	4.99
648.245	4.92
648.576	4.91
648.907	4.9
649.238	4.86
649.568	4.82
649.899	4.82
650.229	4.87
650.56	4.89
650.89	4.92
651.221	4.94
651.551	5.05
651.882	5.06
652.212	5.07
652.542	5.19
652.872	5.19
653.203	5.21
653.533	5.23
653.863	5.26
654.193	5.23
654.523	5.22
654.853	5.24
655.183	5.19
655.513	5.18
655.843	5.18
656.172	5.22
656.502	5.2
656.832	5.17
657.162	5.19
657.491	5.19
657.821	5.13
658.15	5.09
658.48	4.99
658.809	5.01
659.139	5.01
659.468	5.01
659.798	5.03
660.127	5.02
660.456	5
660.785	4.97
661.115	5.05
661.444	5.1
661.773	5.12
662.102	5.17
662.431	5.23
662.76	5.27
663.089	5.31
663.418	5.38
663.747	5.44
664.076	5.42
664.404	5.4
664.733	5.38
665.062	5.45
665.39	5.43
665.719	5.48
666.048	5.47
666.376	5.41
666.705	5.35
667.033	5.37
667.362	5.32
667.69	5.4
668.018	5.44
668.347	5.41
668.675	5.42
669.003	5.44
669.331	5.46
669.659	5.39
669.987	5.23
670.315	5.14
670.643	5.1
670.971	5.09
671.299	5.12
671.627	5.08
671.955	4.98
672.283	5.01
672.61	4.99
672.938	5.02
673.266	5
673.593	5.01
673.921	5.01
674.249	5.07
674.576	5.01
674.904	4.94
675.231	4.98
675.558	4.95
675.886	4.96
676.213	4.81
676.54	4.93
676.867	4.94
677.195	5.06
677.522	5.08
677.849	5.17
678.176	5.26
678.503	5.21
678.83	5.32
679.157	5.36
679.484	5.28
679.81	5.32
680.137	5.47
680.464	5.48
680.791	5.52
681.117	5.65
681.444	5.64
681.771	5.65
682.097	5.64
682.424	5.61
682.75	5.58
683.077	5.68
683.403	5.62
683.729	5.63
684.056	5.66
684.382	5.68
684.708	5.56
685.034	5.46
685.36	5.53
685.686	5.45
686.012	5.44
686.339	5.46
686.664	5.44
686.99	5.22
687.316	5.19
687.642	5.18
687.968	5.08
688.294	5.07
688.619	5.06
688.945	5.02
689.271	5
689.596	5.04
689.922	4.92
690.247	4.91
690.573	4.91
690.898	4.93
691.224	4.79
691.549	4.9
691.874	4.98
692.2	5.01
692.525	5.06
692.85	5.07
693.175	5.17
693.5	5.07
693.825	5.25
694.15	5.24
694.475	5.32
694.8	5.32
695.125	5.35
695.45	5.38
695.775	5.4
696.099	5.54
696.424	5.48
696.749	5.64
697.073	5.79
697.398	5.83
697.723	5.85
698.047	5.94
698.372	5.9
698.696	5.79
699.02	5.79
699.345	5.79
699.669	5.77
699.993	5.75
700.318	5.9
700.642	5.77
700.966	5.75
701.29	5.66
701.614	5.67
701.938	5.59
702.262	5.48
702.586	5.52
702.91	5.32
703.234	5.27
703.557	5.23
703.881	5.11
704.205	5.17
704.529	5.19
704.852	5.2
705.176	5.25
705.499	5.21
705.823	5.31
706.146	5.26
706.47	5.46
706.793	5.56
707.117	5.45
707.44	5.41
707.763	5.43
708.086	5.49
708.409	5.42
708.733	5.48
709.056	5.5
709.379	5.63
709.702	5.77
710.025	6
710.348	5.99
710.671	5.99
710.993	5.87
711.316	5.94
711.639	5.85
711.962	5.82
712.284	5.92
712.607	5.9
712.93	5.94
713.252	5.82
713.575	5.7
713.897	5.73
714.22	5.9
714.542	5.95
714.864	5.92
715.187	5.95
715.509	6
715.831	6.11
716.153	5.9
716.475	6.02
716.798	5.87
717.12	5.91
717.442	6
717.764	6.15
718.085	6.06
718.407	6.2
718.729	6.29
719.051	6.36
719.373	6.34
719.695	6.29
720.016	6.26
720.338	6.41
720.659	6.41
720.981	6.46
721.302	6.7
721.624	6.69
721.945	6.71
722.267	6.8
722.588	6.66
722.909	6.97
723.231	6.86
723.552	6.86
723.873	6.84
724.194	6.85
724.515	6.58
724.836	6.47
725.157	6.42
725.478	6.23
725.799	6.16
726.12	6.15
726.441	6.15
726.762	6.18
727.083	6.22
727.403	6.15
727.724	6.04
728.045	5.87
728.365	6.09
728.686	6.26
729.006	6.23
729.327	6.39
729.647	6.21
729.967	6.18
730.288	6.47
730.608	6.57
730.928	6.51
731.249	6.71
731.569	6.64
731.889	6.62
732.209	6.63
732.529	6.58
732.849	6.69
733.169	6.64
733.489	6.6
733.809	6.6
734.129	6.67
734.448	6.68
734.768	6.66
735.088	6.52
735.408	6.47
735.727	6.44
736.047	6.5
736.366	6.42
736.686	6.38
737.005	6.18
737.325	5.98
737.644	5.78
737.963	5.69
738.283	5.66
738.602	5.74
738.921	5.97
739.24	6.13
739.56	6.09
739.879	6.21
740.198	6.28
740.517	6.08
740.836	6.11
741.155	6.19
741.473	6.27
741.792	6.42
742.111	6.38
742.43	6.37
742.748	6.26
743.067	6.44
743.386	6.58
743.704	6.58
744.023	6.81
744.341	7.1
744.66	7.01
744.978	7.31
745.297	7.02
745.615	6.67
745.933	6.32
746.252	6.2
746.57	6.41
746.888	6.65
747.206	6.72
747.524	6.76
747.842	6.71
748.16	6.7
748.478	6.56
748.796	6.46
749.114	6.47
749.432	6.59
749.749	6.32
750.067	6.44
750.385	6.37
750.703	6.03
751.02	6.2
751.338	6.41
751.655	6.48
751.973	6.68
752.29	6.95
752.608	7.14
752.925	7.17
753.242	7.22
753.56	6.87
753.877	6.89
754.194	6.8
754.511	6.73
754.828	6.63
755.145	6.46
755.462	6.47
755.779	6.63
756.096	6.63
756.413	6.87
756.73	6.73
757.047	6.55
757.364	6.9
757.68	6.57
757.997	6.56
758.314	6.44
758.63	6.77
758.947	6.58
759.264	6.6
759.58	6.84
759.896	6.79
760.213	6.95
760.529	7.12
760.846	7.5
761.162	7.6
761.478	7.77
761.794	7.91
762.11	7.91
762.426	7.99
762.743	7.99
763.059	8.16
763.375	8.23
763.69	8.32
764.006	8.24
764.322	8.19
764.638	8.21
764.954	8.36
765.27	8.3
765.585	8.51
765.901	8.5
766.216	8.68
766.532	8.44
766.848	8.47
767.163	8.23
767.478	7.9
767.794	7.91
768.109	7.8
768.424	7.78
768.74	7.93
769.055	7.78
769.37	7.48
769.685	7.4
770	7.07
770.315	7.31
770.63	7.36
770.945	7.72
771.26	7.54
771.575	7.15
771.89	6.72
772.205	6.27
772.52	6.2
772.834	5.72
773.149	6.12
773.464	6.07
773.778	6.27
774.093	6.13
774.407	5.9
774.722	5.68
775.036	5.54
775.351	5.89
775.665	5.89
775.979	6.44
776.293	6.22
776.608	6.27
776.922	6.24
777.236	6.05
777.55	5.9
777.864	5.84
778.178	5.88
778.492	6
778.806	6.44
779.12	6.3
779.434	6.46
779.747	6.47
780.061	6.23
780.375	6.51
780.689	6.95
781.002	7.26
781.316	7.51
781.629	7.66
781.943	7.2
782.256	7.08
782.57	6.74
782.883	6.61
783.196	6.66
783.51	6.83
783.823	7.29
784.136	6.83
784.449	6.97
784.762	7.41
785.075	7.75
785.388	7.63
785.701	8
786.014	7.72
786.327	6.91
786.64	7.08
786.953	6.71
787.266	6.44
787.578	6.45
787.891	6.51
788.204	6.02
788.516	5.98
788.829	6.32
789.141	6.53
789.454	6.7
789.766	7.05
790.079	7.03
790.391	6.83
790.703	7.42
791.016	7.75
791.328	7.36
791.64	7.57
791.952	8.28
792.264	8.35
792.576	8.82
792.888	9.43
793.2	9.2
793.512	9.5
793.824	9.72
794.136	8.99
794.448	9.01
794.76	9.38
795.071	9.25
795.383	8.71
795.695	8.83
796.006	8.61
796.318	8.58
796.629	8.26
796.941	8.23
797.252	8.05
797.564	8.14
797.875	8.25
798.186	7.52
798.497	7
798.809	6.96
799.12	6.29
799.431	6.22
799.742	6.77
800.053	6.42
800.364	6.41
800.675	7.26
800.986	7.13
801.297	7.28
801.608	7.42
801.918	7.69
802.229	7.74
802.54	7.9
802.851	8.04
803.161	7.95
803.472	7.72
803.782	7.69
804.093	7.27
804.403	6.9
804.714	7.49
805.024	7.43
805.334	7.42
805.645	8
805.955	8.57
806.265	8.52
806.575	8.47
806.885	8.48
807.195	7.94
807.505	7.42
807.815	7.36
808.125	7.15
808.435	7.12
808.745	7.36
809.055	7.21
809.365	7.25
809.674	7.45
809.984	7.59
810.294	7.95
810.603	7.4
810.913	7.37
811.222	7.05
811.532	7.53
811.841	7.53
812.151	8.22
812.46	7.43
812.769	7.26
813.079	8.57
813.388	8.39
813.697	8.72
814.006	9.07
814.315	9.54
814.624	10.46
814.933	10.21
815.242	9.3
815.551	9.59
815.86	9.07
816.169	8.7
816.478	8.49
816.786	7.76
817.095	8.32
817.404	8.66
817.712	9.17
818.021	8.72
818.33	8.7
818.638	8.55
818.947	9.01
819.255	9.07
819.563	8.69
819.872	8.68
820.18	8.62
820.488	9.01
820.796	8.95
821.105	8.92
821.413	9.32
821.721	9.47
822.029	9.43
822.337	9.53
822.645	9.91
822.953	9.95
823.26	10.1
823.568	10.26
823.876	10.16
824.184	10.02
824.491	10.07
824.799	10.09
825.107	9.99
825.414	10
825.722	10.1
826.029	10.06
826.337	10.13
826.644	10.32
826.951	10.3
827.259	10.46
827.566	10.33
827.873	10.35
828.18	10.48
828.488	10.71
828.795	10.57
829.102	10.14
829.409	9.88
829.716	9.86
830.023	9.57
830.329	10.05
830.636	10.21
830.943	10.1
831.25	10.25
831.557	10.16
831.863	9.81
832.17	9.47
832.476	9.45
832.783	9.31
833.089	9.28
833.396	9.55
833.702	9.22
834.009	9.47
834.315	9.15
834.621	8.68
834.928	8.66
835.234	8.66
835.54	8.75
835.846	9.43
836.152	9.09
836.458	8.94
836.764	8.71
837.07	8.74
837.376	8.75
837.682	8.49
837.988	8.39
838.293	8.67
838.599	8.63
838.905	9.11
839.211	9
839.516	8.76
839.822	8.18
840.127	8.05
840.433	8.35
840.738	7.55
841.044	6.91
841.349	5.36
841.654	5.33
841.959	5.34
842.265	5.61
842.57	5.37
842.875	6.77
843.18	5.57
843.485	4.2
843.79	3.11
844.095	2.88
844.4	3.48
844.705	3.07
845.01	3.65
845.315	2.79
845.619	4.92
845.924	3.82
846.229	3.16
846.533	3.14
846.838	2.44
847.142	3.45
847.447	5.16
847.751	6.7
848.056	5.22
848.36	6.55
848.664	5.32
848.969	6.47
849.273	5.17
849.577	6.51
849.881	8.61
850.185	10.61
850.489	11.98
850.794	12.14
851.097	12.3
851.401	12.09
851.705	10.24
852.009	8.98
852.313	9.15
852.617	9.53
852.92	11.07
853.224	9.43
853.528	9.57
853.831	9.44
854.135	10.49
854.438	13.53
854.742	11.89
855.045	12.13
855.349	11.41
855.652	12.58
855.955	13.56
856.259	12.44
856.562	11.44
856.865	10.9
857.168	10.54
857.471	12.64
857.774	12.46
858.077	13.03
858.38	11.37
858.683	12.77
858.986	13.08
859.289	10.89
859.592	11.29
859.894	12.66
860.197	12.79
860.5	12.36
860.802	10.49
861.105	10.25
861.407	9.91
861.71	9.82
862.012	8.87
862.315	8.36
862.617	8.59
862.919	8.31
863.222	8.43
863.524	7.21
863.826	6.97
864.128	7.84
864.43	6.55
864.732	8.84
865.034	8.56
865.336	7.51
865.638	6.8
865.94	7.65
866.242	6.74
866.544	7.37
866.846	9.07
867.147	11.56
867.449	13.38
867.751	11.22
868.052	13.01
868.354	12.9
868.655	9.7
868.957	11.7
869.258	11.55
869.56	10.65
869.861	10.49
870.162	6.62
870.463	7.07
870.765	9.32
871.066	6.83
871.367	6.87
871.668	5.19
871.969	6.95
872.27	5.82
872.571	4.95
872.872	4.35
873.173	4.19
873.473	2.74
873.774	0.19
874.075	1.36
874.376	-1.79
874.676	0.14
874.977	7.26
875.277	5
875.578	5.42
875.878	5.55
876.179	6.25
876.479	8.67
876.78	6.65
877.08	6.07
877.38	7.36
877.68	7.17
877.981	11.22
878.281	10.61
878.581	12.25
