Data from BA17724_Reflection_00002.txt Node
Date: Tue Nov 19 11:57:46 EST 2019
User: vgr7
Spectrometer: USB2G7710
Scans to average: 3
Trigger mode: 4
Integration Time (sec): 2.000000E-2
Electric dark correction enabled: true
Boxcar width: 10
XAxis mode: Wavelengths
Number of Pixels in Spectrum: 2048
>>>>>Begin Spectral Data<<<<<
177.721	-53.99
178.105	-217.07
178.488	-113.06
178.871	-48.86
179.254	-203.12
179.636	-738.71
180.019	-185.06
180.402	30.3
180.785	60.71
181.168	-10.96
181.55	33.59
181.933	101.15
182.316	28.2
182.698	-26.33
183.081	-22.93
183.463	-67.06
183.846	-119.33
184.228	-181.5
184.611	-7337.5
184.993	-1210
185.376	350
185.758	-6212.5
186.14	-82.69
186.522	-254.48
186.904	-718.75
187.287	-29.45
187.669	-59.82
188.051	-60.23
188.433	-50.11
188.815	-96.14
189.197	-103.03
189.579	-94.81
189.961	-166.61
190.342	-215.02
190.724	-131.19
191.106	-32.71
191.488	-22.2
191.869	-46.37
192.251	-77.9
192.633	-53.19
193.014	-70.09
193.396	-43.92
193.777	-147.24
194.159	-187.43
194.54	-262.13
194.922	-141.55
195.303	-793.75
195.684	-416.3
196.065	-52.44
196.447	96.75
196.828	384.88
197.209	-271.95
197.59	-224.47
197.971	280.92
198.352	337.6
198.733	160.64
199.114	57.1
199.495	47.7
199.876	36.68
200.257	325.21
200.638	1850
201.018	210.96
201.399	2365.62
201.78	223.8
202.16	247.14
202.541	151.47
202.922	112.85
203.302	96.08
203.683	100.7
204.063	53.37
204.444	100.95
204.824	17.86
205.204	-130.47
205.585	-373.21
205.965	176.65
206.345	152.49
206.725	95.76
207.106	60.26
207.486	52.48
207.866	52.97
208.246	94.46
208.626	105.93
209.006	82.65
209.386	102.28
209.766	96.88
210.145	75.15
210.525	62.41
210.905	54.9
211.285	53.6
211.664	80.18
212.044	75.66
212.424	82.4
212.803	78.55
213.183	48.34
213.562	56.42
213.942	43.06
214.321	52.46
214.701	63.66
215.08	59.72
215.459	69.75
215.838	56.23
216.218	41.38
216.597	24.45
216.976	12.67
217.355	13.03
217.734	13.7
218.113	11.26
218.492	16.24
218.871	38.08
219.25	20.03
219.629	2.35
220.008	9.53
220.387	-14.02
220.766	-0.89
221.144	1.82
221.523	14.42
221.902	12.12
222.28	7.53
222.659	28.68
223.037	23.43
223.416	21.91
223.794	36.1
224.173	32.37
224.551	37.25
224.929	36.2
225.308	36.65
225.686	32.48
226.064	27.84
226.442	22.05
226.821	16.42
227.199	27.78
227.577	28.9
227.955	25.84
228.333	26.55
228.711	28.8
229.089	31.37
229.467	21.81
229.845	20.94
230.222	19.96
230.6	16.23
230.978	18.82
231.356	14
231.733	13.86
232.111	12.83
232.488	10.24
232.866	10.5
233.243	10.23
233.621	10.58
233.998	11.78
234.376	13.17
234.753	12.33
235.13	9.12
235.508	6.61
235.885	6.29
236.262	7.36
236.639	4.81
237.016	5.63
237.393	7.59
237.77	7.77
238.147	7.33
238.524	6.43
238.901	5.61
239.278	5
239.655	4.59
240.032	6.02
240.409	5.52
240.785	5.94
241.162	5.5
241.539	5.13
241.915	4.74
242.292	4.21
242.668	4.84
243.045	5.04
243.421	5.72
243.798	5.8
244.174	5.7
244.551	6.05
244.927	5.68
245.303	5.54
245.679	5.62
246.056	5.67
246.432	5.69
246.808	6.12
247.184	6.45
247.56	6.22
247.936	5.84
248.312	6.25
248.688	6.16
249.064	6.18
249.44	5.96
249.815	5.92
250.191	5.91
250.567	5.91
250.943	5.96
251.318	5.72
251.694	5.56
252.069	5.5
252.445	5.38
252.82	5.56
253.196	5.36
253.571	5.25
253.947	5.33
254.322	5.45
254.697	5.32
255.073	5.09
255.448	5.17
255.823	5.43
256.198	5.3
256.573	5.39
256.948	5.35
257.323	5.78
257.698	5.78
258.073	5.93
258.448	5.81
258.823	5.67
259.198	5.71
259.573	5.66
259.948	5.83
260.322	5.78
260.697	5.88
261.072	5.96
261.446	5.95
261.821	5.74
262.195	5.66
262.57	5.72
262.944	5.94
263.319	5.94
263.693	5.77
264.067	5.74
264.442	5.6
264.816	5.6
265.19	5.43
265.564	5.44
265.938	5.19
266.313	5.16
266.687	5.23
267.061	5.27
267.435	5.38
267.809	5.05
268.183	4.85
268.556	4.73
268.93	4.85
269.304	4.69
269.678	4.82
270.051	4.94
270.425	4.89
270.799	4.67
271.172	4.79
271.546	4.84
271.919	4.88
272.293	4.97
272.666	4.88
273.04	4.82
273.413	4.61
273.787	4.7
274.16	4.68
274.533	4.75
274.906	4.8
275.279	4.67
275.653	4.87
276.026	5.13
276.399	5.09
276.772	5.11
277.145	5.22
277.518	5.01
277.891	4.98
278.263	4.85
278.636	4.96
279.009	4.84
279.382	4.75
279.755	4.91
280.127	4.95
280.5	4.92
280.872	4.82
281.245	5.02
281.617	5.04
281.99	5.08
282.362	5.05
282.735	4.87
283.107	4.83
283.479	4.73
283.852	4.81
284.224	4.88
284.596	4.74
284.968	4.67
285.34	4.71
285.713	4.69
286.085	4.49
286.457	4.56
286.829	4.56
287.201	4.65
287.572	4.68
287.944	4.78
288.316	4.92
288.688	5.19
289.06	5.12
289.431	5.08
289.803	5.01
290.175	4.98
290.546	5.06
290.918	5.06
291.289	4.98
291.661	4.95
292.032	5.01
292.403	5.01
292.775	5.11
293.146	5.34
293.517	5.31
293.889	5.55
294.26	5.41
294.631	5.52
295.002	5.54
295.373	5.54
295.744	5.36
296.115	5.36
296.486	5.31
296.857	5.5
297.228	5.54
297.599	5.69
297.97	5.83
298.34	5.83
298.711	5.95
299.082	5.9
299.452	5.79
299.823	5.65
300.194	5.68
300.564	5.6
300.935	5.62
301.305	5.68
301.676	5.47
302.046	5.64
302.416	5.64
302.787	5.57
303.157	5.42
303.527	5.52
303.897	5.55
304.267	5.55
304.637	5.42
305.008	5.61
305.378	5.48
305.748	5.31
306.117	5.31
306.487	5.33
306.857	5.57
307.227	5.59
307.597	5.72
307.967	5.71
308.336	5.8
308.706	5.69
309.076	5.8
309.445	6.07
309.815	6.02
310.184	5.91
310.554	5.94
310.923	5.84
311.293	5.87
311.662	5.85
312.031	5.71
312.401	5.79
312.77	5.6
313.139	5.58
313.508	5.53
313.877	5.57
314.246	5.57
314.616	5.44
314.985	5.53
315.353	5.51
315.722	5.61
316.091	5.56
316.46	5.51
316.829	5.46
317.198	5.36
317.567	5.38
317.935	5.55
318.304	5.73
318.672	5.85
319.041	5.75
319.41	5.64
319.778	5.69
320.147	5.67
320.515	5.86
320.883	5.72
321.252	5.82
321.62	5.72
321.988	5.62
322.357	5.75
322.725	5.69
323.093	5.65
323.461	5.7
323.829	5.74
324.197	5.82
324.565	5.93
324.933	5.89
325.301	5.8
325.669	5.73
326.037	5.62
326.405	5.67
326.772	5.74
327.14	5.65
327.508	5.68
327.875	5.67
328.243	5.6
328.61	5.72
328.978	5.63
329.346	5.51
329.713	5.72
330.08	5.73
330.448	5.65
330.815	5.61
331.182	5.56
331.55	5.48
331.917	5.32
332.284	5.21
332.651	5.23
333.018	5.33
333.385	5.42
333.752	5.35
334.119	5.37
334.486	5.36
334.853	5.54
335.22	5.46
335.587	5.35
335.954	5.42
336.32	5.51
336.687	5.56
337.054	5.7
337.42	5.53
337.787	5.43
338.153	5.45
338.52	5.54
338.886	5.54
339.253	5.65
339.619	5.8
339.986	5.86
340.352	5.89
340.718	5.81
341.084	5.87
341.451	5.94
341.817	5.92
342.183	5.96
342.549	6.05
342.915	6.12
343.281	6.05
343.647	6.02
344.013	5.93
344.379	5.96
344.745	6.02
345.11	6.05
345.476	6.09
345.842	6.13
346.208	6.19
346.573	6.18
346.939	6.14
347.304	6.16
347.67	6.09
348.035	6.13
348.401	6.1
348.766	5.94
349.132	5.88
349.497	5.87
349.862	5.84
350.228	5.77
350.593	5.81
350.958	6.01
351.323	5.96
351.688	6
352.053	6.11
352.418	6.07
352.783	6.04
353.148	5.97
353.513	5.91
353.878	5.87
354.243	5.78
354.608	5.82
354.972	5.87
355.337	5.91
355.702	5.77
356.066	5.83
356.431	5.92
356.795	5.98
357.16	5.94
357.524	5.91
357.889	5.91
358.253	5.84
358.618	5.73
358.982	5.79
359.346	5.84
359.71	5.76
360.075	5.8
360.439	5.81
360.803	5.91
361.167	5.92
361.531	5.81
361.895	5.81
362.259	5.81
362.623	5.71
362.987	5.62
363.351	5.69
363.714	5.73
364.078	5.72
364.442	5.7
364.806	5.8
365.169	5.76
365.533	5.85
365.896	5.98
366.26	5.99
366.623	5.95
366.987	5.89
367.35	5.92
367.714	5.9
368.077	5.92
368.44	5.87
368.803	5.88
369.167	5.94
369.53	6.07
369.893	6.07
370.256	6.14
370.619	6.2
370.982	6.18
371.345	6.21
371.708	6.24
372.071	6.26
372.434	6.21
372.797	6.31
373.159	6.18
373.522	6.12
373.885	6.15
374.247	6.13
374.61	6.12
374.973	6.08
375.335	6.05
375.698	6.04
376.06	6.06
376.423	6.01
376.785	6.04
377.147	5.99
377.51	5.92
377.872	5.94
378.234	6.01
378.596	6.05
378.958	6.01
379.321	5.94
379.683	5.94
380.045	5.91
380.407	5.87
380.769	5.92
381.13	5.87
381.492	5.91
381.854	5.88
382.216	5.94
382.578	5.92
382.939	5.89
383.301	5.86
383.663	5.83
384.024	5.84
384.386	5.83
384.747	5.82
385.109	5.83
385.47	5.81
385.832	5.75
386.193	5.69
386.554	5.59
386.916	5.6
387.277	5.59
387.638	5.6
387.999	5.62
388.36	5.6
388.721	5.63
389.082	5.62
389.443	5.63
389.804	5.59
390.165	5.63
390.526	5.65
390.887	5.67
391.248	5.69
391.609	5.75
391.969	5.73
392.33	5.71
392.691	5.72
393.051	5.71
393.412	5.71
393.772	5.73
394.133	5.81
394.493	5.76
394.854	5.8
395.214	5.8
395.574	5.79
395.935	5.77
396.295	5.73
396.655	5.71
397.015	5.73
397.376	5.77
397.736	5.77
398.096	5.76
398.456	5.72
398.816	5.71
399.176	5.64
399.535	5.62
399.895	5.65
400.255	5.66
400.615	5.71
400.975	5.76
401.334	5.78
401.694	5.74
402.054	5.74
402.413	5.74
402.773	5.75
403.132	5.78
403.492	5.79
403.851	5.84
404.211	5.86
404.57	5.85
404.929	5.83
405.288	5.84
405.648	5.88
406.007	5.93
406.366	5.9
406.725	5.93
407.084	5.95
407.443	5.9
407.802	5.93
408.161	5.91
408.52	5.86
408.879	5.83
409.238	5.84
409.596	5.86
409.955	5.81
410.314	5.79
410.673	5.73
411.031	5.7
411.39	5.69
411.748	5.67
412.107	5.67
412.465	5.64
412.824	5.61
413.182	5.59
413.54	5.59
413.899	5.6
414.257	5.61
414.615	5.62
414.974	5.63
415.332	5.63
415.69	5.6
416.048	5.61
416.406	5.61
416.764	5.61
417.122	5.61
417.48	5.62
417.838	5.61
418.195	5.63
418.553	5.63
418.911	5.6
419.269	5.58
419.626	5.59
419.984	5.62
420.342	5.62
420.699	5.62
421.057	5.61
421.414	5.62
421.772	5.62
422.129	5.62
422.486	5.63
422.844	5.61
423.201	5.61
423.558	5.6
423.915	5.59
424.273	5.59
424.63	5.61
424.987	5.62
425.344	5.64
425.701	5.63
426.058	5.64
426.415	5.66
426.772	5.68
427.128	5.66
427.485	5.65
427.842	5.63
428.199	5.64
428.555	5.64
428.912	5.63
429.269	5.59
429.625	5.61
429.982	5.61
430.338	5.64
430.695	5.63
431.051	5.63
431.407	5.65
431.764	5.66
432.12	5.66
432.476	5.65
432.832	5.61
433.189	5.6
433.545	5.59
433.901	5.58
434.257	5.57
434.613	5.57
434.969	5.56
435.325	5.57
435.681	5.55
436.036	5.55
436.392	5.56
436.748	5.59
437.104	5.59
437.459	5.56
437.815	5.56
438.171	5.54
438.526	5.55
438.882	5.56
439.237	5.54
439.593	5.53
439.948	5.52
440.304	5.53
440.659	5.56
441.014	5.55
441.369	5.57
441.725	5.58
442.08	5.59
442.435	5.57
442.79	5.56
443.145	5.58
443.5	5.57
443.855	5.56
444.21	5.54
444.565	5.52
444.92	5.54
445.275	5.53
445.629	5.56
445.984	5.55
446.339	5.54
446.693	5.54
447.048	5.53
447.403	5.54
447.757	5.53
448.112	5.52
448.466	5.52
448.82	5.51
449.175	5.52
449.529	5.52
449.883	5.54
450.238	5.54
450.592	5.51
450.946	5.51
451.3	5.53
451.654	5.54
452.008	5.53
452.362	5.52
452.716	5.5
453.07	5.47
453.424	5.49
453.778	5.49
454.132	5.49
454.486	5.48
454.839	5.49
455.193	5.49
455.547	5.5
455.9	5.5
456.254	5.49
456.607	5.49
456.961	5.48
457.314	5.48
457.668	5.49
458.021	5.51
458.375	5.5
458.728	5.48
459.081	5.51
459.434	5.53
459.787	5.54
460.141	5.55
460.494	5.58
460.847	5.58
461.2	5.57
461.553	5.58
461.906	5.61
462.259	5.59
462.611	5.59
462.964	5.6
463.317	5.61
463.67	5.65
464.022	5.64
464.375	5.64
464.728	5.66
465.08	5.65
465.433	5.65
465.785	5.66
466.138	5.68
466.49	5.66
466.843	5.69
467.195	5.7
467.547	5.73
467.899	5.73
468.252	5.73
468.604	5.74
468.956	5.75
469.308	5.74
469.66	5.77
470.012	5.79
470.364	5.8
470.716	5.8
471.068	5.78
471.42	5.8
471.772	5.82
472.123	5.81
472.475	5.83
472.827	5.84
473.178	5.86
473.53	5.88
473.882	5.87
474.233	5.86
474.585	5.82
474.936	5.78
475.288	5.76
475.639	5.77
475.99	5.73
476.342	5.73
476.693	5.75
477.044	5.73
477.395	5.72
477.746	5.69
478.097	5.7
478.448	5.68
478.8	5.67
479.15	5.65
479.501	5.66
479.852	5.66
480.203	5.66
480.554	5.65
480.905	5.64
481.255	5.63
481.606	5.62
481.957	5.63
482.307	5.65
482.658	5.64
483.009	5.64
483.359	5.65
483.709	5.65
484.06	5.66
484.41	5.66
484.761	5.67
485.111	5.69
485.461	5.69
485.811	5.69
486.162	5.7
486.512	5.71
486.862	5.71
487.212	5.71
487.562	5.71
487.912	5.72
488.262	5.71
488.612	5.72
488.961	5.73
489.311	5.74
489.661	5.74
490.011	5.75
490.36	5.75
490.71	5.76
491.06	5.77
491.409	5.75
491.759	5.77
492.108	5.77
492.458	5.76
492.807	5.76
493.157	5.75
493.506	5.76
493.855	5.75
494.204	5.76
494.554	5.76
494.903	5.78
495.252	5.77
495.601	5.79
495.95	5.8
496.299	5.79
496.648	5.78
496.997	5.79
497.346	5.81
497.695	5.82
498.043	5.84
498.392	5.83
498.741	5.84
499.09	5.84
499.438	5.85
499.787	5.85
500.135	5.85
500.484	5.89
500.832	5.89
501.181	5.9
501.529	5.91
501.878	5.93
502.226	5.93
502.574	5.93
502.923	5.97
503.271	5.95
503.619	6
503.967	6.03
504.315	6.04
504.663	6.02
505.011	6.01
505.359	5.99
505.707	5.99
506.055	5.99
506.403	6
506.751	5.99
507.098	5.98
507.446	6
507.794	6.01
508.141	6.02
508.489	6.06
508.837	6.06
509.184	6.06
509.531	6.08
509.879	6.1
510.226	6.06
510.574	6.09
510.921	6.07
511.268	6.07
511.616	6.06
511.963	6.07
512.31	6.11
512.657	6.11
513.004	6.12
513.351	6.12
513.698	6.11
514.045	6.11
514.392	6.13
514.739	6.12
515.086	6.12
515.432	6.13
515.779	6.11
516.126	6.13
516.473	6.13
516.819	6.13
517.166	6.14
517.512	6.15
517.859	6.14
518.205	6.14
518.552	6.16
518.898	6.17
519.245	6.16
519.591	6.16
519.937	6.16
520.283	6.18
520.629	6.15
520.976	6.17
521.322	6.19
521.668	6.22
522.014	6.23
522.36	6.23
522.706	6.22
523.052	6.24
523.398	6.23
523.743	6.24
524.089	6.23
524.435	6.21
524.781	6.24
525.126	6.25
525.472	6.27
525.817	6.3
526.163	6.32
526.509	6.33
526.854	6.33
527.199	6.34
527.545	6.34
527.89	6.38
528.235	6.37
528.581	6.36
528.926	6.35
529.271	6.35
529.616	6.36
529.961	6.37
530.306	6.38
530.651	6.38
530.996	6.39
531.341	6.41
531.686	6.41
532.031	6.41
532.376	6.43
532.721	6.42
533.065	6.4
533.41	6.39
533.755	6.4
534.099	6.4
534.444	6.42
534.788	6.4
535.133	6.39
535.477	6.39
535.822	6.43
536.166	6.44
536.51	6.44
536.855	6.44
537.199	6.44
537.543	6.45
537.887	6.46
538.231	6.46
538.576	6.46
538.92	6.47
539.264	6.49
539.608	6.47
539.951	6.48
540.295	6.49
540.639	6.5
540.983	6.53
541.327	6.55
541.671	6.53
542.014	6.56
542.358	6.58
542.701	6.59
543.045	6.6
543.389	6.6
543.732	6.59
544.075	6.61
544.419	6.61
544.762	6.6
545.105	6.62
545.449	6.65
545.792	6.67
546.135	6.68
546.478	6.67
546.821	6.7
547.165	6.72
547.508	6.72
547.851	6.72
548.194	6.69
548.536	6.67
548.879	6.7
549.222	6.69
549.565	6.7
549.908	6.69
550.25	6.69
550.593	6.68
550.936	6.74
551.278	6.71
551.621	6.68
551.963	6.7
552.306	6.7
552.648	6.67
552.991	6.66
553.333	6.69
553.675	6.72
554.017	6.7
554.36	6.69
554.702	6.71
555.044	6.72
555.386	6.74
555.728	6.79
556.07	6.74
556.412	6.74
556.754	6.72
557.096	6.71
557.438	6.66
557.78	6.67
558.121	6.65
558.463	6.66
558.805	6.7
559.147	6.71
559.488	6.68
559.83	6.71
560.171	6.72
560.513	6.72
560.854	6.7
561.196	6.73
561.537	6.73
561.878	6.74
562.22	6.73
562.561	6.76
562.902	6.77
563.243	6.79
563.584	6.84
563.925	6.83
564.266	6.87
564.607	6.89
564.948	6.92
565.289	6.97
565.63	6.96
565.971	6.99
566.312	6.97
566.653	6.99
566.993	6.99
567.334	6.97
567.675	6.95
568.015	6.96
568.356	6.94
568.696	6.97
569.037	6.98
569.377	6.98
569.718	6.98
570.058	6.97
570.398	6.98
570.739	6.95
571.079	6.98
571.419	6.95
571.759	6.95
572.099	6.94
572.439	6.91
572.779	6.96
573.119	6.94
573.459	6.99
573.799	6.99
574.139	6.97
574.479	7.01
574.819	7.03
575.158	7.05
575.498	7.06
575.838	7.03
576.177	7.04
576.517	7.06
576.856	7.06
577.196	7.06
577.535	7.06
577.875	7.09
578.214	7.08
578.553	7.12
578.893	7.21
579.232	7.17
579.571	7.19
579.91	7.19
580.25	7.2
580.589	7.15
580.928	7.19
581.267	7.19
581.606	7.2
581.945	7.17
582.283	7.17
582.622	7.15
582.961	7.17
583.3	7.17
583.639	7.18
583.977	7.14
584.316	7.13
584.654	7.12
584.993	7.13
585.332	7.11
585.67	7.09
586.008	7.03
586.347	7.1
586.685	7.07
587.024	7.08
587.362	7.06
587.7	7.12
588.038	7.1
588.376	7.14
588.715	7.12
589.053	7.16
589.391	7.15
589.729	7.16
590.067	7.17
590.404	7.14
590.742	7.15
591.08	7.14
591.418	7.16
591.756	7.21
592.093	7.21
592.431	7.3
592.769	7.3
593.106	7.27
593.444	7.23
593.781	7.26
594.119	7.24
594.456	7.29
594.793	7.22
595.131	7.2
595.468	7.17
595.805	7.16
596.143	7.16
596.48	7.12
596.817	7.1
597.154	7.13
597.491	7.16
597.828	7.19
598.165	7.23
598.502	7.21
598.839	7.2
599.176	7.24
599.512	7.16
599.849	7.18
600.186	7.19
600.523	7.21
600.859	7.19
601.196	7.24
601.532	7.19
601.869	7.24
602.205	7.25
602.542	7.23
602.878	7.25
603.215	7.2
603.551	7.22
603.887	7.25
604.223	7.23
604.56	7.25
604.896	7.27
605.232	7.25
605.568	7.29
605.904	7.27
606.24	7.23
606.576	7.26
606.912	7.3
607.248	7.33
607.583	7.33
607.919	7.34
608.255	7.31
608.591	7.42
608.926	7.4
609.262	7.43
609.597	7.47
609.933	7.46
610.268	7.51
610.604	7.51
610.939	7.56
611.275	7.56
611.61	7.55
611.945	7.54
612.281	7.58
612.616	7.53
612.951	7.54
613.286	7.61
613.621	7.64
613.956	7.63
614.291	7.62
614.626	7.68
614.961	7.69
615.296	7.75
615.631	7.66
615.966	7.73
616.3	7.76
616.635	7.72
616.97	7.77
617.304	7.72
617.639	7.72
617.973	7.67
618.308	7.74
618.642	7.75
618.977	7.7
619.311	7.67
619.646	7.7
619.98	7.65
620.314	7.55
620.648	7.54
620.983	7.5
621.317	7.54
621.651	7.5
621.985	7.48
622.319	7.49
622.653	7.48
622.987	7.43
623.321	7.44
623.655	7.48
623.988	7.47
624.322	7.52
624.656	7.61
624.99	7.57
625.323	7.52
625.657	7.51
625.99	7.58
626.324	7.58
626.657	7.59
626.991	7.67
627.324	7.68
627.658	7.7
627.991	7.74
628.324	7.68
628.657	7.68
628.991	7.72
629.324	7.68
629.657	7.69
629.99	7.69
630.323	7.68
630.656	7.68
630.989	7.67
631.322	7.64
631.655	7.58
631.987	7.65
632.32	7.65
632.653	7.65
632.986	7.62
633.318	7.66
633.651	7.65
633.984	7.66
634.316	7.74
634.649	7.7
634.981	7.67
635.313	7.73
635.646	7.76
635.978	7.75
636.31	7.76
636.643	7.8
636.975	7.84
637.307	7.85
637.639	7.88
637.971	7.92
638.303	8
638.635	7.97
638.967	7.93
639.299	7.97
639.631	8.03
639.963	8.01
640.295	8.02
640.626	8.13
640.958	8.14
641.29	8.08
641.621	8.09
641.953	8.15
642.285	8.11
642.616	8.17
642.948	8.16
643.279	8.11
643.61	8.11
643.942	8.15
644.273	8.11
644.604	8.1
644.936	8.13
645.267	8.09
645.598	8.18
645.929	8.26
646.26	8.27
646.591	8.23
646.922	8.34
647.253	8.32
647.584	8.29
647.915	8.26
648.245	8.32
648.576	8.37
648.907	8.36
649.238	8.42
649.568	8.3
649.899	8.3
650.229	8.37
650.56	8.32
650.89	8.38
651.221	8.4
651.551	8.33
651.882	8.32
652.212	8.32
652.542	8.29
652.872	8.3
653.203	8.31
653.533	8.36
653.863	8.27
654.193	8.22
654.523	8.09
654.853	8.17
655.183	8.19
655.513	8.19
655.843	8.2
656.172	8.28
656.502	8.36
656.832	8.39
657.162	8.38
657.491	8.43
657.821	8.31
658.15	8.33
658.48	8.35
658.809	8.33
659.139	8.35
659.468	8.37
659.798	8.41
660.127	8.34
660.456	8.3
660.785	8.33
661.115	8.4
661.444	8.53
661.773	8.49
662.102	8.44
662.431	8.42
662.76	8.4
663.089	8.38
663.418	8.36
663.747	8.27
664.076	8.27
664.404	8.22
664.733	8.28
665.062	8.28
665.39	8.26
665.719	8.28
666.048	8.24
666.376	8.23
666.705	8.16
667.033	8.22
667.362	8.21
667.69	8.19
668.018	8.24
668.347	8.21
668.675	8.15
669.003	8.17
669.331	8.2
669.659	8.24
669.987	8.22
670.315	8.3
670.643	8.37
670.971	8.34
671.299	8.38
671.627	8.38
671.955	8.36
672.283	8.38
672.61	8.38
672.938	8.51
673.266	8.51
673.593	8.45
673.921	8.54
674.249	8.62
674.576	8.67
674.904	8.53
675.231	8.59
675.558	8.63
675.886	8.63
676.213	8.66
676.54	8.63
676.867	8.54
677.195	8.5
677.522	8.58
677.849	8.65
678.176	8.64
678.503	8.57
678.83	8.57
679.157	8.6
679.484	8.69
679.81	8.63
680.137	8.67
680.464	8.76
680.791	8.65
681.117	8.66
681.444	8.6
681.771	8.77
682.097	8.71
682.424	8.64
682.75	8.66
683.077	8.66
683.403	8.67
683.729	8.75
684.056	8.8
684.382	8.82
684.708	8.8
685.034	8.84
685.36	8.89
685.686	8.87
686.012	8.97
686.339	8.92
686.664	8.97
686.99	8.87
687.316	8.87
687.642	8.95
687.968	8.91
688.294	8.99
688.619	8.92
688.945	8.89
689.271	9.04
689.596	9.06
689.922	9.02
690.247	9.03
690.573	9.08
690.898	9.09
691.224	8.98
691.549	9.01
691.874	9.11
692.2	9.23
692.525	9.29
692.85	9.3
693.175	9.36
693.5	9.23
693.825	9.33
694.15	9.3
694.475	9.32
694.8	9.32
695.125	9.3
695.45	9.27
695.775	9.36
696.099	9.44
696.424	9.46
696.749	9.58
697.073	9.56
697.398	9.52
697.723	9.48
698.047	9.54
698.372	9.51
698.696	9.52
699.02	9.49
699.345	9.56
699.669	9.51
699.993	9.48
700.318	9.53
700.642	9.49
700.966	9.54
701.29	9.52
701.614	9.54
701.938	9.54
702.262	9.47
702.586	9.48
702.91	9.54
703.234	9.52
703.557	9.48
703.881	9.69
704.205	9.68
704.529	9.65
704.852	9.7
705.176	9.73
705.499	9.62
705.823	9.63
706.146	9.65
706.47	9.68
706.793	9.74
707.117	9.85
707.44	9.86
707.763	9.99
708.086	9.99
708.409	10.04
708.733	10.09
709.056	10.13
709.379	10.24
709.702	10.04
710.025	10.2
710.348	10.13
710.671	10.11
710.993	10.1
711.316	10.32
711.639	10.33
711.962	10.53
712.284	10.58
712.607	10.49
712.93	10.4
713.252	10.43
713.575	10.24
713.897	10.09
714.22	10.17
714.542	10.09
714.864	10.11
715.187	10.09
715.509	10.13
715.831	10.25
716.153	10.17
716.475	10.18
716.798	10.08
717.12	10.02
717.442	9.85
717.764	9.97
718.085	9.8
718.407	9.8
718.729	9.61
719.051	9.57
719.373	9.81
719.695	9.95
720.016	9.9
720.338	10.26
720.659	10.6
720.981	10.49
721.302	10.53
721.624	10.37
721.945	10.35
722.267	10.15
722.588	10.11
722.909	10.08
723.231	10.1
723.552	10.23
723.873	10.37
724.194	10.49
724.515	10.35
724.836	10.09
725.157	10.13
725.478	10.21
725.799	10.32
726.12	10.32
726.441	10.14
726.762	10.13
727.083	10.04
727.403	10
727.724	10.15
728.045	10.1
728.365	10.26
728.686	10.21
729.006	10.47
729.327	10.55
729.647	10.67
729.967	10.79
730.288	10.56
730.608	10.55
730.928	10.56
731.249	10.7
731.569	10.85
731.889	10.76
732.209	10.53
732.529	10.55
732.849	10.44
733.169	10.41
733.489	10.51
733.809	10.43
734.129	10.07
734.448	10.14
734.768	10.26
735.088	10.29
735.408	10.25
735.727	10.11
736.047	10.18
736.366	10.05
736.686	10
737.005	10.17
737.325	10.09
737.644	9.82
737.963	9.57
738.283	9.67
738.602	9.86
738.921	10.08
739.24	10
739.56	10.18
739.879	10.41
740.198	10.27
740.517	10.39
740.836	10.7
741.155	10.51
741.473	10.29
741.792	10.46
742.111	10.88
742.43	11.11
742.748	11.17
743.067	11.29
743.386	10.97
743.704	10.94
744.023	11.31
744.341	11.63
744.66	11.68
744.978	11.97
745.297	11.61
745.615	11.52
745.933	11.62
746.252	11.53
746.57	11.5
746.888	11.83
747.206	11.78
747.524	11.77
747.842	11.86
748.16	12.05
748.478	12.16
748.796	11.91
749.114	11.72
749.432	11.6
749.749	11.47
750.067	11.65
750.385	11.73
750.703	11.51
751.02	11.54
751.338	11.68
751.655	11.61
751.973	11.9
752.29	11.79
752.608	11.71
752.925	11.72
753.242	11.91
753.56	11.56
753.877	11.51
754.194	11.54
754.511	11.49
754.828	11.43
755.145	11.36
755.462	11.48
755.779	11.34
756.096	11.23
756.413	11.36
756.73	11.63
757.047	11.73
757.364	11.76
757.68	11.9
757.997	11.94
758.314	11.96
758.63	12.03
758.947	12.21
759.264	12.59
759.58	12.55
759.896	12.4
760.213	12.64
760.529	12.79
760.846	12.89
761.162	12.97
761.478	13.12
761.794	12.85
762.11	12.77
762.426	12.9
762.743	13.1
763.059	13.11
763.375	13.11
763.69	12.95
764.006	13.06
764.322	12.91
764.638	13.09
764.954	12.93
765.27	12.89
765.585	12.95
765.901	12.84
766.216	12.82
766.532	12.65
766.848	12.47
767.163	12.36
767.478	12.28
767.794	12.29
768.109	12.3
768.424	12.34
768.74	12.35
769.055	12.68
769.37	12.57
769.685	12.59
770	12.41
770.315	12.65
770.63	12.65
770.945	13.01
771.26	12.89
771.575	13.03
771.89	12.85
772.205	12.89
772.52	12.69
772.834	12.71
773.149	13.09
773.464	13.36
773.778	13.49
774.093	13.82
774.407	14.13
774.722	14.14
775.036	14.26
775.351	14.02
775.665	13.31
775.979	13.28
776.293	13.36
776.608	13.56
776.922	13.37
777.236	12.98
777.55	12.34
777.864	12.25
778.178	12.53
778.492	13.39
778.806	13.47
779.12	13.93
779.434	14.24
779.747	14.49
780.061	14.39
780.375	14.59
780.689	14.49
781.002	13.68
781.316	13.37
781.629	14.04
781.943	14.61
782.256	15.02
782.57	15.21
782.883	15.4
783.196	15.23
783.51	15.05
783.823	15.38
784.136	15.63
784.449	15.64
784.762	15.71
785.075	15.29
785.388	15.51
785.701	15.55
786.014	15.41
786.327	15.7
786.64	16.15
786.953	15.99
787.266	15.61
787.578	15.96
787.891	16.5
788.204	16.22
788.516	16.2
788.829	16.29
789.141	16.48
789.454	16.09
789.766	16.27
790.079	16.92
790.391	16.99
790.703	16.9
791.016	16.96
791.328	16.59
791.64	16.57
791.952	16.69
792.264	16.01
792.576	15.53
792.888	14.91
793.2	14.28
793.512	14.24
793.824	14.57
794.136	14.96
794.448	14.57
794.76	14.72
795.071	14.92
795.383	14.9
795.695	14.55
796.006	14.58
796.318	14.8
796.629	14.8
796.941	14.78
797.252	15.08
797.564	15.01
797.875	15.37
798.186	15.28
798.497	14.88
798.809	15.05
799.12	15.55
799.431	15.6
799.742	15.51
800.053	15.52
800.364	15.56
800.675	15.87
800.986	16.5
801.297	16.13
801.608	15.48
801.918	15.62
802.229	16.29
802.54	16.39
802.851	15.62
803.161	15.27
803.472	15.77
803.782	15.78
804.093	16.12
804.403	16.01
804.714	16.29
805.024	16.61
805.334	16.41
805.645	16.31
805.955	16.61
806.265	17.53
806.575	17.57
806.885	17.93
807.195	18.28
807.505	17.57
807.815	17.61
808.125	17.13
808.435	17.39
808.745	16.73
809.055	17.03
809.365	18.03
809.674	17.66
809.984	17.49
810.294	17.76
810.603	17.42
810.913	17.58
811.222	17.88
811.532	18.51
811.841	19.64
812.151	19.07
812.46	18.42
812.769	18.19
813.079	18.84
813.388	18.41
813.697	17.29
814.006	17.92
814.315	18.15
814.624	19.56
814.933	19.45
815.242	19.73
815.551	19.07
815.86	19.05
816.169	19.59
816.478	19.48
816.786	18.88
817.095	19.29
817.404	19.22
817.712	18.79
818.021	18.49
818.33	17.23
818.638	17.83
818.947	17.72
819.255	17.61
819.563	17.43
819.872	17.38
820.18	17.1
820.488	16.69
820.796	16.82
821.105	16.66
821.413	16.69
821.721	16.4
822.029	16.52
822.337	16.46
822.645	16.59
822.953	16.46
823.26	16.49
823.568	16.38
823.876	16.17
824.184	16.15
824.491	16.06
824.799	16.38
825.107	16.37
825.414	16.57
825.722	16.6
826.029	16.53
826.337	16.52
826.644	16.81
826.951	16.82
827.259	16.89
827.566	17.03
827.873	17.01
828.18	17.26
828.488	17.26
828.795	17.14
829.102	16.84
829.409	16.65
829.716	16.79
830.023	16.76
830.329	16.91
830.636	17.13
830.943	16.86
831.25	16.66
831.557	16.64
831.863	16.95
832.17	16.89
832.476	17.1
832.783	16.85
833.089	16.35
833.396	16.62
833.702	16.44
834.009	16.34
834.315	16.04
834.621	15.92
834.928	15.91
835.234	16.63
835.54	16.6
835.846	17.11
836.152	17.36
836.458	17.05
836.764	17.22
837.07	16.97
837.376	17.64
837.682	17.65
837.988	17.48
838.293	16.69
838.599	17.17
838.905	16.71
839.211	17.42
839.516	17.98
839.822	18.41
840.127	18.18
840.433	18.03
840.738	18.07
841.044	18.51
841.349	18.29
841.654	17.21
841.959	18.23
842.265	19.49
842.57	18.85
842.875	21.02
843.18	21.54
843.485	22.4
843.79	21.09
844.095	21.31
844.4	21.95
844.705	22.7
845.01	21.39
845.315	20.75
845.619	22.04
845.924	22.01
846.229	20.95
846.533	20.59
846.838	20.89
847.142	21
847.447	20.86
847.751	22.09
848.056	22.59
848.36	22.14
848.664	20.56
848.969	20.52
849.273	19.19
849.577	16.74
849.881	15.71
850.185	17.7
850.489	17.69
850.794	18.44
851.097	18.49
851.401	20.59
851.705	20.96
852.009	18.54
852.313	16.99
852.617	18.22
852.92	19.87
853.224	19.91
853.528	21.79
853.831	22.81
854.135	25.08
854.438	26.78
854.742	25.66
855.045	25.89
855.349	27.52
855.652	27.17
855.955	29.3
856.259	29.23
856.562	30.16
856.865	29.34
857.168	28.9
857.471	28.53
857.774	27.48
858.077	28.56
858.38	27.93
858.683	29.02
858.986	29.03
859.289	28.13
859.592	28.39
859.894	26.27
860.197	26.17
860.5	25.3
860.802	22.21
861.105	25.22
861.407	23.84
861.71	23.72
862.012	23.91
862.315	23.22
862.617	22.97
862.919	22.47
863.222	22.86
863.524	22.04
863.826	21.67
864.128	19.87
864.43	21.73
864.732	23.69
865.034	25.12
865.336	25.3
865.638	25.76
865.94	24.76
866.242	24.51
866.544	25.33
866.846	24.17
867.147	26.88
867.449	25.83
867.751	25.12
868.052	25.37
868.354	25.54
868.655	26.95
868.957	27.35
869.258	25.61
869.56	25.89
869.861	28.8
870.162	28.3
870.463	29.47
870.765	27.59
871.066	25.38
871.367	25.23
871.668	24.67
871.969	22.94
872.27	22.71
872.571	24.53
872.872	22.42
873.173	22.79
873.473	20.56
873.774	20.95
874.075	23.67
874.376	21.87
874.676	23.44
874.977	22.91
875.277	22.61
875.578	25.3
875.878	24.95
876.179	22.46
876.479	23.03
876.78	23.96
877.08	24.24
877.38	26.24
877.68	25.92
877.981	26.84
878.281	29.81
878.581	31.49
