Data from BA17724_Reflection_00008.txt Node
Date: Tue Nov 19 11:57:59 EST 2019
User: vgr7
Spectrometer: USB2G7710
Scans to average: 3
Trigger mode: 4
Integration Time (sec): 2.000000E-2
Electric dark correction enabled: true
Boxcar width: 10
XAxis mode: Wavelengths
Number of Pixels in Spectrum: 2048
>>>>>Begin Spectral Data<<<<<
177.721	-111.97
178.105	-271.95
178.488	-194.2
178.871	-147.73
179.254	-137.5
179.636	-351.61
180.019	84.76
180.402	39.39
180.785	-764.29
181.168	-127.27
181.55	-95.31
181.933	7.83
182.316	30.8
182.698	50.53
183.081	163.54
183.463	279.91
183.846	363.8
184.228	367.72
184.611	8225
184.993	1760
185.376	-1162.71
185.758	16475
186.14	603.85
186.522	965.67
186.904	1512.5
187.287	222.53
187.669	162.5
188.051	143.62
188.433	98.88
188.815	158.55
189.197	211.27
189.579	234.31
189.961	292.31
190.342	366.82
190.724	363.27
191.106	308.9
191.488	249.25
191.869	338.34
192.251	192.48
192.633	122.78
193.014	141.14
193.396	81.65
193.777	22.65
194.159	1.07
194.54	107.35
194.922	147.3
195.303	687.5
195.684	708.7
196.065	-546.34
196.447	-322.08
196.828	88.37
197.209	295.12
197.59	780.85
197.971	-459.21
198.352	-375.21
198.733	-73.27
199.114	-186.98
199.495	-109.18
199.876	-79.28
200.257	-176.86
200.638	-715.79
201.018	-20.79
201.399	-306.25
201.78	54.33
202.16	37.14
202.541	47.48
202.922	9.09
203.302	-14.42
203.683	-15.49
204.063	-5.62
204.444	29.39
204.824	221.43
205.204	443.75
205.585	939.29
205.965	-138.21
206.345	-90.39
206.725	6.78
207.106	4.43
207.486	6.61
207.866	11.6
208.246	16.52
208.626	-8.84
209.006	-22.89
209.386	-30.47
209.766	-25
210.145	-32.79
210.525	-35.86
210.905	-44.18
211.285	-37.52
211.664	-34.32
212.044	-24.29
212.424	-16.68
212.803	-38.66
213.183	-28.73
213.562	-11.76
213.942	-30.94
214.321	-54.28
214.701	-78.91
215.08	-91.03
215.459	-89.89
215.838	-131.95
216.218	-143.79
216.597	-90.2
216.976	-76.9
217.355	-71.21
217.734	-81.77
218.113	-78.07
218.492	-68.18
218.871	-64.24
219.25	-60.51
219.629	-88.82
220.008	-136.62
220.387	-140.24
220.766	-61.42
221.144	-70.64
221.523	-123.01
221.902	-84.01
222.28	-65.66
222.659	-31.53
223.037	-27.2
223.416	-13.19
223.794	-10.81
224.173	-10.8
224.551	-6.66
224.929	-8.55
225.308	-1.56
225.686	4.27
226.064	6.07
226.442	-0.24
226.821	0.42
227.199	4.61
227.577	9.23
227.955	11.81
228.333	6.96
228.711	1.56
229.089	3.19
229.467	7.16
229.845	8.04
230.222	6.88
230.6	2.28
230.978	6.97
231.356	5.58
231.733	7.71
232.111	11.81
232.488	8.2
232.866	9.04
233.243	6.22
233.621	7.4
233.998	3.99
234.376	7.02
234.753	6.86
235.13	5.91
235.508	3.13
235.885	2.3
236.262	4.02
236.639	4.35
237.016	3.14
237.393	4.53
237.77	3.11
238.147	3.52
238.524	3.68
238.901	2.3
239.278	2.53
239.655	2.49
240.032	1.89
240.409	1.97
240.785	2.04
241.162	2.59
241.539	2.37
241.915	3.48
242.292	3.04
242.668	3.13
243.045	3.39
243.421	4.01
243.798	4.5
244.174	4.35
244.551	4.73
244.927	4.77
245.303	4.11
245.679	4.11
246.056	4.03
246.432	4.01
246.808	4.3
247.184	4.28
247.56	4.12
247.936	3.87
248.312	4.1
248.688	4.07
249.064	4.14
249.44	4.09
249.815	3.91
250.191	3.87
250.567	3.77
250.943	3.69
251.318	3.72
251.694	3.21
252.069	3.23
252.445	3.26
252.82	3.49
253.196	3.79
253.571	4.21
253.947	4.37
254.322	4.1
254.697	3.65
255.073	3.45
255.448	3.33
255.823	3.61
256.198	3.39
256.573	3.62
256.948	3.48
257.323	3.56
257.698	3.58
258.073	3.51
258.448	3.45
258.823	3.46
259.198	3.47
259.573	3.63
259.948	3.61
260.322	3.61
260.697	3.6
261.072	3.52
261.446	3.34
261.821	3.24
262.195	3.26
262.57	3.38
262.944	3.64
263.319	3.78
263.693	3.7
264.067	3.67
264.442	3.52
264.816	3.52
265.19	3.51
265.564	3.47
265.938	3.43
266.313	3.45
266.687	3.47
267.061	3.41
267.435	3.4
267.809	3.31
268.183	3.05
268.556	2.99
268.93	3.12
269.304	3.01
269.678	3.03
270.051	3.25
270.425	3.07
270.799	2.62
271.172	2.56
271.546	2.75
271.919	2.81
272.293	2.84
272.666	2.86
273.04	2.93
273.413	2.88
273.787	3.11
274.16	3
274.533	2.94
274.906	2.74
275.279	2.62
275.653	2.83
276.026	2.9
276.399	2.98
276.772	2.89
277.145	3.11
277.518	2.99
277.891	2.9
278.263	3.28
278.636	3.58
279.009	3.71
279.382	3.54
279.755	3.52
280.127	3.58
280.5	3.47
280.872	3.48
281.245	3.49
281.617	3.33
281.99	3.48
282.362	3.51
282.735	3.76
283.107	3.82
283.479	3.68
283.852	3.61
284.224	3.45
284.596	3.41
284.968	3.35
285.34	3.38
285.713	3.5
286.085	3.19
286.457	3.16
286.829	3.11
287.201	3.23
287.572	3.42
287.944	3.52
288.316	3.67
288.688	3.67
289.06	3.81
289.431	4.03
289.803	4.11
290.175	4.07
290.546	3.82
290.918	3.86
291.289	3.76
291.661	3.92
292.032	4.11
292.403	4.13
292.775	4.13
293.146	4.24
293.517	4.3
293.889	4.48
294.26	4.55
294.631	4.57
295.002	4.56
295.373	4.54
295.744	4.42
296.115	4.35
296.486	4.21
296.857	4.19
297.228	3.96
297.599	3.89
297.97	3.97
298.34	4
298.711	4.09
299.082	4.19
299.452	4.09
299.823	3.94
300.194	4.07
300.564	3.99
300.935	4.02
301.305	3.89
301.676	3.73
302.046	3.49
302.416	3.5
302.787	3.43
303.157	3.47
303.527	3.43
303.897	3.51
304.267	3.6
304.637	3.57
305.008	3.84
305.378	3.77
305.748	3.74
306.117	3.74
306.487	3.82
306.857	3.76
307.227	3.84
307.597	3.84
307.967	3.72
308.336	3.82
308.706	3.74
309.076	3.81
309.445	4.02
309.815	4.17
310.184	4.17
310.554	4.22
310.923	4.14
311.293	4.11
311.662	4.05
312.031	3.96
312.401	3.85
312.77	3.73
313.139	3.77
313.508	3.7
313.877	3.65
314.246	3.45
314.616	3.53
314.985	3.49
315.353	3.62
315.722	3.82
316.091	3.83
316.46	3.81
316.829	3.66
317.198	3.5
317.567	3.6
317.935	3.48
318.304	3.45
318.672	3.48
319.041	3.54
319.41	3.65
319.778	3.8
320.147	3.84
320.515	3.88
320.883	3.92
321.252	4.16
321.62	4.35
321.988	4.41
322.357	4.39
322.725	4.44
323.093	4.53
323.461	4.4
323.829	4.43
324.197	4.36
324.565	4.35
324.933	4.42
325.301	4.23
325.669	4.38
326.037	4.42
326.405	4.29
326.772	4.34
327.14	4.16
327.508	3.97
327.875	3.94
328.243	3.92
328.61	3.98
328.978	3.85
329.346	3.81
329.713	3.73
330.08	3.7
330.448	3.83
330.815	3.66
331.182	3.69
331.55	3.69
331.917	3.86
332.284	3.87
332.651	3.93
333.018	4.05
333.385	4.03
333.752	3.99
334.119	4.1
334.486	4.14
334.853	4.34
335.22	4.53
335.587	4.64
335.954	4.62
336.32	4.65
336.687	4.67
337.054	4.62
337.42	4.74
337.787	4.86
338.153	4.76
338.52	4.84
338.886	4.78
339.253	4.74
339.619	4.68
339.986	4.6
340.352	4.48
340.718	4.51
341.084	4.46
341.451	4.48
341.817	4.45
342.183	4.33
342.549	4.22
342.915	4.21
343.281	4.23
343.647	4.23
344.013	4.14
344.379	4.19
344.745	4.19
345.11	4.03
345.476	4.14
345.842	4.07
346.208	4.08
346.573	4.21
346.939	4.25
347.304	4.3
347.67	4.5
348.035	4.54
348.401	4.51
348.766	4.51
349.132	4.56
349.497	4.57
349.862	4.66
350.228	4.7
350.593	4.67
350.958	4.72
351.323	4.64
351.688	4.67
352.053	4.61
352.418	4.66
352.783	4.71
353.148	4.71
353.513	4.78
353.878	4.72
354.243	4.57
354.608	4.55
354.972	4.44
355.337	4.36
355.702	4.44
356.066	4.54
356.431	4.66
356.795	4.58
357.16	4.57
357.524	4.52
357.889	4.5
358.253	4.55
358.618	4.49
358.982	4.53
359.346	4.59
359.71	4.53
360.075	4.54
360.439	4.6
360.803	4.53
361.167	4.51
361.531	4.49
361.895	4.48
362.259	4.44
362.623	4.54
362.987	4.51
363.351	4.42
363.714	4.36
364.078	4.27
364.442	4.26
364.806	4.21
365.169	4.16
365.533	4.17
365.896	4.17
366.26	4.13
366.623	4.09
366.987	4.01
367.35	4.13
367.714	4.11
368.077	4.06
368.44	4
368.803	3.96
369.167	3.86
369.53	3.94
369.893	3.94
370.256	3.9
370.619	3.84
370.982	3.76
371.345	3.79
371.708	3.78
372.071	3.77
372.434	3.83
372.797	3.91
373.159	3.89
373.522	3.81
373.885	3.84
374.247	3.8
374.61	3.8
374.973	3.69
375.335	3.69
375.698	3.63
376.06	3.62
376.423	3.66
376.785	3.79
377.147	3.74
377.51	3.76
377.872	3.7
378.234	3.79
378.596	3.89
378.958	3.86
379.321	3.83
379.683	3.82
380.045	3.78
380.407	3.68
380.769	3.66
381.13	3.62
381.492	3.6
381.854	3.65
382.216	3.63
382.578	3.7
382.939	3.64
383.301	3.66
383.663	3.65
384.024	3.63
384.386	3.6
384.747	3.57
385.109	3.57
385.47	3.61
385.832	3.54
386.193	3.53
386.554	3.51
386.916	3.52
387.277	3.5
387.638	3.49
387.999	3.49
388.36	3.52
388.721	3.58
389.082	3.6
389.443	3.58
389.804	3.59
390.165	3.56
390.526	3.62
390.887	3.59
391.248	3.6
391.609	3.62
391.969	3.58
392.33	3.58
392.691	3.56
393.051	3.52
393.412	3.54
393.772	3.53
394.133	3.46
394.493	3.43
394.854	3.42
395.214	3.4
395.574	3.4
395.935	3.35
396.295	3.31
396.655	3.26
397.015	3.22
397.376	3.2
397.736	3.19
398.096	3.16
398.456	3.2
398.816	3.18
399.176	3.1
399.535	3.13
399.895	3.12
400.255	3.13
400.615	3.15
400.975	3.14
401.334	3.13
401.694	3.2
402.054	3.2
402.413	3.24
402.773	3.2
403.132	3.23
403.492	3.27
403.851	3.24
404.211	3.26
404.57	3.27
404.929	3.28
405.288	3.27
405.648	3.27
406.007	3.28
406.366	3.27
406.725	3.3
407.084	3.3
407.443	3.31
407.802	3.27
408.161	3.26
408.52	3.27
408.879	3.23
409.238	3.21
409.596	3.25
409.955	3.2
410.314	3.27
410.673	3.26
411.031	3.24
411.39	3.27
411.748	3.28
412.107	3.26
412.465	3.23
412.824	3.21
413.182	3.18
413.54	3.12
413.899	3.11
414.257	3.13
414.615	3.14
414.974	3.11
415.332	3.12
415.69	3.12
416.048	3.11
416.406	3.11
416.764	3.12
417.122	3.09
417.48	3.08
417.838	3.06
418.195	3.05
418.553	3.05
418.911	3.04
419.269	3.03
419.626	3.05
419.984	3.06
420.342	3.06
420.699	3.08
421.057	3.09
421.414	3.07
421.772	3.05
422.129	3.04
422.486	3.04
422.844	3.04
423.201	3.04
423.558	3.05
423.915	3.05
424.273	3.05
424.63	3.05
424.987	3.06
425.344	3.06
425.701	3.07
426.058	3.07
426.415	3.04
426.772	3.04
427.128	3.05
427.485	3.04
427.842	3.05
428.199	3.04
428.555	3.04
428.912	3.05
429.269	3.06
429.625	3.06
429.982	3.07
430.338	3.07
430.695	3.06
431.051	3.05
431.407	3.07
431.764	3.06
432.12	3.07
432.476	3.09
432.832	3.1
433.189	3.08
433.545	3.07
433.901	3.1
434.257	3.1
434.613	3.08
434.969	3.09
435.325	3.08
435.681	3.07
436.036	3.06
436.392	3.08
436.748	3.09
437.104	3.1
437.459	3.1
437.815	3.09
438.171	3.1
438.526	3.08
438.882	3.07
439.237	3.07
439.593	3.08
439.948	3.08
440.304	3.07
440.659	3.08
441.014	3.06
441.369	3.08
441.725	3.08
442.08	3.08
442.435	3.07
442.79	3.05
443.145	3.05
443.5	3.06
443.855	3.03
444.21	3.03
444.565	3.03
444.92	3.03
445.275	3.02
445.629	3
445.984	3
446.339	3
446.693	2.99
447.048	2.98
447.403	2.96
447.757	2.96
448.112	2.96
448.466	2.97
448.82	2.95
449.175	2.95
449.529	2.94
449.883	2.92
450.238	2.92
450.592	2.92
450.946	2.91
451.3	2.92
451.654	2.89
452.008	2.88
452.362	2.89
452.716	2.93
453.07	2.93
453.424	2.95
453.778	2.94
454.132	2.93
454.486	2.94
454.839	2.94
455.193	2.93
455.547	2.94
455.9	2.95
456.254	2.96
456.607	2.96
456.961	2.98
457.314	2.99
457.668	3.01
458.021	3
458.375	3.02
458.728	3.01
459.081	3.02
459.434	3.03
459.787	3.02
460.141	3
460.494	3.01
460.847	2.98
461.2	2.97
461.553	2.99
461.906	2.99
462.259	2.99
462.611	3.01
462.964	2.99
463.317	2.97
463.67	2.98
464.022	2.98
464.375	2.97
464.728	2.98
465.08	2.96
465.433	2.99
465.785	2.98
466.138	2.98
466.49	2.99
466.843	3
467.195	3.01
467.547	3.02
467.899	3.03
468.252	3.05
468.604	3.05
468.956	3.05
469.308	3.04
469.66	3.05
470.012	3.03
470.364	3
470.716	3.01
471.068	3.02
471.42	2.99
471.772	3
472.123	2.99
472.475	3.01
472.827	3
473.178	3.02
473.53	3.03
473.882	3.01
474.233	2.98
474.585	2.96
474.936	2.95
475.288	2.94
475.639	2.92
475.99	2.92
476.342	2.92
476.693	2.92
477.044	2.94
477.395	2.96
477.746	2.96
478.097	2.95
478.448	2.93
478.8	2.93
479.15	2.93
479.501	2.94
479.852	2.93
480.203	2.93
480.554	2.93
480.905	2.94
481.255	2.95
481.606	2.97
481.957	2.97
482.307	2.97
482.658	2.97
483.009	2.97
483.359	2.98
483.709	2.98
484.06	2.98
484.41	2.98
484.761	2.98
485.111	2.99
485.461	3
485.811	3
486.162	3.01
486.512	3.02
486.862	3.02
487.212	3.03
487.562	3.04
487.912	3.03
488.262	3.01
488.612	3.01
488.961	3.01
489.311	3.02
489.661	3.02
490.011	3.03
490.36	3.04
490.71	3.04
491.06	3.05
491.409	3.04
491.759	3.04
492.108	3.06
492.458	3.06
492.807	3.07
493.157	3.09
493.506	3.09
493.855	3.08
494.204	3.07
494.554	3.05
494.903	3.04
495.252	3.06
495.601	3.08
495.95	3.1
496.299	3.11
496.648	3.1
496.997	3.11
497.346	3.1
497.695	3.11
498.043	3.12
498.392	3.13
498.741	3.16
499.09	3.16
499.438	3.15
499.787	3.13
500.135	3.11
500.484	3.12
500.832	3.12
501.181	3.16
501.529	3.2
501.878	3.24
502.226	3.26
502.574	3.26
502.923	3.29
503.271	3.29
503.619	3.3
503.967	3.31
504.315	3.33
504.663	3.37
505.011	3.39
505.359	3.38
505.707	3.4
506.055	3.41
506.403	3.42
506.751	3.47
507.098	3.49
507.446	3.51
507.794	3.54
508.141	3.58
508.489	3.59
508.837	3.59
509.184	3.59
509.531	3.6
509.879	3.62
510.226	3.66
510.574	3.69
510.921	3.71
511.268	3.74
511.616	3.74
511.963	3.75
512.31	3.77
512.657	3.81
513.004	3.82
513.351	3.84
513.698	3.88
514.045	3.86
514.392	3.91
514.739	3.92
515.086	3.95
515.432	3.98
515.779	3.99
516.126	4.02
516.473	4.03
516.819	4.08
517.166	4.12
517.512	4.12
517.859	4.15
518.205	4.15
518.552	4.19
518.898	4.22
519.245	4.25
519.591	4.26
519.937	4.31
520.283	4.35
520.629	4.39
520.976	4.44
521.322	4.48
521.668	4.54
522.014	4.59
522.36	4.62
522.706	4.65
523.052	4.69
523.398	4.75
523.743	4.82
524.089	4.88
524.435	4.92
524.781	4.98
525.126	5.02
525.472	5.09
525.817	5.12
526.163	5.17
526.509	5.22
526.854	5.28
527.199	5.3
527.545	5.33
527.89	5.37
528.235	5.41
528.581	5.45
528.926	5.49
529.271	5.53
529.616	5.6
529.961	5.65
530.306	5.71
530.651	5.77
530.996	5.85
531.341	5.92
531.686	5.99
532.031	6.07
532.376	6.15
532.721	6.22
533.065	6.32
533.41	6.42
533.755	6.49
534.099	6.56
534.444	6.66
534.788	6.75
535.133	6.85
535.477	6.93
535.822	7.06
536.166	7.16
536.51	7.29
536.855	7.41
537.199	7.55
537.543	7.71
537.887	7.87
538.231	8
538.576	8.16
538.92	8.31
539.264	8.46
539.608	8.58
539.951	8.72
540.295	8.84
540.639	8.97
540.983	9.11
541.327	9.27
541.671	9.41
542.014	9.55
542.358	9.7
542.701	9.86
543.045	10
543.389	10.16
543.732	10.33
544.075	10.49
544.419	10.64
544.762	10.82
545.105	10.99
545.449	11.17
545.792	11.34
546.135	11.55
546.478	11.77
546.821	12.01
547.165	12.27
547.508	12.54
547.851	12.78
548.194	13.04
548.536	13.29
548.879	13.56
549.222	13.84
549.565	14.08
549.908	14.35
550.25	14.64
550.593	14.89
550.936	15.14
551.278	15.4
551.621	15.71
551.963	15.97
552.306	16.28
552.648	16.54
552.991	16.83
553.333	17.1
553.675	17.4
554.017	17.67
554.36	17.94
554.702	18.18
555.044	18.5
555.386	18.8
555.728	19.11
556.07	19.34
556.412	19.63
556.754	19.93
557.096	20.29
557.438	20.55
557.78	20.86
558.121	21.2
558.463	21.53
558.805	21.84
559.147	22.12
559.488	22.34
559.83	22.71
560.171	23.01
560.513	23.32
560.854	23.56
561.196	23.87
561.537	24.13
561.878	24.42
562.22	24.66
562.561	24.92
562.902	25.15
563.243	25.47
563.584	25.67
563.925	26.01
564.266	26.23
564.607	26.51
564.948	26.78
565.289	27
565.63	27.21
565.971	27.49
566.312	27.72
566.653	27.98
566.993	28.14
567.334	28.37
567.675	28.55
568.015	28.83
568.356	29.04
568.696	29.29
569.037	29.46
569.377	29.67
569.718	29.9
570.058	30.12
570.398	30.34
570.739	30.56
571.079	30.72
571.419	30.9
571.759	31.1
572.099	31.28
572.439	31.51
572.779	31.7
573.119	31.85
573.459	31.98
573.799	32.16
574.139	32.36
574.479	32.54
574.819	32.77
575.158	32.92
575.498	33.18
575.838	33.37
576.177	33.66
576.517	33.89
576.856	34.06
577.196	34.29
577.535	34.43
577.875	34.7
578.214	34.94
578.553	35.2
578.893	35.39
579.232	35.62
579.571	35.84
579.91	36.09
580.25	36.3
580.589	36.61
580.928	36.85
581.267	37.05
581.606	37.24
581.945	37.39
582.283	37.59
582.622	37.69
582.961	37.89
583.3	38.03
583.639	38.24
583.977	38.44
584.316	38.58
584.654	38.83
584.993	39.01
585.332	39.11
585.67	39.23
586.008	39.45
586.347	39.58
586.685	39.67
587.024	39.83
587.362	40.01
587.7	40.19
588.038	40.3
588.376	40.47
588.715	40.56
589.053	40.73
589.391	40.84
589.729	40.94
590.067	40.99
590.404	41
590.742	41.12
591.08	41.29
591.418	41.42
591.756	41.53
592.093	41.68
592.431	41.85
592.769	41.91
593.106	41.94
593.444	42.06
593.781	42.24
594.119	42.36
594.456	42.38
594.793	42.4
595.131	42.52
595.468	42.62
595.805	42.76
596.143	42.89
596.48	42.92
596.817	43.05
597.154	43.16
597.491	43.33
597.828	43.37
598.165	43.34
598.502	43.4
598.839	43.5
599.176	43.52
599.512	43.57
599.849	43.76
600.186	43.86
600.523	43.93
600.859	43.94
601.196	44.02
601.532	44.17
601.869	44.26
602.205	44.27
602.542	44.31
602.878	44.37
603.215	44.39
603.551	44.45
603.887	44.52
604.223	44.57
604.56	44.61
604.896	44.7
605.232	44.75
605.568	44.84
605.904	44.86
606.24	44.93
606.576	44.99
606.912	45.05
607.248	45.17
607.583	45.17
607.919	45.27
608.255	45.36
608.591	45.42
608.926	45.54
609.262	45.61
609.597	45.72
609.933	45.84
610.268	45.88
610.604	46.02
610.939	46.14
611.275	46.3
611.61	46.34
611.945	46.42
612.281	46.65
612.616	46.78
612.951	46.88
613.286	46.99
613.621	47.12
613.956	47.15
614.291	47.22
614.626	47.47
614.961	47.56
615.296	47.52
615.631	47.56
615.966	47.58
616.3	47.76
616.635	47.78
616.97	47.78
617.304	47.93
617.639	47.94
617.973	47.99
618.308	48
618.642	48.04
618.977	48.21
619.311	48.18
619.646	48.15
619.98	48.17
620.314	48.2
620.648	48.28
620.983	48.41
621.317	48.49
621.651	48.44
621.985	48.41
622.319	48.42
622.653	48.5
622.987	48.58
623.321	48.63
623.655	48.71
623.988	48.69
624.322	48.66
624.656	48.71
624.99	48.58
625.323	48.58
625.657	48.66
625.99	48.67
626.324	48.63
626.657	48.68
626.991	48.73
627.324	48.74
627.658	48.68
627.991	48.75
628.324	48.77
628.657	48.82
628.991	48.89
629.324	49.05
629.657	49.05
629.99	49.02
630.323	49.07
630.656	49.02
630.989	49.06
631.322	49.11
631.655	49.23
631.987	49.35
632.32	49.42
632.653	49.47
632.986	49.47
633.318	49.55
633.651	49.57
633.984	49.69
634.316	49.75
634.649	49.84
634.981	49.8
635.313	49.87
635.646	49.9
635.978	49.97
636.31	50.01
636.643	50.12
636.975	50.22
637.307	50.26
637.639	50.36
637.971	50.51
638.303	50.5
638.635	50.5
638.967	50.61
639.299	50.66
639.631	50.75
639.963	50.75
640.295	50.79
640.626	50.85
640.958	50.88
641.29	50.96
641.621	51.07
641.953	51.04
642.285	51.11
642.616	51.11
642.948	51.09
643.279	51.06
643.61	51.08
643.942	51.14
644.273	51.07
644.604	51.13
644.936	51.18
645.267	51.31
645.598	51.32
645.929	51.32
646.26	51.3
646.591	51.34
646.922	51.34
647.253	51.34
647.584	51.38
647.915	51.34
648.245	51.28
648.576	51.19
648.907	51.3
649.238	51.31
649.568	51.27
649.899	51.25
650.229	51.31
650.56	51.25
650.89	51.27
651.221	51.35
651.551	51.39
651.882	51.35
652.212	51.27
652.542	51.13
652.872	51.04
653.203	51.06
653.533	50.96
653.863	50.89
654.193	50.88
654.523	50.79
654.853	50.7
655.183	50.75
655.513	50.71
655.843	50.62
656.172	50.6
656.502	50.59
656.832	50.55
657.162	50.41
657.491	50.39
657.821	50.43
658.15	50.39
658.48	50.38
658.809	50.42
659.139	50.46
659.468	50.62
659.798	50.75
660.127	50.88
660.456	50.88
660.785	51.01
661.115	51.12
661.444	51.21
661.773	51.3
662.102	51.26
662.431	51.33
662.76	51.47
663.089	51.46
663.418	51.7
663.747	51.88
664.076	52.11
664.404	52.23
664.733	52.21
665.062	52.29
665.39	52.3
665.719	52.25
666.048	52.32
666.376	52.3
666.705	52.23
667.033	52.17
667.362	52.21
667.69	52.26
668.018	52.33
668.347	52.4
668.675	52.41
669.003	52.45
669.331	52.58
669.659	52.53
669.987	52.58
670.315	52.55
670.643	52.62
670.971	52.6
671.299	52.7
671.627	52.58
671.955	52.4
672.283	52.5
672.61	52.49
672.938	52.55
673.266	52.48
673.593	52.49
673.921	52.49
674.249	52.49
674.576	52.43
674.904	52.31
675.231	52.29
675.558	52.34
675.886	52.38
676.213	52.22
676.54	52.22
676.867	52.13
677.195	52.12
677.522	52.05
677.849	52.06
678.176	52.05
678.503	52.05
678.83	52.21
679.157	52.07
679.484	52.13
679.81	52.04
680.137	52.08
680.464	52.17
680.791	52.07
681.117	52.25
681.444	52.25
681.771	52.19
682.097	52.16
682.424	52.17
682.75	52.12
683.077	52.16
683.403	52.06
683.729	52.21
684.056	52.2
684.382	52.14
684.708	52.16
685.034	52.11
685.36	52.16
685.686	52.15
686.012	52.15
686.339	52.2
686.664	52.16
686.99	52.06
687.316	52.07
687.642	52.21
687.968	52.13
688.294	52.06
688.619	52.09
688.945	51.98
689.271	52.01
689.596	52.18
689.922	52.29
690.247	52.4
690.573	52.4
690.898	52.52
691.224	52.72
691.549	52.71
691.874	52.76
692.2	52.93
692.525	53.11
692.85	53.12
693.175	53.13
693.5	53.29
693.825	53.46
694.15	53.39
694.475	53.43
694.8	53.45
695.125	53.35
695.45	53.35
695.775	53.41
696.099	53.29
696.424	53.01
696.749	52.84
697.073	52.81
697.398	52.68
697.723	52.54
698.047	52.35
698.372	52.35
698.696	52.32
699.02	52.22
699.345	52.12
699.669	52.19
699.993	52.04
700.318	52.03
700.642	52.04
700.966	52.08
701.29	52.15
701.614	52.13
701.938	52.41
702.262	52.38
702.586	52.33
702.91	52.47
703.234	52.61
703.557	52.94
703.881	53.11
704.205	53.28
704.529	53.33
704.852	53.54
705.176	53.51
705.499	53.69
705.823	53.9
706.146	54.19
706.47	54.32
706.793	54.48
707.117	54.53
707.44	54.53
707.763	54.74
708.086	54.5
708.409	54.62
708.733	54.4
709.056	54.58
709.379	54.92
709.702	54.79
710.025	55
710.348	54.91
710.671	54.72
710.993	54.74
711.316	54.88
711.639	55
711.962	55.23
712.284	55.18
712.607	55.18
712.93	54.83
713.252	54.77
713.575	54.82
713.897	54.77
714.22	54.86
714.542	54.59
714.864	54.56
715.187	54.39
715.509	54.42
715.831	54.29
716.153	54.07
716.475	54.35
716.798	54.29
717.12	54.35
717.442	54.63
717.764	54.49
718.085	54.36
718.407	54.3
718.729	54.07
719.051	53.89
719.373	53.96
719.695	54.1
720.016	54.01
720.338	54.31
720.659	54.36
720.981	54.36
721.302	54.64
721.624	54.96
721.945	54.78
722.267	54.97
722.588	55.15
722.909	55.2
723.231	54.96
723.552	54.83
723.873	54.53
724.194	54.37
724.515	54.45
724.836	54.55
725.157	54.36
725.478	54.4
725.799	54.56
726.12	54.5
726.441	54.52
726.762	54.71
727.083	54.59
727.403	54.59
727.724	54.44
728.045	54.33
728.365	54.17
728.686	54.49
729.006	54.3
729.327	54.25
729.647	54.46
729.967	54.61
730.288	54.49
730.608	54.73
730.928	54.78
731.249	54.76
731.569	54.9
731.889	54.88
732.209	54.95
732.529	54.89
732.849	54.84
733.169	54.94
733.489	54.93
733.809	54.75
734.129	54.54
734.448	54.62
734.768	54.64
735.088	54.53
735.408	54.74
735.727	54.85
736.047	55.02
736.366	54.62
736.686	54.81
737.005	55.15
737.325	55.11
737.644	55.24
737.963	55.31
738.283	55.21
738.602	55.38
738.921	55.4
739.24	55.53
739.56	55.7
739.879	55.72
740.198	56.04
740.517	56.51
740.836	56.68
741.155	56.8
741.473	56.87
741.792	57.01
742.111	56.65
742.43	56.81
742.748	56.59
743.067	56.85
743.386	56.65
743.704	56.76
744.023	56.7
744.341	56.84
744.66	57.01
744.978	57.12
745.297	57.04
745.615	57.08
745.933	57.26
746.252	56.95
746.57	56.97
746.888	56.68
747.206	56.2
747.524	56.73
747.842	56.66
748.16	56.62
748.478	56.49
748.796	56.68
749.114	56.23
749.432	56.26
749.749	56.42
750.067	56.65
750.385	56.47
750.703	56.4
751.02	56.26
751.338	56.02
751.655	56.02
751.973	56.21
752.29	56.54
752.608	56.24
752.925	56.18
753.242	55.75
753.56	55.84
753.877	55.22
754.194	54.56
754.511	54.62
754.828	54.61
755.145	55
755.462	55.05
755.779	55.31
756.096	55.29
756.413	54.93
756.73	54.35
757.047	54.16
757.364	54.05
757.68	53.93
757.997	53.45
758.314	53.2
758.63	52.96
758.947	52.42
759.264	52.36
759.58	52.17
759.896	51.9
760.213	51.56
760.529	51.85
760.846	51.91
761.162	51.55
761.478	51.44
761.794	51.04
762.11	51.04
762.426	50.66
762.743	50.61
763.059	50.37
763.375	50.36
763.69	50.68
764.006	50.64
764.322	50.43
764.638	50.56
764.954	50.63
765.27	50.37
765.585	50.37
765.901	50.63
766.216	50.93
766.532	51.07
766.848	51.13
767.163	51.61
767.478	51.63
767.794	51.94
768.109	52.08
768.424	52.27
768.74	52.25
769.055	53.32
769.37	53.44
769.685	54.27
770	54.75
770.315	54.59
770.63	55.23
770.945	55.67
771.26	56.67
771.575	56.69
771.89	57.49
772.205	57.67
772.52	57.2
772.834	57.14
773.149	57.6
773.464	57.55
773.778	57.32
774.093	57.67
774.407	57.83
774.722	57.7
775.036	58.06
775.351	58
775.665	57.04
775.979	57.03
776.293	56.93
776.608	56.57
776.922	56.29
777.236	56
777.55	56.15
777.864	55.46
778.178	55.32
778.492	54.82
778.806	55.17
779.12	55.57
779.434	55.61
779.747	55.57
780.061	56.26
780.375	56.36
780.689	56.2
781.002	55.99
781.316	56.1
781.629	56.35
781.943	55.93
782.256	56.76
782.57	56.84
782.883	56.52
783.196	56.89
783.51	56.86
783.823	56.7
784.136	56.94
784.449	56.83
784.762	57.58
785.075	58.2
785.388	57.86
785.701	57.88
786.014	58.26
786.327	58.32
786.64	57.94
786.953	57.29
787.266	57.74
787.578	57.95
787.891	58.27
788.204	57.47
788.516	57.68
788.829	56.95
789.141	56.65
789.454	56.46
789.766	56.78
790.079	57.23
790.391	57.83
790.703	56.9
791.016	57.42
791.328	56.92
791.64	56.78
791.952	57.13
792.264	57.04
792.576	56.72
792.888	56.22
793.2	56.04
793.512	56.4
793.824	55.69
794.136	55.52
794.448	55.02
794.76	55.58
795.071	55.71
795.383	55.72
795.695	56.21
796.006	56.77
796.318	56.18
796.629	55.77
796.941	55.34
797.252	55.7
797.564	55.02
797.875	55.19
798.186	54.9
798.497	55.11
798.809	54.73
799.12	54.39
799.431	55.46
799.742	55.86
800.053	56.19
800.364	56.04
800.675	56.71
800.986	57.28
801.297	56.91
801.608	56.28
801.918	56.21
802.229	56.42
802.54	56.21
802.851	56.63
803.161	56.82
803.472	56.92
803.782	56.63
804.093	57.37
804.403	57.23
804.714	57.39
805.024	56.81
805.334	57
805.645	57.02
805.955	56.57
806.265	56.07
806.575	55.52
806.885	56.03
807.195	55.83
807.505	55.77
807.815	55.73
808.125	56.33
808.435	55.81
808.745	55.05
809.055	55.65
809.365	54.95
809.674	54.78
809.984	54.22
810.294	55.21
810.603	55.11
810.913	55.52
811.222	55.28
811.532	55.29
811.841	55.38
812.151	55.49
812.46	55.12
812.769	55.69
813.079	56.1
813.388	56.82
813.697	55.72
814.006	54.71
814.315	54.64
814.624	54.78
814.933	55.54
815.242	57.45
815.551	57.19
815.86	58.05
816.169	58.28
816.478	58.31
816.786	57.39
817.095	55.59
817.404	54.6
817.712	54.28
818.021	53.51
818.33	53.19
818.638	52.5
818.947	51.81
819.255	51.64
819.563	51.13
819.872	50.51
820.18	50.29
820.488	50.46
820.796	50.64
821.105	50.31
821.413	50.07
821.721	49.51
822.029	49.33
822.337	49.18
822.645	49.14
822.953	49.44
823.26	49.66
823.568	49.89
823.876	49.91
824.184	50.01
824.491	50.2
824.799	50.3
825.107	50.53
825.414	50.55
825.722	50.52
826.029	50.43
826.337	50.45
826.644	50.61
826.951	50.74
827.259	50.54
827.566	50.69
827.873	50.74
828.18	51.08
828.488	51.11
828.795	51.15
829.102	51.21
829.409	50.74
829.716	50.65
830.023	50.9
830.329	50.9
830.636	50.69
830.943	50.28
831.25	50.37
831.557	50.17
831.863	50.46
832.17	50.55
832.476	51.56
832.783	51.87
833.089	51.66
833.396	51.34
833.702	51.43
834.009	51.85
834.315	52.07
834.621	51.53
834.928	51.73
835.234	51.69
835.54	52.06
835.846	52.58
836.152	52.21
836.458	51.85
836.764	52.4
837.07	52.86
837.376	53.06
837.682	53.12
837.988	53.23
838.293	53.77
838.599	53.48
838.905	52.68
839.211	53.18
839.516	53.56
839.822	54.75
840.127	55.45
840.433	55.33
840.738	55.81
841.044	56.08
841.349	56.9
841.654	56.71
841.959	56.42
842.265	56.45
842.57	57.04
842.875	57.98
843.18	57.68
843.485	58.37
843.79	58.43
844.095	57.58
844.4	56.69
844.705	55.62
845.01	55.46
845.315	55.87
845.619	55.3
845.924	56.93
846.229	54.41
846.533	52.82
846.838	51.68
847.142	51.81
847.447	51.83
847.751	49.16
848.056	50.48
848.36	49.58
848.664	48.73
848.969	48.16
849.273	47.41
849.577	45.79
849.881	43.89
850.185	42.36
850.489	42.05
850.794	43.71
851.097	44.2
851.401	43.34
851.705	43.43
852.009	44.5
852.313	41.86
852.617	43.07
852.92	44
853.224	45.87
853.528	44.25
853.831	45.86
854.135	49.11
854.438	47.29
854.742	47.12
855.045	47.9
855.349	47.77
855.652	48.6
855.955	50.15
856.259	49.18
856.562	53.18
856.865	51.72
857.168	51.9
857.471	50.27
857.774	52.83
858.077	52.61
858.38	51.62
858.683	54.14
858.986	57.56
859.289	59.46
859.592	57.55
859.894	59.74
860.197	58.01
860.5	56.41
860.802	55.41
861.105	55.93
861.407	56.04
861.71	57.44
862.012	57.49
862.315	58.58
862.617	59.85
862.919	59.59
863.222	62.62
863.524	61.72
863.826	62.05
864.128	61
864.43	61.45
864.732	60.51
865.034	59.99
865.336	55.05
865.638	55.7
865.94	55.95
866.242	55.15
866.544	58.01
866.846	58.76
867.147	62.94
867.449	62.17
867.751	60.03
868.052	58.19
868.354	58.31
868.655	56.37
868.957	56.56
869.258	53.37
869.56	51.37
869.861	52.23
870.162	54.58
870.463	54.55
870.765	54.01
871.066	52.32
871.367	50.96
871.668	51.2
871.969	47.53
872.27	49.57
872.571	47.89
872.872	45.71
873.173	45.94
873.473	41.98
873.774	44.93
874.075	46.12
874.376	47.2
874.676	47.99
874.977	49
875.277	49.06
875.578	53
875.878	54.68
876.179	53.38
876.479	52.28
876.78	51.24
877.08	50.94
877.38	52.29
877.68	52.66
877.981	53.98
878.281	58.13
878.581	55.18
