Data from BA17718_Reflection_00009.txt Node
Date: Tue Nov 19 11:47:45 EST 2019
User: vgr7
Spectrometer: USB2G7710
Scans to average: 3
Trigger mode: 4
Integration Time (sec): 2.000000E-2
Electric dark correction enabled: true
Boxcar width: 10
XAxis mode: Wavelengths
Number of Pixels in Spectrum: 2048
>>>>>Begin Spectral Data<<<<<
177.721	68.11
178.105	110.95
178.488	67.17
178.871	49.56
179.254	107.5
179.636	-1873.68
180.019	8.27
180.402	38.46
180.785	-17.27
181.168	48.55
181.55	68.95
181.933	84
182.316	55.25
182.698	43.14
183.081	25.95
183.463	10.43
183.846	-2.88
184.228	10.97
184.611	-6.55
184.993	11.36
185.376	-160.2
185.758	-79.75
186.14	118.75
186.522	-27.84
186.904	-146.43
187.287	283.96
187.669	175
188.051	-206.82
188.433	145.18
188.815	-408.93
189.197	-115.43
189.579	9.67
189.961	14.34
190.342	-0.1
190.724	-2.92
191.106	-15.62
191.488	-29.44
191.869	-16.59
192.251	-0.79
192.633	5.45
193.014	-5.28
193.396	2.62
193.777	29.36
194.159	1.05
194.54	19.29
194.922	20.16
195.303	13.5
195.684	-9.17
196.065	-10.8
196.447	3.68
196.828	-1.55
197.209	2.24
197.59	7.24
197.971	21.34
198.352	35.03
198.733	40.02
199.114	49.4
199.495	55.03
199.876	45.7
200.257	31.58
200.638	16.74
201.018	14.99
201.399	17.42
201.78	13.63
202.16	16.98
202.541	25.92
202.922	26.17
203.302	34.06
203.683	34.63
204.063	24.01
204.444	28.16
204.824	38.56
205.204	45.75
205.585	43.77
205.965	21.26
206.345	20.86
206.725	8.89
207.106	10.59
207.486	4.96
207.866	37.28
208.246	94.33
208.626	115.37
209.006	153.57
209.386	44.89
209.766	59.62
210.145	27.88
210.525	-3.52
210.905	41.22
211.285	42.61
211.664	64.38
212.044	90.34
212.424	69.05
212.803	50.14
213.183	70.54
213.562	61.43
213.942	84.83
214.321	63.47
214.701	80.4
215.08	71.07
215.459	97.99
215.838	26.93
216.218	39.57
216.597	43.33
216.976	40.71
217.355	44.4
217.734	54.28
218.113	61.71
218.492	53.13
218.871	31.6
219.25	13.89
219.629	5.39
220.008	8.14
220.387	-13.37
220.766	22.21
221.144	4.23
221.523	17.79
221.902	-1.2
222.28	-3.85
222.659	4.18
223.037	10.56
223.416	15.16
223.794	23.09
224.173	1.71
224.551	7.37
224.929	-8.78
225.308	-9.6
225.686	-9.94
226.064	-8.55
226.442	-9.75
226.821	-3.36
227.199	0.9
227.577	0.94
227.955	1.78
228.333	6.25
228.711	3.22
229.089	9.39
229.467	8.05
229.845	8.29
230.222	10.23
230.6	9.78
230.978	8.55
231.356	3.76
231.733	1.17
232.111	0.78
232.488	1.24
232.866	4.4
233.243	6.88
233.621	9.81
233.998	7.96
234.376	9.77
234.753	6.7
235.13	4.7
235.508	3.34
235.885	2.55
236.262	1.63
236.639	2.08
237.016	-0.8
237.393	0.4
237.77	1.41
238.147	1.92
238.524	2.27
238.901	1.1
239.278	1.77
239.655	3.37
240.032	4.38
240.409	3.64
240.785	3.17
241.162	3.47
241.539	3.54
241.915	4.29
242.292	4.14
242.668	4.54
243.045	5.71
243.421	5.84
243.798	6.03
244.174	6.24
244.551	6.1
244.927	6.04
245.303	6.22
245.679	5.88
246.056	5.88
246.432	5.65
246.808	6.05
247.184	6.29
247.56	5.93
247.936	6.04
248.312	6.45
248.688	6.67
249.064	6.65
249.44	6.44
249.815	6.37
250.191	6.05
250.567	6.27
250.943	5.72
251.318	5.52
251.694	5.03
252.069	5.02
252.445	4.9
252.82	5.44
253.196	5.22
253.571	5.57
253.947	5.61
254.322	5.84
254.697	5.39
255.073	5.01
255.448	5.63
255.823	5.33
256.198	4.95
256.573	4.91
256.948	4.97
257.323	5.13
257.698	4.79
258.073	4.89
258.448	4.89
258.823	4.96
259.198	5.11
259.573	5.24
259.948	5.07
260.322	5.2
260.697	4.86
261.072	4.84
261.446	4.79
261.821	4.58
262.195	4.36
262.57	4.55
262.944	4.63
263.319	4.39
263.693	4.46
264.067	4.61
264.442	4.69
264.816	4.55
265.19	4.2
265.564	4.15
265.938	4.2
266.313	4.01
266.687	3.83
267.061	3.59
267.435	3.82
267.809	3.8
268.183	3.74
268.556	3.9
268.93	4.02
269.304	4.11
269.678	4.21
270.051	4.09
270.425	3.97
270.799	3.64
271.172	3.58
271.546	3.49
271.919	3.41
272.293	3.16
272.666	3.14
273.04	3.3
273.413	3.38
273.787	3.24
274.16	3.15
274.533	3.44
274.906	3.67
275.279	3.59
275.653	3.7
276.026	3.66
276.399	3.5
276.772	3.32
277.145	3.21
277.518	3.13
277.891	3.59
278.263	3.78
278.636	4.12
279.009	4
279.382	3.92
279.755	3.95
280.127	4.05
280.5	4.06
280.872	4.12
281.245	4.22
281.617	4.5
281.99	4.49
282.362	4.17
282.735	4.05
283.107	3.73
283.479	3.87
283.852	3.94
284.224	4.1
284.596	4.21
284.968	4.06
285.34	4.07
285.713	3.89
286.085	3.77
286.457	3.68
286.829	3.75
287.201	3.79
287.572	3.97
287.944	4.09
288.316	4.12
288.688	4.11
289.06	4.02
289.431	4.06
289.803	4.2
290.175	4.52
290.546	4.55
290.918	5
291.289	4.72
291.661	4.81
292.032	4.86
292.403	4.83
292.775	4.93
293.146	5.11
293.517	5.04
293.889	5.02
294.26	5.22
294.631	5.23
295.002	5.31
295.373	5.08
295.744	5.02
296.115	5.06
296.486	5.09
296.857	5.28
297.228	5.14
297.599	5.1
297.97	4.93
298.34	4.98
298.711	4.99
299.082	5.14
299.452	5.04
299.823	5.09
300.194	5.03
300.564	5.06
300.935	5.04
301.305	5.03
301.676	5.05
302.046	5.05
302.416	5.1
302.787	5.07
303.157	5.17
303.527	5.3
303.897	5.38
304.267	5.3
304.637	5.3
305.008	5.38
305.378	5.4
305.748	5.41
306.117	5.43
306.487	5.28
306.857	5.35
307.227	5.67
307.597	5.57
307.967	5.58
308.336	5.49
308.706	5.47
309.076	5.59
309.445	5.72
309.815	5.71
310.184	5.77
310.554	5.92
310.923	6.01
311.293	6.08
311.662	6.01
312.031	6.11
312.401	6.05
312.77	6.16
313.139	6.16
313.508	6.35
313.877	6.26
314.246	6.35
314.616	6.26
314.985	6.01
315.353	6.29
315.722	6.47
316.091	6.65
316.46	6.65
316.829	6.71
317.198	6.79
317.567	6.83
317.935	6.97
318.304	7.12
318.672	7.18
319.041	7.16
319.41	7.32
319.778	7.39
320.147	7.33
320.515	7.35
320.883	7.38
321.252	7.22
321.62	7.39
321.988	7.43
322.357	7.55
322.725	7.59
323.093	7.53
323.461	7.56
323.829	7.7
324.197	7.55
324.565	7.88
324.933	7.76
325.301	7.68
325.669	7.62
326.037	7.57
326.405	7.56
326.772	7.63
327.14	7.72
327.508	7.62
327.875	7.81
328.243	7.66
328.61	7.73
328.978	7.9
329.346	7.86
329.713	8.03
330.08	8.1
330.448	8.3
330.815	8.29
331.182	8.35
331.55	8.34
331.917	8.44
332.284	8.27
332.651	8.39
333.018	8.58
333.385	8.68
333.752	8.72
334.119	8.81
334.486	8.74
334.853	8.58
335.22	8.59
335.587	8.58
335.954	8.54
336.32	8.69
336.687	8.62
337.054	8.65
337.42	8.48
337.787	8.56
338.153	8.57
338.52	8.62
338.886	8.6
339.253	8.59
339.619	8.75
339.986	8.64
340.352	8.77
340.718	8.62
341.084	8.63
341.451	8.61
341.817	8.61
342.183	8.48
342.549	8.64
342.915	8.82
343.281	8.92
343.647	9.2
344.013	9.06
344.379	9.14
344.745	9.27
345.11	9.45
345.476	9.51
345.842	9.4
346.208	9.42
346.573	9.44
346.939	9.48
347.304	9.46
347.67	9.55
348.035	9.43
348.401	9.39
348.766	9.29
349.132	9.32
349.497	9.34
349.862	9.53
350.228	9.5
350.593	9.48
350.958	9.45
351.323	9.32
351.688	9.43
352.053	9.4
352.418	9.3
352.783	9.18
353.148	9.09
353.513	9.15
353.878	9.13
354.243	9.06
354.608	8.99
354.972	8.9
355.337	8.86
355.702	8.82
356.066	8.93
356.431	8.93
356.795	8.92
357.16	8.82
357.524	8.75
357.889	8.74
358.253	8.75
358.618	8.72
358.982	8.63
359.346	8.53
359.71	8.47
360.075	8.49
360.439	8.59
360.803	8.55
361.167	8.47
361.531	8.4
361.895	8.39
362.259	8.46
362.623	8.46
362.987	8.55
363.351	8.56
363.714	8.59
364.078	8.61
364.442	8.51
364.806	8.53
365.169	8.47
365.533	8.35
365.896	8.29
366.26	8.25
366.623	8.23
366.987	8.26
367.35	8.28
367.714	8.2
368.077	8.12
368.44	8.14
368.803	8.09
369.167	8.04
369.53	8.04
369.893	7.98
370.256	7.97
370.619	7.77
370.982	7.67
371.345	7.58
371.708	7.59
372.071	7.59
372.434	7.57
372.797	7.59
373.159	7.65
373.522	7.62
373.885	7.52
374.247	7.54
374.61	7.5
374.973	7.43
375.335	7.44
375.698	7.32
376.06	7.24
376.423	7.25
376.785	7.3
377.147	7.28
377.51	7.24
377.872	7.27
378.234	7.3
378.596	7.24
378.958	7.19
379.321	7.11
379.683	7.14
380.045	7.08
380.407	6.99
380.769	6.88
381.13	6.8
381.492	6.79
381.854	6.73
382.216	6.65
382.578	6.69
382.939	6.67
383.301	6.67
383.663	6.59
384.024	6.58
384.386	6.47
384.747	6.43
385.109	6.36
385.47	6.32
385.832	6.28
386.193	6.3
386.554	6.29
386.916	6.24
387.277	6.11
387.638	6.06
387.999	6.07
388.36	6.09
388.721	6.12
389.082	6.09
389.443	6.08
389.804	6.06
390.165	5.97
390.526	5.9
390.887	5.87
391.248	5.88
391.609	5.88
391.969	5.83
392.33	5.8
392.691	5.74
393.051	5.63
393.412	5.57
393.772	5.56
394.133	5.49
394.493	5.42
394.854	5.42
395.214	5.4
395.574	5.35
395.935	5.33
396.295	5.24
396.655	5.19
397.015	5.13
397.376	5.11
397.736	5.09
398.096	5.06
398.456	5
398.816	4.96
399.176	4.88
399.535	4.85
399.895	4.82
400.255	4.84
400.615	4.88
400.975	4.85
401.334	4.78
401.694	4.77
402.054	4.78
402.413	4.75
402.773	4.74
403.132	4.69
403.492	4.63
403.851	4.59
404.211	4.57
404.57	4.59
404.929	4.54
405.288	4.53
405.648	4.48
406.007	4.47
406.366	4.42
406.725	4.4
407.084	4.42
407.443	4.41
407.802	4.33
408.161	4.29
408.52	4.29
408.879	4.3
409.238	4.29
409.596	4.26
409.955	4.27
410.314	4.26
410.673	4.26
411.031	4.26
411.39	4.26
411.748	4.28
412.107	4.25
412.465	4.24
412.824	4.22
413.182	4.21
413.54	4.23
413.899	4.24
414.257	4.21
414.615	4.18
414.974	4.17
415.332	4.19
415.69	4.17
416.048	4.15
416.406	4.1
416.764	4.07
417.122	4.06
417.48	4.04
417.838	4
418.195	3.98
418.553	3.98
418.911	3.96
419.269	3.92
419.626	3.91
419.984	3.9
420.342	3.9
420.699	3.88
421.057	3.87
421.414	3.85
421.772	3.85
422.129	3.81
422.486	3.8
422.844	3.77
423.201	3.76
423.558	3.74
423.915	3.75
424.273	3.75
424.63	3.75
424.987	3.72
425.344	3.74
425.701	3.72
426.058	3.7
426.415	3.7
426.772	3.68
427.128	3.68
427.485	3.66
427.842	3.63
428.199	3.63
428.555	3.61
428.912	3.58
429.269	3.57
429.625	3.59
429.982	3.57
430.338	3.61
430.695	3.59
431.051	3.58
431.407	3.56
431.764	3.55
432.12	3.54
432.476	3.57
432.832	3.57
433.189	3.59
433.545	3.59
433.901	3.61
434.257	3.62
434.613	3.59
434.969	3.59
435.325	3.6
435.681	3.6
436.036	3.59
436.392	3.63
436.748	3.63
437.104	3.63
437.459	3.63
437.815	3.6
438.171	3.63
438.526	3.63
438.882	3.64
439.237	3.62
439.593	3.61
439.948	3.6
440.304	3.59
440.659	3.58
441.014	3.57
441.369	3.57
441.725	3.56
442.08	3.56
442.435	3.56
442.79	3.54
443.145	3.52
443.5	3.52
443.855	3.48
444.21	3.48
444.565	3.48
444.92	3.47
445.275	3.46
445.629	3.44
445.984	3.46
446.339	3.43
446.693	3.43
447.048	3.42
447.403	3.41
447.757	3.4
448.112	3.4
448.466	3.41
448.82	3.39
449.175	3.39
449.529	3.4
449.883	3.38
450.238	3.38
450.592	3.39
450.946	3.38
451.3	3.39
451.654	3.38
452.008	3.39
452.362	3.4
452.716	3.41
453.07	3.41
453.424	3.4
453.778	3.41
454.132	3.4
454.486	3.42
454.839	3.41
455.193	3.4
455.547	3.41
455.9	3.4
456.254	3.39
456.607	3.39
456.961	3.37
457.314	3.38
457.668	3.39
458.021	3.4
458.375	3.39
458.728	3.4
459.081	3.39
459.434	3.38
459.787	3.37
460.141	3.37
460.494	3.37
460.847	3.37
461.2	3.38
461.553	3.38
461.906	3.37
462.259	3.37
462.611	3.39
462.964	3.39
463.317	3.39
463.67	3.4
464.022	3.4
464.375	3.44
464.728	3.42
465.08	3.4
465.433	3.4
465.785	3.44
466.138	3.46
466.49	3.49
466.843	3.51
467.195	3.51
467.547	3.52
467.899	3.54
468.252	3.55
468.604	3.55
468.956	3.57
469.308	3.58
469.66	3.6
470.012	3.62
470.364	3.63
470.716	3.63
471.068	3.65
471.42	3.65
471.772	3.65
472.123	3.71
472.475	3.74
472.827	3.74
473.178	3.73
473.53	3.71
473.882	3.69
474.233	3.67
474.585	3.67
474.936	3.71
475.288	3.68
475.639	3.7
475.99	3.7
476.342	3.7
476.693	3.7
477.044	3.67
477.395	3.64
477.746	3.62
478.097	3.62
478.448	3.61
478.8	3.58
479.15	3.56
479.501	3.53
479.852	3.52
480.203	3.51
480.554	3.52
480.905	3.52
481.255	3.52
481.606	3.52
481.957	3.51
482.307	3.51
482.658	3.5
483.009	3.5
483.359	3.49
483.709	3.48
484.06	3.49
484.41	3.5
484.761	3.51
485.111	3.51
485.461	3.51
485.811	3.52
486.162	3.53
486.512	3.55
486.862	3.57
487.212	3.58
487.562	3.59
487.912	3.6
488.262	3.6
488.612	3.6
488.961	3.61
489.311	3.61
489.661	3.61
490.011	3.63
490.36	3.62
490.71	3.65
491.06	3.68
491.409	3.7
491.759	3.72
492.108	3.72
492.458	3.75
492.807	3.77
493.157	3.78
493.506	3.79
493.855	3.78
494.204	3.78
494.554	3.78
494.903	3.8
495.252	3.81
495.601	3.84
495.95	3.86
496.299	3.87
496.648	3.91
496.997	3.93
497.346	3.97
497.695	4.01
498.043	4.02
498.392	4.03
498.741	4.02
499.09	4.04
499.438	4.07
499.787	4.11
500.135	4.13
500.484	4.17
500.832	4.19
501.181	4.22
501.529	4.28
501.878	4.34
502.226	4.37
502.574	4.42
502.923	4.45
503.271	4.47
503.619	4.55
503.967	4.57
504.315	4.63
504.663	4.69
505.011	4.74
505.359	4.8
505.707	4.81
506.055	4.89
506.403	4.92
506.751	4.94
507.098	4.98
507.446	5.05
507.794	5.09
508.141	5.14
508.489	5.21
508.837	5.24
509.184	5.29
509.531	5.36
509.879	5.4
510.226	5.45
510.574	5.51
510.921	5.54
511.268	5.61
511.616	5.67
511.963	5.73
512.31	5.78
512.657	5.83
513.004	5.89
513.351	5.95
513.698	6.01
514.045	6.1
514.392	6.18
514.739	6.22
515.086	6.3
515.432	6.38
515.779	6.44
516.126	6.52
516.473	6.59
516.819	6.65
517.166	6.72
517.512	6.79
517.859	6.88
518.205	6.94
518.552	7.01
518.898	7.08
519.245	7.15
519.591	7.22
519.937	7.29
520.283	7.38
520.629	7.47
520.976	7.59
521.322	7.7
521.668	7.8
522.014	7.92
522.36	8.04
522.706	8.16
523.052	8.29
523.398	8.42
523.743	8.54
524.089	8.68
524.435	8.83
524.781	8.95
525.126	9.07
525.472	9.21
525.817	9.31
526.163	9.4
526.509	9.49
526.854	9.58
527.199	9.67
527.545	9.75
527.89	9.84
528.235	9.91
528.581	9.98
528.926	10.07
529.271	10.16
529.616	10.27
529.961	10.37
530.306	10.47
530.651	10.56
530.996	10.69
531.341	10.82
531.686	10.93
532.031	11.05
532.376	11.16
532.721	11.28
533.065	11.42
533.41	11.57
533.755	11.72
534.099	11.87
534.444	12.04
534.788	12.2
535.133	12.37
535.477	12.54
535.822	12.72
536.166	12.92
536.51	13.13
536.855	13.3
537.199	13.51
537.543	13.75
537.887	14
538.231	14.23
538.576	14.44
538.92	14.67
539.264	14.93
539.608	15.15
539.951	15.37
540.295	15.56
540.639	15.76
540.983	15.96
541.327	16.14
541.671	16.32
542.014	16.53
542.358	16.72
542.701	16.91
543.045	17.09
543.389	17.3
543.732	17.5
544.075	17.71
544.419	17.91
544.762	18.12
545.105	18.36
545.449	18.57
545.792	18.87
546.135	19.13
546.478	19.37
546.821	19.67
547.165	19.97
547.508	20.31
547.851	20.61
548.194	20.88
548.536	21.23
548.879	21.54
549.222	21.82
549.565	22.16
549.908	22.48
550.25	22.84
550.593	23.14
550.936	23.47
551.278	23.85
551.621	24.18
551.963	24.53
552.306	24.84
552.648	25.21
552.991	25.5
553.333	25.81
553.675	26.12
554.017	26.43
554.36	26.78
554.702	27.01
555.044	27.3
555.386	27.66
555.728	27.93
556.07	28.26
556.412	28.6
556.754	28.95
557.096	29.29
557.438	29.64
557.78	30.01
558.121	30.35
558.463	30.66
558.805	31.04
559.147	31.45
559.488	31.76
559.83	32.11
560.171	32.47
560.513	32.84
560.854	33.25
561.196	33.64
561.537	33.96
561.878	34.31
562.22	34.71
562.561	35.03
562.902	35.42
563.243	35.76
563.584	36.11
563.925	36.43
564.266	36.75
564.607	37.07
564.948	37.39
565.289	37.71
565.63	37.98
565.971	38.25
566.312	38.47
566.653	38.79
566.993	39.06
567.334	39.33
567.675	39.66
568.015	39.92
568.356	40.12
568.696	40.37
569.037	40.67
569.377	40.91
569.718	41.16
570.058	41.44
570.398	41.63
570.739	41.85
571.079	42.1
571.419	42.33
571.759	42.51
572.099	42.68
572.439	42.92
572.779	43.19
573.119	43.44
573.459	43.68
573.799	43.9
574.139	44.14
574.479	44.32
574.819	44.47
575.158	44.67
575.498	44.95
575.838	45.19
576.177	45.41
576.517	45.61
576.856	45.86
577.196	46.05
577.535	46.35
577.875	46.61
578.214	46.81
578.553	47.09
578.893	47.4
579.232	47.64
579.571	47.86
579.91	47.97
580.25	48.13
580.589	48.31
580.928	48.48
581.267	48.64
581.606	48.91
581.945	49.09
582.283	49.26
582.622	49.39
582.961	49.59
583.3	49.78
583.639	49.99
583.977	50.11
584.316	50.34
584.654	50.49
584.993	50.6
585.332	50.72
585.67	50.82
586.008	50.87
586.347	51.05
586.685	51.18
587.024	51.48
587.362	51.64
587.7	51.77
588.038	51.94
588.376	52.08
588.715	52.17
589.053	52.3
589.391	52.44
589.729	52.63
590.067	52.75
590.404	52.83
590.742	53
591.08	53.18
591.418	53.26
591.756	53.42
592.093	53.54
592.431	53.76
592.769	53.88
593.106	54.08
593.444	54.16
593.781	54.27
594.119	54.3
594.456	54.42
594.793	54.52
595.131	54.58
595.468	54.7
595.805	54.83
596.143	54.94
596.48	55.04
596.817	55.09
597.154	55.14
597.491	55.26
597.828	55.3
598.165	55.36
598.502	55.38
598.839	55.48
599.176	55.64
599.512	55.65
599.849	55.73
600.186	55.83
600.523	55.89
600.859	55.99
601.196	56.05
601.532	56.18
601.869	56.27
602.205	56.4
602.542	56.46
602.878	56.57
603.215	56.63
603.551	56.75
603.887	56.82
604.223	56.87
604.56	56.92
604.896	57.06
605.232	57.09
605.568	57.23
605.904	57.28
606.24	57.37
606.576	57.5
606.912	57.64
607.248	57.72
607.583	57.79
607.919	57.82
608.255	57.98
608.591	57.99
608.926	58.03
609.262	58.05
609.597	58.09
609.933	58.11
610.268	58.16
610.604	58.15
610.939	58.17
611.275	58.25
611.61	58.28
611.945	58.28
612.281	58.32
612.616	58.31
612.951	58.33
613.286	58.36
613.621	58.33
613.956	58.32
614.291	58.35
614.626	58.4
614.961	58.51
615.296	58.52
615.631	58.57
615.966	58.68
616.3	58.73
616.635	58.76
616.97	58.86
617.304	58.97
617.639	59.01
617.973	59.1
618.308	59.09
618.642	59.18
618.977	59.21
619.311	59.33
619.646	59.41
619.98	59.44
620.314	59.4
620.648	59.44
620.983	59.44
621.317	59.38
621.651	59.51
621.985	59.59
622.319	59.68
622.653	59.74
622.987	59.72
623.321	59.79
623.655	59.87
623.988	59.94
624.322	59.95
624.656	59.94
624.99	60.06
625.323	60.12
625.657	60.09
625.99	60.09
626.324	60.12
626.657	60.15
626.991	60.16
627.324	60.19
627.658	60.24
627.991	60.3
628.324	60.37
628.657	60.38
628.991	60.19
629.324	60.12
629.657	60.15
629.99	60.24
630.323	60.22
630.656	60.24
630.989	60.21
631.322	60.23
631.655	60.24
631.987	60.19
632.32	60.17
632.653	60.22
632.986	60.26
633.318	60.24
633.651	60.28
633.984	60.34
634.316	60.33
634.649	60.34
634.981	60.35
635.313	60.42
635.646	60.42
635.978	60.64
636.31	60.74
636.643	60.65
636.975	60.6
637.307	60.6
637.639	60.59
637.971	60.59
638.303	60.57
638.635	60.62
638.967	60.64
639.299	60.61
639.631	60.61
639.963	60.6
640.295	60.63
640.626	60.55
640.958	60.54
641.29	60.44
641.621	60.48
641.953	60.46
642.285	60.45
642.616	60.49
642.948	60.36
643.279	60.46
643.61	60.55
643.942	60.63
644.273	60.78
644.604	60.73
644.936	60.6
645.267	60.66
645.598	60.62
645.929	60.67
646.26	60.81
646.591	60.81
646.922	60.84
647.253	60.91
647.584	60.99
647.915	60.99
648.245	61.11
648.576	61.11
648.907	61.14
649.238	61.06
649.568	61.08
649.899	61.07
650.229	61.04
650.56	61.18
650.89	61.23
651.221	61.29
651.551	61.41
651.882	61.59
652.212	61.5
652.542	61.62
652.872	61.64
653.203	61.71
653.533	61.65
653.863	61.6
654.193	61.5
654.523	61.49
654.853	61.56
655.183	61.65
655.513	61.63
655.843	61.75
656.172	61.8
656.502	61.8
656.832	61.88
657.162	61.84
657.491	61.76
657.821	61.67
658.15	61.59
658.48	61.67
658.809	61.58
659.139	61.73
659.468	61.66
659.798	61.61
660.127	61.5
660.456	61.61
660.785	61.68
661.115	61.75
661.444	61.77
661.773	61.81
662.102	61.77
662.431	61.74
662.76	61.72
663.089	61.68
663.418	61.81
663.747	61.89
664.076	61.86
664.404	61.9
664.733	61.94
665.062	61.93
665.39	61.85
665.719	61.89
666.048	61.91
666.376	61.92
666.705	61.88
667.033	61.94
667.362	62
667.69	62.14
668.018	62.24
668.347	62.16
668.675	62.24
669.003	62.34
669.331	62.24
669.659	62.22
669.987	62.33
670.315	62.1
670.643	62.04
670.971	62.01
671.299	61.93
671.627	62.05
671.955	62
672.283	61.97
672.61	61.86
672.938	61.71
673.266	61.76
673.593	61.76
673.921	61.79
674.249	61.7
674.576	61.62
674.904	61.62
675.231	61.78
675.558	61.62
675.886	61.76
676.213	61.87
676.54	61.91
676.867	61.88
677.195	61.99
677.522	62.06
677.849	62.16
678.176	62.23
678.503	62.15
678.83	62.33
679.157	62.32
679.484	62.38
679.81	62.57
680.137	62.55
680.464	62.61
680.791	62.61
681.117	62.66
681.444	62.65
681.771	62.61
682.097	62.68
682.424	62.71
682.75	62.6
683.077	62.51
683.403	62.56
683.729	62.46
684.056	62.43
684.382	62.42
684.708	62.5
685.034	62.47
685.36	62.47
685.686	62.43
686.012	62.52
686.339	62.45
686.664	62.43
686.99	62.4
687.316	62.44
687.642	62.38
687.968	62.53
688.294	62.44
688.619	62.42
688.945	62.22
689.271	62.24
689.596	62.11
689.922	62.34
690.247	62.23
690.573	62.38
690.898	62.47
691.224	62.47
691.549	62.35
691.874	62.42
692.2	62.48
692.525	62.43
692.85	62.35
693.175	62.68
693.5	62.61
693.825	62.77
694.15	62.79
694.475	62.89
694.8	62.76
695.125	62.93
695.45	62.83
695.775	62.87
696.099	62.78
696.424	62.95
696.749	63.02
697.073	63.02
697.398	63.01
697.723	62.99
698.047	62.96
698.372	63.02
698.696	63.02
699.02	63.05
699.345	63.11
699.669	63.21
699.993	63.18
700.318	63.07
700.642	62.94
700.966	62.84
701.29	62.74
701.614	62.66
701.938	62.5
702.262	62.75
702.586	62.95
702.91	63.28
703.234	63.19
703.557	63.08
703.881	63.07
704.205	62.96
704.529	62.96
704.852	63.04
705.176	62.93
705.499	62.85
705.823	62.84
706.146	62.76
706.47	62.66
706.793	62.35
707.117	62.41
707.44	62.57
707.763	62.68
708.086	62.81
708.409	62.84
708.733	62.83
709.056	62.6
709.379	62.59
709.702	62.22
710.025	62.36
710.348	62.31
710.671	62.4
710.993	62.4
711.316	62.22
711.639	62.24
711.962	62.38
712.284	62.36
712.607	62.35
712.93	62.33
713.252	62.4
713.575	62.66
713.897	62.56
714.22	62.47
714.542	62.44
714.864	62.5
715.187	62.32
715.509	62.49
715.831	62.36
716.153	62.09
716.475	62.23
716.798	62.22
717.12	62.32
717.442	62.35
717.764	62.53
718.085	62.51
718.407	62.53
718.729	62.66
719.051	62.84
719.373	62.84
719.695	62.8
720.016	62.6
720.338	62.2
720.659	62.51
720.981	62.71
721.302	62.7
721.624	62.65
721.945	62.98
722.267	63.2
722.588	63.55
722.909	63.86
723.231	63.63
723.552	63.43
723.873	63.52
724.194	63.36
724.515	63.39
724.836	63.59
725.157	63.46
725.478	63.23
725.799	63.2
726.12	63.28
726.441	63.18
726.762	63.22
727.083	63.36
727.403	63.04
727.724	62.95
728.045	62.89
728.365	62.81
728.686	62.9
729.006	62.92
729.327	62.83
729.647	62.75
729.967	63.07
730.288	63.02
730.608	62.86
730.928	62.85
731.249	62.76
731.569	62.73
731.889	62.65
732.209	62.51
732.529	62.67
732.849	62.63
733.169	62.9
733.489	62.71
733.809	62.68
734.129	62.77
734.448	62.8
734.768	62.67
735.088	62.6
735.408	62.3
735.727	61.9
736.047	61.94
736.366	61.81
736.686	61.84
737.005	62.09
737.325	62.38
737.644	62.47
737.963	62.46
738.283	62.42
738.602	62.36
738.921	62.47
739.24	62.3
739.56	62.33
739.879	62.18
740.198	62.57
740.517	62.7
740.836	62.5
741.155	62.67
741.473	62.81
741.792	62.8
742.111	62.85
742.43	62.98
742.748	62.8
743.067	62.85
743.386	62.46
743.704	62.21
744.023	62.31
744.341	62.15
744.66	62.11
744.978	62.27
745.297	62.14
745.615	62.07
745.933	61.91
746.252	61.79
746.57	61.87
746.888	61.87
747.206	62.22
747.524	62.37
747.842	61.84
748.16	62.1
748.478	62.28
748.796	62.4
749.114	62.46
749.432	62.45
749.749	62.27
750.067	62.31
750.385	62.34
750.703	61.82
751.02	61.98
751.338	61.8
751.655	61.74
751.973	62.17
752.29	62.25
752.608	62.58
752.925	62.5
753.242	62.54
753.56	62.21
753.877	61.88
754.194	62.05
754.511	62.37
754.828	62.18
755.145	61.9
755.462	61.8
755.779	61.73
756.096	62.06
756.413	62.35
756.73	62.49
757.047	62.03
757.364	61.91
757.68	61.71
757.997	62.14
758.314	62.3
758.63	62.4
758.947	62.33
759.264	62
759.58	62.23
759.896	61.99
760.213	62.27
760.529	62.1
760.846	62.25
761.162	62.32
761.478	62.25
761.794	62.45
762.11	62.64
762.426	62.7
762.743	62.46
763.059	62.61
763.375	62.85
763.69	63.18
764.006	63.47
764.322	63.73
764.638	63.67
764.954	63.27
765.27	63.06
765.585	63.14
765.901	63.25
766.216	63.28
766.532	63.62
766.848	63.52
767.163	63.78
767.478	64.01
767.794	63.78
768.109	63.96
768.424	63.95
768.74	63.75
769.055	63.53
769.37	63.35
769.685	63.13
770	62.58
770.315	62.82
770.63	62.61
770.945	62.62
771.26	62.09
771.575	62.62
771.89	62.8
772.205	62.76
772.52	62.85
772.834	63.18
773.149	62.82
773.464	63.24
773.778	63.05
774.093	62.67
774.407	63.12
774.722	63.1
775.036	63.25
775.351	63.64
775.665	63.55
775.979	63.58
776.293	63.21
776.608	63.59
776.922	63.42
777.236	62.91
777.55	62.49
777.864	62.73
778.178	62.77
778.492	62.45
778.806	62.13
779.12	61.62
779.434	61.17
779.747	61.24
780.061	60.95
780.375	60.79
780.689	60.8
781.002	60.62
781.316	60.48
781.629	60.36
781.943	59.97
782.256	60.42
782.57	60.24
782.883	60.57
783.196	60.61
783.51	60.71
783.823	61.69
784.136	62.01
784.449	62.42
784.762	62.51
785.075	62.87
785.388	62.87
785.701	62.98
786.014	63.04
786.327	63.35
786.64	63.26
786.953	63.52
787.266	63.77
787.578	63.78
787.891	64.22
788.204	64.12
788.516	64.77
788.829	64.7
789.141	65.4
789.454	65.28
789.766	64.82
790.079	65.01
790.391	64.58
790.703	64.57
791.016	64.52
791.328	64.36
791.64	64.17
791.952	64.94
792.264	65.55
792.576	65.78
792.888	64.79
793.2	64.95
793.512	64.92
793.824	64.57
794.136	64.07
794.448	63.83
794.76	64.2
795.071	63.83
795.383	64.16
795.695	63.76
796.006	64.22
796.318	64.96
796.629	64.78
796.941	64.61
797.252	64.12
797.564	64.44
797.875	64.65
798.186	64.21
798.497	63.84
798.809	63.58
799.12	62.69
799.431	63.74
799.742	63.91
800.053	64.13
800.364	64.27
800.675	64.9
800.986	65.29
801.297	64.8
801.608	64.53
801.918	64.02
802.229	64.77
802.54	64.73
802.851	64.42
803.161	64.5
803.472	64.7
803.782	64.75
804.093	64.69
804.403	64.95
804.714	64.87
805.024	65.27
805.334	65.37
805.645	66.41
805.955	65.73
806.265	65.12
806.575	65.12
806.885	65.52
807.195	65.86
807.505	65.79
807.815	65.97
808.125	66.54
808.435	66.28
808.745	65.65
809.055	65.37
809.365	65.41
809.674	64.37
809.984	64.72
810.294	65.24
810.603	64.57
810.913	63.49
811.222	63.93
811.532	64.7
811.841	63.66
812.151	63.12
812.46	64.07
812.769	64.47
813.079	63.91
813.388	63.23
813.697	62.11
814.006	61.83
814.315	62.37
814.624	61.39
814.933	62.04
815.242	62.29
815.551	63.49
815.86	63.33
816.169	63.77
816.478	63.74
816.786	63.95
817.095	64.18
817.404	65.22
817.712	66.25
818.021	64.26
818.33	64.45
818.638	63.92
818.947	63.82
819.255	63.17
819.563	63.15
819.872	63.4
820.18	63.61
820.488	64.01
820.796	63.86
821.105	63.89
821.413	64.08
821.721	63.82
822.029	63.5
822.337	63.55
822.645	63.79
822.953	63.84
823.26	63.77
823.568	63.89
823.876	63.84
824.184	63.75
824.491	63.91
824.799	64.04
825.107	64.21
825.414	64.18
825.722	64.47
826.029	64.75
826.337	64.92
826.644	65.06
826.951	64.89
827.259	64.94
827.566	65.34
827.873	65.12
828.18	65.4
828.488	65.37
828.795	65.56
829.102	65.39
829.409	65.41
829.716	65.35
830.023	65.43
830.329	65.07
830.636	64.47
830.943	65.14
831.25	65.03
831.557	64.99
831.863	64.78
832.17	64.71
832.476	64.7
832.783	64.07
833.089	63.9
833.396	64.08
833.702	63.77
834.009	63.58
834.315	64.14
834.621	63.79
834.928	64.11
835.234	63.6
835.54	63.11
835.846	63.08
836.152	62.84
836.458	62.81
836.764	62.52
837.07	63.49
837.376	63.32
837.682	63.41
837.988	63.58
838.293	63.99
838.599	64.14
838.905	64.82
839.211	65.51
839.516	65.65
839.822	65.18
840.127	66.22
840.433	66.61
840.738	65.47
841.044	66.91
841.349	67.29
841.654	68.1
841.959	70.41
842.265	71.28
842.57	73.25
842.875	72.28
843.18	72.94
843.485	73.11
843.79	72.22
844.095	74.03
844.4	73.92
844.705	74.45
845.01	74.55
845.315	72.17
845.619	71.62
845.924	71.77
846.229	73.71
846.533	73.16
846.838	73.67
847.142	77.46
847.447	76.17
847.751	76.26
848.056	74.81
848.36	74.52
848.664	72.33
848.969	72
849.273	73.23
849.577	76.35
849.881	74.93
850.185	74.22
850.489	72.71
850.794	73.83
851.097	74.39
851.401	77.23
851.705	77.02
852.009	75.64
852.313	75.31
852.617	72.19
852.92	71.04
853.224	67.82
853.528	63.51
853.831	63.58
854.135	63.39
854.438	67.78
854.742	67.9
855.045	69.94
855.349	68.69
855.652	66.68
855.955	66.16
856.259	67.61
856.562	67.05
856.865	67.11
857.168	66.08
857.471	65.19
857.774	61.58
858.077	64.41
858.38	68.48
858.683	71.42
858.986	72.4
859.289	73.29
859.592	73.58
859.894	76.9
860.197	75.9
860.5	73.3
860.802	68.07
861.105	68.52
861.407	68.5
861.71	70.81
862.012	74.25
862.315	73.58
862.617	70.64
862.919	71.42
863.222	74.88
863.524	75.24
863.826	73.81
864.128	75.05
864.43	73.9
864.732	72.55
865.034	72.06
865.336	71.32
865.638	74.12
865.94	76.53
866.242	75.85
866.544	76.29
866.846	77.42
867.147	82.67
867.449	79.36
867.751	76.96
868.052	73.36
868.354	72.45
868.655	73.8
868.957	74.85
869.258	75.59
869.56	73.22
869.861	71.23
870.162	72.65
870.463	73.09
870.765	71.77
871.066	68.05
871.367	65.2
871.668	65.65
871.969	63.57
872.27	62.24
872.571	63.22
872.872	63
873.173	61.63
873.473	57.41
873.774	57.55
874.075	55.48
874.376	55.91
874.676	54.64
874.977	54.43
875.277	53.65
875.578	53.35
875.878	51.49
876.179	52.32
876.479	50.93
876.78	49.4
877.08	49.66
877.38	51.21
877.68	52.37
877.981	51.85
878.281	49.86
878.581	48.5
