Data from BA17729_Reflection_00010.txt Node
Date: Tue Nov 19 11:50:54 EST 2019
User: vgr7
Spectrometer: USB2G7710
Scans to average: 3
Trigger mode: 4
Integration Time (sec): 2.000000E-2
Electric dark correction enabled: true
Boxcar width: 10
XAxis mode: Wavelengths
Number of Pixels in Spectrum: 2048
>>>>>Begin Spectral Data<<<<<
177.721	-33.39
178.105	-71.12
178.488	-48.94
178.871	-144.12
179.254	-70.73
179.636	-70.52
180.019	-85.75
180.402	-133.33
180.785	-40.85
181.168	271.55
181.55	84.2
181.933	37.59
182.316	74.32
182.698	73.52
183.081	75.43
183.463	37.68
183.846	82.54
184.228	197.85
184.611	109.94
184.993	151.16
185.376	923.53
185.758	-6.46
186.14	-0.92
186.522	-63.27
186.904	-73.63
187.287	-172.25
187.669	-364
188.051	-2718.18
188.433	-463.38
188.815	-228.86
189.197	-1708.51
189.579	186.96
189.961	170.29
190.342	150.16
190.724	-751.06
191.106	45.05
191.488	-138.53
191.869	-79.42
192.251	-23.78
192.633	-167.38
193.014	-96.32
193.396	-188.34
193.777	-39.4
194.159	-35.41
194.54	-36.91
194.922	-90.38
195.303	-95.2
195.684	-110.33
196.065	-121.5
196.447	-108.42
196.828	-69.15
197.209	-61.91
197.59	-23.53
197.971	-41.59
198.352	-45.54
198.733	-54.92
199.114	-53.63
199.495	-58.76
199.876	-7.79
200.257	-6.89
200.638	5.43
201.018	-10.57
201.399	-25.24
201.78	-24.1
202.16	-33.07
202.541	-49.37
202.922	-17.07
203.302	-20.77
203.683	-37.05
204.063	-42.41
204.444	-36.33
204.824	-25.36
205.204	-7.55
205.585	-3.27
205.965	-21.35
206.345	5.36
206.725	30.14
207.106	21.9
207.486	29.11
207.866	14.09
208.246	22.93
208.626	9.54
209.006	31.21
209.386	27.04
209.766	16.07
210.145	22.44
210.525	40.93
210.905	-0.74
211.285	-3.05
211.664	17.07
212.044	32.14
212.424	32.44
212.803	25.02
213.183	17.82
213.562	19.16
213.942	29.34
214.321	31.89
214.701	12.04
215.08	19.02
215.459	38.61
215.838	11.5
216.218	12.4
216.597	32.76
216.976	1.28
217.355	14.32
217.734	29.72
218.113	53.07
218.492	35.01
218.871	63.82
219.25	96.4
219.629	71.66
220.008	115.68
220.387	105.84
220.766	49.87
221.144	45.95
221.523	46.98
221.902	66.7
222.28	63.18
222.659	61
223.037	62.91
223.416	54.18
223.794	66.56
224.173	45.79
224.551	48.14
224.929	40.43
225.308	42.43
225.686	20.81
226.064	-0.85
226.442	7.98
226.821	0.88
227.199	-6.46
227.577	-1.41
227.955	-4.53
228.333	-3.91
228.711	-0.47
229.089	2.8
229.467	2.92
229.845	-0.47
230.222	-0.3
230.6	-2.41
230.978	0.56
231.356	1.39
231.733	5.37
232.111	7.4
232.488	6.85
232.866	8.22
233.243	7.81
233.621	12.13
233.998	13.51
234.376	11.74
234.753	11.64
235.13	12.29
235.508	13.89
235.885	15.27
236.262	14.83
236.639	15.09
237.016	13.39
237.393	11.79
237.77	11.16
238.147	9.79
238.524	10.34
238.901	8.13
239.278	6.59
239.655	5.94
240.032	5.12
240.409	4.23
240.785	4.63
241.162	4.07
241.539	3.36
241.915	3.87
242.292	4.25
242.668	4.94
243.045	5.81
243.421	5.77
243.798	5.56
244.174	6.08
244.551	6.15
244.927	6.22
245.303	6.26
245.679	6.29
246.056	6.5
246.432	6.49
246.808	6.87
247.184	6.93
247.56	6.74
247.936	7.11
248.312	7.54
248.688	7.37
249.064	7.59
249.44	7.56
249.815	7.71
250.191	7.72
250.567	7.63
250.943	7.37
251.318	7.23
251.694	7.26
252.069	7.33
252.445	7.35
252.82	7.44
253.196	7.47
253.571	7.62
253.947	7.43
254.322	7.08
254.697	6.95
255.073	6.8
255.448	6.73
255.823	6.82
256.198	6.45
256.573	6.3
256.948	6.35
257.323	6.41
257.698	6
258.073	5.92
258.448	5.89
258.823	5.66
259.198	5.78
259.573	5.61
259.948	5.52
260.322	5.33
260.697	5.39
261.072	5.52
261.446	5.31
261.821	5.37
262.195	5.48
262.57	5.52
262.944	5.59
263.319	5.74
263.693	5.41
264.067	5.59
264.442	5.6
264.816	5.44
265.19	5.37
265.564	5.49
265.938	5.42
266.313	5.46
266.687	5.47
267.061	5.5
267.435	5.51
267.809	5.27
268.183	5.47
268.556	5.38
268.93	5.58
269.304	5.68
269.678	5.65
270.051	5.58
270.425	5.55
270.799	5.55
271.172	5.6
271.546	5.89
271.919	5.86
272.293	5.94
272.666	6.11
273.04	6.08
273.413	6.03
273.787	5.99
274.16	5.81
274.533	6.05
274.906	6.12
275.279	6.14
275.653	6.41
276.026	6.44
276.399	6.42
276.772	6.44
277.145	6.46
277.518	6.39
277.891	6.53
278.263	6.55
278.636	6.67
279.009	6.56
279.382	6.44
279.755	6.47
280.127	6.32
280.5	6.37
280.872	6.59
281.245	6.5
281.617	6.56
281.99	6.73
282.362	6.6
282.735	6.4
283.107	6.38
283.479	6.38
283.852	6.32
284.224	6.41
284.596	6.21
284.968	6.25
285.34	6.27
285.713	6.28
286.085	6.2
286.457	6.12
286.829	6.2
287.201	6.31
287.572	6.3
287.944	6.52
288.316	6.5
288.688	6.51
289.06	6.64
289.431	6.81
289.803	6.73
290.175	6.7
290.546	6.67
290.918	6.73
291.289	6.72
291.661	6.78
292.032	6.73
292.403	6.79
292.775	6.94
293.146	7
293.517	6.96
293.889	6.97
294.26	7.07
294.631	7.1
295.002	7.1
295.373	7.03
295.744	7.03
296.115	7.05
296.486	6.99
296.857	7.12
297.228	6.96
297.599	7.06
297.97	7.14
298.34	7.43
298.711	7.49
299.082	7.51
299.452	7.55
299.823	7.55
300.194	7.63
300.564	7.43
300.935	7.53
301.305	7.7
301.676	7.73
302.046	7.64
302.416	7.7
302.787	7.74
303.157	7.83
303.527	7.97
303.897	8.07
304.267	8.14
304.637	8.09
305.008	8.29
305.378	8.3
305.748	8.41
306.117	8.32
306.487	8.44
306.857	8.45
307.227	8.58
307.597	8.72
307.967	8.82
308.336	8.91
308.706	9.01
309.076	8.91
309.445	9.15
309.815	9.35
310.184	9.33
310.554	9.32
310.923	9.35
311.293	9.33
311.662	9.35
312.031	9.33
312.401	9.3
312.77	9.3
313.139	9.43
313.508	9.42
313.877	9.47
314.246	9.48
314.616	9.6
314.985	9.47
315.353	9.44
315.722	9.56
316.091	9.71
316.46	9.79
316.829	9.96
317.198	10
317.567	10.16
317.935	10.31
318.304	10.5
318.672	10.48
319.041	10.58
319.41	10.58
319.778	10.65
320.147	10.67
320.515	10.86
320.883	10.85
321.252	10.99
321.62	11.03
321.988	10.95
322.357	10.92
322.725	10.99
323.093	11
323.461	10.96
323.829	10.98
324.197	10.91
324.565	10.88
324.933	10.8
325.301	10.46
325.669	10.42
326.037	10.28
326.405	10.43
326.772	10.35
327.14	10.3
327.508	10.28
327.875	10.26
328.243	10.13
328.61	10.03
328.978	9.89
329.346	10.03
329.713	10.21
330.08	10.24
330.448	10.33
330.815	10.43
331.182	10.33
331.55	10.39
331.917	10.39
332.284	10.39
332.651	10.41
333.018	10.58
333.385	10.52
333.752	10.48
334.119	10.5
334.486	10.45
334.853	10.5
335.22	10.5
335.587	10.56
335.954	10.46
336.32	10.48
336.687	10.63
337.054	10.52
337.42	10.38
337.787	10.41
338.153	10.38
338.52	10.33
338.886	10.25
339.253	10.31
339.619	10.11
339.986	10.09
340.352	10.1
340.718	10.13
341.084	10.13
341.451	10.22
341.817	10.29
342.183	10.24
342.549	10.27
342.915	10.21
343.281	10.2
343.647	10.2
344.013	10.25
344.379	10.2
344.745	10.27
345.11	10.35
345.476	10.29
345.842	10.17
346.208	10.21
346.573	10.21
346.939	10.15
347.304	10.34
347.67	10.32
348.035	10.27
348.401	10.19
348.766	10.16
349.132	10.18
349.497	10.19
349.862	10.19
350.228	10.17
350.593	10.35
350.958	10.41
351.323	10.54
351.688	10.57
352.053	10.61
352.418	10.5
352.783	10.48
353.148	10.35
353.513	10.33
353.878	10.23
354.243	10.24
354.608	10.29
354.972	10.21
355.337	10.29
355.702	10.28
356.066	10.45
356.431	10.44
356.795	10.38
357.16	10.25
357.524	10.26
357.889	10.16
358.253	10.05
358.618	10.03
358.982	9.97
359.346	9.88
359.71	9.8
360.075	9.86
360.439	9.87
360.803	10
361.167	10.11
361.531	10.12
361.895	10.04
362.259	10.04
362.623	10.08
362.987	10.02
363.351	9.94
363.714	9.88
364.078	9.91
364.442	9.94
364.806	9.95
365.169	9.93
365.533	9.97
365.896	9.98
366.26	9.95
366.623	9.94
366.987	9.94
367.35	9.97
367.714	9.85
368.077	9.88
368.44	9.78
368.803	9.63
369.167	9.56
369.53	9.6
369.893	9.45
370.256	9.37
370.619	9.35
370.982	9.34
371.345	9.33
371.708	9.2
372.071	9.08
372.434	8.94
372.797	8.9
373.159	8.8
373.522	8.76
373.885	8.7
374.247	8.63
374.61	8.57
374.973	8.53
375.335	8.49
375.698	8.36
376.06	8.27
376.423	8.23
376.785	8.26
377.147	8.19
377.51	8.2
377.872	8.14
378.234	8.15
378.596	8.17
378.958	8.07
379.321	8.09
379.683	8.11
380.045	8.11
380.407	8.09
380.769	8.13
381.13	8.07
381.492	8.06
381.854	8.07
382.216	8.14
382.578	8.1
382.939	8.06
383.301	8
383.663	8.04
384.024	8.03
384.386	7.96
384.747	7.89
385.109	7.85
385.47	7.87
385.832	7.74
386.193	7.7
386.554	7.63
386.916	7.57
387.277	7.53
387.638	7.57
387.999	7.56
388.36	7.51
388.721	7.45
389.082	7.43
389.443	7.37
389.804	7.28
390.165	7.24
390.526	7.26
390.887	7.24
391.248	7.23
391.609	7.2
391.969	7.18
392.33	7.18
392.691	7.18
393.051	7.13
393.412	7.13
393.772	7.09
394.133	7.1
394.493	7.06
394.854	7.06
395.214	7
395.574	6.95
395.935	6.92
396.295	6.95
396.655	6.93
397.015	6.94
397.376	6.97
397.736	6.93
398.096	6.88
398.456	6.86
398.816	6.79
399.176	6.78
399.535	6.76
399.895	6.78
400.255	6.74
400.615	6.7
400.975	6.68
401.334	6.69
401.694	6.63
402.054	6.63
402.413	6.59
402.773	6.59
403.132	6.55
403.492	6.53
403.851	6.49
404.211	6.42
404.57	6.39
404.929	6.35
405.288	6.36
405.648	6.33
406.007	6.32
406.366	6.33
406.725	6.34
407.084	6.33
407.443	6.3
407.802	6.25
408.161	6.25
408.52	6.22
408.879	6.18
409.238	6.2
409.596	6.17
409.955	6.17
410.314	6.14
410.673	6.11
411.031	6.1
411.39	6.11
411.748	6.15
412.107	6.09
412.465	6.06
412.824	6.02
413.182	6.01
413.54	6
413.899	5.95
414.257	5.87
414.615	5.87
414.974	5.84
415.332	5.84
415.69	5.82
416.048	5.81
416.406	5.77
416.764	5.74
417.122	5.75
417.48	5.72
417.838	5.72
418.195	5.72
418.553	5.69
418.911	5.65
419.269	5.62
419.626	5.61
419.984	5.6
420.342	5.58
420.699	5.57
421.057	5.57
421.414	5.57
421.772	5.58
422.129	5.55
422.486	5.54
422.844	5.53
423.201	5.53
423.558	5.53
423.915	5.54
424.273	5.53
424.63	5.52
424.987	5.52
425.344	5.5
425.701	5.49
426.058	5.49
426.415	5.49
426.772	5.48
427.128	5.49
427.485	5.49
427.842	5.47
428.199	5.48
428.555	5.46
428.912	5.45
429.269	5.42
429.625	5.43
429.982	5.43
430.338	5.42
430.695	5.41
431.051	5.41
431.407	5.41
431.764	5.39
432.12	5.4
432.476	5.38
432.832	5.39
433.189	5.39
433.545	5.35
433.901	5.36
434.257	5.35
434.613	5.34
434.969	5.32
435.325	5.36
435.681	5.34
436.036	5.37
436.392	5.36
436.748	5.36
437.104	5.36
437.459	5.36
437.815	5.34
438.171	5.32
438.526	5.31
438.882	5.29
439.237	5.31
439.593	5.3
439.948	5.3
440.304	5.29
440.659	5.29
441.014	5.33
441.369	5.32
441.725	5.32
442.08	5.31
442.435	5.31
442.79	5.29
443.145	5.27
443.5	5.23
443.855	5.23
444.21	5.24
444.565	5.24
444.92	5.24
445.275	5.25
445.629	5.24
445.984	5.23
446.339	5.22
446.693	5.2
447.048	5.16
447.403	5.15
447.757	5.15
448.112	5.12
448.466	5.11
448.82	5.1
449.175	5.09
449.529	5.09
449.883	5.09
450.238	5.08
450.592	5.09
450.946	5.1
451.3	5.1
451.654	5.07
452.008	5.08
452.362	5.06
452.716	5.05
453.07	5.05
453.424	5.06
453.778	5.06
454.132	5.06
454.486	5.07
454.839	5.08
455.193	5.06
455.547	5.07
455.9	5.06
456.254	5.07
456.607	5.07
456.961	5.05
457.314	5.05
457.668	5.04
458.021	5.02
458.375	5.02
458.728	5
459.081	5.02
459.434	5
459.787	5.02
460.141	5.02
460.494	5.03
460.847	5.02
461.2	5.04
461.553	5.06
461.906	5.06
462.259	5.06
462.611	5.09
462.964	5.1
463.317	5.1
463.67	5.09
464.022	5.09
464.375	5.13
464.728	5.14
465.08	5.14
465.433	5.15
465.785	5.17
466.138	5.2
466.49	5.19
466.843	5.21
467.195	5.22
467.547	5.24
467.899	5.23
468.252	5.28
468.604	5.28
468.956	5.28
469.308	5.31
469.66	5.34
470.012	5.33
470.364	5.33
470.716	5.33
471.068	5.38
471.42	5.4
471.772	5.4
472.123	5.4
472.475	5.43
472.827	5.46
473.178	5.45
473.53	5.42
473.882	5.46
474.233	5.43
474.585	5.42
474.936	5.45
475.288	5.44
475.639	5.41
475.99	5.39
476.342	5.39
476.693	5.38
477.044	5.36
477.395	5.36
477.746	5.36
478.097	5.33
478.448	5.28
478.8	5.26
479.15	5.25
479.501	5.24
479.852	5.23
480.203	5.23
480.554	5.24
480.905	5.26
481.255	5.24
481.606	5.25
481.957	5.27
482.307	5.25
482.658	5.27
483.009	5.27
483.359	5.27
483.709	5.28
484.06	5.27
484.41	5.28
484.761	5.29
485.111	5.31
485.461	5.33
485.811	5.34
486.162	5.35
486.512	5.36
486.862	5.37
487.212	5.38
487.562	5.38
487.912	5.4
488.262	5.4
488.612	5.42
488.961	5.44
489.311	5.44
489.661	5.46
490.011	5.46
490.36	5.47
490.71	5.48
491.06	5.49
491.409	5.52
491.759	5.53
492.108	5.54
492.458	5.54
492.807	5.54
493.157	5.56
493.506	5.57
493.855	5.58
494.204	5.59
494.554	5.61
494.903	5.64
495.252	5.64
495.601	5.65
495.95	5.69
496.299	5.71
496.648	5.71
496.997	5.73
497.346	5.77
497.695	5.8
498.043	5.82
498.392	5.84
498.741	5.85
499.09	5.88
499.438	5.9
499.787	5.92
500.135	5.94
500.484	5.97
500.832	6.01
501.181	6.05
501.529	6.09
501.878	6.12
502.226	6.15
502.574	6.2
502.923	6.24
503.271	6.27
503.619	6.29
503.967	6.33
504.315	6.35
504.663	6.37
505.011	6.41
505.359	6.45
505.707	6.49
506.055	6.52
506.403	6.55
506.751	6.57
507.098	6.63
507.446	6.68
507.794	6.69
508.141	6.74
508.489	6.79
508.837	6.82
509.184	6.85
509.531	6.88
509.879	6.9
510.226	6.94
510.574	6.97
510.921	7
511.268	7.06
511.616	7.12
511.963	7.16
512.31	7.2
512.657	7.24
513.004	7.28
513.351	7.32
513.698	7.35
514.045	7.4
514.392	7.42
514.739	7.48
515.086	7.55
515.432	7.6
515.779	7.64
516.126	7.72
516.473	7.76
516.819	7.81
517.166	7.85
517.512	7.89
517.859	7.95
518.205	7.99
518.552	8.03
518.898	8.05
519.245	8.14
519.591	8.17
519.937	8.22
520.283	8.29
520.629	8.35
520.976	8.42
521.322	8.48
521.668	8.55
522.014	8.6
522.36	8.65
522.706	8.72
523.052	8.79
523.398	8.86
523.743	8.96
524.089	9.07
524.435	9.16
524.781	9.23
525.126	9.31
525.472	9.38
525.817	9.43
526.163	9.5
526.509	9.52
526.854	9.6
527.199	9.66
527.545	9.7
527.89	9.75
528.235	9.81
528.581	9.89
528.926	9.94
529.271	10.01
529.616	10.08
529.961	10.14
530.306	10.21
530.651	10.27
530.996	10.34
531.341	10.42
531.686	10.52
532.031	10.61
532.376	10.69
532.721	10.79
533.065	10.89
533.41	11
533.755	11.11
534.099	11.21
534.444	11.31
534.788	11.4
535.133	11.5
535.477	11.61
535.822	11.72
536.166	11.87
536.51	12.01
536.855	12.15
537.199	12.27
537.543	12.41
537.887	12.58
538.231	12.75
538.576	12.89
538.92	13.02
539.264	13.16
539.608	13.29
539.951	13.43
540.295	13.57
540.639	13.68
540.983	13.82
541.327	13.93
541.671	14.08
542.014	14.25
542.358	14.39
542.701	14.52
543.045	14.66
543.389	14.77
543.732	14.9
544.075	15.03
544.419	15.22
544.762	15.36
545.105	15.51
545.449	15.66
545.792	15.85
546.135	16.04
546.478	16.26
546.821	16.47
547.165	16.66
547.508	16.87
547.851	17.13
548.194	17.36
548.536	17.65
548.879	17.87
549.222	18.08
549.565	18.34
549.908	18.62
550.25	18.83
550.593	19.08
550.936	19.38
551.278	19.65
551.621	19.91
551.963	20.24
552.306	20.52
552.648	20.79
552.991	21.04
553.333	21.3
553.675	21.55
554.017	21.81
554.36	22.09
554.702	22.35
555.044	22.59
555.386	22.85
555.728	23.12
556.07	23.42
556.412	23.73
556.754	24.02
557.096	24.25
557.438	24.54
557.78	24.83
558.121	25.11
558.463	25.46
558.805	25.77
559.147	26.02
559.488	26.3
559.83	26.6
560.171	26.93
560.513	27.28
560.854	27.55
561.196	27.88
561.537	28.2
561.878	28.53
562.22	28.86
562.561	29.15
562.902	29.43
563.243	29.74
563.584	30.04
563.925	30.36
564.266	30.66
564.607	30.97
564.948	31.24
565.289	31.51
565.63	31.78
565.971	32.04
566.312	32.33
566.653	32.63
566.993	32.95
567.334	33.19
567.675	33.42
568.015	33.7
568.356	33.96
568.696	34.26
569.037	34.52
569.377	34.74
569.718	35.05
570.058	35.35
570.398	35.58
570.739	35.84
571.079	36.1
571.419	36.4
571.759	36.69
572.099	36.94
572.439	37.13
572.779	37.37
573.119	37.6
573.459	37.8
573.799	37.99
574.139	38.18
574.479	38.41
574.819	38.62
575.158	38.86
575.498	39.06
575.838	39.24
576.177	39.47
576.517	39.68
576.856	39.87
577.196	40.06
577.535	40.31
577.875	40.54
578.214	40.76
578.553	40.92
578.893	41.15
579.232	41.42
579.571	41.73
579.91	41.95
580.25	42.15
580.589	42.45
580.928	42.64
581.267	42.89
581.606	43.14
581.945	43.41
582.283	43.65
582.622	43.89
582.961	44.09
583.3	44.26
583.639	44.56
583.977	44.78
584.316	44.86
584.654	44.98
584.993	45.2
585.332	45.37
585.67	45.55
586.008	45.77
586.347	45.93
586.685	46.03
587.024	46.19
587.362	46.35
587.7	46.47
588.038	46.69
588.376	46.88
588.715	47.01
589.053	47.07
589.391	47.17
589.729	47.27
590.067	47.46
590.404	47.66
590.742	47.78
591.08	47.93
591.418	48.23
591.756	48.36
592.093	48.46
592.431	48.65
592.769	48.8
593.106	48.84
593.444	49.03
593.781	49.17
594.119	49.32
594.456	49.49
594.793	49.59
595.131	49.7
595.468	49.69
595.805	49.77
596.143	49.89
596.48	50.03
596.817	50.21
597.154	50.29
597.491	50.38
597.828	50.46
598.165	50.56
598.502	50.56
598.839	50.7
599.176	50.84
599.512	50.91
599.849	50.99
600.186	51.09
600.523	51.13
600.859	51.25
601.196	51.35
601.532	51.35
601.869	51.43
602.205	51.55
602.542	51.61
602.878	51.7
603.215	51.83
603.551	51.86
603.887	51.89
604.223	52
604.56	52
604.896	52.09
605.232	52.15
605.568	52.16
605.904	52.23
606.24	52.25
606.576	52.3
606.912	52.41
607.248	52.5
607.583	52.55
607.919	52.61
608.255	52.7
608.591	52.91
608.926	53.04
609.262	53.05
609.597	53.22
609.933	53.34
610.268	53.35
610.604	53.42
610.939	53.46
611.275	53.51
611.61	53.6
611.945	53.67
612.281	53.81
612.616	53.98
612.951	54.07
613.286	54.15
613.621	54.18
613.956	54.22
614.291	54.39
614.626	54.52
614.961	54.65
615.296	54.62
615.631	54.59
615.966	54.61
616.3	54.8
616.635	54.87
616.97	55.03
617.304	55.06
617.639	55.22
617.973	55.26
618.308	55.35
618.642	55.47
618.977	55.49
619.311	55.48
619.646	55.51
619.98	55.48
620.314	55.64
620.648	55.81
620.983	55.89
621.317	55.82
621.651	55.87
621.985	55.9
622.319	55.97
622.653	56.08
622.987	56.16
623.321	56.16
623.655	56.2
623.988	56.07
624.322	56.16
624.656	56.12
624.99	56.11
625.323	56.07
625.657	56.13
625.99	56.12
626.324	56.18
626.657	56.2
626.991	56.32
627.324	56.28
627.658	56.18
627.991	56.23
628.324	56.29
628.657	56.3
628.991	56.4
629.324	56.55
629.657	56.5
629.99	56.48
630.323	56.51
630.656	56.55
630.989	56.63
631.322	56.61
631.655	56.69
631.987	56.92
632.32	56.87
632.653	56.85
632.986	56.88
633.318	56.93
633.651	56.99
633.984	57
634.316	57.08
634.649	57.07
634.981	57.06
635.313	57.15
635.646	57.29
635.978	57.28
636.31	57.24
636.643	57.34
636.975	57.38
637.307	57.33
637.639	57.4
637.971	57.31
638.303	57.39
638.635	57.43
638.967	57.36
639.299	57.5
639.631	57.66
639.963	57.79
640.295	57.82
640.626	57.95
640.958	58.03
641.29	57.97
641.621	58.13
641.953	58.21
642.285	58.18
642.616	58.02
642.948	58.09
643.279	58.04
643.61	58.02
643.942	58.1
644.273	58.29
644.604	58.23
644.936	58.38
645.267	58.34
645.598	58.29
645.929	58.3
646.26	58.39
646.591	58.22
646.922	58.22
647.253	58.08
647.584	58.11
647.915	57.95
648.245	58.07
648.576	58.02
648.907	57.95
649.238	58.02
649.568	58.08
649.899	58.03
650.229	58.2
650.56	58.28
650.89	58.32
651.221	58.26
651.551	58.26
651.882	58.3
652.212	58.29
652.542	58.46
652.872	58.43
653.203	58.41
653.533	58.52
653.863	58.49
654.193	58.66
654.523	58.51
654.853	58.61
655.183	58.61
655.513	58.62
655.843	58.73
656.172	58.66
656.502	58.72
656.832	58.67
657.162	58.52
657.491	58.48
657.821	58.41
658.15	58.38
658.48	58.41
658.809	58.43
659.139	58.54
659.468	58.45
659.798	58.45
660.127	58.47
660.456	58.35
660.785	58.46
661.115	58.34
661.444	58.36
661.773	58.36
662.102	58.37
662.431	58.4
662.76	58.35
663.089	58.37
663.418	58.33
663.747	58.55
664.076	58.59
664.404	58.62
664.733	58.8
665.062	58.96
665.39	58.99
665.719	58.96
666.048	58.88
666.376	59
666.705	59.17
667.033	59.16
667.362	59.33
667.69	59.27
668.018	59.4
668.347	59.51
668.675	59.72
669.003	59.64
669.331	59.74
669.659	59.77
669.987	59.9
670.315	59.9
670.643	59.86
670.971	59.87
671.299	59.89
671.627	59.88
671.955	59.72
672.283	59.75
672.61	59.71
672.938	59.79
673.266	59.82
673.593	59.72
673.921	59.71
674.249	59.57
674.576	59.57
674.904	59.45
675.231	59.52
675.558	59.42
675.886	59.57
676.213	59.53
676.54	59.48
676.867	59.45
677.195	59.48
677.522	59.39
677.849	59.4
678.176	59.5
678.503	59.35
678.83	59.51
679.157	59.52
679.484	59.54
679.81	59.59
680.137	59.5
680.464	59.46
680.791	59.52
681.117	59.67
681.444	59.71
681.771	59.81
682.097	59.81
682.424	59.78
682.75	59.75
683.077	59.73
683.403	59.92
683.729	59.95
684.056	59.85
684.382	59.8
684.708	59.89
685.034	59.78
685.36	59.86
685.686	59.73
686.012	59.79
686.339	59.74
686.664	59.72
686.99	59.71
687.316	59.84
687.642	59.84
687.968	59.73
688.294	59.73
688.619	59.63
688.945	59.55
689.271	59.55
689.596	59.39
689.922	59.44
690.247	59.24
690.573	59.13
690.898	59.32
691.224	59.52
691.549	59.69
691.874	59.63
692.2	59.67
692.525	59.82
692.85	59.82
693.175	59.79
693.5	59.7
693.825	59.52
694.15	59.41
694.475	59.38
694.8	59.44
695.125	59.44
695.45	59.42
695.775	59.43
696.099	59.35
696.424	59.46
696.749	59.42
697.073	59.53
697.398	59.54
697.723	59.45
698.047	59.32
698.372	59.08
698.696	59.16
699.02	59.13
699.345	59.03
699.669	59.01
699.993	59.21
700.318	59.25
700.642	59.43
700.966	59.52
701.29	59.48
701.614	59.56
701.938	59.66
702.262	59.88
702.586	60.15
702.91	60.34
703.234	60.32
703.557	60.39
703.881	60.5
704.205	60.74
704.529	60.82
704.852	61.06
705.176	61.3
705.499	61.3
705.823	61.27
706.146	61.26
706.47	61.33
706.793	61.23
707.117	61.32
707.44	61.18
707.763	60.97
708.086	60.87
708.409	60.88
708.733	60.75
709.056	60.73
709.379	60.45
709.702	60.42
710.025	60.46
710.348	60.22
710.671	60.1
710.993	59.86
711.316	59.92
711.639	59.73
711.962	59.81
712.284	59.96
712.607	59.88
712.93	59.88
713.252	59.71
713.575	59.78
713.897	59.99
714.22	60.01
714.542	60.34
714.864	60.52
715.187	60.35
715.509	60.54
715.831	60.29
716.153	60.17
716.475	60.23
716.798	59.95
717.12	60.17
717.442	60.22
717.764	60.2
718.085	60.29
718.407	60.35
718.729	60.15
719.051	60.17
719.373	60.37
719.695	60.42
720.016	60.26
720.338	60.2
720.659	60.13
720.981	60.16
721.302	59.97
721.624	60.13
721.945	60.37
722.267	60.46
722.588	60.62
722.909	60.62
723.231	60.54
723.552	60.92
723.873	60.66
724.194	60.27
724.515	60.3
724.836	60.01
725.157	60.01
725.478	59.78
725.799	59.72
726.12	59.67
726.441	59.71
726.762	59.76
727.083	59.81
727.403	59.72
727.724	60.02
728.045	60.18
728.365	59.98
728.686	59.92
729.006	59.5
729.327	59.6
729.647	59.65
729.967	59.62
730.288	59.55
730.608	59.65
730.928	59.79
731.249	59.94
731.569	60.13
731.889	60.25
732.209	60.63
732.529	60.35
732.849	60.51
733.169	60.39
733.489	60.67
733.809	60.62
734.129	60.46
734.448	60.56
734.768	60.41
735.088	60.6
735.408	60.64
735.727	61.02
736.047	61.11
736.366	61.31
736.686	61.21
737.005	61.32
737.325	61.47
737.644	61.45
737.963	61.28
738.283	61.14
738.602	61
738.921	61.01
739.24	61.39
739.56	61
739.879	61.01
740.198	60.8
740.517	60.82
740.836	60.91
741.155	60.64
741.473	60.81
741.792	60.55
742.111	60.42
742.43	60.16
742.748	59.73
743.067	59.59
743.386	59.74
743.704	59.68
744.023	59.91
744.341	59.93
744.66	60.11
744.978	60.68
745.297	60.46
745.615	60.26
745.933	60.31
746.252	60.51
746.57	60.58
746.888	60.98
747.206	60.97
747.524	60.75
747.842	60.25
748.16	60.18
748.478	60.24
748.796	60.5
749.114	60.41
749.432	60.52
749.749	60.65
750.067	60.68
750.385	61
750.703	60.86
751.02	60.94
751.338	61.11
751.655	60.45
751.973	60.76
752.29	60.55
752.608	60.18
752.925	60.4
753.242	60.63
753.56	60.14
753.877	59.85
754.194	59.82
754.511	60.34
754.828	60.41
755.145	60.38
755.462	60.26
755.779	60.2
756.096	60.38
756.413	59.99
756.73	60.23
757.047	59.89
757.364	59.67
757.68	59.83
757.997	59.54
758.314	59.85
758.63	59.77
758.947	60.12
759.264	59.78
759.58	59.44
759.896	59.12
760.213	59.03
760.529	59.16
760.846	59.1
761.162	58.9
761.478	58.8
761.794	58.79
762.11	58.82
762.426	58.82
762.743	58.65
763.059	58.96
763.375	58.79
763.69	58.66
764.006	58.6
764.322	58.55
764.638	58.6
764.954	58.42
765.27	57.94
765.585	58
765.901	58.02
766.216	57.88
766.532	57.75
766.848	57.7
767.163	57.73
767.478	57.92
767.794	58.05
768.109	57.88
768.424	57.88
768.74	57.65
769.055	57.65
769.37	57.67
769.685	57.43
770	57.47
770.315	57.71
770.63	58.14
770.945	58.18
771.26	58.22
771.575	58.51
771.89	59.15
772.205	58.6
772.52	58.95
772.834	59.57
773.149	59.82
773.464	60.99
773.778	60.74
774.093	60.51
774.407	60.56
774.722	60.56
775.036	60.75
775.351	60.89
775.665	61.31
775.979	61.41
776.293	61.36
776.608	61.15
776.922	61.38
777.236	61.52
777.55	61.55
777.864	61.55
778.178	61.44
778.492	61.76
778.806	62.14
779.12	62.51
779.434	62.62
779.747	63.09
780.061	61.97
780.375	62.31
780.689	62.6
781.002	62.37
781.316	62.33
781.629	61.9
781.943	62.32
782.256	62.06
782.57	62.08
782.883	62.1
783.196	62.07
783.51	61.96
783.823	61.8
784.136	61.81
784.449	61.92
784.762	62.06
785.075	61.93
785.388	62.39
785.701	62.05
786.014	61.67
786.327	61.49
786.64	61.92
786.953	61.59
787.266	61.32
787.578	61.48
787.891	62.22
788.204	62.34
788.516	62.17
788.829	62.54
789.141	62.94
789.454	63.06
789.766	63.47
790.079	62.9
790.391	62.29
790.703	62.18
791.016	61.9
791.328	61.64
791.64	61.25
791.952	61.07
792.264	61.15
792.576	62.02
792.888	62.02
793.2	62.58
793.512	63.03
793.824	63.46
794.136	63.36
794.448	62.69
794.76	62.56
795.071	62.31
795.383	62.19
795.695	61.63
796.006	62.11
796.318	62.01
796.629	62.77
796.941	63.23
797.252	62.87
797.564	62.67
797.875	62.82
798.186	63.86
798.497	62.99
798.809	62.17
799.12	62.1
799.431	61.98
799.742	61.51
800.053	60.96
800.364	61.06
800.675	60.9
800.986	61.33
801.297	61.68
801.608	61.47
801.918	61.48
802.229	61.77
802.54	61.18
802.851	61.05
803.161	60.69
803.472	61
803.782	61.8
804.093	61.66
804.403	61.78
804.714	60.95
805.024	62.04
805.334	62.81
805.645	62.23
805.955	62.95
806.265	63.11
806.575	63.93
806.885	63.8
807.195	63.46
807.505	63.55
807.815	63.43
808.125	64.05
808.435	64.32
808.745	64.57
809.055	65.47
809.365	65.8
809.674	65.17
809.984	64.75
810.294	64.65
810.603	65.33
810.913	65.04
811.222	64.56
811.532	63.96
811.841	64.29
812.151	64.2
812.46	62.65
812.769	62.08
813.079	61.9
813.388	61.73
813.697	62.52
814.006	62.78
814.315	62.73
814.624	62.45
814.933	62.45
815.242	62.01
815.551	61.18
815.86	61.28
816.169	62.19
816.478	62.31
816.786	61.74
817.095	60.76
817.404	60.97
817.712	61.69
818.021	61.64
818.33	61.14
818.638	60.71
818.947	60.76
819.255	60.65
819.563	60.39
819.872	60.39
820.18	59.87
820.488	59.32
820.796	59.22
821.105	58.8
821.413	58.76
821.721	58.73
822.029	58.69
822.337	58.37
822.645	58.3
822.953	58.55
823.26	58.63
823.568	58.77
823.876	58.81
824.184	58.85
824.491	58.65
824.799	58.48
825.107	58.64
825.414	58.68
825.722	58.65
826.029	58.47
826.337	58.61
826.644	58.89
826.951	58.89
827.259	58.9
827.566	58.9
827.873	58.95
828.18	58.98
828.488	58.87
828.795	59.35
829.102	59.35
829.409	58.86
829.716	58.87
830.023	58.81
830.329	58.68
830.636	58.71
830.943	59.1
831.25	59.44
831.557	59.15
831.863	58.99
832.17	59.02
832.476	59.39
832.783	59.21
833.089	59
833.396	59.18
833.702	59.13
834.009	59.53
834.315	58.96
834.621	59.1
834.928	59.07
835.234	58.48
835.54	58.59
835.846	59.53
836.152	59.36
836.458	59.47
836.764	59.64
837.07	59.35
837.376	59.06
837.682	59.84
837.988	59.6
838.293	60.04
838.599	60.17
838.905	60.64
839.211	60.88
839.516	61.1
839.822	61.84
840.127	61.97
840.433	61.63
840.738	62.01
841.044	61.96
841.349	62.9
841.654	62.77
841.959	62.93
842.265	61.43
842.57	61.4
842.875	62.55
843.18	62.18
843.485	61.67
843.79	62.22
844.095	61.27
844.4	62.1
844.705	61.96
845.01	62.09
845.315	61.77
845.619	60.48
845.924	59.46
846.229	57.56
846.533	58.07
846.838	59.08
847.142	60.26
847.447	60.52
847.751	59
848.056	60.04
848.36	60.61
848.664	62.05
848.969	64.09
849.273	62.12
849.577	61.73
849.881	63.85
850.185	62.57
850.489	60.23
850.794	60.44
851.097	60.27
851.401	58.77
851.705	56.95
852.009	57.44
852.313	56.85
852.617	58.3
852.92	60.37
853.224	61.44
853.528	62.18
853.831	62.52
854.135	66.48
854.438	65.77
854.742	65.96
855.045	64.89
855.349	63.57
855.652	65.25
855.955	68.49
856.259	66.4
856.562	68.53
856.865	72.2
857.168	71.15
857.471	72.16
857.774	73.32
858.077	74.79
858.38	75.33
858.683	78.67
858.986	78.82
859.289	75.6
859.592	73.73
859.894	73.51
860.197	73.24
860.5	71.4
860.802	71.7
861.105	69.38
861.407	68.47
861.71	68.05
862.012	68.56
862.315	65.11
862.617	67.4
862.919	67.05
863.222	65.24
863.524	68.08
863.826	68.46
864.128	68.74
864.43	67.53
864.732	67.08
865.034	66.13
865.336	64.94
865.638	65.6
865.94	66.99
866.242	66.27
866.544	68.27
866.846	68.17
867.147	69.01
867.449	70.41
867.751	72.33
868.052	73.76
868.354	71.07
868.655	72.5
868.957	70.87
869.258	70.82
869.56	71.11
869.861	69.49
870.162	69.11
870.463	68.88
870.765	68.79
871.066	72.17
871.367	70.87
871.668	69.51
871.969	68.79
872.27	68.34
872.571	69.61
872.872	66.91
873.173	68.52
873.473	66.58
873.774	67.85
874.075	71.18
874.376	70.97
874.676	74.04
874.977	72.94
875.277	70.78
875.578	70.79
875.878	71.25
876.179	70.88
876.479	70.84
876.78	71.56
877.08	74.17
877.38	70.19
877.68	71.51
877.981	74.89
878.281	77.42
878.581	78.44
