Data from BA17729_Reflection_00006.txt Node
Date: Tue Nov 19 11:50:45 EST 2019
User: vgr7
Spectrometer: USB2G7710
Scans to average: 3
Trigger mode: 4
Integration Time (sec): 2.000000E-2
Electric dark correction enabled: true
Boxcar width: 10
XAxis mode: Wavelengths
Number of Pixels in Spectrum: 2048
>>>>>Begin Spectral Data<<<<<
177.721	150.54
178.105	137.43
178.488	186.23
178.871	535.29
179.254	163.41
179.636	193.93
180.019	82.72
180.402	-233.33
180.785	-100
181.168	95.82
181.55	23.25
181.933	37.59
182.316	40.61
182.698	-67.01
183.081	-86.73
183.463	-81.3
183.846	-97.01
184.228	-102.86
184.611	-128.63
184.993	-281.4
185.376	-4017.65
185.758	-211.79
186.14	-94.5
186.522	-91.09
186.904	-132.97
187.287	-140.84
187.669	-412
188.051	-2718.18
188.433	43.66
188.815	-148.32
189.197	270.21
189.579	-73.91
189.961	-21.41
190.342	-75.55
190.724	972.34
191.106	-548.35
191.488	-331.19
191.869	-95.25
192.251	-92.18
192.633	-311.76
193.014	-114.72
193.396	-206.75
193.777	3.27
194.159	11.21
194.54	25.52
194.922	77.96
195.303	24.8
195.684	-24.28
196.065	-170.36
196.447	-102.4
196.828	-81.33
197.209	-17.76
197.59	-2.42
197.971	-22.28
198.352	-25.28
198.733	-38.65
199.114	-56.39
199.495	-38.43
199.876	-49.41
200.257	-50.05
200.638	-24.21
201.018	-25.26
201.399	-27.15
201.78	-55.32
202.16	-80.88
202.541	-69.53
202.922	-54.2
203.302	-58.59
203.683	-50.82
204.063	-44.27
204.444	-43.3
204.824	-39.71
205.204	-41.68
205.585	-57.01
205.965	-31.98
206.345	19.04
206.725	42.32
207.106	51.19
207.486	53.42
207.866	65.95
208.246	64.58
208.626	64.15
209.006	63.79
209.386	72.24
209.766	69.18
210.145	85.38
210.525	83.63
210.905	101.06
211.285	95.88
211.664	88.15
212.044	109.87
212.424	95.87
212.803	119.05
213.183	140
213.562	144.6
213.942	163.45
214.321	108.77
214.701	98.56
215.08	68.15
215.459	44.85
215.838	13.92
216.218	4.6
216.597	18.69
216.976	-0.98
217.355	1.99
217.734	-25.29
218.113	-37.77
218.492	-52.72
218.871	-36.52
219.25	-55.01
219.629	-77.15
220.008	-126.78
220.387	-178.83
220.766	-123.45
221.144	-103.07
221.523	-185.26
221.902	-201.62
222.28	-125.1
222.659	-69.86
223.037	-58.85
223.416	-40.56
223.794	-35.79
224.173	-30.63
224.551	-30.75
224.929	-19.66
225.308	-5.71
225.686	-2.73
226.064	0.17
226.442	11.47
226.821	9.99
227.199	8.3
227.577	10.78
227.955	8.3
228.333	8.74
228.711	9.05
229.089	4.94
229.467	3.32
229.845	1.43
230.222	-0.3
230.6	-2.75
230.978	-1.65
231.356	-5.31
231.733	-1.8
232.111	-1.37
232.488	-1.46
232.866	0.93
233.243	-2.16
233.621	1.64
233.998	1.24
234.376	-1.21
234.753	-1.35
235.13	0.95
235.508	-0.14
235.885	2.39
236.262	3.15
236.639	1.93
237.016	3.07
237.393	4.15
237.77	5.19
238.147	4.3
238.524	5.81
238.901	5.99
239.278	5.63
239.655	4.56
240.032	4.3
240.409	4.32
240.785	3.86
241.162	4.28
241.539	4.11
241.915	3.61
242.292	3.53
242.668	3.77
243.045	3.67
243.421	3.81
243.798	3.46
244.174	3.56
244.551	3.87
244.927	3.7
245.303	3.36
245.679	3.31
246.056	3.14
246.432	2.69
246.808	2.87
247.184	2.9
247.56	2.7
247.936	2.9
248.312	2.87
248.688	3.15
249.064	3.14
249.44	3.01
249.815	3.37
250.191	3.58
250.567	3.47
250.943	3.38
251.318	3.25
251.694	3.13
252.069	3.07
252.445	3.16
252.82	3.2
253.196	3.26
253.571	3.01
253.947	3.17
254.322	3.23
254.697	3.36
255.073	3.52
255.448	3.51
255.823	3.3
256.198	3.38
256.573	3.23
256.948	3.14
257.323	3.05
257.698	3.01
258.073	2.87
258.448	2.9
258.823	2.91
259.198	3.03
259.573	3.06
259.948	2.85
260.322	2.53
260.697	2.67
261.072	2.85
261.446	3.18
261.821	3.28
262.195	3.16
262.57	3.06
262.944	2.97
263.319	3.06
263.693	2.83
264.067	2.82
264.442	2.87
264.816	2.81
265.19	2.84
265.564	2.87
265.938	3.11
266.313	3.01
266.687	3.08
267.061	2.92
267.435	3.14
267.809	3.35
268.183	3.48
268.556	3.35
268.93	3.43
269.304	3.37
269.678	3.25
270.051	3.13
270.425	2.99
270.799	2.89
271.172	2.81
271.546	2.97
271.919	3.02
272.293	2.96
272.666	2.95
273.04	2.81
273.413	2.73
273.787	2.49
274.16	2.53
274.533	2.43
274.906	2.56
275.279	2.29
275.653	2.3
276.026	2.53
276.399	2.5
276.772	2.46
277.145	2.28
277.518	2.22
277.891	2.31
278.263	2.57
278.636	2.82
279.009	2.84
279.382	2.8
279.755	2.7
280.127	2.64
280.5	2.81
280.872	2.97
281.245	2.84
281.617	2.87
281.99	2.91
282.362	2.95
282.735	2.83
283.107	2.81
283.479	2.74
283.852	2.69
284.224	2.9
284.596	2.88
284.968	2.88
285.34	2.81
285.713	2.98
286.085	2.88
286.457	2.89
286.829	2.83
287.201	2.82
287.572	2.68
287.944	2.74
288.316	2.88
288.688	2.87
289.06	2.91
289.431	3.11
289.803	3.17
290.175	3.16
290.546	3.16
290.918	3.13
291.289	3.08
291.661	2.94
292.032	2.76
292.403	2.74
292.775	2.93
293.146	3.06
293.517	2.99
293.889	2.88
294.26	2.88
294.631	2.95
295.002	3.05
295.373	3.26
295.744	3.23
296.115	3.26
296.486	3.32
296.857	3.4
297.228	3.25
297.599	3.14
297.97	3.23
298.34	3.35
298.711	3.37
299.082	3.31
299.452	3.38
299.823	3.39
300.194	3.46
300.564	3.29
300.935	3.32
301.305	3.33
301.676	3.36
302.046	3.24
302.416	3.22
302.787	3.19
303.157	3.06
303.527	3.17
303.897	3.09
304.267	3.08
304.637	3.07
305.008	3.23
305.378	3.38
305.748	3.24
306.117	3.09
306.487	3.1
306.857	3.32
307.227	3.31
307.597	3.32
307.967	3.23
308.336	3.28
308.706	3.26
309.076	3.34
309.445	3.44
309.815	3.41
310.184	3.41
310.554	3.35
310.923	3.32
311.293	3.34
311.662	3.22
312.031	3.1
312.401	2.95
312.77	2.82
313.139	2.84
313.508	2.8
313.877	2.88
314.246	2.98
314.616	2.95
314.985	2.8
315.353	2.87
315.722	3.01
316.091	3.08
316.46	3.15
316.829	2.99
317.198	2.9
317.567	3.09
317.935	3.12
318.304	3.19
318.672	3.27
319.041	3.25
319.41	3.21
319.778	3.37
320.147	3.46
320.515	3.53
320.883	3.39
321.252	3.46
321.62	3.41
321.988	3.33
322.357	3.14
322.725	3.27
323.093	3.34
323.461	3.41
323.829	3.39
324.197	3.33
324.565	3.38
324.933	3.42
325.301	3.16
325.669	3.28
326.037	3.36
326.405	3.31
326.772	3.22
327.14	3.23
327.508	3.16
327.875	3.25
328.243	3.15
328.61	3.12
328.978	3.14
329.346	3.15
329.713	3.26
330.08	3.63
330.448	3.53
330.815	3.5
331.182	3.3
331.55	3.26
331.917	3.15
332.284	3.11
332.651	3.11
333.018	3.34
333.385	3.29
333.752	3.14
334.119	3.24
334.486	3.31
334.853	3.25
335.22	3.14
335.587	3.04
335.954	2.92
336.32	3.1
336.687	3.06
337.054	3.01
337.42	3.04
337.787	2.79
338.153	2.93
338.52	2.96
338.886	3.01
339.253	3.03
339.619	3.13
339.986	3.18
340.352	3.21
340.718	3.26
341.084	3.26
341.451	3.32
341.817	3.29
342.183	3.27
342.549	3.4
342.915	3.5
343.281	3.58
343.647	3.69
344.013	3.6
344.379	3.57
344.745	3.55
345.11	3.52
345.476	3.54
345.842	3.43
346.208	3.36
346.573	3.25
346.939	3.22
347.304	3.16
347.67	3.14
348.035	3
348.401	2.98
348.766	2.96
349.132	3
349.497	3.03
349.862	3.03
350.228	3.06
350.593	3.02
350.958	3.04
351.323	3.05
351.688	2.93
352.053	3.03
352.418	3.2
352.783	3.09
353.148	3.07
353.513	3.11
353.878	3.18
354.243	3.23
354.608	3.27
354.972	3.3
355.337	3.31
355.702	3.44
356.066	3.4
356.431	3.46
356.795	3.45
357.16	3.43
357.524	3.36
357.889	3.27
358.253	3.29
358.618	3.27
358.982	3.27
359.346	3.39
359.71	3.38
360.075	3.26
360.439	3.39
360.803	3.49
361.167	3.5
361.531	3.5
361.895	3.54
362.259	3.53
362.623	3.52
362.987	3.52
363.351	3.43
363.714	3.43
364.078	3.32
364.442	3.32
364.806	3.35
365.169	3.39
365.533	3.38
365.896	3.43
366.26	3.4
366.623	3.4
366.987	3.37
367.35	3.34
367.714	3.35
368.077	3.29
368.44	3.25
368.803	3.21
369.167	3.14
369.53	3.07
369.893	3.09
370.256	3.13
370.619	3.1
370.982	3.17
371.345	3.15
371.708	3.19
372.071	3.18
372.434	3.11
372.797	3.14
373.159	3.15
373.522	3.08
373.885	3.18
374.247	3.16
374.61	3.17
374.973	3.18
375.335	3.19
375.698	3.16
376.06	3.11
376.423	3.17
376.785	3.28
377.147	3.25
377.51	3.25
377.872	3.29
378.234	3.36
378.596	3.35
378.958	3.31
379.321	3.34
379.683	3.33
380.045	3.4
380.407	3.37
380.769	3.37
381.13	3.41
381.492	3.37
381.854	3.38
382.216	3.4
382.578	3.39
382.939	3.41
383.301	3.38
383.663	3.42
384.024	3.41
384.386	3.34
384.747	3.36
385.109	3.31
385.47	3.25
385.832	3.21
386.193	3.13
386.554	3.18
386.916	3.18
387.277	3.1
387.638	3.08
387.999	3.09
388.36	3.09
388.721	3.09
389.082	3.11
389.443	3.13
389.804	3.1
390.165	3.12
390.526	3.13
390.887	3.15
391.248	3.14
391.609	3.13
391.969	3.14
392.33	3.1
392.691	3.12
393.051	3.1
393.412	3.07
393.772	3.11
394.133	3.09
394.493	3.04
394.854	3.13
395.214	3.07
395.574	3.05
395.935	3.05
396.295	3.03
396.655	3.03
397.015	3.04
397.376	3.02
397.736	3
398.096	2.98
398.456	2.96
398.816	2.91
399.176	2.88
399.535	2.87
399.895	2.92
400.255	2.95
400.615	3
400.975	3.02
401.334	3.04
401.694	3.06
402.054	3.1
402.413	3.11
402.773	3.16
403.132	3.19
403.492	3.2
403.851	3.22
404.211	3.21
404.57	3.23
404.929	3.25
405.288	3.27
405.648	3.28
406.007	3.31
406.366	3.33
406.725	3.33
407.084	3.33
407.443	3.34
407.802	3.34
408.161	3.33
408.52	3.35
408.879	3.34
409.238	3.35
409.596	3.35
409.955	3.31
410.314	3.32
410.673	3.29
411.031	3.28
411.39	3.28
411.748	3.28
412.107	3.23
412.465	3.2
412.824	3.19
413.182	3.16
413.54	3.16
413.899	3.17
414.257	3.19
414.615	3.2
414.974	3.2
415.332	3.19
415.69	3.19
416.048	3.15
416.406	3.13
416.764	3.1
417.122	3.1
417.48	3.11
417.838	3.1
418.195	3.09
418.553	3.09
418.911	3.07
419.269	3.08
419.626	3.09
419.984	3.1
420.342	3.09
420.699	3.11
421.057	3.11
421.414	3.12
421.772	3.11
422.129	3.09
422.486	3.09
422.844	3.08
423.201	3.1
423.558	3.12
423.915	3.14
424.273	3.16
424.63	3.18
424.987	3.19
425.344	3.18
425.701	3.19
426.058	3.2
426.415	3.2
426.772	3.22
427.128	3.22
427.485	3.22
427.842	3.22
428.199	3.22
428.555	3.22
428.912	3.21
429.269	3.23
429.625	3.23
429.982	3.21
430.338	3.22
430.695	3.19
431.051	3.2
431.407	3.18
431.764	3.13
432.12	3.1
432.476	3.11
432.832	3.12
433.189	3.13
433.545	3.13
433.901	3.13
434.257	3.09
434.613	3.07
434.969	3.05
435.325	3.07
435.681	3.08
436.036	3.07
436.392	3.07
436.748	3.06
437.104	3.07
437.459	3.09
437.815	3.08
438.171	3.09
438.526	3.08
438.882	3.1
439.237	3.12
439.593	3.12
439.948	3.1
440.304	3.08
440.659	3.09
441.014	3.1
441.369	3.12
441.725	3.15
442.08	3.15
442.435	3.16
442.79	3.16
443.145	3.15
443.5	3.16
443.855	3.15
444.21	3.15
444.565	3.17
444.92	3.16
445.275	3.16
445.629	3.15
445.984	3.15
446.339	3.14
446.693	3.16
447.048	3.16
447.403	3.16
447.757	3.18
448.112	3.17
448.466	3.17
448.82	3.16
449.175	3.14
449.529	3.15
449.883	3.14
450.238	3.15
450.592	3.15
450.946	3.15
451.3	3.18
451.654	3.19
452.008	3.16
452.362	3.18
452.716	3.17
453.07	3.17
453.424	3.18
453.778	3.18
454.132	3.16
454.486	3.16
454.839	3.18
455.193	3.2
455.547	3.2
455.9	3.21
456.254	3.2
456.607	3.2
456.961	3.21
457.314	3.23
457.668	3.23
458.021	3.21
458.375	3.22
458.728	3.2
459.081	3.2
459.434	3.2
459.787	3.22
460.141	3.23
460.494	3.25
460.847	3.23
461.2	3.22
461.553	3.23
461.906	3.23
462.259	3.22
462.611	3.21
462.964	3.21
463.317	3.2
463.67	3.22
464.022	3.25
464.375	3.24
464.728	3.25
465.08	3.24
465.433	3.27
465.785	3.28
466.138	3.28
466.49	3.29
466.843	3.28
467.195	3.26
467.547	3.26
467.899	3.26
468.252	3.3
468.604	3.33
468.956	3.32
469.308	3.33
469.66	3.35
470.012	3.36
470.364	3.37
470.716	3.37
471.068	3.38
471.42	3.37
471.772	3.36
472.123	3.37
472.475	3.38
472.827	3.36
473.178	3.35
473.53	3.37
473.882	3.36
474.233	3.39
474.585	3.42
474.936	3.41
475.288	3.4
475.639	3.39
475.99	3.37
476.342	3.39
476.693	3.39
477.044	3.38
477.395	3.38
477.746	3.35
478.097	3.34
478.448	3.3
478.8	3.27
479.15	3.26
479.501	3.24
479.852	3.24
480.203	3.25
480.554	3.25
480.905	3.24
481.255	3.24
481.606	3.24
481.957	3.23
482.307	3.23
482.658	3.24
483.009	3.22
483.359	3.23
483.709	3.24
484.06	3.24
484.41	3.23
484.761	3.24
485.111	3.24
485.461	3.26
485.811	3.27
486.162	3.28
486.512	3.29
486.862	3.29
487.212	3.3
487.562	3.29
487.912	3.3
488.262	3.29
488.612	3.3
488.961	3.3
489.311	3.29
489.661	3.3
490.011	3.29
490.36	3.3
490.71	3.3
491.06	3.3
491.409	3.29
491.759	3.29
492.108	3.3
492.458	3.3
492.807	3.3
493.157	3.31
493.506	3.32
493.855	3.32
494.204	3.33
494.554	3.33
494.903	3.33
495.252	3.34
495.601	3.36
495.95	3.36
496.299	3.36
496.648	3.38
496.997	3.39
497.346	3.42
497.695	3.43
498.043	3.45
498.392	3.46
498.741	3.49
499.09	3.5
499.438	3.52
499.787	3.53
500.135	3.52
500.484	3.53
500.832	3.51
501.181	3.51
501.529	3.53
501.878	3.54
502.226	3.54
502.574	3.54
502.923	3.54
503.271	3.55
503.619	3.58
503.967	3.58
504.315	3.59
504.663	3.58
505.011	3.56
505.359	3.56
505.707	3.55
506.055	3.56
506.403	3.55
506.751	3.53
507.098	3.55
507.446	3.57
507.794	3.57
508.141	3.58
508.489	3.6
508.837	3.6
509.184	3.61
509.531	3.62
509.879	3.63
510.226	3.64
510.574	3.67
510.921	3.67
511.268	3.68
511.616	3.67
511.963	3.69
512.31	3.68
512.657	3.67
513.004	3.68
513.351	3.67
513.698	3.67
514.045	3.67
514.392	3.66
514.739	3.67
515.086	3.66
515.432	3.66
515.779	3.65
516.126	3.66
516.473	3.65
516.819	3.65
517.166	3.66
517.512	3.65
517.859	3.64
518.205	3.62
518.552	3.63
518.898	3.65
519.245	3.66
519.591	3.67
519.937	3.7
520.283	3.71
520.629	3.71
520.976	3.71
521.322	3.72
521.668	3.74
522.014	3.75
522.36	3.77
522.706	3.77
523.052	3.8
523.398	3.8
523.743	3.79
524.089	3.8
524.435	3.77
524.781	3.78
525.126	3.78
525.472	3.77
525.817	3.75
526.163	3.73
526.509	3.72
526.854	3.71
527.199	3.71
527.545	3.7
527.89	3.71
528.235	3.71
528.581	3.7
528.926	3.69
529.271	3.68
529.616	3.68
529.961	3.7
530.306	3.68
530.651	3.67
530.996	3.7
531.341	3.7
531.686	3.73
532.031	3.73
532.376	3.73
532.721	3.74
533.065	3.76
533.41	3.78
533.755	3.8
534.099	3.8
534.444	3.79
534.788	3.78
535.133	3.8
535.477	3.81
535.822	3.83
536.166	3.83
536.51	3.84
536.855	3.84
537.199	3.82
537.543	3.85
537.887	3.85
538.231	3.83
538.576	3.83
538.92	3.84
539.264	3.85
539.608	3.87
539.951	3.88
540.295	3.87
540.639	3.88
540.983	3.87
541.327	3.88
541.671	3.89
542.014	3.92
542.358	3.94
542.701	3.95
543.045	3.97
543.389	4
543.732	4
544.075	4.02
544.419	4.04
544.762	4.03
545.105	4.07
545.449	4.09
545.792	4.12
546.135	4.13
546.478	4.14
546.821	4.16
547.165	4.19
547.508	4.21
547.851	4.22
548.194	4.25
548.536	4.29
548.879	4.31
549.222	4.32
549.565	4.28
549.908	4.28
550.25	4.27
550.593	4.23
550.936	4.28
551.278	4.25
551.621	4.26
551.963	4.34
552.306	4.31
552.648	4.3
552.991	4.31
553.333	4.31
553.675	4.33
554.017	4.33
554.36	4.29
554.702	4.29
555.044	4.28
555.386	4.27
555.728	4.3
556.07	4.29
556.412	4.3
556.754	4.37
557.096	4.38
557.438	4.39
557.78	4.41
558.121	4.36
558.463	4.37
558.805	4.41
559.147	4.37
559.488	4.38
559.83	4.39
560.171	4.36
560.513	4.37
560.854	4.34
561.196	4.31
561.537	4.37
561.878	4.4
562.22	4.44
562.561	4.46
562.902	4.46
563.243	4.48
563.584	4.47
563.925	4.45
564.266	4.46
564.607	4.44
564.948	4.45
565.289	4.44
565.63	4.47
565.971	4.45
566.312	4.46
566.653	4.42
566.993	4.42
567.334	4.42
567.675	4.44
568.015	4.45
568.356	4.46
568.696	4.45
569.037	4.41
569.377	4.43
569.718	4.42
570.058	4.37
570.398	4.38
570.739	4.4
571.079	4.38
571.419	4.37
571.759	4.39
572.099	4.36
572.439	4.38
572.779	4.4
573.119	4.37
573.459	4.35
573.799	4.38
574.139	4.37
574.479	4.42
574.819	4.43
575.158	4.44
575.498	4.45
575.838	4.46
576.177	4.49
576.517	4.48
576.856	4.49
577.196	4.51
577.535	4.48
577.875	4.49
578.214	4.52
578.553	4.53
578.893	4.56
579.232	4.59
579.571	4.59
579.91	4.58
580.25	4.64
580.589	4.7
580.928	4.71
581.267	4.73
581.606	4.72
581.945	4.7
582.283	4.69
582.622	4.69
582.961	4.66
583.3	4.68
583.639	4.7
583.977	4.72
584.316	4.74
584.654	4.77
584.993	4.79
585.332	4.79
585.67	4.75
586.008	4.75
586.347	4.77
586.685	4.79
587.024	4.75
587.362	4.79
587.7	4.82
588.038	4.85
588.376	4.87
588.715	4.89
589.053	4.88
589.391	4.9
589.729	4.91
590.067	4.92
590.404	4.88
590.742	4.83
591.08	4.83
591.418	4.85
591.756	4.84
592.093	4.78
592.431	4.76
592.769	4.75
593.106	4.73
593.444	4.73
593.781	4.75
594.119	4.78
594.456	4.73
594.793	4.71
595.131	4.68
595.468	4.67
595.805	4.65
596.143	4.66
596.48	4.64
596.817	4.65
597.154	4.68
597.491	4.7
597.828	4.7
598.165	4.66
598.502	4.65
598.839	4.66
599.176	4.73
599.512	4.73
599.849	4.74
600.186	4.77
600.523	4.78
600.859	4.73
601.196	4.72
601.532	4.71
601.869	4.71
602.205	4.68
602.542	4.66
602.878	4.71
603.215	4.71
603.551	4.7
603.887	4.7
604.223	4.67
604.56	4.68
604.896	4.72
605.232	4.75
605.568	4.76
605.904	4.72
606.24	4.69
606.576	4.71
606.912	4.71
607.248	4.72
607.583	4.73
607.919	4.76
608.255	4.73
608.591	4.79
608.926	4.79
609.262	4.82
609.597	4.84
609.933	4.83
610.268	4.86
610.604	4.84
610.939	4.87
611.275	4.94
611.61	4.94
611.945	4.9
612.281	4.91
612.616	4.93
612.951	4.99
613.286	4.96
613.621	4.98
613.956	5.02
614.291	5.02
614.626	5.03
614.961	5.07
615.296	5.15
615.631	5.17
615.966	5.18
616.3	5.21
616.635	5.18
616.97	5.11
617.304	5.09
617.639	5.16
617.973	5.09
618.308	5.1
618.642	5.06
618.977	5.04
619.311	5.06
619.646	5.05
619.98	5.04
620.314	5.1
620.648	5.16
620.983	5.16
621.317	5.12
621.651	5.07
621.985	4.98
622.319	4.92
622.653	4.88
622.987	4.85
623.321	4.86
623.655	4.86
623.988	4.89
624.322	4.87
624.656	4.81
624.99	4.83
625.323	4.82
625.657	4.91
625.99	4.99
626.324	4.93
626.657	4.86
626.991	4.87
627.324	4.81
627.658	4.75
627.991	4.77
628.324	4.74
628.657	4.75
628.991	4.79
629.324	4.87
629.657	4.86
629.99	4.9
630.323	4.84
630.656	4.88
630.989	4.93
631.322	4.96
631.655	4.98
631.987	5.03
632.32	4.99
632.653	4.94
632.986	4.84
633.318	4.85
633.651	4.94
633.984	4.94
634.316	5.01
634.649	4.99
634.981	4.96
635.313	5.04
635.646	5.07
635.978	5.08
636.31	5.09
636.643	5.14
636.975	5.14
637.307	5.23
637.639	5.21
637.971	5.11
638.303	5.09
638.635	5.1
638.967	5.12
639.299	5.14
639.631	5.13
639.963	5.28
640.295	5.36
640.626	5.32
640.958	5.34
641.29	5.34
641.621	5.34
641.953	5.35
642.285	5.35
642.616	5.4
642.948	5.37
643.279	5.31
643.61	5.3
643.942	5.25
644.273	5.2
644.604	5.3
644.936	5.41
645.267	5.45
645.598	5.5
645.929	5.43
646.26	5.38
646.591	5.38
646.922	5.36
647.253	5.26
647.584	5.29
647.915	5.32
648.245	5.3
648.576	5.3
648.907	5.34
649.238	5.26
649.568	5.21
649.899	5.2
650.229	5.26
650.56	5.22
650.89	5.29
651.221	5.32
651.551	5.29
651.882	5.24
652.212	5.24
652.542	5.21
652.872	5.19
653.203	5.33
653.533	5.41
653.863	5.43
654.193	5.4
654.523	5.36
654.853	5.33
655.183	5.3
655.513	5.37
655.843	5.33
656.172	5.44
656.502	5.36
656.832	5.34
657.162	5.32
657.491	5.38
657.821	5.37
658.15	5.39
658.48	5.35
658.809	5.35
659.139	5.3
659.468	5.32
659.798	5.36
660.127	5.3
660.456	5.18
660.785	5.18
661.115	5.28
661.444	5.37
661.773	5.4
662.102	5.42
662.431	5.38
662.76	5.43
663.089	5.45
663.418	5.5
663.747	5.6
664.076	5.58
664.404	5.58
664.733	5.53
665.062	5.47
665.39	5.5
665.719	5.56
666.048	5.6
666.376	5.61
666.705	5.63
667.033	5.51
667.362	5.51
667.69	5.51
668.018	5.47
668.347	5.37
668.675	5.38
669.003	5.36
669.331	5.31
669.659	5.26
669.987	5.16
670.315	5.21
670.643	5.2
670.971	5.22
671.299	5.18
671.627	5.23
671.955	5.16
672.283	5.13
672.61	5.01
672.938	5.04
673.266	5.04
673.593	5
673.921	5.1
674.249	5.13
674.576	5.09
674.904	5.06
675.231	5.21
675.558	5.21
675.886	5.27
676.213	5.36
676.54	5.44
676.867	5.46
677.195	5.44
677.522	5.3
677.849	5.33
678.176	5.36
678.503	5.39
678.83	5.49
679.157	5.5
679.484	5.52
679.81	5.43
680.137	5.47
680.464	5.44
680.791	5.57
681.117	5.73
681.444	5.74
681.771	5.82
682.097	5.75
682.424	5.69
682.75	5.69
683.077	5.68
683.403	5.67
683.729	5.67
684.056	5.7
684.382	5.79
684.708	5.75
685.034	5.68
685.36	5.66
685.686	5.68
686.012	5.7
686.339	5.7
686.664	5.81
686.99	5.67
687.316	5.66
687.642	5.55
687.968	5.47
688.294	5.45
688.619	5.48
688.945	5.41
689.271	5.46
689.596	5.48
689.922	5.52
690.247	5.5
690.573	5.6
690.898	5.6
691.224	5.62
691.549	5.6
691.874	5.63
692.2	5.73
692.525	5.66
692.85	5.65
693.175	5.78
693.5	5.66
693.825	5.83
694.15	5.92
694.475	5.89
694.8	5.77
695.125	5.72
695.45	5.55
695.775	5.64
696.099	5.58
696.424	5.58
696.749	5.53
697.073	5.53
697.398	5.52
697.723	5.47
698.047	5.56
698.372	5.65
698.696	5.59
699.02	5.48
699.345	5.58
699.669	5.56
699.993	5.54
700.318	5.69
700.642	5.7
700.966	5.75
701.29	5.77
701.614	5.94
701.938	5.93
702.262	6.02
702.586	6.03
702.91	6.08
703.234	5.96
703.557	5.98
703.881	5.98
704.205	6
704.529	5.98
704.852	5.96
705.176	6.03
705.499	6.1
705.823	6.12
706.146	6.15
706.47	6.31
706.793	6.35
707.117	6.3
707.44	6.31
707.763	6.26
708.086	6.19
708.409	5.94
708.733	5.94
709.056	6
709.379	5.89
709.702	6.01
710.025	6.05
710.348	6.12
710.671	6.17
710.993	6.15
711.316	6.21
711.639	6.3
711.962	6.35
712.284	6.43
712.607	6.45
712.93	6.48
713.252	6.34
713.575	6.36
713.897	6.3
714.22	6.17
714.542	6.24
714.864	6.24
715.187	6.3
715.509	6.37
715.831	6.33
716.153	6.38
716.475	6.28
716.798	6.58
717.12	6.43
717.442	6.37
717.764	6.42
718.085	6.58
718.407	6.43
718.729	6.29
719.051	6.18
719.373	6.33
719.695	6.3
720.016	6.35
720.338	6.17
720.659	6.3
720.981	6.28
721.302	6.36
721.624	6.34
721.945	6.4
722.267	6.3
722.588	6.24
722.909	6.39
723.231	6.37
723.552	5.95
723.873	5.93
724.194	5.94
724.515	5.91
724.836	5.6
725.157	5.74
725.478	5.61
725.799	5.51
726.12	5.39
726.441	5.38
726.762	5.28
727.083	5.5
727.403	5.55
727.724	5.71
728.045	5.61
728.365	5.6
728.686	5.59
729.006	5.61
729.327	5.74
729.647	5.67
729.967	5.71
730.288	5.96
730.608	6.18
730.928	6.41
731.249	6.33
731.569	6.65
731.889	6.47
732.209	6.63
732.529	6.92
732.849	6.87
733.169	6.68
733.489	6.67
733.809	6.59
734.129	6.5
734.448	6.5
734.768	6.35
735.088	6.46
735.408	6.45
735.727	6.38
736.047	6.34
736.366	6.4
736.686	6.34
737.005	6.5
737.325	6.37
737.644	6.13
737.963	6.13
738.283	5.95
738.602	6.23
738.921	6.27
739.24	6.28
739.56	6.16
739.879	6.17
740.198	6.24
740.517	6.45
740.836	6.46
741.155	6.67
741.473	6.83
741.792	6.93
742.111	7
742.43	7.32
742.748	7.28
743.067	7.2
743.386	7.21
743.704	6.85
744.023	6.88
744.341	6.86
744.66	6.88
744.978	6.99
745.297	6.82
745.615	6.65
745.933	6.62
746.252	6.99
746.57	7.17
746.888	7.47
747.206	7.26
747.524	7.21
747.842	6.65
748.16	6.92
748.478	6.86
748.796	6.92
749.114	7.05
749.432	7.02
749.749	7.13
750.067	7.28
750.385	7.58
750.703	7.79
751.02	7.72
751.338	7.69
751.655	7.54
751.973	7.64
752.29	7.64
752.608	7.58
752.925	7.34
753.242	7.34
753.56	7.05
753.877	6.92
754.194	6.95
754.511	7.2
754.828	6.84
755.145	7.03
755.462	7.1
755.779	6.98
756.096	7.3
756.413	7.42
756.73	7.52
757.047	7.23
757.364	7.28
757.68	7.39
757.997	7.6
758.314	7.72
758.63	7.62
758.947	7.52
759.264	7.66
759.58	7.75
759.896	7.54
760.213	7.69
760.529	7.81
760.846	7.77
761.162	7.56
761.478	7.45
761.794	7.23
762.11	7
762.426	6.89
762.743	6.73
763.059	6.6
763.375	6.4
763.69	6.53
764.006	6.32
764.322	6.39
764.638	6.23
764.954	6.2
765.27	6.21
765.585	6.31
765.901	6.17
766.216	6.11
766.532	6.05
766.848	6.04
767.163	6
767.478	6.05
767.794	6.37
768.109	6.8
768.424	6.91
768.74	6.75
769.055	6.85
769.37	6.73
769.685	6.85
770	7.31
770.315	7.24
770.63	7.4
770.945	7.6
771.26	7.85
771.575	7.75
771.89	7.9
772.205	7.86
772.52	7.7
772.834	7.91
773.149	8.34
773.464	8.23
773.778	8.14
774.093	7.8
774.407	7.79
774.722	7.58
775.036	7.53
775.351	8.19
775.665	7.99
775.979	7.91
776.293	7.41
776.608	6.58
776.922	6.7
777.236	6.72
777.55	6.48
777.864	6.41
778.178	6.37
778.492	6.21
778.806	6.1
779.12	6.29
779.434	6.39
779.747	6.14
780.061	6.15
780.375	6.43
780.689	6.6
781.002	6.53
781.316	6.56
781.629	6.52
781.943	6.02
782.256	5.75
782.57	6.32
782.883	7.14
783.196	7.55
783.51	7.69
783.823	7.51
784.136	7.08
784.449	7.19
784.762	7.33
785.075	7.16
785.388	7.47
785.701	7.42
786.014	6.74
786.327	6.93
786.64	6.66
786.953	6.43
787.266	7.05
787.578	7.07
787.891	6.59
788.204	6.44
788.516	6.72
788.829	6.94
789.141	6.8
789.454	6.57
789.766	6.72
790.079	6.27
790.391	6.38
790.703	7.03
791.016	6.89
791.328	7.24
791.64	7.44
791.952	7.21
792.264	7.13
792.576	7.81
792.888	7.65
793.2	7.83
793.512	7.92
793.824	7.8
794.136	7.75
794.448	8.01
794.76	7.95
795.071	7.79
795.383	7.94
795.695	7.45
796.006	6.93
796.318	7.01
796.629	7.27
796.941	7.27
797.252	6.96
797.564	7.08
797.875	6.78
798.186	6.51
798.497	7.05
798.809	7.08
799.12	6.61
799.431	6.6
799.742	6.61
800.053	6.29
800.364	5.83
800.675	5.37
800.986	5.59
801.297	5.78
801.608	5.86
801.918	6.05
802.229	6.79
802.54	7.4
802.851	7.3
803.161	6.93
803.472	7.28
803.782	7.59
804.093	7.7
804.403	7.62
804.714	8.39
805.024	8.28
805.334	8.57
805.645	9.11
805.955	9.03
806.265	9.17
806.575	9.86
806.885	10.25
807.195	11.15
807.505	11.09
807.815	10.73
808.125	10.81
808.435	11.21
808.745	10.69
809.055	10.16
809.365	9.85
809.674	9.99
809.984	9.71
810.294	8.92
810.603	8.26
810.913	8
811.222	6.83
811.532	6.6
811.841	6.95
812.151	6.87
812.46	7.13
812.769	7.14
813.079	7.57
813.388	6.89
813.697	6.47
814.006	7.21
814.315	8.16
814.624	8.86
814.933	8.56
815.242	8.4
815.551	9.27
815.86	10.13
816.169	10.27
816.478	10.36
816.786	10.61
817.095	10.63
817.404	10.96
817.712	11.01
818.021	11.05
818.33	10.29
818.638	10.28
818.947	10.32
819.255	9.97
819.563	9.38
819.872	9.12
820.18	8.99
820.488	8.52
820.796	8.6
821.105	8.43
821.413	8.39
821.721	8.45
822.029	8.23
822.337	8.03
822.645	8.25
822.953	8.3
823.26	8.24
823.568	8.3
823.876	8.21
824.184	8.11
824.491	8
824.799	8.08
825.107	8.02
825.414	7.99
825.722	8.05
826.029	7.97
826.337	8.11
826.644	8.3
826.951	8.24
827.259	7.93
827.566	7.97
827.873	7.87
828.18	7.96
828.488	8.14
828.795	8.06
829.102	7.86
829.409	7.44
829.716	7.52
830.023	7.48
830.329	7.66
830.636	7.95
830.943	8.03
831.25	8.16
831.557	7.81
831.863	7.6
832.17	7.38
832.476	7.27
832.783	7.02
833.089	6.81
833.396	7.67
833.702	7.96
834.009	7.99
834.315	8.31
834.621	8.16
834.928	7.88
835.234	7.96
835.54	8.12
835.846	8.31
836.152	8.68
836.458	8.68
836.764	9.15
837.07	9.17
837.376	9.35
837.682	8.83
837.988	9.31
838.293	9.63
838.599	10.09
838.905	10.66
839.211	11.43
839.516	10.97
839.822	10.68
840.127	10.25
840.433	10.43
840.738	10.49
841.044	10.42
841.349	11.04
841.654	10.52
841.959	10.74
842.265	10.61
842.57	9.87
842.875	11.71
843.18	10.64
843.485	10.69
843.79	10.31
844.095	12
844.4	11.63
844.705	12.03
845.01	13.09
845.315	14.36
845.619	14.88
845.924	15.67
846.229	16.21
846.533	15.65
846.838	14.35
847.142	14.33
847.447	14.56
847.751	13.64
848.056	14.82
848.36	14.85
848.664	16.03
848.969	14.81
849.273	11.47
849.577	12.21
849.881	13.34
850.185	12.96
850.489	11.46
850.794	10.91
851.097	11.22
851.401	7.3
851.705	5.46
852.009	3.86
852.313	1.62
852.617	0.5
852.92	3.44
853.224	3.31
853.528	2.6
853.831	3.23
854.135	2.57
854.438	4
854.742	2.95
855.045	1.15
855.349	5.79
855.652	6.79
855.955	5.96
856.259	5.05
856.562	6.51
856.865	7.16
857.168	8.18
857.471	7.26
857.774	9.51
858.077	9.05
858.38	8.46
858.683	12.88
858.986	10.46
859.289	8.82
859.592	11.43
859.894	13.41
860.197	12.93
860.5	13.61
860.802	12.28
861.105	12.45
861.407	14.98
861.71	12.5
862.012	13.04
862.315	13.76
862.617	13.77
862.919	15.1
863.222	14.83
863.524	14.52
863.826	13.36
864.128	13.22
864.43	15.72
864.732	16.9
865.034	17.29
865.336	18.96
865.638	20.11
865.94	19.31
866.242	16.04
866.544	18.65
866.846	19.23
867.147	20.75
867.449	22.36
867.751	22.57
868.052	22.58
868.354	21.19
868.655	19.03
868.957	18.43
869.258	16.96
869.56	14.65
869.861	16.14
870.162	18.04
870.463	19.15
870.765	17.13
871.066	18.37
871.367	14.5
871.668	14.88
871.969	13.13
872.27	11.77
872.571	12.86
872.872	12.06
873.173	11.55
873.473	8.34
873.774	7.14
874.075	8.02
874.376	8.31
874.676	11.15
874.977	12.75
875.277	15.71
875.578	15.65
875.878	17.78
876.179	17.4
876.479	16.81
876.78	15.94
877.08	16.19
877.38	14.52
877.68	17.27
877.981	16.86
878.281	19.63
878.581	21.52
