Data from BA17726_Reflection_00013.txt Node
Date: Tue Nov 19 11:57:15 EST 2019
User: vgr7
Spectrometer: USB2G7710
Scans to average: 3
Trigger mode: 4
Integration Time (sec): 2.000000E-2
Electric dark correction enabled: true
Boxcar width: 10
XAxis mode: Wavelengths
Number of Pixels in Spectrum: 2048
>>>>>Begin Spectral Data<<<<<
177.721	128.06
178.105	190.91
178.488	81.44
178.871	51.92
179.254	3.23
179.636	24.57
180.019	13.04
180.402	266.67
180.785	-13.04
181.168	-68.02
181.55	-168.91
181.933	-1194.12
182.316	-520.69
182.698	81.13
183.081	81.98
183.463	157.97
183.846	100
184.228	134.19
184.611	37.8
184.993	2.7
185.376	-5.59
185.758	12.13
186.14	-26.83
186.522	-17.17
186.904	-16.42
187.287	-89.3
187.669	-72.09
188.051	-102.31
188.433	-7900
188.815	-737.84
189.197	686.21
189.579	-227.87
189.961	-172.73
190.342	-126.99
190.724	-637.7
191.106	1190.91
191.488	-1943.48
191.869	-205.7
192.251	-266.86
192.633	-186.43
193.014	-133.77
193.396	-96.85
193.777	-72.21
194.159	-84.65
194.54	-92.02
194.922	-82.95
195.303	-64.34
195.684	-83.31
196.065	-71.9
196.447	-50.7
196.828	-48.24
197.209	-53.36
197.59	-47.02
197.971	-44.27
198.352	-49.2
198.733	-43.52
199.114	-40.37
199.495	-37.09
199.876	-50.78
200.257	-45.18
200.638	-49.62
201.018	-50.05
201.399	-44.54
201.78	-50.74
202.16	-55.86
202.541	-65.39
202.922	-48.45
203.302	-38.77
203.683	-32.45
204.063	-35.17
204.444	-36.3
204.824	-32.89
205.204	-19.29
205.585	-40.96
205.965	-50.94
206.345	-49.34
206.725	-44.21
207.106	-42.1
207.486	-41.05
207.866	-27.58
208.246	-23.5
208.626	-17.52
209.006	-2.78
209.386	-4.36
209.766	-9.91
210.145	-12.14
210.525	-11.89
210.905	-17.89
211.285	-1.36
211.664	12.42
212.044	2.28
212.424	-10.23
212.803	-15.19
213.183	-30.83
213.562	-1.94
213.942	-0.11
214.321	-4.85
214.701	-5.21
215.08	-0.75
215.459	-0.26
215.838	-8.53
216.218	-6.38
216.597	-11.88
216.976	-23.79
217.355	-27.52
217.734	-24.21
218.113	-14.91
218.492	-17.08
218.871	-23.89
219.25	-34.26
219.629	-44.93
220.008	-44.89
220.387	-42.24
220.766	-34.38
221.144	-37.75
221.523	-49.1
221.902	-49.17
222.28	-47.08
222.659	-35.32
223.037	-37.72
223.416	-38.41
223.794	-34.74
224.173	-39.63
224.551	-35.85
224.929	-31.29
225.308	-27.07
225.686	-25.19
226.064	-25.94
226.442	-20
226.821	-16.41
227.199	-15.76
227.577	-10.4
227.955	-4.71
228.333	-5.56
228.711	-8.31
229.089	-4.31
229.467	-4.39
229.845	-4.39
230.222	-2.4
230.6	-7.09
230.978	-5.78
231.356	-8.01
231.733	-6.26
232.111	-5.72
232.488	-4.13
232.866	-6
233.243	-5.14
233.621	-7.21
233.998	-6.71
234.376	-7.02
234.753	-7.16
235.13	-6.72
235.508	-7.48
235.885	-7.56
236.262	-4.23
236.639	-3.59
237.016	-3.77
237.393	-2.31
237.77	-1.37
238.147	-1.67
238.524	-0.3
238.901	-0.53
239.278	0.36
239.655	0.31
240.032	1.62
240.409	2.07
240.785	2.98
241.162	3.37
241.539	4.03
241.915	4.4
242.292	4.36
242.668	4.54
243.045	4.36
243.421	4.21
243.798	3.88
244.174	3.6
244.551	3.83
244.927	4
245.303	4
245.679	4.13
246.056	4.01
246.432	4.15
246.808	4.49
247.184	4.29
247.56	4.11
247.936	3.98
248.312	3.82
248.688	3.53
249.064	3.51
249.44	3.48
249.815	3.45
250.191	3.55
250.567	3.4
250.943	3.63
251.318	3.58
251.694	3.78
252.069	3.75
252.445	3.82
252.82	3.78
253.196	4.02
253.571	3.94
253.947	4.15
254.322	3.72
254.697	3.38
255.073	3.26
255.448	3.3
255.823	3.61
256.198	3.45
256.573	3.71
256.948	3.44
257.323	3.58
257.698	3.54
258.073	3.27
258.448	3.54
258.823	3.42
259.198	3.52
259.573	3.54
259.948	3.62
260.322	3.4
260.697	3.31
261.072	3.22
261.446	3.15
261.821	3.04
262.195	3.1
262.57	3.12
262.944	3.22
263.319	3.32
263.693	3.04
264.067	3.23
264.442	3.19
264.816	3.19
265.19	3.07
265.564	3.08
265.938	3.25
266.313	2.99
266.687	2.76
267.061	2.7
267.435	2.62
267.809	2.57
268.183	2.67
268.556	2.82
268.93	2.81
269.304	2.86
269.678	3.21
270.051	3.27
270.425	3.31
270.799	3.16
271.172	3.1
271.546	3.25
271.919	3.1
272.293	3.3
272.666	3.47
273.04	3.43
273.413	3.24
273.787	3.12
274.16	3.04
274.533	3.32
274.906	3.3
275.279	3.23
275.653	3.14
276.026	3.21
276.399	3.06
276.772	3.18
277.145	3.27
277.518	2.9
277.891	2.89
278.263	2.92
278.636	3.3
279.009	3.32
279.382	3.33
279.755	3.47
280.127	3.26
280.5	3.16
280.872	3.18
281.245	3.41
281.617	3.52
281.99	3.64
282.362	3.44
282.735	3.37
283.107	3.34
283.479	3.49
283.852	3.55
284.224	3.65
284.596	3.55
284.968	3.59
285.34	3.68
285.713	3.68
286.085	3.67
286.457	3.45
286.829	3.42
287.201	3.43
287.572	3.49
287.944	3.59
288.316	3.47
288.688	3.47
289.06	3.38
289.431	3.47
289.803	3.46
290.175	3.65
290.546	3.83
290.918	3.93
291.289	3.86
291.661	3.79
292.032	3.75
292.403	3.79
292.775	3.75
293.146	3.9
293.517	3.85
293.889	3.9
294.26	4.01
294.631	4.22
295.002	4.33
295.373	4.13
295.744	4.13
296.115	4.27
296.486	4.27
296.857	4.39
297.228	4.27
297.599	4.29
297.97	4.28
298.34	4.27
298.711	4.35
299.082	4.3
299.452	4.26
299.823	4.2
300.194	4.12
300.564	4.17
300.935	4.08
301.305	4.16
301.676	3.95
302.046	3.94
302.416	3.81
302.787	3.68
303.157	3.87
303.527	3.96
303.897	3.82
304.267	3.91
304.637	3.92
305.008	4.06
305.378	4.24
305.748	4.11
306.117	4.13
306.487	4.16
306.857	4.3
307.227	4.51
307.597	4.7
307.967	4.8
308.336	4.77
308.706	4.77
309.076	4.8
309.445	5.03
309.815	5.16
310.184	5.19
310.554	5.25
310.923	5.2
311.293	5.04
311.662	5.27
312.031	5.47
312.401	5.4
312.77	5.29
313.139	5.25
313.508	5.37
313.877	5.35
314.246	5.32
314.616	5.48
314.985	5.35
315.353	5.46
315.722	5.57
316.091	5.57
316.46	5.61
316.829	5.64
317.198	5.72
317.567	5.88
317.935	5.97
318.304	6.12
318.672	6.17
319.041	6.3
319.41	6.25
319.778	6.06
320.147	6.11
320.515	6.31
320.883	6.35
321.252	6.45
321.62	6.52
321.988	6.65
322.357	6.82
322.725	6.91
323.093	6.67
323.461	6.64
323.829	6.67
324.197	6.81
324.565	6.95
324.933	6.89
325.301	6.58
325.669	6.61
326.037	6.55
326.405	6.54
326.772	6.63
327.14	6.67
327.508	6.77
327.875	6.76
328.243	6.65
328.61	6.71
328.978	6.59
329.346	6.52
329.713	6.47
330.08	6.41
330.448	6.58
330.815	6.78
331.182	6.76
331.55	6.76
331.917	6.71
332.284	6.72
332.651	6.83
333.018	7.11
333.385	7.05
333.752	6.98
334.119	7.06
334.486	7.05
334.853	7.16
335.22	7.14
335.587	7.01
335.954	7.07
336.32	7.04
336.687	7.2
337.054	7.3
337.42	7.2
337.787	7.03
338.153	6.91
338.52	6.89
338.886	6.92
339.253	6.99
339.619	6.97
339.986	6.95
340.352	6.93
340.718	6.89
341.084	6.94
341.451	7.03
341.817	7.04
342.183	7.04
342.549	7.04
342.915	7.08
343.281	7.28
343.647	7.49
344.013	7.62
344.379	7.56
344.745	7.44
345.11	7.61
345.476	7.87
345.842	7.95
346.208	8.03
346.573	8.08
346.939	8.07
347.304	8.14
347.67	8.04
348.035	8.11
348.401	8.08
348.766	8.08
349.132	8.1
349.497	8.1
349.862	8.2
350.228	8.18
350.593	8.19
350.958	8.22
351.323	8.03
351.688	8.04
352.053	8.05
352.418	8.16
352.783	8.11
353.148	8.03
353.513	8
353.878	7.92
354.243	7.9
354.608	7.97
354.972	7.96
355.337	8.03
355.702	7.88
356.066	7.97
356.431	7.95
356.795	7.97
357.16	8.02
357.524	8.01
357.889	8.01
358.253	7.96
358.618	7.95
358.982	8.03
359.346	7.95
359.71	7.96
360.075	7.96
360.439	7.99
360.803	7.95
361.167	7.93
361.531	7.93
361.895	7.89
362.259	7.91
362.623	7.9
362.987	7.89
363.351	7.96
363.714	7.87
364.078	7.86
364.442	7.86
364.806	7.79
365.169	7.75
365.533	7.69
365.896	7.79
366.26	7.72
366.623	7.65
366.987	7.6
367.35	7.57
367.714	7.51
368.077	7.43
368.44	7.31
368.803	7.21
369.167	7.22
369.53	7.24
369.893	7.17
370.256	7.14
370.619	7.16
370.982	7.03
371.345	7.11
371.708	7.1
372.071	7.02
372.434	6.92
372.797	6.83
373.159	6.73
373.522	6.57
373.885	6.59
374.247	6.55
374.61	6.6
374.973	6.52
375.335	6.55
375.698	6.53
376.06	6.59
376.423	6.68
376.785	6.62
377.147	6.58
377.51	6.52
377.872	6.46
378.234	6.37
378.596	6.36
378.958	6.25
379.321	6.22
379.683	6.16
380.045	6.18
380.407	6.24
380.769	6.23
381.13	6.25
381.492	6.19
381.854	6.17
382.216	6.1
382.578	6.12
382.939	6.04
383.301	5.98
383.663	5.93
384.024	5.81
384.386	5.8
384.747	5.75
385.109	5.77
385.47	5.73
385.832	5.72
386.193	5.69
386.554	5.63
386.916	5.61
387.277	5.62
387.638	5.62
387.999	5.58
388.36	5.57
388.721	5.54
389.082	5.57
389.443	5.52
389.804	5.48
390.165	5.5
390.526	5.47
390.887	5.47
391.248	5.41
391.609	5.42
391.969	5.42
392.33	5.38
392.691	5.33
393.051	5.29
393.412	5.23
393.772	5.26
394.133	5.24
394.493	5.17
394.854	5.1
395.214	5.02
395.574	4.97
395.935	4.95
396.295	4.9
396.655	4.82
397.015	4.84
397.376	4.77
397.736	4.67
398.096	4.66
398.456	4.63
398.816	4.63
399.176	4.58
399.535	4.5
399.895	4.48
400.255	4.47
400.615	4.49
400.975	4.51
401.334	4.44
401.694	4.41
402.054	4.41
402.413	4.43
402.773	4.46
403.132	4.42
403.492	4.4
403.851	4.4
404.211	4.4
404.57	4.36
404.929	4.34
405.288	4.36
405.648	4.35
406.007	4.31
406.366	4.28
406.725	4.28
407.084	4.25
407.443	4.24
407.802	4.21
408.161	4.22
408.52	4.2
408.879	4.18
409.238	4.2
409.596	4.22
409.955	4.17
410.314	4.13
410.673	4.11
411.031	4.11
411.39	4.05
411.748	4.04
412.107	4.04
412.465	4.03
412.824	4.03
413.182	4.02
413.54	4.01
413.899	4
414.257	3.99
414.615	4.01
414.974	4
415.332	3.98
415.69	3.91
416.048	3.92
416.406	3.91
416.764	3.88
417.122	3.86
417.48	3.86
417.838	3.84
418.195	3.83
418.553	3.83
418.911	3.83
419.269	3.81
419.626	3.79
419.984	3.8
420.342	3.79
420.699	3.77
421.057	3.75
421.414	3.74
421.772	3.73
422.129	3.72
422.486	3.71
422.844	3.7
423.201	3.71
423.558	3.68
423.915	3.7
424.273	3.69
424.63	3.68
424.987	3.67
425.344	3.65
425.701	3.64
426.058	3.63
426.415	3.62
426.772	3.61
427.128	3.6
427.485	3.58
427.842	3.55
428.199	3.56
428.555	3.55
428.912	3.54
429.269	3.54
429.625	3.52
429.982	3.51
430.338	3.5
430.695	3.49
431.051	3.51
431.407	3.49
431.764	3.5
432.12	3.52
432.476	3.53
432.832	3.54
433.189	3.53
433.545	3.54
433.901	3.55
434.257	3.56
434.613	3.57
434.969	3.57
435.325	3.58
435.681	3.55
436.036	3.56
436.392	3.58
436.748	3.56
437.104	3.56
437.459	3.57
437.815	3.6
438.171	3.61
438.526	3.6
438.882	3.59
439.237	3.59
439.593	3.59
439.948	3.58
440.304	3.57
440.659	3.58
441.014	3.58
441.369	3.56
441.725	3.54
442.08	3.52
442.435	3.52
442.79	3.53
443.145	3.54
443.5	3.54
443.855	3.53
444.21	3.54
444.565	3.54
444.92	3.53
445.275	3.51
445.629	3.47
445.984	3.48
446.339	3.46
446.693	3.44
447.048	3.43
447.403	3.42
447.757	3.41
448.112	3.42
448.466	3.41
448.82	3.4
449.175	3.39
449.529	3.38
449.883	3.38
450.238	3.36
450.592	3.34
450.946	3.33
451.3	3.32
451.654	3.3
452.008	3.29
452.362	3.28
452.716	3.27
453.07	3.3
453.424	3.29
453.778	3.28
454.132	3.29
454.486	3.29
454.839	3.3
455.193	3.32
455.547	3.29
455.9	3.28
456.254	3.3
456.607	3.33
456.961	3.33
457.314	3.33
457.668	3.33
458.021	3.35
458.375	3.33
458.728	3.32
459.081	3.35
459.434	3.34
459.787	3.33
460.141	3.36
460.494	3.37
460.847	3.37
461.2	3.38
461.553	3.38
461.906	3.39
462.259	3.38
462.611	3.39
462.964	3.42
463.317	3.43
463.67	3.43
464.022	3.43
464.375	3.45
464.728	3.47
465.08	3.47
465.433	3.47
465.785	3.48
466.138	3.52
466.49	3.52
466.843	3.55
467.195	3.57
467.547	3.56
467.899	3.57
468.252	3.58
468.604	3.59
468.956	3.61
469.308	3.61
469.66	3.64
470.012	3.63
470.364	3.63
470.716	3.65
471.068	3.66
471.42	3.66
471.772	3.65
472.123	3.66
472.475	3.68
472.827	3.7
473.178	3.74
473.53	3.7
473.882	3.7
474.233	3.68
474.585	3.67
474.936	3.69
475.288	3.68
475.639	3.7
475.99	3.68
476.342	3.67
476.693	3.67
477.044	3.66
477.395	3.66
477.746	3.67
478.097	3.68
478.448	3.66
478.8	3.66
479.15	3.64
479.501	3.61
479.852	3.6
480.203	3.6
480.554	3.59
480.905	3.6
481.255	3.59
481.606	3.59
481.957	3.59
482.307	3.59
482.658	3.59
483.009	3.58
483.359	3.58
483.709	3.58
484.06	3.58
484.41	3.58
484.761	3.58
485.111	3.57
485.461	3.58
485.811	3.57
486.162	3.58
486.512	3.59
486.862	3.6
487.212	3.61
487.562	3.6
487.912	3.6
488.262	3.61
488.612	3.62
488.961	3.63
489.311	3.64
489.661	3.63
490.011	3.63
490.36	3.63
490.71	3.63
491.06	3.64
491.409	3.64
491.759	3.66
492.108	3.66
492.458	3.68
492.807	3.68
493.157	3.71
493.506	3.72
493.855	3.74
494.204	3.74
494.554	3.74
494.903	3.77
495.252	3.8
495.601	3.83
495.95	3.86
496.299	3.87
496.648	3.89
496.997	3.94
497.346	3.97
497.695	4.02
498.043	4.07
498.392	4.1
498.741	4.14
499.09	4.16
499.438	4.2
499.787	4.23
500.135	4.26
500.484	4.28
500.832	4.34
501.181	4.36
501.529	4.44
501.878	4.49
502.226	4.52
502.574	4.57
502.923	4.61
503.271	4.64
503.619	4.7
503.967	4.76
504.315	4.77
504.663	4.79
505.011	4.85
505.359	4.86
505.707	4.92
506.055	4.96
506.403	5.03
506.751	5.07
507.098	5.15
507.446	5.23
507.794	5.28
508.141	5.33
508.489	5.41
508.837	5.45
509.184	5.49
509.531	5.55
509.879	5.58
510.226	5.63
510.574	5.67
510.921	5.72
511.268	5.77
511.616	5.86
511.963	5.93
512.31	5.97
512.657	6.05
513.004	6.08
513.351	6.16
513.698	6.23
514.045	6.31
514.392	6.37
514.739	6.42
515.086	6.51
515.432	6.61
515.779	6.69
516.126	6.77
516.473	6.86
516.819	6.93
517.166	7.04
517.512	7.12
517.859	7.23
518.205	7.31
518.552	7.39
518.898	7.45
519.245	7.53
519.591	7.61
519.937	7.72
520.283	7.83
520.629	7.9
520.976	7.99
521.322	8.08
521.668	8.18
522.014	8.29
522.36	8.39
522.706	8.48
523.052	8.6
523.398	8.71
523.743	8.85
524.089	9
524.435	9.08
524.781	9.2
525.126	9.32
525.472	9.45
525.817	9.54
526.163	9.65
526.509	9.75
526.854	9.82
527.199	9.89
527.545	9.99
527.89	10.08
528.235	10.16
528.581	10.25
528.926	10.33
529.271	10.42
529.616	10.52
529.961	10.62
530.306	10.72
530.651	10.83
530.996	10.94
531.341	11.06
531.686	11.22
532.031	11.36
532.376	11.48
532.721	11.61
533.065	11.76
533.41	11.92
533.755	12.08
534.099	12.24
534.444	12.41
534.788	12.54
535.133	12.68
535.477	12.84
535.822	13.02
536.166	13.21
536.51	13.43
536.855	13.62
537.199	13.83
537.543	14.08
537.887	14.29
538.231	14.53
538.576	14.76
538.92	14.98
539.264	15.2
539.608	15.43
539.951	15.62
540.295	15.81
540.639	15.98
540.983	16.17
541.327	16.36
541.671	16.56
542.014	16.76
542.358	16.95
542.701	17.15
543.045	17.34
543.389	17.53
543.732	17.72
544.075	17.94
544.419	18.14
544.762	18.32
545.105	18.55
545.449	18.77
545.792	18.99
546.135	19.22
546.478	19.49
546.821	19.75
547.165	20.04
547.508	20.32
547.851	20.6
548.194	20.88
548.536	21.19
548.879	21.47
549.222	21.74
549.565	22.01
549.908	22.34
550.25	22.66
550.593	22.93
550.936	23.23
551.278	23.56
551.621	23.85
551.963	24.18
552.306	24.47
552.648	24.77
552.991	25.08
553.333	25.33
553.675	25.58
554.017	25.81
554.36	26.09
554.702	26.39
555.044	26.63
555.386	26.92
555.728	27.22
556.07	27.47
556.412	27.83
556.754	28.12
557.096	28.39
557.438	28.67
557.78	29.04
558.121	29.37
558.463	29.66
558.805	29.95
559.147	30.31
559.488	30.62
559.83	30.91
560.171	31.24
560.513	31.55
560.854	31.88
561.196	32.28
561.537	32.55
561.878	32.87
562.22	33.2
562.561	33.46
562.902	33.79
563.243	34.11
563.584	34.4
563.925	34.71
564.266	34.99
564.607	35.3
564.948	35.57
565.289	35.83
565.63	36.08
565.971	36.36
566.312	36.58
566.653	36.86
566.993	37.08
567.334	37.36
567.675	37.66
568.015	37.92
568.356	38.18
568.696	38.48
569.037	38.73
569.377	38.98
569.718	39.26
570.058	39.47
570.398	39.69
570.739	39.9
571.079	40.14
571.419	40.41
571.759	40.58
572.099	40.83
572.439	41.03
572.779	41.3
573.119	41.6
573.459	41.8
573.799	42.01
574.139	42.29
574.479	42.45
574.819	42.69
575.158	42.97
575.498	43.18
575.838	43.36
576.177	43.62
576.517	43.89
576.856	44.17
577.196	44.41
577.535	44.71
577.875	44.94
578.214	45.29
578.553	45.55
578.893	45.87
579.232	46.11
579.571	46.44
579.91	46.59
580.25	46.76
580.589	47
580.928	47.21
581.267	47.53
581.606	47.77
581.945	48.05
582.283	48.22
582.622	48.37
582.961	48.62
583.3	48.81
583.639	49.07
583.977	49.28
584.316	49.55
584.654	49.73
584.993	49.95
585.332	50.06
585.67	50.21
586.008	50.45
586.347	50.6
586.685	50.71
587.024	50.94
587.362	51.15
587.7	51.32
588.038	51.52
588.376	51.63
588.715	51.84
589.053	51.87
589.391	52.07
589.729	52.21
590.067	52.37
590.404	52.57
590.742	52.74
591.08	52.84
591.418	53.03
591.756	53.25
592.093	53.38
592.431	53.52
592.769	53.7
593.106	53.76
593.444	53.87
593.781	54
594.119	54.16
594.456	54.25
594.793	54.39
595.131	54.5
595.468	54.55
595.805	54.67
596.143	54.93
596.48	54.91
596.817	55.02
597.154	55.16
597.491	55.25
597.828	55.28
598.165	55.4
598.502	55.49
598.839	55.57
599.176	55.71
599.512	55.92
599.849	56.05
600.186	56.19
600.523	56.36
600.859	56.51
601.196	56.55
601.532	56.76
601.869	56.88
602.205	56.98
602.542	57.03
602.878	57.15
603.215	57.13
603.551	57.34
603.887	57.52
604.223	57.58
604.56	57.61
604.896	57.74
605.232	57.78
605.568	57.89
605.904	57.9
606.24	57.98
606.576	57.98
606.912	58.03
607.248	58.14
607.583	58.25
607.919	58.35
608.255	58.47
608.591	58.51
608.926	58.6
609.262	58.65
609.597	58.9
609.933	58.96
610.268	59.14
610.604	59.17
610.939	59.24
611.275	59.26
611.61	59.41
611.945	59.43
612.281	59.58
612.616	59.57
612.951	59.75
613.286	59.83
613.621	59.96
613.956	60.07
614.291	60.04
614.626	60.11
614.961	60.15
615.296	60.33
615.631	60.38
615.966	60.53
616.3	60.7
616.635	60.69
616.97	60.81
617.304	60.78
617.639	60.78
617.973	60.8
618.308	60.84
618.642	60.92
618.977	61
619.311	60.99
619.646	61.06
619.98	61.12
620.314	61.19
620.648	61.18
620.983	61.26
621.317	61.36
621.651	61.41
621.985	61.49
622.319	61.49
622.653	61.46
622.987	61.43
623.321	61.44
623.655	61.41
623.988	61.46
624.322	61.55
624.656	61.73
624.99	61.71
625.323	61.77
625.657	61.66
625.99	61.66
626.324	61.72
626.657	61.71
626.991	61.74
627.324	61.84
627.658	61.89
627.991	61.91
628.324	61.94
628.657	62.02
628.991	62.07
629.324	62.05
629.657	62.04
629.99	62.15
630.323	62.21
630.656	62.32
630.989	62.27
631.322	62.34
631.655	62.29
631.987	62.53
632.32	62.63
632.653	62.81
632.986	62.88
633.318	62.91
633.651	62.95
633.984	63.01
634.316	63.04
634.649	63.15
634.981	63.22
635.313	63.36
635.646	63.39
635.978	63.38
636.31	63.48
636.643	63.53
636.975	63.54
637.307	63.59
637.639	63.66
637.971	63.73
638.303	63.72
638.635	63.86
638.967	63.71
639.299	63.82
639.631	63.82
639.963	63.91
640.295	63.98
640.626	64.06
640.958	64.11
641.29	64.16
641.621	64.19
641.953	64.12
642.285	64.19
642.616	64.18
642.948	64.23
643.279	64.36
643.61	64.46
643.942	64.39
644.273	64.51
644.604	64.54
644.936	64.59
645.267	64.46
645.598	64.32
645.929	64.37
646.26	64.39
646.591	64.42
646.922	64.42
647.253	64.37
647.584	64.48
647.915	64.46
648.245	64.31
648.576	64.34
648.907	64.49
649.238	64.42
649.568	64.43
649.899	64.46
650.229	64.39
650.56	64.57
650.89	64.55
651.221	64.43
651.551	64.43
651.882	64.41
652.212	64.59
652.542	64.67
652.872	64.73
653.203	64.86
653.533	64.86
653.863	64.77
654.193	64.91
654.523	64.89
654.853	65.06
655.183	65.21
655.513	65.14
655.843	65.18
656.172	65.26
656.502	65.25
656.832	65.29
657.162	65.31
657.491	65.19
657.821	65.27
658.15	65.34
658.48	65.31
658.809	65.35
659.139	65.25
659.468	65.3
659.798	65.32
660.127	65.26
660.456	65.25
660.785	65.37
661.115	65.26
661.444	65.3
661.773	65.24
662.102	65.24
662.431	65.32
662.76	65.27
663.089	65.25
663.418	65.32
663.747	65.37
664.076	65.43
664.404	65.58
664.733	65.52
665.062	65.52
665.39	65.54
665.719	65.52
666.048	65.65
666.376	65.63
666.705	65.64
667.033	65.57
667.362	65.76
667.69	65.78
668.018	65.88
668.347	65.75
668.675	65.67
669.003	65.63
669.331	65.61
669.659	65.49
669.987	65.5
670.315	65.5
670.643	65.42
670.971	65.37
671.299	65.36
671.627	65.63
671.955	65.56
672.283	65.62
672.61	65.64
672.938	65.66
673.266	65.86
673.593	65.88
673.921	65.85
674.249	65.73
674.576	65.81
674.904	65.71
675.231	65.79
675.558	65.74
675.886	65.94
676.213	65.91
676.54	66.02
676.867	65.87
677.195	65.83
677.522	65.77
677.849	65.86
678.176	65.75
678.503	65.61
678.83	65.7
679.157	65.77
679.484	65.82
679.81	65.79
680.137	65.76
680.464	65.82
680.791	65.75
681.117	65.74
681.444	65.66
681.771	65.73
682.097	65.6
682.424	65.65
682.75	65.51
683.077	65.59
683.403	65.53
683.729	65.6
684.056	65.67
684.382	65.93
684.708	65.94
685.034	66
685.36	65.88
685.686	65.82
686.012	65.66
686.339	65.48
686.664	65.48
686.99	65.22
687.316	65.03
687.642	65.28
687.968	65.3
688.294	65.25
688.619	65.24
688.945	65.33
689.271	65.36
689.596	65.25
689.922	65.29
690.247	65.36
690.573	65.42
690.898	65.4
691.224	65.2
691.549	65.07
691.874	64.99
692.2	65.07
692.525	65.18
692.85	65.14
693.175	65.06
693.5	65.02
693.825	65.06
694.15	65.22
694.475	64.93
694.8	65.03
695.125	64.91
695.45	64.96
695.775	64.93
696.099	64.93
696.424	64.87
696.749	64.9
697.073	64.76
697.398	64.81
697.723	64.77
698.047	64.81
698.372	64.96
698.696	65.15
699.02	65.22
699.345	65.22
699.669	65.35
699.993	65.72
700.318	65.76
700.642	65.72
700.966	65.63
701.29	65.84
701.614	65.83
701.938	66
702.262	66.08
702.586	66.25
702.91	66.3
703.234	66.34
703.557	66.23
703.881	66.49
704.205	66.52
704.529	66.36
704.852	66.37
705.176	66.36
705.499	66.28
705.823	66.32
706.146	66.16
706.47	65.88
706.793	65.66
707.117	65.76
707.44	65.88
707.763	65.83
708.086	65.71
708.409	65.75
708.733	65.82
709.056	65.98
709.379	66.01
709.702	66.18
710.025	66.42
710.348	66.43
710.671	66.29
710.993	66.18
711.316	66.4
711.639	66.56
711.962	66.44
712.284	66.48
712.607	66.68
712.93	66.91
713.252	67.17
713.575	67.09
713.897	67.07
714.22	67.06
714.542	67.29
714.864	67.31
715.187	67.08
715.509	67.17
715.831	66.95
716.153	66.85
716.475	66.76
716.798	66.85
717.12	66.98
717.442	66.83
717.764	66.73
718.085	66.59
718.407	66.39
718.729	66.51
719.051	66.39
719.373	66.2
719.695	66
720.016	65.98
720.338	66.17
720.659	66.14
720.981	66.34
721.302	66.26
721.624	66.03
721.945	66.12
722.267	66.05
722.588	66.34
722.909	66.33
723.231	66.01
723.552	65.76
723.873	65.45
724.194	65.82
724.515	66.11
724.836	66.06
725.157	66.07
725.478	65.75
725.799	65.63
726.12	65.56
726.441	65.48
726.762	65.59
727.083	65.79
727.403	65.76
727.724	65.72
728.045	65.53
728.365	65.82
728.686	65.77
729.006	65.61
729.327	65.61
729.647	65.32
729.967	65.5
730.288	65.73
730.608	66.01
730.928	66.04
731.249	66.17
731.569	66.03
731.889	66.02
732.209	66.29
732.529	66.15
732.849	66.15
733.169	66.17
733.489	65.97
733.809	65.82
734.129	65.68
734.448	65.76
734.768	65.86
735.088	65.89
735.408	66.23
735.727	66.18
736.047	65.87
736.366	66.13
736.686	66.17
737.005	65.98
737.325	65.97
737.644	65.97
737.963	65.36
738.283	65.98
738.602	66.25
738.921	66.17
739.24	66.46
739.56	66.22
739.879	66.18
740.198	66.53
740.517	66.39
740.836	66.45
741.155	66.38
741.473	66.19
741.792	66.03
742.111	66.04
742.43	66.35
742.748	66.55
743.067	66.58
743.386	66.44
743.704	66.67
744.023	66.61
744.341	66.48
744.66	66.94
744.978	66.26
745.297	66.11
745.615	65.79
745.933	65.97
746.252	66.1
746.57	66.44
746.888	66.13
747.206	65.97
747.524	65.84
747.842	66.09
748.16	66.21
748.478	66.49
748.796	66.42
749.114	66.34
749.432	66.25
749.749	66.51
750.067	66.71
750.385	66.52
750.703	66.54
751.02	66.69
751.338	66.71
751.655	67.34
751.973	66.95
752.29	67.13
752.608	66.86
752.925	67.24
753.242	67.13
753.56	67.05
753.877	66.88
754.194	66.98
754.511	66.74
754.828	66.84
755.145	66.58
755.462	66.44
755.779	66.65
756.096	66.34
756.413	66.09
756.73	65.78
757.047	65.95
757.364	66.08
757.68	65.58
757.997	65.98
758.314	65.56
758.63	65.64
758.947	65.92
759.264	66.21
759.58	66.02
759.896	66.3
760.213	66.45
760.529	66.64
760.846	66.86
761.162	66.5
761.478	66.63
761.794	66.58
762.11	66.48
762.426	66.13
762.743	66.26
763.059	66.3
763.375	66.57
763.69	66.33
764.006	66.1
764.322	66.42
764.638	66.08
764.954	66.22
765.27	66.32
765.585	66.22
765.901	66
766.216	66.16
766.532	65.68
766.848	65.61
767.163	65.9
767.478	65.69
767.794	66.02
768.109	66.12
768.424	65.78
768.74	65.99
769.055	66.38
769.37	66.33
769.685	65.91
770	65.68
770.315	65.74
770.63	65.82
770.945	65.64
771.26	65.75
771.575	65.52
771.89	65.72
772.205	65.64
772.52	65.62
772.834	65.39
773.149	65.01
773.464	64.88
773.778	64.82
774.093	64.87
774.407	65.02
774.722	64.67
775.036	65.02
775.351	64.77
775.665	64.33
775.979	64.26
776.293	64.39
776.608	64.43
776.922	64.29
777.236	64.38
777.55	64.48
777.864	63.9
778.178	64.2
778.492	63.99
778.806	64.28
779.12	64.28
779.434	63.86
779.747	64.31
780.061	64.54
780.375	63.9
780.689	64.21
781.002	63.55
781.316	62.88
781.629	62.93
781.943	62.83
782.256	63.02
782.57	62.87
782.883	62.69
783.196	62.53
783.51	62.94
783.823	62.79
784.136	62.55
784.449	63.41
784.762	64.06
785.075	64.01
785.388	63.62
785.701	63.97
786.014	64.67
786.327	65.38
786.64	65.73
786.953	66.04
787.266	65.19
787.578	65.38
787.891	66.61
788.204	66.13
788.516	65.9
788.829	65.79
789.141	65.98
789.454	67
789.766	67.46
790.079	67.36
790.391	67.15
790.703	67.23
791.016	67.16
791.328	65.88
791.64	65.71
791.952	65.87
792.264	65
792.576	64.73
792.888	64.17
793.2	63.68
793.512	64.01
793.824	64.19
794.136	64.37
794.448	63.96
794.76	64.7
795.071	64.53
795.383	64.04
795.695	63.72
796.006	63.4
796.318	63.49
796.629	63.66
796.941	64.5
797.252	64.38
797.564	64.05
797.875	64.4
798.186	64.57
798.497	64.41
798.809	65.51
799.12	64.96
799.431	64.98
799.742	64.8
800.053	64.09
800.364	64.38
800.675	64.14
800.986	63.7
801.297	63.95
801.608	64.7
801.918	65.09
802.229	66.01
802.54	65.05
802.851	64.59
803.161	64.4
803.472	64.04
803.782	63.82
804.093	63.85
804.403	63.61
804.714	63.8
805.024	63.9
805.334	63.01
805.645	62.75
805.955	63.01
806.265	63.33
806.575	63.64
806.885	63.37
807.195	63.71
807.505	63.82
807.815	62.99
808.125	62.89
808.435	62.58
808.745	61.99
809.055	61.95
809.365	62.72
809.674	63.44
809.984	62.96
810.294	63.1
810.603	63.31
810.913	63.78
811.222	63.02
811.532	63.03
811.841	64.03
812.151	65.24
812.46	64.63
812.769	65.08
813.079	65.24
813.388	65.58
813.697	65.6
814.006	66.22
814.315	66.13
814.624	66.09
814.933	65.54
815.242	65.91
815.551	66.79
815.86	66.23
816.169	65.25
816.478	65.19
816.786	65.26
817.095	64.91
817.404	64.85
817.712	65.85
818.021	65.89
818.33	64.58
818.638	64.4
818.947	64.82
819.255	65.17
819.563	65.17
819.872	65.54
820.18	65.32
820.488	65.38
820.796	65.7
821.105	66.06
821.413	66.58
821.721	66.57
822.029	66.9
822.337	66.83
822.645	66.78
822.953	67.09
823.26	67.13
823.568	67.05
823.876	67.06
824.184	66.61
824.491	66.51
824.799	66.8
825.107	66.89
825.414	66.93
825.722	66.99
826.029	67.08
826.337	67.09
826.644	67.28
826.951	67.41
827.259	67.68
827.566	67.64
827.873	67.31
828.18	67.56
828.488	67.07
828.795	67.2
829.102	67.51
829.409	67.28
829.716	67.3
830.023	67.4
830.329	67.53
830.636	68.64
830.943	68.94
831.25	68.5
831.557	68.29
831.863	67.81
832.17	67.6
832.476	67.63
832.783	67.23
833.089	66.64
833.396	66.25
833.702	65.95
834.009	65.06
834.315	65.43
834.621	64.93
834.928	65.27
835.234	65.05
835.54	64.25
835.846	63.98
836.152	64.03
836.458	64.43
836.764	64.35
837.07	63.91
837.376	63.9
837.682	63.78
837.988	63.74
838.293	63.73
838.599	62.98
838.905	61.98
839.211	61.66
839.516	61.09
839.822	60.87
840.127	60.42
840.433	61.05
840.738	60.25
841.044	59.56
841.349	58.95
841.654	58.68
841.959	58.86
842.265	58.63
842.57	60.38
842.875	59.06
843.18	58.48
843.485	56.96
843.79	57.32
844.095	58.94
844.4	59.72
844.705	59.72
845.01	60.61
845.315	61.28
845.619	62.25
845.924	63.49
846.229	64.53
846.533	62.92
846.838	61.8
847.142	61.69
847.447	62.26
847.751	61.53
848.056	60.9
848.36	61.06
848.664	61.47
848.969	58.82
849.273	60.33
849.577	60.23
849.881	61.07
850.185	57.03
850.489	54.49
850.794	53.12
851.097	54.52
851.401	51.95
851.705	52.26
852.009	52.44
852.313	52.91
852.617	54.29
852.92	56.2
853.224	58.39
853.528	58.17
853.831	58.89
854.135	61.78
854.438	62
854.742	62.54
855.045	63.38
855.349	62.46
855.652	60.91
855.955	59.63
856.259	57.74
856.562	61.22
856.865	62.12
857.168	61.86
857.471	61.05
857.774	61.25
858.077	62.33
858.38	60.15
858.683	59.22
858.986	54.89
859.289	55.36
859.592	52.7
859.894	55.16
860.197	55.02
860.5	54.33
860.802	55.37
861.105	55.4
861.407	53.45
861.71	53.5
862.012	54.57
862.315	55.93
862.617	61.24
862.919	60.74
863.222	58.72
863.524	58.73
863.826	57.86
864.128	58.29
864.43	58.88
864.732	59.16
865.034	59.2
865.336	58.75
865.638	57.32
865.94	59.05
866.242	54.86
866.544	54.35
866.846	53.82
867.147	54.83
867.449	52.74
867.751	54.66
868.052	53.37
868.354	54.57
868.655	52.68
868.957	50.43
869.258	49.83
869.56	53.94
869.861	55.4
870.162	56.64
870.463	57.34
870.765	57.38
871.066	56.01
871.367	57.92
871.668	60.46
871.969	60.32
872.27	60.86
872.571	65.22
872.872	65.08
873.173	64.19
873.473	62.86
873.774	63.96
874.075	62.68
874.376	63.29
874.676	62.71
874.977	65.64
875.277	66.14
875.578	69.02
875.878	67.29
876.179	65.49
876.479	65.81
876.78	65.89
877.08	64.53
877.38	68.09
877.68	66.72
877.981	65.79
878.281	65.8
878.581	64.3
