Data from BA17729_Reflection_00009.txt Node
Date: Tue Nov 19 11:50:51 EST 2019
User: vgr7
Spectrometer: USB2G7710
Scans to average: 3
Trigger mode: 4
Integration Time (sec): 2.000000E-2
Electric dark correction enabled: true
Boxcar width: 10
XAxis mode: Wavelengths
Number of Pixels in Spectrum: 2048
>>>>>Begin Spectral Data<<<<<
177.721	-0.25
178.105	-17.65
178.488	-60.13
178.871	-35.29
179.254	-51.22
179.636	27.75
180.019	-12.31
180.402	1033.33
180.785	-71.83
181.168	91.63
181.55	48.08
181.933	70.97
182.316	111.24
182.698	144.81
183.081	257.25
183.463	315.3
183.846	237.16
184.228	202.63
184.611	191.45
184.993	258.14
185.376	2982.35
185.758	80.99
186.14	74.31
186.522	35.06
186.904	69.23
187.287	136.65
187.669	-36
188.051	190.91
188.433	-12.68
188.815	-235.57
189.197	-772.34
189.579	167.19
189.961	269.33
190.342	284.95
190.724	-1538.3
191.106	682.42
191.488	613.76
191.869	208.18
192.251	262.87
192.633	479.68
193.014	333.13
193.396	130.67
193.777	4.69
194.159	35.63
194.54	16.76
194.922	85.97
195.303	16.8
195.684	0.57
196.065	-0.98
196.447	1.8
196.828	-31.26
197.209	-33.39
197.59	-20.41
197.971	-43.2
198.352	-15.53
198.733	-26.26
199.114	-8.56
199.495	-20.04
199.876	-32.34
200.257	-61.36
200.638	-48.91
201.018	-45.56
201.399	-26.51
201.78	-8.89
202.16	-25.1
202.541	-39.66
202.922	-38.22
203.302	-34.04
203.683	-32.46
204.063	-38.08
204.444	-70.41
204.824	-67.46
205.204	-40.64
205.585	-55.95
205.965	-60.32
206.345	-106.39
206.725	-49.47
207.106	-30.57
207.486	-23.54
207.866	-27.82
208.246	-12.49
208.626	-14.73
209.006	-9.34
209.386	-29.26
209.766	-44.26
210.145	-26.51
210.525	-22.42
210.905	-15.59
211.285	-22.01
211.664	-11.5
212.044	-7.96
212.424	2.01
212.803	-14.94
213.183	-33.82
213.562	-28.22
213.942	-26.17
214.321	-15.98
214.701	-24.01
215.08	-40.13
215.459	-25.91
215.838	-45.62
216.218	-56.98
216.597	-34.48
216.976	-47.7
217.355	-32.28
217.734	-45.15
218.113	-55.19
218.492	-81.15
218.871	-68.6
219.25	-69.43
219.629	-116.12
220.008	-147.29
220.387	-172.99
220.766	-107.31
221.144	-95.76
221.523	-155.57
221.902	-123.6
222.28	-111.72
222.659	-79.11
223.037	-93.84
223.416	-86.38
223.794	-67.22
224.173	-77.01
224.551	-106.72
224.929	-74.49
225.308	-71.78
225.686	-53.9
226.064	-60.82
226.442	-42.24
226.821	-31.48
227.199	-25.7
227.577	-13.99
227.955	-11.55
228.333	-14.93
228.711	-13.01
229.089	-10.72
229.467	-6.86
229.845	-13.63
230.222	-11.89
230.6	-13.96
230.978	-9.13
231.356	-6.8
231.733	-3.8
232.111	-2.97
232.488	-0.56
232.866	1.28
233.243	3.3
233.621	2.47
233.998	5.17
234.376	4.42
234.753	1.28
235.13	1.25
235.508	-0.96
235.885	-0.2
236.262	0.63
236.639	2.2
237.016	1.77
237.393	2.43
237.77	5.89
238.147	4.92
238.524	6.24
238.901	4.6
239.278	3.31
239.655	2.23
240.032	3.24
240.409	2.93
240.785	2.48
241.162	2.93
241.539	3.24
241.915	3.31
242.292	3.49
242.668	4.4
243.045	4.8
243.421	4.81
243.798	4.97
244.174	5.3
244.551	5.53
244.927	6.06
245.303	6.01
245.679	6.09
246.056	6.53
246.432	6.56
246.808	7.13
247.184	7.2
247.56	7.17
247.936	7.4
248.312	7.54
248.688	7.52
249.064	7.41
249.44	7.59
249.815	7.69
250.191	7.52
250.567	7.48
250.943	7.43
251.318	7.58
251.694	7.22
252.069	7.4
252.445	7.12
252.82	7.29
253.196	7.08
253.571	6.64
253.947	6.54
254.322	6.14
254.697	5.43
255.073	5.26
255.448	5.02
255.823	4.57
256.198	4.59
256.573	5.05
256.948	5.06
257.323	5.02
257.698	5.01
258.073	5.21
258.448	5.17
258.823	4.91
259.198	5.05
259.573	5.17
259.948	5.01
260.322	4.89
260.697	4.71
261.072	4.65
261.446	4.9
261.821	4.87
262.195	5
262.57	5.13
262.944	5.29
263.319	5.53
263.693	5.62
264.067	5.74
264.442	5.42
264.816	5.35
265.19	5.38
265.564	5.08
265.938	4.81
266.313	4.78
266.687	5.06
267.061	4.84
267.435	4.96
267.809	4.99
268.183	5.09
268.556	5.01
268.93	5.36
269.304	5.26
269.678	5.33
270.051	5.3
270.425	5.24
270.799	5.01
271.172	5.01
271.546	5.01
271.919	4.74
272.293	4.85
272.666	4.98
273.04	4.86
273.413	5.08
273.787	5.2
274.16	5.17
274.533	5.07
274.906	5.24
275.279	5.26
275.653	5.45
276.026	5.61
276.399	5.57
276.772	5.58
277.145	5.47
277.518	5.36
277.891	5.49
278.263	5.77
278.636	6.07
279.009	6.13
279.382	6.04
279.755	6.16
280.127	6.12
280.5	6.09
280.872	6.13
281.245	6.05
281.617	6.14
281.99	6.13
282.362	6.16
282.735	6.07
283.107	5.91
283.479	5.95
283.852	5.86
284.224	5.83
284.596	5.73
284.968	5.73
285.34	5.78
285.713	5.74
286.085	5.45
286.457	5.34
286.829	5.21
287.201	5.2
287.572	5.18
287.944	5.31
288.316	5.31
288.688	5.6
289.06	5.65
289.431	5.79
289.803	5.94
290.175	5.97
290.546	5.89
290.918	5.91
291.289	5.72
291.661	5.93
292.032	6.01
292.403	5.99
292.775	6.1
293.146	6.11
293.517	5.95
293.889	6.06
294.26	6.21
294.631	6.28
295.002	6.4
295.373	6.47
295.744	6.42
296.115	6.44
296.486	6.25
296.857	6.17
297.228	6.02
297.599	5.98
297.97	6.07
298.34	6.24
298.711	6.24
299.082	6.41
299.452	6.17
299.823	6.24
300.194	6.29
300.564	6.28
300.935	6.46
301.305	6.58
301.676	6.67
302.046	6.63
302.416	6.79
302.787	6.89
303.157	6.81
303.527	6.99
303.897	6.92
304.267	6.96
304.637	7.22
305.008	7.49
305.378	7.5
305.748	7.48
306.117	7.38
306.487	7.5
306.857	7.43
307.227	7.7
307.597	7.83
307.967	7.98
308.336	8.2
308.706	8.05
309.076	8.22
309.445	8.3
309.815	8.31
310.184	8.19
310.554	8.13
310.923	8.24
311.293	8.06
311.662	8.18
312.031	8.13
312.401	8.06
312.77	8
313.139	8.09
313.508	7.98
313.877	7.99
314.246	7.94
314.616	8.02
314.985	7.98
315.353	7.84
315.722	7.78
316.091	7.58
316.46	7.62
316.829	7.37
317.198	7.38
317.567	7.63
317.935	7.72
318.304	7.83
318.672	7.95
319.041	8.17
319.41	8.16
319.778	8.27
320.147	8.33
320.515	8.23
320.883	8.06
321.252	8.42
321.62	8.56
321.988	8.81
322.357	8.7
322.725	8.85
323.093	8.88
323.461	8.9
323.829	8.98
324.197	9
324.565	9.28
324.933	9.27
325.301	9.06
325.669	9.06
326.037	9.06
326.405	9.1
326.772	9.14
327.14	9.04
327.508	9.1
327.875	9.1
328.243	9.13
328.61	9.21
328.978	9.2
329.346	9.23
329.713	9.33
330.08	9.49
330.448	9.45
330.815	9.45
331.182	9.43
331.55	9.45
331.917	9.4
332.284	9.36
332.651	9.45
333.018	9.49
333.385	9.6
333.752	9.47
334.119	9.4
334.486	9.35
334.853	9.48
335.22	9.34
335.587	9.42
335.954	9.52
336.32	9.49
336.687	9.33
337.054	9.31
337.42	9.19
337.787	9.17
338.153	9.11
338.52	9.23
338.886	9.26
339.253	9.22
339.619	9.32
339.986	9.23
340.352	9.19
340.718	9.19
341.084	9.14
341.451	9.25
341.817	9.25
342.183	9.29
342.549	9.37
342.915	9.5
343.281	9.43
343.647	9.42
344.013	9.38
344.379	9.46
344.745	9.38
345.11	9.32
345.476	9.29
345.842	9.46
346.208	9.5
346.573	9.49
346.939	9.61
347.304	9.62
347.67	9.68
348.035	9.65
348.401	9.84
348.766	9.68
349.132	9.67
349.497	9.74
349.862	9.61
350.228	9.58
350.593	9.5
350.958	9.5
351.323	9.49
351.688	9.58
352.053	9.52
352.418	9.56
352.783	9.49
353.148	9.59
353.513	9.32
353.878	9.28
354.243	9.24
354.608	9.28
354.972	9.26
355.337	9.23
355.702	9.21
356.066	9.01
356.431	9.15
356.795	9.13
357.16	9.06
357.524	9.12
357.889	9.17
358.253	9.11
358.618	9.1
358.982	9.14
359.346	9.18
359.71	9.24
360.075	9.26
360.439	9.38
360.803	9.3
361.167	9.4
361.531	9.45
361.895	9.38
362.259	9.3
362.623	9.26
362.987	9.21
363.351	9.19
363.714	9.29
364.078	9.31
364.442	9.34
364.806	9.27
365.169	9.22
365.533	9.11
365.896	9.22
366.26	9.2
366.623	9.16
366.987	9.13
367.35	9.1
367.714	9.11
368.077	8.97
368.44	8.91
368.803	8.87
369.167	8.72
369.53	8.81
369.893	8.87
370.256	8.83
370.619	8.84
370.982	8.76
371.345	8.66
371.708	8.59
372.071	8.51
372.434	8.59
372.797	8.59
373.159	8.48
373.522	8.38
373.885	8.38
374.247	8.27
374.61	8.17
374.973	8.16
375.335	8.13
375.698	8.16
376.06	8.09
376.423	7.99
376.785	8
377.147	7.96
377.51	7.79
377.872	7.82
378.234	7.74
378.596	7.77
378.958	7.81
379.321	7.72
379.683	7.67
380.045	7.54
380.407	7.55
380.769	7.63
381.13	7.62
381.492	7.55
381.854	7.57
382.216	7.56
382.578	7.61
382.939	7.56
383.301	7.52
383.663	7.6
384.024	7.61
384.386	7.6
384.747	7.54
385.109	7.6
385.47	7.55
385.832	7.55
386.193	7.52
386.554	7.44
386.916	7.42
387.277	7.37
387.638	7.41
387.999	7.39
388.36	7.34
388.721	7.35
389.082	7.39
389.443	7.37
389.804	7.36
390.165	7.26
390.526	7.24
390.887	7.21
391.248	7.15
391.609	7.16
391.969	7.11
392.33	7.07
392.691	7.01
393.051	6.98
393.412	6.96
393.772	6.96
394.133	6.95
394.493	6.89
394.854	6.9
395.214	6.84
395.574	6.79
395.935	6.71
396.295	6.65
396.655	6.57
397.015	6.55
397.376	6.48
397.736	6.44
398.096	6.42
398.456	6.38
398.816	6.35
399.176	6.3
399.535	6.22
399.895	6.2
400.255	6.18
400.615	6.14
400.975	6.11
401.334	6.07
401.694	6.03
402.054	5.97
402.413	5.98
402.773	6.01
403.132	5.96
403.492	5.99
403.851	5.94
404.211	5.91
404.57	5.87
404.929	5.88
405.288	5.85
405.648	5.86
406.007	5.85
406.366	5.84
406.725	5.8
407.084	5.84
407.443	5.85
407.802	5.85
408.161	5.85
408.52	5.84
408.879	5.86
409.238	5.86
409.596	5.91
409.955	5.88
410.314	5.86
410.673	5.89
411.031	5.89
411.39	5.97
411.748	5.94
412.107	5.91
412.465	5.91
412.824	5.9
413.182	5.88
413.54	5.91
413.899	5.91
414.257	5.91
414.615	5.88
414.974	5.88
415.332	5.88
415.69	5.84
416.048	5.81
416.406	5.77
416.764	5.75
417.122	5.72
417.48	5.71
417.838	5.69
418.195	5.66
418.553	5.63
418.911	5.57
419.269	5.57
419.626	5.54
419.984	5.51
420.342	5.49
420.699	5.45
421.057	5.41
421.414	5.39
421.772	5.38
422.129	5.37
422.486	5.37
422.844	5.33
423.201	5.34
423.558	5.35
423.915	5.33
424.273	5.31
424.63	5.32
424.987	5.31
425.344	5.28
425.701	5.27
426.058	5.27
426.415	5.26
426.772	5.23
427.128	5.25
427.485	5.27
427.842	5.27
428.199	5.29
428.555	5.29
428.912	5.28
429.269	5.28
429.625	5.29
429.982	5.25
430.338	5.27
430.695	5.24
431.051	5.23
431.407	5.23
431.764	5.21
432.12	5.2
432.476	5.19
432.832	5.22
433.189	5.22
433.545	5.21
433.901	5.23
434.257	5.26
434.613	5.23
434.969	5.21
435.325	5.19
435.681	5.18
436.036	5.18
436.392	5.19
436.748	5.19
437.104	5.15
437.459	5.16
437.815	5.15
438.171	5.17
438.526	5.17
438.882	5.15
439.237	5.17
439.593	5.17
439.948	5.17
440.304	5.17
440.659	5.16
441.014	5.17
441.369	5.19
441.725	5.16
442.08	5.18
442.435	5.17
442.79	5.17
443.145	5.15
443.5	5.13
443.855	5.13
444.21	5.11
444.565	5.11
444.92	5.12
445.275	5.11
445.629	5.08
445.984	5.07
446.339	5.1
446.693	5.08
447.048	5.06
447.403	5.06
447.757	5.02
448.112	5.03
448.466	5
448.82	4.97
449.175	4.98
449.529	4.98
449.883	4.97
450.238	4.96
450.592	4.96
450.946	4.95
451.3	4.95
451.654	4.95
452.008	4.96
452.362	4.95
452.716	4.93
453.07	4.94
453.424	4.93
453.778	4.9
454.132	4.92
454.486	4.95
454.839	4.96
455.193	4.96
455.547	4.94
455.9	4.98
456.254	4.99
456.607	5
456.961	4.97
457.314	4.99
457.668	5.01
458.021	5.01
458.375	5
458.728	5.02
459.081	5.01
459.434	5.01
459.787	5.02
460.141	5.05
460.494	5.07
460.847	5.07
461.2	5.07
461.553	5.08
461.906	5.09
462.259	5.06
462.611	5.1
462.964	5.11
463.317	5.09
463.67	5.12
464.022	5.12
464.375	5.13
464.728	5.16
465.08	5.16
465.433	5.18
465.785	5.19
466.138	5.19
466.49	5.25
466.843	5.26
467.195	5.27
467.547	5.27
467.899	5.27
468.252	5.28
468.604	5.33
468.956	5.34
469.308	5.34
469.66	5.38
470.012	5.37
470.364	5.38
470.716	5.4
471.068	5.39
471.42	5.41
471.772	5.41
472.123	5.39
472.475	5.39
472.827	5.36
473.178	5.37
473.53	5.37
473.882	5.34
474.233	5.32
474.585	5.29
474.936	5.27
475.288	5.26
475.639	5.27
475.99	5.22
476.342	5.23
476.693	5.23
477.044	5.23
477.395	5.24
477.746	5.21
478.097	5.2
478.448	5.16
478.8	5.13
479.15	5.12
479.501	5.11
479.852	5.11
480.203	5.12
480.554	5.14
480.905	5.14
481.255	5.13
481.606	5.13
481.957	5.14
482.307	5.16
482.658	5.16
483.009	5.16
483.359	5.17
483.709	5.16
484.06	5.15
484.41	5.15
484.761	5.16
485.111	5.17
485.461	5.17
485.811	5.19
486.162	5.21
486.512	5.23
486.862	5.25
487.212	5.27
487.562	5.28
487.912	5.27
488.262	5.29
488.612	5.31
488.961	5.33
489.311	5.34
489.661	5.34
490.011	5.35
490.36	5.36
490.71	5.36
491.06	5.37
491.409	5.4
491.759	5.42
492.108	5.43
492.458	5.45
492.807	5.46
493.157	5.47
493.506	5.48
493.855	5.5
494.204	5.51
494.554	5.51
494.903	5.55
495.252	5.6
495.601	5.63
495.95	5.65
496.299	5.69
496.648	5.71
496.997	5.74
497.346	5.77
497.695	5.8
498.043	5.86
498.392	5.9
498.741	5.92
499.09	5.95
499.438	6.01
499.787	6.06
500.135	6.11
500.484	6.12
500.832	6.18
501.181	6.21
501.529	6.26
501.878	6.3
502.226	6.34
502.574	6.38
502.923	6.41
503.271	6.47
503.619	6.53
503.967	6.56
504.315	6.59
504.663	6.67
505.011	6.72
505.359	6.73
505.707	6.79
506.055	6.84
506.403	6.87
506.751	6.9
507.098	6.97
507.446	7.02
507.794	7.08
508.141	7.12
508.489	7.2
508.837	7.24
509.184	7.31
509.531	7.35
509.879	7.39
510.226	7.44
510.574	7.5
510.921	7.54
511.268	7.62
511.616	7.66
511.963	7.69
512.31	7.75
512.657	7.83
513.004	7.88
513.351	7.96
513.698	8.01
514.045	8.08
514.392	8.13
514.739	8.21
515.086	8.29
515.432	8.35
515.779	8.4
516.126	8.48
516.473	8.51
516.819	8.56
517.166	8.64
517.512	8.66
517.859	8.72
518.205	8.77
518.552	8.8
518.898	8.87
519.245	8.95
519.591	9.02
519.937	9.06
520.283	9.11
520.629	9.16
520.976	9.24
521.322	9.3
521.668	9.39
522.014	9.42
522.36	9.49
522.706	9.59
523.052	9.69
523.398	9.78
523.743	9.91
524.089	10.04
524.435	10.12
524.781	10.22
525.126	10.31
525.472	10.41
525.817	10.49
526.163	10.56
526.509	10.62
526.854	10.7
527.199	10.78
527.545	10.84
527.89	10.91
528.235	10.99
528.581	11.07
528.926	11.15
529.271	11.23
529.616	11.32
529.961	11.39
530.306	11.46
530.651	11.54
530.996	11.61
531.341	11.68
531.686	11.77
532.031	11.9
532.376	12
532.721	12.11
533.065	12.25
533.41	12.37
533.755	12.5
534.099	12.61
534.444	12.74
534.788	12.86
535.133	13
535.477	13.11
535.822	13.26
536.166	13.39
536.51	13.58
536.855	13.73
537.199	13.9
537.543	14.09
537.887	14.29
538.231	14.5
538.576	14.69
538.92	14.93
539.264	15.12
539.608	15.27
539.951	15.44
540.295	15.57
540.639	15.73
540.983	15.91
541.327	16.07
541.671	16.23
542.014	16.42
542.358	16.56
542.701	16.72
543.045	16.88
543.389	17.06
543.732	17.22
544.075	17.39
544.419	17.55
544.762	17.74
545.105	17.9
545.449	18.09
545.792	18.31
546.135	18.5
546.478	18.71
546.821	19
547.165	19.22
547.508	19.49
547.851	19.75
548.194	19.98
548.536	20.2
548.879	20.46
549.222	20.72
549.565	21.02
549.908	21.31
550.25	21.58
550.593	21.83
550.936	22.1
551.278	22.38
551.621	22.71
551.963	23.03
552.306	23.36
552.648	23.63
552.991	23.9
553.333	24.12
553.675	24.35
554.017	24.56
554.36	24.82
554.702	25.09
555.044	25.36
555.386	25.64
555.728	25.94
556.07	26.22
556.412	26.44
556.754	26.68
557.096	26.96
557.438	27.26
557.78	27.5
558.121	27.78
558.463	28.12
558.805	28.39
559.147	28.63
559.488	28.89
559.83	29.18
560.171	29.5
560.513	29.84
560.854	30.1
561.196	30.45
561.537	30.77
561.878	31.03
562.22	31.29
562.561	31.55
562.902	31.77
563.243	32.01
563.584	32.29
563.925	32.59
564.266	32.79
564.607	33.06
564.948	33.35
565.289	33.61
565.63	33.81
565.971	34.03
566.312	34.27
566.653	34.51
566.993	34.73
567.334	34.96
567.675	35.16
568.015	35.42
568.356	35.64
568.696	35.9
569.037	36.14
569.377	36.4
569.718	36.6
570.058	36.86
570.398	37.05
570.739	37.29
571.079	37.5
571.419	37.75
571.759	37.93
572.099	38.1
572.439	38.32
572.779	38.47
573.119	38.69
573.459	38.87
573.799	39.04
574.139	39.24
574.479	39.39
574.819	39.59
575.158	39.85
575.498	39.97
575.838	40.13
576.177	40.26
576.517	40.38
576.856	40.55
577.196	40.76
577.535	40.98
577.875	41.16
578.214	41.43
578.553	41.62
578.893	41.76
579.232	41.96
579.571	42.06
579.91	42.31
580.25	42.42
580.589	42.58
580.928	42.7
581.267	42.89
581.606	43.12
581.945	43.24
582.283	43.32
582.622	43.51
582.961	43.6
583.3	43.76
583.639	43.98
583.977	44.16
584.316	44.27
584.654	44.41
584.993	44.58
585.332	44.59
585.67	44.7
586.008	44.83
586.347	44.94
586.685	45.06
587.024	45.17
587.362	45.3
587.7	45.5
588.038	45.7
588.376	45.85
588.715	45.92
589.053	45.96
589.391	46.02
589.729	46.09
590.067	46.27
590.404	46.36
590.742	46.46
591.08	46.55
591.418	46.7
591.756	46.74
592.093	46.8
592.431	46.92
592.769	47.02
593.106	47.15
593.444	47.3
593.781	47.39
594.119	47.53
594.456	47.65
594.793	47.69
595.131	47.74
595.468	47.71
595.805	47.74
596.143	47.86
596.48	47.98
596.817	48.12
597.154	48.18
597.491	48.25
597.828	48.27
598.165	48.37
598.502	48.33
598.839	48.44
599.176	48.56
599.512	48.64
599.849	48.77
600.186	48.9
600.523	48.97
600.859	49.05
601.196	49.13
601.532	49.12
601.869	49.18
602.205	49.28
602.542	49.37
602.878	49.47
603.215	49.49
603.551	49.54
603.887	49.59
604.223	49.61
604.56	49.7
604.896	49.79
605.232	49.83
605.568	49.86
605.904	49.83
606.24	49.81
606.576	49.85
606.912	49.88
607.248	49.9
607.583	49.9
607.919	49.92
608.255	49.96
608.591	50.13
608.926	50.15
609.262	50.17
609.597	50.27
609.933	50.37
610.268	50.48
610.604	50.48
610.939	50.48
611.275	50.54
611.61	50.49
611.945	50.59
612.281	50.64
612.616	50.77
612.951	50.91
613.286	51.06
613.621	51.05
613.956	51
614.291	51.06
614.626	51.15
614.961	51.27
615.296	51.22
615.631	51.26
615.966	51.35
616.3	51.45
616.635	51.45
616.97	51.48
617.304	51.45
617.639	51.55
617.973	51.53
618.308	51.54
618.642	51.69
618.977	51.63
619.311	51.7
619.646	51.79
619.98	51.84
620.314	51.84
620.648	52.03
620.983	52.17
621.317	52.19
621.651	52.36
621.985	52.37
622.319	52.48
622.653	52.51
622.987	52.49
623.321	52.55
623.655	52.69
623.988	52.73
624.322	52.96
624.656	52.9
624.99	52.98
625.323	53.11
625.657	53.22
625.99	53.29
626.324	53.23
626.657	53.28
626.991	53.29
627.324	53.25
627.658	53.26
627.991	53.27
628.324	53.33
628.657	53.3
628.991	53.4
629.324	53.58
629.657	53.59
629.99	53.68
630.323	53.6
630.656	53.56
630.989	53.57
631.322	53.48
631.655	53.6
631.987	53.64
632.32	53.5
632.653	53.45
632.986	53.53
633.318	53.61
633.651	53.53
633.984	53.59
634.316	53.68
634.649	53.65
634.981	53.62
635.313	53.76
635.646	53.7
635.978	53.65
636.31	53.55
636.643	53.59
636.975	53.59
637.307	53.73
637.639	53.77
637.971	53.62
638.303	53.57
638.635	53.61
638.967	53.73
639.299	53.92
639.631	53.99
639.963	54.04
640.295	54.15
640.626	54.25
640.958	54.25
641.29	54.25
641.621	54.22
641.953	54.32
642.285	54.19
642.616	54.17
642.948	54.21
643.279	54.24
643.61	54.18
643.942	54.23
644.273	54.19
644.604	54.17
644.936	54.44
645.267	54.59
645.598	54.43
645.929	54.41
646.26	54.4
646.591	54.38
646.922	54.25
647.253	54.14
647.584	54.16
647.915	54.22
648.245	54.25
648.576	54.26
648.907	54.26
649.238	54.22
649.568	54.37
649.899	54.37
650.229	54.35
650.56	54.34
650.89	54.31
651.221	54.36
651.551	54.35
651.882	54.31
652.212	54.2
652.542	54.54
652.872	54.45
653.203	54.42
653.533	54.52
653.863	54.58
654.193	54.72
654.523	54.77
654.853	54.76
655.183	54.75
655.513	54.8
655.843	54.78
656.172	55
656.502	55.02
656.832	55.07
657.162	55.12
657.491	55.09
657.821	55.13
658.15	55.13
658.48	55.05
658.809	55
659.139	55.1
659.468	55.03
659.798	55.09
660.127	55.13
660.456	54.86
660.785	54.87
661.115	54.88
661.444	54.84
661.773	54.86
662.102	54.87
662.431	55.03
662.76	55.13
663.089	54.93
663.418	54.7
663.747	54.74
664.076	54.62
664.404	54.86
664.733	54.82
665.062	54.91
665.39	55.09
665.719	55.17
666.048	55.16
666.376	55.11
666.705	55.08
667.033	55.08
667.362	55.27
667.69	55.48
668.018	55.43
668.347	55.49
668.675	55.47
669.003	55.43
669.331	55.22
669.659	55.15
669.987	55.21
670.315	55.37
670.643	55.41
670.971	55.5
671.299	55.49
671.627	55.64
671.955	55.54
672.283	55.4
672.61	55.45
672.938	55.41
673.266	55.47
673.593	55.5
673.921	55.5
674.249	55.54
674.576	55.35
674.904	55.37
675.231	55.44
675.558	55.59
675.886	55.77
676.213	55.95
676.54	55.99
676.867	55.95
677.195	56.08
677.522	56.01
677.849	56.03
678.176	55.97
678.503	55.85
678.83	55.79
679.157	55.99
679.484	55.86
679.81	55.84
680.137	55.74
680.464	55.78
680.791	55.82
681.117	55.84
681.444	55.88
681.771	55.95
682.097	56.05
682.424	56
682.75	55.9
683.077	55.86
683.403	55.86
683.729	56.01
684.056	55.89
684.382	55.89
684.708	55.93
685.034	55.96
685.36	56.06
685.686	56.09
686.012	56.04
686.339	56.15
686.664	56.39
686.99	56.34
687.316	56.38
687.642	56.5
687.968	56.54
688.294	56.47
688.619	56.28
688.945	56.19
689.271	56.16
689.596	56.16
689.922	56.09
690.247	55.96
690.573	55.86
690.898	56.05
691.224	56.14
691.549	56.22
691.874	56.11
692.2	56.04
692.525	56.23
692.85	56.23
693.175	56.31
693.5	56.06
693.825	56.03
694.15	56.02
694.475	55.8
694.8	55.9
695.125	55.91
695.45	55.96
695.775	55.83
696.099	55.81
696.424	55.9
696.749	56.17
697.073	56.28
697.398	56.28
697.723	56.3
698.047	56.32
698.372	56.23
698.696	56.23
699.02	56.27
699.345	56.26
699.669	56.4
699.993	56.38
700.318	56.5
700.642	56.69
700.966	56.83
701.29	56.88
701.614	56.84
701.938	57
702.262	57.27
702.586	57.49
702.91	57.61
703.234	57.69
703.557	57.46
703.881	57.49
704.205	57.44
704.529	57.23
704.852	57.03
705.176	57.11
705.499	57.26
705.823	57.27
706.146	57.17
706.47	57.09
706.793	56.92
707.117	56.93
707.44	56.91
707.763	56.77
708.086	56.82
708.409	56.67
708.733	56.66
709.056	56.38
709.379	56.24
709.702	56.25
710.025	56.26
710.348	56.06
710.671	56.06
710.993	56.21
711.316	56.3
711.639	56.52
711.962	56.63
712.284	56.58
712.607	56.57
712.93	56.67
713.252	56.73
713.575	56.76
713.897	56.76
714.22	56.88
714.542	56.9
714.864	56.87
715.187	56.97
715.509	57.01
715.831	57.12
716.153	57.23
716.475	57.13
716.798	57.08
717.12	57.19
717.442	57.4
717.764	57.33
718.085	57.52
718.407	57.47
718.729	57.43
719.051	57.47
719.373	57.51
719.695	57.42
720.016	57.33
720.338	57.62
720.659	57.76
720.981	57.52
721.302	57.45
721.624	57.74
721.945	57.78
722.267	57.62
722.588	57.74
722.909	57.72
723.231	57.69
723.552	57.72
723.873	57.8
724.194	57.49
724.515	57.48
724.836	57.11
725.157	57.03
725.478	56.65
725.799	56.66
726.12	56.62
726.441	56.8
726.762	56.94
727.083	56.83
727.403	56.81
727.724	57.01
728.045	57.28
728.365	56.72
728.686	56.93
729.006	56.98
729.327	56.84
729.647	56.98
729.967	56.97
730.288	56.85
730.608	57.05
730.928	57.12
731.249	57.15
731.569	57.39
731.889	57.51
732.209	57.94
732.529	57.89
732.849	58.02
733.169	57.92
733.489	57.77
733.809	57.55
734.129	57.29
734.448	57.2
734.768	56.85
735.088	57.31
735.408	56.99
735.727	57.18
736.047	57.29
736.366	57.04
736.686	57.09
737.005	57.27
737.325	57.24
737.644	57.34
737.963	57.35
738.283	57.15
738.602	57.07
738.921	56.91
739.24	57.13
739.56	57.18
739.879	57.03
740.198	56.8
740.517	57.11
740.836	57.2
741.155	56.84
741.473	56.86
741.792	56.85
742.111	56.75
742.43	56.54
742.748	56.48
743.067	56.48
743.386	56.54
743.704	56.29
744.023	56.17
744.341	56.1
744.66	56.12
744.978	56.55
745.297	56.8
745.615	56.5
745.933	56.03
746.252	55.94
746.57	56.56
746.888	57.1
747.206	56.9
747.524	56.79
747.842	57.03
748.16	57.52
748.478	57.12
748.796	57.47
749.114	57.59
749.432	57.56
749.749	57.83
750.067	57.7
750.385	58.25
750.703	58.23
751.02	58.19
751.338	58.25
751.655	58.06
751.973	58.13
752.29	58.54
752.608	58.76
752.925	58.55
753.242	57.93
753.56	57.44
753.877	57.73
754.194	58.11
754.511	57.97
754.828	57.66
755.145	57.67
755.462	57.79
755.779	57.75
756.096	57.63
756.413	57.13
756.73	57.5
757.047	57.01
757.364	57.08
757.68	57.22
757.997	57.26
758.314	57.26
758.63	56.98
758.947	56.65
759.264	56.86
759.58	57
759.896	57.23
760.213	57.39
760.529	57.31
760.846	57.24
761.162	57.31
761.478	57.43
761.794	57.59
762.11	57.73
762.426	57.6
762.743	57.41
763.059	57.59
763.375	57.39
763.69	57.56
764.006	57.64
764.322	57.52
764.638	57.55
764.954	57.45
765.27	57.23
765.585	57.47
765.901	57.43
766.216	57.44
766.532	57.22
766.848	57.37
767.163	57.28
767.478	57.11
767.794	57.16
768.109	57.07
768.424	57.14
768.74	56.96
769.055	57.25
769.37	57.7
769.685	57.63
770	57.99
770.315	57.69
770.63	57.78
770.945	58.25
771.26	58.38
771.575	57.9
771.89	58.31
772.205	58.19
772.52	57.95
772.834	58.23
773.149	58.6
773.464	58.53
773.778	58.35
774.093	58.36
774.407	58.73
774.722	59.17
775.036	59.17
775.351	59.02
775.665	58.77
775.979	58.5
776.293	58.61
776.608	58.43
776.922	58.88
777.236	58.71
777.55	58.83
777.864	58.82
778.178	59.18
778.492	59.26
778.806	59.33
779.12	60.1
779.434	59.17
779.747	59.26
780.061	58.81
780.375	59.15
780.689	59.65
781.002	59.58
781.316	59.16
781.629	59.28
781.943	59.54
782.256	60.08
782.57	60.13
782.883	60.14
783.196	59.84
783.51	59.43
783.823	59.51
784.136	59.32
784.449	58.94
784.762	59.17
785.075	59.03
785.388	59.39
785.701	59.48
786.014	60.06
786.327	60.01
786.64	60.67
786.953	60.56
787.266	59.86
787.578	59.85
787.891	59.86
788.204	59.85
788.516	59.47
788.829	58.87
789.141	58.63
789.454	58.65
789.766	59.04
790.079	58.95
790.391	59.23
790.703	58.78
791.016	59.06
791.328	59.26
791.64	59.24
791.952	59.14
792.264	58.24
792.576	58.35
792.888	58.12
793.2	58.23
793.512	57.99
793.824	58.46
794.136	58.14
794.448	57.67
794.76	57.39
795.071	57.51
795.383	57.76
795.695	58.04
796.006	58.21
796.318	57.92
796.629	58.32
796.941	58.43
797.252	58.27
797.564	58.02
797.875	57.83
798.186	58.33
798.497	58.38
798.809	58.3
799.12	58.28
799.431	58.68
799.742	58.5
800.053	58.53
800.364	58.88
800.675	59.3
800.986	59.87
801.297	60.39
801.608	60.64
801.918	60.59
802.229	60.23
802.54	60.12
802.851	60.2
803.161	59.67
803.472	59.21
803.782	60
804.093	60.01
804.403	59.91
804.714	60.13
805.024	60.47
805.334	61.4
805.645	61.73
805.955	61.29
806.265	61.67
806.575	61.84
806.885	60.92
807.195	61.04
807.505	60.87
807.815	61.01
808.125	61.07
808.435	61.11
808.745	61.99
809.055	62.47
809.365	61.82
809.674	62
809.984	61.92
810.294	61.98
810.603	62.24
810.913	62.71
811.222	61.81
811.532	60.99
811.841	60.51
812.151	60.39
812.46	59.73
812.769	59
813.079	58.32
813.388	59.1
813.697	58.52
814.006	58.72
814.315	58.29
814.624	57.87
814.933	57.46
815.242	57.31
815.551	56.64
815.86	57.73
816.169	57.66
816.478	57.68
816.786	57.34
817.095	57.19
817.404	56.67
817.712	56.69
818.021	57.07
818.33	56.64
818.638	56.88
818.947	56.82
819.255	56.75
819.563	57.48
819.872	57.6
820.18	57.81
820.488	57.54
820.796	57.51
821.105	57.38
821.413	57.56
821.721	57.56
822.029	57.8
822.337	57.7
822.645	57.71
822.953	57.78
823.26	57.76
823.568	57.82
823.876	57.99
824.184	58.22
824.491	58.03
824.799	58.21
825.107	58.22
825.414	58.45
825.722	58.6
826.029	58.52
826.337	58.61
826.644	58.69
826.951	58.99
827.259	58.94
827.566	59.16
827.873	59.35
828.18	59.36
828.488	59.32
828.795	59.51
829.102	59.78
829.409	60.03
829.716	60.13
830.023	60.35
830.329	60.28
830.636	60.41
830.943	60.72
831.25	60.76
831.557	61.06
831.863	61.1
832.17	61.18
832.476	61.21
832.783	61.11
833.089	60.8
833.396	60.94
833.702	60.92
834.009	60.65
834.315	60.39
834.621	60.41
834.928	60.56
835.234	60.59
835.54	60.36
835.846	60.79
836.152	60.55
836.458	60.21
836.764	59.79
837.07	59.56
837.376	59.43
837.682	59.39
837.988	58.71
838.293	59.13
838.599	59.28
838.905	59.46
839.211	58.71
839.516	58.94
839.822	58.36
840.127	58.21
840.433	58.61
840.738	58.5
841.044	58.72
841.349	59.49
841.654	59.49
841.959	60.3
842.265	59.02
842.57	59.45
842.875	59.7
843.18	60.62
843.485	59.98
843.79	61.7
844.095	62.44
844.4	63.67
844.705	62.36
845.01	61.88
845.315	63.12
845.619	65.35
845.924	65.62
846.229	65.53
846.533	65.74
846.838	67.58
847.142	68.53
847.447	69.14
847.751	67
848.056	65.48
848.36	64.6
848.664	66.3
848.969	65.95
849.273	65.81
849.577	65.83
849.881	68.3
850.185	67.12
850.489	64.96
850.794	63.61
851.097	66.45
851.401	64.22
851.705	61.51
852.009	60.05
852.313	58.66
852.617	59.91
852.92	63.53
853.224	60.14
853.528	58.7
853.831	58.83
854.135	63.27
854.438	65.22
854.742	64.58
855.045	64.34
855.349	65.93
855.652	67.85
855.955	66.83
856.259	66.68
856.562	64.13
856.865	66.3
857.168	67.66
857.471	66.03
857.774	67.47
858.077	67.17
858.38	67.61
858.683	70.55
858.986	69.06
859.289	67.22
859.592	66.21
859.894	65.93
860.197	63.46
860.5	61.85
860.802	59.49
861.105	59.23
861.407	56.61
861.71	55.27
862.012	55.42
862.315	57.21
862.617	54.01
862.919	56.34
863.222	55.58
863.524	54.6
863.826	53.86
864.128	55.46
864.43	56.83
864.732	55.24
865.034	55.97
865.336	56.83
865.638	54.9
865.94	57.34
866.242	55.64
866.544	58.14
866.846	56.9
867.147	60.38
867.449	63.65
867.751	64.28
868.052	64.73
868.354	61.31
868.655	64.91
868.957	65.44
869.258	63.77
869.56	63.27
869.861	64.43
870.162	63.86
870.463	64.82
870.765	63.9
871.066	67.68
871.367	67.37
871.668	66.08
871.969	67.85
872.27	69.71
872.571	73.9
872.872	73.01
873.173	71.02
873.473	66.94
873.774	65.79
874.075	67.79
874.376	65.07
874.676	67.28
874.977	63.03
875.277	62.02
875.578	63.49
875.878	64.41
876.179	63.04
876.479	64.55
876.78	62.59
877.08	64.29
877.38	61.31
877.68	59.28
877.981	59.99
878.281	60.81
878.581	57.61
