Data from BA17718_Reflection_00011.txt Node
Date: Tue Nov 19 11:47:49 EST 2019
User: vgr7
Spectrometer: USB2G7710
Scans to average: 3
Trigger mode: 4
Integration Time (sec): 2.000000E-2
Electric dark correction enabled: true
Boxcar width: 10
XAxis mode: Wavelengths
Number of Pixels in Spectrum: 2048
>>>>>Begin Spectral Data<<<<<
177.721	-9.52
178.105	-9.49
178.488	-43.43
178.871	-88.5
179.254	-117.5
179.636	652.63
180.019	-2.52
180.402	-3.85
180.785	-28.18
181.168	44.59
181.55	68.95
181.933	59.12
182.316	123.27
182.698	86.17
183.081	88.97
183.463	77.23
183.846	80.62
184.228	89.44
184.611	160.58
184.993	529.55
185.376	-1170.41
185.758	-501.24
186.14	-1831.25
186.522	-863.07
186.904	-1346.43
187.287	1897.17
187.669	-9125
188.051	-4229.55
188.433	1139.16
188.815	-3194.64
189.197	-977.13
189.579	-269.53
189.961	-172.21
190.342	-75.53
190.724	-85.73
191.106	-81.11
191.488	-67.99
191.869	-55.14
192.251	-44.37
192.633	-22.17
193.014	-19.48
193.396	-34.97
193.777	-39.78
194.159	-19.02
194.54	4.39
194.922	22.41
195.303	55.11
195.684	53.21
196.065	76.87
196.447	67.27
196.828	52.61
197.209	55.04
197.59	38.76
197.971	26.14
198.352	14.84
198.733	14.06
199.114	17.38
199.495	19.05
199.876	-3.52
200.257	-14.92
200.638	-25.89
201.018	-40.67
201.399	-16.7
201.78	-21.17
202.16	-29.07
202.541	-47.4
202.922	-51.1
203.302	-60.52
203.683	-74.08
204.063	-93.61
204.444	-97.06
204.824	-117.82
205.204	-116.13
205.585	-129.67
205.965	-189.59
206.345	-161.77
206.725	-162.76
207.106	-157.56
207.486	-155.34
207.866	-144.22
208.246	-177.71
208.626	-382.58
209.006	-287.61
209.386	-285.78
209.766	-609.62
210.145	-215.25
210.525	-240.14
210.905	-259.72
211.285	-226.52
211.664	-149.38
212.044	-126.16
212.424	-127.55
212.803	-205.64
213.183	-266.96
213.562	-367.14
213.942	-166.62
214.321	-198.71
214.701	-186.82
215.08	-253.86
215.459	-175.47
215.838	-135.75
216.218	-180.48
216.597	-98.95
216.976	-100.76
217.355	-123.64
217.734	-123.64
218.113	-109.95
218.492	-88.59
218.871	-90.8
219.25	-90.93
219.629	-118.01
220.008	-123.49
220.387	-145.93
220.766	-80.53
221.144	-68.94
221.523	-77.6
221.902	-54.16
222.28	-35.31
222.659	-13.93
223.037	-6.67
223.416	-16.06
223.794	-6.14
224.173	-7.05
224.551	-20.15
224.929	-23.35
225.308	-20.13
225.686	-20.34
226.064	-23.55
226.442	-16.58
226.821	-11.02
227.199	-7.66
227.577	-3.25
227.955	-1.59
228.333	-3.44
228.711	-0.56
229.089	-0.23
229.467	1.76
229.845	-6.05
230.222	-2.69
230.6	-5.61
230.978	-4.42
231.356	-4.67
231.733	-4.34
232.111	-2.83
232.488	-0.15
232.866	4.08
233.243	3.83
233.621	3.18
233.998	3.72
234.376	3.21
234.753	-2.09
235.13	-5.39
235.508	-6.41
235.885	-4.55
236.262	-5.49
236.639	-7.54
237.016	-6.44
237.393	-5.98
237.77	-3.98
238.147	-3.65
238.524	-1.39
238.901	-1.36
239.278	-0.9
239.655	-0.94
240.032	-0.35
240.409	0.32
240.785	-0.03
241.162	1.37
241.539	1.77
241.915	1.88
242.292	1.97
242.668	3.18
243.045	4.41
243.421	4.66
243.798	4.85
244.174	5.55
244.551	6.06
244.927	5.9
245.303	5.92
245.679	5.98
246.056	5.88
246.432	5.77
246.808	5.84
247.184	6.17
247.56	5.95
247.936	5.99
248.312	5.87
248.688	5.79
249.064	5.4
249.44	5.23
249.815	5.29
250.191	5.48
250.567	5.29
250.943	4.83
251.318	4.82
251.694	4.47
252.069	4.17
252.445	3.8
252.82	3.78
253.196	3.64
253.571	3.87
253.947	3.68
254.322	3.48
254.697	3.33
255.073	3.26
255.448	3.76
255.823	4.09
256.198	4.29
256.573	4.57
256.948	4.78
257.323	5
257.698	5.13
258.073	4.89
258.448	4.96
258.823	5.13
259.198	5.03
259.573	4.86
259.948	4.97
260.322	5.05
260.697	5.22
261.072	5.4
261.446	5.3
261.821	5.46
262.195	5.49
262.57	5.44
262.944	5.31
263.319	5.33
263.693	5.22
264.067	4.97
264.442	4.87
264.816	4.79
265.19	4.81
265.564	4.67
265.938	4.78
266.313	4.73
266.687	4.45
267.061	4.6
267.435	5.05
267.809	4.74
268.183	4.86
268.556	4.71
268.93	4.6
269.304	4.33
269.678	4.21
270.051	4.11
270.425	4.38
270.799	4.18
271.172	4.28
271.546	4.27
271.919	4.33
272.293	4.41
272.666	4.37
273.04	4.48
273.413	4.31
273.787	4.17
274.16	4.1
274.533	4.42
274.906	4.41
275.279	4.02
275.653	4.3
276.026	4.19
276.399	4.11
276.772	4.08
277.145	4.38
277.518	4.28
277.891	4.45
278.263	4.2
278.636	4.54
279.009	4.36
279.382	4.25
279.755	4.33
280.127	4.22
280.5	4.28
280.872	4.28
281.245	4.35
281.617	4.5
281.99	4.59
282.362	4.4
282.735	4.4
283.107	4.54
283.479	4.32
283.852	4.25
284.224	4.42
284.596	4.5
284.968	4.39
285.34	4.54
285.713	4.47
286.085	4.48
286.457	4.46
286.829	4.43
287.201	4.5
287.572	4.62
287.944	4.69
288.316	4.71
288.688	4.67
289.06	4.8
289.431	4.89
289.803	4.99
290.175	4.94
290.546	4.86
290.918	5.05
291.289	5.07
291.661	5.06
292.032	4.93
292.403	4.9
292.775	5
293.146	4.94
293.517	4.83
293.889	4.95
294.26	4.92
294.631	4.84
295.002	4.83
295.373	4.74
295.744	4.82
296.115	4.84
296.486	4.78
296.857	4.61
297.228	4.49
297.599	4.37
297.97	4.48
298.34	4.54
298.711	4.52
299.082	4.63
299.452	4.62
299.823	4.66
300.194	4.73
300.564	4.59
300.935	4.7
301.305	4.81
301.676	4.76
302.046	4.64
302.416	4.77
302.787	4.81
303.157	4.85
303.527	4.99
303.897	4.98
304.267	4.99
304.637	5.06
305.008	5.1
305.378	5.19
305.748	5.2
306.117	5.2
306.487	4.99
306.857	4.92
307.227	5.13
307.597	5.12
307.967	5.14
308.336	5.2
308.706	5.06
309.076	5.17
309.445	5.31
309.815	5.46
310.184	5.47
310.554	5.45
310.923	5.31
311.293	5.07
311.662	5.14
312.031	5.06
312.401	4.91
312.77	4.96
313.139	5
313.508	4.96
313.877	4.96
314.246	5.06
314.616	5.29
314.985	5.12
315.353	5.14
315.722	5.07
316.091	5.09
316.46	5.2
316.829	5.09
317.198	5.02
317.567	5.1
317.935	5.06
318.304	5.33
318.672	5.51
319.041	5.68
319.41	5.75
319.778	5.9
320.147	6.33
320.515	6.26
320.883	6.05
321.252	6.36
321.62	6.29
321.988	6.33
322.357	6.09
322.725	6.17
323.093	6.08
323.461	6.04
323.829	6.06
324.197	5.98
324.565	6.06
324.933	6.02
325.301	5.8
325.669	5.87
326.037	5.69
326.405	5.68
326.772	5.73
327.14	5.55
327.508	5.51
327.875	5.33
328.243	5.41
328.61	5.59
328.978	5.4
329.346	5.41
329.713	5.48
330.08	5.6
330.448	5.62
330.815	5.84
331.182	5.8
331.55	5.86
331.917	5.83
332.284	5.92
332.651	5.84
333.018	5.92
333.385	5.97
333.752	6.12
334.119	6.33
334.486	6.24
334.853	6.3
335.22	6.25
335.587	6.39
335.954	6.21
336.32	6.06
336.687	6.07
337.054	6.25
337.42	6.12
337.787	6.11
338.153	6.04
338.52	5.99
338.886	6.1
339.253	6.2
339.619	6.22
339.986	6.19
340.352	6.34
340.718	6.46
341.084	6.38
341.451	6.38
341.817	6.22
342.183	6.22
342.549	6.34
342.915	6.45
343.281	6.5
343.647	6.64
344.013	6.72
344.379	6.65
344.745	6.63
345.11	6.76
345.476	6.73
345.842	6.81
346.208	6.89
346.573	6.88
346.939	6.76
347.304	6.82
347.67	6.78
348.035	6.8
348.401	6.69
348.766	6.7
349.132	6.67
349.497	6.64
349.862	6.63
350.228	6.62
350.593	6.56
350.958	6.54
351.323	6.54
351.688	6.54
352.053	6.6
352.418	6.62
352.783	6.57
353.148	6.57
353.513	6.55
353.878	6.46
354.243	6.37
354.608	6.37
354.972	6.33
355.337	6.41
355.702	6.41
356.066	6.58
356.431	6.63
356.795	6.58
357.16	6.59
357.524	6.63
357.889	6.57
358.253	6.47
358.618	6.45
358.982	6.42
359.346	6.5
359.71	6.48
360.075	6.33
360.439	6.35
360.803	6.42
361.167	6.45
361.531	6.44
361.895	6.47
362.259	6.49
362.623	6.51
362.987	6.41
363.351	6.35
363.714	6.23
364.078	6.18
364.442	6.1
364.806	6.07
365.169	6.05
365.533	6.05
365.896	6.17
366.26	6.08
366.623	6.06
366.987	5.97
367.35	5.96
367.714	6.03
368.077	5.97
368.44	5.87
368.803	5.76
369.167	5.68
369.53	5.71
369.893	5.69
370.256	5.61
370.619	5.64
370.982	5.52
371.345	5.49
371.708	5.45
372.071	5.47
372.434	5.48
372.797	5.45
373.159	5.43
373.522	5.35
373.885	5.3
374.247	5.29
374.61	5.27
374.973	5.16
375.335	5.14
375.698	5.08
376.06	5.09
376.423	5.15
376.785	5.16
377.147	5.06
377.51	4.99
377.872	4.97
378.234	4.87
378.596	4.88
378.958	4.87
379.321	4.88
379.683	4.93
380.045	4.92
380.407	4.93
380.769	4.87
381.13	4.89
381.492	4.92
381.854	4.89
382.216	4.92
382.578	5
382.939	4.98
383.301	4.98
383.663	4.94
384.024	4.96
384.386	4.92
384.747	4.91
385.109	4.95
385.47	4.99
385.832	4.98
386.193	4.95
386.554	4.91
386.916	4.9
387.277	4.81
387.638	4.82
387.999	4.77
388.36	4.79
388.721	4.76
389.082	4.73
389.443	4.7
389.804	4.65
390.165	4.59
390.526	4.58
390.887	4.57
391.248	4.56
391.609	4.54
391.969	4.57
392.33	4.54
392.691	4.47
393.051	4.43
393.412	4.45
393.772	4.44
394.133	4.44
394.493	4.39
394.854	4.39
395.214	4.35
395.574	4.32
395.935	4.28
396.295	4.25
396.655	4.23
397.015	4.23
397.376	4.2
397.736	4.18
398.096	4.14
398.456	4.13
398.816	4.09
399.176	4.05
399.535	4
399.895	4.02
400.255	4.02
400.615	4.01
400.975	3.98
401.334	3.99
401.694	4
402.054	4
402.413	3.99
402.773	3.95
403.132	3.95
403.492	3.95
403.851	3.96
404.211	3.96
404.57	3.94
404.929	3.93
405.288	3.92
405.648	3.93
406.007	3.93
406.366	3.93
406.725	3.92
407.084	3.91
407.443	3.91
407.802	3.92
408.161	3.89
408.52	3.88
408.879	3.91
409.238	3.9
409.596	3.92
409.955	3.9
410.314	3.92
410.673	3.91
411.031	3.85
411.39	3.83
411.748	3.85
412.107	3.85
412.465	3.84
412.824	3.86
413.182	3.84
413.54	3.84
413.899	3.84
414.257	3.82
414.615	3.84
414.974	3.83
415.332	3.83
415.69	3.83
416.048	3.84
416.406	3.79
416.764	3.78
417.122	3.76
417.48	3.77
417.838	3.75
418.195	3.74
418.553	3.75
418.911	3.73
419.269	3.7
419.626	3.69
419.984	3.67
420.342	3.67
420.699	3.67
421.057	3.66
421.414	3.65
421.772	3.66
422.129	3.64
422.486	3.65
422.844	3.63
423.201	3.62
423.558	3.61
423.915	3.61
424.273	3.61
424.63	3.6
424.987	3.6
425.344	3.59
425.701	3.56
426.058	3.57
426.415	3.58
426.772	3.58
427.128	3.61
427.485	3.61
427.842	3.58
428.199	3.56
428.555	3.55
428.912	3.54
429.269	3.52
429.625	3.54
429.982	3.53
430.338	3.54
430.695	3.54
431.051	3.52
431.407	3.51
431.764	3.51
432.12	3.53
432.476	3.53
432.832	3.53
433.189	3.56
433.545	3.55
433.901	3.56
434.257	3.56
434.613	3.55
434.969	3.55
435.325	3.58
435.681	3.59
436.036	3.59
436.392	3.61
436.748	3.59
437.104	3.58
437.459	3.58
437.815	3.56
438.171	3.57
438.526	3.58
438.882	3.58
439.237	3.58
439.593	3.59
439.948	3.57
440.304	3.59
440.659	3.57
441.014	3.55
441.369	3.56
441.725	3.55
442.08	3.52
442.435	3.52
442.79	3.5
443.145	3.51
443.5	3.5
443.855	3.46
444.21	3.49
444.565	3.49
444.92	3.48
445.275	3.48
445.629	3.46
445.984	3.48
446.339	3.49
446.693	3.5
447.048	3.47
447.403	3.47
447.757	3.45
448.112	3.45
448.466	3.46
448.82	3.45
449.175	3.45
449.529	3.48
449.883	3.46
450.238	3.47
450.592	3.45
450.946	3.47
451.3	3.48
451.654	3.46
452.008	3.47
452.362	3.47
452.716	3.45
453.07	3.45
453.424	3.44
453.778	3.41
454.132	3.4
454.486	3.41
454.839	3.4
455.193	3.4
455.547	3.41
455.9	3.43
456.254	3.43
456.607	3.44
456.961	3.44
457.314	3.44
457.668	3.44
458.021	3.46
458.375	3.44
458.728	3.46
459.081	3.45
459.434	3.44
459.787	3.43
460.141	3.45
460.494	3.47
460.847	3.45
461.2	3.45
461.553	3.46
461.906	3.46
462.259	3.47
462.611	3.49
462.964	3.5
463.317	3.49
463.67	3.5
464.022	3.5
464.375	3.52
464.728	3.52
465.08	3.53
465.433	3.53
465.785	3.53
466.138	3.53
466.49	3.56
466.843	3.59
467.195	3.61
467.547	3.6
467.899	3.59
468.252	3.61
468.604	3.61
468.956	3.6
469.308	3.58
469.66	3.6
470.012	3.57
470.364	3.56
470.716	3.57
471.068	3.58
471.42	3.59
471.772	3.57
472.123	3.57
472.475	3.57
472.827	3.59
473.178	3.59
473.53	3.59
473.882	3.56
474.233	3.52
474.585	3.5
474.936	3.51
475.288	3.52
475.639	3.52
475.99	3.51
476.342	3.51
476.693	3.54
477.044	3.52
477.395	3.53
477.746	3.53
478.097	3.54
478.448	3.51
478.8	3.48
479.15	3.48
479.501	3.49
479.852	3.49
480.203	3.48
480.554	3.48
480.905	3.49
481.255	3.5
481.606	3.51
481.957	3.52
482.307	3.52
482.658	3.52
483.009	3.52
483.359	3.53
483.709	3.53
484.06	3.54
484.41	3.54
484.761	3.55
485.111	3.55
485.461	3.55
485.811	3.55
486.162	3.56
486.512	3.56
486.862	3.56
487.212	3.56
487.562	3.56
487.912	3.57
488.262	3.57
488.612	3.58
488.961	3.58
489.311	3.58
489.661	3.59
490.011	3.59
490.36	3.59
490.71	3.6
491.06	3.59
491.409	3.59
491.759	3.6
492.108	3.6
492.458	3.61
492.807	3.62
493.157	3.64
493.506	3.64
493.855	3.65
494.204	3.66
494.554	3.66
494.903	3.68
495.252	3.68
495.601	3.71
495.95	3.71
496.299	3.72
496.648	3.74
496.997	3.76
497.346	3.79
497.695	3.8
498.043	3.81
498.392	3.83
498.741	3.85
499.09	3.85
499.438	3.88
499.787	3.87
500.135	3.87
500.484	3.89
500.832	3.9
501.181	3.91
501.529	3.96
501.878	3.99
502.226	4
502.574	4.05
502.923	4.06
503.271	4.09
503.619	4.09
503.967	4.07
504.315	4.1
504.663	4.11
505.011	4.14
505.359	4.15
505.707	4.15
506.055	4.15
506.403	4.18
506.751	4.19
507.098	4.26
507.446	4.31
507.794	4.36
508.141	4.37
508.489	4.4
508.837	4.38
509.184	4.39
509.531	4.41
509.879	4.41
510.226	4.45
510.574	4.47
510.921	4.5
511.268	4.56
511.616	4.56
511.963	4.58
512.31	4.59
512.657	4.64
513.004	4.68
513.351	4.74
513.698	4.77
514.045	4.81
514.392	4.8
514.739	4.82
515.086	4.84
515.432	4.91
515.779	4.93
516.126	5
516.473	5.02
516.819	5.05
517.166	5.12
517.512	5.13
517.859	5.17
518.205	5.18
518.552	5.21
518.898	5.24
519.245	5.28
519.591	5.33
519.937	5.35
520.283	5.4
520.629	5.43
520.976	5.51
521.322	5.55
521.668	5.62
522.014	5.68
522.36	5.74
522.706	5.79
523.052	5.89
523.398	5.95
523.743	6.04
524.089	6.14
524.435	6.21
524.781	6.3
525.126	6.36
525.472	6.43
525.817	6.48
526.163	6.55
526.509	6.62
526.854	6.67
527.199	6.73
527.545	6.77
527.89	6.84
528.235	6.88
528.581	6.95
528.926	7
529.271	7.06
529.616	7.13
529.961	7.19
530.306	7.25
530.651	7.32
530.996	7.38
531.341	7.45
531.686	7.53
532.031	7.59
532.376	7.67
532.721	7.78
533.065	7.88
533.41	7.98
533.755	8.08
534.099	8.18
534.444	8.29
534.788	8.4
535.133	8.48
535.477	8.6
535.822	8.72
536.166	8.86
536.51	9
536.855	9.16
537.199	9.34
537.543	9.47
537.887	9.66
538.231	9.84
538.576	10.01
538.92	10.18
539.264	10.37
539.608	10.53
539.951	10.66
540.295	10.83
540.639	10.98
540.983	11.13
541.327	11.3
541.671	11.45
542.014	11.62
542.358	11.78
542.701	11.91
543.045	12.03
543.389	12.19
543.732	12.36
544.075	12.53
544.419	12.67
544.762	12.87
545.105	13.06
545.449	13.29
545.792	13.47
546.135	13.7
546.478	13.96
546.821	14.23
547.165	14.5
547.508	14.76
547.851	15.02
548.194	15.25
548.536	15.47
548.879	15.74
549.222	16.01
549.565	16.29
549.908	16.56
550.25	16.85
550.593	17.12
550.936	17.4
551.278	17.71
551.621	17.99
551.963	18.33
552.306	18.61
552.648	18.88
552.991	19.2
553.333	19.49
553.675	19.71
554.017	19.96
554.36	20.27
554.702	20.54
555.044	20.83
555.386	21.17
555.728	21.49
556.07	21.8
556.412	22.11
556.754	22.42
557.096	22.79
557.438	23.19
557.78	23.54
558.121	23.9
558.463	24.18
558.805	24.5
559.147	24.81
559.488	25.15
559.83	25.44
560.171	25.8
560.513	26.14
560.854	26.56
561.196	26.9
561.537	27.2
561.878	27.52
562.22	27.83
562.561	28.15
562.902	28.52
563.243	28.81
563.584	29.1
563.925	29.39
564.266	29.67
564.607	29.99
564.948	30.26
565.289	30.53
565.63	30.82
565.971	31.12
566.312	31.39
566.653	31.69
566.993	31.99
567.334	32.25
567.675	32.51
568.015	32.81
568.356	33.05
568.696	33.28
569.037	33.59
569.377	33.86
569.718	34.12
570.058	34.34
570.398	34.62
570.739	34.9
571.079	35.2
571.419	35.46
571.759	35.73
572.099	35.96
572.439	36.22
572.779	36.52
573.119	36.77
573.459	37.01
573.799	37.21
574.139	37.44
574.479	37.7
574.819	37.95
575.158	38.13
575.498	38.38
575.838	38.65
576.177	38.91
576.517	39.16
576.856	39.46
577.196	39.75
577.535	40.06
577.875	40.32
578.214	40.48
578.553	40.76
578.893	41.03
579.232	41.29
579.571	41.51
579.91	41.73
580.25	41.98
580.589	42.21
580.928	42.47
581.267	42.71
581.606	42.96
581.945	43.24
582.283	43.48
582.622	43.71
582.961	44
583.3	44.15
583.639	44.39
583.977	44.54
584.316	44.7
584.654	44.8
584.993	45.01
585.332	45.25
585.67	45.48
586.008	45.59
586.347	45.87
586.685	46.11
587.024	46.37
587.362	46.58
587.7	46.73
588.038	46.98
588.376	47.12
588.715	47.16
589.053	47.23
589.391	47.34
589.729	47.55
590.067	47.69
590.404	47.86
590.742	47.96
591.08	48.16
591.418	48.35
591.756	48.59
592.093	48.67
592.431	48.87
592.769	48.94
593.106	49.11
593.444	49.25
593.781	49.33
594.119	49.4
594.456	49.44
594.793	49.55
595.131	49.65
595.468	49.81
595.805	49.97
596.143	50.11
596.48	50.25
596.817	50.28
597.154	50.38
597.491	50.55
597.828	50.71
598.165	50.74
598.502	50.83
598.839	50.95
599.176	51.15
599.512	51.26
599.849	51.46
600.186	51.54
600.523	51.61
600.859	51.74
601.196	51.72
601.532	51.9
601.869	52
602.205	52.02
602.542	52.14
602.878	52.29
603.215	52.37
603.551	52.51
603.887	52.68
604.223	52.69
604.56	52.74
604.896	52.86
605.232	53.05
605.568	53.15
605.904	53.18
606.24	53.24
606.576	53.29
606.912	53.3
607.248	53.41
607.583	53.41
607.919	53.49
608.255	53.74
608.591	53.86
608.926	54.04
609.262	54.17
609.597	54.26
609.933	54.35
610.268	54.48
610.604	54.59
610.939	54.69
611.275	54.84
611.61	54.93
611.945	55
612.281	54.99
612.616	55.15
612.951	55.34
613.286	55.53
613.621	55.66
613.956	55.82
614.291	55.92
614.626	56.12
614.961	56.35
615.296	56.43
615.631	56.56
615.966	56.59
616.3	56.72
616.635	56.78
616.97	56.9
617.304	56.98
617.639	56.99
617.973	57.02
618.308	57.09
618.642	57.19
618.977	57.22
619.311	57.31
619.646	57.36
619.98	57.36
620.314	57.4
620.648	57.48
620.983	57.6
621.317	57.76
621.651	57.96
621.985	58.02
622.319	57.94
622.653	57.96
622.987	58.02
623.321	58.13
623.655	58.19
623.988	58.25
624.322	58.23
624.656	58.17
624.99	58.16
625.323	58.19
625.657	58.12
625.99	58.14
626.324	58.2
626.657	58.17
626.991	58.21
627.324	58.16
627.658	58.14
627.991	58.22
628.324	58.22
628.657	58.12
628.991	58.05
629.324	58.12
629.657	58.17
629.99	58.25
630.323	58.22
630.656	58.23
630.989	58.13
631.322	58.22
631.655	58.29
631.987	58.43
632.32	58.41
632.653	58.46
632.986	58.55
633.318	58.67
633.651	58.65
633.984	58.73
634.316	58.79
634.649	58.93
634.981	58.97
635.313	59.07
635.646	59.11
635.978	59.18
636.31	59.32
636.643	59.36
636.975	59.29
637.307	59.48
637.639	59.51
637.971	59.72
638.303	59.77
638.635	59.95
638.967	60.05
639.299	60.17
639.631	60.37
639.963	60.3
640.295	60.44
640.626	60.64
640.958	60.66
641.29	60.78
641.621	60.85
641.953	60.87
642.285	60.85
642.616	60.88
642.948	60.94
643.279	60.95
643.61	61.05
643.942	61.14
644.273	61.12
644.604	61.22
644.936	61.25
645.267	61.28
645.598	61.28
645.929	61.23
646.26	61.31
646.591	61.45
646.922	61.61
647.253	61.44
647.584	61.39
647.915	61.28
648.245	61.24
648.576	61.24
648.907	61.18
649.238	61.2
649.568	61.24
649.899	61.12
650.229	61.18
650.56	61.18
650.89	61.37
651.221	61.3
651.551	61.35
651.882	61.4
652.212	61.3
652.542	61.24
652.872	61.15
653.203	61.13
653.533	60.96
653.863	60.8
654.193	60.8
654.523	60.8
654.853	60.84
655.183	60.89
655.513	60.78
655.843	60.74
656.172	60.71
656.502	60.69
656.832	60.82
657.162	60.69
657.491	60.57
657.821	60.54
658.15	60.51
658.48	60.47
658.809	60.22
659.139	60.34
659.468	60.35
659.798	60.38
660.127	60.32
660.456	60.39
660.785	60.51
661.115	60.59
661.444	60.66
661.773	60.81
662.102	60.87
662.431	60.95
662.76	61.04
663.089	61.17
663.418	61.39
663.747	61.39
664.076	61.46
664.404	61.66
664.733	61.64
665.062	61.8
665.39	61.87
665.719	62.11
666.048	62.15
666.376	62.1
666.705	62.08
667.033	62.18
667.362	62.15
667.69	62.26
668.018	62.35
668.347	62.42
668.675	62.54
669.003	62.45
669.331	62.41
669.659	62.38
669.987	62.23
670.315	62.1
670.643	62.19
670.971	62.25
671.299	62.17
671.627	62.1
671.955	62.02
672.283	61.97
672.61	61.96
672.938	61.92
673.266	61.9
673.593	61.87
673.921	61.78
674.249	61.75
674.576	61.77
674.904	61.67
675.231	61.67
675.558	61.48
675.886	61.73
676.213	61.8
676.54	61.9
676.867	61.77
677.195	61.75
677.522	61.72
677.849	61.64
678.176	61.72
678.503	61.54
678.83	61.7
679.157	61.64
679.484	61.53
679.81	61.55
680.137	61.65
680.464	61.77
680.791	61.76
681.117	61.64
681.444	61.57
681.771	61.5
682.097	61.43
682.424	61.42
682.75	61.19
683.077	61.11
683.403	61.03
683.729	61.09
684.056	61.09
684.382	60.97
684.708	60.95
685.034	60.88
685.36	60.92
685.686	60.68
686.012	60.81
686.339	60.86
686.664	60.85
686.99	60.84
687.316	60.71
687.642	60.8
687.968	60.89
688.294	61.02
688.619	61.16
688.945	61.31
689.271	61.29
689.596	61.27
689.922	61.43
690.247	61.45
690.573	61.62
690.898	61.74
691.224	62.1
691.549	62.16
691.874	62.22
692.2	62.44
692.525	62.46
692.85	62.37
693.175	62.44
693.5	62.52
693.825	62.52
694.15	62.49
694.475	62.32
694.8	62.33
695.125	61.99
695.45	61.87
695.775	61.38
696.099	61.34
696.424	61.34
696.749	61.27
697.073	61.27
697.398	61.29
697.723	61.15
698.047	60.92
698.372	61.07
698.696	61
699.02	60.91
699.345	60.97
699.669	61.06
699.993	61.02
700.318	60.9
700.642	60.93
700.966	61
701.29	61.19
701.614	61.17
701.938	61.33
702.262	61.49
702.586	62.04
702.91	62.42
703.234	62.53
703.557	62.7
703.881	62.77
704.205	62.63
704.529	62.81
704.852	62.95
705.176	62.91
705.499	62.82
705.823	63.11
706.146	63.28
706.47	63.19
706.793	63.17
707.117	62.99
707.44	63.02
707.763	63.14
708.086	63.07
708.409	63.13
708.733	63.2
709.056	63.04
709.379	62.95
709.702	62.54
710.025	62.78
710.348	62.53
710.671	62.5
710.993	62.58
711.316	62.48
711.639	62.43
711.962	62.36
712.284	62.59
712.607	62.52
712.93	62.2
713.252	61.94
713.575	61.95
713.897	62.13
714.22	61.77
714.542	61.74
714.864	61.75
715.187	61.65
715.509	61.33
715.831	61.21
716.153	60.82
716.475	60.83
716.798	60.5
717.12	60.52
717.442	60.54
717.764	60.57
718.085	60.42
718.407	60.49
718.729	60.56
719.051	60.61
719.373	60.6
719.695	60.68
720.016	60.95
720.338	60.86
720.659	60.65
720.981	61.07
721.302	60.86
721.624	60.79
721.945	60.93
722.267	61.2
722.588	61.53
722.909	62.06
723.231	62.11
723.552	62.17
723.873	62.32
724.194	62.1
724.515	62.17
724.836	62.51
725.157	62.53
725.478	62.29
725.799	62.26
726.12	62.13
726.441	61.99
726.762	61.93
727.083	61.97
727.403	62.13
727.724	61.93
728.045	61.9
728.365	61.71
728.686	61.55
729.006	61.59
729.327	61.39
729.647	61.15
729.967	61.26
730.288	61.3
730.608	61.22
730.928	61.39
731.249	61.1
731.569	60.89
731.889	60.75
732.209	60.94
732.529	60.69
732.849	60.95
733.169	61.32
733.489	61.32
733.809	61.55
734.129	61.68
734.448	61.81
734.768	61.78
735.088	61.97
735.408	62.27
735.727	62.46
736.047	62.44
736.366	62.4
736.686	62.46
737.005	62.27
737.325	62.43
737.644	62.36
737.963	62.46
738.283	62.61
738.602	62.45
738.921	62.11
739.24	62.49
739.56	62.29
739.879	62.22
740.198	62.15
740.517	61.93
740.836	61.75
741.155	61.97
741.473	62.5
741.792	62.67
742.111	62.68
742.43	62.43
742.748	62.45
743.067	62.55
743.386	62.66
743.704	62.56
744.023	62.38
744.341	62.47
744.66	62.6
744.978	62.49
745.297	62.6
745.615	63.1
745.933	62.8
746.252	62.92
746.57	62.65
746.888	62.99
747.206	62.98
747.524	62.97
747.842	62.54
748.16	62.19
748.478	62.13
748.796	62.01
749.114	61.87
749.432	61.65
749.749	61.45
750.067	61.2
750.385	61.65
750.703	61.42
751.02	61.75
751.338	61.52
751.655	61.39
751.973	61.54
752.29	61.37
752.608	61.71
752.925	61.57
753.242	61.92
753.56	61.72
753.877	61.9
754.194	61.71
754.511	62.21
754.828	62.52
755.145	62.32
755.462	62.14
755.779	62
756.096	62.11
756.413	62.35
756.73	62.41
757.047	61.79
757.364	61.75
757.68	61.53
757.997	61.61
758.314	61.49
758.63	61.56
758.947	61.24
759.264	60.52
759.58	60.65
759.896	59.96
760.213	59.82
760.529	59.26
760.846	59.73
761.162	59.55
761.478	58.98
761.794	58.92
762.11	58.86
762.426	58.92
762.743	58.97
763.059	59.09
763.375	58.96
763.69	59.2
764.006	59.36
764.322	59.12
764.638	59.17
764.954	59.19
765.27	59.19
765.585	59.41
765.901	59.75
766.216	59.6
766.532	60.3
766.848	60.45
767.163	61.07
767.478	61.25
767.794	61.1
768.109	61.56
768.424	61.99
768.74	61.98
769.055	62.15
769.37	62.05
769.685	62.2
770	62.74
770.315	62.79
770.63	63
770.945	63.52
771.26	63.88
771.575	64.36
771.89	64.08
772.205	64.06
772.52	63.8
772.834	63.88
773.149	63.72
773.464	63.92
773.778	63.7
774.093	63.08
774.407	63.75
774.722	62.96
775.036	62.33
775.351	63.35
775.665	63.37
775.979	63.83
776.293	63.61
776.608	62.93
776.922	63.05
777.236	62.54
777.55	62.34
777.864	62.06
778.178	61.65
778.492	61.51
778.806	61.79
779.12	61.99
779.434	62.09
779.747	61.66
780.061	61.03
780.375	61.02
780.689	61.11
781.002	60.89
781.316	61.38
781.629	61.5
781.943	60.6
782.256	60.7
782.57	60.52
782.883	60.32
783.196	60.36
783.51	60.34
783.823	61.19
784.136	60.7
784.449	60.34
784.762	61.19
785.075	61.37
785.388	61.55
785.701	61.35
786.014	60.9
786.327	60.91
786.64	61.33
786.953	60.7
787.266	60.61
787.578	60.28
787.891	60.59
788.204	60.65
788.516	61.06
788.829	60.71
789.141	60.81
789.454	61.02
789.766	61
790.079	61.33
790.391	60.95
790.703	61.61
791.016	62.23
791.328	61.5
791.64	61.64
791.952	61.54
792.264	62.23
792.576	62.84
792.888	62.79
793.2	62.52
793.512	63.48
793.824	63.5
794.136	63.13
794.448	63.27
794.76	63.11
795.071	62.64
795.383	63.39
795.695	62.7
796.006	63.29
796.318	63.54
796.629	63.4
796.941	63.63
797.252	63.28
797.564	63.01
797.875	63.86
798.186	63.86
798.497	63.39
798.809	62.24
799.12	61.49
799.431	61.89
799.742	61.69
800.053	61.84
800.364	62.83
800.675	63.92
800.986	63.77
801.297	64.06
801.608	63.95
801.918	63.49
802.229	63.81
802.54	63.92
802.851	63.88
803.161	63.41
803.472	63.5
803.782	63.22
804.093	63.04
804.403	61.89
804.714	61.69
805.024	62.27
805.334	63.08
805.645	63.43
805.955	62.97
806.265	62.97
806.575	62.29
806.885	61.32
807.195	60.63
807.505	60.4
807.815	60.1
808.125	60.35
808.435	59.9
808.745	60.25
809.055	59.2
809.365	59.02
809.674	58.92
809.984	58.64
810.294	58.85
810.603	58.61
810.913	58.13
811.222	57.86
811.532	57.37
811.841	57.07
812.151	57.82
812.46	57.59
812.769	57.52
813.079	56.78
813.388	56.56
813.697	55.76
814.006	55.42
814.315	56.42
814.624	57.02
814.933	57.56
815.242	57.34
815.551	56.81
815.86	56.44
816.169	56.42
816.478	56.08
816.786	55.97
817.095	57.03
817.404	58.31
817.712	59.07
818.021	58.72
818.33	58.2
818.638	57.9
818.947	57.81
819.255	57.55
819.563	58.03
819.872	58.06
820.18	58.44
820.488	59.05
820.796	59.22
821.105	59.23
821.413	59.27
821.721	58.99
822.029	59.14
822.337	59.17
822.645	59.43
822.953	59.45
823.26	59.38
823.568	59.19
823.876	59.06
824.184	58.8
824.491	58.71
824.799	58.75
825.107	58.57
825.414	58.74
825.722	59.05
826.029	59.06
826.337	59.21
826.644	59.31
826.951	58.95
827.259	58.45
827.566	58.3
827.873	58.26
828.18	58.59
828.488	58.62
828.795	58.84
829.102	58.43
829.409	58.22
829.716	58.15
830.023	58.03
830.329	58.13
830.636	58.45
830.943	58.99
831.25	58.82
831.557	59
831.863	58.76
832.17	58.45
832.476	58.62
832.783	58.16
833.089	58
833.396	58.15
833.702	58.14
834.009	58.53
834.315	58.64
834.621	57.87
834.928	57.93
835.234	57.59
835.54	57.9
835.846	57.76
836.152	57.98
836.458	58.18
836.764	57.96
837.07	58.13
837.376	57.68
837.682	57.86
837.988	58.12
838.293	58.31
838.599	58.87
838.905	58.48
839.211	58.83
839.516	58.12
839.822	58.37
840.127	59.02
840.433	58.82
840.738	57.74
841.044	58.79
841.349	59.04
841.654	59.49
841.959	58.82
842.265	59.91
842.57	59.59
842.875	59.94
843.18	60.12
843.485	59.7
843.79	59.96
844.095	61.7
844.4	60.66
844.705	59.45
845.01	59.59
845.315	60.37
845.619	59.42
845.924	61.89
846.229	63.04
846.533	63.24
846.838	61.93
847.142	62.72
847.447	62.38
847.751	61.12
848.056	60.92
848.36	62.19
848.664	61.18
848.969	61.51
849.273	60.37
849.577	61.68
849.881	61.96
850.185	61.96
850.489	61.71
850.794	61.57
851.097	64.46
851.401	64.68
851.705	66.19
852.009	66.44
852.313	64.8
852.617	62.4
852.92	61.84
853.224	59.04
853.528	60.88
853.831	60.94
854.135	60.35
854.438	59.85
854.742	59.75
855.045	62.3
855.349	59.31
855.652	59.09
855.955	56.21
856.259	55.53
856.562	54.93
856.865	54.66
857.168	54.23
857.471	52.97
857.774	52.22
858.077	48.9
858.38	47.32
858.683	48.81
858.986	49.48
859.289	48.18
859.592	50.93
859.894	48.33
860.197	47.38
860.5	48.54
860.802	47.16
861.105	46.92
861.407	44.49
861.71	48.53
862.012	49.1
862.315	50.2
862.617	48.17
862.919	50.37
863.222	50.61
863.524	54.5
863.826	52.66
864.128	52.15
864.43	55.77
864.732	59.14
865.034	59.3
865.336	58.34
865.638	61.11
865.94	61.25
866.242	63.97
866.544	62.7
866.846	59.81
867.147	62.34
867.449	60.81
867.751	60.45
868.052	58.91
868.354	59.92
868.655	59.68
868.957	63.18
869.258	59.82
869.56	58.89
869.861	53.05
870.162	56.07
870.463	57.53
870.765	53.7
871.066	53.93
871.367	52.28
871.668	51.43
871.969	52.78
872.27	49.69
872.571	49.44
872.872	51.96
873.173	55.99
873.473	52.98
873.774	53.32
874.075	54.95
874.376	52.79
874.676	53.08
874.977	53.67
875.277	52.42
875.578	53.35
875.878	52.31
876.179	54.82
876.479	53.65
876.78	51.47
877.08	53.45
877.38	52.5
877.68	52.49
877.981	54.25
878.281	51.76
878.581	57.01
