Data from BA17729_Reflection_00003.txt Node
Date: Tue Nov 19 11:50:38 EST 2019
User: vgr7
Spectrometer: USB2G7710
Scans to average: 3
Trigger mode: 4
Integration Time (sec): 2.000000E-2
Electric dark correction enabled: true
Boxcar width: 10
XAxis mode: Wavelengths
Number of Pixels in Spectrum: 2048
>>>>>Begin Spectral Data<<<<<
177.721	77.63
178.105	11.76
178.488	-10.86
178.871	-32.35
179.254	-90.24
179.636	-56.07
180.019	-36.07
180.402	-33.33
180.785	-77.46
181.168	81.17
181.55	52.6
181.933	30.33
182.316	61.48
182.698	51.12
183.081	11.55
183.463	-27.48
183.846	-49.63
184.228	-93.32
184.611	-43.14
184.993	30.23
185.376	-2194.12
185.758	-82.51
186.14	28.44
186.522	-0.19
186.904	-64.84
187.287	21.47
187.669	76
188.051	-718.18
188.433	15.49
188.815	-202.01
189.197	-857.45
189.579	159.29
189.961	90.42
190.342	90.6
190.724	227.66
191.106	1.1
191.488	-120.18
191.869	-34.56
192.251	-7.49
192.633	35.83
193.014	118.4
193.396	26.38
193.777	10.38
194.159	30.08
194.54	24.42
194.922	-62.32
195.303	-39.2
195.684	-14.72
196.065	2.28
196.447	21.84
196.828	-21.79
197.209	-29.71
197.59	-29.01
197.971	-39.98
198.352	-32.78
198.733	-44.07
199.114	-65.59
199.495	-53.92
199.876	-88.9
200.257	-106.58
200.638	-69.37
201.018	-65.85
201.399	-48.76
201.78	-48.92
202.16	-43.43
202.541	-61.31
202.922	-26.87
203.302	-35.37
203.683	-63.28
204.063	-76.47
204.444	-83.58
204.824	-106.7
205.204	-107.86
205.585	-105.48
205.965	-99.29
206.345	-142.87
206.725	-75.47
207.106	-48.26
207.486	-44.3
207.866	-19.43
208.246	-22.07
208.626	-45.62
209.006	-75.96
209.386	-109.36
209.766	-98.69
210.145	-119.33
210.525	-109.25
210.905	-154.51
211.285	-100.33
211.664	-46.34
212.044	-59.16
212.424	-57.81
212.803	-75.17
213.183	-78.91
213.562	-69.34
213.942	-62.22
214.321	-47.67
214.701	-42.75
215.08	-55.6
215.459	-15.5
215.838	-30.33
216.218	-37.9
216.597	-3.21
216.976	23.13
217.355	19.81
217.734	15.2
218.113	47.77
218.492	22.01
218.871	-0.34
219.25	-3.82
219.629	-24.89
220.008	9.53
220.387	-5.11
220.766	23.53
221.144	16.73
221.523	7.74
221.902	-8.47
222.28	-10.46
222.659	-7.07
223.037	-23.86
223.416	-39.32
223.794	-34.45
224.173	-37.17
224.551	-55.59
224.929	-47.07
225.308	-27.42
225.686	-14.31
226.064	-19.59
226.442	-9.72
226.821	2.15
227.199	0.02
227.577	-2.77
227.955	0.43
228.333	3.23
228.711	2.55
229.089	-1.18
229.467	0.01
229.845	1.3
230.222	2.42
230.6	-0.13
230.978	2.98
231.356	1.61
231.733	1.68
232.111	3.06
232.488	3.55
232.866	6.31
233.243	7.47
233.621	9.8
233.998	10.54
234.376	8.43
234.753	7.39
235.13	5.86
235.508	6.91
235.885	6.98
236.262	6.32
236.639	5.15
237.016	6.71
237.393	5.87
237.77	4.81
238.147	5.69
238.524	5.9
238.901	3.57
239.278	2.7
239.655	3.25
240.032	2.9
240.409	2.87
240.785	1.42
241.162	0.86
241.539	0.59
241.915	-0.01
242.292	0.15
242.668	0.15
243.045	0.8
243.421	1
243.798	0.53
244.174	0.87
244.551	1.28
244.927	1.35
245.303	1.46
245.679	1.72
246.056	1.42
246.432	1.39
246.808	1.8
247.184	1.89
247.56	1.39
247.936	1.59
248.312	1.59
248.688	1.77
249.064	1.64
249.44	1.55
249.815	1.97
250.191	2.12
250.567	2.01
250.943	1.98
251.318	1.81
251.694	1.92
252.069	2.04
252.445	1.61
252.82	1.62
253.196	1.56
253.571	1.64
253.947	1.63
254.322	1.57
254.697	1.22
255.073	1.25
255.448	1.59
255.823	1.5
256.198	1.59
256.573	1.61
256.948	1.97
257.323	1.99
257.698	1.81
258.073	1.68
258.448	1.8
258.823	1.83
259.198	1.79
259.573	1.77
259.948	1.72
260.322	1.75
260.697	1.81
261.072	2.02
261.446	1.98
261.821	1.86
262.195	1.92
262.57	2.23
262.944	2.35
263.319	2.15
263.693	2.01
264.067	1.83
264.442	1.9
264.816	1.55
265.19	1.46
265.564	1.21
265.938	1.45
266.313	1.24
266.687	1.13
267.061	1.27
267.435	1.52
267.809	1.44
268.183	1.49
268.556	1.39
268.93	1.3
269.304	1.21
269.678	1.4
270.051	1.15
270.425	1.13
270.799	1.07
271.172	1.26
271.546	1.54
271.919	1.78
272.293	1.76
272.666	2
273.04	2.15
273.413	2.37
273.787	2.35
274.16	2.47
274.533	2.58
274.906	2.63
275.279	2.56
275.653	2.64
276.026	2.77
276.399	2.8
276.772	2.83
277.145	2.94
277.518	2.94
277.891	3.37
278.263	3.32
278.636	3.39
279.009	3.32
279.382	3.04
279.755	2.84
280.127	2.78
280.5	2.36
280.872	2.31
281.245	2.29
281.617	2.17
281.99	2.05
282.362	2
282.735	1.9
283.107	1.95
283.479	1.89
283.852	1.79
284.224	1.72
284.596	1.7
284.968	1.77
285.34	1.85
285.713	1.73
286.085	1.68
286.457	1.58
286.829	1.65
287.201	1.72
287.572	1.77
287.944	1.79
288.316	2.11
288.688	2.21
289.06	2.26
289.431	2.26
289.803	2.34
290.175	2.14
290.546	2.24
290.918	2.14
291.289	2.04
291.661	2.06
292.032	2.13
292.403	2.18
292.775	2.22
293.146	2.16
293.517	2.11
293.889	2.25
294.26	2.36
294.631	2.34
295.002	2.31
295.373	2.32
295.744	2.37
296.115	2.27
296.486	2.09
296.857	2.02
297.228	1.96
297.599	1.94
297.97	2.1
298.34	2.16
298.711	2.11
299.082	2.28
299.452	2.47
299.823	2.42
300.194	2.3
300.564	2.21
300.935	2.25
301.305	2.13
301.676	2.07
302.046	2.05
302.416	2.06
302.787	2.15
303.157	2.13
303.527	2.19
303.897	2.24
304.267	2.35
304.637	2.28
305.008	2.41
305.378	2.42
305.748	2.3
306.117	2.08
306.487	2.14
306.857	2.04
307.227	1.92
307.597	1.91
307.967	1.98
308.336	1.95
308.706	1.9
309.076	2.05
309.445	1.97
309.815	2
310.184	1.97
310.554	1.95
310.923	1.92
311.293	1.83
311.662	1.9
312.031	1.82
312.401	1.83
312.77	1.68
313.139	1.61
313.508	1.75
313.877	1.82
314.246	1.79
314.616	1.82
314.985	1.75
315.353	1.76
315.722	1.71
316.091	1.71
316.46	1.72
316.829	1.74
317.198	1.8
317.567	1.82
317.935	1.89
318.304	1.87
318.672	1.89
319.041	1.95
319.41	1.94
319.778	2.08
320.147	2.12
320.515	2.23
320.883	2.17
321.252	2.1
321.62	2.12
321.988	2.08
322.357	2.1
322.725	2.01
323.093	2.03
323.461	2.11
323.829	2.33
324.197	2.29
324.565	2.41
324.933	2.41
325.301	2.3
325.669	2.35
326.037	2.43
326.405	2.41
326.772	2.24
327.14	2.15
327.508	1.98
327.875	2
328.243	1.87
328.61	1.88
328.978	1.81
329.346	1.77
329.713	1.89
330.08	1.98
330.448	1.92
330.815	2.07
331.182	2.07
331.55	1.9
331.917	1.78
332.284	1.74
332.651	1.8
333.018	1.89
333.385	1.81
333.752	1.8
334.119	1.89
334.486	2.03
334.853	1.97
335.22	2.01
335.587	1.93
335.954	2.03
336.32	2.07
336.687	2.19
337.054	2.31
337.42	2.36
337.787	2.14
338.153	2.36
338.52	2.24
338.886	2.32
339.253	2.2
339.619	2.27
339.986	2.18
340.352	2.1
340.718	2.09
341.084	2.22
341.451	2.25
341.817	2.11
342.183	2.08
342.549	2.12
342.915	2.19
343.281	2.17
343.647	2.26
344.013	2.32
344.379	2.37
344.745	2.39
345.11	2.26
345.476	2.42
345.842	2.33
346.208	2.33
346.573	2.2
346.939	2.25
347.304	2.25
347.67	2.2
348.035	2.18
348.401	2.16
348.766	1.98
349.132	1.99
349.497	2.06
349.862	2.02
350.228	1.99
350.593	2.03
350.958	2.15
351.323	2.08
351.688	2.15
352.053	2.05
352.418	1.97
352.783	2.06
353.148	1.99
353.513	2.05
353.878	2.06
354.243	2.02
354.608	2.1
354.972	2.12
355.337	2.14
355.702	2.11
356.066	2.04
356.431	1.99
356.795	1.93
357.16	1.99
357.524	2.12
357.889	2.11
358.253	2.07
358.618	2.1
358.982	2.12
359.346	2.08
359.71	2.11
360.075	2.15
360.439	2.15
360.803	2.21
361.167	2.16
361.531	2.2
361.895	2.25
362.259	2.27
362.623	2.3
362.987	2.38
363.351	2.48
363.714	2.56
364.078	2.68
364.442	2.66
364.806	2.67
365.169	2.64
365.533	2.79
365.896	2.89
366.26	2.8
366.623	2.81
366.987	2.85
367.35	2.93
367.714	2.95
368.077	2.99
368.44	2.98
368.803	2.98
369.167	2.96
369.53	2.97
369.893	2.9
370.256	2.93
370.619	2.93
370.982	2.82
371.345	2.8
371.708	2.79
372.071	2.83
372.434	2.78
372.797	2.72
373.159	2.65
373.522	2.62
373.885	2.61
374.247	2.59
374.61	2.5
374.973	2.55
375.335	2.56
375.698	2.52
376.06	2.57
376.423	2.61
376.785	2.65
377.147	2.67
377.51	2.71
377.872	2.71
378.234	2.68
378.596	2.73
378.958	2.76
379.321	2.75
379.683	2.77
380.045	2.8
380.407	2.81
380.769	2.81
381.13	2.74
381.492	2.77
381.854	2.81
382.216	2.89
382.578	2.81
382.939	2.83
383.301	2.78
383.663	2.71
384.024	2.74
384.386	2.74
384.747	2.68
385.109	2.67
385.47	2.63
385.832	2.61
386.193	2.63
386.554	2.59
386.916	2.6
387.277	2.6
387.638	2.64
387.999	2.7
388.36	2.73
388.721	2.81
389.082	2.85
389.443	2.88
389.804	2.85
390.165	2.89
390.526	2.86
390.887	2.9
391.248	2.91
391.609	2.9
391.969	2.88
392.33	2.94
392.691	2.95
393.051	2.97
393.412	3.02
393.772	3.06
394.133	3.06
394.493	3.06
394.854	3.12
395.214	3.07
395.574	3.06
395.935	3.04
396.295	3.03
396.655	3
397.015	2.99
397.376	2.99
397.736	2.97
398.096	3.01
398.456	3.06
398.816	3.08
399.176	3.05
399.535	3.06
399.895	3.06
400.255	3.07
400.615	3.1
400.975	3.09
401.334	3.06
401.694	3.04
402.054	3.06
402.413	3.05
402.773	3.05
403.132	3.05
403.492	3.04
403.851	3.04
404.211	3.07
404.57	3.08
404.929	3.09
405.288	3.13
405.648	3.08
406.007	3.05
406.366	3.09
406.725	3.13
407.084	3.17
407.443	3.19
407.802	3.19
408.161	3.15
408.52	3.13
408.879	3.15
409.238	3.18
409.596	3.17
409.955	3.18
410.314	3.22
410.673	3.22
411.031	3.25
411.39	3.24
411.748	3.25
412.107	3.23
412.465	3.23
412.824	3.2
413.182	3.22
413.54	3.21
413.899	3.18
414.257	3.17
414.615	3.13
414.974	3.05
415.332	3.05
415.69	3.05
416.048	3
416.406	2.96
416.764	2.95
417.122	2.95
417.48	2.9
417.838	2.9
418.195	2.88
418.553	2.85
418.911	2.83
419.269	2.82
419.626	2.81
419.984	2.8
420.342	2.78
420.699	2.76
421.057	2.75
421.414	2.75
421.772	2.75
422.129	2.74
422.486	2.76
422.844	2.75
423.201	2.76
423.558	2.79
423.915	2.79
424.273	2.79
424.63	2.8
424.987	2.83
425.344	2.81
425.701	2.81
426.058	2.81
426.415	2.83
426.772	2.83
427.128	2.86
427.485	2.88
427.842	2.9
428.199	2.92
428.555	2.95
428.912	2.94
429.269	2.93
429.625	2.96
429.982	2.96
430.338	2.98
430.695	2.97
431.051	2.98
431.407	2.99
431.764	3
432.12	2.99
432.476	2.99
432.832	3.01
433.189	3.01
433.545	3.04
433.901	3.01
434.257	3.03
434.613	3.01
434.969	2.98
435.325	2.99
435.681	3
436.036	2.99
436.392	3
436.748	3.01
437.104	2.98
437.459	2.97
437.815	2.96
438.171	2.98
438.526	2.96
438.882	2.96
439.237	2.95
439.593	2.97
439.948	2.96
440.304	2.96
440.659	2.97
441.014	2.98
441.369	2.99
441.725	2.98
442.08	2.99
442.435	3.01
442.79	3
443.145	3
443.5	2.99
443.855	2.98
444.21	2.98
444.565	3
444.92	3.01
445.275	3.02
445.629	3
445.984	3.01
446.339	3.04
446.693	3.04
447.048	3.02
447.403	3.03
447.757	3.03
448.112	3.02
448.466	3.02
448.82	3.01
449.175	3.04
449.529	3.05
449.883	3.05
450.238	3.08
450.592	3.07
450.946	3.1
451.3	3.12
451.654	3.13
452.008	3.17
452.362	3.18
452.716	3.18
453.07	3.2
453.424	3.22
453.778	3.21
454.132	3.21
454.486	3.22
454.839	3.2
455.193	3.2
455.547	3.23
455.9	3.23
456.254	3.23
456.607	3.19
456.961	3.16
457.314	3.15
457.668	3.12
458.021	3.13
458.375	3.12
458.728	3.12
459.081	3.13
459.434	3.11
459.787	3.12
460.141	3.13
460.494	3.14
460.847	3.13
461.2	3.14
461.553	3.15
461.906	3.17
462.259	3.17
462.611	3.17
462.964	3.15
463.317	3.15
463.67	3.16
464.022	3.18
464.375	3.2
464.728	3.21
465.08	3.23
465.433	3.24
465.785	3.26
466.138	3.27
466.49	3.26
466.843	3.28
467.195	3.27
467.547	3.26
467.899	3.28
468.252	3.28
468.604	3.3
468.956	3.31
469.308	3.31
469.66	3.32
470.012	3.33
470.364	3.36
470.716	3.37
471.068	3.38
471.42	3.39
471.772	3.42
472.123	3.45
472.475	3.45
472.827	3.47
473.178	3.46
473.53	3.45
473.882	3.44
474.233	3.45
474.585	3.44
474.936	3.46
475.288	3.48
475.639	3.49
475.99	3.47
476.342	3.46
476.693	3.48
477.044	3.47
477.395	3.47
477.746	3.44
478.097	3.43
478.448	3.4
478.8	3.37
479.15	3.34
479.501	3.27
479.852	3.24
480.203	3.19
480.554	3.18
480.905	3.15
481.255	3.15
481.606	3.14
481.957	3.13
482.307	3.12
482.658	3.09
483.009	3.07
483.359	3.06
483.709	3.06
484.06	3.05
484.41	3.05
484.761	3.06
485.111	3.06
485.461	3.06
485.811	3.05
486.162	3.06
486.512	3.05
486.862	3.07
487.212	3.09
487.562	3.09
487.912	3.11
488.262	3.12
488.612	3.13
488.961	3.14
489.311	3.16
489.661	3.16
490.011	3.17
490.36	3.18
490.71	3.2
491.06	3.22
491.409	3.23
491.759	3.26
492.108	3.26
492.458	3.27
492.807	3.29
493.157	3.32
493.506	3.35
493.855	3.39
494.204	3.4
494.554	3.41
494.903	3.44
495.252	3.45
495.601	3.49
495.95	3.51
496.299	3.52
496.648	3.52
496.997	3.58
497.346	3.58
497.695	3.61
498.043	3.62
498.392	3.61
498.741	3.62
499.09	3.62
499.438	3.64
499.787	3.64
500.135	3.67
500.484	3.69
500.832	3.69
501.181	3.7
501.529	3.74
501.878	3.74
502.226	3.75
502.574	3.77
502.923	3.76
503.271	3.76
503.619	3.79
503.967	3.83
504.315	3.82
504.663	3.85
505.011	3.85
505.359	3.84
505.707	3.82
506.055	3.8
506.403	3.79
506.751	3.78
507.098	3.8
507.446	3.76
507.794	3.74
508.141	3.74
508.489	3.76
508.837	3.73
509.184	3.73
509.531	3.73
509.879	3.72
510.226	3.71
510.574	3.72
510.921	3.72
511.268	3.72
511.616	3.72
511.963	3.7
512.31	3.7
512.657	3.73
513.004	3.76
513.351	3.76
513.698	3.77
514.045	3.75
514.392	3.73
514.739	3.74
515.086	3.75
515.432	3.73
515.779	3.7
516.126	3.72
516.473	3.73
516.819	3.72
517.166	3.72
517.512	3.7
517.859	3.7
518.205	3.67
518.552	3.69
518.898	3.69
519.245	3.7
519.591	3.72
519.937	3.72
520.283	3.72
520.629	3.74
520.976	3.73
521.322	3.75
521.668	3.75
522.014	3.76
522.36	3.76
522.706	3.77
523.052	3.78
523.398	3.75
523.743	3.75
524.089	3.72
524.435	3.7
524.781	3.69
525.126	3.66
525.472	3.67
525.817	3.63
526.163	3.6
526.509	3.59
526.854	3.55
527.199	3.54
527.545	3.53
527.89	3.52
528.235	3.52
528.581	3.51
528.926	3.51
529.271	3.49
529.616	3.48
529.961	3.46
530.306	3.46
530.651	3.45
530.996	3.46
531.341	3.47
531.686	3.48
532.031	3.5
532.376	3.5
532.721	3.5
533.065	3.52
533.41	3.54
533.755	3.57
534.099	3.58
534.444	3.58
534.788	3.6
535.133	3.6
535.477	3.62
535.822	3.62
536.166	3.63
536.51	3.64
536.855	3.64
537.199	3.65
537.543	3.64
537.887	3.65
538.231	3.64
538.576	3.62
538.92	3.62
539.264	3.59
539.608	3.61
539.951	3.59
540.295	3.57
540.639	3.58
540.983	3.55
541.327	3.56
541.671	3.58
542.014	3.59
542.358	3.6
542.701	3.59
543.045	3.6
543.389	3.61
543.732	3.61
544.075	3.65
544.419	3.65
544.762	3.67
545.105	3.71
545.449	3.74
545.792	3.79
546.135	3.81
546.478	3.86
546.821	3.9
547.165	3.95
547.508	4
547.851	4.02
548.194	4.06
548.536	4.08
548.879	4.1
549.222	4.15
549.565	4.15
549.908	4.18
550.25	4.22
550.593	4.23
550.936	4.25
551.278	4.25
551.621	4.31
551.963	4.33
552.306	4.34
552.648	4.33
552.991	4.35
553.333	4.34
553.675	4.36
554.017	4.35
554.36	4.36
554.702	4.35
555.044	4.36
555.386	4.37
555.728	4.37
556.07	4.35
556.412	4.32
556.754	4.34
557.096	4.35
557.438	4.36
557.78	4.36
558.121	4.38
558.463	4.4
558.805	4.4
559.147	4.39
559.488	4.4
559.83	4.41
560.171	4.35
560.513	4.36
560.854	4.34
561.196	4.33
561.537	4.35
561.878	4.35
562.22	4.39
562.561	4.36
562.902	4.38
563.243	4.39
563.584	4.36
563.925	4.34
564.266	4.33
564.607	4.35
564.948	4.36
565.289	4.34
565.63	4.33
565.971	4.32
566.312	4.31
566.653	4.3
566.993	4.28
567.334	4.32
567.675	4.3
568.015	4.29
568.356	4.28
568.696	4.26
569.037	4.26
569.377	4.22
569.718	4.21
570.058	4.19
570.398	4.16
570.739	4.19
571.079	4.18
571.419	4.19
571.759	4.19
572.099	4.18
572.439	4.19
572.779	4.16
573.119	4.14
573.459	4.14
573.799	4.13
574.139	4.14
574.479	4.14
574.819	4.16
575.158	4.18
575.498	4.21
575.838	4.21
576.177	4.18
576.517	4.19
576.856	4.21
577.196	4.23
577.535	4.28
577.875	4.33
578.214	4.35
578.553	4.34
578.893	4.32
579.232	4.32
579.571	4.35
579.91	4.4
580.25	4.47
580.589	4.47
580.928	4.52
581.267	4.55
581.606	4.59
581.945	4.56
582.283	4.6
582.622	4.54
582.961	4.57
583.3	4.63
583.639	4.66
583.977	4.64
584.316	4.65
584.654	4.6
584.993	4.54
585.332	4.56
585.67	4.6
586.008	4.61
586.347	4.61
586.685	4.59
587.024	4.6
587.362	4.55
587.7	4.61
588.038	4.57
588.376	4.54
588.715	4.51
589.053	4.51
589.391	4.49
589.729	4.54
590.067	4.54
590.404	4.52
590.742	4.48
591.08	4.5
591.418	4.52
591.756	4.53
592.093	4.54
592.431	4.54
592.769	4.52
593.106	4.48
593.444	4.51
593.781	4.51
594.119	4.47
594.456	4.44
594.793	4.38
595.131	4.39
595.468	4.43
595.805	4.43
596.143	4.45
596.48	4.42
596.817	4.44
597.154	4.44
597.491	4.47
597.828	4.51
598.165	4.54
598.502	4.5
598.839	4.51
599.176	4.55
599.512	4.5
599.849	4.51
600.186	4.52
600.523	4.45
600.859	4.41
601.196	4.47
601.532	4.46
601.869	4.5
602.205	4.49
602.542	4.47
602.878	4.46
603.215	4.47
603.551	4.44
603.887	4.42
604.223	4.41
604.56	4.35
604.896	4.36
605.232	4.33
605.568	4.36
605.904	4.33
606.24	4.32
606.576	4.36
606.912	4.32
607.248	4.34
607.583	4.41
607.919	4.42
608.255	4.4
608.591	4.46
608.926	4.41
609.262	4.4
609.597	4.41
609.933	4.41
610.268	4.4
610.604	4.43
610.939	4.47
611.275	4.44
611.61	4.48
611.945	4.4
612.281	4.43
612.616	4.45
612.951	4.53
613.286	4.55
613.621	4.52
613.956	4.59
614.291	4.59
614.626	4.57
614.961	4.6
615.296	4.62
615.631	4.59
615.966	4.62
616.3	4.67
616.635	4.69
616.97	4.74
617.304	4.71
617.639	4.74
617.973	4.69
618.308	4.76
618.642	4.73
618.977	4.77
619.311	4.8
619.646	4.81
619.98	4.73
620.314	4.66
620.648	4.67
620.983	4.63
621.317	4.64
621.651	4.64
621.985	4.62
622.319	4.59
622.653	4.63
622.987	4.65
623.321	4.62
623.655	4.6
623.988	4.57
624.322	4.6
624.656	4.58
624.99	4.62
625.323	4.6
625.657	4.63
625.99	4.65
626.324	4.63
626.657	4.62
626.991	4.67
627.324	4.73
627.658	4.75
627.991	4.81
628.324	4.84
628.657	4.84
628.991	4.87
629.324	4.84
629.657	4.82
629.99	4.84
630.323	4.87
630.656	4.84
630.989	4.88
631.322	4.86
631.655	4.87
631.987	4.84
632.32	4.86
632.653	4.87
632.986	4.82
633.318	4.8
633.651	4.8
633.984	4.77
634.316	4.72
634.649	4.73
634.981	4.7
635.313	4.7
635.646	4.74
635.978	4.72
636.31	4.76
636.643	4.74
636.975	4.76
637.307	4.73
637.639	4.69
637.971	4.62
638.303	4.61
638.635	4.61
638.967	4.64
639.299	4.6
639.631	4.59
639.963	4.65
640.295	4.67
640.626	4.66
640.958	4.69
641.29	4.68
641.621	4.66
641.953	4.63
642.285	4.66
642.616	4.7
642.948	4.71
643.279	4.65
643.61	4.7
643.942	4.64
644.273	4.6
644.604	4.67
644.936	4.73
645.267	4.82
645.598	4.82
645.929	4.81
646.26	4.89
646.591	4.87
646.922	4.87
647.253	4.85
647.584	4.8
647.915	4.81
648.245	4.86
648.576	4.89
648.907	4.96
649.238	4.95
649.568	4.85
649.899	4.88
650.229	4.98
650.56	4.98
650.89	5.01
651.221	5.06
651.551	5.11
651.882	5.14
652.212	5.09
652.542	5.11
652.872	5.11
653.203	5.04
653.533	5.02
653.863	5.02
654.193	5.01
654.523	4.96
654.853	4.98
655.183	4.91
655.513	4.85
655.843	4.76
656.172	4.77
656.502	4.8
656.832	4.77
657.162	4.71
657.491	4.72
657.821	4.75
658.15	4.77
658.48	4.79
658.809	4.73
659.139	4.75
659.468	4.75
659.798	4.77
660.127	4.83
660.456	4.85
660.785	4.83
661.115	4.86
661.444	4.92
661.773	4.89
662.102	4.91
662.431	4.9
662.76	4.94
663.089	4.93
663.418	4.97
663.747	5.03
664.076	5.11
664.404	5.14
664.733	5.09
665.062	5.14
665.39	5.02
665.719	4.98
666.048	4.95
666.376	4.96
666.705	5.03
667.033	5.05
667.362	5.05
667.69	5.08
668.018	5.12
668.347	5.13
668.675	5.15
669.003	5.21
669.331	5.37
669.659	5.33
669.987	5.29
670.315	5.27
670.643	5.26
670.971	5.27
671.299	5.21
671.627	5.29
671.955	5.26
672.283	5.32
672.61	5.32
672.938	5.46
673.266	5.45
673.593	5.32
673.921	5.31
674.249	5.32
674.576	5.43
674.904	5.38
675.231	5.46
675.558	5.54
675.886	5.47
676.213	5.33
676.54	5.38
676.867	5.44
677.195	5.43
677.522	5.37
677.849	5.28
678.176	5.27
678.503	5.22
678.83	5.22
679.157	5.19
679.484	5.22
679.81	5.13
680.137	5.16
680.464	5.21
680.791	5.18
681.117	5.15
681.444	5.05
681.771	5.05
682.097	5.03
682.424	4.95
682.75	4.96
683.077	4.95
683.403	4.94
683.729	4.93
684.056	4.92
684.382	4.97
684.708	4.94
685.034	5
685.36	4.94
685.686	4.96
686.012	4.92
686.339	4.95
686.664	4.87
686.99	4.72
687.316	4.74
687.642	4.7
687.968	4.88
688.294	4.97
688.619	5.02
688.945	4.97
689.271	4.97
689.596	5.02
689.922	5.14
690.247	5.07
690.573	5
690.898	5.08
691.224	5.16
691.549	5.26
691.874	5.23
692.2	5.33
692.525	5.33
692.85	5.44
693.175	5.6
693.5	5.65
693.825	5.82
694.15	5.83
694.475	5.85
694.8	5.75
695.125	5.66
695.45	5.54
695.775	5.55
696.099	5.68
696.424	5.63
696.749	5.62
697.073	5.66
697.398	5.71
697.723	5.67
698.047	5.64
698.372	5.58
698.696	5.56
699.02	5.42
699.345	5.5
699.669	5.46
699.993	5.34
700.318	5.46
700.642	5.41
700.966	5.43
701.29	5.45
701.614	5.48
701.938	5.5
702.262	5.55
702.586	5.65
702.91	5.66
703.234	5.68
703.557	5.63
703.881	5.66
704.205	5.57
704.529	5.59
704.852	5.51
705.176	5.54
705.499	5.42
705.823	5.63
706.146	5.62
706.47	5.6
706.793	5.75
707.117	5.66
707.44	5.62
707.763	5.51
708.086	5.43
708.409	5.26
708.733	5.14
709.056	5.25
709.379	5.11
709.702	5.01
710.025	5.17
710.348	5.15
710.671	5.13
710.993	5.19
711.316	5.22
711.639	5.28
711.962	5.44
712.284	5.55
712.607	5.44
712.93	5.3
713.252	5.25
713.575	5.15
713.897	5.26
714.22	5.18
714.542	5.29
714.864	5.33
715.187	5.31
715.509	5.32
715.831	5.33
716.153	5.27
716.475	5.14
716.798	5.04
717.12	4.98
717.442	5.03
717.764	5.14
718.085	5.04
718.407	5.27
718.729	5.11
719.051	5.01
719.373	5.02
719.695	5.01
720.016	5.09
720.338	5
720.659	4.97
720.981	5.06
721.302	5.12
721.624	5.26
721.945	5.41
722.267	5.54
722.588	5.39
722.909	5.46
723.231	5.43
723.552	5.42
723.873	5.52
724.194	5.44
724.515	5.43
724.836	5.33
725.157	5.03
725.478	5.19
725.799	5.45
726.12	5.84
726.441	5.94
726.762	5.95
727.083	6.2
727.403	6.06
727.724	6.16
728.045	6.01
728.365	5.93
728.686	5.87
729.006	5.67
729.327	5.8
729.647	5.98
729.967	6.13
730.288	6.1
730.608	6.09
730.928	6.14
731.249	6.16
731.569	6.43
731.889	6.37
732.209	6.28
732.529	6.23
732.849	6.11
733.169	5.97
733.489	5.88
733.809	5.76
734.129	5.87
734.448	5.95
734.768	5.96
735.088	6.11
735.408	6.28
735.727	6.48
736.047	6.4
736.366	6.43
736.686	6.32
737.005	6.39
737.325	6.35
737.644	6.24
737.963	6.32
738.283	6.02
738.602	6.26
738.921	6.23
739.24	6.24
739.56	6.14
739.879	6.34
740.198	6.44
740.517	6.43
740.836	6.41
741.155	6.4
741.473	6.45
741.792	6.3
742.111	6.09
742.43	6.22
742.748	6.25
743.067	5.94
743.386	5.95
743.704	5.96
744.023	6.06
744.341	6.16
744.66	5.77
744.978	5.89
745.297	5.71
745.615	5.95
745.933	5.89
746.252	5.95
746.57	5.67
746.888	5.69
747.206	5.82
747.524	5.74
747.842	5.74
748.16	5.69
748.478	5.68
748.796	5.77
749.114	5.65
749.432	5.79
749.749	5.87
750.067	5.76
750.385	5.74
750.703	5.54
751.02	5.73
751.338	5.58
751.655	5.72
751.973	5.83
752.29	5.54
752.608	5.42
752.925	5.34
753.242	5.63
753.56	5.57
753.877	5.38
754.194	5.44
754.511	5.26
754.828	5.16
755.145	5.39
755.462	5.31
755.779	5.48
756.096	5.55
756.413	5.63
756.73	5.63
757.047	5.92
757.364	6.26
757.68	6.29
757.997	6.48
758.314	6.34
758.63	6.07
758.947	6.03
759.264	6.44
759.58	6.68
759.896	6.77
760.213	6.71
760.529	6.61
760.846	6.73
761.162	6.8
761.478	6.7
761.794	6.63
762.11	6.57
762.426	6.37
762.743	6.41
763.059	6.44
763.375	6.54
763.69	6.37
764.006	6.18
764.322	6.12
764.638	6.53
764.954	6.61
765.27	6.72
765.585	6.89
765.901	6.55
766.216	6.31
766.532	6.07
766.848	6.14
767.163	6.27
767.478	6.24
767.794	6.22
768.109	6.44
768.424	6.52
768.74	6.74
769.055	7.22
769.37	6.74
769.685	6.54
770	6.44
770.315	6.58
770.63	6.87
770.945	7.06
771.26	6.44
771.575	6.32
771.89	6.34
772.205	5.96
772.52	6.36
772.834	6.41
773.149	6.82
773.464	7
773.778	6.76
774.093	6.68
774.407	6.87
774.722	6.51
775.036	6.35
775.351	6.48
775.665	5.79
775.979	6.06
776.293	6.6
776.608	6.49
776.922	6.4
777.236	6.41
777.55	5.91
777.864	6.29
778.178	6.14
778.492	6.31
778.806	6.66
779.12	6.51
779.434	6.42
779.747	6.25
780.061	6.21
780.375	6.42
780.689	6.38
781.002	6.36
781.316	6.51
781.629	6.42
781.943	6.29
782.256	6.36
782.57	6.43
782.883	6.29
783.196	6.64
783.51	6.62
783.823	6.3
784.136	6.2
784.449	6.05
784.762	6.66
785.075	6.45
785.388	6.49
785.701	6.48
786.014	6.51
786.327	6.09
786.64	5.95
786.953	6.02
787.266	6.43
787.578	6.27
787.891	6.58
788.204	6.68
788.516	6.67
788.829	6.71
789.141	6.95
789.454	6.69
789.766	7.1
790.079	6.85
790.391	6.98
790.703	7.66
791.016	7.66
791.328	7.09
791.64	7.08
791.952	7.11
792.264	6.32
792.576	6.27
792.888	7.05
793.2	7.22
793.512	6.88
793.824	6.28
794.136	6.1
794.448	6.16
794.76	6.38
795.071	6.3
795.383	6.84
795.695	6.44
796.006	6.44
796.318	6.28
796.629	6.44
796.941	6.29
797.252	6.17
797.564	7.02
797.875	7.39
798.186	7.33
798.497	7.72
798.809	8.35
799.12	7.87
799.431	7.57
799.742	7.88
800.053	7.67
800.364	7.71
800.675	7.93
800.986	7.97
801.297	7.74
801.608	7.59
801.918	6.67
802.229	7.25
802.54	7.11
802.851	7.07
803.161	7.51
803.472	8.19
803.782	7.95
804.093	7.13
804.403	7.44
804.714	7.76
805.024	7.08
805.334	7.58
805.645	8.98
805.955	9.3
806.265	8.68
806.575	9.9
806.885	10.05
807.195	10.06
807.505	9.99
807.815	9.87
808.125	10.07
808.435	10.16
808.745	10.48
809.055	11.14
809.365	10.85
809.674	10.28
809.984	9.62
810.294	9.62
810.603	9.43
810.913	8.92
811.222	8.84
811.532	8.96
811.841	8.63
812.151	7.6
812.46	7.59
812.769	7.47
813.079	7.06
813.388	6.58
813.697	6.09
814.006	5.7
814.315	5.24
814.624	5.57
814.933	6.2
815.242	5.84
815.551	4.82
815.86	5.62
816.169	5.34
816.478	5.75
816.786	6.23
817.095	6.33
817.404	6.42
817.712	7.19
818.021	7.24
818.33	7.57
818.638	8.36
818.947	8.18
819.255	7.87
819.563	7.52
819.872	7.66
820.18	7.96
820.488	8.16
820.796	8.13
821.105	8.19
821.413	8.15
821.721	7.81
822.029	8.17
822.337	8.04
822.645	8.29
822.953	8.23
823.26	8.05
823.568	7.88
823.876	7.94
824.184	7.83
824.491	7.88
824.799	7.86
825.107	7.56
825.414	7.42
825.722	7.58
826.029	7.61
826.337	7.65
826.644	7.61
826.951	7.62
827.259	7.79
827.566	7.69
827.873	7.59
828.18	7.85
828.488	7.92
828.795	7.85
829.102	7.4
829.409	7.35
829.716	7.42
830.023	7.72
830.329	7.55
830.636	7.34
830.943	7.13
831.25	7.29
831.557	7.54
831.863	7.59
832.17	7.48
832.476	7.53
832.783	7.89
833.089	7.85
833.396	7.78
833.702	7.57
834.009	7.25
834.315	7.27
834.621	7.1
834.928	7
835.234	7.37
835.54	7.14
835.846	7.01
836.152	6.91
836.458	6.92
836.764	7.09
837.07	6.86
837.376	6.48
837.682	6
837.988	6.17
838.293	6.7
838.599	7.04
838.905	7.29
839.211	7.03
839.516	7.52
839.822	7.98
840.127	8.41
840.433	9.04
840.738	9.58
841.044	9.81
841.349	9.86
841.654	8.93
841.959	9.28
842.265	9.7
842.57	8.94
842.875	10.03
843.18	9.97
843.485	9.68
843.79	11.83
844.095	11.85
844.4	12.18
844.705	11.87
845.01	11.41
845.315	11.71
845.619	11.89
845.924	9.79
846.229	8.82
846.533	8.13
846.838	6.48
847.142	5.1
847.447	4.29
847.751	2.82
848.056	4.51
848.36	6.43
848.664	7.08
848.969	8.82
849.273	5.96
849.577	6.28
849.881	8.32
850.185	6.45
850.489	6.34
850.794	8.13
851.097	8.4
851.401	8.23
851.705	8.12
852.009	9.08
852.313	9.89
852.617	10.1
852.92	11.12
853.224	13.58
853.528	15.55
853.831	17.79
854.135	19.3
854.438	18.81
854.742	17.02
855.045	14.53
855.349	14.48
855.652	13.68
855.955	14.11
856.259	14.64
856.562	14.97
856.865	17.04
857.168	14.78
857.471	16.05
857.774	16.67
858.077	16.01
858.38	15.08
858.683	16.9
858.986	17.24
859.289	15.15
859.592	14.03
859.894	12.66
860.197	11.25
860.5	12.42
860.802	10.19
861.105	11.04
861.407	12.47
861.71	14.17
862.012	18.03
862.315	17
862.617	17
862.919	17.88
863.222	16.93
863.524	16.45
863.826	14.41
864.128	13.83
864.43	15.64
864.732	14.76
865.034	15.12
865.336	15.27
865.638	15.72
865.94	16.55
866.242	18.34
866.544	19.28
866.846	16.79
867.147	18.79
867.449	20.87
867.751	22.02
868.052	17.33
868.354	15.83
868.655	16.79
868.957	16.67
869.258	14.42
869.56	15.81
869.861	15.33
870.162	13.37
870.463	14.93
870.765	14.56
871.066	15.74
871.367	14.92
871.668	14.04
871.969	13.55
872.27	12.71
872.571	9.1
872.872	6.75
873.173	7.98
873.473	5.86
873.774	4.09
874.075	3.65
874.376	7.18
874.676	8.43
874.977	7.79
875.277	5.01
875.578	5.97
875.878	4.01
876.179	4.49
876.479	5.95
876.78	4.53
877.08	2.69
877.38	0.8
877.68	0.7
877.981	0.25
878.281	2.36
878.581	1.22
