Data from BA17718_Reflection_00007.txt Node
Date: Tue Nov 19 11:47:41 EST 2019
User: vgr7
Spectrometer: USB2G7710
Scans to average: 3
Trigger mode: 4
Integration Time (sec): 2.000000E-2
Electric dark correction enabled: true
Boxcar width: 10
XAxis mode: Wavelengths
Number of Pixels in Spectrum: 2048
>>>>>Begin Spectral Data<<<<<
177.721	-33.09
178.105	-108.03
178.488	-55.53
178.871	-43.36
179.254	-35
179.636	100
180.019	35.25
180.402	50
180.785	-96.36
181.168	52.51
181.55	37.9
181.933	60.9
182.316	64.2
182.698	53.89
183.081	36.97
183.463	27.13
183.846	28.43
184.228	27.57
184.611	62.4
184.993	4.55
185.376	314.29
185.758	0.83
186.14	-87.5
186.522	151.14
186.904	485.71
187.287	-664.15
187.669	4900
188.051	1804.55
188.433	-369.88
188.815	1117.86
189.197	451.06
189.579	154.74
189.961	84.77
190.342	68.09
190.724	31.39
191.106	22.24
191.488	8.2
191.869	24.72
192.251	29.18
192.633	57.51
193.014	62.15
193.396	72.67
193.777	96.99
194.159	68.45
194.54	57.78
194.922	-3.45
195.303	-2.92
195.684	-27.6
196.065	2.6
196.447	17.71
196.828	12.74
197.209	8.66
197.59	9.05
197.971	19.54
198.352	16.74
198.733	13.44
199.114	16.74
199.495	29.43
199.876	30.5
200.257	26.93
200.638	25.4
201.018	23.27
201.399	18.11
201.78	13.01
202.16	5.12
202.541	3.77
202.922	22.72
203.302	22.74
203.683	13.3
204.063	24.67
204.444	19.6
204.824	5.85
205.204	27.67
205.585	39.01
205.965	49.29
206.345	34.25
206.725	73.59
207.106	89.32
207.486	74.81
207.866	83.99
208.246	137.78
208.626	149.18
209.006	43.28
209.386	85.62
209.766	169.23
210.145	124.73
210.525	159.15
210.905	165.83
211.285	127.7
211.664	152.5
212.044	115.46
212.424	107.28
212.803	143.35
213.183	126.79
213.562	220
213.942	130.35
214.321	134.38
214.701	75.06
215.08	82.2
215.459	104.02
215.838	66.91
216.218	38.02
216.597	34.89
216.976	45.91
217.355	40.69
217.734	20.92
218.113	18.13
218.492	-17.73
218.871	-15.2
219.25	-9.82
219.629	-26.14
220.008	-26.14
220.387	-32.56
220.766	0.2
221.144	9.61
221.523	2.57
221.902	1.64
222.28	13.99
222.659	21.53
223.037	9.89
223.416	-0.45
223.794	-5.51
224.173	2.34
224.551	1.55
224.929	4.23
225.308	2.36
225.686	4.85
226.064	-2.63
226.442	4.3
226.821	3.25
227.199	3.2
227.577	6.62
227.955	11.63
228.333	10.52
228.711	8.34
229.089	8.05
229.467	7.79
229.845	5.08
230.222	6.31
230.6	6.28
230.978	8.33
231.356	10.39
231.733	14.33
232.111	12.53
232.488	12.87
232.866	11.06
233.243	10.08
233.621	9.66
233.998	10.93
234.376	10.72
234.753	9.76
235.13	10.52
235.508	10.97
235.885	6.93
236.262	6.28
236.639	3.18
237.016	2.31
237.393	1.82
237.77	2.57
238.147	2.68
238.524	2.59
238.901	2.21
239.278	1.93
239.655	1.56
240.032	2.15
240.409	2.15
240.785	2.49
241.162	3.21
241.539	4
241.915	4.25
242.292	4.17
242.668	3.95
243.045	4.33
243.421	3.98
243.798	4.27
244.174	4.44
244.551	5.17
244.927	5.14
245.303	5.23
245.679	5.38
246.056	5.19
246.432	5.07
246.808	5.04
247.184	4.85
247.56	4.59
247.936	4.39
248.312	4.63
248.688	4.56
249.064	4.37
249.44	4.13
249.815	4.25
250.191	4.23
250.567	4.26
250.943	4.21
251.318	4.32
251.694	4.37
252.069	4.31
252.445	4.07
252.82	4.25
253.196	4.3
253.571	4.44
253.947	4.52
254.322	4.73
254.697	4.76
255.073	4.92
255.448	5.11
255.823	5.32
256.198	5.09
256.573	5.21
256.948	4.98
257.323	4.94
257.698	4.78
258.073	4.72
258.448	4.88
258.823	4.55
259.198	4.63
259.573	4.34
259.948	4.47
260.322	4.5
260.697	4.37
261.072	4.34
261.446	4.32
261.821	4.26
262.195	4.33
262.57	4.43
262.944	4.35
263.319	4.44
263.693	4.3
264.067	4.27
264.442	4.16
264.816	4.34
265.19	4.29
265.564	4.32
265.938	4.32
266.313	4.11
266.687	4.15
267.061	4.03
267.435	4.37
267.809	4.11
268.183	4.22
268.556	4.12
268.93	4.27
269.304	3.92
269.678	3.91
270.051	3.74
270.425	3.71
270.799	3.63
271.172	3.5
271.546	3.63
271.919	3.63
272.293	3.61
272.666	3.37
273.04	3.45
273.413	3.51
273.787	3.55
274.16	3.73
274.533	3.8
274.906	3.79
275.279	3.79
275.653	3.93
276.026	3.82
276.399	4.04
276.772	3.91
277.145	3.99
277.518	4.1
277.891	4.19
278.263	4.28
278.636	4.51
279.009	4.72
279.382	4.58
279.755	4.64
280.127	4.83
280.5	4.87
280.872	4.82
281.245	4.72
281.617	4.73
281.99	4.53
282.362	4.67
282.735	4.66
283.107	4.53
283.479	4.54
283.852	4.64
284.224	4.63
284.596	4.6
284.968	4.62
285.34	4.5
285.713	4.48
286.085	4.32
286.457	4.15
286.829	4.02
287.201	4.03
287.572	4.06
287.944	3.97
288.316	4.06
288.688	4.2
289.06	4.25
289.431	4.36
289.803	4.6
290.175	4.5
290.546	4.5
290.918	4.6
291.289	4.58
291.661	4.61
292.032	4.69
292.403	4.66
292.775	4.83
293.146	4.86
293.517	4.82
293.889	4.9
294.26	5.11
294.631	5.11
295.002	5.15
295.373	5.1
295.744	5.09
296.115	5.24
296.486	5.24
296.857	5.18
297.228	4.99
297.599	4.81
297.97	4.88
298.34	4.99
298.711	4.93
299.082	4.98
299.452	4.98
299.823	5.05
300.194	5.22
300.564	5.12
300.935	5.31
301.305	5.38
301.676	5.32
302.046	5.34
302.416	5.37
302.787	5.37
303.157	5.44
303.527	5.61
303.897	5.47
304.267	5.33
304.637	5.46
305.008	5.51
305.378	5.74
305.748	5.68
306.117	5.69
306.487	5.8
306.857	5.76
307.227	5.83
307.597	5.77
307.967	5.76
308.336	5.89
308.706	5.85
309.076	6.05
309.445	6.36
309.815	6.29
310.184	6.38
310.554	6.47
310.923	6.49
311.293	6.44
311.662	6.58
312.031	6.71
312.401	6.75
312.77	6.94
313.139	6.94
313.508	7.14
313.877	7.18
314.246	7.26
314.616	7.46
314.985	7.3
315.353	7.43
315.722	7.58
316.091	7.63
316.46	7.68
316.829	7.73
317.198	7.67
317.567	7.85
317.935	8.02
318.304	8.23
318.672	8.37
319.041	8.66
319.41	8.66
319.778	8.7
320.147	8.6
320.515	8.48
320.883	8.36
321.252	8.24
321.62	8.22
321.988	8.13
322.357	8.11
322.725	8.41
323.093	8.32
323.461	8.13
323.829	8.14
324.197	8.06
324.565	8.02
324.933	7.92
325.301	7.87
325.669	7.78
326.037	7.83
326.405	7.81
326.772	7.7
327.14	7.78
327.508	7.77
327.875	7.9
328.243	7.95
328.61	8.14
328.978	8.23
329.346	8.29
329.713	8.46
330.08	8.46
330.448	8.48
330.815	8.43
331.182	8.72
331.55	8.69
331.917	8.8
332.284	8.85
332.651	8.91
333.018	8.92
333.385	9.08
333.752	8.94
334.119	9.04
334.486	9.12
334.853	9.01
335.22	9.03
335.587	8.96
335.954	8.92
336.32	8.73
336.687	8.76
337.054	8.86
337.42	8.82
337.787	8.85
338.153	8.77
338.52	9.02
338.886	8.97
339.253	9.02
339.619	9.05
339.986	9.07
340.352	9.15
340.718	9.13
341.084	9.14
341.451	9.27
341.817	9.23
342.183	9.16
342.549	9.22
342.915	9.3
343.281	9.23
343.647	9.32
344.013	9.45
344.379	9.37
344.745	9.35
345.11	9.34
345.476	9.41
345.842	9.49
346.208	9.36
346.573	9.34
346.939	9.34
347.304	9.34
347.67	9.3
348.035	9.31
348.401	9.44
348.766	9.32
349.132	9.3
349.497	9.32
349.862	9.37
350.228	9.29
350.593	9.31
350.958	9.39
351.323	9.35
351.688	9.36
352.053	9.35
352.418	9.33
352.783	9.35
353.148	9.22
353.513	9.13
353.878	9.13
354.243	8.97
354.608	8.9
354.972	8.85
355.337	8.84
355.702	8.72
356.066	8.56
356.431	8.51
356.795	8.42
357.16	8.39
357.524	8.34
357.889	8.32
358.253	8.24
358.618	8.22
358.982	8.28
359.346	8.15
359.71	8.11
360.075	8.14
360.439	8.11
360.803	8.17
361.167	8.12
361.531	8.1
361.895	8.18
362.259	8.22
362.623	8.24
362.987	8.21
363.351	8.16
363.714	8.17
364.078	8.17
364.442	8.2
364.806	8.13
365.169	8.12
365.533	8.13
365.896	8.14
366.26	8.04
366.623	7.9
366.987	8.01
367.35	8.1
367.714	8.07
368.077	8.05
368.44	8.02
368.803	8.03
369.167	7.85
369.53	7.8
369.893	7.73
370.256	7.69
370.619	7.59
370.982	7.61
371.345	7.6
371.708	7.58
372.071	7.51
372.434	7.49
372.797	7.44
373.159	7.41
373.522	7.31
373.885	7.35
374.247	7.35
374.61	7.31
374.973	7.24
375.335	7.15
375.698	7.05
376.06	6.94
376.423	6.92
376.785	6.97
377.147	6.9
377.51	6.84
377.872	6.77
378.234	6.87
378.596	6.8
378.958	6.75
379.321	6.68
379.683	6.62
380.045	6.56
380.407	6.53
380.769	6.46
381.13	6.47
381.492	6.42
381.854	6.38
382.216	6.29
382.578	6.22
382.939	6.21
383.301	6.21
383.663	6.15
384.024	6.05
384.386	6.03
384.747	6.01
385.109	5.98
385.47	6.02
385.832	5.91
386.193	5.85
386.554	5.76
386.916	5.77
387.277	5.7
387.638	5.7
387.999	5.61
388.36	5.6
388.721	5.52
389.082	5.53
389.443	5.48
389.804	5.47
390.165	5.41
390.526	5.34
390.887	5.26
391.248	5.25
391.609	5.3
391.969	5.26
392.33	5.18
392.691	5.15
393.051	5.02
393.412	5.03
393.772	5.06
394.133	5.04
394.493	4.97
394.854	4.97
395.214	4.93
395.574	4.91
395.935	4.86
396.295	4.87
396.655	4.79
397.015	4.76
397.376	4.7
397.736	4.68
398.096	4.71
398.456	4.67
398.816	4.63
399.176	4.51
399.535	4.47
399.895	4.46
400.255	4.42
400.615	4.43
400.975	4.38
401.334	4.33
401.694	4.31
402.054	4.29
402.413	4.26
402.773	4.28
403.132	4.28
403.492	4.24
403.851	4.18
404.211	4.19
404.57	4.17
404.929	4.16
405.288	4.14
405.648	4.08
406.007	4.09
406.366	4.08
406.725	4.12
407.084	4.09
407.443	4.14
407.802	4.15
408.161	4.14
408.52	4.13
408.879	4.11
409.238	4.08
409.596	4.09
409.955	4.11
410.314	4.06
410.673	4.02
411.031	3.98
411.39	4.01
411.748	3.98
412.107	4
412.465	4
412.824	3.98
413.182	3.97
413.54	3.97
413.899	3.95
414.257	3.93
414.615	3.92
414.974	3.88
415.332	3.85
415.69	3.81
416.048	3.81
416.406	3.77
416.764	3.78
417.122	3.76
417.48	3.73
417.838	3.74
418.195	3.71
418.553	3.73
418.911	3.7
419.269	3.68
419.626	3.64
419.984	3.61
420.342	3.61
420.699	3.59
421.057	3.56
421.414	3.57
421.772	3.53
422.129	3.53
422.486	3.52
422.844	3.51
423.201	3.5
423.558	3.48
423.915	3.48
424.273	3.47
424.63	3.47
424.987	3.46
425.344	3.44
425.701	3.45
426.058	3.42
426.415	3.4
426.772	3.4
427.128	3.42
427.485	3.4
427.842	3.39
428.199	3.39
428.555	3.38
428.912	3.33
429.269	3.35
429.625	3.32
429.982	3.3
430.338	3.31
430.695	3.29
431.051	3.31
431.407	3.32
431.764	3.32
432.12	3.31
432.476	3.31
432.832	3.28
433.189	3.28
433.545	3.3
433.901	3.29
434.257	3.31
434.613	3.29
434.969	3.3
435.325	3.3
435.681	3.29
436.036	3.32
436.392	3.33
436.748	3.32
437.104	3.34
437.459	3.31
437.815	3.32
438.171	3.33
438.526	3.31
438.882	3.31
439.237	3.3
439.593	3.3
439.948	3.3
440.304	3.31
440.659	3.3
441.014	3.29
441.369	3.28
441.725	3.27
442.08	3.25
442.435	3.25
442.79	3.25
443.145	3.25
443.5	3.22
443.855	3.22
444.21	3.22
444.565	3.19
444.92	3.2
445.275	3.18
445.629	3.17
445.984	3.16
446.339	3.16
446.693	3.16
447.048	3.14
447.403	3.14
447.757	3.13
448.112	3.13
448.466	3.13
448.82	3.15
449.175	3.15
449.529	3.17
449.883	3.15
450.238	3.16
450.592	3.14
450.946	3.17
451.3	3.17
451.654	3.15
452.008	3.18
452.362	3.16
452.716	3.17
453.07	3.17
453.424	3.18
453.778	3.17
454.132	3.15
454.486	3.16
454.839	3.15
455.193	3.16
455.547	3.16
455.9	3.18
456.254	3.17
456.607	3.16
456.961	3.16
457.314	3.15
457.668	3.15
458.021	3.13
458.375	3.13
458.728	3.12
459.081	3.13
459.434	3.12
459.787	3.15
460.141	3.18
460.494	3.19
460.847	3.2
461.2	3.2
461.553	3.2
461.906	3.21
462.259	3.2
462.611	3.2
462.964	3.19
463.317	3.19
463.67	3.19
464.022	3.2
464.375	3.18
464.728	3.2
465.08	3.19
465.433	3.23
465.785	3.25
466.138	3.27
466.49	3.29
466.843	3.31
467.195	3.31
467.547	3.27
467.899	3.28
468.252	3.27
468.604	3.3
468.956	3.31
469.308	3.3
469.66	3.34
470.012	3.35
470.364	3.36
470.716	3.37
471.068	3.39
471.42	3.4
471.772	3.43
472.123	3.43
472.475	3.46
472.827	3.46
473.178	3.47
473.53	3.48
473.882	3.49
474.233	3.48
474.585	3.45
474.936	3.48
475.288	3.5
475.639	3.49
475.99	3.47
476.342	3.49
476.693	3.49
477.044	3.48
477.395	3.48
477.746	3.47
478.097	3.46
478.448	3.44
478.8	3.43
479.15	3.4
479.501	3.38
479.852	3.36
480.203	3.35
480.554	3.32
480.905	3.3
481.255	3.29
481.606	3.29
481.957	3.29
482.307	3.28
482.658	3.27
483.009	3.28
483.359	3.27
483.709	3.28
484.06	3.29
484.41	3.29
484.761	3.29
485.111	3.3
485.461	3.29
485.811	3.29
486.162	3.29
486.512	3.3
486.862	3.31
487.212	3.32
487.562	3.33
487.912	3.35
488.262	3.37
488.612	3.37
488.961	3.38
489.311	3.4
489.661	3.42
490.011	3.42
490.36	3.42
490.71	3.43
491.06	3.43
491.409	3.43
491.759	3.45
492.108	3.45
492.458	3.46
492.807	3.49
493.157	3.51
493.506	3.51
493.855	3.52
494.204	3.54
494.554	3.57
494.903	3.57
495.252	3.59
495.601	3.61
495.95	3.65
496.299	3.65
496.648	3.67
496.997	3.7
497.346	3.74
497.695	3.79
498.043	3.84
498.392	3.86
498.741	3.89
499.09	3.91
499.438	3.98
499.787	4
500.135	4.03
500.484	4.05
500.832	4.08
501.181	4.13
501.529	4.16
501.878	4.19
502.226	4.23
502.574	4.25
502.923	4.27
503.271	4.27
503.619	4.3
503.967	4.33
504.315	4.35
504.663	4.4
505.011	4.41
505.359	4.41
505.707	4.45
506.055	4.51
506.403	4.55
506.751	4.55
507.098	4.61
507.446	4.65
507.794	4.69
508.141	4.73
508.489	4.77
508.837	4.82
509.184	4.84
509.531	4.86
509.879	4.91
510.226	4.97
510.574	5.04
510.921	5.11
511.268	5.15
511.616	5.21
511.963	5.25
512.31	5.33
512.657	5.42
513.004	5.47
513.351	5.52
513.698	5.59
514.045	5.68
514.392	5.73
514.739	5.78
515.086	5.85
515.432	5.93
515.779	5.99
516.126	6.08
516.473	6.16
516.819	6.25
517.166	6.34
517.512	6.4
517.859	6.46
518.205	6.49
518.552	6.57
518.898	6.64
519.245	6.7
519.591	6.75
519.937	6.81
520.283	6.89
520.629	6.95
520.976	7.02
521.322	7.11
521.668	7.19
522.014	7.32
522.36	7.42
522.706	7.53
523.052	7.66
523.398	7.77
523.743	7.89
524.089	8.01
524.435	8.12
524.781	8.25
525.126	8.36
525.472	8.48
525.817	8.6
526.163	8.7
526.509	8.79
526.854	8.88
527.199	8.97
527.545	9.06
527.89	9.17
528.235	9.27
528.581	9.36
528.926	9.47
529.271	9.56
529.616	9.66
529.961	9.76
530.306	9.86
530.651	9.98
530.996	10.1
531.341	10.24
531.686	10.36
532.031	10.51
532.376	10.64
532.721	10.78
533.065	10.9
533.41	11.05
533.755	11.23
534.099	11.39
534.444	11.55
534.788	11.69
535.133	11.84
535.477	12
535.822	12.17
536.166	12.35
536.51	12.54
536.855	12.76
537.199	12.99
537.543	13.23
537.887	13.48
538.231	13.71
538.576	13.92
538.92	14.16
539.264	14.37
539.608	14.6
539.951	14.82
540.295	15.03
540.639	15.22
540.983	15.39
541.327	15.59
541.671	15.78
542.014	15.98
542.358	16.17
542.701	16.39
543.045	16.57
543.389	16.77
543.732	17
544.075	17.22
544.419	17.42
544.762	17.62
545.105	17.84
545.449	18.07
545.792	18.34
546.135	18.59
546.478	18.89
546.821	19.19
547.165	19.48
547.508	19.8
547.851	20.14
548.194	20.48
548.536	20.8
548.879	21.15
549.222	21.48
549.565	21.81
549.908	22.09
550.25	22.4
550.593	22.7
550.936	23.02
551.278	23.36
551.621	23.72
551.963	24.13
552.306	24.49
552.648	24.85
552.991	25.17
553.333	25.5
553.675	25.84
554.017	26.16
554.36	26.51
554.702	26.86
555.044	27.2
555.386	27.49
555.728	27.78
556.07	28.11
556.412	28.46
556.754	28.8
557.096	29.19
557.438	29.56
557.78	29.93
558.121	30.27
558.463	30.62
558.805	30.96
559.147	31.27
559.488	31.57
559.83	31.95
560.171	32.28
560.513	32.6
560.854	32.98
561.196	33.35
561.537	33.68
561.878	33.96
562.22	34.24
562.561	34.54
562.902	34.9
563.243	35.19
563.584	35.51
563.925	35.84
564.266	36.14
564.607	36.5
564.948	36.83
565.289	37.17
565.63	37.44
565.971	37.75
566.312	37.96
566.653	38.26
566.993	38.57
567.334	38.9
567.675	39.2
568.015	39.48
568.356	39.79
568.696	40.02
569.037	40.28
569.377	40.61
569.718	40.87
570.058	41.13
570.398	41.42
570.739	41.73
571.079	42.04
571.419	42.29
571.759	42.55
572.099	42.8
572.439	43.01
572.779	43.25
573.119	43.53
573.459	43.82
573.799	44.04
574.139	44.23
574.479	44.46
574.819	44.71
575.158	44.92
575.498	45.11
575.838	45.33
576.177	45.64
576.517	45.86
576.856	46.12
577.196	46.37
577.535	46.6
577.875	46.83
578.214	46.99
578.553	47.27
578.893	47.48
579.232	47.62
579.571	47.83
579.91	47.98
580.25	48.14
580.589	48.33
580.928	48.54
581.267	48.68
581.606	48.87
581.945	49.01
582.283	49.23
582.622	49.39
582.961	49.53
583.3	49.68
583.639	49.85
583.977	50.11
584.316	50.28
584.654	50.49
584.993	50.64
585.332	50.76
585.67	50.91
586.008	51.06
586.347	51.34
586.685	51.55
587.024	51.87
587.362	52.03
587.7	52.21
588.038	52.39
588.376	52.56
588.715	52.71
589.053	52.84
589.391	52.88
589.729	53
590.067	53.18
590.404	53.27
590.742	53.34
591.08	53.42
591.418	53.67
591.756	53.81
592.093	53.9
592.431	54.07
592.769	54.15
593.106	54.33
593.444	54.4
593.781	54.5
594.119	54.53
594.456	54.59
594.793	54.7
595.131	54.83
595.468	54.9
595.805	54.93
596.143	55
596.48	55.1
596.817	55.18
597.154	55.36
597.491	55.43
597.828	55.51
598.165	55.6
598.502	55.52
598.839	55.57
599.176	55.71
599.512	55.78
599.849	55.9
600.186	55.91
600.523	56.01
600.859	56
601.196	56.06
601.532	56.19
601.869	56.25
602.205	56.28
602.542	56.41
602.878	56.57
603.215	56.67
603.551	56.82
603.887	56.93
604.223	56.93
604.56	56.98
604.896	57.15
605.232	57.23
605.568	57.4
605.904	57.41
606.24	57.43
606.576	57.49
606.912	57.56
607.248	57.65
607.583	57.7
607.919	57.88
608.255	58.06
608.591	58.08
608.926	58.16
609.262	58.27
609.597	58.35
609.933	58.34
610.268	58.45
610.604	58.49
610.939	58.56
611.275	58.62
611.61	58.66
611.945	58.7
612.281	58.75
612.616	58.82
612.951	58.97
613.286	59.17
613.621	59.27
613.956	59.33
614.291	59.39
614.626	59.41
614.961	59.49
615.296	59.49
615.631	59.58
615.966	59.57
616.3	59.61
616.635	59.64
616.97	59.71
617.304	59.75
617.639	59.74
617.973	59.74
618.308	59.81
618.642	59.91
618.977	59.89
619.311	59.94
619.646	59.83
619.98	59.79
620.314	59.68
620.648	59.7
620.983	59.68
621.317	59.73
621.651	59.89
621.985	59.89
622.319	59.94
622.653	59.96
622.987	60
623.321	60.11
623.655	60.12
623.988	60.15
624.322	60.19
624.656	60.25
624.99	60.31
625.323	60.26
625.657	60.28
625.99	60.34
626.324	60.38
626.657	60.53
626.991	60.5
627.324	60.53
627.658	60.51
627.991	60.62
628.324	60.6
628.657	60.54
628.991	60.43
629.324	60.41
629.657	60.41
629.99	60.49
630.323	60.41
630.656	60.47
630.989	60.55
631.322	60.48
631.655	60.42
631.987	60.46
632.32	60.4
632.653	60.49
632.986	60.54
633.318	60.48
633.651	60.5
633.984	60.58
634.316	60.66
634.649	60.75
634.981	60.78
635.313	60.92
635.646	60.92
635.978	61.12
636.31	61.22
636.643	61.3
636.975	61.31
637.307	61.48
637.639	61.46
637.971	61.56
638.303	61.57
638.635	61.73
638.967	61.7
639.299	61.82
639.631	61.79
639.963	61.81
640.295	61.92
640.626	61.89
640.958	62
641.29	62.01
641.621	62.09
641.953	62.02
642.285	62
642.616	62.06
642.948	62.02
643.279	62.02
643.61	62.08
643.942	62.17
644.273	62.05
644.604	62.02
644.936	61.97
645.267	62.05
645.598	61.96
645.929	61.96
646.26	62.02
646.591	62.11
646.922	61.99
647.253	62.01
647.584	62.04
647.915	62
648.245	61.88
648.576	61.88
648.907	61.82
649.238	61.88
649.568	61.92
649.899	61.9
650.229	61.86
650.56	61.95
650.89	61.9
651.221	61.87
651.551	62
651.882	62.12
652.212	62.07
652.542	62.11
652.872	62.04
653.203	62.13
653.533	62.13
653.863	62.26
654.193	62.19
654.523	62.18
654.853	62.22
655.183	62.41
655.513	62.38
655.843	62.49
656.172	62.54
656.502	62.6
656.832	62.54
657.162	62.64
657.491	62.5
657.821	62.44
658.15	62.51
658.48	62.5
658.809	62.27
659.139	62.36
659.468	62.53
659.798	62.65
660.127	62.61
660.456	62.61
660.785	62.67
661.115	62.76
661.444	62.82
661.773	62.84
662.102	62.79
662.431	62.81
662.76	62.81
663.089	62.71
663.418	62.74
663.747	62.9
664.076	62.77
664.404	62.93
664.733	62.98
665.062	62.98
665.39	62.98
665.719	63.11
666.048	63.22
666.376	63.1
666.705	63.07
667.033	63.07
667.362	63.1
667.69	63.07
668.018	63.15
668.347	63.09
668.675	63.15
669.003	63.15
669.331	63.08
669.659	63.2
669.987	63.2
670.315	63.02
670.643	63.03
670.971	63.16
671.299	63.07
671.627	63.24
671.955	63.34
672.283	63.35
672.61	63.31
672.938	63.07
673.266	62.92
673.593	62.79
673.921	62.96
674.249	62.89
674.576	62.95
674.904	62.95
675.231	62.94
675.558	62.95
675.886	63.04
676.213	63.13
676.54	63.04
676.867	63.04
677.195	63.3
677.522	63.27
677.849	63.33
678.176	63.35
678.503	63.18
678.83	63.21
679.157	63.14
679.484	63.17
679.81	63.39
680.137	63.44
680.464	63.64
680.791	63.5
681.117	63.51
681.444	63.48
681.771	63.29
682.097	63.41
682.424	63.31
682.75	63.4
683.077	63.47
683.403	63.57
683.729	63.58
684.056	63.55
684.382	63.69
684.708	63.71
685.034	63.71
685.36	63.74
685.686	63.7
686.012	63.96
686.339	64.06
686.664	63.99
686.99	64.2
687.316	64.18
687.642	64.07
687.968	64.12
688.294	64.18
688.619	64.39
688.945	64.35
689.271	64.49
689.596	64.3
689.922	64.17
690.247	64.05
690.573	64.13
690.898	64.07
691.224	63.98
691.549	63.84
691.874	63.95
692.2	64.03
692.525	63.97
692.85	63.77
693.175	63.8
693.5	63.86
693.825	63.89
694.15	63.96
694.475	64.18
694.8	64.29
695.125	64.16
695.45	64.09
695.775	64.02
696.099	64.03
696.424	64.22
696.749	64.4
697.073	64.43
697.398	64.56
697.723	64.58
698.047	64.61
698.372	64.7
698.696	64.65
699.02	64.67
699.345	64.62
699.669	64.62
699.993	64.58
700.318	64.59
700.642	64.46
700.966	64.38
701.29	64.43
701.614	64.33
701.938	64.35
702.262	64.49
702.586	64.61
702.91	64.68
703.234	64.36
703.557	64.1
703.881	64.06
704.205	63.8
704.529	63.79
704.852	63.88
705.176	63.85
705.499	63.75
705.823	63.73
706.146	63.78
706.47	64.02
706.793	64.06
707.117	63.91
707.44	63.9
707.763	63.91
708.086	63.8
708.409	63.79
708.733	63.87
709.056	63.77
709.379	63.81
709.702	63.69
710.025	64.08
710.348	64.3
710.671	64.22
710.993	64.23
711.316	64.1
711.639	64.02
711.962	63.84
712.284	64
712.607	63.95
712.93	63.81
713.252	63.65
713.575	63.58
713.897	63.67
714.22	63.66
714.542	63.62
714.864	63.48
715.187	63.26
715.509	63.19
715.831	63.04
716.153	62.94
716.475	62.98
716.798	62.84
717.12	62.6
717.442	62.95
717.764	63.12
718.085	62.98
718.407	63.03
718.729	63.09
719.051	63.04
719.373	63.06
719.695	63.22
720.016	63.23
720.338	63.19
720.659	63
720.981	63.17
721.302	63.24
721.624	63.4
721.945	63.61
722.267	63.94
722.588	64.11
722.909	64.24
723.231	64.41
723.552	64.62
723.873	64.95
724.194	64.55
724.515	64.56
724.836	64.72
725.157	64.47
725.478	64.86
725.799	64.92
726.12	64.85
726.441	64.68
726.762	64.53
727.083	64.48
727.403	64.58
727.724	64.39
728.045	64.26
728.365	64.19
728.686	64.42
729.006	64.3
729.327	64.36
729.647	64.36
729.967	64.26
730.288	63.9
730.608	63.81
730.928	63.89
731.249	63.67
731.569	63.99
731.889	64.11
732.209	63.63
732.529	63.47
732.849	63.58
733.169	63.89
733.489	64.02
733.809	64.14
734.129	64.19
734.448	64.28
734.768	64.27
735.088	64.5
735.408	64.26
735.727	64.18
736.047	64.39
736.366	63.84
736.686	63.72
737.005	64.02
737.325	63.94
737.644	64.07
737.963	64.25
738.283	64.06
738.602	63.79
738.921	64.06
739.24	64.33
739.56	64.27
739.879	64.06
740.198	64.1
740.517	63.94
740.836	63.71
741.155	63.76
741.473	63.71
741.792	63.66
742.111	63.47
742.43	63.34
742.748	63.13
743.067	63.73
743.386	63.76
743.704	63.58
744.023	63.72
744.341	63.64
744.66	63.38
744.978	63.4
745.297	63.51
745.615	63.62
745.933	63.4
746.252	63.38
746.57	63.37
746.888	63.33
747.206	63.73
747.524	64.02
747.842	63.81
748.16	64.07
748.478	64.31
748.796	64.62
749.114	64.87
749.432	64.73
749.749	64.53
750.067	64.52
750.385	64.76
750.703	64.62
751.02	64.75
751.338	64.88
751.655	64.78
751.973	65.02
752.29	64.96
752.608	64.94
752.925	65.13
753.242	65.36
753.56	65.21
753.877	65.12
754.194	64.96
754.511	65.06
754.828	64.45
755.145	64.07
755.462	64.1
755.779	63.67
756.096	63.63
756.413	64.08
756.73	64.39
757.047	64.17
757.364	64.18
757.68	64.34
757.997	64.6
758.314	64.57
758.63	64.69
758.947	64.67
759.264	64.61
759.58	64.66
759.896	64.65
760.213	64.68
760.529	64.65
760.846	64.54
761.162	64.88
761.478	65.33
761.794	65.55
762.11	65.73
762.426	66.04
762.743	66.26
763.059	66.13
763.375	65.8
763.69	65.75
764.006	65.68
764.322	65.52
764.638	65.7
764.954	65.71
765.27	65.87
765.585	65.85
765.901	66.06
766.216	66.21
766.532	66.27
766.848	66.22
767.163	66.21
767.478	66.85
767.794	66.64
768.109	66.73
768.424	67.01
768.74	66.8
769.055	66.9
769.37	66.45
769.685	66.55
770	66.81
770.315	66.72
770.63	67.03
770.945	67.02
771.26	66.61
771.575	66.77
771.89	65.92
772.205	65.79
772.52	65.56
772.834	65.53
773.149	65.72
773.464	66.04
773.778	66.16
774.093	65.67
774.407	65.58
774.722	65.05
775.036	64.32
775.351	64.55
775.665	64.11
775.979	64.32
776.293	64.32
776.608	64.3
776.922	64.47
777.236	63.59
777.55	63.99
777.864	64.28
778.178	63.87
778.492	64.41
778.806	64.79
779.12	64.66
779.434	64.55
779.747	64.46
780.061	64.11
780.375	64
780.689	64.22
781.002	64.24
781.316	64.92
781.629	65.2
781.943	64.82
782.256	64.65
782.57	64.45
782.883	64.32
783.196	64.47
783.51	65.01
783.823	66.24
784.136	65.78
784.449	65.78
784.762	66.62
785.075	66.32
785.388	66.27
785.701	66.98
786.014	66.95
786.327	66.71
786.64	66.53
786.953	66.62
787.266	66.48
787.578	66.86
787.891	67.01
788.204	66.05
788.516	66.45
788.829	66.84
789.141	67.55
789.454	67.43
789.766	67.61
790.079	67.16
790.391	66.78
790.703	67.3
791.016	67.31
791.328	66.68
791.64	66.59
791.952	66.24
792.264	66.11
792.576	66.21
792.888	66.18
793.2	66.76
793.512	66.61
793.824	67.03
794.136	66.29
794.448	66.26
794.76	67.66
795.071	67.39
795.383	68.08
795.695	67.69
796.006	68.53
796.318	68.32
796.629	69.19
796.941	69.66
797.252	69.26
797.564	69.24
797.875	70.45
798.186	70.76
798.497	70.75
798.809	70.52
799.12	70.13
799.431	70.86
799.742	70.74
800.053	70.97
800.364	70.96
800.675	72.06
800.986	72.05
801.297	71
801.608	70.49
801.918	69.2
802.229	69.36
802.54	68.86
802.851	67.92
803.161	66.81
803.472	66.26
803.782	66.3
804.093	65.82
804.403	64.05
804.714	63.42
805.024	63.52
805.334	63.78
805.645	64.36
805.955	63.28
806.265	62.71
806.575	62.27
806.885	61.85
807.195	61.8
807.505	61.4
807.815	61.51
808.125	62.66
808.435	63.03
808.745	63.01
809.055	62.79
809.365	63.59
809.674	62.9
809.984	63.29
810.294	64.03
810.603	64.22
810.913	64.79
811.222	64.61
811.532	65.19
811.841	65.05
812.151	65.18
812.46	65.29
812.769	66.17
813.079	66.84
813.388	66.69
813.697	66
814.006	66.46
814.315	67.73
814.624	67.56
814.933	68.61
815.242	69.2
815.551	69.46
815.86	69.56
816.169	70.54
816.478	69.73
816.786	68.55
817.095	68.48
817.404	69.2
817.712	70.6
818.021	70.31
818.33	69.11
818.638	68
818.947	68.01
819.255	67.68
819.563	66.75
819.872	66.84
820.18	66.79
820.488	66.89
820.796	66.99
821.105	67.12
821.413	66.9
821.721	66.55
822.029	66.33
822.337	66.43
822.645	66.5
822.953	66.49
823.26	66.62
823.568	66.64
823.876	66.46
824.184	66.2
824.491	66.21
824.799	66.12
825.107	66.26
825.414	66.12
825.722	66.31
826.029	66.7
826.337	66.75
826.644	66.8
826.951	66.69
827.259	66.42
827.566	66.35
827.873	66.52
828.18	66.54
828.488	66.67
828.795	66.36
829.102	66.32
829.409	66.5
829.716	66.11
830.023	66.4
830.329	66.65
830.636	66.77
830.943	66.82
831.25	67.19
831.557	67.1
831.863	67.76
832.17	67.14
832.476	67.04
832.783	66.53
833.089	66.53
833.396	66.27
833.702	65.74
834.009	65.91
834.315	65.78
834.621	65.91
834.928	65.95
835.234	66.16
835.54	65.89
835.846	65.65
836.152	65.71
836.458	65.51
836.764	65.22
837.07	65.84
837.376	65.48
837.682	66.11
837.988	66.13
838.293	65.61
838.599	66
838.905	65.68
839.211	66.29
839.516	66.34
839.822	67.43
840.127	68.64
840.433	68.76
840.738	68.01
841.044	68.22
841.349	68.93
841.654	69.07
841.959	70.65
842.265	72.44
842.57	73.61
842.875	74.37
843.18	75.25
843.485	74.56
843.79	75.85
844.095	77.3
844.4	79.29
844.705	80.34
845.01	82.24
845.315	83.76
845.619	83.18
845.924	83.93
846.229	84.15
846.533	85.36
846.838	84.35
847.142	86.29
847.447	86.73
847.751	83.82
848.056	86.29
848.36	85.31
848.664	82.83
848.969	84.83
849.273	84.87
849.577	87.07
849.881	86.08
850.185	85.21
850.489	83.99
850.794	81.41
851.097	81.3
851.401	80.97
851.705	79.98
852.009	79.93
852.313	80.25
852.617	80
852.92	82.02
853.224	81.2
853.528	81.6
853.831	81.54
854.135	82.56
854.438	81.7
854.742	80.43
855.045	82.65
855.349	76.54
855.652	73.96
855.955	70.74
856.259	71.67
856.562	70.02
856.865	68.66
857.168	70.06
857.471	70.1
857.774	70.63
858.077	69.83
858.38	73.83
858.683	76.53
858.986	74.91
859.289	71.03
859.592	68.94
859.894	68.09
860.197	66.28
860.5	69.28
860.802	67.96
861.105	73.98
861.407	72.3
861.71	81.11
862.012	80.47
862.315	82.22
862.617	81.39
862.919	83.97
863.222	87.14
863.524	86.58
863.826	85.98
864.128	84.09
864.43	87.75
864.732	88.36
865.034	84.94
865.336	85.46
865.638	84.91
865.94	89.81
866.242	88.65
866.544	89.23
866.846	85.96
867.147	87.23
867.449	81.46
867.751	80.04
868.052	74.9
868.354	78.24
868.655	77.74
868.957	81.29
869.258	79.22
869.56	77.62
869.861	76.83
870.162	77.23
870.463	76.53
870.765	73.15
871.066	70.09
871.367	68.9
871.668	67.7
871.969	67.87
872.27	64.53
872.571	67.77
872.872	69.9
873.173	72.03
873.473	71.6
873.774	70.9
874.075	74.11
874.376	71.65
874.676	70.27
874.977	70.12
875.277	65.08
875.578	66.59
875.878	65.46
876.179	65.18
876.479	65.38
876.78	64.98
877.08	65.91
877.38	65.87
877.68	67.6
877.981	69.42
878.281	70.37
878.581	72.82
