Data from BA17726_Reflection_00009.txt Node
Date: Tue Nov 19 11:57:06 EST 2019
User: vgr7
Spectrometer: USB2G7710
Scans to average: 3
Trigger mode: 4
Integration Time (sec): 2.000000E-2
Electric dark correction enabled: true
Boxcar width: 10
XAxis mode: Wavelengths
Number of Pixels in Spectrum: 2048
>>>>>Begin Spectral Data<<<<<
177.721	78.62
178.105	28.03
178.488	1.78
178.871	-20.51
179.254	-1.08
179.636	19.54
180.019	52.26
180.402	-58.33
180.785	198.55
181.168	24.43
181.55	-56.86
181.933	-762.75
182.316	-336.78
182.698	-176.73
183.081	-59.16
183.463	-98.07
183.846	-14.7
184.228	-16.81
184.611	53.75
184.993	134.23
185.376	145.55
185.758	109.76
186.14	8.94
186.522	2.82
186.904	17.41
187.287	31.41
187.669	92.25
188.051	153.95
188.433	5544.44
188.815	379.28
189.197	-428.74
189.579	416.94
189.961	193.66
190.342	163.39
190.724	466.12
191.106	-607.07
191.488	810.14
191.869	81
192.251	84.22
192.633	46.4
193.014	27.85
193.396	24.76
193.777	18.46
194.159	48.04
194.54	35.99
194.922	4.68
195.303	1.29
195.684	-14.02
196.065	-4.14
196.447	7.19
196.828	10.49
197.209	11.7
197.59	-0.45
197.971	19.03
198.352	17.8
198.733	4.71
199.114	8.96
199.495	8.96
199.876	11.14
200.257	7.47
200.638	2.4
201.018	-7.9
201.399	-20.64
201.78	-1.84
202.16	1.15
202.541	5.56
202.922	17.35
203.302	7.49
203.683	7.73
204.063	-7.13
204.444	-18.6
204.824	-12.3
205.204	7.71
205.585	17.63
205.965	-4.06
206.345	-14.68
206.725	3.86
207.106	11.78
207.486	16.49
207.866	6.82
208.246	16.52
208.626	27.57
209.006	34.33
209.386	34.22
209.766	-2.1
210.145	-2.41
210.525	10.96
210.905	-0.79
211.285	11.25
211.664	14.16
212.044	18.79
212.424	23.42
212.803	8.74
213.183	-15.29
213.562	-14.41
213.942	-7.44
214.321	-4.52
214.701	-13.04
215.08	-21.83
215.459	-7.75
215.838	-6.52
216.218	-5.15
216.597	3.15
216.976	14.25
217.355	23.62
217.734	25.05
218.113	31
218.492	25.69
218.871	29.01
219.25	27.85
219.629	33.79
220.008	25.84
220.387	25.15
220.766	36.62
221.144	40.68
221.523	44.83
221.902	42.65
222.28	45.01
222.659	49.57
223.037	51.65
223.416	52.48
223.794	56.02
224.173	48.5
224.551	40.54
224.929	32.52
225.308	25.43
225.686	26.8
226.064	20.57
226.442	22.09
226.821	18.75
227.199	19.03
227.577	14.84
227.955	19.52
228.333	19.16
228.711	10.04
229.089	11.92
229.467	12.6
229.845	13.99
230.222	15.23
230.6	12.87
230.978	10.93
231.356	10.25
231.733	9.42
232.111	9.53
232.488	9.19
232.866	7.8
233.243	10.93
233.621	11.14
233.998	11.58
234.376	10.06
234.753	10.96
235.13	12.46
235.508	11.33
235.885	8.02
236.262	7.12
236.639	8.71
237.016	8.08
237.393	8.22
237.77	7.56
238.147	6.78
238.524	6.97
238.901	6.86
239.278	6
239.655	5.08
240.032	4.49
240.409	4.3
240.785	4.11
241.162	3.06
241.539	2.75
241.915	2.44
242.292	2.31
242.668	2.9
243.045	3.03
243.421	3.58
243.798	4.71
244.174	4.93
244.551	5.27
244.927	5.29
245.303	5.25
245.679	5.35
246.056	5.39
246.432	5.38
246.808	5.59
247.184	5.89
247.56	6.19
247.936	6.36
248.312	6.43
248.688	6.68
249.064	6.9
249.44	7.18
249.815	7.37
250.191	7.67
250.567	7.56
250.943	7.75
251.318	7.97
251.694	7.64
252.069	7.84
252.445	7.88
252.82	8.2
253.196	8.06
253.571	7.91
253.947	8.04
254.322	8.05
254.697	8.06
255.073	7.47
255.448	7.63
255.823	7.38
256.198	7.33
256.573	7.22
256.948	7.26
257.323	7.2
257.698	7.25
258.073	7.27
258.448	7.42
258.823	7.1
259.198	6.84
259.573	6.74
259.948	6.71
260.322	6.51
260.697	6.32
261.072	6.23
261.446	6.31
261.821	6.26
262.195	6.21
262.57	6.13
262.944	6.22
263.319	6.11
263.693	6.1
264.067	6.21
264.442	6.18
264.816	5.87
265.19	5.7
265.564	5.62
265.938	5.63
266.313	5.42
266.687	5.47
267.061	5.54
267.435	5.84
267.809	5.79
268.183	5.87
268.556	5.91
268.93	6.11
269.304	6.01
269.678	6.07
270.051	6.16
270.425	6.14
270.799	6.15
271.172	6.14
271.546	6.34
271.919	6.15
272.293	6.13
272.666	6.39
273.04	6.45
273.413	6.53
273.787	6.3
274.16	6.23
274.533	6.24
274.906	6.32
275.279	6.1
275.653	6.04
276.026	6.07
276.399	6.01
276.772	6
277.145	6.04
277.518	5.91
277.891	5.79
278.263	5.92
278.636	5.99
279.009	6.1
279.382	5.81
279.755	6.07
280.127	6.06
280.5	5.95
280.872	5.93
281.245	5.9
281.617	6.03
281.99	6.17
282.362	6.05
282.735	5.84
283.107	5.95
283.479	6.1
283.852	5.93
284.224	5.97
284.596	6
284.968	6.03
285.34	6.07
285.713	6.32
286.085	6.28
286.457	6.3
286.829	6.34
287.201	6.52
287.572	6.57
287.944	6.64
288.316	6.74
288.688	6.84
289.06	6.98
289.431	6.91
289.803	6.99
290.175	7.1
290.546	7.23
290.918	7.28
291.289	7.24
291.661	7.47
292.032	7.63
292.403	7.78
292.775	7.85
293.146	8.1
293.517	8.11
293.889	8.23
294.26	8.27
294.631	8.39
295.002	8.56
295.373	8.44
295.744	8.46
296.115	8.49
296.486	8.56
296.857	8.48
297.228	8.57
297.599	8.62
297.97	8.8
298.34	9.03
298.711	9.21
299.082	9.41
299.452	9.5
299.823	9.45
300.194	9.43
300.564	9.49
300.935	9.46
301.305	9.56
301.676	9.75
302.046	9.89
302.416	9.81
302.787	9.69
303.157	9.9
303.527	10.16
303.897	10.15
304.267	10.25
304.637	10.36
305.008	10.53
305.378	10.63
305.748	10.54
306.117	10.36
306.487	10.36
306.857	10.43
307.227	10.45
307.597	10.64
307.967	10.69
308.336	10.75
308.706	10.92
309.076	11
309.445	11.13
309.815	11.1
310.184	11.09
310.554	11.23
310.923	11.09
311.293	11.09
311.662	11.26
312.031	11.28
312.401	11.39
312.77	11.42
313.139	11.36
313.508	11.54
313.877	11.83
314.246	11.86
314.616	11.86
314.985	11.84
315.353	12.05
315.722	12.3
316.091	12.48
316.46	12.42
316.829	12.43
317.198	12.3
317.567	12.68
317.935	12.91
318.304	13.11
318.672	13.43
319.041	13.38
319.41	13.26
319.778	13.49
320.147	13.62
320.515	13.76
320.883	13.96
321.252	14.05
321.62	14.05
321.988	14.06
322.357	14.22
322.725	14.53
323.093	14.39
323.461	14.31
323.829	14.45
324.197	14.54
324.565	14.64
324.933	14.76
325.301	14.61
325.669	14.64
326.037	14.72
326.405	14.84
326.772	15.13
327.14	15.27
327.508	15.11
327.875	15.18
328.243	15.28
328.61	15.4
328.978	15.29
329.346	15.34
329.713	15.55
330.08	15.57
330.448	15.59
330.815	15.5
331.182	15.56
331.55	15.48
331.917	15.59
332.284	15.73
332.651	15.68
333.018	15.78
333.385	15.85
333.752	15.9
334.119	15.88
334.486	15.81
334.853	15.83
335.22	15.84
335.587	15.85
335.954	15.85
336.32	15.83
336.687	16.05
337.054	16.06
337.42	15.96
337.787	15.95
338.153	16.01
338.52	16.04
338.886	16.05
339.253	16.04
339.619	16.04
339.986	15.84
340.352	15.95
340.718	15.93
341.084	15.94
341.451	15.87
341.817	16.04
342.183	16.04
342.549	16.2
342.915	16.25
343.281	16.22
343.647	16.29
344.013	16.29
344.379	16.3
344.745	16.45
345.11	16.6
345.476	16.74
345.842	16.71
346.208	16.86
346.573	17.03
346.939	17.08
347.304	17.15
347.67	17.37
348.035	17.37
348.401	17.48
348.766	17.43
349.132	17.53
349.497	17.44
349.862	17.46
350.228	17.53
350.593	17.67
350.958	17.72
351.323	17.69
351.688	17.68
352.053	17.71
352.418	17.52
352.783	17.52
353.148	17.34
353.513	17.39
353.878	17.35
354.243	17.22
354.608	17.25
354.972	17.21
355.337	17.23
355.702	17.16
356.066	17.18
356.431	17.13
356.795	17.01
357.16	16.9
357.524	16.86
357.889	16.84
358.253	16.76
358.618	16.74
358.982	16.71
359.346	16.73
359.71	16.66
360.075	16.71
360.439	16.59
360.803	16.67
361.167	16.53
361.531	16.49
361.895	16.58
362.259	16.51
362.623	16.48
362.987	16.34
363.351	16.34
363.714	16.24
364.078	16.24
364.442	16.31
364.806	16.34
365.169	16.34
365.533	16.24
365.896	16.18
366.26	16.18
366.623	16.09
366.987	16.01
367.35	15.96
367.714	15.84
368.077	15.78
368.44	15.7
368.803	15.69
369.167	15.73
369.53	15.61
369.893	15.57
370.256	15.55
370.619	15.51
370.982	15.46
371.345	15.38
371.708	15.31
372.071	15.14
372.434	15.02
372.797	14.91
373.159	14.82
373.522	14.88
373.885	14.79
374.247	14.73
374.61	14.62
374.973	14.56
375.335	14.56
375.698	14.5
376.06	14.36
376.423	14.27
376.785	14.17
377.147	14.04
377.51	13.94
377.872	13.81
378.234	13.8
378.596	13.68
378.958	13.62
379.321	13.56
379.683	13.59
380.045	13.53
380.407	13.47
380.769	13.39
381.13	13.23
381.492	13.17
381.854	13.1
382.216	13.09
382.578	13
382.939	12.9
383.301	12.83
383.663	12.83
384.024	12.74
384.386	12.63
384.747	12.68
385.109	12.61
385.47	12.58
385.832	12.49
386.193	12.39
386.554	12.24
386.916	12.17
387.277	12
387.638	11.94
387.999	11.95
388.36	11.91
388.721	11.89
389.082	11.84
389.443	11.76
389.804	11.67
390.165	11.59
390.526	11.52
390.887	11.48
391.248	11.39
391.609	11.4
391.969	11.34
392.33	11.22
392.691	11.22
393.051	11.17
393.412	11.02
393.772	11.01
394.133	10.98
394.493	10.92
394.854	10.87
395.214	10.81
395.574	10.69
395.935	10.63
396.295	10.52
396.655	10.41
397.015	10.34
397.376	10.27
397.736	10.16
398.096	10.11
398.456	10
398.816	9.93
399.176	9.79
399.535	9.72
399.895	9.66
400.255	9.56
400.615	9.43
400.975	9.43
401.334	9.34
401.694	9.29
402.054	9.22
402.413	9.18
402.773	9.14
403.132	9.11
403.492	9.04
403.851	9
404.211	8.96
404.57	8.92
404.929	8.88
405.288	8.85
405.648	8.8
406.007	8.76
406.366	8.73
406.725	8.72
407.084	8.72
407.443	8.68
407.802	8.61
408.161	8.58
408.52	8.53
408.879	8.52
409.238	8.49
409.596	8.45
409.955	8.44
410.314	8.42
410.673	8.37
411.031	8.32
411.39	8.31
411.748	8.27
412.107	8.23
412.465	8.23
412.824	8.2
413.182	8.14
413.54	8.14
413.899	8.05
414.257	8
414.615	7.95
414.974	7.9
415.332	7.87
415.69	7.84
416.048	7.78
416.406	7.7
416.764	7.64
417.122	7.61
417.48	7.54
417.838	7.47
418.195	7.42
418.553	7.4
418.911	7.33
419.269	7.28
419.626	7.24
419.984	7.17
420.342	7.13
420.699	7.09
421.057	7.05
421.414	7.05
421.772	7.01
422.129	6.96
422.486	6.93
422.844	6.9
423.201	6.88
423.558	6.87
423.915	6.86
424.273	6.84
424.63	6.83
424.987	6.81
425.344	6.79
425.701	6.77
426.058	6.73
426.415	6.71
426.772	6.7
427.128	6.7
427.485	6.7
427.842	6.7
428.199	6.7
428.555	6.67
428.912	6.63
429.269	6.64
429.625	6.61
429.982	6.57
430.338	6.55
430.695	6.51
431.051	6.49
431.407	6.46
431.764	6.44
432.12	6.41
432.476	6.41
432.832	6.4
433.189	6.39
433.545	6.36
433.901	6.36
434.257	6.34
434.613	6.3
434.969	6.3
435.325	6.27
435.681	6.26
436.036	6.26
436.392	6.26
436.748	6.24
437.104	6.24
437.459	6.25
437.815	6.26
438.171	6.29
438.526	6.27
438.882	6.27
439.237	6.26
439.593	6.24
439.948	6.24
440.304	6.2
440.659	6.2
441.014	6.2
441.369	6.2
441.725	6.18
442.08	6.17
442.435	6.14
442.79	6.12
443.145	6.09
443.5	6.08
443.855	6.04
444.21	6.03
444.565	6.03
444.92	6.02
445.275	5.99
445.629	5.95
445.984	5.94
446.339	5.93
446.693	5.92
447.048	5.91
447.403	5.89
447.757	5.89
448.112	5.89
448.466	5.87
448.82	5.85
449.175	5.85
449.529	5.86
449.883	5.84
450.238	5.85
450.592	5.84
450.946	5.82
451.3	5.82
451.654	5.78
452.008	5.76
452.362	5.72
452.716	5.74
453.07	5.76
453.424	5.74
453.778	5.73
454.132	5.73
454.486	5.73
454.839	5.71
455.193	5.71
455.547	5.69
455.9	5.68
456.254	5.68
456.607	5.69
456.961	5.69
457.314	5.72
457.668	5.72
458.021	5.73
458.375	5.74
458.728	5.75
459.081	5.79
459.434	5.77
459.787	5.8
460.141	5.81
460.494	5.81
460.847	5.82
461.2	5.84
461.553	5.85
461.906	5.87
462.259	5.88
462.611	5.89
462.964	5.94
463.317	5.94
463.67	5.97
464.022	5.98
464.375	5.98
464.728	5.98
465.08	5.99
465.433	6.03
465.785	6.06
466.138	6.08
466.49	6.09
466.843	6.12
467.195	6.15
467.547	6.15
467.899	6.16
468.252	6.2
468.604	6.21
468.956	6.2
469.308	6.21
469.66	6.25
470.012	6.26
470.364	6.28
470.716	6.32
471.068	6.36
471.42	6.37
471.772	6.38
472.123	6.41
472.475	6.44
472.827	6.42
473.178	6.42
473.53	6.44
473.882	6.46
474.233	6.47
474.585	6.47
474.936	6.47
475.288	6.47
475.639	6.48
475.99	6.46
476.342	6.49
476.693	6.49
477.044	6.49
477.395	6.45
477.746	6.42
478.097	6.39
478.448	6.35
478.8	6.32
479.15	6.32
479.501	6.3
479.852	6.29
480.203	6.3
480.554	6.27
480.905	6.25
481.255	6.25
481.606	6.25
481.957	6.25
482.307	6.24
482.658	6.25
483.009	6.24
483.359	6.25
483.709	6.25
484.06	6.25
484.41	6.26
484.761	6.28
485.111	6.3
485.461	6.3
485.811	6.32
486.162	6.33
486.512	6.34
486.862	6.36
487.212	6.36
487.562	6.37
487.912	6.4
488.262	6.42
488.612	6.44
488.961	6.46
489.311	6.49
489.661	6.51
490.011	6.52
490.36	6.54
490.71	6.57
491.06	6.6
491.409	6.62
491.759	6.66
492.108	6.69
492.458	6.71
492.807	6.75
493.157	6.77
493.506	6.81
493.855	6.86
494.204	6.9
494.554	6.94
494.903	6.99
495.252	7.06
495.601	7.11
495.95	7.16
496.299	7.22
496.648	7.26
496.997	7.33
497.346	7.41
497.695	7.49
498.043	7.58
498.392	7.65
498.741	7.73
499.09	7.79
499.438	7.88
499.787	7.95
500.135	8.02
500.484	8.11
500.832	8.19
501.181	8.29
501.529	8.38
501.878	8.51
502.226	8.62
502.574	8.7
502.923	8.78
503.271	8.88
503.619	9
503.967	9.12
504.315	9.22
504.663	9.35
505.011	9.46
505.359	9.55
505.707	9.67
506.055	9.77
506.403	9.88
506.751	9.97
507.098	10.1
507.446	10.24
507.794	10.36
508.141	10.5
508.489	10.64
508.837	10.76
509.184	10.89
509.531	11.03
509.879	11.15
510.226	11.3
510.574	11.43
510.921	11.55
511.268	11.71
511.616	11.85
511.963	11.99
512.31	12.11
512.657	12.27
513.004	12.4
513.351	12.57
513.698	12.73
514.045	12.89
514.392	13.1
514.739	13.26
515.086	13.43
515.432	13.59
515.779	13.76
516.126	13.97
516.473	14.15
516.819	14.32
517.166	14.47
517.512	14.62
517.859	14.79
518.205	14.96
518.552	15.1
518.898	15.26
519.245	15.39
519.591	15.58
519.937	15.74
520.283	15.93
520.629	16.1
520.976	16.28
521.322	16.49
521.668	16.64
522.014	16.85
522.36	17.09
522.706	17.32
523.052	17.55
523.398	17.78
523.743	18
524.089	18.23
524.435	18.47
524.781	18.7
525.126	18.92
525.472	19.11
525.817	19.27
526.163	19.43
526.509	19.61
526.854	19.77
527.199	19.91
527.545	20.07
527.89	20.25
528.235	20.41
528.581	20.57
528.926	20.74
529.271	20.92
529.616	21.08
529.961	21.27
530.306	21.44
530.651	21.62
530.996	21.82
531.341	22.04
531.686	22.25
532.031	22.5
532.376	22.72
532.721	22.97
533.065	23.25
533.41	23.51
533.755	23.77
534.099	24.03
534.444	24.31
534.788	24.57
535.133	24.79
535.477	25.08
535.822	25.38
536.166	25.68
536.51	25.99
536.855	26.31
537.199	26.63
537.543	26.99
537.887	27.36
538.231	27.72
538.576	28.06
538.92	28.42
539.264	28.72
539.608	29.03
539.951	29.29
540.295	29.58
540.639	29.89
540.983	30.16
541.327	30.44
541.671	30.7
542.014	30.95
542.358	31.22
542.701	31.47
543.045	31.68
543.389	31.94
543.732	32.2
544.075	32.46
544.419	32.71
544.762	32.95
545.105	33.24
545.449	33.55
545.792	33.85
546.135	34.18
546.478	34.57
546.821	34.92
547.165	35.36
547.508	35.66
547.851	35.99
548.194	36.34
548.536	36.68
548.879	37.1
549.222	37.48
549.565	37.8
549.908	38.13
550.25	38.57
550.593	38.89
550.936	39.24
551.278	39.59
551.621	39.99
551.963	40.38
552.306	40.66
552.648	40.96
552.991	41.29
553.333	41.56
553.675	41.86
554.017	42.16
554.36	42.39
554.702	42.76
555.044	43.06
555.386	43.38
555.728	43.68
556.07	43.95
556.412	44.28
556.754	44.61
557.096	44.95
557.438	45.26
557.78	45.63
558.121	45.97
558.463	46.38
558.805	46.72
559.147	47.01
559.488	47.4
559.83	47.76
560.171	48.05
560.513	48.34
560.854	48.59
561.196	48.96
561.537	49.31
561.878	49.62
562.22	49.87
562.561	50.16
562.902	50.48
563.243	50.74
563.584	50.99
563.925	51.28
564.266	51.56
564.607	51.87
564.948	52.1
565.289	52.4
565.63	52.54
565.971	52.82
566.312	53.1
566.653	53.26
566.993	53.47
567.334	53.72
567.675	53.94
568.015	54.15
568.356	54.32
568.696	54.49
569.037	54.67
569.377	54.93
569.718	55.09
570.058	55.22
570.398	55.49
570.739	55.64
571.079	55.86
571.419	56.02
571.759	56.12
572.099	56.33
572.439	56.41
572.779	56.61
573.119	56.76
573.459	56.92
573.799	57.14
574.139	57.32
574.479	57.45
574.819	57.69
575.158	57.93
575.498	58.11
575.838	58.26
576.177	58.39
576.517	58.59
576.856	58.81
577.196	59.05
577.535	59.16
577.875	59.4
578.214	59.5
578.553	59.76
578.893	60.05
579.232	60.18
579.571	60.37
579.91	60.55
580.25	60.66
580.589	60.8
580.928	61
581.267	61.15
581.606	61.3
581.945	61.43
582.283	61.54
582.622	61.7
582.961	61.89
583.3	62.07
583.639	62.19
583.977	62.24
584.316	62.39
584.654	62.49
584.993	62.6
585.332	62.72
585.67	62.76
586.008	62.82
586.347	62.88
586.685	62.98
587.024	63.13
587.362	63.22
587.7	63.35
588.038	63.41
588.376	63.49
588.715	63.64
589.053	63.66
589.391	63.74
589.729	63.77
590.067	63.84
590.404	63.84
590.742	64.03
591.08	64.14
591.418	64.23
591.756	64.37
592.093	64.4
592.431	64.46
592.769	64.52
593.106	64.6
593.444	64.81
593.781	64.94
594.119	65
594.456	65.09
594.793	65.18
595.131	65.25
595.468	65.29
595.805	65.41
596.143	65.59
596.48	65.62
596.817	65.69
597.154	65.81
597.491	65.95
597.828	65.92
598.165	65.98
598.502	65.99
598.839	66.05
599.176	66.19
599.512	66.34
599.849	66.43
600.186	66.46
600.523	66.44
600.859	66.51
601.196	66.6
601.532	66.64
601.869	66.71
602.205	66.75
602.542	66.77
602.878	66.78
603.215	66.78
603.551	66.81
603.887	66.94
604.223	66.94
604.56	67
604.896	67.14
605.232	67.17
605.568	67.2
605.904	67.19
606.24	67.21
606.576	67.31
606.912	67.36
607.248	67.41
607.583	67.5
607.919	67.56
608.255	67.6
608.591	67.76
608.926	67.8
609.262	67.87
609.597	68
609.933	68
610.268	68.05
610.604	68.14
610.939	68.16
611.275	68.2
611.61	68.19
611.945	68.11
612.281	68.19
612.616	68.33
612.951	68.51
613.286	68.52
613.621	68.46
613.956	68.5
614.291	68.59
614.626	68.57
614.961	68.58
615.296	68.62
615.631	68.63
615.966	68.66
616.3	68.66
616.635	68.58
616.97	68.72
617.304	68.73
617.639	68.77
617.973	68.75
618.308	68.73
618.642	68.79
618.977	68.79
619.311	68.81
619.646	68.78
619.98	68.78
620.314	68.87
620.648	68.84
620.983	68.91
621.317	69
621.651	69.09
621.985	69.11
622.319	69.13
622.653	69.05
622.987	69.17
623.321	69.27
623.655	69.31
623.988	69.27
624.322	69.35
624.656	69.4
624.99	69.44
625.323	69.6
625.657	69.57
625.99	69.68
626.324	69.8
626.657	69.81
626.991	69.76
627.324	69.88
627.658	69.97
627.991	69.98
628.324	69.88
628.657	70
628.991	70.03
629.324	70.04
629.657	70.09
629.99	70.03
630.323	70
630.656	70.02
630.989	70.04
631.322	70.08
631.655	70.03
631.987	70.19
632.32	70.19
632.653	70.22
632.986	70.11
633.318	70.1
633.651	70.11
633.984	70.1
634.316	69.98
634.649	69.94
634.981	69.94
635.313	70.12
635.646	69.97
635.978	69.96
636.31	69.99
636.643	70.02
636.975	69.94
637.307	70.05
637.639	70.15
637.971	70.02
638.303	70.02
638.635	70.15
638.967	70.05
639.299	70.03
639.631	70.02
639.963	70.2
640.295	70.25
640.626	70.35
640.958	70.41
641.29	70.39
641.621	70.51
641.953	70.47
642.285	70.52
642.616	70.58
642.948	70.61
643.279	70.64
643.61	70.6
643.942	70.62
644.273	70.52
644.604	70.49
644.936	70.66
645.267	70.62
645.598	70.44
645.929	70.41
646.26	70.4
646.591	70.52
646.922	70.47
647.253	70.34
647.584	70.31
647.915	70.2
648.245	70.18
648.576	70.23
648.907	70.32
649.238	70.17
649.568	70.13
649.899	70.08
650.229	70.1
650.56	70.11
650.89	70.13
651.221	70.14
651.551	70.17
651.882	70.19
652.212	70.12
652.542	70.29
652.872	70.18
653.203	70.22
653.533	70.32
653.863	70.25
654.193	70.37
654.523	70.32
654.853	70.5
655.183	70.6
655.513	70.58
655.843	70.6
656.172	70.67
656.502	70.84
656.832	71.05
657.162	71.08
657.491	71.07
657.821	71.12
658.15	71.15
658.48	71.2
658.809	71.26
659.139	71.38
659.468	71.35
659.798	71.44
660.127	71.5
660.456	71.43
660.785	71.51
661.115	71.44
661.444	71.5
661.773	71.52
662.102	71.45
662.431	71.43
662.76	71.4
663.089	71.36
663.418	71.31
663.747	71.12
664.076	70.99
664.404	71.08
664.733	71.06
665.062	71.21
665.39	71.21
665.719	71.19
666.048	71.12
666.376	70.93
666.705	71.02
667.033	70.97
667.362	70.96
667.69	70.93
668.018	71.06
668.347	71.09
668.675	71.02
669.003	71.23
669.331	71.23
669.659	71.22
669.987	71.23
670.315	71.19
670.643	71.39
670.971	71.42
671.299	71.44
671.627	71.77
671.955	71.61
672.283	71.72
672.61	71.78
672.938	71.78
673.266	72.09
673.593	71.94
673.921	71.91
674.249	71.98
674.576	72.21
674.904	72.01
675.231	72.01
675.558	72.08
675.886	72.1
676.213	72.11
676.54	72.07
676.867	71.94
677.195	72.03
677.522	71.7
677.849	71.65
678.176	71.39
678.503	71.21
678.83	71.19
679.157	71.18
679.484	70.95
679.81	70.93
680.137	70.85
680.464	70.85
680.791	70.87
681.117	70.94
681.444	70.75
681.771	70.78
682.097	70.67
682.424	70.54
682.75	70.43
683.077	70.4
683.403	70.39
683.729	70.5
684.056	70.51
684.382	70.88
684.708	71.11
685.034	71.37
685.36	71.36
685.686	71.35
686.012	71.32
686.339	71.45
686.664	71.45
686.99	71.49
687.316	71.62
687.642	71.67
687.968	71.55
688.294	71.57
688.619	71.65
688.945	71.69
689.271	71.88
689.596	71.65
689.922	71.72
690.247	71.75
690.573	71.76
690.898	71.64
691.224	71.62
691.549	71.42
691.874	71.52
692.2	71.46
692.525	71.51
692.85	71.35
693.175	71.38
693.5	71.42
693.825	71.22
694.15	71.23
694.475	71.06
694.8	71.05
695.125	70.87
695.45	71.11
695.775	71.14
696.099	71.16
696.424	71.18
696.749	71.09
697.073	71
697.398	71.16
697.723	71.3
698.047	71.21
698.372	71.45
698.696	71.51
699.02	71.71
699.345	71.64
699.669	71.78
699.993	72
700.318	72.04
700.642	72.28
700.966	72.15
701.29	72.35
701.614	72.4
701.938	72.71
702.262	72.7
702.586	72.7
702.91	72.76
703.234	73.04
703.557	73.04
703.881	73.13
704.205	72.99
704.529	72.66
704.852	72.71
705.176	72.63
705.499	72.52
705.823	72.26
706.146	72.15
706.47	71.84
706.793	71.61
707.117	71.77
707.44	71.59
707.763	71.69
708.086	71.67
708.409	71.61
708.733	71.67
709.056	71.68
709.379	72.04
709.702	72.05
710.025	72
710.348	72.24
710.671	72.31
710.993	72.4
711.316	72.59
711.639	72.57
711.962	72.47
712.284	72.35
712.607	72.37
712.93	72.33
713.252	72.5
713.575	72.41
713.897	72.25
714.22	72.32
714.542	72.35
714.864	72.22
715.187	72.32
715.509	72.12
715.831	72.13
716.153	71.94
716.475	71.98
716.798	71.94
717.12	71.83
717.442	71.96
717.764	71.77
718.085	71.68
718.407	71.61
718.729	71.76
719.051	71.71
719.373	71.8
719.695	72.14
720.016	71.99
720.338	72.14
720.659	72.02
720.981	71.96
721.302	72.12
721.624	72.3
721.945	72.2
722.267	72.26
722.588	72.14
722.909	72.16
723.231	71.9
723.552	72.06
723.873	72.06
724.194	72.03
724.515	72.28
724.836	72.35
725.157	72.25
725.478	71.75
725.799	71.76
726.12	71.61
726.441	71.65
726.762	71.92
727.083	72.03
727.403	72.18
727.724	72.26
728.045	72.15
728.365	72.22
728.686	72.24
729.006	72.37
729.327	72.38
729.647	72.24
729.967	72.23
730.288	72.35
730.608	72.54
730.928	72.69
731.249	72.61
731.569	72.58
731.889	72.66
732.209	72.97
732.529	73.17
732.849	73.37
733.169	73.26
733.489	73.2
733.809	73.14
734.129	73.32
734.448	73.53
734.768	73.8
735.088	73.82
735.408	74.01
735.727	73.97
736.047	74.08
736.366	73.93
736.686	74.12
737.005	74.13
737.325	74.02
737.644	73.83
737.963	73.84
738.283	74.05
738.602	74.17
738.921	74.12
739.24	73.9
739.56	73.54
739.879	73.62
740.198	73.51
740.517	73.21
740.836	73.19
741.155	72.82
741.473	72.81
741.792	72.71
742.111	72.49
742.43	72.6
742.748	72.59
743.067	73.25
743.386	73.23
743.704	73.06
744.023	73.15
744.341	73.11
744.66	73.37
744.978	73.16
745.297	73.23
745.615	73.07
745.933	73.18
746.252	73.43
746.57	73.43
746.888	73.69
747.206	73.7
747.524	73.52
747.842	73.91
748.16	73.41
748.478	73.55
748.796	73.49
749.114	73.29
749.432	72.75
749.749	72.24
750.067	71.96
750.385	71.93
750.703	72.17
751.02	72.22
751.338	71.82
751.655	72.11
751.973	71.97
752.29	72.16
752.608	72.22
752.925	72.1
753.242	72.26
753.56	72.03
753.877	72.21
754.194	72.25
754.511	72.52
754.828	72.73
755.145	72.07
755.462	72.18
755.779	72.4
756.096	72.53
756.413	72.77
756.73	73.1
757.047	73.46
757.364	73.01
757.68	73.04
757.997	73.41
758.314	73.27
758.63	73.12
758.947	73.17
759.264	73.44
759.58	73.78
759.896	73.53
760.213	73.72
760.529	74.04
760.846	74
761.162	73.71
761.478	73.82
761.794	74.23
762.11	74.33
762.426	73.96
762.743	74.17
763.059	74.16
763.375	74.25
763.69	74.08
764.006	74.21
764.322	74.06
764.638	73.94
764.954	74.03
765.27	74.35
765.585	74.18
765.901	74.19
766.216	74.18
766.532	74.17
766.848	74.05
767.163	74
767.478	73.92
767.794	73.96
768.109	73.96
768.424	73.83
768.74	73.82
769.055	74.11
769.37	73.88
769.685	73.73
770	73.1
770.315	72.52
770.63	72.58
770.945	72.63
771.26	72.4
771.575	71.96
771.89	71.49
772.205	72.03
772.52	71.71
772.834	71.64
773.149	71.3
773.464	71.34
773.778	70.96
774.093	71.04
774.407	70.9
774.722	70.81
775.036	70.71
775.351	70.82
775.665	70.52
775.979	70.51
776.293	71.08
776.608	71.26
776.922	72.3
777.236	72.06
777.55	72.59
777.864	72.41
778.178	72.78
778.492	72.69
778.806	72.31
779.12	72.22
779.434	71.48
779.747	71.8
780.061	72.19
780.375	72.28
780.689	72.27
781.002	72.05
781.316	71.75
781.629	71.87
781.943	71.87
782.256	72.15
782.57	72.72
782.883	71.59
783.196	71.68
783.51	71.07
783.823	71.02
784.136	70.91
784.449	71.91
784.762	71.7
785.075	72.13
785.388	71.86
785.701	71.93
786.014	72.13
786.327	72.56
786.64	72.4
786.953	72.27
787.266	72.36
787.578	72.34
787.891	72.92
788.204	72.77
788.516	72.48
788.829	72.4
789.141	71.96
789.454	73.09
789.766	73.58
790.079	73.86
790.391	73.6
790.703	72.87
791.016	72.33
791.328	72.2
791.64	72.47
791.952	72.74
792.264	72.02
792.576	72.97
792.888	72.6
793.2	72.42
793.512	73.02
793.824	73.07
794.136	72.67
794.448	73.1
794.76	73.4
795.071	73.59
795.383	73.38
795.695	73.27
796.006	72.72
796.318	72.84
796.629	72.21
796.941	72.62
797.252	72.63
797.564	72.55
797.875	72.03
798.186	71.8
798.497	71.75
798.809	73
799.12	71.68
799.431	72.23
799.742	72.52
800.053	71.72
800.364	71.92
800.675	73.24
800.986	72.45
801.297	72.54
801.608	72.57
801.918	72.64
802.229	73.38
802.54	72.81
802.851	72.6
803.161	72.55
803.472	72.85
803.782	73.71
804.093	73.13
804.403	73.82
804.714	73.36
805.024	73.62
805.334	72.87
805.645	73.32
805.955	72.67
806.265	72.98
806.575	73.71
806.885	73.03
807.195	71.85
807.505	72.01
807.815	71.69
808.125	71.47
808.435	71.68
808.745	71.33
809.055	71.87
809.365	72.31
809.674	73.36
809.984	73.5
810.294	73.53
810.603	74.28
810.913	74.7
811.222	74.25
811.532	74.31
811.841	75.23
812.151	75.97
812.46	75.94
812.769	75.67
813.079	75.23
813.388	75.58
813.697	76.1
814.006	76.17
814.315	76.38
814.624	77.03
814.933	76.7
815.242	76.3
815.551	76.55
815.86	75.82
816.169	74.64
816.478	74.41
816.786	73.86
817.095	74.54
817.404	74.13
817.712	75.31
818.021	75.21
818.33	73.94
818.638	73.49
818.947	73.74
819.255	74.32
819.563	74.53
819.872	74.53
820.18	74.21
820.488	74.37
820.796	74.35
821.105	74.26
821.413	74.45
821.721	74.63
822.029	74.53
822.337	74.51
822.645	74.84
822.953	74.91
823.26	74.68
823.568	74.53
823.876	74.55
824.184	74.08
824.491	74.08
824.799	74.23
825.107	74.28
825.414	74.49
825.722	74.28
826.029	74.14
826.337	74.35
826.644	74.69
826.951	75.02
827.259	75.43
827.566	75.41
827.873	75.53
828.18	75.68
828.488	75.87
828.795	75.97
829.102	76.13
829.409	76.05
829.716	76.53
830.023	76.53
830.329	77
830.636	78.23
830.943	78.19
831.25	78.34
831.557	78.86
831.863	78.41
832.17	77.98
832.476	78.17
832.783	77.5
833.089	77.18
833.396	75.89
833.702	75.11
834.009	74.63
834.315	74.54
834.621	74.49
834.928	73.89
835.234	74.47
835.54	73.48
835.846	73.6
836.152	73.84
836.458	73.71
836.764	73.95
837.07	73.12
837.376	73.16
837.682	72.99
837.988	71.9
838.293	71.83
838.599	72.96
838.905	72.77
839.211	73.16
839.516	72.11
839.822	72.39
840.127	72.13
840.433	73.4
840.738	73.08
841.044	72.66
841.349	72.41
841.654	70.85
841.959	72.13
842.265	71.57
842.57	71.84
842.875	71.85
843.18	69.55
843.485	70.67
843.79	70.81
844.095	71.79
844.4	73.29
844.705	73.72
845.01	74.09
845.315	74.47
845.619	76.09
845.924	76.69
846.229	76.04
846.533	75.46
846.838	74.77
847.142	74.22
847.447	73.99
847.751	74.66
848.056	74.92
848.36	74.35
848.664	74.58
848.969	73.19
849.273	73.83
849.577	75.35
849.881	71.59
850.185	70.54
850.489	69.83
850.794	68.1
851.097	68.74
851.401	66.32
851.705	68.97
852.009	66.56
852.313	68.07
852.617	70.13
852.92	70.8
853.224	70.99
853.528	71.68
853.831	71.53
854.135	73.06
854.438	73.71
854.742	75.09
855.045	75.65
855.349	76.38
855.652	75.58
855.955	77.4
856.259	78.53
856.562	81.08
856.865	80.62
857.168	81.93
857.471	82.57
857.774	82.43
858.077	80.3
858.38	79.83
858.683	79.78
858.986	79.75
859.289	80.85
859.592	81.31
859.894	82.21
860.197	81.29
860.5	81.55
860.802	83.52
861.105	83.45
861.407	82.75
861.71	79.72
862.012	80.09
862.315	78.66
862.617	79.93
862.919	78.14
863.222	78.67
863.524	79.66
863.826	79.12
864.128	78.77
864.43	77.15
864.732	74.76
865.034	74.3
865.336	72.29
865.638	72.39
865.94	71.15
866.242	70.11
866.544	72.07
866.846	70.49
867.147	67.83
867.449	64.81
867.751	63.91
868.052	65.69
868.354	67.65
868.655	67.18
868.957	67.36
869.258	68.84
869.56	70.39
869.861	71.37
870.162	69.18
870.463	70.25
870.765	70.24
871.066	74.62
871.367	75.18
871.668	75.95
871.969	76.4
872.27	78.89
872.571	79.91
872.872	76.79
873.173	79.11
873.473	80.31
873.774	84.39
874.075	86.82
874.376	85.49
874.676	82.52
874.977	82.42
875.277	85.81
875.578	86.42
875.878	84.77
876.179	82.99
876.479	85.43
876.78	85.19
877.08	87.31
877.38	86.12
877.68	86.1
877.981	88.04
878.281	87.11
878.581	83.4
