Data from BA17726_Reflection_00012.txt Node
Date: Tue Nov 19 11:57:13 EST 2019
User: vgr7
Spectrometer: USB2G7710
Scans to average: 3
Trigger mode: 4
Integration Time (sec): 2.000000E-2
Electric dark correction enabled: true
Boxcar width: 10
XAxis mode: Wavelengths
Number of Pixels in Spectrum: 2048
>>>>>Begin Spectral Data<<<<<
177.721	-80.36
178.105	-218.18
178.488	-108.82
178.871	-101.92
179.254	-87.1
179.636	-42.24
180.019	-30.43
180.402	133.33
180.785	-56.52
181.168	-51.82
181.55	-118.49
181.933	-1076.47
182.316	-865.52
182.698	-428.3
183.081	-242.34
183.463	-450.72
183.846	-340.86
184.228	-199.15
184.611	-124.88
184.993	-132.43
185.376	-148.45
185.758	-92.47
186.14	-129.27
186.522	-74.39
186.904	-73.13
187.287	-101.65
187.669	-62.79
188.051	-27.17
188.433	-2566.67
188.815	-170.27
189.197	31.03
189.579	-47.54
189.961	-48.76
190.342	7.98
190.724	-227.87
191.106	584.85
191.488	-682.61
191.869	-60.62
192.251	-71.6
192.633	-60.8
193.014	-86.15
193.396	-78.48
193.777	-62.43
194.159	-79.86
194.54	-62.09
194.922	-68.74
195.303	-59.69
195.684	-76.76
196.065	-79.37
196.447	-64.75
196.828	-55.53
197.209	-62.23
197.59	-45.81
197.971	-47.97
198.352	-55.36
198.733	-35.36
199.114	-27.31
199.495	-19.02
199.876	-29.07
200.257	-39.37
200.638	-29.17
201.018	-20.04
201.399	-16.33
201.78	-15.75
202.16	-13.1
202.541	-22.51
202.922	-14.19
203.302	-7.3
203.683	-0.66
204.063	-3.45
204.444	9.61
204.824	8.72
205.204	27.84
205.585	15.42
205.965	29.67
206.345	26.28
206.725	33.59
207.106	32.5
207.486	34.74
207.866	38.09
208.246	36.54
208.626	31.26
209.006	16.49
209.386	-2.47
209.766	4.5
210.145	-10.6
210.525	-4.9
210.905	-4.02
211.285	-2.87
211.664	-3.27
212.044	-0.4
212.424	-16.87
212.803	-26.88
213.183	-44.36
213.562	-8.39
213.942	-12.21
214.321	-16.72
214.701	-29.72
215.08	-32.9
215.459	-18.41
215.838	-25.75
216.218	-23.03
216.597	-16.22
216.976	-22.04
217.355	-14.09
217.734	-19.67
218.113	-8.39
218.492	-10.67
218.871	-1.21
219.25	-2.52
219.629	-9.12
220.008	-3.72
220.387	4.69
220.766	13.51
221.144	17.35
221.523	3.98
221.902	3.71
222.28	9.73
222.659	19.5
223.037	18.16
223.416	10.03
223.794	22.81
224.173	20.49
224.551	13.17
224.929	13.82
225.308	14.58
225.686	12.26
226.064	12.34
226.442	8.92
226.821	5.91
227.199	3.25
227.577	7.93
227.955	8.85
228.333	6.55
228.711	0.81
229.089	1.28
229.467	2.98
229.845	1.21
230.222	3.25
230.6	-0.47
230.978	1.35
231.356	2.23
231.733	1.05
232.111	0.35
232.488	0.21
232.866	1.31
233.243	-0.45
233.621	2.03
233.998	2.7
234.376	3.74
234.753	2.65
235.13	3.88
235.508	2.36
235.885	1.1
236.262	0.15
236.639	0.92
237.016	0.92
237.393	1.09
237.77	2.81
238.147	2.18
238.524	3.1
238.901	2.59
239.278	2.29
239.655	3.1
240.032	3.6
240.409	4.64
240.785	5.2
241.162	5.53
241.539	5.13
241.915	4.92
242.292	5.23
242.668	5.54
243.045	5.97
243.421	5.86
243.798	5.87
244.174	6.23
244.551	6.39
244.927	6.34
245.303	5.85
245.679	5.94
246.056	5.94
246.432	5.92
246.808	6.19
247.184	6.3
247.56	5.92
247.936	5.76
248.312	5.97
248.688	5.63
249.064	5.24
249.44	5.45
249.815	5.53
250.191	5.41
250.567	5.35
250.943	5.25
251.318	5.39
251.694	5.23
252.069	5.22
252.445	5.03
252.82	5.38
253.196	5.47
253.571	5.09
253.947	5.13
254.322	5.04
254.697	4.39
255.073	4.4
255.448	4.46
255.823	4.75
256.198	4.14
256.573	4.26
256.948	4.78
257.323	4.62
257.698	4.48
258.073	4.6
258.448	4.48
258.823	4.4
259.198	4.31
259.573	4.23
259.948	4.21
260.322	4.26
260.697	4.08
261.072	4.22
261.446	4.26
261.821	4.18
262.195	4.1
262.57	4.33
262.944	4.33
263.319	4.44
263.693	4.35
264.067	4.44
264.442	4.44
264.816	4.33
265.19	4.22
265.564	4.22
265.938	4.1
266.313	4.15
266.687	4.25
267.061	4.47
267.435	4.76
267.809	4.74
268.183	4.52
268.556	4.33
268.93	4.26
269.304	4.32
269.678	4.4
270.051	4.4
270.425	4.28
270.799	4.09
271.172	4.1
271.546	4.08
271.919	4.13
272.293	4.31
272.666	4.37
273.04	4.47
273.413	4.28
273.787	4.38
274.16	4.26
274.533	4.37
274.906	4.33
275.279	4.16
275.653	4.3
276.026	4.38
276.399	4.71
276.772	4.82
277.145	4.73
277.518	4.79
277.891	5.02
278.263	5.28
278.636	5.54
279.009	5.52
279.382	5.59
279.755	5.58
280.127	5.44
280.5	5.25
280.872	5.14
281.245	5.25
281.617	5.08
281.99	5.17
282.362	4.92
282.735	4.94
283.107	4.96
283.479	4.89
283.852	5.04
284.224	4.88
284.596	4.79
284.968	4.76
285.34	4.71
285.713	4.52
286.085	4.33
286.457	4.38
286.829	4.3
287.201	4.44
287.572	4.47
287.944	4.58
288.316	4.58
288.688	4.71
289.06	4.67
289.431	4.75
289.803	4.75
290.175	4.76
290.546	4.59
290.918	4.62
291.289	4.44
291.661	4.34
292.032	4.47
292.403	4.53
292.775	4.73
293.146	4.73
293.517	4.79
293.889	4.83
294.26	4.79
294.631	4.85
295.002	4.58
295.373	4.52
295.744	4.39
296.115	4.51
296.486	4.62
296.857	4.73
297.228	4.62
297.599	4.58
297.97	4.62
298.34	4.83
298.711	4.95
299.082	5.1
299.452	5.06
299.823	4.96
300.194	4.92
300.564	4.84
300.935	4.86
301.305	4.89
301.676	4.95
302.046	4.81
302.416	4.82
302.787	4.99
303.157	5.06
303.527	5.24
303.897	5.2
304.267	5.02
304.637	5.09
305.008	5.21
305.378	5.34
305.748	5.51
306.117	5.4
306.487	5.31
306.857	5.32
307.227	5.49
307.597	5.44
307.967	5.47
308.336	5.5
308.706	5.53
309.076	5.69
309.445	5.81
309.815	5.93
310.184	5.98
310.554	5.95
310.923	5.89
311.293	5.82
311.662	5.85
312.031	5.94
312.401	5.89
312.77	6.01
313.139	5.96
313.508	5.89
313.877	5.93
314.246	5.94
314.616	6.06
314.985	5.94
315.353	6.21
315.722	6.45
316.091	6.45
316.46	6.54
316.829	6.46
317.198	6.4
317.567	6.62
317.935	6.63
318.304	6.84
318.672	7.01
319.041	7.03
319.41	7.14
319.778	7.13
320.147	7.17
320.515	7.12
320.883	7.16
321.252	7.27
321.62	7.17
321.988	7.31
322.357	7.23
322.725	7.35
323.093	7.11
323.461	7.11
323.829	7.28
324.197	7.38
324.565	7.53
324.933	7.53
325.301	7.28
325.669	7.16
326.037	7.05
326.405	6.94
326.772	7.03
327.14	6.96
327.508	6.84
327.875	6.85
328.243	6.83
328.61	6.91
328.978	6.82
329.346	6.91
329.713	6.77
330.08	7.08
330.448	7.08
330.815	7.18
331.182	7.01
331.55	6.98
331.917	6.67
332.284	6.61
332.651	6.67
333.018	6.85
333.385	6.95
333.752	6.97
334.119	7
334.486	7.01
334.853	6.95
335.22	7.02
335.587	7.09
335.954	7
336.32	7.05
336.687	7.09
337.054	7.02
337.42	7.05
337.787	6.78
338.153	6.71
338.52	6.78
338.886	6.87
339.253	6.71
339.619	6.78
339.986	6.71
340.352	6.67
340.718	6.55
341.084	6.56
341.451	6.64
341.817	6.65
342.183	6.6
342.549	6.66
342.915	6.72
343.281	6.72
343.647	6.85
344.013	6.76
344.379	6.82
344.745	6.97
345.11	7.05
345.476	7.23
345.842	7.26
346.208	7.23
346.573	7.2
346.939	7.36
347.304	7.5
347.67	7.48
348.035	7.55
348.401	7.58
348.766	7.52
349.132	7.45
349.497	7.5
349.862	7.48
350.228	7.5
350.593	7.55
350.958	7.48
351.323	7.4
351.688	7.47
352.053	7.33
352.418	7.28
352.783	7.18
353.148	7.04
353.513	7.04
353.878	7.02
354.243	6.89
354.608	6.85
354.972	6.78
355.337	6.87
355.702	6.79
356.066	6.84
356.431	6.9
356.795	6.9
357.16	6.8
357.524	6.86
357.889	6.8
358.253	6.71
358.618	6.7
358.982	6.73
359.346	6.66
359.71	6.67
360.075	6.75
360.439	6.83
360.803	6.84
361.167	6.81
361.531	6.79
361.895	6.83
362.259	6.8
362.623	6.68
362.987	6.7
363.351	6.71
363.714	6.6
364.078	6.51
364.442	6.45
364.806	6.53
365.169	6.45
365.533	6.48
365.896	6.51
366.26	6.49
366.623	6.45
366.987	6.45
367.35	6.48
367.714	6.43
368.077	6.3
368.44	6.26
368.803	6.17
369.167	6.11
369.53	6.13
369.893	6.07
370.256	6.17
370.619	6.05
370.982	5.95
371.345	6.07
371.708	6.07
372.071	6.1
372.434	6.05
372.797	6.08
373.159	6.07
373.522	6.03
373.885	6.02
374.247	6.02
374.61	5.98
374.973	5.98
375.335	5.89
375.698	5.86
376.06	5.82
376.423	5.81
376.785	5.82
377.147	5.75
377.51	5.72
377.872	5.67
378.234	5.69
378.596	5.66
378.958	5.53
379.321	5.51
379.683	5.49
380.045	5.44
380.407	5.38
380.769	5.33
381.13	5.31
381.492	5.24
381.854	5.24
382.216	5.19
382.578	5.2
382.939	5.17
383.301	5.18
383.663	5.17
384.024	5.24
384.386	5.18
384.747	5.18
385.109	5.18
385.47	5.2
385.832	5.16
386.193	5.15
386.554	5.13
386.916	5.13
387.277	5.08
387.638	5.09
387.999	5.07
388.36	5.06
388.721	5.01
389.082	5.03
389.443	5.03
389.804	5.05
390.165	4.97
390.526	4.96
390.887	4.93
391.248	4.93
391.609	4.95
391.969	4.93
392.33	4.9
392.691	4.88
393.051	4.84
393.412	4.82
393.772	4.85
394.133	4.83
394.493	4.78
394.854	4.78
395.214	4.78
395.574	4.76
395.935	4.75
396.295	4.74
396.655	4.74
397.015	4.7
397.376	4.68
397.736	4.66
398.096	4.62
398.456	4.62
398.816	4.57
399.176	4.43
399.535	4.42
399.895	4.42
400.255	4.42
400.615	4.38
400.975	4.39
401.334	4.39
401.694	4.39
402.054	4.39
402.413	4.36
402.773	4.31
403.132	4.3
403.492	4.3
403.851	4.27
404.211	4.26
404.57	4.24
404.929	4.22
405.288	4.22
405.648	4.24
406.007	4.26
406.366	4.27
406.725	4.28
407.084	4.27
407.443	4.26
407.802	4.23
408.161	4.27
408.52	4.24
408.879	4.22
409.238	4.21
409.596	4.21
409.955	4.22
410.314	4.24
410.673	4.25
411.031	4.22
411.39	4.22
411.748	4.21
412.107	4.2
412.465	4.19
412.824	4.17
413.182	4.1
413.54	4.03
413.899	4.01
414.257	4.01
414.615	4.01
414.974	4.04
415.332	4.02
415.69	3.97
416.048	4
416.406	3.96
416.764	3.97
417.122	3.95
417.48	3.97
417.838	3.95
418.195	3.91
418.553	3.9
418.911	3.87
419.269	3.85
419.626	3.82
419.984	3.8
420.342	3.79
420.699	3.8
421.057	3.81
421.414	3.81
421.772	3.81
422.129	3.8
422.486	3.79
422.844	3.77
423.201	3.77
423.558	3.75
423.915	3.76
424.273	3.76
424.63	3.77
424.987	3.74
425.344	3.74
425.701	3.73
426.058	3.74
426.415	3.74
426.772	3.73
427.128	3.77
427.485	3.79
427.842	3.79
428.199	3.77
428.555	3.76
428.912	3.75
429.269	3.73
429.625	3.74
429.982	3.74
430.338	3.75
430.695	3.73
431.051	3.72
431.407	3.71
431.764	3.69
432.12	3.7
432.476	3.7
432.832	3.69
433.189	3.69
433.545	3.7
433.901	3.72
434.257	3.72
434.613	3.69
434.969	3.65
435.325	3.67
435.681	3.7
436.036	3.7
436.392	3.7
436.748	3.71
437.104	3.71
437.459	3.69
437.815	3.7
438.171	3.72
438.526	3.72
438.882	3.72
439.237	3.71
439.593	3.7
439.948	3.7
440.304	3.7
440.659	3.71
441.014	3.68
441.369	3.69
441.725	3.69
442.08	3.68
442.435	3.7
442.79	3.69
443.145	3.68
443.5	3.67
443.855	3.66
444.21	3.68
444.565	3.65
444.92	3.67
445.275	3.66
445.629	3.65
445.984	3.64
446.339	3.65
446.693	3.65
447.048	3.64
447.403	3.62
447.757	3.61
448.112	3.61
448.466	3.61
448.82	3.6
449.175	3.6
449.529	3.61
449.883	3.61
450.238	3.6
450.592	3.59
450.946	3.58
451.3	3.59
451.654	3.55
452.008	3.57
452.362	3.54
452.716	3.54
453.07	3.55
453.424	3.55
453.778	3.54
454.132	3.54
454.486	3.55
454.839	3.54
455.193	3.58
455.547	3.58
455.9	3.59
456.254	3.6
456.607	3.58
456.961	3.58
457.314	3.58
457.668	3.56
458.021	3.54
458.375	3.54
458.728	3.53
459.081	3.55
459.434	3.56
459.787	3.57
460.141	3.57
460.494	3.59
460.847	3.58
461.2	3.56
461.553	3.55
461.906	3.55
462.259	3.57
462.611	3.56
462.964	3.57
463.317	3.57
463.67	3.56
464.022	3.56
464.375	3.56
464.728	3.57
465.08	3.6
465.433	3.62
465.785	3.64
466.138	3.66
466.49	3.69
466.843	3.69
467.195	3.69
467.547	3.7
467.899	3.69
468.252	3.71
468.604	3.75
468.956	3.77
469.308	3.75
469.66	3.73
470.012	3.73
470.364	3.71
470.716	3.69
471.068	3.71
471.42	3.73
471.772	3.73
472.123	3.73
472.475	3.75
472.827	3.76
473.178	3.78
473.53	3.77
473.882	3.73
474.233	3.72
474.585	3.7
474.936	3.66
475.288	3.64
475.639	3.64
475.99	3.64
476.342	3.63
476.693	3.64
477.044	3.64
477.395	3.63
477.746	3.62
478.097	3.62
478.448	3.61
478.8	3.61
479.15	3.6
479.501	3.59
479.852	3.57
480.203	3.56
480.554	3.55
480.905	3.56
481.255	3.57
481.606	3.57
481.957	3.58
482.307	3.59
482.658	3.6
483.009	3.59
483.359	3.59
483.709	3.59
484.06	3.6
484.41	3.6
484.761	3.62
485.111	3.62
485.461	3.62
485.811	3.62
486.162	3.61
486.512	3.62
486.862	3.63
487.212	3.63
487.562	3.64
487.912	3.64
488.262	3.65
488.612	3.65
488.961	3.67
489.311	3.67
489.661	3.66
490.011	3.66
490.36	3.65
490.71	3.67
491.06	3.68
491.409	3.68
491.759	3.69
492.108	3.68
492.458	3.7
492.807	3.71
493.157	3.72
493.506	3.74
493.855	3.75
494.204	3.76
494.554	3.78
494.903	3.79
495.252	3.8
495.601	3.8
495.95	3.82
496.299	3.8
496.648	3.84
496.997	3.87
497.346	3.9
497.695	3.96
498.043	3.98
498.392	4
498.741	4.03
499.09	4.06
499.438	4.09
499.787	4.08
500.135	4.12
500.484	4.15
500.832	4.15
501.181	4.17
501.529	4.2
501.878	4.25
502.226	4.31
502.574	4.33
502.923	4.34
503.271	4.4
503.619	4.45
503.967	4.49
504.315	4.54
504.663	4.56
505.011	4.58
505.359	4.59
505.707	4.62
506.055	4.65
506.403	4.66
506.751	4.7
507.098	4.75
507.446	4.77
507.794	4.79
508.141	4.83
508.489	4.87
508.837	4.88
509.184	4.88
509.531	4.89
509.879	4.94
510.226	4.99
510.574	5.02
510.921	5.05
511.268	5.09
511.616	5.11
511.963	5.15
512.31	5.19
512.657	5.22
513.004	5.26
513.351	5.31
513.698	5.34
514.045	5.37
514.392	5.44
514.739	5.49
515.086	5.56
515.432	5.62
515.779	5.68
516.126	5.74
516.473	5.79
516.819	5.86
517.166	5.89
517.512	5.91
517.859	5.95
518.205	6
518.552	6.05
518.898	6.11
519.245	6.16
519.591	6.22
519.937	6.29
520.283	6.34
520.629	6.38
520.976	6.46
521.322	6.55
521.668	6.6
522.014	6.67
522.36	6.76
522.706	6.84
523.052	6.95
523.398	7.04
523.743	7.15
524.089	7.24
524.435	7.34
524.781	7.44
525.126	7.53
525.472	7.62
525.817	7.69
526.163	7.77
526.509	7.83
526.854	7.91
527.199	7.97
527.545	8.02
527.89	8.1
528.235	8.17
528.581	8.24
528.926	8.31
529.271	8.38
529.616	8.44
529.961	8.51
530.306	8.58
530.651	8.66
530.996	8.76
531.341	8.85
531.686	8.94
532.031	9.07
532.376	9.18
532.721	9.28
533.065	9.4
533.41	9.52
533.755	9.65
534.099	9.76
534.444	9.9
534.788	10.04
535.133	10.16
535.477	10.31
535.822	10.45
536.166	10.59
536.51	10.78
536.855	10.96
537.199	11.15
537.543	11.33
537.887	11.52
538.231	11.69
538.576	11.89
538.92	12.1
539.264	12.27
539.608	12.43
539.951	12.64
540.295	12.8
540.639	12.94
540.983	13.1
541.327	13.26
541.671	13.41
542.014	13.57
542.358	13.71
542.701	13.85
543.045	14.02
543.389	14.19
543.732	14.35
544.075	14.51
544.419	14.7
544.762	14.86
545.105	15.08
545.449	15.28
545.792	15.49
546.135	15.72
546.478	15.96
546.821	16.22
547.165	16.42
547.508	16.62
547.851	16.88
548.194	17.11
548.536	17.36
548.879	17.6
549.222	17.84
549.565	18.12
549.908	18.37
550.25	18.63
550.593	18.91
550.936	19.17
551.278	19.44
551.621	19.68
551.963	19.97
552.306	20.16
552.648	20.42
552.991	20.65
553.333	20.86
553.675	21.12
554.017	21.32
554.36	21.6
554.702	21.88
555.044	22.13
555.386	22.42
555.728	22.69
556.07	22.95
556.412	23.24
556.754	23.43
557.096	23.74
557.438	23.99
557.78	24.29
558.121	24.53
558.463	24.8
558.805	25.08
559.147	25.4
559.488	25.71
559.83	26.01
560.171	26.28
560.513	26.54
560.854	26.76
561.196	27.08
561.537	27.32
561.878	27.61
562.22	27.9
562.561	28.19
562.902	28.38
563.243	28.7
563.584	28.98
563.925	29.28
564.266	29.49
564.607	29.76
564.948	29.95
565.289	30.26
565.63	30.44
565.971	30.66
566.312	30.87
566.653	31.12
566.993	31.31
567.334	31.59
567.675	31.84
568.015	32.07
568.356	32.29
568.696	32.52
569.037	32.76
569.377	32.98
569.718	33.22
570.058	33.47
570.398	33.64
570.739	33.83
571.079	34.05
571.419	34.31
571.759	34.51
572.099	34.74
572.439	34.89
572.779	35.13
573.119	35.34
573.459	35.53
573.799	35.73
574.139	35.95
574.479	36.05
574.819	36.24
575.158	36.47
575.498	36.6
575.838	36.77
576.177	36.92
576.517	37.13
576.856	37.28
577.196	37.48
577.535	37.66
577.875	37.86
578.214	38.11
578.553	38.31
578.893	38.54
579.232	38.73
579.571	38.96
579.91	39.12
580.25	39.3
580.589	39.48
580.928	39.65
581.267	39.9
581.606	40.16
581.945	40.31
582.283	40.47
582.622	40.73
582.961	40.95
583.3	41.1
583.639	41.34
583.977	41.54
584.316	41.77
584.654	41.94
584.993	42.07
585.332	42.15
585.67	42.29
586.008	42.43
586.347	42.54
586.685	42.69
587.024	42.9
587.362	43.09
587.7	43.26
588.038	43.42
588.376	43.48
588.715	43.61
589.053	43.71
589.391	43.87
589.729	43.99
590.067	44.11
590.404	44.22
590.742	44.38
591.08	44.47
591.418	44.56
591.756	44.75
592.093	44.91
592.431	45.06
592.769	45.19
593.106	45.29
593.444	45.47
593.781	45.54
594.119	45.65
594.456	45.77
594.793	45.89
595.131	45.99
595.468	46.13
595.805	46.24
596.143	46.47
596.48	46.47
596.817	46.53
597.154	46.62
597.491	46.8
597.828	46.83
598.165	46.84
598.502	46.91
598.839	46.95
599.176	47.09
599.512	47.2
599.849	47.32
600.186	47.39
600.523	47.46
600.859	47.61
601.196	47.7
601.532	47.74
601.869	47.86
602.205	47.9
602.542	47.99
602.878	48.02
603.215	48.04
603.551	48.21
603.887	48.32
604.223	48.35
604.56	48.4
604.896	48.5
605.232	48.6
605.568	48.72
605.904	48.85
606.24	48.86
606.576	48.98
606.912	49
607.248	49.14
607.583	49.23
607.919	49.36
608.255	49.41
608.591	49.49
608.926	49.53
609.262	49.57
609.597	49.68
609.933	49.75
610.268	49.81
610.604	49.84
610.939	49.94
611.275	49.99
611.61	50.04
611.945	50.04
612.281	50.11
612.616	50.17
612.951	50.21
613.286	50.25
613.621	50.23
613.956	50.28
614.291	50.31
614.626	50.3
614.961	50.25
615.296	50.34
615.631	50.39
615.966	50.54
616.3	50.71
616.635	50.61
616.97	50.72
617.304	50.8
617.639	50.82
617.973	50.84
618.308	50.96
618.642	50.99
618.977	51.02
619.311	51.09
619.646	51.12
619.98	51.18
620.314	51.23
620.648	51.24
620.983	51.27
621.317	51.35
621.651	51.46
621.985	51.53
622.319	51.57
622.653	51.74
622.987	51.7
623.321	51.73
623.655	51.82
623.988	51.91
624.322	51.97
624.656	52.07
624.99	52.06
625.323	52.17
625.657	52.2
625.99	52.27
626.324	52.21
626.657	52.15
626.991	52.15
627.324	52.27
627.658	52.33
627.991	52.43
628.324	52.41
628.657	52.45
628.991	52.51
629.324	52.54
629.657	52.44
629.99	52.4
630.323	52.36
630.656	52.37
630.989	52.31
631.322	52.3
631.655	52.22
631.987	52.36
632.32	52.38
632.653	52.45
632.986	52.54
633.318	52.69
633.651	52.79
633.984	52.79
634.316	52.78
634.649	52.82
634.981	52.88
635.313	53.01
635.646	53
635.978	53.01
636.31	52.99
636.643	53.05
636.975	53.07
637.307	53.09
637.639	53.21
637.971	53.24
638.303	53.19
638.635	53.36
638.967	53.3
639.299	53.33
639.631	53.31
639.963	53.25
640.295	53.21
640.626	53.2
640.958	53.33
641.29	53.41
641.621	53.47
641.953	53.4
642.285	53.41
642.616	53.43
642.948	53.34
643.279	53.36
643.61	53.38
643.942	53.48
644.273	53.56
644.604	53.56
644.936	53.59
645.267	53.65
645.598	53.53
645.929	53.47
646.26	53.43
646.591	53.5
646.922	53.61
647.253	53.59
647.584	53.68
647.915	53.64
648.245	53.58
648.576	53.62
648.907	53.69
649.238	53.68
649.568	53.72
649.899	53.85
650.229	53.91
650.56	53.99
650.89	54.07
651.221	54.13
651.551	54.04
651.882	54.16
652.212	54.1
652.542	54.22
652.872	54.34
653.203	54.36
653.533	54.4
653.863	54.24
654.193	54.32
654.523	54.29
654.853	54.52
655.183	54.55
655.513	54.58
655.843	54.7
656.172	54.74
656.502	54.7
656.832	54.72
657.162	54.76
657.491	54.71
657.821	54.57
658.15	54.54
658.48	54.59
658.809	54.59
659.139	54.69
659.468	54.63
659.798	54.65
660.127	54.71
660.456	54.57
660.785	54.72
661.115	54.78
661.444	54.81
661.773	54.82
662.102	54.81
662.431	54.77
662.76	54.62
663.089	54.56
663.418	54.64
663.747	54.7
664.076	54.71
664.404	54.8
664.733	54.92
665.062	54.91
665.39	54.97
665.719	54.94
666.048	54.93
666.376	54.94
666.705	54.87
667.033	54.73
667.362	54.98
667.69	54.86
668.018	54.97
668.347	54.93
668.675	54.72
669.003	54.78
669.331	54.78
669.659	54.86
669.987	54.84
670.315	54.91
670.643	54.96
670.971	54.86
671.299	54.89
671.627	55.02
671.955	55.03
672.283	55.09
672.61	55.17
672.938	55.21
673.266	55.41
673.593	55.51
673.921	55.72
674.249	55.63
674.576	55.72
674.904	55.52
675.231	55.67
675.558	55.68
675.886	55.7
676.213	55.66
676.54	55.7
676.867	55.75
677.195	55.87
677.522	55.7
677.849	55.84
678.176	55.7
678.503	55.66
678.83	55.59
679.157	55.65
679.484	55.58
679.81	55.6
680.137	55.54
680.464	55.59
680.791	55.6
681.117	55.7
681.444	55.7
681.771	55.78
682.097	55.73
682.424	55.83
682.75	55.88
683.077	55.96
683.403	55.89
683.729	55.85
684.056	55.71
684.382	55.8
684.708	55.88
685.034	56.05
685.36	55.85
685.686	55.94
686.012	55.89
686.339	55.93
686.664	55.89
686.99	55.84
687.316	55.83
687.642	55.75
687.968	55.71
688.294	55.83
688.619	55.79
688.945	55.74
689.271	55.67
689.596	55.53
689.922	55.6
690.247	55.59
690.573	55.7
690.898	55.65
691.224	55.7
691.549	55.37
691.874	55.18
692.2	55.47
692.525	55.61
692.85	55.51
693.175	55.48
693.5	55.64
693.825	55.7
694.15	55.74
694.475	55.77
694.8	55.78
695.125	55.65
695.45	55.74
695.775	55.63
696.099	55.71
696.424	55.97
696.749	55.95
697.073	55.91
697.398	55.87
697.723	55.89
698.047	55.85
698.372	56.19
698.696	56.38
699.02	56.4
699.345	56.23
699.669	56.34
699.993	56.57
700.318	56.51
700.642	56.63
700.966	56.51
701.29	56.55
701.614	56.51
701.938	56.75
702.262	56.73
702.586	56.98
702.91	57.08
703.234	56.83
703.557	56.9
703.881	57.01
704.205	57.14
704.529	57.23
704.852	57.33
705.176	57.12
705.499	57.09
705.823	56.79
706.146	56.96
706.47	56.84
706.793	56.47
707.117	56.68
707.44	56.41
707.763	56.49
708.086	56.47
708.409	56.56
708.733	56.47
709.056	56.6
709.379	56.72
709.702	56.77
710.025	56.71
710.348	56.7
710.671	56.69
710.993	56.76
711.316	56.77
711.639	56.68
711.962	56.73
712.284	56.8
712.607	57.07
712.93	56.94
713.252	56.93
713.575	57.12
713.897	56.93
714.22	57.03
714.542	57.15
714.864	57.24
715.187	57.21
715.509	57.04
715.831	57.02
716.153	57.05
716.475	56.96
716.798	57.13
717.12	57.15
717.442	57.25
717.764	56.96
718.085	56.85
718.407	56.91
718.729	57
719.051	56.71
719.373	56.76
719.695	56.97
720.016	57.08
720.338	57.02
720.659	57.04
720.981	57.07
721.302	57.08
721.624	56.99
721.945	56.98
722.267	57.18
722.588	57.24
722.909	57.07
723.231	56.76
723.552	56.87
723.873	56.78
724.194	56.76
724.515	57.1
724.836	57.39
725.157	57.41
725.478	57.17
725.799	57.35
726.12	57.2
726.441	57.32
726.762	57.32
727.083	57.37
727.403	57.28
727.724	57.31
728.045	57.12
728.365	57.34
728.686	57.3
729.006	57.33
729.327	57.28
729.647	57.07
729.967	57.48
730.288	57.67
730.608	57.69
730.928	58.06
731.249	57.91
731.569	57.71
731.889	57.74
732.209	57.99
732.529	58.21
732.849	58.18
733.169	58.12
733.489	58.02
733.809	57.98
734.129	57.99
734.448	58.05
734.768	58.43
735.088	58.2
735.408	58.51
735.727	58.53
736.047	58.63
736.366	58.89
736.686	58.75
737.005	58.6
737.325	58.77
737.644	58.57
737.963	58.77
738.283	59.03
738.602	59.08
738.921	59.17
739.24	59.04
739.56	58.85
739.879	58.68
740.198	58.9
740.517	58.63
740.836	58.53
741.155	58.32
741.473	57.93
741.792	57.86
742.111	57.42
742.43	57.44
742.748	57.29
743.067	57.39
743.386	57.22
743.704	57.05
744.023	56.98
744.341	56.82
744.66	56.69
744.978	56.45
745.297	56.44
745.615	56.15
745.933	56.17
746.252	56.18
746.57	56.53
746.888	56.76
747.206	56.96
747.524	57.07
747.842	57.43
748.16	57.53
748.478	57.77
748.796	57.78
749.114	57.79
749.432	57.95
749.749	58.1
750.067	58.12
750.385	58.2
750.703	58.37
751.02	58.48
751.338	58.54
751.655	58.97
751.973	58.89
752.29	58.91
752.608	58.86
752.925	59.24
753.242	59.3
753.56	58.93
753.877	58.91
754.194	59.28
754.511	59.14
754.828	59.24
755.145	59.03
755.462	59.06
755.779	58.85
756.096	58.17
756.413	57.94
756.73	58.07
757.047	58.1
757.364	58.06
757.68	57.82
757.997	57.9
758.314	57.66
758.63	57.75
758.947	57.68
759.264	57.69
759.58	57.77
759.896	57.53
760.213	57.67
760.529	57.91
760.846	57.79
761.162	57.73
761.478	57.72
761.794	57.67
762.11	57.74
762.426	57.49
762.743	57.97
763.059	57.82
763.375	57.65
763.69	57.57
764.006	57.35
764.322	57.51
764.638	57.25
764.954	57.16
765.27	57.19
765.585	57.31
765.901	57.3
766.216	57.11
766.532	56.93
766.848	56.99
767.163	57.02
767.478	57.09
767.794	57.16
768.109	57.06
768.424	57.01
768.74	57.06
769.055	57.31
769.37	56.98
769.685	57.29
770	57.19
770.315	57.6
770.63	57.85
770.945	57.6
771.26	58.03
771.575	58.05
771.89	57.69
772.205	57.75
772.52	57.59
772.834	57.59
773.149	57.87
773.464	57.85
773.778	57.7
774.093	57.44
774.407	57.52
774.722	57.7
775.036	58
775.351	58.03
775.665	58.02
775.979	58.02
776.293	57.61
776.608	57.93
776.922	57.55
777.236	57.23
777.55	57.51
777.864	57.53
778.178	57.55
778.492	58.17
778.806	58.4
779.12	58.54
779.434	58.6
779.747	58.24
780.061	58.36
780.375	58.33
780.689	58.5
781.002	58.33
781.316	58.25
781.629	58.18
781.943	57.85
782.256	58.29
782.57	58.85
782.883	58.4
783.196	58.56
783.51	58.17
783.823	58.32
784.136	58.14
784.449	58.01
784.762	58.53
785.075	58.39
785.388	58.14
785.701	58.18
786.014	58.33
786.327	58.73
786.64	58.64
786.953	58.19
787.266	57.82
787.578	57.66
787.891	58.19
788.204	58.2
788.516	58.16
788.829	58.16
789.141	58.31
789.454	59.07
789.766	59.61
790.079	60.28
790.391	60.12
790.703	60.7
791.016	60.97
791.328	60.54
791.64	60.68
791.952	60.82
792.264	60.44
792.576	60.35
792.888	59.9
793.2	59.97
793.512	60.79
793.824	61.18
794.136	61.25
794.448	60.5
794.76	60.27
795.071	60.81
795.383	60.59
795.695	60.5
796.006	59.61
796.318	59.14
796.629	58.91
796.941	59.51
797.252	59.17
797.564	58.62
797.875	58.36
798.186	58.7
798.497	58.49
798.809	59.02
799.12	58.89
799.431	59.28
799.742	59.13
800.053	58.92
800.364	59.06
800.675	59.07
800.986	59.39
801.297	59.74
801.608	59.88
801.918	60.16
802.229	60.66
802.54	61.05
802.851	60.34
803.161	60.47
803.472	60.3
803.782	60.49
804.093	60.61
804.403	60.32
804.714	59.62
805.024	59.7
805.334	59.66
805.645	59.62
805.955	59.54
806.265	59.5
806.575	59.23
806.885	58.72
807.195	58.88
807.505	59.05
807.815	58.22
808.125	58.12
808.435	57.75
808.745	57.22
809.055	58.01
809.365	58.14
809.674	58.54
809.984	58.37
810.294	58.23
810.603	58.48
810.913	58.81
811.222	58.78
811.532	58.17
811.841	58.35
812.151	58.34
812.46	57.7
812.769	57.85
813.079	58.3
813.388	58.79
813.697	58.74
814.006	59.12
814.315	59.49
814.624	59.91
814.933	60.25
815.242	59.51
815.551	59.5
815.86	60.05
816.169	59.16
816.478	59.24
816.786	59.22
817.095	59.25
817.404	58.88
817.712	59.84
818.021	60.6
818.33	59.85
818.638	60.4
818.947	60.59
819.255	60.93
819.563	60.23
819.872	59.76
820.18	59.57
820.488	59.7
820.796	59.77
821.105	59.45
821.413	59.36
821.721	59.58
822.029	59.59
822.337	59.63
822.645	59.59
822.953	59.42
823.26	59.31
823.568	59.18
823.876	59.31
824.184	59
824.491	59
824.799	59.01
825.107	59
825.414	59.17
825.722	59.04
826.029	59.22
826.337	59.25
826.644	59.43
826.951	59.33
827.259	59.69
827.566	59.64
827.873	59.98
828.18	60.09
828.488	59.96
828.795	60.28
829.102	60.32
829.409	60.57
829.716	60.77
830.023	60.76
830.329	61.05
830.636	61.07
830.943	61.27
831.25	61.22
831.557	61.18
831.863	60.83
832.17	60.62
832.476	60.64
832.783	60.74
833.089	60.12
833.396	59.54
833.702	59.03
834.009	58.49
834.315	57.8
834.621	57.84
834.928	57.86
835.234	57.33
835.54	57.8
835.846	57.52
836.152	57.64
836.458	58.61
836.764	58.73
837.07	58.72
837.376	58.69
837.682	58.67
837.988	57.82
838.293	57.47
838.599	57.66
838.905	57.45
839.211	57.2
839.516	57.38
839.822	57.59
840.127	56.9
840.433	57.95
840.738	57.34
841.044	56.41
841.349	56.78
841.654	55.75
841.959	54.69
842.265	55.72
842.57	55.98
842.875	54.49
843.18	54.09
843.485	54.84
843.79	54.27
844.095	56.22
844.4	56.7
844.705	56.63
845.01	56.87
845.315	56.05
845.619	56.23
845.924	56.65
846.229	56.66
846.533	56.87
846.838	56.68
847.142	56.85
847.447	57.02
847.751	54.69
848.056	54.85
848.36	55.07
848.664	54.7
848.969	53.35
849.273	53.2
849.577	52.28
849.881	48.96
850.185	48.27
850.489	48.32
850.794	47.12
851.097	48.19
851.401	46.33
851.705	47.96
852.009	50.53
852.313	51.31
852.617	51.78
852.92	53.69
853.224	55.66
853.528	57.42
853.831	58.89
854.135	61.02
854.438	61.24
854.742	63.71
855.045	62.79
855.349	62.46
855.652	61.11
855.955	60.63
856.259	60.15
856.562	60.81
856.865	57.67
857.168	60.63
857.471	61.26
857.774	61.45
858.077	62.54
858.38	60.78
858.683	59.63
858.986	60.58
859.289	59.29
859.592	58.21
859.894	57.4
860.197	54.61
860.5	55.77
860.802	55.16
861.105	54.77
861.407	53.66
861.71	52.88
862.012	53.31
862.315	53.62
862.617	59.27
862.919	58.98
863.222	58.29
863.524	57.62
863.826	56.97
864.128	59.4
864.43	58.66
864.732	59.16
865.034	57.48
865.336	55.59
865.638	55.63
865.94	56.93
866.242	55.48
866.544	56.18
866.846	56.45
867.147	58.21
867.449	58.36
867.751	59.94
868.052	63.05
868.354	64.58
868.655	65.31
868.957	65.28
869.258	64.54
869.56	66.63
869.861	67.38
870.162	65.84
870.463	63.14
870.765	64.63
871.066	64.63
871.367	64.53
871.668	63.59
871.969	64.83
872.27	62.24
872.571	64.53
872.872	63.68
873.173	61.37
873.473	61.66
873.774	60.77
874.075	60.96
874.376	59.4
874.676	61.03
874.977	62.06
875.277	64.21
875.578	65.11
875.878	64.9
876.179	64.78
876.479	67.49
876.78	69.36
877.08	66.51
877.38	66.07
877.68	70.16
877.981	73.67
878.281	71.09
878.581	72.79
