Data from BA17724_Reflection_00013.txt Node
Date: Tue Nov 19 11:58:10 EST 2019
User: vgr7
Spectrometer: USB2G7710
Scans to average: 3
Trigger mode: 4
Integration Time (sec): 2.000000E-2
Electric dark correction enabled: true
Boxcar width: 10
XAxis mode: Wavelengths
Number of Pixels in Spectrum: 2048
>>>>>Begin Spectral Data<<<<<
177.721	220.95
178.105	295.12
178.488	94.72
178.871	2.27
179.254	-156.25
179.636	-303.23
180.019	-143.9
180.402	66.67
180.785	92.86
181.168	25.13
181.55	256.25
181.933	97.7
182.316	134.6
182.698	124.73
183.081	180.11
183.463	167.76
183.846	253.37
184.228	214.17
184.611	4850
184.993	380
185.376	-145.76
185.758	5225
186.14	200
186.522	831.34
186.904	1625
187.287	335.18
187.669	258.93
188.051	294.63
188.433	199.33
188.815	204.22
189.197	237.28
189.579	162.5
189.961	234.62
190.342	232.29
190.724	257.08
191.106	195.89
191.488	198.88
191.869	151.81
192.251	150.16
192.633	139.86
193.014	221.84
193.396	188.3
193.777	403.87
194.159	378.07
194.54	350
194.922	400.68
195.303	1137.5
195.684	1100
196.065	-1095.12
196.447	-653.25
196.828	1169.77
197.209	-1460.98
197.59	-1357.45
197.971	705.26
198.352	480.17
198.733	327.72
199.114	443.2
199.495	380.61
199.876	300.66
200.257	765.29
200.638	3863.16
201.018	459.55
201.399	4287.5
201.78	292.31
202.16	354.29
202.541	299.58
202.922	252.17
203.302	248.9
203.683	229.58
204.063	179.78
204.444	218.32
204.824	928.57
205.204	771.87
205.585	2171.43
205.965	-329.25
206.345	-255.87
206.725	-160.29
207.106	-113.28
207.486	-112.4
207.866	-90.24
208.246	-49.91
208.626	-89.66
209.006	-62.29
209.386	-74.27
209.766	-89.29
210.145	-77.3
210.525	-81.38
210.905	-86.79
211.285	-87.58
211.664	-75.15
212.044	-65.41
212.424	-74.54
212.803	-73.91
213.183	-85.08
213.562	-72.73
213.942	-69.31
214.321	-65.62
214.701	-81.31
215.08	-73.59
215.459	-53.14
215.838	-107.58
216.218	-134.47
216.597	-93.7
216.976	-102.01
217.355	-94.11
217.734	-86.93
218.113	-93.99
218.492	-103.1
218.871	-113.91
219.25	-96.88
219.629	-149.59
220.008	-194.43
220.387	-202.44
220.766	-125.03
221.144	-128.98
221.523	-157.1
221.902	-148.73
222.28	-136.14
222.659	-96.81
223.037	-107.93
223.416	-92.34
223.794	-66.41
224.173	-71.14
224.551	-63.19
224.929	-49.53
225.308	-50.48
225.686	-51.32
226.064	-48.55
226.442	-44.1
226.821	-33.47
227.199	-25.29
227.577	-17.85
227.955	-8.9
228.333	-16
228.711	-18.25
229.089	-14.4
229.467	-8.97
229.845	-11.01
230.222	-8.6
230.6	-11.84
230.978	-11.94
231.356	-11.94
231.733	-11.84
232.111	-10.55
232.488	-11.71
232.866	-11.13
233.243	-10.84
233.621	-7.11
233.998	-5.59
234.376	-3.65
234.753	-4.99
235.13	-5.83
235.508	-5.72
235.885	-8.54
236.262	-5.14
236.639	-3.31
237.016	-3.22
237.393	-3.47
237.77	-0.91
238.147	-0.74
238.524	0.76
238.901	1.56
239.278	1.36
239.655	1.69
240.032	2.73
240.409	2.9
240.785	2.92
241.162	3.48
241.539	3.08
241.915	2.93
242.292	3.15
242.668	3.81
243.045	4.35
243.421	4.01
243.798	4.25
244.174	4.16
244.551	4.2
244.927	4.41
245.303	4.33
245.679	4.34
246.056	4.38
246.432	4.24
246.808	4.5
247.184	4.77
247.56	4.61
247.936	4.54
248.312	4.63
248.688	4.7
249.064	4.42
249.44	4.27
249.815	4.35
250.191	4.3
250.567	4.06
250.943	3.55
251.318	3.43
251.694	3.29
252.069	3.23
252.445	3.2
252.82	3.21
253.196	3.15
253.571	2.83
253.947	2.72
254.322	2.57
254.697	2.33
255.073	2.3
255.448	2.48
255.823	2.56
256.198	2.6
256.573	2.83
256.948	3.16
257.323	3.46
257.698	3.35
258.073	3.36
258.448	3.57
258.823	3.61
259.198	3.88
259.573	3.93
259.948	3.92
260.322	3.96
260.697	3.96
261.072	3.96
261.446	4.09
261.821	4.08
262.195	4.2
262.57	4.19
262.944	4.15
263.319	4.23
263.693	4.3
264.067	4.18
264.442	3.84
264.816	3.74
265.19	3.66
265.564	3.63
265.938	3.64
266.313	3.68
266.687	3.94
267.061	3.93
267.435	3.91
267.809	3.81
268.183	3.67
268.556	3.39
268.93	3.4
269.304	3.28
269.678	3.35
270.051	3.23
270.425	3.38
270.799	3.22
271.172	3.26
271.546	3.01
271.919	3.07
272.293	3.27
272.666	3.31
273.04	3.16
273.413	3.1
273.787	2.94
274.16	2.73
274.533	2.65
274.906	2.57
275.279	2.44
275.653	2.46
276.026	2.41
276.399	2.49
276.772	2.59
277.145	2.42
277.518	2.26
277.891	2.44
278.263	2.09
278.636	2.32
279.009	2.34
279.382	2.42
279.755	2.47
280.127	2.48
280.5	2.44
280.872	2.57
281.245	2.74
281.617	2.74
281.99	2.78
282.362	2.83
282.735	3.14
283.107	3.16
283.479	3.26
283.852	3.34
284.224	3.38
284.596	3.24
284.968	3.34
285.34	3.35
285.713	3.32
286.085	3.42
286.457	3.45
286.829	3.4
287.201	3.51
287.572	3.64
287.944	3.67
288.316	3.86
288.688	3.91
289.06	3.96
289.431	4.2
289.803	4.35
290.175	4.21
290.546	3.99
290.918	4.06
291.289	3.91
291.661	4.02
292.032	4.09
292.403	4.07
292.775	4.13
293.146	4.21
293.517	4.09
293.889	4.15
294.26	4.06
294.631	4.21
295.002	4.24
295.373	4.15
295.744	4.11
296.115	3.95
296.486	4.02
296.857	4.18
297.228	4.09
297.599	3.89
297.97	3.98
298.34	4.07
298.711	4.24
299.082	4.47
299.452	4.36
299.823	4.45
300.194	4.6
300.564	4.64
300.935	4.74
301.305	4.87
301.676	4.78
302.046	4.86
302.416	4.75
302.787	4.68
303.157	4.75
303.527	4.88
303.897	4.89
304.267	4.79
304.637	4.55
305.008	4.55
305.378	4.74
305.748	4.89
306.117	4.72
306.487	4.63
306.857	4.48
307.227	4.69
307.597	4.67
307.967	4.57
308.336	4.56
308.706	4.38
309.076	4.27
309.445	4.57
309.815	4.64
310.184	4.5
310.554	4.52
310.923	4.43
311.293	4.25
311.662	4.42
312.031	4.49
312.401	4.5
312.77	4.58
313.139	4.65
313.508	4.51
313.877	4.59
314.246	4.53
314.616	4.69
314.985	4.54
315.353	4.41
315.722	4.58
316.091	4.76
316.46	4.88
316.829	5.09
317.198	5.04
317.567	5.09
317.935	5.15
318.304	5.17
318.672	5.29
319.041	5.39
319.41	5.2
319.778	5.29
320.147	5.49
320.515	5.57
320.883	5.54
321.252	5.76
321.62	5.9
321.988	6.04
322.357	5.97
322.725	6.09
323.093	6.14
323.461	6.05
323.829	5.86
324.197	5.92
324.565	5.93
324.933	5.9
325.301	5.78
325.669	5.89
326.037	5.95
326.405	5.95
326.772	6.08
327.14	6.21
327.508	6.07
327.875	5.9
328.243	5.85
328.61	5.81
328.978	5.79
329.346	5.78
329.713	5.81
330.08	5.81
330.448	5.73
330.815	5.87
331.182	6.01
331.55	6.17
331.917	6.18
332.284	6.36
332.651	6.26
333.018	6.3
333.385	6.27
333.752	6.15
334.119	6.27
334.486	6.45
334.853	6.48
335.22	6.54
335.587	6.59
335.954	6.63
336.32	6.69
336.687	6.7
337.054	6.67
337.42	6.63
337.787	6.68
338.153	6.78
338.52	6.87
338.886	6.83
339.253	6.71
339.619	6.75
339.986	6.57
340.352	6.6
340.718	6.66
341.084	6.71
341.451	6.79
341.817	6.73
342.183	6.49
342.549	6.65
342.915	6.82
343.281	6.92
343.647	6.92
344.013	6.97
344.379	6.91
344.745	6.96
345.11	7.05
345.476	7.14
345.842	7.02
346.208	6.92
346.573	6.97
346.939	7.01
347.304	7.05
347.67	7.18
348.035	7.16
348.401	7.22
348.766	7.27
349.132	7.34
349.497	7.44
349.862	7.54
350.228	7.48
350.593	7.35
350.958	7.3
351.323	7.41
351.688	7.45
352.053	7.62
352.418	7.62
352.783	7.51
353.148	7.44
353.513	7.56
353.878	7.44
354.243	7.36
354.608	7.33
354.972	7.24
355.337	7.17
355.702	7.26
356.066	7.21
356.431	7.27
356.795	7.28
357.16	7.18
357.524	7.23
357.889	7.17
358.253	7.16
358.618	7.23
358.982	7.12
359.346	7.03
359.71	6.93
360.075	6.96
360.439	7.05
360.803	7.05
361.167	7.01
361.531	7.1
361.895	7.16
362.259	7.2
362.623	7.28
362.987	7.3
363.351	7.28
363.714	7.3
364.078	7.27
364.442	7.19
364.806	7.21
365.169	7.13
365.533	7.18
365.896	7.22
366.26	7.17
366.623	7.18
366.987	7.25
367.35	7.24
367.714	7.18
368.077	7.22
368.44	7.14
368.803	7.09
369.167	7.05
369.53	6.98
369.893	7.01
370.256	6.96
370.619	6.81
370.982	6.72
371.345	6.72
371.708	6.71
372.071	6.73
372.434	6.72
372.797	6.7
373.159	6.64
373.522	6.54
373.885	6.58
374.247	6.55
374.61	6.46
374.973	6.38
375.335	6.41
375.698	6.22
376.06	6.28
376.423	6.27
376.785	6.24
377.147	6.27
377.51	6.17
377.872	6.11
378.234	6.25
378.596	6.24
378.958	6.19
379.321	6.17
379.683	6.15
380.045	6.13
380.407	6.09
380.769	6.04
381.13	6.03
381.492	5.88
381.854	5.81
382.216	5.83
382.578	5.84
382.939	5.77
383.301	5.79
383.663	5.77
384.024	5.75
384.386	5.71
384.747	5.65
385.109	5.63
385.47	5.63
385.832	5.53
386.193	5.53
386.554	5.48
386.916	5.42
387.277	5.39
387.638	5.33
387.999	5.34
388.36	5.33
388.721	5.33
389.082	5.38
389.443	5.42
389.804	5.39
390.165	5.41
390.526	5.36
390.887	5.34
391.248	5.27
391.609	5.3
391.969	5.31
392.33	5.26
392.691	5.25
393.051	5.21
393.412	5.21
393.772	5.21
394.133	5.17
394.493	5.15
394.854	5.12
395.214	5.13
395.574	5.15
395.935	5.12
396.295	5.11
396.655	5.09
397.015	5.06
397.376	4.99
397.736	4.92
398.096	4.92
398.456	4.86
398.816	4.88
399.176	4.72
399.535	4.69
399.895	4.69
400.255	4.68
400.615	4.66
400.975	4.64
401.334	4.57
401.694	4.55
402.054	4.54
402.413	4.49
402.773	4.48
403.132	4.42
403.492	4.44
403.851	4.44
404.211	4.39
404.57	4.34
404.929	4.36
405.288	4.4
405.648	4.38
406.007	4.38
406.366	4.33
406.725	4.39
407.084	4.39
407.443	4.36
407.802	4.33
408.161	4.33
408.52	4.3
408.879	4.33
409.238	4.35
409.596	4.35
409.955	4.37
410.314	4.37
410.673	4.35
411.031	4.32
411.39	4.3
411.748	4.31
412.107	4.31
412.465	4.28
412.824	4.23
413.182	4.22
413.54	4.26
413.899	4.27
414.257	4.27
414.615	4.23
414.974	4.24
415.332	4.25
415.69	4.24
416.048	4.23
416.406	4.21
416.764	4.17
417.122	4.14
417.48	4.13
417.838	4.11
418.195	4.11
418.553	4.07
418.911	4.03
419.269	4.03
419.626	4.02
419.984	4.02
420.342	4.02
420.699	4
421.057	3.97
421.414	3.97
421.772	3.95
422.129	3.93
422.486	3.93
422.844	3.91
423.201	3.88
423.558	3.87
423.915	3.87
424.273	3.88
424.63	3.88
424.987	3.88
425.344	3.84
425.701	3.82
426.058	3.83
426.415	3.83
426.772	3.82
427.128	3.83
427.485	3.81
427.842	3.8
428.199	3.8
428.555	3.8
428.912	3.78
429.269	3.78
429.625	3.78
429.982	3.77
430.338	3.77
430.695	3.78
431.051	3.78
431.407	3.76
431.764	3.75
432.12	3.74
432.476	3.72
432.832	3.76
433.189	3.75
433.545	3.73
433.901	3.74
434.257	3.74
434.613	3.71
434.969	3.71
435.325	3.71
435.681	3.71
436.036	3.71
436.392	3.72
436.748	3.71
437.104	3.7
437.459	3.7
437.815	3.7
438.171	3.7
438.526	3.7
438.882	3.7
439.237	3.7
439.593	3.73
439.948	3.72
440.304	3.7
440.659	3.7
441.014	3.71
441.369	3.7
441.725	3.71
442.08	3.72
442.435	3.72
442.79	3.69
443.145	3.71
443.5	3.67
443.855	3.64
444.21	3.66
444.565	3.66
444.92	3.66
445.275	3.63
445.629	3.61
445.984	3.59
446.339	3.59
446.693	3.57
447.048	3.54
447.403	3.53
447.757	3.53
448.112	3.52
448.466	3.52
448.82	3.52
449.175	3.5
449.529	3.5
449.883	3.48
450.238	3.5
450.592	3.49
450.946	3.5
451.3	3.52
451.654	3.49
452.008	3.49
452.362	3.46
452.716	3.47
453.07	3.5
453.424	3.51
453.778	3.51
454.132	3.51
454.486	3.51
454.839	3.51
455.193	3.51
455.547	3.53
455.9	3.54
456.254	3.54
456.607	3.55
456.961	3.54
457.314	3.56
457.668	3.54
458.021	3.55
458.375	3.56
458.728	3.56
459.081	3.57
459.434	3.57
459.787	3.62
460.141	3.65
460.494	3.66
460.847	3.64
461.2	3.65
461.553	3.65
461.906	3.65
462.259	3.66
462.611	3.68
462.964	3.67
463.317	3.67
463.67	3.69
464.022	3.71
464.375	3.71
464.728	3.72
465.08	3.71
465.433	3.7
465.785	3.73
466.138	3.74
466.49	3.76
466.843	3.78
467.195	3.78
467.547	3.78
467.899	3.77
468.252	3.8
468.604	3.79
468.956	3.8
469.308	3.83
469.66	3.85
470.012	3.85
470.364	3.84
470.716	3.82
471.068	3.79
471.42	3.78
471.772	3.8
472.123	3.78
472.475	3.82
472.827	3.82
473.178	3.81
473.53	3.79
473.882	3.8
474.233	3.82
474.585	3.8
474.936	3.78
475.288	3.78
475.639	3.78
475.99	3.78
476.342	3.78
476.693	3.78
477.044	3.77
477.395	3.75
477.746	3.76
478.097	3.76
478.448	3.76
478.8	3.77
479.15	3.75
479.501	3.75
479.852	3.74
480.203	3.73
480.554	3.73
480.905	3.73
481.255	3.72
481.606	3.71
481.957	3.71
482.307	3.7
482.658	3.72
483.009	3.71
483.359	3.72
483.709	3.72
484.06	3.71
484.41	3.72
484.761	3.72
485.111	3.74
485.461	3.74
485.811	3.75
486.162	3.75
486.512	3.76
486.862	3.76
487.212	3.77
487.562	3.77
487.912	3.78
488.262	3.79
488.612	3.8
488.961	3.8
489.311	3.81
489.661	3.83
490.011	3.82
490.36	3.82
490.71	3.83
491.06	3.83
491.409	3.84
491.759	3.85
492.108	3.85
492.458	3.85
492.807	3.87
493.157	3.89
493.506	3.88
493.855	3.89
494.204	3.91
494.554	3.92
494.903	3.93
495.252	3.96
495.601	3.97
495.95	3.99
496.299	4.02
496.648	4.03
496.997	4.06
497.346	4.12
497.695	4.16
498.043	4.19
498.392	4.24
498.741	4.28
499.09	4.31
499.438	4.36
499.787	4.37
500.135	4.4
500.484	4.44
500.832	4.49
501.181	4.55
501.529	4.59
501.878	4.63
502.226	4.68
502.574	4.71
502.923	4.74
503.271	4.78
503.619	4.81
503.967	4.86
504.315	4.91
504.663	4.92
505.011	4.94
505.359	4.97
505.707	5
506.055	5.04
506.403	5.07
506.751	5.1
507.098	5.18
507.446	5.25
507.794	5.28
508.141	5.33
508.489	5.36
508.837	5.38
509.184	5.44
509.531	5.49
509.879	5.55
510.226	5.63
510.574	5.67
510.921	5.7
511.268	5.73
511.616	5.79
511.963	5.85
512.31	5.91
512.657	5.98
513.004	6.05
513.351	6.1
513.698	6.16
514.045	6.23
514.392	6.28
514.739	6.33
515.086	6.41
515.432	6.47
515.779	6.55
516.126	6.65
516.473	6.7
516.819	6.75
517.166	6.8
517.512	6.85
517.859	6.94
518.205	7.03
518.552	7.1
518.898	7.17
519.245	7.25
519.591	7.33
519.937	7.38
520.283	7.47
520.629	7.54
520.976	7.64
521.322	7.74
521.668	7.82
522.014	7.91
522.36	7.99
522.706	8.1
523.052	8.23
523.398	8.34
523.743	8.48
524.089	8.62
524.435	8.72
524.781	8.83
525.126	8.93
525.472	9.02
525.817	9.11
526.163	9.18
526.509	9.26
526.854	9.34
527.199	9.44
527.545	9.53
527.89	9.62
528.235	9.7
528.581	9.8
528.926	9.89
529.271	9.98
529.616	10.09
529.961	10.19
530.306	10.29
530.651	10.37
530.996	10.49
531.341	10.61
531.686	10.76
532.031	10.9
532.376	11.03
532.721	11.2
533.065	11.36
533.41	11.54
533.755	11.72
534.099	11.89
534.444	12.08
534.788	12.23
535.133	12.4
535.477	12.58
535.822	12.76
536.166	12.98
536.51	13.2
536.855	13.43
537.199	13.68
537.543	13.93
537.887	14.21
538.231	14.48
538.576	14.72
538.92	14.96
539.264	15.19
539.608	15.44
539.951	15.63
540.295	15.87
540.639	16.08
540.983	16.28
541.327	16.48
541.671	16.67
542.014	16.9
542.358	17.11
542.701	17.31
543.045	17.51
543.389	17.75
543.732	17.98
544.075	18.2
544.419	18.43
544.762	18.68
545.105	18.95
545.449	19.22
545.792	19.55
546.135	19.89
546.478	20.23
546.821	20.59
547.165	21.01
547.508	21.36
547.851	21.75
548.194	22.13
548.536	22.51
548.879	22.9
549.222	23.32
549.565	23.74
549.908	24.14
550.25	24.56
550.593	24.98
550.936	25.42
551.278	25.85
551.621	26.26
551.963	26.72
552.306	27.12
552.648	27.56
552.991	27.94
553.333	28.27
553.675	28.68
554.017	29.01
554.36	29.35
554.702	29.7
555.044	30.06
555.386	30.44
555.728	30.87
556.07	31.3
556.412	31.63
556.754	32.03
557.096	32.52
557.438	32.95
557.78	33.25
558.121	33.64
558.463	34.03
558.805	34.46
559.147	34.75
559.488	35.14
559.83	35.45
560.171	35.79
560.513	36.19
560.854	36.49
561.196	36.9
561.537	37.22
561.878	37.48
562.22	37.8
562.561	38.13
562.902	38.5
563.243	38.81
563.584	39.13
563.925	39.5
564.266	39.68
564.607	39.94
564.948	40.33
565.289	40.6
565.63	40.86
565.971	41.16
566.312	41.45
566.653	41.71
566.993	42
567.334	42.3
567.675	42.5
568.015	42.81
568.356	43
568.696	43.3
569.037	43.66
569.377	43.92
569.718	44.17
570.058	44.34
570.398	44.58
570.739	44.8
571.079	44.95
571.419	45.37
571.759	45.57
572.099	45.77
572.439	46.05
572.779	46.25
573.119	46.43
573.459	46.66
573.799	46.9
574.139	47.12
574.479	47.35
574.819	47.64
575.158	47.85
575.498	48.22
575.838	48.45
576.177	48.73
576.517	49
576.856	49.28
577.196	49.59
577.535	49.88
577.875	50.24
578.214	50.54
578.553	50.68
578.893	51.03
579.232	51.32
579.571	51.59
579.91	51.93
580.25	52.23
580.589	52.64
580.928	52.92
581.267	53.21
581.606	53.49
581.945	53.67
582.283	53.91
582.622	54.04
582.961	54.26
583.3	54.38
583.639	54.63
583.977	54.9
584.316	55.13
584.654	55.21
584.993	55.39
585.332	55.62
585.67	55.79
586.008	55.97
586.347	56.08
586.685	56.21
587.024	56.37
587.362	56.55
587.7	56.55
588.038	56.64
588.376	56.65
588.715	56.7
589.053	56.89
589.391	57.01
589.729	57.25
590.067	57.37
590.404	57.42
590.742	57.52
591.08	57.58
591.418	57.63
591.756	57.77
592.093	57.82
592.431	57.85
592.769	57.87
593.106	57.91
593.444	57.96
593.781	58.03
594.119	58.06
594.456	58.08
594.793	58.23
595.131	58.25
595.468	58.39
595.805	58.45
596.143	58.52
596.48	58.63
596.817	58.67
597.154	58.76
597.491	58.9
597.828	58.93
598.165	58.93
598.502	59.03
598.839	59.16
599.176	59.16
599.512	59.26
599.849	59.34
600.186	59.41
600.523	59.54
600.859	59.54
601.196	59.64
601.532	59.75
601.869	59.74
602.205	59.88
602.542	59.92
602.878	59.98
603.215	60.04
603.551	60.07
603.887	60.06
604.223	60.05
604.56	60.07
604.896	60.1
605.232	60.2
605.568	60.31
605.904	60.37
606.24	60.44
606.576	60.46
606.912	60.6
607.248	60.69
607.583	60.73
607.919	60.92
608.255	61.06
608.591	61.11
608.926	61.22
609.262	61.23
609.597	61.38
609.933	61.56
610.268	61.65
610.604	61.81
610.939	61.91
611.275	62.14
611.61	62.29
611.945	62.41
612.281	62.5
612.616	62.65
612.951	62.76
613.286	62.94
613.621	63.19
613.956	63.3
614.291	63.42
614.626	63.68
614.961	63.76
615.296	63.85
615.631	63.98
615.966	64.08
616.3	64.24
616.635	64.31
616.97	64.29
617.304	64.34
617.639	64.28
617.973	64.32
618.308	64.28
618.642	64.33
618.977	64.47
619.311	64.55
619.646	64.54
619.98	64.58
620.314	64.62
620.648	64.58
620.983	64.76
621.317	64.8
621.651	64.71
621.985	64.63
622.319	64.61
622.653	64.59
622.987	64.49
623.321	64.54
623.655	64.37
623.988	64.33
624.322	64.28
624.656	64.26
624.99	64.31
625.323	64.23
625.657	64.18
625.99	64.21
626.324	64.16
626.657	64.19
626.991	64.15
627.324	64.11
627.658	64.09
627.991	64.09
628.324	64.11
628.657	64.13
628.991	64.22
629.324	64.39
629.657	64.54
629.99	64.7
630.323	64.75
630.656	64.86
630.989	65
631.322	65.07
631.655	65.18
631.987	65.27
632.32	65.37
632.653	65.49
632.986	65.48
633.318	65.63
633.651	65.59
633.984	65.75
634.316	65.88
634.649	66.02
634.981	65.96
635.313	66.01
635.646	66.23
635.978	66.29
636.31	66.31
636.643	66.23
636.975	66.37
637.307	66.46
637.639	66.6
637.971	66.68
638.303	66.77
638.635	66.86
638.967	66.95
639.299	67.13
639.631	67.31
639.963	67.33
640.295	67.43
640.626	67.47
640.958	67.59
641.29	67.73
641.621	67.77
641.953	67.84
642.285	67.86
642.616	67.78
642.948	67.86
643.279	67.74
643.61	67.91
643.942	67.87
644.273	67.66
644.604	67.68
644.936	67.8
645.267	67.91
645.598	67.91
645.929	67.74
646.26	67.59
646.591	67.4
646.922	67.48
647.253	67.31
647.584	67.29
647.915	67.2
648.245	67.03
648.576	66.97
648.907	66.87
649.238	66.86
649.568	66.76
649.899	66.65
650.229	66.73
650.56	66.55
650.89	66.53
651.221	66.76
651.551	66.78
651.882	66.7
652.212	66.63
652.542	66.61
652.872	66.78
653.203	66.84
653.533	66.87
653.863	66.68
654.193	66.62
654.523	66.59
654.853	66.44
655.183	66.44
655.513	66.28
655.843	66.34
656.172	66.39
656.502	66.41
656.832	66.55
657.162	66.41
657.491	66.41
657.821	66.38
658.15	66.18
658.48	66.21
658.809	66.18
659.139	66.17
659.468	66.14
659.798	66.2
660.127	66.19
660.456	66.3
660.785	66.5
661.115	66.65
661.444	66.73
661.773	66.86
662.102	66.95
662.431	67.15
662.76	67.26
663.089	67.43
663.418	67.61
663.747	67.53
664.076	67.67
664.404	67.73
664.733	67.73
665.062	67.91
665.39	67.85
665.719	67.91
666.048	67.81
666.376	67.93
666.705	67.83
667.033	67.79
667.362	67.63
667.69	67.67
668.018	67.76
668.347	67.9
668.675	67.86
669.003	67.77
669.331	67.92
669.659	67.96
669.987	67.84
670.315	67.71
670.643	67.77
670.971	67.82
671.299	67.91
671.627	67.92
671.955	67.63
672.283	67.71
672.61	67.66
672.938	67.84
673.266	67.68
673.593	67.69
673.921	67.64
674.249	67.58
674.576	67.43
674.904	67.29
675.231	67.03
675.558	67
675.886	66.96
676.213	66.76
676.54	66.61
676.867	66.45
677.195	66.44
677.522	66.41
677.849	66.4
678.176	66.23
678.503	66.17
678.83	66.31
679.157	66.18
679.484	66.2
679.81	66.06
680.137	66.12
680.464	66.05
680.791	65.99
681.117	65.96
681.444	65.81
681.771	65.75
682.097	65.87
682.424	65.83
682.75	65.82
683.077	65.81
683.403	65.78
683.729	65.79
684.056	65.82
684.382	65.74
684.708	65.64
685.034	65.71
685.36	65.63
685.686	65.81
686.012	65.73
686.339	65.73
686.664	65.62
686.99	65.52
687.316	65.58
687.642	65.78
687.968	65.94
688.294	66.08
688.619	66.13
688.945	66.11
689.271	66.09
689.596	66.13
689.922	66.14
690.247	66.23
690.573	66.24
690.898	66.32
691.224	66.52
691.549	66.6
691.874	66.81
692.2	66.98
692.525	66.79
692.85	66.93
693.175	66.73
693.5	66.81
693.825	66.88
694.15	66.73
694.475	66.65
694.8	66.67
695.125	66.47
695.45	66.24
695.775	66.09
696.099	66.11
696.424	65.84
696.749	65.72
697.073	65.62
697.398	65.44
697.723	65.23
698.047	65.1
698.372	64.95
698.696	64.72
699.02	64.67
699.345	64.69
699.669	64.66
699.993	64.73
700.318	64.82
700.642	64.77
700.966	64.77
701.29	64.82
701.614	64.76
701.938	64.95
702.262	64.88
702.586	64.96
702.91	65.06
703.234	65.14
703.557	65.4
703.881	65.67
704.205	65.91
704.529	65.96
704.852	65.81
705.176	65.92
705.499	66.04
705.823	66.05
706.146	66.3
706.47	66.36
706.793	66.51
707.117	66.31
707.44	66.02
707.763	66.19
708.086	65.98
708.409	65.79
708.733	65.76
709.056	66.16
709.379	66.34
709.702	66.37
710.025	66.7
710.348	66.73
710.671	66.33
710.993	66.06
711.316	66.18
711.639	66.28
711.962	66.28
712.284	66.11
712.607	66.17
712.93	65.97
713.252	65.89
713.575	65.82
713.897	65.87
714.22	66.05
714.542	65.72
714.864	65.55
715.187	65.58
715.509	65.49
715.831	65.19
716.153	64.99
716.475	64.68
716.798	64.56
717.12	64.36
717.442	64.44
717.764	64.68
718.085	64.72
718.407	64.79
718.729	64.8
719.051	64.63
719.373	64.61
719.695	64.65
720.016	64.45
720.338	64.33
720.659	64.29
720.981	64.44
721.302	64.7
721.624	65.16
721.945	65.11
722.267	65.16
722.588	65.59
722.909	65.15
723.231	65.32
723.552	65.08
723.873	64.9
724.194	64.67
724.515	64.66
724.836	64.34
725.157	64.04
725.478	64.11
725.799	64.3
726.12	64.28
726.441	64.07
726.762	64.48
727.083	64.53
727.403	64.65
727.724	64.57
728.045	64.36
728.365	64.28
728.686	64.73
729.006	64.77
729.327	64.39
729.647	64.96
729.967	65.05
730.288	65.03
730.608	65.19
730.928	65.43
731.249	65.35
731.569	65.61
731.889	65.67
732.209	65.78
732.529	65.92
732.849	65.87
733.169	65.84
733.489	65.6
733.809	65.44
734.129	65.18
734.448	65.12
734.768	65.31
735.088	65.09
735.408	64.64
735.727	64.57
736.047	64.8
736.366	64.33
736.686	64.33
737.005	64.7
737.325	64.69
737.644	64.76
737.963	64.88
738.283	64.67
738.602	64.93
738.921	65.03
739.24	65.16
739.56	65.63
739.879	65.85
740.198	66.02
740.517	66.39
740.836	66.53
741.155	66.74
741.473	66.73
741.792	66.88
742.111	67.13
742.43	67.14
742.748	66.84
743.067	67.19
743.386	67.41
743.704	67.37
744.023	67.69
744.341	67.59
744.66	67.38
744.978	67.3
745.297	66.92
745.615	66.53
745.933	66.62
746.252	66.1
746.57	66.32
746.888	66.09
747.206	65.77
747.524	65.71
747.842	65.5
748.16	65.66
748.478	65.27
748.796	65.09
749.114	65.13
749.432	65.18
749.749	65.01
750.067	64.65
750.385	64.52
750.703	64.09
751.02	63.91
751.338	64.01
751.655	64.12
751.973	64.5
752.29	64.7
752.608	64.36
752.925	64.45
753.242	63.93
753.56	64.48
753.877	64.22
754.194	64.47
754.511	64.58
754.828	64.44
755.145	64.89
755.462	64.62
755.779	63.95
756.096	64.01
756.413	63.72
756.73	63.6
757.047	63.4
757.364	63.35
757.68	63.34
757.997	63
758.314	62.9
758.63	62.68
758.947	62.15
759.264	62.03
759.58	61.54
759.896	61.74
760.213	61
760.529	60.91
760.846	60.35
761.162	60.04
761.478	59.92
761.794	59.64
762.11	59.93
762.426	60.33
762.743	60.47
763.059	60.42
763.375	60.44
763.69	60.69
764.006	60.77
764.322	60.7
764.638	61.02
764.954	61.11
765.27	61
765.585	61.16
765.901	61.24
766.216	61.65
766.532	61.66
766.848	62.03
767.163	62.7
767.478	63.3
767.794	63.78
768.109	63.77
768.424	63.85
768.74	63.53
769.055	63.93
769.37	63.61
769.685	63.94
770	64.2
770.315	64.09
770.63	64.35
770.945	64.81
771.26	65.36
771.575	65.55
771.89	66.28
772.205	66.42
772.52	66.46
772.834	66.48
773.149	66.46
773.464	66.25
773.778	65.78
774.093	65.86
774.407	65.48
774.722	65.59
775.036	65.88
775.351	66.23
775.665	65.9
775.979	65.89
776.293	66.03
776.608	65.89
776.922	65.59
777.236	65.42
777.55	65.67
777.864	64.99
778.178	64.96
778.492	64.51
778.806	64.51
779.12	64.57
779.434	64.11
779.747	64.14
780.061	64.49
780.375	64.29
780.689	64.22
781.002	64.23
781.316	63.96
781.629	64.78
781.943	64.55
782.256	64.8
782.57	65.33
782.883	65.79
783.196	65.45
783.51	65.31
783.823	65.25
784.136	64.63
784.449	64.71
784.762	64.86
785.075	64.72
785.388	63.99
785.701	64.05
786.014	64.15
786.327	64.13
786.64	64.28
786.953	64.05
787.266	64.09
787.578	63.91
787.891	64.4
788.204	63.49
788.516	63.37
788.829	62.99
789.141	62.6
789.454	61.83
789.766	62.44
790.079	62.57
790.391	62.95
790.703	62.98
791.016	62.58
791.328	62.45
791.64	62.33
791.952	63.6
792.264	63.66
792.576	63.35
792.888	63.23
793.2	62.35
793.512	63.1
793.824	62.39
794.136	63.2
794.448	62.9
794.76	62.8
795.071	63.05
795.383	62.73
795.695	63
796.006	63.29
796.318	62.55
796.629	62.84
796.941	62.48
797.252	62.56
797.564	62.3
797.875	61.71
798.186	61.87
798.497	61.15
798.809	61.21
799.12	61.91
799.431	62.28
799.742	62.81
800.053	62.72
800.364	63.14
800.675	62.77
800.986	62.98
801.297	63.97
801.608	64.43
801.918	64.76
802.229	64.98
802.54	64.2
802.851	64.76
803.161	65.18
803.472	65.01
803.782	65.5
804.093	66.73
804.403	66.57
804.714	66.5
805.024	66.86
805.334	66.42
805.645	65.56
805.955	64.94
806.265	64.5
806.575	64.67
806.885	64.9
807.195	64.38
807.505	64.04
807.815	62.84
808.125	62.14
808.435	61.68
808.745	60.82
809.055	61.86
809.365	60.77
809.674	59.94
809.984	59.52
810.294	58.68
810.603	57.65
810.913	58.59
811.222	58.47
811.532	57.64
811.841	57.68
812.151	58.43
812.46	58.44
812.769	58.42
813.079	57.79
813.388	57.25
813.697	57
814.006	57.14
814.315	56.79
814.624	57.37
814.933	57.99
815.242	59.06
815.551	59.02
815.86	59.88
816.169	60.12
816.478	60.57
816.786	60.4
817.095	60.55
817.404	59.67
817.712	60.81
818.021	61.04
818.33	61.2
818.638	61.18
818.947	60.65
819.255	60.3
819.563	60.67
819.872	60.56
820.18	60.46
820.488	60.36
820.796	60.61
821.105	60.29
821.413	60.15
821.721	60.12
822.029	59.67
822.337	59.88
822.645	59.72
822.953	59.74
823.26	59.85
823.568	60.03
823.876	60.15
824.184	59.86
824.491	59.95
824.799	60.08
825.107	59.91
825.414	59.94
825.722	60.11
826.029	59.78
826.337	59.95
826.644	60.2
826.951	60.29
827.259	60.06
827.566	60.26
827.873	60.09
828.18	60.11
828.488	60.36
828.795	60.07
829.102	60.52
829.409	60.27
829.716	60.18
830.023	60.01
830.329	59.75
830.636	59.49
830.943	59.53
831.25	58.98
831.557	58.86
831.863	58.91
832.17	59.01
832.476	59.32
832.783	59.1
833.089	58.94
833.396	59.01
833.702	58.91
834.009	58.73
834.315	59.04
834.621	59.12
834.928	59.1
835.234	59.11
835.54	58.45
835.846	58.76
836.152	59.06
836.458	58.95
836.764	59.58
837.07	59.79
837.376	59.74
837.682	59.89
837.988	60
838.293	60
838.599	58.64
838.905	58.11
839.211	57.99
839.516	57.86
839.822	57.91
840.127	58.63
840.433	59.29
840.738	59.99
841.044	58.86
841.349	59.46
841.654	59.54
841.959	58.72
842.265	57.82
842.57	57.45
842.875	57.35
843.18	55.85
843.485	55.15
843.79	54.32
844.095	53.07
844.4	52.35
844.705	52.73
845.01	54.97
845.315	53.97
845.619	54.91
845.924	54.86
846.229	54.83
846.533	54.95
846.838	52.57
847.142	51.2
847.447	51.36
847.751	50.25
848.056	50.32
848.36	51.2
848.664	52.41
848.969	52.05
849.273	50.86
849.577	50.99
849.881	51.66
850.185	49.66
850.489	52.63
850.794	52.91
851.097	52.48
851.401	48.46
851.705	48.87
852.009	48.14
852.313	46.9
852.617	45.78
852.92	44.82
853.224	47.31
853.528	45.28
853.831	46.87
854.135	49.94
854.438	50.23
854.742	51.6
855.045	52.19
855.349	53.9
855.652	53.55
855.955	51.45
856.259	52.85
856.562	56.2
856.865	53.41
857.168	56.22
857.471	57.63
857.774	62.32
858.077	67.2
858.38	64.93
858.683	64.28
858.986	65.93
859.289	66.8
859.592	66.69
859.894	66.5
860.197	66.94
860.5	66.27
860.802	65.37
861.105	65.51
861.407	65.18
861.71	62.77
862.012	65.21
862.315	63.45
862.617	62.16
862.919	59.82
863.222	61.17
863.524	59.07
863.826	56.84
864.128	55.45
864.43	51.85
864.732	51.87
865.034	54.88
865.336	51.49
865.638	50.93
865.94	48.6
866.242	49.78
866.544	47.55
866.846	45.54
867.147	44.01
867.449	42.85
867.751	43.11
868.052	42.44
868.354	39.58
868.655	45.63
868.957	45.62
869.258	47.34
869.56	48.14
869.861	49.47
870.162	48.54
870.463	48.89
870.765	52.71
871.066	50.79
871.367	46.3
871.668	48.59
871.969	48.57
872.27	49.84
872.571	50.23
872.872	52.21
873.173	54.33
873.473	55.89
873.774	59.9
874.075	61.54
874.376	66.59
874.676	68.61
874.977	65.22
875.277	64.37
875.578	66.91
875.878	66.31
876.179	65.26
876.479	67.06
876.78	67.55
877.08	64.47
877.38	69.9
877.68	74.53
877.981	74.25
878.281	75.94
878.581	77.48
