Data from BA17718_Reflection_00010.txt Node
Date: Tue Nov 19 11:47:47 EST 2019
User: vgr7
Spectrometer: USB2G7710
Scans to average: 3
Trigger mode: 4
Integration Time (sec): 2.000000E-2
Electric dark correction enabled: true
Boxcar width: 10
XAxis mode: Wavelengths
Number of Pixels in Spectrum: 2048
>>>>>Begin Spectral Data<<<<<
177.721	43.16
178.105	45.26
178.488	67.17
178.871	33.63
179.254	122.5
179.636	-2347.37
180.019	202.52
180.402	73.08
180.785	-50
181.168	60.42
181.55	-12.26
181.933	-15.52
182.316	-9.19
182.698	6.25
183.081	-49.68
183.463	-62.45
183.846	-80.42
184.228	-88.63
184.611	-140.25
184.993	-493.18
185.376	1033.67
185.758	416.12
186.14	1206.25
186.522	671.02
186.904	860.71
187.287	-1187.74
187.669	6025
188.051	2247.73
188.433	-433.13
188.815	876.79
189.197	411.17
189.579	162.96
189.961	63.83
190.342	40.52
190.724	16.01
191.106	4.84
191.488	-5.57
191.869	7.28
192.251	-0.79
192.633	16.08
193.014	37.3
193.396	57.29
193.777	53.41
194.159	55.54
194.54	46.61
194.922	20.16
195.303	22.26
195.684	41.87
196.065	37.91
196.447	37.34
196.828	54.11
197.209	49.33
197.59	25.42
197.971	24.94
198.352	32.51
198.733	26.42
199.114	31.47
199.495	39.81
199.876	25.43
200.257	18.29
200.638	16.74
201.018	7.47
201.399	7.87
201.78	22.33
202.16	26.74
202.541	24.39
202.922	27.55
203.302	34.06
203.683	26.38
204.063	34.58
204.444	36.07
204.824	27.39
205.204	31.97
205.585	32.34
205.965	66.64
206.345	62.26
206.725	101.32
207.106	101.33
207.486	103.44
207.866	136.03
208.246	226.57
208.626	355.12
209.006	367.86
209.386	250.96
209.766	590.38
210.145	229.81
210.525	207.75
210.905	281.03
211.285	244.46
211.664	311.88
212.044	310.7
212.424	320.27
212.803	362.28
213.183	450.89
213.562	772.86
213.942	396.97
214.321	377.22
214.701	283.49
215.08	302.52
215.459	291.02
215.838	211.67
216.218	225.52
216.597	183.2
216.976	153.05
217.355	202.55
217.734	197.61
218.113	222.8
218.492	197.02
218.871	211.6
219.25	221.05
219.629	180.9
220.008	191.86
220.387	230.81
220.766	215.95
221.144	167.79
221.523	135.52
221.902	104.73
222.28	128.32
222.659	115.85
223.037	115.24
223.416	97.96
223.794	84.11
224.173	89.36
224.551	67.71
224.929	62.01
225.308	52.62
225.686	38.83
226.064	26.97
226.442	35.82
226.821	30.74
227.199	25.26
227.577	25.48
227.955	27.67
228.333	25.06
228.711	24.78
229.089	18.48
229.467	18.53
229.845	18.18
230.222	19.46
230.6	16.77
230.978	17.63
231.356	17.02
231.733	19.64
232.111	18.13
232.488	18.25
232.866	17.06
233.243	18.77
233.621	17.03
233.998	16.73
234.376	13.31
234.753	13.62
235.13	13.49
235.508	14.85
235.885	12.97
236.262	13.51
236.639	12.5
237.016	12.76
237.393	13.49
237.77	14.65
238.147	13.61
238.524	13.26
238.901	11.65
239.278	11.38
239.655	10.63
240.032	10.01
240.409	9.77
240.785	10.36
241.162	10.02
241.539	10.34
241.915	10.37
242.292	9.59
242.668	9.32
243.045	8.98
243.421	8.53
243.798	8.16
244.174	8.02
244.551	8.03
244.927	8.26
245.303	8.1
245.679	7.87
246.056	7.67
246.432	7.36
246.808	7.68
247.184	7.59
247.56	7.16
247.936	6.95
248.312	7.12
248.688	6.98
249.064	6.84
249.44	6.82
249.815	6.77
250.191	6.97
250.567	6.51
250.943	6.44
251.318	6.37
251.694	6.46
252.069	6.44
252.445	6.37
252.82	6.15
253.196	6.3
253.571	6.64
253.947	6.61
254.322	6.38
254.697	6.51
255.073	6.13
255.448	6.27
255.823	6.39
256.198	5.95
256.573	5.93
256.948	5.93
257.323	5.66
257.698	5.61
258.073	5.6
258.448	5.9
258.823	5.84
259.198	5.78
259.573	5.78
259.948	5.94
260.322	5.99
260.697	5.99
261.072	5.92
261.446	5.93
261.821	5.85
262.195	5.75
262.57	5.64
262.944	5.91
263.319	5.9
263.693	5.87
264.067	6.19
264.442	6.15
264.816	6.23
265.19	6.28
265.564	6.33
265.938	6.28
266.313	6.22
266.687	6.43
267.061	6.59
267.435	6.58
267.809	6.21
268.183	5.92
268.556	5.79
268.93	5.88
269.304	5.52
269.678	5.59
270.051	5.77
270.425	5.82
270.799	5.52
271.172	5.8
271.546	6.05
271.919	5.76
272.293	5.8
272.666	5.86
273.04	5.99
273.413	6.03
273.787	6.08
274.16	6.04
274.533	5.86
274.906	5.86
275.279	5.76
275.653	5.78
276.026	5.91
276.399	5.98
276.772	5.96
277.145	6.11
277.518	6.05
277.891	6.04
278.263	5.98
278.636	6.24
279.009	5.93
279.382	5.7
279.755	5.78
280.127	5.68
280.5	5.44
280.872	5.62
281.245	5.59
281.617	5.58
281.99	5.63
282.362	5.64
282.735	5.61
283.107	5.62
283.479	5.63
283.852	5.54
284.224	5.67
284.596	5.65
284.968	5.64
285.34	5.85
285.713	5.94
286.085	5.71
286.457	5.61
286.829	5.73
287.201	5.83
287.572	5.78
287.944	5.93
288.316	6.09
288.688	6.08
289.06	6.03
289.431	6.07
289.803	6.31
290.175	6.41
290.546	6.44
290.918	6.37
291.289	6.21
291.661	6.23
292.032	6.14
292.403	6.03
292.775	5.96
293.146	5.83
293.517	5.75
293.889	5.72
294.26	5.68
294.631	5.67
295.002	5.65
295.373	5.83
295.744	5.7
296.115	5.64
296.486	5.51
296.857	5.6
297.228	5.48
297.599	5.29
297.97	5.3
298.34	5.3
298.711	5.37
299.082	5.61
299.452	5.57
299.823	5.58
300.194	5.74
300.564	5.71
300.935	5.74
301.305	5.75
301.676	5.88
302.046	5.95
302.416	5.82
302.787	5.73
303.157	5.63
303.527	5.79
303.897	5.7
304.267	5.62
304.637	5.67
305.008	5.87
305.378	5.94
305.748	5.86
306.117	5.91
306.487	6.07
306.857	5.92
307.227	6.09
307.597	5.97
307.967	5.85
308.336	5.94
308.706	6.07
309.076	6.07
309.445	6.27
309.815	6.26
310.184	6.31
310.554	6.39
310.923	6.4
311.293	6.3
311.662	6.33
312.031	6.5
312.401	6.33
312.77	6.15
313.139	6.13
313.508	6.18
313.877	6.18
314.246	6.11
314.616	6.22
314.985	6.18
315.353	6.39
315.722	6.49
316.091	6.53
316.46	6.34
316.829	6.39
317.198	6.24
317.567	6.4
317.935	6.49
318.304	6.54
318.672	6.62
319.041	6.75
319.41	6.67
319.778	6.72
320.147	6.87
320.515	7.12
320.883	7.25
321.252	7.39
321.62	7.25
321.988	7.25
322.357	7.27
322.725	7.42
323.093	7.36
323.461	7.36
323.829	7.34
324.197	7.34
324.565	7.59
324.933	7.68
325.301	7.58
325.669	7.68
326.037	7.75
326.405	7.65
326.772	7.59
327.14	7.63
327.508	7.65
327.875	7.61
328.243	7.47
328.61	7.44
328.978	7.23
329.346	7.3
329.713	7.39
330.08	7.4
330.448	7.26
330.815	7.17
331.182	7.15
331.55	7.29
331.917	7.4
332.284	7.18
332.651	7.08
333.018	7.07
333.385	6.99
333.752	6.96
334.119	7.05
334.486	7.03
334.853	7.19
335.22	7.09
335.587	7.1
335.954	7.39
336.32	7.43
336.687	7.49
337.054	7.63
337.42	7.55
337.787	7.56
338.153	7.67
338.52	7.73
338.886	7.69
339.253	7.54
339.619	7.49
339.986	7.56
340.352	7.61
340.718	7.65
341.084	7.72
341.451	7.74
341.817	7.78
342.183	7.79
342.549	7.84
342.915	7.91
343.281	7.83
343.647	7.61
344.013	7.42
344.379	7.48
344.745	7.43
345.11	7.5
345.476	7.45
345.842	7.31
346.208	7.3
346.573	7.41
346.939	7.5
347.304	7.52
347.67	7.51
348.035	7.57
348.401	7.64
348.766	7.51
349.132	7.52
349.497	7.6
349.862	7.61
350.228	7.53
350.593	7.5
350.958	7.61
351.323	7.58
351.688	7.67
352.053	7.69
352.418	7.66
352.783	7.57
353.148	7.48
353.513	7.51
353.878	7.65
354.243	7.56
354.608	7.54
354.972	7.48
355.337	7.57
355.702	7.48
356.066	7.41
356.431	7.4
356.795	7.38
357.16	7.25
357.524	7.2
357.889	7.12
358.253	7.05
358.618	7.01
358.982	7
359.346	6.97
359.71	6.92
360.075	6.93
360.439	7.02
360.803	7.04
361.167	7.06
361.531	6.93
361.895	6.91
362.259	6.93
362.623	6.97
362.987	6.79
363.351	6.74
363.714	6.78
364.078	6.8
364.442	6.72
364.806	6.76
365.169	6.78
365.533	6.81
365.896	6.91
366.26	6.93
366.623	6.96
366.987	7
367.35	7.02
367.714	6.96
368.077	6.91
368.44	6.93
368.803	6.89
369.167	6.82
369.53	6.75
369.893	6.74
370.256	6.64
370.619	6.65
370.982	6.64
371.345	6.55
371.708	6.53
372.071	6.57
372.434	6.52
372.797	6.57
373.159	6.55
373.522	6.48
373.885	6.43
374.247	6.3
374.61	6.22
374.973	6.14
375.335	6.12
375.698	6.07
376.06	6.03
376.423	5.99
376.785	6.03
377.147	6.05
377.51	5.93
377.872	5.94
378.234	5.9
378.596	5.89
378.958	5.82
379.321	5.77
379.683	5.71
380.045	5.67
380.407	5.59
380.769	5.53
381.13	5.45
381.492	5.34
381.854	5.35
382.216	5.34
382.578	5.31
382.939	5.28
383.301	5.28
383.663	5.29
384.024	5.25
384.386	5.2
384.747	5.21
385.109	5.22
385.47	5.18
385.832	5.18
386.193	5.19
386.554	5.2
386.916	5.2
387.277	5.12
387.638	5.09
387.999	5.04
388.36	5.03
388.721	5.04
389.082	5.07
389.443	5.09
389.804	5.05
390.165	5.04
390.526	5.02
390.887	4.97
391.248	4.93
391.609	4.96
391.969	4.98
392.33	4.94
392.691	4.94
393.051	4.9
393.412	4.92
393.772	4.92
394.133	4.86
394.493	4.85
394.854	4.87
395.214	4.85
395.574	4.86
395.935	4.79
396.295	4.79
396.655	4.78
397.015	4.73
397.376	4.75
397.736	4.72
398.096	4.71
398.456	4.68
398.816	4.66
399.176	4.59
399.535	4.59
399.895	4.53
400.255	4.51
400.615	4.52
400.975	4.45
401.334	4.39
401.694	4.38
402.054	4.34
402.413	4.32
402.773	4.32
403.132	4.28
403.492	4.33
403.851	4.31
404.211	4.3
404.57	4.33
404.929	4.28
405.288	4.3
405.648	4.27
406.007	4.26
406.366	4.22
406.725	4.21
407.084	4.19
407.443	4.22
407.802	4.19
408.161	4.17
408.52	4.2
408.879	4.2
409.238	4.22
409.596	4.21
409.955	4.2
410.314	4.19
410.673	4.2
411.031	4.17
411.39	4.17
411.748	4.18
412.107	4.14
412.465	4.12
412.824	4.11
413.182	4.1
413.54	4.07
413.899	4.08
414.257	4.08
414.615	4.06
414.974	4.06
415.332	4.09
415.69	4.07
416.048	4.05
416.406	3.99
416.764	3.98
417.122	4
417.48	4
417.838	3.98
418.195	3.94
418.553	3.92
418.911	3.89
419.269	3.87
419.626	3.86
419.984	3.86
420.342	3.84
420.699	3.83
421.057	3.81
421.414	3.82
421.772	3.81
422.129	3.79
422.486	3.79
422.844	3.75
423.201	3.75
423.558	3.75
423.915	3.77
424.273	3.78
424.63	3.77
424.987	3.75
425.344	3.75
425.701	3.75
426.058	3.75
426.415	3.74
426.772	3.73
427.128	3.73
427.485	3.73
427.842	3.74
428.199	3.74
428.555	3.75
428.912	3.75
429.269	3.74
429.625	3.74
429.982	3.74
430.338	3.75
430.695	3.74
431.051	3.74
431.407	3.71
431.764	3.68
432.12	3.69
432.476	3.68
432.832	3.68
433.189	3.66
433.545	3.66
433.901	3.67
434.257	3.68
434.613	3.7
434.969	3.7
435.325	3.71
435.681	3.7
436.036	3.71
436.392	3.7
436.748	3.71
437.104	3.7
437.459	3.69
437.815	3.7
438.171	3.68
438.526	3.68
438.882	3.71
439.237	3.7
439.593	3.7
439.948	3.71
440.304	3.7
440.659	3.71
441.014	3.72
441.369	3.72
441.725	3.72
442.08	3.71
442.435	3.69
442.79	3.68
443.145	3.67
443.5	3.64
443.855	3.64
444.21	3.62
444.565	3.64
444.92	3.64
445.275	3.63
445.629	3.62
445.984	3.62
446.339	3.62
446.693	3.62
447.048	3.61
447.403	3.6
447.757	3.6
448.112	3.6
448.466	3.6
448.82	3.59
449.175	3.58
449.529	3.58
449.883	3.58
450.238	3.58
450.592	3.57
450.946	3.6
451.3	3.59
451.654	3.58
452.008	3.57
452.362	3.54
452.716	3.55
453.07	3.56
453.424	3.55
453.778	3.56
454.132	3.56
454.486	3.55
454.839	3.54
455.193	3.54
455.547	3.54
455.9	3.54
456.254	3.53
456.607	3.52
456.961	3.5
457.314	3.5
457.668	3.5
458.021	3.51
458.375	3.53
458.728	3.54
459.081	3.55
459.434	3.53
459.787	3.54
460.141	3.54
460.494	3.53
460.847	3.54
461.2	3.53
461.553	3.52
461.906	3.54
462.259	3.56
462.611	3.57
462.964	3.59
463.317	3.59
463.67	3.62
464.022	3.61
464.375	3.6
464.728	3.61
465.08	3.63
465.433	3.64
465.785	3.65
466.138	3.64
466.49	3.65
466.843	3.67
467.195	3.68
467.547	3.69
467.899	3.71
468.252	3.71
468.604	3.72
468.956	3.74
469.308	3.69
469.66	3.68
470.012	3.68
470.364	3.66
470.716	3.67
471.068	3.67
471.42	3.68
471.772	3.7
472.123	3.69
472.475	3.69
472.827	3.69
473.178	3.7
473.53	3.71
473.882	3.71
474.233	3.7
474.585	3.7
474.936	3.69
475.288	3.66
475.639	3.67
475.99	3.65
476.342	3.64
476.693	3.65
477.044	3.65
477.395	3.66
477.746	3.67
478.097	3.66
478.448	3.63
478.8	3.62
479.15	3.62
479.501	3.61
479.852	3.6
480.203	3.6
480.554	3.58
480.905	3.57
481.255	3.58
481.606	3.59
481.957	3.6
482.307	3.61
482.658	3.62
483.009	3.62
483.359	3.62
483.709	3.63
484.06	3.65
484.41	3.64
484.761	3.64
485.111	3.64
485.461	3.65
485.811	3.65
486.162	3.66
486.512	3.65
486.862	3.66
487.212	3.67
487.562	3.68
487.912	3.7
488.262	3.72
488.612	3.72
488.961	3.73
489.311	3.73
489.661	3.72
490.011	3.73
490.36	3.73
490.71	3.73
491.06	3.73
491.409	3.72
491.759	3.74
492.108	3.74
492.458	3.74
492.807	3.75
493.157	3.77
493.506	3.77
493.855	3.79
494.204	3.79
494.554	3.8
494.903	3.8
495.252	3.79
495.601	3.81
495.95	3.82
496.299	3.84
496.648	3.86
496.997	3.88
497.346	3.92
497.695	3.93
498.043	3.95
498.392	3.97
498.741	3.99
499.09	4.02
499.438	4.05
499.787	4.06
500.135	4.05
500.484	4.05
500.832	4.08
501.181	4.11
501.529	4.15
501.878	4.15
502.226	4.15
502.574	4.14
502.923	4.14
503.271	4.15
503.619	4.14
503.967	4.14
504.315	4.15
504.663	4.15
505.011	4.18
505.359	4.18
505.707	4.2
506.055	4.22
506.403	4.21
506.751	4.24
507.098	4.29
507.446	4.35
507.794	4.38
508.141	4.41
508.489	4.42
508.837	4.42
509.184	4.47
509.531	4.5
509.879	4.54
510.226	4.58
510.574	4.61
510.921	4.64
511.268	4.68
511.616	4.73
511.963	4.76
512.31	4.81
512.657	4.88
513.004	4.91
513.351	4.97
513.698	5.01
514.045	5.04
514.392	5.06
514.739	5.06
515.086	5.12
515.432	5.17
515.779	5.2
516.126	5.26
516.473	5.28
516.819	5.31
517.166	5.36
517.512	5.39
517.859	5.44
518.205	5.48
518.552	5.52
518.898	5.53
519.245	5.57
519.591	5.6
519.937	5.63
520.283	5.67
520.629	5.71
520.976	5.76
521.322	5.79
521.668	5.86
522.014	5.96
522.36	5.99
522.706	6.03
523.052	6.1
523.398	6.17
523.743	6.25
524.089	6.36
524.435	6.42
524.781	6.47
525.126	6.55
525.472	6.61
525.817	6.67
526.163	6.75
526.509	6.81
526.854	6.86
527.199	6.92
527.545	6.96
527.89	7
528.235	7.04
528.581	7.11
528.926	7.18
529.271	7.23
529.616	7.31
529.961	7.39
530.306	7.47
530.651	7.52
530.996	7.62
531.341	7.7
531.686	7.79
532.031	7.88
532.376	7.97
532.721	8.09
533.065	8.21
533.41	8.32
533.755	8.44
534.099	8.54
534.444	8.65
534.788	8.78
535.133	8.9
535.477	9.05
535.822	9.19
536.166	9.33
536.51	9.47
536.855	9.62
537.199	9.78
537.543	9.95
537.887	10.16
538.231	10.35
538.576	10.5
538.92	10.7
539.264	10.91
539.608	11.06
539.951	11.22
540.295	11.35
540.639	11.5
540.983	11.64
541.327	11.81
541.671	11.96
542.014	12.12
542.358	12.28
542.701	12.42
543.045	12.57
543.389	12.75
543.732	12.91
544.075	13.09
544.419	13.28
544.762	13.47
545.105	13.66
545.449	13.81
545.792	14.06
546.135	14.26
546.478	14.48
546.821	14.74
547.165	14.99
547.508	15.29
547.851	15.55
548.194	15.83
548.536	16.13
548.879	16.42
549.222	16.71
549.565	17.01
549.908	17.32
550.25	17.61
550.593	17.92
550.936	18.24
551.278	18.55
551.621	18.84
551.963	19.19
552.306	19.52
552.648	19.92
552.991	20.21
553.333	20.54
553.675	20.86
554.017	21.16
554.36	21.45
554.702	21.73
555.044	22.04
555.386	22.38
555.728	22.65
556.07	23
556.412	23.34
556.754	23.68
557.096	24
557.438	24.35
557.78	24.67
558.121	25.06
558.463	25.42
558.805	25.79
559.147	26.12
559.488	26.46
559.83	26.77
560.171	27.14
560.513	27.5
560.854	27.8
561.196	28.16
561.537	28.52
561.878	28.88
562.22	29.17
562.561	29.5
562.902	29.93
563.243	30.26
563.584	30.63
563.925	30.95
564.266	31.28
564.607	31.62
564.948	31.97
565.289	32.25
565.63	32.52
565.971	32.83
566.312	33.13
566.653	33.41
566.993	33.76
567.334	34.09
567.675	34.38
568.015	34.74
568.356	35.06
568.696	35.37
569.037	35.69
569.377	36.02
569.718	36.27
570.058	36.51
570.398	36.82
570.739	37.08
571.079	37.39
571.419	37.67
571.759	37.95
572.099	38.18
572.439	38.45
572.779	38.78
573.119	39.03
573.459	39.31
573.799	39.57
574.139	39.79
574.479	39.99
574.819	40.26
575.158	40.45
575.498	40.68
575.838	40.97
576.177	41.27
576.517	41.5
576.856	41.81
577.196	42.09
577.535	42.35
577.875	42.59
578.214	42.81
578.553	43.08
578.893	43.35
579.232	43.57
579.571	43.82
579.91	44.04
580.25	44.33
580.589	44.55
580.928	44.79
581.267	44.99
581.606	45.29
581.945	45.53
582.283	45.81
582.622	46
582.961	46.18
583.3	46.31
583.639	46.61
583.977	46.83
584.316	46.99
584.654	47.14
584.993	47.4
585.332	47.64
585.67	47.89
586.008	48.07
586.347	48.34
586.685	48.64
587.024	48.81
587.362	48.98
587.7	49.17
588.038	49.39
588.376	49.64
588.715	49.78
589.053	49.91
589.391	50.1
589.729	50.29
590.067	50.47
590.404	50.64
590.742	50.77
591.08	50.92
591.418	51.25
591.756	51.46
592.093	51.62
592.431	51.86
592.769	52.02
593.106	52.19
593.444	52.31
593.781	52.42
594.119	52.62
594.456	52.84
594.793	52.93
595.131	53.04
595.468	53.16
595.805	53.28
596.143	53.39
596.48	53.47
596.817	53.62
597.154	53.75
597.491	53.85
597.828	54.02
598.165	54.24
598.502	54.21
598.839	54.36
599.176	54.47
599.512	54.55
599.849	54.67
600.186	54.77
600.523	54.95
600.859	55.08
601.196	55.1
601.532	55.15
601.869	55.32
602.205	55.48
602.542	55.57
602.878	55.76
603.215	55.87
603.551	56.06
603.887	56.15
604.223	56.23
604.56	56.34
604.896	56.47
605.232	56.48
605.568	56.61
605.904	56.72
606.24	56.83
606.576	56.94
606.912	57.03
607.248	57.19
607.583	57.3
607.919	57.42
608.255	57.62
608.591	57.74
608.926	57.86
609.262	57.87
609.597	58.07
609.933	58.13
610.268	58.28
610.604	58.39
610.939	58.51
611.275	58.59
611.61	58.69
611.945	58.67
612.281	58.78
612.616	58.92
612.951	59.08
613.286	59.28
613.621	59.29
613.956	59.46
614.291	59.57
614.626	59.69
614.961	59.78
615.296	59.85
615.631	59.97
615.966	60.04
616.3	60.06
616.635	60.03
616.97	60.11
617.304	60.21
617.639	60.21
617.973	60.3
618.308	60.27
618.642	60.4
618.977	60.45
619.311	60.44
619.646	60.44
619.98	60.32
620.314	60.36
620.648	60.49
620.983	60.53
621.317	60.63
621.651	60.65
621.985	60.77
622.319	60.92
622.653	60.88
622.987	60.95
623.321	61.16
623.655	61.32
623.988	61.43
624.322	61.49
624.656	61.5
624.99	61.53
625.323	61.68
625.657	61.77
625.99	61.86
626.324	62.01
626.657	62.08
626.991	62.22
627.324	62.14
627.658	62.21
627.991	62.31
628.324	62.32
628.657	62.38
628.991	62.27
629.324	62.26
629.657	62.38
629.99	62.46
630.323	62.5
630.656	62.48
630.989	62.53
631.322	62.53
631.655	62.57
631.987	62.71
632.32	62.76
632.653	62.69
632.986	62.81
633.318	62.85
633.651	62.93
633.984	62.98
634.316	63.05
634.649	62.98
634.981	62.91
635.313	63.05
635.646	63.04
635.978	63.21
636.31	63.36
636.643	63.43
636.975	63.44
637.307	63.5
637.639	63.56
637.971	63.54
638.303	63.57
638.635	63.68
638.967	63.65
639.299	63.73
639.631	63.8
639.963	63.79
640.295	63.78
640.626	63.83
640.958	63.82
641.29	63.96
641.621	64.09
641.953	64.15
642.285	64.02
642.616	64.05
642.948	64.07
643.279	63.95
643.61	64.02
643.942	63.98
644.273	64.04
644.604	64.04
644.936	64.11
645.267	64.16
645.598	64.08
645.929	64.16
646.26	64.2
646.591	64.38
646.922	64.39
647.253	64.4
647.584	64.44
647.915	64.46
648.245	64.49
648.576	64.41
648.907	64.43
649.238	64.48
649.568	64.58
649.899	64.5
650.229	64.58
650.56	64.69
650.89	64.79
651.221	64.87
651.551	64.99
651.882	65.07
652.212	65.1
652.542	65.18
652.872	65.1
653.203	65.23
653.533	65.11
653.863	65.26
654.193	65.45
654.523	65.35
654.853	65.44
655.183	65.42
655.513	65.63
655.843	65.69
656.172	65.78
656.502	65.8
656.832	65.83
657.162	65.79
657.491	65.72
657.821	65.69
658.15	65.64
658.48	65.62
658.809	65.51
659.139	65.55
659.468	65.57
659.798	65.6
660.127	65.41
660.456	65.41
660.785	65.31
661.115	65.29
661.444	65.3
661.773	65.27
662.102	65.37
662.431	65.31
662.76	65.38
663.089	65.38
663.418	65.43
663.747	65.54
664.076	65.67
664.404	65.68
664.733	65.73
665.062	65.6
665.39	65.6
665.719	65.67
666.048	65.74
666.376	65.83
666.705	65.81
667.033	66.06
667.362	66.21
667.69	66.28
668.018	66.32
668.347	66.4
668.675	66.55
669.003	66.49
669.331	66.4
669.659	66.46
669.987	66.31
670.315	66.2
670.643	66.26
670.971	66.14
671.299	66.04
671.627	66.08
671.955	66.33
672.283	66.23
672.61	66.26
672.938	66.22
673.266	66.18
673.593	66.21
673.921	66.19
674.249	66.1
674.576	66.11
674.904	66
675.231	66.05
675.558	66
675.886	66.24
676.213	66.3
676.54	66.17
676.867	66.26
677.195	66.38
677.522	66.45
677.849	66.53
678.176	66.59
678.503	66.47
678.83	66.47
679.157	66.57
679.484	66.5
679.81	66.6
680.137	66.58
680.464	66.61
680.791	66.55
681.117	66.48
681.444	66.6
681.771	66.67
682.097	66.77
682.424	66.73
682.75	66.51
683.077	66.54
683.403	66.57
683.729	66.71
684.056	66.78
684.382	66.86
684.708	66.98
685.034	66.94
685.36	67.1
685.686	66.96
686.012	66.98
686.339	67.09
686.664	67.08
686.99	67.13
687.316	67.16
687.642	67.08
687.968	67.3
688.294	67.24
688.619	67.26
688.945	67.26
689.271	67.36
689.596	67.45
689.922	67.44
690.247	67.54
690.573	67.45
690.898	67.39
691.224	67.26
691.549	67.17
691.874	67.26
692.2	67.3
692.525	67.55
692.85	67.53
693.175	67.49
693.5	67.53
693.825	67.6
694.15	67.66
694.475	67.86
694.8	67.73
695.125	67.62
695.45	67.61
695.775	67.4
696.099	67.33
696.424	67.32
696.749	67.55
697.073	67.58
697.398	67.62
697.723	67.62
698.047	67.56
698.372	67.57
698.696	67.56
699.02	67.66
699.345	67.61
699.669	67.75
699.993	67.93
700.318	67.91
700.642	67.99
700.966	67.98
701.29	67.9
701.614	67.92
701.938	68.08
702.262	68.27
702.586	68.48
702.91	68.74
703.234	68.54
703.557	68.54
703.881	68.4
704.205	68.4
704.529	68.6
704.852	68.69
705.176	68.81
705.499	68.97
705.823	68.7
706.146	68.75
706.47	68.78
706.793	68.58
707.117	68.29
707.44	68.17
707.763	68.18
708.086	68.16
708.409	68.32
708.733	68.21
709.056	68.04
709.379	68.2
709.702	67.91
710.025	68.22
710.348	68.06
710.671	68.1
710.993	68.29
711.316	68.22
711.639	68.27
711.962	67.99
712.284	67.98
712.607	68.24
712.93	68.01
713.252	67.85
713.575	67.85
713.897	68.19
714.22	68.21
714.542	68.08
714.864	68.35
715.187	68.11
715.509	68
715.831	67.81
716.153	67.48
716.475	67.75
716.798	67.73
717.12	67.58
717.442	67.77
717.764	67.39
718.085	67.2
718.407	67.19
718.729	67.54
719.051	67.53
719.373	67.21
719.695	67.59
720.016	67.49
720.338	67.5
720.659	67.53
720.981	67.66
721.302	67.72
721.624	67.48
721.945	67.75
722.267	68.11
722.588	68.49
722.909	68.98
723.231	68.6
723.552	68.52
723.873	68.98
724.194	68.88
724.515	69.2
724.836	69.1
725.157	69.16
725.478	68.76
725.799	68.72
726.12	69.12
726.441	68.83
726.762	69.01
727.083	68.89
727.403	68.68
727.724	68.73
728.045	68.62
728.365	68.7
728.686	68.68
729.006	68.53
729.327	68.24
729.647	67.98
729.967	68.17
730.288	68.21
730.608	67.98
730.928	68.22
731.249	68.06
731.569	68.43
731.889	68.26
732.209	68.32
732.529	68.43
732.849	68.32
733.169	68.38
733.489	68.36
733.809	68.63
734.129	68.78
734.448	68.59
734.768	68.66
735.088	68.71
735.408	68.62
735.727	68.63
736.047	68.96
736.366	68.95
736.686	69.02
737.005	69.23
737.325	69.33
737.644	69.16
737.963	69.11
738.283	69.04
738.602	68.91
738.921	69.06
739.24	69.06
739.56	69.1
739.879	69.29
740.198	69.19
740.517	69.22
740.836	68.81
741.155	69.01
741.473	69.19
741.792	69.22
742.111	69.25
742.43	69.18
742.748	68.94
743.067	69.27
743.386	69.32
743.704	69.11
744.023	69.58
744.341	69.52
744.66	69.61
744.978	69.27
745.297	69.64
745.615	69.66
745.933	69.41
746.252	69.28
746.57	69.12
746.888	69.23
747.206	69.11
747.524	69.36
747.842	69.03
748.16	69.18
748.478	69.27
748.796	69.49
749.114	69.58
749.432	69.24
749.749	68.65
750.067	68.39
750.385	68.53
750.703	67.97
751.02	67.6
751.338	67.48
751.655	67.66
751.973	67.67
752.29	68.01
752.608	68.63
752.925	68.53
753.242	68.8
753.56	69.06
753.877	68.82
754.194	69.39
754.511	69.93
754.828	69.48
755.145	69.23
755.462	69.03
755.779	69.24
756.096	69.45
756.413	69.78
756.73	70.12
757.047	69.75
757.364	69.63
757.68	69.87
757.997	70.15
758.314	70.39
758.63	70.57
758.947	69.99
759.264	69.52
759.58	69.63
759.896	69.16
760.213	69.34
760.529	69.48
760.846	68.97
761.162	68.75
761.478	69.08
761.794	69.14
762.11	69.28
762.426	69.29
762.743	69.51
763.059	69.88
763.375	69.74
763.69	69.91
764.006	70.04
764.322	70.04
764.638	70.01
764.954	69.78
765.27	69.8
765.585	69.87
765.901	69.55
766.216	69.78
766.532	70.44
766.848	70.08
767.163	70.28
767.478	70.78
767.794	70.9
768.109	71.05
768.424	71.34
768.74	71.17
769.055	70.87
769.37	70.6
769.685	70.39
770	70.33
770.315	70.5
770.63	70.82
770.945	70.87
771.26	71.07
771.575	71.43
771.89	71.18
772.205	71.12
772.52	71.53
772.834	71.36
773.149	70.69
773.464	71.26
773.778	71.14
774.093	70.71
774.407	71.05
774.722	70.65
775.036	70.06
775.351	70.18
775.665	70.65
775.979	71.08
776.293	70.63
776.608	71.01
776.922	70.67
777.236	69.58
777.55	70.15
777.864	70.03
778.178	69.97
778.492	69.6
778.806	70.13
779.12	70.11
779.434	70.16
779.747	70.28
780.061	69.75
780.375	69.65
780.689	69.65
781.002	69.03
781.316	69.52
781.629	69.76
781.943	70.07
782.256	69.72
782.57	69.18
782.883	69.2
783.196	68.78
783.51	69.17
783.823	70.49
784.136	70.3
784.449	70.79
784.762	71.15
785.075	71.69
785.388	71.54
785.701	71.76
786.014	71.67
786.327	71.56
786.64	71.52
786.953	71.78
787.266	71.63
787.578	71.87
787.891	71.89
788.204	72.05
788.516	72.22
788.829	72.12
789.141	72.75
789.454	73.07
789.766	73.24
790.079	73.16
790.391	72.49
790.703	72.34
791.016	72.35
791.328	71.78
791.64	72.24
791.952	72.22
792.264	73.03
792.576	73.37
792.888	73.43
793.2	73.52
793.512	73.54
793.824	73.88
794.136	74.1
794.448	74.28
794.76	74.25
795.071	73.75
795.383	74.12
795.695	73.93
796.006	74.32
796.318	74.48
796.629	74.59
796.941	74.56
797.252	74.45
797.564	74.33
797.875	75.35
798.186	74.57
798.497	74.57
798.809	73.57
799.12	72.84
799.431	73.44
799.742	73.69
800.053	73.74
800.364	74.17
800.675	74.32
800.986	73.86
801.297	73.56
801.608	73.17
801.918	72.78
802.229	73.14
802.54	73.2
802.851	73.22
803.161	73.46
803.472	73.99
803.782	73.76
804.093	73.76
804.403	73.05
804.714	73.08
805.024	73.43
805.334	73.87
805.645	74.5
805.955	73.84
806.265	73.51
806.575	72.91
806.885	72.61
807.195	72.06
807.505	72.62
807.815	72.53
808.125	73.31
808.435	73.2
808.745	73.73
809.055	72.73
809.365	72.53
809.674	71.62
809.984	71.95
810.294	72.93
810.603	72.85
810.913	73.44
811.222	72.91
811.532	73.13
811.841	72.58
812.151	72.74
812.46	73.26
812.769	73.29
813.079	73.67
813.388	73.45
813.697	72.79
814.006	72.36
814.315	72.96
814.624	73.27
814.933	74.36
815.242	74.05
815.551	75.77
815.86	75.86
816.169	76.41
816.478	75.72
816.786	75.22
817.095	74.36
817.404	73.81
817.712	74.5
818.021	73.2
818.33	72.96
818.638	72.97
818.947	73.08
819.255	73.1
819.563	72.87
819.872	72.69
820.18	72.85
820.488	73.16
820.796	73.3
821.105	73.27
821.413	73.23
821.721	72.62
822.029	72.37
822.337	72.27
822.645	72.42
822.953	72.34
823.26	72.14
823.568	72.29
823.876	72.16
824.184	72.15
824.491	72.32
824.799	72.27
825.107	72.24
825.414	72.21
825.722	72.16
826.029	72.35
826.337	72.54
826.644	72.63
826.951	72.54
827.259	72.15
827.566	72.1
827.873	71.97
828.18	72.23
828.488	71.97
828.795	71.86
829.102	71.76
829.409	71.75
829.716	72.15
830.023	72.16
830.329	72.11
830.636	72.26
830.943	72.61
831.25	73.38
831.557	73.57
831.863	73.29
832.17	73.23
832.476	73.44
832.783	73.17
833.089	72.97
833.396	72.75
833.702	73.01
834.009	72.88
834.315	73.14
834.621	72.89
834.928	73.37
835.234	73.81
835.54	73.12
835.846	73.72
836.152	73.39
836.458	73.38
836.764	73.69
837.07	74.02
837.376	73.61
837.682	73.19
837.988	72.72
838.293	73.4
838.599	73.87
838.905	73.55
839.211	73.51
839.516	73.7
839.822	74.55
840.127	76.41
840.433	75.96
840.738	75.06
841.044	76.37
841.349	76.52
841.654	76.9
841.959	78.13
842.265	79.13
842.57	80.45
842.875	82.25
843.18	83.52
843.485	82.59
843.79	83.52
844.095	84.77
844.4	85.29
844.705	85.19
845.01	86.18
845.315	86.74
845.619	86.47
845.924	88.87
846.229	88.34
846.533	87.8
846.838	89.65
847.142	91.52
847.447	90.84
847.751	91.39
848.056	91.36
848.36	91.93
848.664	90.23
848.969	90.17
849.273	87.23
849.577	87.16
849.881	85.41
850.185	86.09
850.489	85.82
850.794	86.1
851.097	85.49
851.401	86.74
851.705	87.84
852.009	89.23
852.313	89.39
852.617	89.69
852.92	89.86
853.224	87.44
853.528	87.16
853.831	88.13
854.135	85.9
854.438	84.65
854.742	84.82
855.045	83.37
855.349	81.95
855.652	83.9
855.955	85.67
856.259	89.27
856.562	86.76
856.865	85.78
857.168	86.97
857.471	84.83
857.774	85
858.077	84.38
858.38	85.5
858.683	84.46
858.986	83.74
859.289	81.23
859.592	81.99
859.894	85.16
860.197	86.08
860.5	89.57
860.802	88.1
861.105	91.75
861.407	90.42
861.71	93.34
862.012	93.04
862.315	89.89
862.617	86.59
862.919	86.49
863.222	87.26
863.524	86.22
863.826	89.3
864.128	87.35
864.43	89.59
864.732	91.27
865.034	90.69
865.336	89.75
865.638	89.73
865.94	93.43
866.242	90.63
866.544	91.67
866.846	90.94
867.147	94.4
867.449	91.72
867.751	96.43
868.052	92.78
868.354	94.68
868.655	96.05
868.957	97.69
869.258	102.88
869.56	104.9
869.861	105.11
870.162	105.32
870.463	109.31
870.765	105.4
871.066	99.4
871.367	101.08
871.668	101.08
871.969	103.07
872.27	101.81
872.571	106.03
872.872	105.39
873.173	103.72
873.473	102.47
873.774	101.45
874.075	96.43
874.376	94.41
874.676	93.15
874.977	89.58
875.277	89.06
875.578	84.85
875.878	82.81
876.179	82.25
876.479	81.46
876.78	77.36
877.08	77.77
877.38	80.52
877.68	77.95
877.981	78.11
878.281	76.07
878.581	74.84
