Data from BA17729_Reflection_00011.txt Node
Date: Tue Nov 19 11:50:56 EST 2019
User: vgr7
Spectrometer: USB2G7710
Scans to average: 3
Trigger mode: 4
Integration Time (sec): 2.000000E-2
Electric dark correction enabled: true
Boxcar width: 10
XAxis mode: Wavelengths
Number of Pixels in Spectrum: 2048
>>>>>Begin Spectral Data<<<<<
177.721	106.21
178.105	91.98
178.488	172.23
178.871	452.94
179.254	136.59
179.636	4.62
180.019	-97.62
180.402	100
180.785	95.77
181.168	106.28
181.55	55.98
181.933	67.34
182.316	83.15
182.698	78.62
183.081	59.46
183.463	-14.73
183.846	28.93
184.228	31.98
184.611	7.55
184.993	-130.23
185.376	-3164.71
185.758	-88.21
186.14	-34.86
186.522	-53.06
186.904	-41.76
187.287	139.27
187.669	448
188.051	5418.18
188.433	923.94
188.815	593.29
189.197	1153.19
189.579	-190.51
189.961	-115.65
190.342	-139.81
190.724	514.89
191.106	-542.86
191.488	-739.45
191.869	-181
192.251	-217.59
192.633	-357.22
193.014	-571.78
193.396	-534.97
193.777	-98.44
194.159	-104.77
194.54	-72.51
194.922	-125.45
195.303	-60.8
195.684	-46.27
196.065	-71.01
196.447	-53.31
196.828	-7.58
197.209	-9.02
197.59	0.31
197.971	-4.99
198.352	15.6
198.733	-12.7
199.114	-0.74
199.495	-6
199.876	-29.67
200.257	-15.62
200.638	-6.92
201.018	-3.92
201.399	3.69
201.78	17.13
202.16	36.65
202.541	31.67
202.922	15.68
203.302	7.43
203.683	-3.28
204.063	0.62
204.444	17.51
204.824	15.31
205.204	-0.83
205.585	-18.55
205.965	-20.9
206.345	-59.06
206.725	-35.26
207.106	-12.57
207.486	-4.05
207.866	19.07
208.246	30.35
208.626	28.02
209.006	38.09
209.386	22.68
209.766	4.59
210.145	-5.85
210.525	-16.37
210.905	-3.39
211.285	24.57
211.664	38.33
212.044	43.55
212.424	49.72
212.803	62.2
213.183	90.18
213.562	101.05
213.942	105.41
214.321	92.92
214.701	88.1
215.08	79.53
215.459	82.83
215.838	52.94
216.218	25.85
216.597	42.53
216.976	42.35
217.355	49.62
217.734	59.89
218.113	69.34
218.492	81.72
218.871	98.98
219.25	111.9
219.629	88.04
220.008	69.24
220.387	45.26
220.766	19.71
221.144	17.82
221.523	2.97
221.902	4.38
222.28	30.96
222.659	51.42
223.037	63.26
223.416	80.5
223.794	105.02
224.173	93.14
224.551	85.76
224.929	62.84
225.308	52.57
225.686	38.92
226.064	29.98
226.442	30.77
226.821	18.46
227.199	8.41
227.577	16.68
227.955	16.08
228.333	8.33
228.711	8.22
229.089	10.13
229.467	10.92
229.845	8.71
230.222	8.28
230.6	4.16
230.978	9.46
231.356	5.28
231.733	3.92
232.111	8.29
232.488	7.97
232.866	9.82
233.243	6.83
233.621	10.43
233.998	12.1
234.376	8.54
234.753	8.67
235.13	9.6
235.508	9.25
235.885	9.75
236.262	11.19
236.639	9.16
237.016	7.58
237.393	6.84
237.77	8.12
238.147	9.81
238.524	9.84
238.901	8.15
239.278	7.57
239.655	7.03
240.032	6.5
240.409	7
240.785	6.28
241.162	7.27
241.539	6.73
241.915	5.81
242.292	6.61
242.668	6.62
243.045	6.78
243.421	6.9
243.798	6.89
244.174	7.18
244.551	7.26
244.927	7.37
245.303	7.57
245.679	7.48
246.056	7.19
246.432	7.02
246.808	7.19
247.184	7.5
247.56	7.48
247.936	7.51
248.312	7.35
248.688	7.13
249.064	7.11
249.44	7.13
249.815	7.47
250.191	7.41
250.567	7.18
250.943	7.37
251.318	7.24
251.694	7.15
252.069	7.18
252.445	7.6
252.82	7.7
253.196	7.67
253.571	7.9
253.947	7.61
254.322	7.89
254.697	7.55
255.073	7.42
255.448	7.06
255.823	6.89
256.198	6.74
256.573	7.12
256.948	7.05
257.323	6.85
257.698	6.66
258.073	6.72
258.448	6.81
258.823	6.49
259.198	6.4
259.573	6.22
259.948	6.18
260.322	6
260.697	5.99
261.072	5.98
261.446	5.86
261.821	5.9
262.195	6.02
262.57	6.11
262.944	6.09
263.319	6.25
263.693	6.32
264.067	6.27
264.442	5.95
264.816	5.68
265.19	5.7
265.564	5.66
265.938	5.53
266.313	5.38
266.687	5.41
267.061	5.39
267.435	5.67
267.809	5.64
268.183	5.68
268.556	5.55
268.93	5.68
269.304	5.62
269.678	5.54
270.051	5.42
270.425	5.2
270.799	5.13
271.172	5.21
271.546	5.1
271.919	5.22
272.293	5.27
272.666	5.46
273.04	5.21
273.413	5.2
273.787	5.09
274.16	5.3
274.533	5.42
274.906	5.5
275.279	5.48
275.653	5.48
276.026	5.47
276.399	5.48
276.772	5.4
277.145	5.52
277.518	5.52
277.891	5.45
278.263	5.69
278.636	5.81
279.009	5.6
279.382	5.47
279.755	5.47
280.127	5.4
280.5	5.32
280.872	5.57
281.245	5.8
281.617	5.89
281.99	5.74
282.362	5.54
282.735	5.57
283.107	5.59
283.479	5.76
283.852	5.74
284.224	5.7
284.596	5.68
284.968	5.61
285.34	5.74
285.713	5.81
286.085	5.7
286.457	5.69
286.829	5.74
287.201	5.7
287.572	5.83
287.944	5.98
288.316	6.16
288.688	6.32
289.06	6.34
289.431	6.34
289.803	6.34
290.175	6.38
290.546	6.38
290.918	6.39
291.289	6.27
291.661	6.35
292.032	6.45
292.403	6.45
292.775	6.53
293.146	6.59
293.517	6.68
293.889	6.77
294.26	6.81
294.631	6.95
295.002	7.15
295.373	7.09
295.744	7.03
296.115	6.93
296.486	6.77
296.857	6.69
297.228	6.61
297.599	6.64
297.97	6.83
298.34	6.94
298.711	7.12
299.082	7.07
299.452	6.92
299.823	6.95
300.194	7.09
300.564	7.02
300.935	7.09
301.305	7.1
301.676	6.98
302.046	6.98
302.416	6.93
302.787	6.98
303.157	7.02
303.527	7.15
303.897	7.21
304.267	7.39
304.637	7.42
305.008	7.58
305.378	7.67
305.748	7.64
306.117	7.55
306.487	7.4
306.857	7.63
307.227	7.95
307.597	7.91
307.967	7.75
308.336	7.83
308.706	7.7
309.076	7.67
309.445	7.85
309.815	7.85
310.184	7.9
310.554	7.92
310.923	7.93
311.293	8.03
311.662	8.08
312.031	8.09
312.401	8.13
312.77	8.08
313.139	8.24
313.508	8.26
313.877	8.38
314.246	8.3
314.616	8.35
314.985	8.26
315.353	8.31
315.722	8.44
316.091	8.42
316.46	8.52
316.829	8.63
317.198	8.6
317.567	8.66
317.935	8.78
318.304	8.96
318.672	9.03
319.041	9.02
319.41	9.07
319.778	8.94
320.147	9.01
320.515	8.98
320.883	8.9
321.252	8.96
321.62	8.97
321.988	8.98
322.357	8.92
322.725	8.97
323.093	8.95
323.461	9.02
323.829	9.16
324.197	9.19
324.565	9.3
324.933	9.31
325.301	9.24
325.669	9.17
326.037	9.07
326.405	9.11
326.772	8.93
327.14	8.8
327.508	8.96
327.875	8.82
328.243	8.97
328.61	8.92
328.978	8.8
329.346	8.76
329.713	9.06
330.08	9.09
330.448	9.28
330.815	9.39
331.182	9.25
331.55	9.22
331.917	9.17
332.284	9.07
332.651	9.14
333.018	9.15
333.385	9.18
333.752	9.13
334.119	9.25
334.486	9.44
334.853	9.47
335.22	9.42
335.587	9.47
335.954	9.47
336.32	9.45
336.687	9.53
337.054	9.58
337.42	9.49
337.787	9.53
338.153	9.52
338.52	9.56
338.886	9.65
339.253	9.56
339.619	9.67
339.986	9.66
340.352	9.71
340.718	9.7
341.084	9.64
341.451	9.59
341.817	9.49
342.183	9.64
342.549	9.75
342.915	9.9
343.281	10
343.647	9.96
344.013	10.15
344.379	10.14
344.745	10.14
345.11	10.15
345.476	10.18
345.842	10.03
346.208	10
346.573	10.09
346.939	10.12
347.304	10.18
347.67	10.24
348.035	10.22
348.401	10.28
348.766	10.34
349.132	10.55
349.497	10.61
349.862	10.55
350.228	10.61
350.593	10.43
350.958	10.45
351.323	10.48
351.688	10.36
352.053	10.32
352.418	10.36
352.783	10.39
353.148	10.33
353.513	10.41
353.878	10.3
354.243	10.17
354.608	10.27
354.972	10.17
355.337	10.17
355.702	10.1
356.066	10.07
356.431	10.08
356.795	9.92
357.16	9.83
357.524	9.62
357.889	9.5
358.253	9.51
358.618	9.44
358.982	9.49
359.346	9.47
359.71	9.46
360.075	9.43
360.439	9.31
360.803	9.29
361.167	9.24
361.531	9.25
361.895	9.2
362.259	9.08
362.623	9.07
362.987	9.02
363.351	8.93
363.714	8.98
364.078	8.92
364.442	8.89
364.806	8.89
365.169	8.95
365.533	9.03
365.896	9.02
366.26	8.96
366.623	8.81
366.987	8.82
367.35	8.82
367.714	8.74
368.077	8.77
368.44	8.85
368.803	8.7
369.167	8.7
369.53	8.75
369.893	8.82
370.256	8.71
370.619	8.64
370.982	8.56
371.345	8.48
371.708	8.43
372.071	8.44
372.434	8.34
372.797	8.34
373.159	8.29
373.522	8.28
373.885	8.3
374.247	8.3
374.61	8.19
374.973	8.16
375.335	8.03
375.698	7.94
376.06	7.83
376.423	7.9
376.785	7.86
377.147	7.83
377.51	7.75
377.872	7.83
378.234	7.84
378.596	7.89
378.958	7.89
379.321	7.9
379.683	7.92
380.045	7.91
380.407	7.86
380.769	7.78
381.13	7.77
381.492	7.69
381.854	7.63
382.216	7.62
382.578	7.56
382.939	7.62
383.301	7.59
383.663	7.49
384.024	7.51
384.386	7.46
384.747	7.41
385.109	7.43
385.47	7.31
385.832	7.24
386.193	7.25
386.554	7.18
386.916	7.12
387.277	7.04
387.638	7.04
387.999	7.03
388.36	6.99
388.721	6.92
389.082	6.9
389.443	6.97
389.804	6.96
390.165	6.99
390.526	6.92
390.887	6.91
391.248	6.93
391.609	6.9
391.969	6.89
392.33	6.87
392.691	6.84
393.051	6.88
393.412	6.87
393.772	6.84
394.133	6.78
394.493	6.76
394.854	6.71
395.214	6.68
395.574	6.62
395.935	6.64
396.295	6.63
396.655	6.63
397.015	6.51
397.376	6.44
397.736	6.38
398.096	6.4
398.456	6.31
398.816	6.28
399.176	6.16
399.535	6.13
399.895	6.1
400.255	6.06
400.615	5.97
400.975	5.95
401.334	5.92
401.694	5.95
402.054	5.93
402.413	5.93
402.773	5.94
403.132	5.88
403.492	5.84
403.851	5.84
404.211	5.8
404.57	5.84
404.929	5.83
405.288	5.77
405.648	5.76
406.007	5.81
406.366	5.83
406.725	5.83
407.084	5.82
407.443	5.8
407.802	5.8
408.161	5.8
408.52	5.78
408.879	5.81
409.238	5.79
409.596	5.77
409.955	5.77
410.314	5.76
410.673	5.81
411.031	5.77
411.39	5.73
411.748	5.73
412.107	5.69
412.465	5.69
412.824	5.69
413.182	5.63
413.54	5.64
413.899	5.63
414.257	5.65
414.615	5.61
414.974	5.6
415.332	5.57
415.69	5.56
416.048	5.55
416.406	5.48
416.764	5.45
417.122	5.44
417.48	5.43
417.838	5.42
418.195	5.39
418.553	5.39
418.911	5.37
419.269	5.34
419.626	5.31
419.984	5.3
420.342	5.29
420.699	5.29
421.057	5.24
421.414	5.22
421.772	5.21
422.129	5.2
422.486	5.18
422.844	5.16
423.201	5.13
423.558	5.12
423.915	5.13
424.273	5.12
424.63	5.13
424.987	5.1
425.344	5.08
425.701	5.06
426.058	5.06
426.415	5.06
426.772	5.05
427.128	5.08
427.485	5.06
427.842	5.07
428.199	5.06
428.555	5.07
428.912	5.04
429.269	5.03
429.625	5.04
429.982	5.03
430.338	5.05
430.695	5.05
431.051	5.06
431.407	5.05
431.764	5.04
432.12	5.03
432.476	5.03
432.832	5.02
433.189	5.05
433.545	5.03
433.901	5.04
434.257	5.05
434.613	5.03
434.969	5.05
435.325	5.05
435.681	5.04
436.036	5.04
436.392	5.05
436.748	5.05
437.104	5.06
437.459	5.06
437.815	5.05
438.171	5.04
438.526	5.03
438.882	5.03
439.237	5.01
439.593	5.01
439.948	5.01
440.304	4.99
440.659	4.97
441.014	4.95
441.369	4.94
441.725	4.94
442.08	4.93
442.435	4.92
442.79	4.9
443.145	4.9
443.5	4.89
443.855	4.87
444.21	4.87
444.565	4.86
444.92	4.85
445.275	4.83
445.629	4.82
445.984	4.8
446.339	4.8
446.693	4.8
447.048	4.78
447.403	4.77
447.757	4.78
448.112	4.8
448.466	4.78
448.82	4.77
449.175	4.76
449.529	4.78
449.883	4.76
450.238	4.76
450.592	4.75
450.946	4.75
451.3	4.77
451.654	4.75
452.008	4.76
452.362	4.77
452.716	4.78
453.07	4.79
453.424	4.79
453.778	4.8
454.132	4.79
454.486	4.81
454.839	4.81
455.193	4.8
455.547	4.78
455.9	4.81
456.254	4.82
456.607	4.82
456.961	4.8
457.314	4.8
457.668	4.79
458.021	4.8
458.375	4.8
458.728	4.79
459.081	4.8
459.434	4.8
459.787	4.81
460.141	4.82
460.494	4.84
460.847	4.86
461.2	4.87
461.553	4.9
461.906	4.92
462.259	4.92
462.611	4.94
462.964	4.95
463.317	4.94
463.67	4.95
464.022	4.98
464.375	4.98
464.728	5
465.08	5.04
465.433	5.05
465.785	5.09
466.138	5.08
466.49	5.1
466.843	5.1
467.195	5.12
467.547	5.1
467.899	5.12
468.252	5.11
468.604	5.11
468.956	5.11
469.308	5.09
469.66	5.13
470.012	5.12
470.364	5.15
470.716	5.16
471.068	5.17
471.42	5.15
471.772	5.16
472.123	5.18
472.475	5.15
472.827	5.13
473.178	5.13
473.53	5.16
473.882	5.15
474.233	5.18
474.585	5.15
474.936	5.15
475.288	5.12
475.639	5.13
475.99	5.11
476.342	5.08
476.693	5.08
477.044	5.03
477.395	5.04
477.746	5.03
478.097	5.02
478.448	5
478.8	5
479.15	4.97
479.501	4.96
479.852	4.96
480.203	4.98
480.554	4.96
480.905	4.95
481.255	4.96
481.606	4.94
481.957	4.95
482.307	4.95
482.658	4.96
483.009	4.95
483.359	4.95
483.709	4.97
484.06	4.98
484.41	4.99
484.761	4.99
485.111	4.99
485.461	5
485.811	5
486.162	5
486.512	5.03
486.862	5.04
487.212	5.06
487.562	5.06
487.912	5.07
488.262	5.09
488.612	5.09
488.961	5.09
489.311	5.1
489.661	5.11
490.011	5.11
490.36	5.12
490.71	5.13
491.06	5.13
491.409	5.15
491.759	5.17
492.108	5.19
492.458	5.2
492.807	5.22
493.157	5.23
493.506	5.25
493.855	5.24
494.204	5.26
494.554	5.25
494.903	5.27
495.252	5.3
495.601	5.31
495.95	5.35
496.299	5.39
496.648	5.43
496.997	5.45
497.346	5.49
497.695	5.53
498.043	5.57
498.392	5.57
498.741	5.59
499.09	5.62
499.438	5.65
499.787	5.68
500.135	5.69
500.484	5.74
500.832	5.79
501.181	5.83
501.529	5.86
501.878	5.92
502.226	5.94
502.574	5.94
502.923	5.96
503.271	5.99
503.619	6.02
503.967	6.06
504.315	6.09
504.663	6.11
505.011	6.11
505.359	6.12
505.707	6.16
506.055	6.2
506.403	6.21
506.751	6.24
507.098	6.28
507.446	6.31
507.794	6.35
508.141	6.39
508.489	6.42
508.837	6.42
509.184	6.43
509.531	6.45
509.879	6.48
510.226	6.51
510.574	6.55
510.921	6.58
511.268	6.62
511.616	6.67
511.963	6.72
512.31	6.78
512.657	6.82
513.004	6.86
513.351	6.88
513.698	6.91
514.045	6.95
514.392	6.97
514.739	7
515.086	7.05
515.432	7.08
515.779	7.14
516.126	7.22
516.473	7.28
516.819	7.34
517.166	7.41
517.512	7.46
517.859	7.51
518.205	7.54
518.552	7.58
518.898	7.62
519.245	7.66
519.591	7.68
519.937	7.72
520.283	7.78
520.629	7.84
520.976	7.91
521.322	7.95
521.668	8.05
522.014	8.11
522.36	8.15
522.706	8.18
523.052	8.26
523.398	8.32
523.743	8.42
524.089	8.52
524.435	8.57
524.781	8.62
525.126	8.69
525.472	8.75
525.817	8.8
526.163	8.86
526.509	8.89
526.854	8.95
527.199	9.01
527.545	9.06
527.89	9.1
528.235	9.14
528.581	9.21
528.926	9.24
529.271	9.31
529.616	9.38
529.961	9.46
530.306	9.52
530.651	9.57
530.996	9.62
531.341	9.68
531.686	9.76
532.031	9.85
532.376	9.92
532.721	10
533.065	10.11
533.41	10.21
533.755	10.32
534.099	10.44
534.444	10.55
534.788	10.64
535.133	10.74
535.477	10.87
535.822	10.98
536.166	11.1
536.51	11.23
536.855	11.34
537.199	11.47
537.543	11.61
537.887	11.77
538.231	11.93
538.576	12.06
538.92	12.23
539.264	12.37
539.608	12.52
539.951	12.64
540.295	12.76
540.639	12.87
540.983	13
541.327	13.11
541.671	13.23
542.014	13.33
542.358	13.47
542.701	13.59
543.045	13.72
543.389	13.85
543.732	13.98
544.075	14.12
544.419	14.28
544.762	14.43
545.105	14.6
545.449	14.77
545.792	14.95
546.135	15.13
546.478	15.32
546.821	15.51
547.165	15.77
547.508	15.96
547.851	16.23
548.194	16.44
548.536	16.67
548.879	16.9
549.222	17.2
549.565	17.42
549.908	17.71
550.25	17.96
550.593	18.22
550.936	18.48
551.278	18.75
551.621	19.04
551.963	19.32
552.306	19.59
552.648	19.83
552.991	20.07
553.333	20.32
553.675	20.59
554.017	20.88
554.36	21.07
554.702	21.36
555.044	21.54
555.386	21.82
555.728	22.09
556.07	22.41
556.412	22.72
556.754	22.97
557.096	23.22
557.438	23.57
557.78	23.89
558.121	24.23
558.463	24.5
558.805	24.83
559.147	25.1
559.488	25.42
559.83	25.73
560.171	26.06
560.513	26.35
560.854	26.6
561.196	26.92
561.537	27.25
561.878	27.57
562.22	27.94
562.561	28.27
562.902	28.54
563.243	28.8
563.584	29.03
563.925	29.34
564.266	29.62
564.607	29.85
564.948	30.15
565.289	30.45
565.63	30.79
565.971	31.04
566.312	31.33
566.653	31.62
566.993	31.88
567.334	32.16
567.675	32.42
568.015	32.77
568.356	33.04
568.696	33.31
569.037	33.57
569.377	33.78
569.718	34.06
570.058	34.37
570.398	34.65
570.739	34.94
571.079	35.21
571.419	35.45
571.759	35.69
572.099	35.9
572.439	36.09
572.779	36.29
573.119	36.59
573.459	36.77
573.799	36.93
574.139	37.17
574.479	37.41
574.819	37.67
575.158	37.88
575.498	38.08
575.838	38.32
576.177	38.54
576.517	38.86
576.856	39.11
577.196	39.3
577.535	39.56
577.875	39.8
578.214	40.1
578.553	40.39
578.893	40.65
579.232	40.9
579.571	41.19
579.91	41.44
580.25	41.61
580.589	41.96
580.928	42.26
581.267	42.57
581.606	42.83
581.945	43.03
582.283	43.27
582.622	43.56
582.961	43.79
583.3	43.99
583.639	44.14
583.977	44.28
584.316	44.52
584.654	44.65
584.993	44.95
585.332	45.13
585.67	45.33
586.008	45.53
586.347	45.76
586.685	45.86
587.024	46.08
587.362	46.24
587.7	46.35
588.038	46.45
588.376	46.58
588.715	46.73
589.053	46.9
589.391	47.07
589.729	47.12
590.067	47.26
590.404	47.45
590.742	47.61
591.08	47.81
591.418	47.93
591.756	48.13
592.093	48.12
592.431	48.23
592.769	48.36
593.106	48.42
593.444	48.56
593.781	48.73
594.119	48.84
594.456	48.99
594.793	49.02
595.131	49.06
595.468	49.1
595.805	49.17
596.143	49.28
596.48	49.39
596.817	49.53
597.154	49.6
597.491	49.69
597.828	49.79
598.165	49.92
598.502	50
598.839	50.06
599.176	50.29
599.512	50.38
599.849	50.41
600.186	50.65
600.523	50.77
600.859	50.81
601.196	50.86
601.532	50.86
601.869	51
602.205	51.22
602.542	51.3
602.878	51.41
603.215	51.47
603.551	51.53
603.887	51.62
604.223	51.71
604.56	51.81
604.896	51.9
605.232	51.91
605.568	51.94
605.904	51.97
606.24	51.99
606.576	52.03
606.912	52.15
607.248	52.2
607.583	52.25
607.919	52.31
608.255	52.4
608.591	52.62
608.926	52.75
609.262	52.81
609.597	52.93
609.933	53.02
610.268	53.12
610.604	53.15
610.939	53.25
611.275	53.35
611.61	53.39
611.945	53.4
612.281	53.53
612.616	53.73
612.951	53.94
613.286	54.07
613.621	54.18
613.956	54.24
614.291	54.32
614.626	54.42
614.961	54.63
615.296	54.76
615.631	54.82
615.966	54.79
616.3	54.93
616.635	55.04
616.97	55.22
617.304	55.26
617.639	55.33
617.973	55.36
618.308	55.53
618.642	55.6
618.977	55.63
619.311	55.65
619.646	55.72
619.98	55.72
620.314	55.79
620.648	56.03
620.983	56.2
621.317	56.22
621.651	56.28
621.985	56.27
622.319	56.33
622.653	56.33
622.987	56.54
623.321	56.53
623.655	56.57
623.988	56.51
624.322	56.6
624.656	56.58
624.99	56.55
625.323	56.44
625.657	56.51
625.99	56.6
626.324	56.71
626.657	56.6
626.991	56.61
627.324	56.59
627.658	56.49
627.991	56.44
628.324	56.57
628.657	56.63
628.991	56.74
629.324	56.82
629.657	56.84
629.99	56.84
630.323	56.8
630.656	56.83
630.989	56.84
631.322	56.84
631.655	56.96
631.987	57.17
632.32	57.21
632.653	57.25
632.986	57.3
633.318	57.21
633.651	57.3
633.984	57.44
634.316	57.42
634.649	57.5
634.981	57.6
635.313	57.56
635.646	57.65
635.978	57.66
636.31	57.67
636.643	57.63
636.975	57.71
637.307	57.8
637.639	57.91
637.971	57.9
638.303	57.91
638.635	58.03
638.967	58.1
639.299	58.27
639.631	58.37
639.963	58.53
640.295	58.65
640.626	58.82
640.958	58.83
641.29	58.91
641.621	58.9
641.953	58.99
642.285	59.15
642.616	59.02
642.948	59.05
643.279	59.02
643.61	59.3
643.942	59.23
644.273	59.3
644.604	59.23
644.936	59.4
645.267	59.47
645.598	59.26
645.929	59.17
646.26	59.13
646.591	59.08
646.922	58.98
647.253	58.95
647.584	58.91
647.915	58.88
648.245	58.98
648.576	58.89
648.907	58.72
649.238	58.58
649.568	58.63
649.899	58.62
650.229	58.74
650.56	58.67
650.89	58.75
651.221	58.8
651.551	58.74
651.882	58.69
652.212	58.52
652.542	58.76
652.872	58.75
653.203	58.69
653.533	58.64
653.863	58.69
654.193	58.72
654.523	58.63
654.853	58.64
655.183	58.59
655.513	58.64
655.843	58.74
656.172	58.76
656.502	58.68
656.832	58.71
657.162	58.63
657.491	58.52
657.821	58.54
658.15	58.45
658.48	58.4
658.809	58.41
659.139	58.56
659.468	58.46
659.798	58.51
660.127	58.47
660.456	58.47
660.785	58.51
661.115	58.66
661.444	58.75
661.773	58.79
662.102	58.82
662.431	58.93
662.76	59.05
663.089	59.13
663.418	59.18
663.747	59.19
664.076	59.22
664.404	59.38
664.733	59.3
665.062	59.38
665.39	59.56
665.719	59.59
666.048	59.54
666.376	59.6
666.705	59.61
667.033	59.68
667.362	59.56
667.69	59.58
668.018	59.43
668.347	59.55
668.675	59.69
669.003	59.51
669.331	59.61
669.659	59.53
669.987	59.59
670.315	59.82
670.643	59.96
670.971	60.04
671.299	60.06
671.627	60.14
671.955	60.13
672.283	59.89
672.61	59.8
672.938	59.9
673.266	60.02
673.593	59.89
673.921	59.88
674.249	60.06
674.576	59.99
674.904	60.03
675.231	59.97
675.558	59.9
675.886	60.15
676.213	59.94
676.54	59.92
676.867	59.81
677.195	59.66
677.522	59.64
677.849	59.53
678.176	59.45
678.503	59.44
678.83	59.46
679.157	59.64
679.484	59.78
679.81	59.66
680.137	59.61
680.464	59.72
680.791	59.87
681.117	59.98
681.444	60.08
681.771	60.11
682.097	60.17
682.424	60.14
682.75	60.11
683.077	60.19
683.403	60.17
683.729	60.27
684.056	60.26
684.382	60.16
684.708	60.38
685.034	60.49
685.36	60.41
685.686	60.47
686.012	60.54
686.339	60.47
686.664	60.56
686.99	60.38
687.316	60.43
687.642	60.44
687.968	60.21
688.294	60.16
688.619	60
688.945	59.84
689.271	59.76
689.596	59.66
689.922	59.69
690.247	59.72
690.573	59.63
690.898	59.85
691.224	60.01
691.549	59.96
691.874	59.83
692.2	60.01
692.525	59.9
692.85	59.89
693.175	59.95
693.5	59.89
693.825	59.94
694.15	59.8
694.475	59.81
694.8	59.8
695.125	59.75
695.45	59.81
695.775	59.8
696.099	59.74
696.424	59.8
696.749	59.91
697.073	59.95
697.398	59.8
697.723	59.68
698.047	59.64
698.372	59.61
698.696	59.46
699.02	59.33
699.345	59.31
699.669	59.34
699.993	59.28
700.318	59.4
700.642	59.59
700.966	59.75
701.29	59.76
701.614	59.83
701.938	59.87
702.262	60
702.586	60.12
702.91	60.3
703.234	60.5
703.557	60.49
703.881	60.61
704.205	60.86
704.529	60.77
704.852	60.67
705.176	60.67
705.499	60.85
705.823	61.12
706.146	61.34
706.47	61.39
706.793	61.5
707.117	61.54
707.44	61.37
707.763	61.26
708.086	61.13
708.409	61.25
708.733	61.26
709.056	61.1
709.379	60.99
709.702	60.71
710.025	60.52
710.348	60.36
710.671	60.1
710.993	59.95
711.316	60.15
711.639	60.14
711.962	60.2
712.284	60.43
712.607	60.33
712.93	60.15
713.252	60.03
713.575	59.91
713.897	59.94
714.22	60.05
714.542	60
714.864	60.04
715.187	59.73
715.509	59.62
715.831	59.74
716.153	59.89
716.475	60.19
716.798	60.31
717.12	60.21
717.442	60.48
717.764	60.63
718.085	60.63
718.407	60.7
718.729	60.45
719.051	60.49
719.373	60.37
719.695	60.3
720.016	60.42
720.338	60.47
720.659	60.57
720.981	60.35
721.302	60.5
721.624	60.52
721.945	60.85
722.267	61.03
722.588	60.96
722.909	60.73
723.231	60.57
723.552	60.62
723.873	60.61
724.194	60.29
724.515	60.37
724.836	60.3
725.157	60.1
725.478	60.08
725.799	59.68
726.12	59.69
726.441	59.96
726.762	59.97
727.083	60.07
727.403	59.86
727.724	59.85
728.045	59.86
728.365	59.9
728.686	59.94
729.006	59.8
729.327	59.87
729.647	59.85
729.967	59.88
730.288	59.57
730.608	59.73
730.928	59.81
731.249	59.79
731.569	59.76
731.889	59.72
732.209	59.85
732.529	59.8
732.849	60.03
733.169	60.2
733.489	60.11
733.809	59.99
734.129	59.95
734.448	60.41
734.768	60.15
735.088	60.13
735.408	60.02
735.727	60.26
736.047	60.22
736.366	60.36
736.686	60.32
737.005	60.75
737.325	60.71
737.644	60.89
737.963	60.8
738.283	60.59
738.602	60.86
738.921	60.95
739.24	61.48
739.56	61.36
739.879	61.09
740.198	61.29
740.517	61.38
740.836	61.44
741.155	61.26
741.473	61.29
741.792	61.27
742.111	61.22
742.43	60.97
742.748	61.05
743.067	61.21
743.386	61.24
743.704	60.75
744.023	61.04
744.341	60.84
744.66	60.77
744.978	61.27
745.297	61.41
745.615	61.45
745.933	61.09
746.252	60.89
746.57	61.19
746.888	61.24
747.206	61.24
747.524	60.95
747.842	60.66
748.16	60.99
748.478	60.62
748.796	60.73
749.114	60.67
749.432	60.33
749.749	60.51
750.067	60.54
750.385	61.49
750.703	61.09
751.02	61.3
751.338	61.37
751.655	60.89
751.973	60.82
752.29	60.76
752.608	61.2
752.925	61.37
753.242	61.29
753.56	61.01
753.877	61.02
754.194	61.33
754.511	61.35
754.828	61.4
755.145	61.37
755.462	61.36
755.779	61.44
756.096	61.32
756.413	60.4
756.73	60.55
757.047	59.76
757.364	59.75
757.68	59.47
757.997	59.28
758.314	59.12
758.63	58.46
758.947	58.18
759.264	58.01
759.58	57.88
759.896	57.23
760.213	57.12
760.529	57.04
760.846	56.93
761.162	56.48
761.478	56.65
761.794	56.62
762.11	56.63
762.426	56.62
762.743	56.7
763.059	57.46
763.375	57.26
763.69	57.66
764.006	57.78
764.322	57.6
764.638	57.81
764.954	58.05
765.27	58.18
765.585	58.45
765.901	58.15
766.216	58.21
766.532	58.36
766.848	58.34
767.163	58.38
767.478	58.64
767.794	59.01
768.109	58.65
768.424	58.89
768.74	59.29
769.055	59.51
769.37	59.65
769.685	59.2
770	59.51
770.315	58.68
770.63	58.91
770.945	59.32
771.26	59.38
771.575	59.32
771.89	59.44
772.205	59.5
772.52	59.67
772.834	59.84
773.149	60.16
773.464	60.76
773.778	60.81
774.093	60.73
774.407	60.94
774.722	61.24
775.036	61.68
775.351	61.36
775.665	61.28
775.979	61.13
776.293	61.41
776.608	60.97
776.922	61.72
777.236	61.71
777.55	61.89
777.864	61.75
778.178	61.75
778.492	61.77
778.806	61.76
779.12	62.02
779.434	61.7
779.747	61.93
780.061	61.44
780.375	61.3
780.689	61.5
781.002	62.3
781.316	62.06
781.629	61.79
781.943	61.91
782.256	62.02
782.57	61.96
782.883	62.11
783.196	62.5
783.51	62.31
783.823	62.19
784.136	62.81
784.449	63.23
784.762	63.37
785.075	63.45
785.388	63.14
785.701	62.93
786.014	63.39
786.327	62.76
786.64	62.54
786.953	62.29
787.266	61.93
787.578	61.09
787.891	61.11
788.204	61.18
788.516	61.1
788.829	60.75
789.141	61.36
789.454	60.92
789.766	61.06
790.079	60.37
790.391	60.43
790.703	59.51
791.016	59.01
791.328	59.42
791.64	59.41
791.952	59.66
792.264	59.52
792.576	59.51
792.888	60.39
793.2	61.03
793.512	61.64
793.824	61.64
794.136	61.68
794.448	62.18
794.76	62.1
795.071	61.89
795.383	61.68
795.695	61.35
796.006	61.54
796.318	61.78
796.629	62.59
796.941	62.37
797.252	61.82
797.564	62.2
797.875	61.76
798.186	62.35
798.497	62.21
798.809	61.74
799.12	61.27
799.431	60.55
799.742	60.52
800.053	60.17
800.364	60.37
800.675	60.15
800.986	60.16
801.297	60.28
801.608	60.68
801.918	61.39
802.229	60.92
802.54	60.86
802.851	59.92
803.161	60.26
803.472	60.02
803.782	61.31
804.093	61.17
804.403	61.18
804.714	61.18
805.024	61.54
805.334	62.42
805.645	62.58
805.955	63.31
806.265	63.76
806.575	64.41
806.885	64.17
807.195	64.72
807.505	64.64
807.815	65.17
808.125	64.24
808.435	64.81
808.745	65.94
809.055	65.86
809.365	66.44
809.674	65.82
809.984	66.9
810.294	66.76
810.603	66.93
810.913	66.79
811.222	66.2
811.532	65.67
811.841	65.73
812.151	65.45
812.46	64.23
812.769	63.34
813.079	62.61
813.388	62.93
813.697	62.11
814.006	62.02
814.315	61.82
814.624	62.61
814.933	62.04
815.242	61.81
815.551	62.53
815.86	62.83
816.169	62.34
816.478	62.18
816.786	62.45
817.095	61.79
817.404	61.64
817.712	61.89
818.021	62.09
818.33	61.09
818.638	60.94
818.947	60.77
819.255	60.3
819.563	60.36
819.872	60
820.18	60.17
820.488	59.38
820.796	59.03
821.105	58.83
821.413	58.54
821.721	58.17
822.029	58.1
822.337	57.83
822.645	57.9
822.953	57.78
823.26	57.57
823.568	57.7
823.876	57.72
824.184	57.89
824.491	57.74
824.799	57.61
825.107	57.9
825.414	58.03
825.722	58.05
826.029	57.77
826.337	57.84
826.644	57.72
826.951	58.12
827.259	57.95
827.566	58.06
827.873	58.36
828.18	58.7
828.488	58.6
828.795	58.91
829.102	59.33
829.409	59.25
829.716	59.4
830.023	59.46
830.329	59.26
830.636	59.28
830.943	59.07
831.25	59.37
831.557	58.5
831.863	58.55
832.17	58.73
832.476	59.4
832.783	59.74
833.089	59.7
833.396	59.48
833.702	59.3
834.009	59.15
834.315	58.53
834.621	58.24
834.928	57.46
835.234	57.13
835.54	56.84
835.846	57.23
836.152	57.03
836.458	56.82
836.764	57.41
837.07	57.11
837.376	57.25
837.682	57.69
837.988	58.07
838.293	58.13
838.599	58.35
838.905	58.79
839.211	58.14
839.516	58.54
839.822	59.31
840.127	60.09
840.433	59.05
840.738	59.85
841.044	59.71
841.349	62.3
841.654	62.79
841.959	63.99
842.265	63.79
842.57	64.5
842.875	65.54
843.18	65.06
843.485	64.16
843.79	64.68
844.095	64.91
844.4	65.66
844.705	65.39
845.01	64.5
845.315	63.76
845.619	64.53
845.924	65.18
846.229	62.62
846.533	62.13
846.838	63.8
847.142	63.51
847.447	64.33
847.751	62.5
848.056	62.09
848.36	60.47
848.664	62.61
848.969	63.22
849.273	62.33
849.577	62.31
849.881	65.21
850.185	68.07
850.489	68.23
850.794	69.8
851.097	71.73
851.401	73.17
851.705	70.06
852.009	67.64
852.313	65.99
852.617	66.84
852.92	70.66
853.224	71.81
853.528	73.86
853.831	76.19
854.135	78.39
854.438	77.79
854.742	77.02
855.045	75.48
855.349	77.79
855.652	78.16
855.955	80.64
856.259	77.16
856.562	74.96
856.865	76.22
857.168	74.52
857.471	70.65
857.774	68.75
858.077	68.89
858.38	71.36
858.683	73.25
858.986	73.14
859.289	69.47
859.592	67.29
859.894	65.22
860.197	60.9
860.5	59.79
860.802	61.02
861.105	60.52
861.407	57.67
861.71	55.01
862.012	55.38
862.315	56.07
862.617	55.3
862.919	55.2
863.222	54.46
863.524	54.34
863.826	56.3
864.128	59.8
864.43	61.14
864.732	60.7
865.034	59.65
865.336	62.09
865.638	59.89
865.94	62.17
866.242	61.79
866.544	64.03
866.846	62.3
867.147	61.04
867.449	61.73
867.751	64.95
868.052	65.43
868.354	63.43
868.655	61.99
868.957	63.25
869.258	65.45
869.56	67.93
869.861	66.6
870.162	67.45
870.463	65.26
870.765	67.59
871.066	67.9
871.367	66.56
871.668	64.04
871.969	66.78
872.27	66.34
872.571	65.98
872.872	63.56
873.173	64.29
873.473	61.31
873.774	62.25
874.075	63.2
874.376	61.91
874.676	64.35
874.977	63.76
875.277	61.73
875.578	60.49
875.878	58
876.179	58.64
876.479	57.98
876.78	57.59
877.08	55.82
877.38	54.62
877.68	55.64
877.981	55.11
878.281	56.16
878.581	54.86
