Data from BA17729_Reflection_00002.txt Node
Date: Tue Nov 19 11:50:35 EST 2019
User: vgr7
Spectrometer: USB2G7710
Scans to average: 3
Trigger mode: 4
Integration Time (sec): 2.000000E-2
Electric dark correction enabled: true
Boxcar width: 10
XAxis mode: Wavelengths
Number of Pixels in Spectrum: 2048
>>>>>Begin Spectral Data<<<<<
177.721	46.56
178.105	3.74
178.488	0.9
178.871	55.88
179.254	78.05
179.636	108.67
180.019	38.44
180.402	833.33
180.785	45.07
181.168	49.79
181.55	55.98
181.933	67.34
182.316	83.15
182.698	164.15
183.081	265.85
183.463	291.22
183.846	201
184.228	153.7
184.611	79.13
184.993	120.93
185.376	1247.06
185.758	128.52
186.14	58.72
186.522	58.26
186.904	43.96
187.287	29.32
187.669	-56
188.051	781.82
188.433	501.41
188.815	311.41
189.197	961.7
189.579	-60.08
189.961	-29.39
190.342	1.25
190.724	-251.06
191.106	-81.32
191.488	-161.47
191.869	-109.76
192.251	-100.33
192.633	-148.66
193.014	-74.85
193.396	-56.44
193.777	-17.35
194.159	-41.51
194.54	19.5
194.922	6.81
195.303	-32
195.684	-80.69
196.065	-119.87
196.447	-95.39
196.828	-56.29
197.209	-28.33
197.59	-37.22
197.971	-58.09
198.352	-45.16
198.733	-49.88
199.114	-69.73
199.495	-81.51
199.876	-71.29
200.257	-64.95
200.638	-72.55
201.018	-94.19
201.399	-74.51
201.78	-64.53
202.16	-66.14
202.541	-125.17
202.922	-87.98
203.302	-100.07
203.683	-81.97
204.063	-82.97
204.444	-94.04
204.824	-102.39
205.204	-103.21
205.585	-88.09
205.965	-58.1
206.345	-83.01
206.725	-57.19
207.106	-27.21
207.486	14.18
207.866	11.21
208.246	10.24
208.626	18.09
209.006	40.26
209.386	44.09
209.766	16.39
210.145	13.22
210.525	22.06
210.905	53.87
211.285	64.14
211.664	71.78
212.044	76.87
212.424	66.74
212.803	60.36
213.183	66.18
213.562	48.78
213.942	47.01
214.321	22.12
214.701	-11.39
215.08	8.55
215.459	-29.55
215.838	-24.3
216.218	-36.6
216.597	-18.45
216.976	-34.51
217.355	-38.79
217.734	-59.28
218.113	-28.31
218.492	-6.01
218.871	-19.8
219.25	-50.32
219.629	-111.25
220.008	-155.13
220.387	-134.31
220.766	-59.3
221.144	-82.98
221.523	-114.74
221.902	-78.4
222.28	-56.9
222.659	-19.96
223.037	-37.51
223.416	-34.67
223.794	-45.48
224.173	-53.82
224.551	-65.45
224.929	-44.7
225.308	-47.95
225.686	-30.56
226.064	-34.41
226.442	-37.16
226.821	-31.61
227.199	-25.81
227.577	-11.77
227.955	-12.15
228.333	-16.96
228.711	-13.54
229.089	-3.1
229.467	-6.14
229.845	-11.03
230.222	-4.85
230.6	-2.35
230.978	0.29
231.356	-0.47
231.733	2.43
232.111	1.51
232.488	3.14
232.866	2.53
233.243	3.77
233.621	2.68
233.998	2.73
234.376	5.3
234.753	6.34
235.13	6.2
235.508	3.9
235.885	3.54
236.262	3.84
236.639	1.55
237.016	2.71
237.393	5.78
237.77	7.31
238.147	5.33
238.524	4.15
238.901	3.39
239.278	3.29
239.655	3
240.032	3.86
240.409	3.5
240.785	3.56
241.162	3.86
241.539	4.19
241.915	3.36
242.292	3.06
242.668	3.67
243.045	4.49
243.421	4.43
243.798	4.58
244.174	4.78
244.551	5.09
244.927	4.74
245.303	4.35
245.679	4.37
246.056	4.46
246.432	4.74
246.808	5.03
247.184	5.15
247.56	5
247.936	5.23
248.312	5.26
248.688	5.5
249.064	5.5
249.44	5.22
249.815	5.44
250.191	5.21
250.567	5.22
250.943	4.92
251.318	4.87
251.694	4.57
252.069	4.56
252.445	4.46
252.82	4.13
253.196	4.36
253.571	4.55
253.947	4.12
254.322	3.8
254.697	3.12
255.073	3.29
255.448	3.42
255.823	3.36
256.198	3.21
256.573	3.46
256.948	3.56
257.323	3.81
257.698	3.86
258.073	3.89
258.448	3.82
258.823	3.86
259.198	3.91
259.573	4
259.948	3.85
260.322	3.77
260.697	4.02
261.072	3.9
261.446	3.71
261.821	3.86
262.195	3.97
262.57	4.19
262.944	4.07
263.319	4.23
263.693	4.03
264.067	4.1
264.442	4.02
264.816	3.88
265.19	4.1
265.564	3.89
265.938	4.15
266.313	3.77
266.687	3.73
267.061	3.73
267.435	3.52
267.809	3.44
268.183	3.44
268.556	3.22
268.93	3.42
269.304	3.47
269.678	3.7
270.051	3.69
270.425	3.78
270.799	3.72
271.172	3.72
271.546	3.8
271.919	3.86
272.293	3.76
272.666	3.82
273.04	3.7
273.413	3.98
273.787	3.95
274.16	4.09
274.533	4.24
274.906	4.26
275.279	4.37
275.653	4.61
276.026	4.67
276.399	4.86
276.772	4.75
277.145	4.74
277.518	4.51
277.891	4.57
278.263	4.53
278.636	4.66
279.009	4.61
279.382	4.63
279.755	4.48
280.127	4.49
280.5	4.28
280.872	4.36
281.245	4.06
281.617	4.04
281.99	4.08
282.362	3.85
282.735	3.91
283.107	3.91
283.479	3.82
283.852	3.81
284.224	3.88
284.596	3.8
284.968	3.82
285.34	4.02
285.713	3.98
286.085	3.75
286.457	3.68
286.829	3.48
287.201	3.55
287.572	3.65
287.944	3.67
288.316	3.68
288.688	3.66
289.06	3.77
289.431	3.82
289.803	3.98
290.175	4.02
290.546	3.99
290.918	3.99
291.289	4.05
291.661	4.12
292.032	4.08
292.403	4.25
292.775	4.33
293.146	4.37
293.517	4.39
293.889	4.5
294.26	4.53
294.631	4.74
295.002	4.77
295.373	4.68
295.744	4.8
296.115	4.84
296.486	4.74
296.857	4.74
297.228	4.72
297.599	4.49
297.97	4.56
298.34	4.61
298.711	4.71
299.082	4.58
299.452	4.44
299.823	4.35
300.194	4.31
300.564	4.15
300.935	4
301.305	3.93
301.676	3.98
302.046	3.93
302.416	3.89
302.787	3.94
303.157	4.01
303.527	3.94
303.897	3.9
304.267	3.94
304.637	4.09
305.008	3.96
305.378	4.1
305.748	4.05
306.117	4.02
306.487	3.97
306.857	4.16
307.227	4.46
307.597	4.56
307.967	4.48
308.336	4.49
308.706	4.51
309.076	4.48
309.445	4.54
309.815	4.59
310.184	4.52
310.554	4.32
310.923	4.35
311.293	4.37
311.662	4.51
312.031	4.59
312.401	4.4
312.77	4.42
313.139	4.55
313.508	4.41
313.877	4.41
314.246	4.36
314.616	4.36
314.985	4.14
315.353	4.05
315.722	4.21
316.091	4.37
316.46	4.34
316.829	4.45
317.198	4.51
317.567	4.42
317.935	4.58
318.304	4.73
318.672	4.55
319.041	4.47
319.41	4.3
319.778	4.33
320.147	4.4
320.515	4.51
320.883	4.36
321.252	4.45
321.62	4.33
321.988	4.59
322.357	4.51
322.725	4.52
323.093	4.33
323.461	4.12
323.829	4.06
324.197	3.99
324.565	4.01
324.933	3.83
325.301	3.81
325.669	3.6
326.037	3.55
326.405	3.69
326.772	3.61
327.14	3.57
327.508	3.51
327.875	3.55
328.243	3.45
328.61	3.37
328.978	3.4
329.346	3.45
329.713	3.28
330.08	3.16
330.448	3.21
330.815	3.29
331.182	3.43
331.55	3.36
331.917	3.26
332.284	3.25
332.651	3.37
333.018	3.36
333.385	3.46
333.752	3.46
334.119	3.46
334.486	3.55
334.853	3.69
335.22	3.89
335.587	3.76
335.954	3.76
336.32	3.82
336.687	3.86
337.054	3.85
337.42	3.86
337.787	3.93
338.153	3.97
338.52	4.04
338.886	4.01
339.253	4.03
339.619	4.23
339.986	4.12
340.352	4.06
340.718	4.11
341.084	4.14
341.451	4.04
341.817	4.12
342.183	4.1
342.549	4.19
342.915	4.07
343.281	4.2
343.647	4.3
344.013	4.21
344.379	4.19
344.745	4.29
345.11	4.29
345.476	4.4
345.842	4.3
346.208	4.37
346.573	4.37
346.939	4.41
347.304	4.46
347.67	4.44
348.035	4.4
348.401	4.38
348.766	4.25
349.132	4.44
349.497	4.36
349.862	4.33
350.228	4.26
350.593	4.15
350.958	4.33
351.323	4.27
351.688	4.33
352.053	4.3
352.418	4.23
352.783	4.25
353.148	4.22
353.513	4.3
353.878	4.19
354.243	4.15
354.608	4.22
354.972	4.04
355.337	4.08
355.702	4.1
356.066	4.13
356.431	4.22
356.795	4.13
357.16	4.15
357.524	4.17
357.889	4.14
358.253	4.13
358.618	4.04
358.982	3.98
359.346	4
359.71	4
360.075	4.03
360.439	4.07
360.803	4.05
361.167	4.04
361.531	4.07
361.895	4.07
362.259	4.06
362.623	4.12
362.987	4.18
363.351	4.17
363.714	4.18
364.078	4.17
364.442	4.17
364.806	4.22
365.169	4.22
365.533	4.22
365.896	4.36
366.26	4.33
366.623	4.39
366.987	4.41
367.35	4.42
367.714	4.39
368.077	4.36
368.44	4.41
368.803	4.45
369.167	4.46
369.53	4.51
369.893	4.47
370.256	4.4
370.619	4.31
370.982	4.28
371.345	4.24
371.708	4.28
372.071	4.31
372.434	4.33
372.797	4.32
373.159	4.39
373.522	4.28
373.885	4.25
374.247	4.2
374.61	4.16
374.973	4.14
375.335	4.18
375.698	4.17
376.06	4.11
376.423	4.08
376.785	4.09
377.147	4.09
377.51	4.05
377.872	4.15
378.234	4.24
378.596	4.32
378.958	4.33
379.321	4.23
379.683	4.24
380.045	4.18
380.407	4.22
380.769	4.17
381.13	4.14
381.492	4.13
381.854	4.17
382.216	4.2
382.578	4.24
382.939	4.21
383.301	4.18
383.663	4.24
384.024	4.25
384.386	4.25
384.747	4.24
385.109	4.24
385.47	4.2
385.832	4.15
386.193	4.12
386.554	4.1
386.916	4.21
387.277	4.14
387.638	4.15
387.999	4.14
388.36	4.14
388.721	4.18
389.082	4.2
389.443	4.18
389.804	4.17
390.165	4.17
390.526	4.18
390.887	4.23
391.248	4.18
391.609	4.19
391.969	4.18
392.33	4.16
392.691	4.16
393.051	4.16
393.412	4.19
393.772	4.23
394.133	4.25
394.493	4.23
394.854	4.23
395.214	4.24
395.574	4.18
395.935	4.17
396.295	4.21
396.655	4.21
397.015	4.27
397.376	4.3
397.736	4.29
398.096	4.29
398.456	4.3
398.816	4.34
399.176	4.32
399.535	4.28
399.895	4.3
400.255	4.32
400.615	4.35
400.975	4.34
401.334	4.32
401.694	4.32
402.054	4.31
402.413	4.37
402.773	4.37
403.132	4.37
403.492	4.36
403.851	4.3
404.211	4.34
404.57	4.35
404.929	4.36
405.288	4.35
405.648	4.36
406.007	4.35
406.366	4.3
406.725	4.31
407.084	4.35
407.443	4.36
407.802	4.33
408.161	4.32
408.52	4.31
408.879	4.3
409.238	4.3
409.596	4.29
409.955	4.26
410.314	4.28
410.673	4.29
411.031	4.32
411.39	4.35
411.748	4.34
412.107	4.31
412.465	4.29
412.824	4.31
413.182	4.3
413.54	4.29
413.899	4.32
414.257	4.32
414.615	4.29
414.974	4.31
415.332	4.32
415.69	4.3
416.048	4.3
416.406	4.31
416.764	4.29
417.122	4.29
417.48	4.33
417.838	4.3
418.195	4.31
418.553	4.3
418.911	4.27
419.269	4.25
419.626	4.25
419.984	4.24
420.342	4.24
420.699	4.23
421.057	4.24
421.414	4.24
421.772	4.24
422.129	4.23
422.486	4.22
422.844	4.21
423.201	4.22
423.558	4.22
423.915	4.22
424.273	4.24
424.63	4.26
424.987	4.25
425.344	4.24
425.701	4.25
426.058	4.25
426.415	4.26
426.772	4.26
427.128	4.27
427.485	4.28
427.842	4.27
428.199	4.3
428.555	4.29
428.912	4.27
429.269	4.26
429.625	4.27
429.982	4.3
430.338	4.32
430.695	4.31
431.051	4.3
431.407	4.3
431.764	4.26
432.12	4.25
432.476	4.24
432.832	4.27
433.189	4.26
433.545	4.26
433.901	4.25
434.257	4.25
434.613	4.23
434.969	4.21
435.325	4.22
435.681	4.19
436.036	4.2
436.392	4.24
436.748	4.27
437.104	4.27
437.459	4.24
437.815	4.23
438.171	4.23
438.526	4.25
438.882	4.26
439.237	4.28
439.593	4.29
439.948	4.29
440.304	4.28
440.659	4.28
441.014	4.28
441.369	4.3
441.725	4.31
442.08	4.32
442.435	4.34
442.79	4.34
443.145	4.35
443.5	4.35
443.855	4.34
444.21	4.32
444.565	4.32
444.92	4.32
445.275	4.33
445.629	4.33
445.984	4.32
446.339	4.32
446.693	4.31
447.048	4.29
447.403	4.29
447.757	4.29
448.112	4.29
448.466	4.29
448.82	4.28
449.175	4.28
449.529	4.29
449.883	4.26
450.238	4.25
450.592	4.26
450.946	4.25
451.3	4.25
451.654	4.24
452.008	4.25
452.362	4.25
452.716	4.24
453.07	4.26
453.424	4.26
453.778	4.26
454.132	4.26
454.486	4.28
454.839	4.27
455.193	4.27
455.547	4.28
455.9	4.29
456.254	4.28
456.607	4.3
456.961	4.31
457.314	4.32
457.668	4.3
458.021	4.28
458.375	4.28
458.728	4.27
459.081	4.28
459.434	4.27
459.787	4.27
460.141	4.27
460.494	4.27
460.847	4.28
461.2	4.28
461.553	4.31
461.906	4.3
462.259	4.32
462.611	4.31
462.964	4.32
463.317	4.31
463.67	4.32
464.022	4.32
464.375	4.3
464.728	4.3
465.08	4.31
465.433	4.32
465.785	4.32
466.138	4.34
466.49	4.36
466.843	4.37
467.195	4.4
467.547	4.41
467.899	4.4
468.252	4.39
468.604	4.36
468.956	4.34
469.308	4.36
469.66	4.35
470.012	4.36
470.364	4.36
470.716	4.38
471.068	4.35
471.42	4.32
471.772	4.3
472.123	4.32
472.475	4.35
472.827	4.34
473.178	4.35
473.53	4.35
473.882	4.34
474.233	4.32
474.585	4.31
474.936	4.31
475.288	4.3
475.639	4.3
475.99	4.3
476.342	4.31
476.693	4.31
477.044	4.29
477.395	4.31
477.746	4.3
478.097	4.29
478.448	4.32
478.8	4.34
479.15	4.38
479.501	4.35
479.852	4.36
480.203	4.36
480.554	4.37
480.905	4.36
481.255	4.38
481.606	4.4
481.957	4.37
482.307	4.38
482.658	4.41
483.009	4.41
483.359	4.42
483.709	4.42
484.06	4.42
484.41	4.42
484.761	4.43
485.111	4.44
485.461	4.44
485.811	4.43
486.162	4.43
486.512	4.42
486.862	4.43
487.212	4.43
487.562	4.42
487.912	4.42
488.262	4.42
488.612	4.42
488.961	4.42
489.311	4.44
489.661	4.44
490.011	4.42
490.36	4.42
490.71	4.42
491.06	4.42
491.409	4.42
491.759	4.42
492.108	4.42
492.458	4.4
492.807	4.41
493.157	4.41
493.506	4.42
493.855	4.44
494.204	4.43
494.554	4.43
494.903	4.44
495.252	4.43
495.601	4.44
495.95	4.44
496.299	4.45
496.648	4.44
496.997	4.41
497.346	4.42
497.695	4.44
498.043	4.44
498.392	4.44
498.741	4.44
499.09	4.46
499.438	4.46
499.787	4.48
500.135	4.48
500.484	4.47
500.832	4.45
501.181	4.47
501.529	4.48
501.878	4.48
502.226	4.49
502.574	4.48
502.923	4.46
503.271	4.48
503.619	4.49
503.967	4.48
504.315	4.51
504.663	4.5
505.011	4.49
505.359	4.48
505.707	4.45
506.055	4.44
506.403	4.42
506.751	4.4
507.098	4.4
507.446	4.38
507.794	4.4
508.141	4.42
508.489	4.4
508.837	4.39
509.184	4.38
509.531	4.39
509.879	4.4
510.226	4.4
510.574	4.41
510.921	4.4
511.268	4.4
511.616	4.39
511.963	4.39
512.31	4.4
512.657	4.38
513.004	4.4
513.351	4.44
513.698	4.44
514.045	4.47
514.392	4.47
514.739	4.48
515.086	4.5
515.432	4.5
515.779	4.51
516.126	4.54
516.473	4.53
516.819	4.54
517.166	4.55
517.512	4.55
517.859	4.53
518.205	4.51
518.552	4.54
518.898	4.54
519.245	4.54
519.591	4.56
519.937	4.58
520.283	4.57
520.629	4.54
520.976	4.56
521.322	4.53
521.668	4.56
522.014	4.56
522.36	4.54
522.706	4.55
523.052	4.54
523.398	4.53
523.743	4.55
524.089	4.55
524.435	4.55
524.781	4.58
525.126	4.58
525.472	4.61
525.817	4.61
526.163	4.6
526.509	4.61
526.854	4.59
527.199	4.61
527.545	4.61
527.89	4.62
528.235	4.61
528.581	4.61
528.926	4.6
529.271	4.61
529.616	4.61
529.961	4.61
530.306	4.61
530.651	4.61
530.996	4.64
531.341	4.63
531.686	4.64
532.031	4.62
532.376	4.64
532.721	4.62
533.065	4.62
533.41	4.64
533.755	4.66
534.099	4.68
534.444	4.67
534.788	4.67
535.133	4.67
535.477	4.7
535.822	4.71
536.166	4.71
536.51	4.69
536.855	4.7
537.199	4.7
537.543	4.71
537.887	4.73
538.231	4.7
538.576	4.71
538.92	4.72
539.264	4.72
539.608	4.7
539.951	4.72
540.295	4.72
540.639	4.72
540.983	4.71
541.327	4.71
541.671	4.72
542.014	4.75
542.358	4.76
542.701	4.76
543.045	4.76
543.389	4.78
543.732	4.79
544.075	4.8
544.419	4.79
544.762	4.77
545.105	4.76
545.449	4.77
545.792	4.77
546.135	4.77
546.478	4.79
546.821	4.82
547.165	4.81
547.508	4.81
547.851	4.8
548.194	4.8
548.536	4.8
548.879	4.79
549.222	4.77
549.565	4.78
549.908	4.74
550.25	4.74
550.593	4.74
550.936	4.74
551.278	4.76
551.621	4.73
551.963	4.77
552.306	4.78
552.648	4.79
552.991	4.78
553.333	4.76
553.675	4.77
554.017	4.74
554.36	4.74
554.702	4.74
555.044	4.74
555.386	4.73
555.728	4.73
556.07	4.69
556.412	4.67
556.754	4.66
557.096	4.68
557.438	4.69
557.78	4.64
558.121	4.64
558.463	4.65
558.805	4.67
559.147	4.68
559.488	4.68
559.83	4.68
560.171	4.68
560.513	4.72
560.854	4.7
561.196	4.72
561.537	4.72
561.878	4.76
562.22	4.79
562.561	4.77
562.902	4.75
563.243	4.82
563.584	4.84
563.925	4.85
564.266	4.85
564.607	4.84
564.948	4.87
565.289	4.87
565.63	4.85
565.971	4.85
566.312	4.84
566.653	4.83
566.993	4.82
567.334	4.84
567.675	4.86
568.015	4.85
568.356	4.87
568.696	4.89
569.037	4.9
569.377	4.87
569.718	4.9
570.058	4.9
570.398	4.87
570.739	4.87
571.079	4.86
571.419	4.87
571.759	4.86
572.099	4.85
572.439	4.86
572.779	4.84
573.119	4.89
573.459	4.88
573.799	4.87
574.139	4.87
574.479	4.86
574.819	4.86
575.158	4.85
575.498	4.81
575.838	4.81
576.177	4.77
576.517	4.79
576.856	4.79
577.196	4.83
577.535	4.83
577.875	4.81
578.214	4.81
578.553	4.83
578.893	4.89
579.232	4.85
579.571	4.87
579.91	4.91
580.25	4.91
580.589	4.92
580.928	4.94
581.267	4.98
581.606	4.96
581.945	4.92
582.283	4.96
582.622	4.98
582.961	4.95
583.3	4.96
583.639	4.94
583.977	4.93
584.316	4.93
584.654	4.96
584.993	5.02
585.332	5.02
585.67	5
586.008	5.02
586.347	5.04
586.685	5.03
587.024	5.03
587.362	5.05
587.7	5.06
588.038	5.03
588.376	4.99
588.715	5.03
589.053	5.04
589.391	5.05
589.729	5.06
590.067	5.09
590.404	5.07
590.742	5.04
591.08	5.1
591.418	5.14
591.756	5.11
592.093	5.04
592.431	5.02
592.769	5.01
593.106	4.97
593.444	5.01
593.781	5
594.119	4.97
594.456	4.95
594.793	4.95
595.131	4.94
595.468	4.96
595.805	4.92
596.143	4.92
596.48	4.91
596.817	4.92
597.154	4.91
597.491	4.91
597.828	4.89
598.165	4.88
598.502	4.79
598.839	4.78
599.176	4.85
599.512	4.86
599.849	4.87
600.186	4.83
600.523	4.81
600.859	4.82
601.196	4.85
601.532	4.81
601.869	4.84
602.205	4.87
602.542	4.85
602.878	4.86
603.215	4.88
603.551	4.84
603.887	4.81
604.223	4.79
604.56	4.82
604.896	4.88
605.232	4.85
605.568	4.89
605.904	4.9
606.24	4.88
606.576	4.88
606.912	4.89
607.248	4.93
607.583	4.94
607.919	4.93
608.255	4.93
608.591	4.95
608.926	4.96
609.262	4.96
609.597	4.99
609.933	5.03
610.268	5.01
610.604	4.99
610.939	5.06
611.275	5.05
611.61	5.07
611.945	5.02
612.281	5.06
612.616	5.07
612.951	5.07
613.286	5.05
613.621	5.08
613.956	5.09
614.291	5.06
614.626	5.06
614.961	5.11
615.296	5.15
615.631	5.18
615.966	5.08
616.3	5.12
616.635	5.09
616.97	5.07
617.304	5.06
617.639	5.16
617.973	5.08
618.308	5.12
618.642	5.13
618.977	5.13
619.311	5.14
619.646	5.15
619.98	5.17
620.314	5.2
620.648	5.21
620.983	5.16
621.317	5.19
621.651	5.21
621.985	5.2
622.319	5.14
622.653	5.11
622.987	5.22
623.321	5.22
623.655	5.29
623.988	5.28
624.322	5.33
624.656	5.27
624.99	5.29
625.323	5.29
625.657	5.3
625.99	5.36
626.324	5.34
626.657	5.32
626.991	5.32
627.324	5.32
627.658	5.27
627.991	5.27
628.324	5.27
628.657	5.22
628.991	5.2
629.324	5.25
629.657	5.29
629.99	5.26
630.323	5.24
630.656	5.19
630.989	5.18
631.322	5.19
631.655	5.26
631.987	5.33
632.32	5.34
632.653	5.31
632.986	5.27
633.318	5.27
633.651	5.25
633.984	5.27
634.316	5.31
634.649	5.35
634.981	5.39
635.313	5.42
635.646	5.43
635.978	5.52
636.31	5.52
636.643	5.52
636.975	5.46
637.307	5.5
637.639	5.52
637.971	5.52
638.303	5.46
638.635	5.42
638.967	5.36
639.299	5.41
639.631	5.43
639.963	5.51
640.295	5.52
640.626	5.52
640.958	5.5
641.29	5.46
641.621	5.42
641.953	5.39
642.285	5.37
642.616	5.4
642.948	5.39
643.279	5.38
643.61	5.39
643.942	5.48
644.273	5.43
644.604	5.48
644.936	5.54
645.267	5.52
645.598	5.59
645.929	5.56
646.26	5.46
646.591	5.41
646.922	5.38
647.253	5.33
647.584	5.34
647.915	5.32
648.245	5.31
648.576	5.33
648.907	5.27
649.238	5.28
649.568	5.28
649.899	5.16
650.229	5.14
650.56	5.16
650.89	5.16
651.221	5.18
651.551	5.15
651.882	5.15
652.212	5.14
652.542	5.14
652.872	5.21
653.203	5.24
653.533	5.3
653.863	5.33
654.193	5.37
654.523	5.38
654.853	5.43
655.183	5.41
655.513	5.49
655.843	5.58
656.172	5.61
656.502	5.54
656.832	5.58
657.162	5.6
657.491	5.58
657.821	5.6
658.15	5.63
658.48	5.69
658.809	5.67
659.139	5.72
659.468	5.73
659.798	5.78
660.127	5.79
660.456	5.73
660.785	5.69
661.115	5.74
661.444	5.79
661.773	5.79
662.102	5.88
662.431	5.86
662.76	5.92
663.089	5.83
663.418	5.92
663.747	5.92
664.076	5.88
664.404	5.96
664.733	5.83
665.062	5.89
665.39	5.86
665.719	5.85
666.048	5.85
666.376	5.8
666.705	5.76
667.033	5.74
667.362	5.68
667.69	5.71
668.018	5.7
668.347	5.67
668.675	5.59
669.003	5.48
669.331	5.4
669.659	5.36
669.987	5.35
670.315	5.41
670.643	5.49
670.971	5.56
671.299	5.41
671.627	5.53
671.955	5.36
672.283	5.32
672.61	5.35
672.938	5.37
673.266	5.39
673.593	5.38
673.921	5.42
674.249	5.57
674.576	5.62
674.904	5.53
675.231	5.54
675.558	5.64
675.886	5.72
676.213	5.82
676.54	5.81
676.867	5.86
677.195	5.92
677.522	5.83
677.849	5.85
678.176	5.79
678.503	5.65
678.83	5.75
679.157	5.67
679.484	5.66
679.81	5.64
680.137	5.75
680.464	5.7
680.791	5.71
681.117	5.7
681.444	5.66
681.771	5.69
682.097	5.75
682.424	5.68
682.75	5.67
683.077	5.67
683.403	5.7
683.729	5.73
684.056	5.58
684.382	5.62
684.708	5.62
685.034	5.73
685.36	5.8
685.686	5.86
686.012	5.91
686.339	5.88
686.664	5.86
686.99	5.6
687.316	5.69
687.642	5.73
687.968	5.8
688.294	5.8
688.619	5.86
688.945	5.81
689.271	5.8
689.596	5.74
689.922	5.66
690.247	5.68
690.573	5.7
690.898	5.76
691.224	5.81
691.549	5.78
691.874	5.84
692.2	5.81
692.525	5.67
692.85	5.78
693.175	5.92
693.5	5.91
693.825	6.11
694.15	6.02
694.475	6
694.8	5.83
695.125	5.78
695.45	5.77
695.775	5.79
696.099	5.96
696.424	5.99
696.749	5.98
697.073	5.99
697.398	6.04
697.723	6.04
698.047	6.09
698.372	6.12
698.696	6.15
699.02	6.32
699.345	6.39
699.669	6.41
699.993	6.31
700.318	6.32
700.642	6.29
700.966	6.32
701.29	6.33
701.614	6.33
701.938	6.4
702.262	6.45
702.586	6.49
702.91	6.53
703.234	6.57
703.557	6.65
703.881	6.66
704.205	6.67
704.529	6.71
704.852	6.69
705.176	6.68
705.499	6.58
705.823	6.42
706.146	6.45
706.47	6.43
706.793	6.43
707.117	6.57
707.44	6.55
707.763	6.59
708.086	6.57
708.409	6.66
708.733	6.68
709.056	6.73
709.379	6.74
709.702	6.71
710.025	6.86
710.348	6.78
710.671	6.65
710.993	6.54
711.316	6.55
711.639	6.47
711.962	6.43
712.284	6.45
712.607	6.55
712.93	6.63
713.252	6.64
713.575	6.7
713.897	6.54
714.22	6.5
714.542	6.58
714.864	6.51
715.187	6.38
715.509	6.33
715.831	6.2
716.153	6.2
716.475	6.05
716.798	5.94
717.12	6.07
717.442	6.15
717.764	6.17
718.085	6.13
718.407	6.26
718.729	6.43
719.051	6.44
719.373	6.46
719.695	6.34
720.016	6.39
720.338	6.2
720.659	6.48
720.981	6.54
721.302	6.48
721.624	6.63
721.945	6.87
722.267	6.95
722.588	6.97
722.909	6.84
723.231	6.88
723.552	6.96
723.873	6.76
724.194	6.82
724.515	6.78
724.836	6.85
725.157	6.84
725.478	6.67
725.799	6.69
726.12	6.63
726.441	6.56
726.762	6.51
727.083	6.77
727.403	6.6
727.724	6.75
728.045	6.8
728.365	6.68
728.686	6.83
729.006	6.74
729.327	6.81
729.647	6.96
729.967	7.04
730.288	7.1
730.608	7.34
730.928	7.37
731.249	7.43
731.569	7.46
731.889	7.38
732.209	7.47
732.529	7.46
732.849	7.38
733.169	7.58
733.489	7.41
733.809	7.18
734.129	7.23
734.448	7.28
734.768	7.34
735.088	7.19
735.408	7.01
735.727	7.24
736.047	7.16
736.366	7.12
736.686	6.89
737.005	6.82
737.325	6.9
737.644	6.61
737.963	6.65
738.283	6.51
738.602	6.66
738.921	6.61
739.24	6.6
739.56	6.51
739.879	6.31
740.198	6.45
740.517	6.56
740.836	6.46
741.155	6.47
741.473	6.28
741.792	6.5
742.111	6.39
742.43	6.31
742.748	6.56
743.067	6.77
743.386	6.81
743.704	6.59
744.023	6.42
744.341	6.87
744.66	6.61
744.978	6.83
745.297	6.62
745.615	6.61
745.933	6.76
746.252	6.88
746.57	6.96
746.888	7.14
747.206	7.34
747.524	7.53
747.842	6.99
748.16	7.2
748.478	7.26
748.796	7.39
749.114	7.35
749.432	7.13
749.749	6.83
750.067	7.13
750.385	7.35
750.703	7.06
751.02	6.68
751.338	6.82
751.655	6.45
751.973	6.51
752.29	6.46
752.608	6.24
752.925	6.61
753.242	6.98
753.56	6.71
753.877	6.79
754.194	6.82
754.511	7.15
754.828	7.06
755.145	6.82
755.462	7.08
755.779	7.15
756.096	7.17
756.413	7.29
756.73	7.29
757.047	7.26
757.364	7.49
757.68	7.98
757.997	8.18
758.314	8.59
758.63	8.54
758.947	8.56
759.264	8.63
759.58	8.16
759.896	7.89
760.213	8.08
760.529	7.86
760.846	7.72
761.162	7.59
761.478	7.56
761.794	7.76
762.11	7.48
762.426	7.21
762.743	7.27
763.059	7.15
763.375	6.93
763.69	6.94
764.006	6.91
764.322	6.75
764.638	6.87
764.954	6.74
765.27	6.93
765.585	6.98
765.901	7.08
766.216	7.14
766.532	7
766.848	6.88
767.163	6.76
767.478	6.74
767.794	7.01
768.109	7.01
768.424	7.15
768.74	7.2
769.055	7.61
769.37	7.55
769.685	7.77
770	7.93
770.315	8.07
770.63	8.31
770.945	8.26
771.26	7.92
771.575	7.85
771.89	7.56
772.205	7.65
772.52	7.74
772.834	8.21
773.149	8.48
773.464	8.68
773.778	8.76
774.093	8.93
774.407	8.62
774.722	8.6
775.036	8.07
775.351	8.34
775.665	8.25
775.979	8.42
776.293	8.14
776.608	8.11
776.922	8.04
777.236	8.1
777.55	8.06
777.864	7.92
778.178	7.97
778.492	8.08
778.806	8.51
779.12	8.11
779.434	7.78
779.747	8.13
780.061	8.17
780.375	8.55
780.689	8.38
781.002	8.5
781.316	8.58
781.629	8.84
781.943	8.41
782.256	8.2
782.57	8.34
782.883	8.37
783.196	8.32
783.51	8.72
783.823	8.38
784.136	8.16
784.449	8.33
784.762	8.46
785.075	8.47
785.388	8.31
785.701	8.3
786.014	7.68
786.327	7.2
786.64	7.02
786.953	6.44
787.266	7.02
787.578	7.51
787.891	7.2
788.204	7.65
788.516	7.89
788.829	7.97
789.141	7.87
789.454	7.7
789.766	7.85
790.079	7.31
790.391	7.3
790.703	7.6
791.016	7.68
791.328	7.64
791.64	7.67
791.952	7.22
792.264	7.41
792.576	7.78
792.888	7.34
793.2	7.29
793.512	7.64
793.824	7.43
794.136	6.87
794.448	7.36
794.76	7.39
795.071	7.6
795.383	7.38
795.695	7.03
796.006	7.42
796.318	7.3
796.629	7.43
796.941	7.81
797.252	7.64
797.564	8.05
797.875	7.95
798.186	8.29
798.497	8.49
798.809	8.77
799.12	8.83
799.431	9.32
799.742	9.7
800.053	9.59
800.364	9.29
800.675	9.37
800.986	9.17
801.297	8.65
801.608	7.77
801.918	7.66
802.229	8.3
802.54	7.89
802.851	7.96
803.161	8.08
803.472	8.27
803.782	9.09
804.093	8.83
804.403	9.02
804.714	9.18
805.024	8.86
805.334	7.84
805.645	8.08
805.955	7.54
806.265	7.13
806.575	7.7
806.885	7.54
807.195	7.3
807.505	7.15
807.815	7.46
808.125	8.43
808.435	8.85
808.745	8.29
809.055	8.66
809.365	8.78
809.674	8.01
809.984	7.78
810.294	6.77
810.603	6.42
810.913	6.47
811.222	5.63
811.532	6.27
811.841	7.58
812.151	7.78
812.46	8.24
812.769	8.19
813.079	7.85
813.388	8.44
813.697	8.88
814.006	8.63
814.315	8.25
814.624	8.16
814.933	8
815.242	8.35
815.551	8.37
815.86	8.74
816.169	9.65
816.478	9.12
816.786	9.24
817.095	8.95
817.404	8.98
817.712	9.8
818.021	9.94
818.33	9.83
818.638	10.18
818.947	10.38
819.255	10.03
819.563	10.27
819.872	9.71
820.18	10.05
820.488	10.41
820.796	10.65
821.105	10.66
821.413	10.77
821.721	10.45
822.029	10.22
822.337	10.08
822.645	9.89
822.953	9.96
823.26	10.06
823.568	10.11
823.876	10.14
824.184	9.86
824.491	9.73
824.799	9.64
825.107	9.47
825.414	9.46
825.722	9.65
826.029	9.59
826.337	9.77
826.644	9.68
826.951	9.64
827.259	9.63
827.566	9.48
827.873	9.11
828.18	9.51
828.488	9.92
828.795	9.9
829.102	10.04
829.409	9.85
829.716	9.98
830.023	9.99
830.329	10.2
830.636	10.5
830.943	10.33
831.25	10.29
831.557	10.47
831.863	10.79
832.17	10.98
832.476	10.65
832.783	10.56
833.089	10.73
833.396	10.79
833.702	10.64
834.009	10.87
834.315	11.54
834.621	11.07
834.928	10.42
835.234	10.49
835.54	10.58
835.846	11.07
836.152	10.98
836.458	10.92
836.764	10.33
837.07	10.47
837.376	10.59
837.682	10.79
837.988	10.33
838.293	10.02
838.599	9.76
838.905	10.07
839.211	10.19
839.516	10.13
839.822	10.35
840.127	9.76
840.433	10.37
840.738	10.51
841.044	11.02
841.349	11.49
841.654	11.55
841.959	11.8
842.265	11.21
842.57	10.98
842.875	11.41
843.18	11.19
843.485	10.17
843.79	10.77
844.095	10.21
844.4	12.12
844.705	12.17
845.01	13.36
845.315	11.9
845.619	12.89
845.924	12.5
846.229	10.91
846.533	12.39
846.838	10.94
847.142	10.66
847.447	10.47
847.751	11.68
848.056	10.82
848.36	11.46
848.664	13.27
848.969	11.61
849.273	10.59
849.577	12.42
849.881	13.94
850.185	13.97
850.489	14.79
850.794	13.47
851.097	12.44
851.401	7.93
851.705	8.22
852.009	6.83
852.313	4.17
852.617	4.4
852.92	4.25
853.224	3.34
853.528	2.04
853.831	1.49
854.135	0.56
854.438	1.76
854.742	0.9
855.045	-1.09
855.349	-0.64
855.652	0.7
855.955	-0.92
856.259	-1.13
856.562	-1.76
856.865	0.12
857.168	-0.68
857.471	-1.12
857.774	0.12
858.077	2.71
858.38	2.48
858.683	4.04
858.986	5.7
859.289	5.43
859.592	6.33
859.894	6.47
860.197	4.48
860.5	3.57
860.802	2.71
861.105	2.48
861.407	1.09
861.71	0.77
862.012	3.38
862.315	1.4
862.617	1.66
862.919	1.26
863.222	-1.36
863.524	-2.33
863.826	-0.83
864.128	0.35
864.43	1.77
864.732	3.42
865.034	2.22
865.336	0.71
865.638	2.43
865.94	5
866.242	5.13
866.544	10.14
866.846	11.71
867.147	13.97
867.449	13.93
867.751	15.2
868.052	16.22
868.354	14.52
868.655	16.43
868.957	15.6
869.258	17
869.56	20.39
869.861	21.32
870.162	20.75
870.463	19.68
870.765	17.92
871.066	15.36
871.367	17.61
871.668	16.42
871.969	13.68
872.27	12.83
872.571	14.48
872.872	11.06
873.173	9.72
873.473	7.59
873.774	7.72
874.075	8.06
874.376	7.57
874.676	5.67
874.977	7.67
875.277	7.92
875.578	7.32
875.878	4.7
876.179	4.98
876.479	4.23
876.78	5.49
877.08	5.06
877.38	6.03
877.68	5.12
877.981	6.92
878.281	7.94
878.581	4.81
