Data from BA17729_Reflection_00014.txt Node
Date: Tue Nov 19 11:51:03 EST 2019
User: vgr7
Spectrometer: USB2G7710
Scans to average: 3
Trigger mode: 4
Integration Time (sec): 2.000000E-2
Electric dark correction enabled: true
Boxcar width: 10
XAxis mode: Wavelengths
Number of Pixels in Spectrum: 2048
>>>>>Begin Spectral Data<<<<<
177.721	-63.21
178.105	-71.12
178.488	-79.17
178.871	-223.53
179.254	-85.37
179.636	72.54
180.019	108.64
180.402	433.33
180.785	9.86
181.168	-67.36
181.55	16.48
181.933	37.59
182.316	45.43
182.698	67.41
183.081	127.03
183.463	165.16
183.846	67.58
184.228	4.53
184.611	-39.17
184.993	-155.81
185.376	-1547.06
185.758	-63.5
186.14	-39.45
186.522	-13.17
186.904	-47.25
187.287	-109.42
187.669	-340
188.051	-5445.45
188.433	-294.37
188.815	-269.13
189.197	-431.91
189.579	151.38
189.961	64.86
190.342	46.71
190.724	206.38
191.106	-449.45
191.488	-468.81
191.869	-221.9
192.251	-336.48
192.633	-472.19
193.014	-648.47
193.396	-777.3
193.777	-171.69
194.159	-148.61
194.54	-112.49
194.922	-246.69
195.303	-162.4
195.684	-184.89
196.065	-385.34
196.447	-168.54
196.828	-158.46
197.209	-103.31
197.59	-56.37
197.971	-46.42
198.352	-41.04
198.733	-27.03
199.114	-28.79
199.495	-38.43
199.876	-39.81
200.257	-6.89
200.638	-36.91
201.018	-48.36
201.399	-38.59
201.78	-43.31
202.16	-33.07
202.541	-24.72
202.922	-9.33
203.302	-36.7
203.683	-40.98
204.063	-25.7
204.444	-36.33
204.824	-36.84
205.204	-60.29
205.585	-101.26
205.965	-69.18
206.345	-117.79
206.725	-108.77
207.106	-65.95
207.486	-43.8
207.866	-23.62
208.246	-24.46
208.626	-21.9
209.006	-14.41
209.386	-3.89
209.766	-13.44
210.145	-6.17
210.525	-6.05
210.905	-26.19
211.285	-5.52
211.664	21.25
212.044	11.78
212.424	9.23
212.803	10.26
213.183	22.18
213.562	25.44
213.942	20.69
214.321	23.8
214.701	35.83
215.08	59.96
215.459	57.34
215.838	-0.56
216.218	4.6
216.597	14
216.976	-7.76
217.355	-26.8
217.734	-29.87
218.113	-28.69
218.492	-69.78
218.871	-57
219.25	-63.66
219.629	-111.69
220.008	-141.25
220.387	-174.45
220.766	-90.31
221.144	-50.47
221.523	-80.28
221.902	-44.62
222.28	0.42
222.659	9.45
223.037	-0.07
223.416	-8.98
223.794	12.37
224.173	-9.08
224.551	-13.22
224.929	-8.59
225.308	1.37
225.686	0.64
226.064	-3.92
226.442	7.98
226.821	8.47
227.199	10.31
227.577	11.36
227.955	9.84
228.333	11.17
228.711	11.32
229.089	4.94
229.467	1.34
229.845	-0.47
230.222	0.77
230.6	-2.41
230.978	-2.29
231.356	-2.76
231.733	0.29
232.111	3.72
232.488	4.97
232.866	6.65
233.243	7.81
233.621	9.39
233.998	9.18
234.376	8.96
234.753	7.93
235.13	8.43
235.508	7.21
235.885	6.39
236.262	3.8
236.639	2.34
237.016	4.82
237.393	7.88
237.77	7.45
238.147	6.75
238.524	7.62
238.901	6.35
239.278	6.27
239.655	5.35
240.032	4.48
240.409	4.07
240.785	4.32
241.162	4.72
241.539	4.46
241.915	4.38
242.292	4.92
242.668	5.05
243.045	5.25
243.421	6.38
243.798	6.67
244.174	7.14
244.551	7.18
244.927	6.81
245.303	6.2
245.679	5.98
246.056	5.93
246.432	6.23
246.808	6.23
247.184	6.73
247.56	6.71
247.936	7.17
248.312	7.4
248.688	7.29
249.064	7.26
249.44	7.15
249.815	6.99
250.191	6.9
250.567	6.88
250.943	6.63
251.318	6.01
251.694	5.66
252.069	5.66
252.445	6
252.82	6.26
253.196	6.57
253.571	6.77
253.947	6.21
254.322	5.63
254.697	6.05
255.073	5.72
255.448	5.69
255.823	5.52
256.198	5.07
256.573	5.04
256.948	4.98
257.323	5.4
257.698	5.61
258.073	5.21
258.448	5.63
258.823	5.58
259.198	5.74
259.573	5.75
259.948	5.71
260.322	5.56
260.697	5.36
261.072	5.49
261.446	5.46
261.821	5.66
262.195	5.87
262.57	5.95
262.944	5.95
263.319	5.99
263.693	5.91
264.067	6.13
264.442	6.24
264.816	6.08
265.19	5.74
265.564	5.67
265.938	6.02
266.313	5.44
266.687	5.56
267.061	5.43
267.435	5.62
267.809	5.6
268.183	5.7
268.556	5.63
268.93	5.54
269.304	5.48
269.678	5.52
270.051	5.41
270.425	5.17
270.799	4.89
271.172	5.02
271.546	5.09
271.919	5.16
272.293	5.25
272.666	5.47
273.04	5.72
273.413	5.77
273.787	5.67
274.16	5.86
274.533	6.01
274.906	6.08
275.279	5.98
275.653	6.02
276.026	5.9
276.399	6.07
276.772	6.11
277.145	6.15
277.518	6.1
277.891	6.25
278.263	6.55
278.636	6.84
279.009	6.69
279.382	6.74
279.755	6.73
280.127	6.69
280.5	6.48
280.872	6.43
281.245	6.47
281.617	6.42
281.99	6.31
282.362	6.23
282.735	6.31
283.107	6.5
283.479	6.32
283.852	6.32
284.224	6.23
284.596	6.27
284.968	6.3
285.34	6.3
285.713	6.17
286.085	6.01
286.457	5.94
286.829	5.99
287.201	5.96
287.572	6.03
287.944	6.05
288.316	6.34
288.688	6.31
289.06	6.26
289.431	6.25
289.803	6.4
290.175	6.39
290.546	6.25
290.918	6.05
291.289	6.08
291.661	6.13
292.032	6.34
292.403	6.14
292.775	6.25
293.146	6.32
293.517	6.4
293.889	6.55
294.26	6.53
294.631	6.54
295.002	6.49
295.373	6.34
295.744	6.36
296.115	6.29
296.486	6.33
296.857	6.41
297.228	6.41
297.599	6.41
297.97	6.53
298.34	6.7
298.711	6.79
299.082	6.88
299.452	6.84
299.823	6.7
300.194	6.76
300.564	6.63
300.935	6.79
301.305	6.77
301.676	6.61
302.046	6.79
302.416	6.83
302.787	6.87
303.157	7.05
303.527	7.07
303.897	6.96
304.267	6.9
304.637	6.75
305.008	6.74
305.378	6.87
305.748	6.67
306.117	6.78
306.487	6.92
306.857	6.97
307.227	7.27
307.597	7.43
307.967	7.42
308.336	7.52
308.706	7.43
309.076	7.51
309.445	7.75
309.815	7.74
310.184	7.66
310.554	7.63
310.923	7.54
311.293	7.64
311.662	7.72
312.031	7.78
312.401	7.92
312.77	8.03
313.139	7.88
313.508	8.03
313.877	7.94
314.246	7.83
314.616	7.91
314.985	7.69
315.353	7.71
315.722	7.94
316.091	7.96
316.46	7.93
316.829	7.94
317.198	7.75
317.567	7.72
317.935	7.86
318.304	8.15
318.672	8.31
319.041	8.29
319.41	8.19
319.778	8.29
320.147	8.34
320.515	8.49
320.883	8.48
321.252	8.53
321.62	8.54
321.988	8.63
322.357	8.45
322.725	8.44
323.093	8.33
323.461	8.41
323.829	8.41
324.197	8.36
324.565	8.43
324.933	8.49
325.301	8.47
325.669	8.48
326.037	8.29
326.405	8.28
326.772	8.16
327.14	8.13
327.508	8.07
327.875	8.1
328.243	8.11
328.61	8.26
328.978	8.29
329.346	8.33
329.713	8.33
330.08	8.38
330.448	8.48
330.815	8.63
331.182	8.58
331.55	8.55
331.917	8.63
332.284	8.61
332.651	8.7
333.018	8.71
333.385	8.76
333.752	8.74
334.119	8.76
334.486	8.84
334.853	8.94
335.22	8.95
335.587	8.97
335.954	8.89
336.32	8.84
336.687	8.84
337.054	8.8
337.42	8.84
337.787	9.01
338.153	9.08
338.52	8.93
338.886	8.88
339.253	8.88
339.619	8.88
339.986	8.96
340.352	9
340.718	9.03
341.084	9.04
341.451	9.07
341.817	9.01
342.183	9.03
342.549	8.97
342.915	8.91
343.281	8.94
343.647	9.13
344.013	9.05
344.379	8.95
344.745	9.01
345.11	9.08
345.476	8.98
345.842	8.79
346.208	8.89
346.573	8.94
346.939	8.99
347.304	9.14
347.67	8.98
348.035	8.96
348.401	9.01
348.766	8.97
349.132	9.17
349.497	9.22
349.862	9.18
350.228	9.24
350.593	9.31
350.958	9.27
351.323	9.17
351.688	9.44
352.053	9.39
352.418	9.38
352.783	9.27
353.148	9.37
353.513	9.43
353.878	9.39
354.243	9.42
354.608	9.54
354.972	9.49
355.337	9.48
355.702	9.42
356.066	9.4
356.431	9.29
356.795	9.19
357.16	9.16
357.524	9.19
357.889	9.13
358.253	9.05
358.618	8.99
358.982	8.9
359.346	8.71
359.71	8.79
360.075	8.75
360.439	8.74
360.803	8.72
361.167	8.71
361.531	8.65
361.895	8.6
362.259	8.56
362.623	8.5
362.987	8.52
363.351	8.48
363.714	8.45
364.078	8.52
364.442	8.4
364.806	8.39
365.169	8.35
365.533	8.32
365.896	8.36
366.26	8.31
366.623	8.26
366.987	8.23
367.35	8.25
367.714	8.17
368.077	8.19
368.44	8.13
368.803	8.12
369.167	8.14
369.53	8.06
369.893	7.99
370.256	7.9
370.619	7.83
370.982	7.77
371.345	7.77
371.708	7.72
372.071	7.71
372.434	7.66
372.797	7.65
373.159	7.65
373.522	7.62
373.885	7.58
374.247	7.54
374.61	7.5
374.973	7.41
375.335	7.38
375.698	7.28
376.06	7.21
376.423	7.28
376.785	7.24
377.147	7.25
377.51	7.23
377.872	7.25
378.234	7.24
378.596	7.26
378.958	7.21
379.321	7.22
379.683	7.2
380.045	7.2
380.407	7.1
380.769	7.06
381.13	7
381.492	7.04
381.854	7.04
382.216	7.01
382.578	7.04
382.939	7.01
383.301	6.97
383.663	6.95
384.024	6.81
384.386	6.82
384.747	6.77
385.109	6.68
385.47	6.66
385.832	6.68
386.193	6.62
386.554	6.55
386.916	6.46
387.277	6.41
387.638	6.37
387.999	6.41
388.36	6.43
388.721	6.44
389.082	6.42
389.443	6.43
389.804	6.49
390.165	6.45
390.526	6.47
390.887	6.45
391.248	6.46
391.609	6.45
391.969	6.4
392.33	6.41
392.691	6.41
393.051	6.37
393.412	6.34
393.772	6.34
394.133	6.3
394.493	6.3
394.854	6.34
395.214	6.31
395.574	6.26
395.935	6.22
396.295	6.18
396.655	6.12
397.015	6.09
397.376	6.04
397.736	6
398.096	5.94
398.456	5.9
398.816	5.88
399.176	5.84
399.535	5.83
399.895	5.77
400.255	5.72
400.615	5.66
400.975	5.62
401.334	5.61
401.694	5.65
402.054	5.64
402.413	5.59
402.773	5.59
403.132	5.55
403.492	5.54
403.851	5.54
404.211	5.55
404.57	5.53
404.929	5.5
405.288	5.48
405.648	5.48
406.007	5.5
406.366	5.45
406.725	5.45
407.084	5.46
407.443	5.47
407.802	5.48
408.161	5.54
408.52	5.51
408.879	5.51
409.238	5.53
409.596	5.5
409.955	5.5
410.314	5.48
410.673	5.49
411.031	5.49
411.39	5.46
411.748	5.46
412.107	5.45
412.465	5.44
412.824	5.42
413.182	5.43
413.54	5.42
413.899	5.46
414.257	5.46
414.615	5.38
414.974	5.34
415.332	5.35
415.69	5.34
416.048	5.34
416.406	5.31
416.764	5.26
417.122	5.23
417.48	5.2
417.838	5.2
418.195	5.16
418.553	5.13
418.911	5.12
419.269	5.11
419.626	5.07
419.984	5.05
420.342	5.04
420.699	5.03
421.057	5.01
421.414	4.98
421.772	4.95
422.129	4.96
422.486	4.96
422.844	4.94
423.201	4.91
423.558	4.9
423.915	4.9
424.273	4.89
424.63	4.89
424.987	4.89
425.344	4.9
425.701	4.91
426.058	4.92
426.415	4.92
426.772	4.91
427.128	4.92
427.485	4.93
427.842	4.92
428.199	4.9
428.555	4.89
428.912	4.88
429.269	4.87
429.625	4.88
429.982	4.86
430.338	4.86
430.695	4.85
431.051	4.83
431.407	4.82
431.764	4.84
432.12	4.85
432.476	4.88
432.832	4.85
433.189	4.82
433.545	4.77
433.901	4.77
434.257	4.76
434.613	4.76
434.969	4.74
435.325	4.75
435.681	4.73
436.036	4.74
436.392	4.75
436.748	4.77
437.104	4.78
437.459	4.78
437.815	4.79
438.171	4.8
438.526	4.78
438.882	4.78
439.237	4.77
439.593	4.77
439.948	4.74
440.304	4.73
440.659	4.76
441.014	4.76
441.369	4.74
441.725	4.75
442.08	4.76
442.435	4.78
442.79	4.78
443.145	4.78
443.5	4.78
443.855	4.78
444.21	4.79
444.565	4.78
444.92	4.77
445.275	4.75
445.629	4.72
445.984	4.74
446.339	4.72
446.693	4.72
447.048	4.7
447.403	4.69
447.757	4.69
448.112	4.67
448.466	4.69
448.82	4.68
449.175	4.68
449.529	4.66
449.883	4.63
450.238	4.62
450.592	4.63
450.946	4.62
451.3	4.61
451.654	4.56
452.008	4.56
452.362	4.56
452.716	4.57
453.07	4.57
453.424	4.59
453.778	4.61
454.132	4.61
454.486	4.62
454.839	4.64
455.193	4.63
455.547	4.62
455.9	4.62
456.254	4.63
456.607	4.63
456.961	4.65
457.314	4.67
457.668	4.68
458.021	4.68
458.375	4.7
458.728	4.71
459.081	4.73
459.434	4.72
459.787	4.73
460.141	4.74
460.494	4.74
460.847	4.73
461.2	4.71
461.553	4.7
461.906	4.7
462.259	4.71
462.611	4.71
462.964	4.73
463.317	4.72
463.67	4.73
464.022	4.76
464.375	4.77
464.728	4.79
465.08	4.78
465.433	4.79
465.785	4.78
466.138	4.78
466.49	4.8
466.843	4.84
467.195	4.86
467.547	4.85
467.899	4.88
468.252	4.88
468.604	4.88
468.956	4.87
469.308	4.9
469.66	4.91
470.012	4.92
470.364	4.91
470.716	4.92
471.068	4.92
471.42	4.89
471.772	4.85
472.123	4.86
472.475	4.9
472.827	4.89
473.178	4.9
473.53	4.91
473.882	4.89
474.233	4.86
474.585	4.84
474.936	4.87
475.288	4.86
475.639	4.87
475.99	4.87
476.342	4.89
476.693	4.89
477.044	4.89
477.395	4.89
477.746	4.89
478.097	4.89
478.448	4.87
478.8	4.85
479.15	4.85
479.501	4.83
479.852	4.81
480.203	4.8
480.554	4.81
480.905	4.8
481.255	4.79
481.606	4.8
481.957	4.81
482.307	4.79
482.658	4.79
483.009	4.78
483.359	4.8
483.709	4.8
484.06	4.8
484.41	4.8
484.761	4.81
485.111	4.82
485.461	4.83
485.811	4.84
486.162	4.85
486.512	4.86
486.862	4.87
487.212	4.87
487.562	4.89
487.912	4.9
488.262	4.91
488.612	4.91
488.961	4.93
489.311	4.93
489.661	4.95
490.011	4.94
490.36	4.95
490.71	4.95
491.06	4.96
491.409	4.97
491.759	4.98
492.108	4.98
492.458	5
492.807	4.98
493.157	5.01
493.506	5.02
493.855	5.03
494.204	5.06
494.554	5.09
494.903	5.11
495.252	5.12
495.601	5.14
495.95	5.18
496.299	5.19
496.648	5.22
496.997	5.26
497.346	5.32
497.695	5.38
498.043	5.41
498.392	5.46
498.741	5.5
499.09	5.53
499.438	5.58
499.787	5.61
500.135	5.66
500.484	5.7
500.832	5.72
501.181	5.76
501.529	5.77
501.878	5.78
502.226	5.81
502.574	5.85
502.923	5.87
503.271	5.89
503.619	5.94
503.967	5.98
504.315	6.02
504.663	6.04
505.011	6.05
505.359	6.09
505.707	6.12
506.055	6.13
506.403	6.18
506.751	6.2
507.098	6.24
507.446	6.28
507.794	6.32
508.141	6.37
508.489	6.42
508.837	6.47
509.184	6.52
509.531	6.53
509.879	6.59
510.226	6.62
510.574	6.68
510.921	6.7
511.268	6.75
511.616	6.79
511.963	6.83
512.31	6.89
512.657	6.92
513.004	6.95
513.351	7
513.698	7.02
514.045	7.08
514.392	7.12
514.739	7.21
515.086	7.25
515.432	7.32
515.779	7.36
516.126	7.42
516.473	7.48
516.819	7.54
517.166	7.6
517.512	7.66
517.859	7.7
518.205	7.72
518.552	7.77
518.898	7.82
519.245	7.88
519.591	7.92
519.937	7.98
520.283	8.03
520.629	8.05
520.976	8.12
521.322	8.17
521.668	8.22
522.014	8.26
522.36	8.33
522.706	8.39
523.052	8.5
523.398	8.57
523.743	8.65
524.089	8.72
524.435	8.79
524.781	8.87
525.126	8.96
525.472	9.05
525.817	9.1
526.163	9.15
526.509	9.2
526.854	9.25
527.199	9.32
527.545	9.38
527.89	9.46
528.235	9.53
528.581	9.59
528.926	9.64
529.271	9.7
529.616	9.76
529.961	9.81
530.306	9.86
530.651	9.93
530.996	10
531.341	10.09
531.686	10.16
532.031	10.25
532.376	10.32
532.721	10.4
533.065	10.52
533.41	10.63
533.755	10.71
534.099	10.82
534.444	10.91
534.788	10.99
535.133	11.09
535.477	11.19
535.822	11.31
536.166	11.47
536.51	11.6
536.855	11.73
537.199	11.86
537.543	12.02
537.887	12.17
538.231	12.32
538.576	12.45
538.92	12.61
539.264	12.76
539.608	12.9
539.951	13.01
540.295	13.12
540.639	13.26
540.983	13.38
541.327	13.53
541.671	13.68
542.014	13.84
542.358	13.96
542.701	14.08
543.045	14.23
543.389	14.35
543.732	14.48
544.075	14.63
544.419	14.81
544.762	14.98
545.105	15.16
545.449	15.33
545.792	15.53
546.135	15.72
546.478	15.94
546.821	16.18
547.165	16.41
547.508	16.66
547.851	16.89
548.194	17.15
548.536	17.37
548.879	17.59
549.222	17.82
549.565	18.09
549.908	18.34
550.25	18.58
550.593	18.83
550.936	19.13
551.278	19.41
551.621	19.69
551.963	19.99
552.306	20.22
552.648	20.54
552.991	20.8
553.333	21.07
553.675	21.29
554.017	21.54
554.36	21.87
554.702	22.12
555.044	22.4
555.386	22.73
555.728	23.04
556.07	23.31
556.412	23.63
556.754	23.95
557.096	24.31
557.438	24.62
557.78	24.94
558.121	25.27
558.463	25.56
558.805	25.86
559.147	26.13
559.488	26.48
559.83	26.77
560.171	27.11
560.513	27.39
560.854	27.66
561.196	28.02
561.537	28.29
561.878	28.63
562.22	28.94
562.561	29.23
562.902	29.47
563.243	29.81
563.584	30.07
563.925	30.38
564.266	30.59
564.607	30.85
564.948	31.11
565.289	31.35
565.63	31.66
565.971	31.93
566.312	32.26
566.653	32.49
566.993	32.74
567.334	33.01
567.675	33.29
568.015	33.61
568.356	33.83
568.696	34.14
569.037	34.38
569.377	34.61
569.718	34.91
570.058	35.21
570.398	35.45
570.739	35.74
571.079	35.99
571.419	36.31
571.759	36.57
572.099	36.83
572.439	37.07
572.779	37.29
573.119	37.56
573.459	37.73
573.799	37.94
574.139	38.18
574.479	38.38
574.819	38.61
575.158	38.8
575.498	39.02
575.838	39.24
576.177	39.44
576.517	39.66
576.856	39.87
577.196	40.06
577.535	40.32
577.875	40.56
578.214	40.75
578.553	40.97
578.893	41.16
579.232	41.39
579.571	41.65
579.91	41.89
580.25	42.05
580.589	42.29
580.928	42.54
581.267	42.76
581.606	43
581.945	43.21
582.283	43.48
582.622	43.75
582.961	43.88
583.3	44.09
583.639	44.37
583.977	44.6
584.316	44.77
584.654	44.88
584.993	45.09
585.332	45.28
585.67	45.46
586.008	45.66
586.347	45.79
586.685	45.89
587.024	46.09
587.362	46.27
587.7	46.44
588.038	46.64
588.376	46.78
588.715	46.93
589.053	47.09
589.391	47.21
589.729	47.27
590.067	47.46
590.404	47.63
590.742	47.78
591.08	47.92
591.418	48.13
591.756	48.23
592.093	48.33
592.431	48.48
592.769	48.64
593.106	48.74
593.444	48.95
593.781	49.15
594.119	49.26
594.456	49.37
594.793	49.42
595.131	49.48
595.468	49.58
595.805	49.71
596.143	49.77
596.48	49.9
596.817	50.13
597.154	50.22
597.491	50.32
597.828	50.37
598.165	50.44
598.502	50.5
598.839	50.67
599.176	50.84
599.512	51.01
599.849	51.05
600.186	51.13
600.523	51.21
600.859	51.24
601.196	51.25
601.532	51.34
601.869	51.39
602.205	51.58
602.542	51.69
602.878	51.75
603.215	51.79
603.551	51.85
603.887	51.88
604.223	51.99
604.56	52.01
604.896	52.1
605.232	52.12
605.568	52.15
605.904	52.19
606.24	52.17
606.576	52.13
606.912	52.28
607.248	52.48
607.583	52.53
607.919	52.59
608.255	52.71
608.591	52.83
608.926	53.06
609.262	53.1
609.597	53.19
609.933	53.32
610.268	53.45
610.604	53.47
610.939	53.59
611.275	53.66
611.61	53.74
611.945	53.84
612.281	53.97
612.616	54.14
612.951	54.3
613.286	54.45
613.621	54.56
613.956	54.59
614.291	54.68
614.626	54.79
614.961	54.94
615.296	55.04
615.631	55.11
615.966	55.08
616.3	55.15
616.635	55.15
616.97	55.33
617.304	55.43
617.639	55.54
617.973	55.48
618.308	55.52
618.642	55.71
618.977	55.66
619.311	55.69
619.646	55.78
619.98	55.75
620.314	55.85
620.648	56.1
620.983	56.21
621.317	56.15
621.651	56.25
621.985	56.3
622.319	56.36
622.653	56.41
622.987	56.53
623.321	56.57
623.655	56.69
623.988	56.62
624.322	56.71
624.656	56.78
624.99	56.87
625.323	56.8
625.657	56.81
625.99	56.97
626.324	57.04
626.657	56.96
626.991	57.16
627.324	57.19
627.658	57.14
627.991	57.22
628.324	57.31
628.657	57.33
628.991	57.47
629.324	57.65
629.657	57.7
629.99	57.71
630.323	57.71
630.656	57.69
630.989	57.71
631.322	57.66
631.655	57.65
631.987	57.82
632.32	57.94
632.653	57.94
632.986	58.01
633.318	58.08
633.651	58.2
633.984	58.17
634.316	58.18
634.649	58.19
634.981	58.17
635.313	58.28
635.646	58.38
635.978	58.37
636.31	58.22
636.643	58.25
636.975	58.4
637.307	58.41
637.639	58.56
637.971	58.5
638.303	58.6
638.635	58.78
638.967	58.79
639.299	58.99
639.631	59.11
639.963	59.1
640.295	59.15
640.626	59.23
640.958	59.31
641.29	59.34
641.621	59.35
641.953	59.3
642.285	59.32
642.616	59.18
642.948	59.29
643.279	59.44
643.61	59.56
643.942	59.51
644.273	59.58
644.604	59.45
644.936	59.67
645.267	59.77
645.598	59.6
645.929	59.5
646.26	59.48
646.591	59.46
646.922	59.53
647.253	59.42
647.584	59.48
647.915	59.33
648.245	59.39
648.576	59.36
648.907	59.43
649.238	59.4
649.568	59.47
649.899	59.42
650.229	59.4
650.56	59.39
650.89	59.48
651.221	59.51
651.551	59.54
651.882	59.57
652.212	59.42
652.542	59.58
652.872	59.58
653.203	59.44
653.533	59.42
653.863	59.44
654.193	59.61
654.523	59.53
654.853	59.61
655.183	59.47
655.513	59.54
655.843	59.62
656.172	59.58
656.502	59.57
656.832	59.56
657.162	59.59
657.491	59.57
657.821	59.55
658.15	59.45
658.48	59.52
658.809	59.5
659.139	59.65
659.468	59.67
659.798	59.76
660.127	59.78
660.456	59.81
660.785	59.77
661.115	59.78
661.444	59.82
661.773	59.91
662.102	60.13
662.431	60.16
662.76	60.15
663.089	60.22
663.418	60.29
663.747	60.43
664.076	60.4
664.404	60.51
664.733	60.56
665.062	60.73
665.39	60.87
665.719	60.86
666.048	60.94
666.376	60.82
666.705	60.91
667.033	61
667.362	60.94
667.69	61
668.018	60.92
668.347	60.98
668.675	61.01
669.003	60.93
669.331	60.99
669.659	60.95
669.987	60.93
670.315	60.93
670.643	60.97
670.971	61.05
671.299	60.96
671.627	60.88
671.955	60.9
672.283	60.82
672.61	60.86
672.938	60.71
673.266	60.85
673.593	60.76
673.921	60.86
674.249	60.95
674.576	61.05
674.904	61.19
675.231	61.3
675.558	61.18
675.886	61.19
676.213	61.12
676.54	61.3
676.867	61.31
677.195	61.37
677.522	61.27
677.849	61.25
678.176	61.2
678.503	61.27
678.83	61.25
679.157	61.25
679.484	61.17
679.81	61.22
680.137	61.26
680.464	61.19
680.791	61.15
681.117	61.14
681.444	61.01
681.771	60.88
682.097	60.85
682.424	60.82
682.75	60.9
683.077	61.05
683.403	61.04
683.729	61.08
684.056	60.96
684.382	60.98
684.708	61.13
685.034	61.21
685.36	61.14
685.686	61.08
686.012	61.17
686.339	61.11
686.664	61.19
686.99	60.95
687.316	61.06
687.642	61.11
687.968	61.16
688.294	61.15
688.619	61.15
688.945	61.21
689.271	61.35
689.596	61.34
689.922	61.2
690.247	60.98
690.573	60.99
690.898	61.11
691.224	61.21
691.549	61.18
691.874	61.14
692.2	61.17
692.525	61.47
692.85	61.41
693.175	61.47
693.5	61.26
693.825	61.35
694.15	61.43
694.475	61.42
694.8	61.31
695.125	61.47
695.45	61.42
695.775	61.31
696.099	61.32
696.424	61.15
696.749	61.33
697.073	61.33
697.398	61.24
697.723	61.32
698.047	61.38
698.372	61.21
698.696	61.16
699.02	61.21
699.345	61.04
699.669	61.03
699.993	61.05
700.318	61.19
700.642	61.28
700.966	61.28
701.29	61.39
701.614	61.51
701.938	61.39
702.262	61.59
702.586	61.57
702.91	61.54
703.234	61.61
703.557	61.41
703.881	61.7
704.205	61.75
704.529	61.68
704.852	61.42
705.176	61.51
705.499	61.51
705.823	61.58
706.146	61.69
706.47	61.99
706.793	61.96
707.117	61.89
707.44	61.97
707.763	61.75
708.086	61.75
708.409	61.72
708.733	61.83
709.056	61.78
709.379	61.84
709.702	61.78
710.025	61.81
710.348	61.6
710.671	61.48
710.993	61.49
711.316	61.72
711.639	61.92
711.962	62.13
712.284	62.3
712.607	62.09
712.93	62.29
713.252	62.06
713.575	62.14
713.897	62.21
714.22	62.26
714.542	62.56
714.864	62.42
715.187	62.35
715.509	62.32
715.831	62.28
716.153	62.18
716.475	62.4
716.798	62.29
717.12	62.46
717.442	62.61
717.764	62.44
718.085	62.37
718.407	62.33
718.729	62.23
719.051	62.15
719.373	62.1
719.695	61.63
720.016	61.58
720.338	61.66
720.659	61.99
720.981	61.71
721.302	61.53
721.624	61.59
721.945	61.7
722.267	62.14
722.588	62.23
722.909	62.33
723.231	62.18
723.552	62.48
723.873	62.55
724.194	62.39
724.515	62.46
724.836	62.22
725.157	62.02
725.478	61.76
725.799	61.79
726.12	62.1
726.441	62.32
726.762	62.26
727.083	62.32
727.403	62.15
727.724	62.42
728.045	62.75
728.365	62.56
728.686	62.58
729.006	61.94
729.327	62.01
729.647	61.92
729.967	62.06
730.288	61.74
730.608	61.87
730.928	61.75
731.249	61.9
731.569	62.06
731.889	62.24
732.209	62.44
732.529	62.31
732.849	62.34
733.169	62.37
733.489	62.57
733.809	62.43
734.129	62.42
734.448	62.69
734.768	62.48
735.088	62.62
735.408	62.45
735.727	62.84
736.047	62.75
736.366	62.76
736.686	62.71
737.005	62.87
737.325	62.96
737.644	62.91
737.963	62.82
738.283	62.6
738.602	62.35
738.921	62.31
739.24	62.76
739.56	62.85
739.879	62.61
740.198	62.41
740.517	62.57
740.836	62.22
741.155	61.87
741.473	61.68
741.792	61.93
742.111	62.12
742.43	61.78
742.748	61.84
743.067	62.04
743.386	62.11
743.704	61.96
744.023	62.01
744.341	62.22
744.66	62.45
744.978	62.91
745.297	63.07
745.615	62.65
745.933	62.41
746.252	62.38
746.57	62.63
746.888	63.12
747.206	63.08
747.524	63.45
747.842	63.5
748.16	63.7
748.478	63.33
748.796	63.61
749.114	63.64
749.432	63.54
749.749	63.39
750.067	63.27
750.385	63.87
750.703	63.58
751.02	63.54
751.338	63.39
751.655	63.13
751.973	63.3
752.29	63.8
752.608	63.59
752.925	63.44
753.242	63.39
753.56	63.09
753.877	62.65
754.194	62.28
754.511	62.19
754.828	62.33
755.145	62.46
755.462	61.97
755.779	62.13
756.096	62.25
756.413	62.12
756.73	62.3
757.047	61.77
757.364	61.97
757.68	61.95
757.997	62.1
758.314	62.28
758.63	62.07
758.947	62.04
759.264	62.31
759.58	61.81
759.896	61.69
760.213	61.79
760.529	62.21
760.846	62.25
761.162	62.12
761.478	62.09
761.794	61.9
762.11	61.81
762.426	61.76
762.743	61.56
763.059	61.7
763.375	61.63
763.69	61.95
764.006	61.98
764.322	61.84
764.638	61.92
764.954	61.83
765.27	61.81
765.585	62.09
765.901	61.84
766.216	62.26
766.532	62.4
766.848	62.24
767.163	62.19
767.478	62.42
767.794	62.45
768.109	62.25
768.424	62.4
768.74	63.09
769.055	63.23
769.37	63.38
769.685	63.58
770	63.52
770.315	63.34
770.63	63.56
770.945	64.11
771.26	64.12
771.575	64.18
771.89	64.55
772.205	64.05
772.52	64.29
772.834	64.38
773.149	64.56
773.464	64.69
773.778	64.64
774.093	64.29
774.407	64.4
774.722	64.61
775.036	64.54
775.351	64.48
775.665	64.58
775.979	64.44
776.293	64.13
776.608	64.32
776.922	64.67
777.236	64.42
777.55	64.17
777.864	64.18
778.178	64.05
778.492	63.86
778.806	64
779.12	64.51
779.434	64.16
779.747	64.13
780.061	63.75
780.375	64.22
780.689	64.69
781.002	65.18
781.316	64.71
781.629	64.78
781.943	64.66
782.256	64.55
782.57	64.59
782.883	64.5
783.196	64.7
783.51	64.17
783.823	64.15
784.136	64.49
784.449	64.61
784.762	64.84
785.075	64.88
785.388	65.5
785.701	64.98
786.014	65.27
786.327	65.47
786.64	65.82
786.953	65.42
787.266	65.01
787.578	64.94
787.891	65.37
788.204	65.37
788.516	65.27
788.829	65.5
789.141	65.77
789.454	65.98
789.766	66.01
790.079	66.09
790.391	66.14
790.703	65.85
791.016	65.49
791.328	65.36
791.64	65.16
791.952	64.73
792.264	64.83
792.576	65.52
792.888	65.24
793.2	65.34
793.512	65.62
793.824	66.26
794.136	65.89
794.448	65.74
794.76	65.76
795.071	65.38
795.383	64.84
795.695	64.48
796.006	64.3
796.318	64.3
796.629	64.6
796.941	64.62
797.252	64.22
797.564	64.45
797.875	64.66
798.186	65.23
798.497	64.71
798.809	64.69
799.12	64.12
799.431	64.2
799.742	64.49
800.053	63.9
800.364	63.16
800.675	63.17
800.986	63.37
801.297	63.76
801.608	64.48
801.918	64.57
802.229	64.35
802.54	64.42
802.851	63.43
803.161	62.92
803.472	62.64
803.782	63.07
804.093	62.61
804.403	61.89
804.714	61.34
805.024	62.54
805.334	62.81
805.645	63.03
805.955	63.13
806.265	62.11
806.575	62.99
806.885	63.39
807.195	63.28
807.505	62.77
807.815	62.42
808.125	62.07
808.435	62.13
808.745	63.03
809.055	63.33
809.365	63.89
809.674	64.02
809.984	64.62
810.294	65.17
810.603	65.4
810.913	65.77
811.222	66.12
811.532	66.34
811.841	65.38
812.151	64.96
812.46	64.5
812.769	65.75
813.079	65.3
813.388	65.58
813.697	65.97
814.006	66.8
814.315	66.62
814.624	66.78
814.933	67.04
815.242	66.38
815.551	66.45
815.86	66.95
816.169	67.3
816.478	66.96
816.786	67.34
817.095	66.88
817.404	66.68
817.712	66.45
818.021	65.49
818.33	64.9
818.638	64.79
818.947	64.37
819.255	63.37
819.563	63.24
819.872	63.3
820.18	62.89
820.488	62.89
820.796	62.68
821.105	62.18
821.413	62.07
821.721	62.09
822.029	61.9
822.337	61.59
822.645	61.58
822.953	61.51
823.26	61.19
823.568	61.32
823.876	61.37
824.184	61.33
824.491	61.1
824.799	61.13
825.107	61.1
825.414	61.25
825.722	61.54
826.029	61.26
826.337	61.12
826.644	61.26
826.951	61.19
827.259	61.09
827.566	61.27
827.873	61.44
828.18	61.59
828.488	61.57
828.795	62.08
829.102	62.23
829.409	62.21
829.716	62.43
830.023	62.5
830.329	62.52
830.636	62.52
830.943	62.63
831.25	63.13
831.557	62.79
831.863	62.21
832.17	61.81
832.476	62.41
832.783	62.46
833.089	61.97
833.396	62.05
833.702	61.92
834.009	61.71
834.315	61.19
834.621	61.01
834.928	61.11
835.234	60.44
835.54	60.69
835.846	61.49
836.152	61.83
836.458	62.3
836.764	62.15
837.07	62.5
837.376	62.51
837.682	62.82
837.988	63.1
838.293	63.78
838.599	64.12
838.905	64.17
839.211	64.13
839.516	64.78
839.822	64.59
840.127	65.67
840.433	65.82
840.738	66.67
841.044	66.48
841.349	67.66
841.654	67.37
841.959	67.1
842.265	66.71
842.57	66.57
842.875	65.63
843.18	65.89
843.485	64.68
843.79	65.21
844.095	65.91
844.4	67.65
844.705	67.94
845.01	67.12
845.315	65.95
845.619	65.98
845.924	66.55
846.229	67.35
846.533	68.68
846.838	70.81
847.142	70.41
847.447	71.06
847.751	67.94
848.056	69.46
848.36	67.95
848.664	68.5
848.969	67.69
849.273	67.93
849.577	68.15
849.881	70.71
850.185	73.5
850.489	69.75
850.794	67.82
851.097	68.55
851.401	69.34
851.705	70.41
852.009	68.98
852.313	66.35
852.617	63.91
852.92	62.11
853.224	59.88
853.528	58.24
853.831	57.97
854.135	62.38
854.438	62.47
854.742	63.88
855.045	61.37
855.349	61.07
855.652	62.08
855.955	63.08
856.259	60.18
856.562	58.09
856.865	60.7
857.168	60.69
857.471	60.64
857.774	61.04
858.077	61.16
858.38	62.4
858.683	65.01
858.986	64.19
859.289	66.23
859.592	68.14
859.894	69.24
860.197	68.2
860.5	68.27
860.802	66.34
861.105	64.71
861.407	66.48
861.71	63.69
862.012	65.48
862.315	65.77
862.617	68.73
862.919	70.35
863.222	68.49
863.524	68.52
863.826	65.53
864.128	64.37
864.43	62.48
864.732	59.75
865.034	58.69
865.336	60.6
865.638	56.02
865.94	55.32
866.242	56.27
866.544	59.72
866.846	55.87
867.147	58.65
867.449	59.34
867.751	57.98
868.052	63.18
868.354	58.12
868.655	58.12
868.957	58.42
869.258	55.32
869.56	55.76
869.861	54.32
870.162	57.25
870.463	58.89
870.765	62.08
871.066	64.05
871.367	62.67
871.668	64.5
871.969	68.53
872.27	65.53
872.571	65.67
872.872	64.82
873.173	66.92
873.473	64.45
873.774	66.51
874.075	67.17
874.376	62.13
874.676	64.56
874.977	64.74
875.277	62.44
875.578	64.63
875.878	64.78
876.179	66.32
876.479	65.98
876.78	65.53
877.08	64.47
877.38	66.15
877.68	68.72
877.981	66.29
878.281	65.06
878.581	69.22
