Data from BA17724_Reflection_00009.txt Node
Date: Tue Nov 19 11:58:01 EST 2019
User: vgr7
Spectrometer: USB2G7710
Scans to average: 3
Trigger mode: 4
Integration Time (sec): 2.000000E-2
Electric dark correction enabled: true
Boxcar width: 10
XAxis mode: Wavelengths
Number of Pixels in Spectrum: 2048
>>>>>Begin Spectral Data<<<<<
177.721	85.04
178.105	-46.34
178.488	-26.65
178.871	76.14
179.254	118.75
179.636	1890.32
180.019	173.17
180.402	112.12
180.785	-7.14
181.168	47.86
181.55	-110.94
181.933	10.14
182.316	-19.38
182.698	-48.41
183.081	-132.04
183.463	-124.3
183.846	-38.04
184.228	-100.79
184.611	-2150
184.993	-800
185.376	684.75
185.758	-8900
186.14	-119.23
186.522	-280.6
186.904	-912.5
187.287	-95.65
187.669	-146.43
188.051	-101.34
188.433	-30.58
188.815	-33.49
189.197	-34.39
189.579	-3.72
189.961	58.04
190.342	93.27
190.724	139.82
191.106	115.41
191.488	83.21
191.869	37.82
192.251	24.76
192.633	0.91
193.014	-32.91
193.396	7.11
193.777	-24.31
194.159	-60.43
194.54	-109.56
194.922	-92.57
195.303	-837.5
195.684	-650
196.065	1051.22
196.447	664.94
196.828	-1051.16
197.209	1343.9
197.59	1153.19
197.971	-985.53
198.352	-643.8
198.733	-367.82
199.114	-459.17
199.495	-397.45
199.876	-230.59
200.257	-557.02
200.638	-3926.32
201.018	-380.34
201.399	-4306.25
201.78	-303.85
202.16	-405.71
202.541	-334.87
202.922	-309.09
203.302	-219.75
203.683	-183.1
204.063	-132.58
204.444	-174.81
204.824	-671.43
205.204	-696.87
205.585	-1828.57
205.965	206.13
206.345	132.03
206.725	110.9
207.106	100
207.486	82.64
207.866	57.57
208.246	105.11
208.626	122.63
209.006	88.74
209.386	83.58
209.766	100
210.145	84.42
210.525	64.83
210.905	55.26
211.285	43.93
211.664	44.97
212.044	30.53
212.424	45.03
212.803	77.09
213.183	80.11
213.562	82.35
213.942	103.65
214.321	109.45
214.701	116.77
215.08	122.43
215.459	113.78
215.838	156.86
216.218	118.63
216.597	75.5
216.976	64.84
217.355	65.65
217.734	63.88
218.113	54.01
218.492	65.07
218.871	92.05
219.25	96.54
219.629	121.88
220.008	177.09
220.387	213.41
220.766	112.31
221.144	75.53
221.523	82.95
221.902	77.16
222.28	72.89
222.659	70.99
223.037	58.9
223.416	41.28
223.794	33.98
224.173	36.12
224.551	38.65
224.929	33.14
225.308	27.65
225.686	25.04
226.064	20.84
226.442	17.92
226.821	13.39
227.199	12.04
227.577	13.66
227.955	8.44
228.333	4.56
228.711	4.11
229.089	9.35
229.467	4.05
229.845	1.96
230.222	6.39
230.6	4.99
230.978	9.95
231.356	10.42
231.733	8.24
232.111	5.32
232.488	7.02
232.866	10.28
233.243	10.53
233.621	10.12
233.998	10.14
234.376	9.27
234.753	9.46
235.13	9.38
235.508	8.33
235.885	7.55
236.262	9.88
236.639	9.58
237.016	11.5
237.393	13.26
237.77	12.95
238.147	10.46
238.524	10.54
238.901	9.3
239.278	8.51
239.655	7.73
240.032	7.96
240.409	6.85
240.785	6.17
241.162	5.24
241.539	5.2
241.915	5.42
242.292	5.87
242.668	5.69
243.045	5.77
243.421	6.26
243.798	6.79
244.174	6.5
244.551	6.27
244.927	5.59
245.303	5.33
245.679	5.41
246.056	5.36
246.432	5.16
246.808	5.21
247.184	5.52
247.56	5.98
247.936	5.87
248.312	6.2
248.688	6.3
249.064	6.7
249.44	6.42
249.815	6.24
250.191	6.04
250.567	5.89
250.943	5.62
251.318	5.32
251.694	5.02
252.069	4.96
252.445	5.05
252.82	5.62
253.196	5.68
253.571	5.62
253.947	5.88
254.322	5.73
254.697	5.46
255.073	4.96
255.448	4.8
255.823	4.77
256.198	4.6
256.573	4.38
256.948	4.7
257.323	4.81
257.698	5.02
258.073	4.99
258.448	4.99
258.823	5.14
259.198	5.04
259.573	4.96
259.948	4.93
260.322	4.88
260.697	4.97
261.072	5.01
261.446	4.98
261.821	4.91
262.195	5.18
262.57	5.24
262.944	5.25
263.319	5.24
263.693	5.29
264.067	5.36
264.442	5.51
264.816	5.37
265.19	5.2
265.564	4.96
265.938	5.01
266.313	4.91
266.687	4.64
267.061	4.65
267.435	5.1
267.809	4.94
268.183	4.67
268.556	4.33
268.93	4.34
269.304	4.48
269.678	4.45
270.051	4.38
270.425	4.21
270.799	4.19
271.172	4.21
271.546	4.2
271.919	4.15
272.293	4.29
272.666	4.27
273.04	4.57
273.413	4.75
273.787	4.65
274.16	4.88
274.533	5.2
274.906	5.31
275.279	5.01
275.653	5.24
276.026	5.46
276.399	5.36
276.772	5.39
277.145	5.33
277.518	5.54
277.891	5.44
278.263	5.66
278.636	5.86
279.009	5.84
279.382	5.83
279.755	5.99
280.127	6.02
280.5	5.85
280.872	5.82
281.245	5.71
281.617	5.75
281.99	5.69
282.362	5.48
282.735	5.45
283.107	5.54
283.479	5.33
283.852	5.34
284.224	5.38
284.596	5.25
284.968	5.2
285.34	5.14
285.713	5.26
286.085	5.21
286.457	5.05
286.829	5.06
287.201	5.08
287.572	4.88
287.944	4.78
288.316	4.76
288.688	5
289.06	5.11
289.431	5.08
289.803	5.02
290.175	5.08
290.546	5.09
290.918	5.11
291.289	5.22
291.661	5.24
292.032	5.3
292.403	5.36
292.775	5.52
293.146	5.49
293.517	5.42
293.889	5.47
294.26	5.49
294.631	5.55
295.002	5.7
295.373	5.9
295.744	5.99
296.115	6.03
296.486	5.82
296.857	5.77
297.228	5.78
297.599	5.64
297.97	5.61
298.34	5.63
298.711	5.62
299.082	5.77
299.452	5.87
299.823	5.86
300.194	5.94
300.564	5.68
300.935	5.76
301.305	5.81
301.676	5.87
302.046	6.05
302.416	5.95
302.787	5.81
303.157	5.69
303.527	5.62
303.897	5.56
304.267	5.53
304.637	5.51
305.008	5.57
305.378	5.76
305.748	5.91
306.117	6.04
306.487	6.1
306.857	5.91
307.227	5.89
307.597	5.82
307.967	5.77
308.336	5.83
308.706	5.79
309.076	5.79
309.445	5.81
309.815	5.8
310.184	5.92
310.554	5.81
310.923	5.89
311.293	5.86
311.662	6.11
312.031	6.12
312.401	6.1
312.77	6.21
313.139	6.28
313.508	6.24
313.877	6.16
314.246	6.11
314.616	6.17
314.985	6.23
315.353	6.33
315.722	6.37
316.091	6.58
316.46	6.67
316.829	6.8
317.198	6.75
317.567	6.82
317.935	6.82
318.304	7.02
318.672	7.12
319.041	7.23
319.41	7.03
319.778	7.01
320.147	7.25
320.515	6.98
320.883	7.05
321.252	7.03
321.62	6.9
321.988	7.1
322.357	7.06
322.725	6.89
323.093	6.89
323.461	6.8
323.829	6.61
324.197	6.5
324.565	6.45
324.933	6.4
325.301	6.21
325.669	6.25
326.037	6.17
326.405	6.12
326.772	6.04
327.14	5.97
327.508	6.18
327.875	6.18
328.243	6.33
328.61	6.24
328.978	6.19
329.346	6.28
329.713	6.12
330.08	6.12
330.448	6.2
330.815	6.17
331.182	6.16
331.55	6.29
331.917	6.26
332.284	6.19
332.651	6.33
333.018	6.45
333.385	6.46
333.752	6.61
334.119	6.58
334.486	6.73
334.853	6.84
335.22	6.65
335.587	6.58
335.954	6.58
336.32	6.7
336.687	6.71
337.054	6.78
337.42	6.82
337.787	6.82
338.153	6.66
338.52	6.75
338.886	6.81
339.253	6.73
339.619	6.92
339.986	7.09
340.352	7.15
340.718	7.32
341.084	7.21
341.451	7.13
341.817	7.22
342.183	7.04
342.549	7.2
342.915	7.29
343.281	7.28
343.647	7.22
344.013	7.18
344.379	7.24
344.745	7.25
345.11	7.38
345.476	7.4
345.842	7.52
346.208	7.64
346.573	7.67
346.939	7.76
347.304	7.72
347.67	7.65
348.035	7.56
348.401	7.44
348.766	7.59
349.132	7.58
349.497	7.63
349.862	7.73
350.228	7.59
350.593	7.63
350.958	7.6
351.323	7.62
351.688	7.68
352.053	7.64
352.418	7.62
352.783	7.48
353.148	7.5
353.513	7.49
353.878	7.31
354.243	7.24
354.608	7.28
354.972	7.26
355.337	7.22
355.702	7.17
356.066	7.17
356.431	7.13
356.795	7.25
357.16	7.13
357.524	7.18
357.889	7.17
358.253	7.13
358.618	7.14
358.982	7.12
359.346	7.04
359.71	7.05
360.075	7.06
360.439	7.05
360.803	7.07
361.167	6.98
361.531	6.99
361.895	7.03
362.259	7
362.623	6.98
362.987	6.97
363.351	6.99
363.714	6.96
364.078	6.95
364.442	6.83
364.806	6.91
365.169	6.85
365.533	6.86
365.896	6.89
366.26	6.83
366.623	6.91
366.987	6.91
367.35	6.89
367.714	6.9
368.077	6.93
368.44	6.83
368.803	6.81
369.167	6.77
369.53	6.74
369.893	6.7
370.256	6.76
370.619	6.72
370.982	6.7
371.345	6.71
371.708	6.69
372.071	6.65
372.434	6.54
372.797	6.54
373.159	6.51
373.522	6.45
373.885	6.46
374.247	6.39
374.61	6.34
374.973	6.29
375.335	6.25
375.698	6.21
376.06	6.22
376.423	6.25
376.785	6.26
377.147	6.25
377.51	6.22
377.872	6.1
378.234	6.1
378.596	6.05
378.958	6.04
379.321	5.94
379.683	5.95
380.045	5.94
380.407	5.9
380.769	5.86
381.13	5.76
381.492	5.74
381.854	5.69
382.216	5.75
382.578	5.75
382.939	5.69
383.301	5.67
383.663	5.64
384.024	5.67
384.386	5.72
384.747	5.67
385.109	5.64
385.47	5.68
385.832	5.64
386.193	5.58
386.554	5.51
386.916	5.56
387.277	5.53
387.638	5.5
387.999	5.46
388.36	5.45
388.721	5.5
389.082	5.49
389.443	5.52
389.804	5.48
390.165	5.45
390.526	5.42
390.887	5.4
391.248	5.35
391.609	5.34
391.969	5.26
392.33	5.24
392.691	5.22
393.051	5.21
393.412	5.24
393.772	5.33
394.133	5.34
394.493	5.3
394.854	5.35
395.214	5.34
395.574	5.33
395.935	5.3
396.295	5.26
396.655	5.2
397.015	5.14
397.376	5.08
397.736	5.09
398.096	5.11
398.456	5.08
398.816	5.07
399.176	5.01
399.535	5
399.895	5
400.255	5.03
400.615	4.96
400.975	4.93
401.334	4.88
401.694	4.87
402.054	4.83
402.413	4.78
402.773	4.78
403.132	4.75
403.492	4.76
403.851	4.74
404.211	4.82
404.57	4.86
404.929	4.88
405.288	4.86
405.648	4.79
406.007	4.79
406.366	4.8
406.725	4.83
407.084	4.77
407.443	4.75
407.802	4.71
408.161	4.73
408.52	4.7
408.879	4.69
409.238	4.68
409.596	4.7
409.955	4.67
410.314	4.66
410.673	4.67
411.031	4.61
411.39	4.61
411.748	4.58
412.107	4.5
412.465	4.44
412.824	4.44
413.182	4.46
413.54	4.44
413.899	4.42
414.257	4.41
414.615	4.42
414.974	4.4
415.332	4.4
415.69	4.39
416.048	4.37
416.406	4.33
416.764	4.32
417.122	4.32
417.48	4.31
417.838	4.31
418.195	4.3
418.553	4.3
418.911	4.29
419.269	4.26
419.626	4.29
419.984	4.3
420.342	4.29
420.699	4.27
421.057	4.26
421.414	4.26
421.772	4.23
422.129	4.21
422.486	4.21
422.844	4.21
423.201	4.2
423.558	4.2
423.915	4.21
424.273	4.2
424.63	4.19
424.987	4.19
425.344	4.19
425.701	4.18
426.058	4.19
426.415	4.17
426.772	4.17
427.128	4.15
427.485	4.13
427.842	4.13
428.199	4.16
428.555	4.12
428.912	4.1
429.269	4.1
429.625	4.13
429.982	4.1
430.338	4.09
430.695	4.06
431.051	4.07
431.407	4.06
431.764	4.04
432.12	4.05
432.476	4.03
432.832	4.01
433.189	3.99
433.545	3.99
433.901	3.99
434.257	3.98
434.613	3.98
434.969	3.98
435.325	3.97
435.681	3.96
436.036	3.99
436.392	4
436.748	4
437.104	4
437.459	4.02
437.815	4.02
438.171	4.04
438.526	4.03
438.882	4.02
439.237	4.01
439.593	4
439.948	4.03
440.304	4.02
440.659	4.03
441.014	4.02
441.369	4.05
441.725	4.04
442.08	4.04
442.435	4.05
442.79	4.04
443.145	4.04
443.5	4.01
443.855	4
444.21	4.01
444.565	4.03
444.92	4.02
445.275	4.02
445.629	4
445.984	3.98
446.339	3.99
446.693	4
447.048	3.98
447.403	3.96
447.757	3.96
448.112	3.95
448.466	3.95
448.82	3.93
449.175	3.91
449.529	3.91
449.883	3.9
450.238	3.94
450.592	3.92
450.946	3.94
451.3	3.94
451.654	3.91
452.008	3.87
452.362	3.86
452.716	3.86
453.07	3.85
453.424	3.87
453.778	3.86
454.132	3.84
454.486	3.85
454.839	3.84
455.193	3.86
455.547	3.89
455.9	3.9
456.254	3.9
456.607	3.94
456.961	3.94
457.314	3.92
457.668	3.92
458.021	3.94
458.375	3.96
458.728	3.96
459.081	3.99
459.434	3.99
459.787	4
460.141	4.01
460.494	4.01
460.847	4.01
461.2	4.04
461.553	4.05
461.906	4.05
462.259	4.05
462.611	4.04
462.964	4.02
463.317	4.04
463.67	4.05
464.022	4.05
464.375	4.02
464.728	4.02
465.08	4.01
465.433	4
465.785	3.99
466.138	3.97
466.49	3.96
466.843	3.97
467.195	3.99
467.547	4
467.899	4.01
468.252	3.99
468.604	3.99
468.956	4
469.308	4
469.66	4.02
470.012	4.02
470.364	4.05
470.716	4.03
471.068	4.03
471.42	4.04
471.772	4.06
472.123	4.07
472.475	4.09
472.827	4.09
473.178	4.11
473.53	4.14
473.882	4.13
474.233	4.12
474.585	4.09
474.936	4.09
475.288	4.09
475.639	4.1
475.99	4.07
476.342	4.07
476.693	4.06
477.044	4.06
477.395	4.05
477.746	4.02
478.097	4.01
478.448	4.01
478.8	3.98
479.15	3.97
479.501	3.97
479.852	3.94
480.203	3.94
480.554	3.93
480.905	3.94
481.255	3.94
481.606	3.95
481.957	3.96
482.307	3.95
482.658	3.97
483.009	3.97
483.359	3.99
483.709	4
484.06	4.01
484.41	4
484.761	4.01
485.111	4.02
485.461	4.02
485.811	4.02
486.162	4.02
486.512	4.04
486.862	4.03
487.212	4.05
487.562	4.05
487.912	4.05
488.262	4.05
488.612	4.07
488.961	4.08
489.311	4.09
489.661	4.11
490.011	4.09
490.36	4.1
490.71	4.09
491.06	4.09
491.409	4.1
491.759	4.11
492.108	4.11
492.458	4.12
492.807	4.12
493.157	4.12
493.506	4.13
493.855	4.13
494.204	4.17
494.554	4.16
494.903	4.18
495.252	4.19
495.601	4.21
495.95	4.21
496.299	4.21
496.648	4.24
496.997	4.24
497.346	4.27
497.695	4.29
498.043	4.34
498.392	4.34
498.741	4.36
499.09	4.41
499.438	4.46
499.787	4.47
500.135	4.52
500.484	4.57
500.832	4.61
501.181	4.62
501.529	4.63
501.878	4.69
502.226	4.73
502.574	4.77
502.923	4.79
503.271	4.81
503.619	4.86
503.967	4.89
504.315	4.95
504.663	4.96
505.011	4.98
505.359	4.98
505.707	5.03
506.055	5.06
506.403	5.04
506.751	5.08
507.098	5.1
507.446	5.12
507.794	5.15
508.141	5.2
508.489	5.26
508.837	5.3
509.184	5.32
509.531	5.34
509.879	5.37
510.226	5.41
510.574	5.46
510.921	5.47
511.268	5.52
511.616	5.56
511.963	5.61
512.31	5.66
512.657	5.72
513.004	5.76
513.351	5.81
513.698	5.88
514.045	5.9
514.392	5.95
514.739	6
515.086	6.03
515.432	6.07
515.779	6.11
516.126	6.19
516.473	6.24
516.819	6.3
517.166	6.4
517.512	6.44
517.859	6.49
518.205	6.56
518.552	6.58
518.898	6.59
519.245	6.65
519.591	6.72
519.937	6.77
520.283	6.83
520.629	6.88
520.976	6.94
521.322	7.02
521.668	7.08
522.014	7.13
522.36	7.21
522.706	7.29
523.052	7.38
523.398	7.45
523.743	7.56
524.089	7.65
524.435	7.74
524.781	7.86
525.126	7.92
525.472	7.99
525.817	8.08
526.163	8.18
526.509	8.23
526.854	8.31
527.199	8.37
527.545	8.44
527.89	8.5
528.235	8.59
528.581	8.67
528.926	8.75
529.271	8.85
529.616	8.94
529.961	9.03
530.306	9.1
530.651	9.17
530.996	9.27
531.341	9.38
531.686	9.46
532.031	9.55
532.376	9.66
532.721	9.79
533.065	9.9
533.41	10.02
533.755	10.18
534.099	10.3
534.444	10.44
534.788	10.56
535.133	10.7
535.477	10.82
535.822	10.98
536.166	11.16
536.51	11.33
536.855	11.55
537.199	11.76
537.543	12
537.887	12.23
538.231	12.44
538.576	12.66
538.92	12.89
539.264	13.1
539.608	13.34
539.951	13.56
540.295	13.75
540.639	13.95
540.983	14.15
541.327	14.35
541.671	14.55
542.014	14.77
542.358	14.97
542.701	15.16
543.045	15.35
543.389	15.55
543.732	15.75
544.075	15.92
544.419	16.14
544.762	16.37
545.105	16.63
545.449	16.9
545.792	17.16
546.135	17.47
546.478	17.79
546.821	18.08
547.165	18.38
547.508	18.74
547.851	19.05
548.194	19.37
548.536	19.68
548.879	20.03
549.222	20.41
549.565	20.76
549.908	21.13
550.25	21.53
550.593	21.84
550.936	22.22
551.278	22.58
551.621	22.91
551.963	23.27
552.306	23.62
552.648	23.98
552.991	24.33
553.333	24.65
553.675	24.96
554.017	25.33
554.36	25.7
554.702	26.01
555.044	26.36
555.386	26.74
555.728	27.12
556.07	27.46
556.412	27.75
556.754	28.1
557.096	28.48
557.438	28.84
557.78	29.22
558.121	29.61
558.463	30.01
558.805	30.44
559.147	30.78
559.488	31.13
559.83	31.49
560.171	31.81
560.513	32.19
560.854	32.56
561.196	32.92
561.537	33.22
561.878	33.57
562.22	33.89
562.561	34.21
562.902	34.58
563.243	34.89
563.584	35.23
563.925	35.56
564.266	35.83
564.607	36.11
564.948	36.49
565.289	36.77
565.63	37.05
565.971	37.35
566.312	37.63
566.653	37.92
566.993	38.21
567.334	38.53
567.675	38.76
568.015	39.04
568.356	39.3
568.696	39.59
569.037	39.88
569.377	40.18
569.718	40.45
570.058	40.67
570.398	41.03
570.739	41.28
571.079	41.57
571.419	41.88
571.759	42.13
572.099	42.32
572.439	42.58
572.779	42.82
573.119	43.01
573.459	43.24
573.799	43.42
574.139	43.59
574.479	43.78
574.819	44.08
575.158	44.24
575.498	44.47
575.838	44.64
576.177	44.86
576.517	45.11
576.856	45.24
577.196	45.43
577.535	45.54
577.875	45.76
578.214	45.85
578.553	45.96
578.893	46.2
579.232	46.4
579.571	46.58
579.91	46.8
580.25	46.98
580.589	47.18
580.928	47.37
581.267	47.61
581.606	47.67
581.945	47.77
582.283	47.98
582.622	48.08
582.961	48.23
583.3	48.41
583.639	48.61
583.977	48.87
584.316	49.09
584.654	49.29
584.993	49.51
585.332	49.84
585.67	50.09
586.008	50.29
586.347	50.5
586.685	50.71
587.024	50.86
587.362	51.04
587.7	51.18
588.038	51.29
588.376	51.37
588.715	51.66
589.053	51.81
589.391	51.99
589.729	52.25
590.067	52.45
590.404	52.5
590.742	52.57
591.08	52.7
591.418	52.89
591.756	53.04
592.093	53.14
592.431	53.28
592.769	53.4
593.106	53.43
593.444	53.62
593.781	53.79
594.119	53.89
594.456	53.98
594.793	54.12
595.131	54.3
595.468	54.5
595.805	54.52
596.143	54.6
596.48	54.67
596.817	54.76
597.154	54.85
597.491	54.96
597.828	55.13
598.165	55.21
598.502	55.3
598.839	55.35
599.176	55.45
599.512	55.52
599.849	55.56
600.186	55.7
600.523	55.68
600.859	55.66
601.196	55.77
601.532	55.89
601.869	55.96
602.205	56.09
602.542	56.18
602.878	56.36
603.215	56.51
603.551	56.56
603.887	56.53
604.223	56.58
604.56	56.64
604.896	56.65
605.232	56.72
605.568	56.73
605.904	56.82
606.24	56.9
606.576	56.89
606.912	57.1
607.248	57.25
607.583	57.32
607.919	57.47
608.255	57.56
608.591	57.65
608.926	57.77
609.262	57.73
609.597	57.73
609.933	57.8
610.268	57.79
610.604	57.83
610.939	57.97
611.275	58.06
611.61	58.14
611.945	58.19
612.281	58.2
612.616	58.33
612.951	58.43
613.286	58.51
613.621	58.68
613.956	58.62
614.291	58.56
614.626	58.68
614.961	58.77
615.296	58.78
615.631	58.85
615.966	58.84
616.3	59.07
616.635	59.15
616.97	59.16
617.304	59.24
617.639	59.33
617.973	59.28
618.308	59.22
618.642	59.26
618.977	59.35
619.311	59.43
619.646	59.4
619.98	59.41
620.314	59.39
620.648	59.44
620.983	59.51
621.317	59.67
621.651	59.64
621.985	59.56
622.319	59.6
622.653	59.58
622.987	59.65
623.321	59.57
623.655	59.57
623.988	59.6
624.322	59.71
624.656	59.78
624.99	59.98
625.323	60.09
625.657	60.15
625.99	60.3
626.324	60.35
626.657	60.33
626.991	60.31
627.324	60.4
627.658	60.39
627.991	60.47
628.324	60.41
628.657	60.48
628.991	60.52
629.324	60.63
629.657	60.73
629.99	60.71
630.323	60.85
630.656	60.88
630.989	60.94
631.322	60.96
631.655	60.98
631.987	60.91
632.32	60.96
632.653	61.05
632.986	60.9
633.318	60.96
633.651	61.17
633.984	61.26
634.316	61.16
634.649	61.15
634.981	61.11
635.313	61.19
635.646	61.39
635.978	61.45
636.31	61.5
636.643	61.44
636.975	61.58
637.307	61.54
637.639	61.6
637.971	61.43
638.303	61.3
638.635	61.36
638.967	61.42
639.299	61.51
639.631	61.48
639.963	61.48
640.295	61.49
640.626	61.25
640.958	61.29
641.29	61.45
641.621	61.57
641.953	61.56
642.285	61.57
642.616	61.43
642.948	61.39
643.279	61.34
643.61	61.49
643.942	61.39
644.273	61.29
644.604	61.31
644.936	61.58
645.267	61.83
645.598	61.82
645.929	61.87
646.26	61.87
646.591	61.97
646.922	62.03
647.253	62.09
647.584	62.24
647.915	62.3
648.245	62.2
648.576	62.14
648.907	62.24
649.238	62.3
649.568	62.25
649.899	62.24
650.229	62.29
650.56	62.29
650.89	62.42
651.221	62.65
651.551	62.8
651.882	62.81
652.212	62.7
652.542	62.75
652.872	62.72
653.203	62.77
653.533	62.85
653.863	62.81
654.193	62.78
654.523	62.74
654.853	62.79
655.183	62.88
655.513	62.85
655.843	62.83
656.172	62.9
656.502	62.96
656.832	63.11
657.162	63.08
657.491	63.04
657.821	63.09
658.15	62.99
658.48	63.03
658.809	62.99
659.139	63.07
659.468	63.11
659.798	63.23
660.127	63.23
660.456	63.12
660.785	63.23
661.115	63.17
661.444	63.19
661.773	63.1
662.102	63.1
662.431	63.08
662.76	63.19
663.089	63.22
663.418	63.3
663.747	63.19
664.076	63.22
664.404	63.24
664.733	63.1
665.062	63.27
665.39	63.19
665.719	63.27
666.048	63.29
666.376	63.36
666.705	63.32
667.033	63.23
667.362	63.14
667.69	63.09
668.018	63.26
668.347	63.39
668.675	63.45
669.003	63.49
669.331	63.76
669.659	63.67
669.987	63.66
670.315	63.61
670.643	63.67
670.971	63.71
671.299	63.76
671.627	63.81
671.955	63.64
672.283	63.56
672.61	63.43
672.938	63.38
673.266	63.14
673.593	63.17
673.921	63.16
674.249	63.23
674.576	63.17
674.904	63.03
675.231	62.99
675.558	63
675.886	62.93
676.213	62.76
676.54	62.85
676.867	62.81
677.195	62.85
677.522	62.84
677.849	62.88
678.176	62.98
678.503	62.9
678.83	62.98
679.157	63.11
679.484	63.19
679.81	63.23
680.137	63.35
680.464	63.24
680.791	63.26
681.117	63.47
681.444	63.47
681.771	63.5
682.097	63.48
682.424	63.52
682.75	63.55
683.077	63.75
683.403	63.8
683.729	63.77
684.056	63.83
684.382	63.89
684.708	63.87
685.034	63.75
685.36	63.86
685.686	63.93
686.012	63.87
686.339	63.95
686.664	63.94
686.99	63.9
687.316	64.11
687.642	64.17
687.968	64.1
688.294	64.25
688.619	64.38
688.945	64.53
689.271	64.53
689.596	64.64
689.922	64.5
690.247	64.52
690.573	64.46
690.898	64.34
691.224	64.5
691.549	64.54
691.874	64.58
692.2	64.67
692.525	64.48
692.85	64.36
693.175	64.35
693.5	64.46
693.825	64.69
694.15	64.49
694.475	64.47
694.8	64.59
695.125	64.63
695.45	64.57
695.775	64.36
696.099	64.46
696.424	64.39
696.749	64.4
697.073	64.39
697.398	64.44
697.723	64.48
698.047	64.39
698.372	64.34
698.696	64.31
699.02	64.33
699.345	64.47
699.669	64.56
699.993	64.55
700.318	64.51
700.642	64.48
700.966	64.35
701.29	64.55
701.614	64.34
701.938	64.32
702.262	64.29
702.586	64.25
702.91	64.28
703.234	64.24
703.557	64.51
703.881	64.48
704.205	64.53
704.529	64.44
704.852	64.47
705.176	64.55
705.499	64.72
705.823	64.7
706.146	64.84
706.47	64.79
706.793	65.07
707.117	65.06
707.44	64.78
707.763	65.35
708.086	65.13
708.409	65.15
708.733	65.18
709.056	65.2
709.379	65.46
709.702	65.22
710.025	65.26
710.348	65.04
710.671	64.9
710.993	64.84
711.316	65
711.639	65.09
711.962	65.16
712.284	65.06
712.607	64.89
712.93	64.72
713.252	64.52
713.575	64.34
713.897	64.29
714.22	64.25
714.542	64.07
714.864	64.04
715.187	64.19
715.509	64.37
715.831	64.37
716.153	64.42
716.475	64.53
716.798	64.72
717.12	64.63
717.442	64.72
717.764	64.98
718.085	64.93
718.407	64.8
718.729	64.78
719.051	64.53
719.373	64.68
719.695	64.69
720.016	64.96
720.338	64.95
720.659	64.73
720.981	64.63
721.302	64.87
721.624	65.18
721.945	64.96
722.267	64.7
722.588	64.75
722.909	64.31
723.231	64.48
723.552	64.27
723.873	64.05
724.194	64.12
724.515	63.92
724.836	63.68
725.157	63.45
725.478	63.08
725.799	63.28
726.12	63.44
726.441	63.59
726.762	63.7
727.083	63.98
727.403	64.19
727.724	64.54
728.045	64.21
728.365	64.12
728.686	64.35
729.006	64.4
729.327	64.44
729.647	64.92
729.967	64.79
730.288	64.86
730.608	65.3
730.928	65.38
731.249	65.45
731.569	65.84
731.889	66.13
732.209	66.58
732.529	66.66
732.849	66.66
733.169	66.65
733.489	66.7
733.809	66.4
734.129	66.35
734.448	66.42
734.768	66.4
735.088	66.3
735.408	66.29
735.727	66.48
736.047	66.54
736.366	66.19
736.686	66.16
737.005	66.45
737.325	66.31
737.644	66.23
737.963	66.47
738.283	66.11
738.602	66.02
738.921	65.61
739.24	65.5
739.56	65.4
739.879	65.34
740.198	65.15
740.517	65.49
740.836	65.77
741.155	65.85
741.473	66.2
741.792	66.2
742.111	65.95
742.43	66.07
742.748	65.98
743.067	66.19
743.386	66.24
743.704	66
744.023	66.23
744.341	65.94
744.66	65.56
744.978	65.74
745.297	65.95
745.615	66.28
745.933	66.24
746.252	66.34
746.57	66.53
746.888	66.7
747.206	66.36
747.524	66.76
747.842	66.45
748.16	66.28
748.478	66.33
748.796	66.61
749.114	66.3
749.432	66.45
749.749	66.41
750.067	66.6
750.385	66.52
750.703	66.36
751.02	66.39
751.338	66.29
751.655	66.04
751.973	66.12
752.29	66.27
752.608	66.63
752.925	66.73
753.242	66.45
753.56	66.14
753.877	66.03
754.194	65.34
754.511	65.53
754.828	65.67
755.145	65.59
755.462	65.51
755.779	65.14
756.096	64.93
756.413	64.79
756.73	64.65
757.047	64.45
757.364	64.26
757.68	64.58
757.997	64.23
758.314	64.61
758.63	64.22
758.947	64.15
759.264	64.27
759.58	64.39
759.896	64.26
760.213	64.58
760.529	64.85
760.846	65.13
761.162	64.77
761.478	64.53
761.794	64.72
762.11	65.01
762.426	65.23
762.743	65.14
763.059	65.04
763.375	64.99
763.69	65.36
764.006	65.61
764.322	65.47
764.638	65.72
764.954	65.59
765.27	65.71
765.585	65.62
765.901	65.57
766.216	65.55
766.532	65.63
766.848	65.69
767.163	65.73
767.478	65.57
767.794	66.02
768.109	66.39
768.424	66.1
768.74	65.56
769.055	66.03
769.37	66.4
769.685	66.73
770	66.99
770.315	66.74
770.63	66.67
770.945	67.34
771.26	68.05
771.575	68.13
771.89	68.28
772.205	68.01
772.52	67.93
772.834	67.79
773.149	68.01
773.464	68.02
773.778	68.21
774.093	68.61
774.407	68.4
774.722	68.02
775.036	68.66
775.351	68.95
775.665	68.1
775.979	68.26
776.293	68.76
776.608	68.64
776.922	68.98
777.236	69.13
777.55	68.62
777.864	67.86
778.178	68.45
778.492	68.32
778.806	68.53
779.12	68.86
779.434	68.86
779.747	68.75
780.061	69.3
780.375	68.87
780.689	68.57
781.002	68.31
781.316	68.39
781.629	69
781.943	69.27
782.256	69.77
782.57	69
782.883	69.05
783.196	68.44
783.51	68.24
783.823	67.89
784.136	67.85
784.449	67.96
784.762	67.67
785.075	67.94
785.388	67.6
785.701	67.08
786.014	66.72
786.327	67.11
786.64	66.12
786.953	66.07
787.266	67.05
787.578	67.4
787.891	67.23
788.204	65.98
788.516	65.68
788.829	65.75
789.141	66.01
789.454	65.28
789.766	66.04
790.079	66.24
790.391	66.16
790.703	66.23
791.016	66.27
791.328	66.47
791.64	66.12
791.952	67.22
792.264	67.6
792.576	68.11
792.888	67.62
793.2	67.89
793.512	68.17
793.824	67.03
794.136	66.71
794.448	67.4
794.76	67.5
795.071	67.85
795.383	67.54
795.695	68.54
796.006	68.26
796.318	68.01
796.629	67.42
796.941	67.59
797.252	67.21
797.564	67.28
797.875	67.08
798.186	67.58
798.497	67.02
798.809	67.13
799.12	66.84
799.431	67.48
799.742	67.21
800.053	67.35
800.364	67.54
800.675	68.13
800.986	67.92
801.297	68.93
801.608	68.43
801.918	68.54
802.229	67.89
802.54	68.32
802.851	68.58
803.161	69.02
803.472	69.29
803.782	69.73
804.093	70.35
804.403	70.06
804.714	69.94
805.024	69.71
805.334	69.1
805.645	69.06
805.955	69.22
806.265	69.32
806.575	69.2
806.885	69.59
807.195	69.75
807.505	69.55
807.815	68.83
808.125	69.26
808.435	69.25
808.745	68.53
809.055	69.28
809.365	68.92
809.674	68.5
809.984	68.1
810.294	67.83
810.603	67.49
810.913	68.22
811.222	67.89
811.532	68.41
811.841	69.09
812.151	69.37
812.46	68.66
812.769	68.78
813.079	68.48
813.388	68.01
813.697	67.66
814.006	67.25
814.315	66.18
814.624	66.91
814.933	66.67
815.242	68.01
815.551	67.69
815.86	68.89
816.169	69.21
816.478	68.5
816.786	68.26
817.095	67.85
817.404	67.44
817.712	67.51
818.021	67.03
818.33	66.65
818.638	65.75
818.947	65.78
819.255	65.28
819.563	65.51
819.872	65.82
820.18	65.79
820.488	66.24
820.796	66.9
821.105	66.54
821.413	66.58
821.721	66.44
822.029	65.92
822.337	65.73
822.645	65.68
822.953	66.09
823.26	66.43
823.568	66.74
823.876	66.7
824.184	66.51
824.491	66.55
824.799	66.55
825.107	66.67
825.414	66.68
825.722	67.03
826.029	66.79
826.337	66.77
826.644	67.05
826.951	66.94
827.259	66.67
827.566	66.81
827.873	66.75
828.18	66.91
828.488	67.5
828.795	67.57
829.102	67.63
829.409	66.97
829.716	66.6
830.023	66.28
830.329	66.18
830.636	66.56
830.943	66.74
831.25	66.96
831.557	67.34
831.863	67.85
832.17	67.62
832.476	68.48
832.783	67.92
833.089	67.67
833.396	67.76
833.702	68.45
834.009	68.1
834.315	68.26
834.621	67.8
834.928	67.72
835.234	68.01
835.54	68.51
835.846	69.38
836.152	69.37
836.458	69.03
836.764	69.23
837.07	68.76
837.376	68.52
837.682	68.5
837.988	68.02
838.293	67.06
838.599	66.68
838.905	66.28
839.211	67.27
839.516	66.57
839.822	67.28
840.127	66.17
840.433	65.67
840.738	65.55
841.044	65.24
841.349	65.37
841.654	64.51
841.959	63.67
842.265	63.39
842.57	64.39
842.875	65.2
843.18	64.56
843.485	65.31
843.79	65.57
844.095	65.52
844.4	65.32
844.705	67.02
845.01	67.46
845.315	68.61
845.619	69.43
845.924	71.07
846.229	70.09
846.533	71.12
846.838	73.88
847.142	74.13
847.447	75.73
847.751	74.56
848.056	75.85
848.36	77.2
848.664	77.26
848.969	75.83
849.273	76.35
849.577	76.42
849.881	77.39
850.185	75.96
850.489	76.1
850.794	79.71
851.097	79.97
851.401	79.12
851.705	76.82
852.009	77.37
852.313	76.24
852.617	76.29
852.92	74.12
853.224	73.93
853.528	74.97
853.831	74.01
854.135	75.87
854.438	76.03
854.742	75.66
855.045	76.17
855.349	76.58
855.652	76.31
855.955	77.31
856.259	76.71
856.562	77.96
856.865	76.67
857.168	77.1
857.471	73.53
857.774	79.72
858.077	80.84
858.38	80.14
858.683	80.38
858.986	82.6
859.289	86.46
859.592	85.59
859.894	83.1
860.197	86.14
860.5	86.85
860.802	84.5
861.105	87.15
861.407	87.59
861.71	88.88
862.012	88.07
862.315	86.55
862.617	86.13
862.919	86.5
863.222	89.61
863.524	86.97
863.826	90.8
864.128	86.01
864.43	88
864.732	86.09
865.034	87.36
865.336	84.36
865.638	86.16
865.94	83.63
866.242	86.81
866.544	83.6
866.846	80.88
867.147	83.23
867.449	83.58
867.751	81.65
868.052	80.38
868.354	80.55
868.655	82.66
868.957	85.33
869.258	86.44
869.56	85.83
869.861	86.47
870.162	87.93
870.463	89.45
870.765	89.07
871.066	88.76
871.367	87.07
871.668	88.5
871.969	88.03
872.27	91.71
872.571	90.6
872.872	91.41
873.173	96.21
873.473	95.91
873.774	96.4
874.075	95.32
874.376	95.85
874.676	94.57
874.977	94.32
875.277	91.67
875.578	92.78
875.878	92.5
876.179	92.6
876.479	91.07
876.78	90.39
877.08	89.32
877.38	91.01
877.68	92.62
877.981	92.2
878.281	88.58
878.581	87.87
