Data from BA17718_Reflection_00014.txt Node
Date: Tue Nov 19 11:47:55 EST 2019
User: vgr7
Spectrometer: USB2G7710
Scans to average: 3
Trigger mode: 4
Integration Time (sec): 2.000000E-2
Electric dark correction enabled: true
Boxcar width: 10
XAxis mode: Wavelengths
Number of Pixels in Spectrum: 2048
>>>>>Begin Spectral Data<<<<<
177.721	30.68
178.105	-20.44
178.488	-20.97
178.871	-38.05
179.254	-140
179.636	1205.26
180.019	-40.29
180.402	84.62
180.785	-58.18
181.168	-129.55
181.55	-95.86
181.933	-74.17
182.316	-64.68
182.698	-62.91
183.081	-32.35
183.463	-18.42
183.846	-58.05
184.228	-81.09
184.611	-100.56
184.993	-213.64
185.376	1048.98
185.758	459.5
186.14	1000
186.522	730.68
186.904	785.71
187.287	-862.26
187.669	6100
188.051	2895.45
188.433	-659.04
188.815	1867.86
189.197	371.28
189.579	72.63
189.961	46.7
190.342	70.99
190.724	36.12
191.106	54.98
191.488	59.61
191.869	52.26
192.251	45.52
192.633	53.26
193.014	88.17
193.396	62.41
193.777	60.92
194.159	68.45
194.54	57.78
194.922	59.52
195.303	64.96
195.684	68.81
196.065	75.65
196.447	64.46
196.828	59.38
197.209	48.62
197.59	51.5
197.971	43.55
198.352	30.61
198.733	41.88
199.114	34.67
199.495	29.43
199.876	39.19
200.257	20.28
200.638	25.4
201.018	23.27
201.399	45.4
201.78	37.86
202.16	49.77
202.541	31.26
202.922	32.38
203.302	28.06
203.683	10.55
204.063	2.2
204.444	1.14
204.824	-10.11
205.204	15.61
205.585	-4.83
205.965	-17.44
206.345	7.47
206.725	-13.56
207.106	-4.09
207.486	24.43
207.866	14.59
208.246	47.1
208.626	-41.39
209.006	-19.75
209.386	-38.98
209.766	-38.46
210.145	-40.11
210.525	-35.21
210.905	-36.36
211.285	-14.78
211.664	58.75
212.044	61.34
212.424	78.16
212.803	100
213.183	83.93
213.562	142.86
213.942	95.66
214.321	22.64
214.701	25.18
215.08	2.08
215.459	-4.56
215.838	3.49
216.218	3.93
216.597	56.59
216.976	18.86
217.355	3.62
217.734	-13.67
218.113	-2.99
218.492	-9.01
218.871	-0.8
219.25	-7.32
219.629	-31.63
220.008	-34.37
220.387	-15.12
220.766	0.2
221.144	13.92
221.523	12.72
221.902	22.45
222.28	45.45
222.659	29.07
223.037	20.49
223.416	9.05
223.794	4.66
224.173	-0.17
224.551	-6.92
224.929	-2.01
225.308	4.28
225.686	8.85
226.064	5.26
226.442	4.3
226.821	-7.19
227.199	-6.67
227.577	-5.95
227.955	-7.5
228.333	-15.69
228.711	-21.32
229.089	-25.62
229.467	-24.17
229.845	-29.53
230.222	-26
230.6	-26.36
230.978	-21.94
231.356	-18.54
231.733	-16.32
232.111	-12.41
232.488	-14.56
232.866	-10.04
233.243	-14
233.621	-14.74
233.998	-11.12
234.376	-11.94
234.753	-9.67
235.13	-8.62
235.508	-9.29
235.885	-7.28
236.262	-5.38
236.639	-3.84
237.016	-2.21
237.393	-1.36
237.77	0.87
238.147	0.59
238.524	2.33
238.901	3.5
239.278	3.53
239.655	3.03
240.032	2.42
240.409	2.58
240.785	1.05
241.162	2.38
241.539	2.44
241.915	2.18
242.292	3.05
242.668	3.44
243.045	3.4
243.421	3.69
243.798	4.01
244.174	4.08
244.551	4.41
244.927	4.47
245.303	4.22
245.679	4.2
246.056	4.33
246.432	3.9
246.808	4.07
247.184	3.84
247.56	3.59
247.936	3.88
248.312	4.24
248.688	4.67
249.064	4.65
249.44	4.72
249.815	4.6
250.191	4.79
250.567	4.84
250.943	4.82
251.318	4.69
251.694	4.55
252.069	4.73
252.445	4.76
252.82	4.93
253.196	5.17
253.571	5.13
253.947	4.98
254.322	5.56
254.697	5.3
255.073	5.79
255.448	6.08
255.823	6.05
256.198	5.66
256.573	5.49
256.948	5.41
257.323	5.32
257.698	5.19
258.073	4.79
258.448	4.66
258.823	4.55
259.198	4.69
259.573	4.51
259.948	4.47
260.322	4.31
260.697	4.22
261.072	4.28
261.446	4.36
261.821	4.39
262.195	4.06
262.57	3.99
262.944	3.75
263.319	3.61
263.693	3.48
264.067	3.38
264.442	3.26
264.816	3.04
265.19	2.74
265.564	2.79
265.938	2.94
266.313	2.86
266.687	2.82
267.061	2.68
267.435	2.74
267.809	2.44
268.183	2.69
268.556	2.7
268.93	2.68
269.304	2.61
269.678	2.51
270.051	2.74
270.425	2.84
270.799	2.77
271.172	2.98
271.546	3.19
271.919	3.29
272.293	3.68
272.666	3.93
273.04	4.13
273.413	4.09
273.787	4.08
274.16	3.91
274.533	4.03
274.906	4.22
275.279	4.19
275.653	4.19
276.026	4.18
276.399	4.06
276.772	4.13
277.145	4.07
277.518	4.2
277.891	4.29
278.263	4.34
278.636	4.45
279.009	4.53
279.382	4.2
279.755	4.43
280.127	4.09
280.5	3.73
280.872	3.91
281.245	3.98
281.617	4.09
281.99	4.31
282.362	4.24
282.735	4.14
283.107	4.13
283.479	4.28
283.852	4.17
284.224	4.29
284.596	4.04
284.968	4.13
285.34	4.13
285.713	4
286.085	3.79
286.457	3.86
286.829	3.72
287.201	3.75
287.572	3.52
287.944	3.66
288.316	3.88
288.688	3.81
289.06	3.91
289.431	3.88
289.803	4.01
290.175	4.02
290.546	3.94
290.918	4
291.289	3.82
291.661	3.93
292.032	3.85
292.403	4.07
292.775	4.15
293.146	4.09
293.517	4.22
293.889	4.45
294.26	4.42
294.631	4.38
295.002	4.42
295.373	4.56
295.744	4.49
296.115	4.51
296.486	4.45
296.857	4.39
297.228	4.28
297.599	4.18
297.97	4.32
298.34	4.54
298.711	4.64
299.082	4.88
299.452	4.8
299.823	4.82
300.194	4.97
300.564	4.89
300.935	4.95
301.305	4.97
301.676	4.83
302.046	4.77
302.416	4.95
302.787	4.87
303.157	4.92
303.527	5.02
303.897	4.98
304.267	5.06
304.637	5.1
305.008	5.15
305.378	5.26
305.748	5.24
306.117	5.1
306.487	5.21
306.857	5.11
307.227	5.26
307.597	5.17
307.967	5.08
308.336	5.08
308.706	5.07
309.076	5.11
309.445	5.26
309.815	5.47
310.184	5.44
310.554	5.47
310.923	5.39
311.293	5.25
311.662	5.2
312.031	5.2
312.401	5.23
312.77	5.13
313.139	5.01
313.508	4.86
313.877	4.9
314.246	4.8
314.616	4.81
314.985	4.57
315.353	4.65
315.722	4.63
316.091	4.87
316.46	5.07
316.829	5.12
317.198	5.1
317.567	5.09
317.935	5.05
318.304	5.14
318.672	5.22
319.041	5.42
319.41	5.67
319.778	5.63
320.147	5.39
320.515	5.52
320.883	5.48
321.252	5.7
321.62	5.75
321.988	5.77
322.357	5.88
322.725	6.04
323.093	5.9
323.461	5.94
323.829	5.67
324.197	5.53
324.565	5.44
324.933	5.38
325.301	5.27
325.669	5.32
326.037	5.41
326.405	5.37
326.772	5.36
327.14	5.26
327.508	5.25
327.875	5.31
328.243	5.25
328.61	5.23
328.978	5.18
329.346	5.15
329.713	5.18
330.08	5.16
330.448	5.21
330.815	5.49
331.182	5.33
331.55	5.39
331.917	5.33
332.284	5.55
332.651	5.4
333.018	5.46
333.385	5.45
333.752	5.36
334.119	5.43
334.486	5.43
334.853	5.39
335.22	5.23
335.587	5.3
335.954	5.38
336.32	5.56
336.687	5.35
337.054	5.3
337.42	5.26
337.787	5.31
338.153	5.29
338.52	5.13
338.886	5.31
339.253	5.19
339.619	5.31
339.986	5.09
340.352	5.33
340.718	5.3
341.084	5.3
341.451	5.41
341.817	5.57
342.183	5.52
342.549	5.57
342.915	5.82
343.281	5.87
343.647	5.92
344.013	5.85
344.379	5.99
344.745	5.94
345.11	5.94
345.476	5.92
345.842	5.91
346.208	5.99
346.573	5.83
346.939	5.95
347.304	6.02
347.67	6.05
348.035	5.96
348.401	5.98
348.766	5.99
349.132	6.05
349.497	5.96
349.862	5.98
350.228	5.98
350.593	5.94
350.958	5.94
351.323	5.8
351.688	5.86
352.053	5.91
352.418	5.97
352.783	5.92
353.148	5.87
353.513	5.86
353.878	5.84
354.243	5.86
354.608	5.84
354.972	5.65
355.337	5.63
355.702	5.57
356.066	5.58
356.431	5.5
356.795	5.39
357.16	5.32
357.524	5.33
357.889	5.35
358.253	5.31
358.618	5.36
358.982	5.34
359.346	5.25
359.71	5.17
360.075	5.14
360.439	5.19
360.803	5.2
361.167	5.15
361.531	5.18
361.895	5.21
362.259	5.24
362.623	5.33
362.987	5.32
363.351	5.33
363.714	5.31
364.078	5.39
364.442	5.37
364.806	5.33
365.169	5.32
365.533	5.23
365.896	5.24
366.26	5.16
366.623	5.19
366.987	5.23
367.35	5.28
367.714	5.33
368.077	5.28
368.44	5.18
368.803	5.16
369.167	5.05
369.53	5.07
369.893	4.98
370.256	4.91
370.619	4.94
370.982	4.84
371.345	4.82
371.708	4.7
372.071	4.71
372.434	4.79
372.797	4.78
373.159	4.8
373.522	4.78
373.885	4.75
374.247	4.75
374.61	4.73
374.973	4.66
375.335	4.6
375.698	4.59
376.06	4.64
376.423	4.62
376.785	4.65
377.147	4.61
377.51	4.66
377.872	4.66
378.234	4.65
378.596	4.69
378.958	4.68
379.321	4.66
379.683	4.61
380.045	4.51
380.407	4.44
380.769	4.47
381.13	4.48
381.492	4.44
381.854	4.5
382.216	4.53
382.578	4.52
382.939	4.47
383.301	4.45
383.663	4.41
384.024	4.35
384.386	4.3
384.747	4.21
385.109	4.14
385.47	4.08
385.832	4
386.193	4.02
386.554	3.97
386.916	4.01
387.277	4.03
387.638	4.02
387.999	4.03
388.36	3.97
388.721	3.95
389.082	3.97
389.443	3.88
389.804	3.83
390.165	3.82
390.526	3.79
390.887	3.74
391.248	3.74
391.609	3.76
391.969	3.79
392.33	3.82
392.691	3.79
393.051	3.79
393.412	3.82
393.772	3.82
394.133	3.82
394.493	3.76
394.854	3.71
395.214	3.67
395.574	3.68
395.935	3.65
396.295	3.6
396.655	3.56
397.015	3.54
397.376	3.51
397.736	3.52
398.096	3.57
398.456	3.58
398.816	3.54
399.176	3.5
399.535	3.44
399.895	3.41
400.255	3.45
400.615	3.47
400.975	3.45
401.334	3.41
401.694	3.42
402.054	3.44
402.413	3.43
402.773	3.45
403.132	3.44
403.492	3.46
403.851	3.45
404.211	3.43
404.57	3.46
404.929	3.47
405.288	3.45
405.648	3.42
406.007	3.42
406.366	3.43
406.725	3.46
407.084	3.46
407.443	3.48
407.802	3.45
408.161	3.42
408.52	3.4
408.879	3.41
409.238	3.38
409.596	3.4
409.955	3.4
410.314	3.4
410.673	3.38
411.031	3.36
411.39	3.35
411.748	3.38
412.107	3.35
412.465	3.36
412.824	3.34
413.182	3.35
413.54	3.35
413.899	3.37
414.257	3.36
414.615	3.35
414.974	3.33
415.332	3.3
415.69	3.3
416.048	3.32
416.406	3.31
416.764	3.32
417.122	3.29
417.48	3.28
417.838	3.29
418.195	3.29
418.553	3.29
418.911	3.28
419.269	3.26
419.626	3.25
419.984	3.23
420.342	3.24
420.699	3.22
421.057	3.21
421.414	3.2
421.772	3.17
422.129	3.16
422.486	3.17
422.844	3.18
423.201	3.18
423.558	3.16
423.915	3.16
424.273	3.15
424.63	3.14
424.987	3.15
425.344	3.14
425.701	3.11
426.058	3.11
426.415	3.12
426.772	3.13
427.128	3.12
427.485	3.11
427.842	3.09
428.199	3.08
428.555	3.1
428.912	3.07
429.269	3.08
429.625	3.08
429.982	3.06
430.338	3.08
430.695	3.08
431.051	3.1
431.407	3.1
431.764	3.09
432.12	3.08
432.476	3.09
432.832	3.12
433.189	3.11
433.545	3.1
433.901	3.1
434.257	3.09
434.613	3.1
434.969	3.1
435.325	3.1
435.681	3.11
436.036	3.09
436.392	3.1
436.748	3.1
437.104	3.09
437.459	3.09
437.815	3.07
438.171	3.05
438.526	3.04
438.882	3.05
439.237	3.05
439.593	3.07
439.948	3.08
440.304	3.04
440.659	3.05
441.014	3.06
441.369	3.06
441.725	3.07
442.08	3.05
442.435	3.06
442.79	3.05
443.145	3.05
443.5	3.06
443.855	3.06
444.21	3.06
444.565	3.07
444.92	3.06
445.275	3.06
445.629	3.06
445.984	3.06
446.339	3.04
446.693	3.04
447.048	3.01
447.403	3
447.757	3.01
448.112	3
448.466	3
448.82	2.98
449.175	2.97
449.529	2.97
449.883	2.97
450.238	2.97
450.592	2.95
450.946	2.96
451.3	2.97
451.654	2.98
452.008	3
452.362	3.03
452.716	3.03
453.07	3.04
453.424	3.04
453.778	3.05
454.132	3.04
454.486	3.06
454.839	3.05
455.193	3.06
455.547	3.07
455.9	3.06
456.254	3.05
456.607	3.05
456.961	3.06
457.314	3.05
457.668	3.06
458.021	3.05
458.375	3.02
458.728	3.01
459.081	2.99
459.434	2.96
459.787	2.95
460.141	2.94
460.494	2.94
460.847	2.94
461.2	2.95
461.553	2.97
461.906	2.98
462.259	2.97
462.611	2.97
462.964	3
463.317	2.99
463.67	3.01
464.022	3.02
464.375	3
464.728	3.02
465.08	3
465.433	3.03
465.785	3.05
466.138	3.08
466.49	3.12
466.843	3.14
467.195	3.16
467.547	3.18
467.899	3.17
468.252	3.18
468.604	3.16
468.956	3.14
469.308	3.14
469.66	3.16
470.012	3.2
470.364	3.17
470.716	3.18
471.068	3.19
471.42	3.19
471.772	3.21
472.123	3.21
472.475	3.23
472.827	3.21
473.178	3.19
473.53	3.18
473.882	3.16
474.233	3.14
474.585	3.12
474.936	3.11
475.288	3.11
475.639	3.09
475.99	3.1
476.342	3.11
476.693	3.11
477.044	3.1
477.395	3.06
477.746	3.05
478.097	3.07
478.448	3.06
478.8	3.05
479.15	3.03
479.501	3.02
479.852	3.03
480.203	3.04
480.554	3.06
480.905	3.06
481.255	3.07
481.606	3.06
481.957	3.08
482.307	3.08
482.658	3.07
483.009	3.09
483.359	3.09
483.709	3.08
484.06	3.09
484.41	3.09
484.761	3.09
485.111	3.09
485.461	3.08
485.811	3.09
486.162	3.09
486.512	3.1
486.862	3.1
487.212	3.1
487.562	3.1
487.912	3.1
488.262	3.1
488.612	3.1
488.961	3.13
489.311	3.13
489.661	3.12
490.011	3.12
490.36	3.12
490.71	3.13
491.06	3.13
491.409	3.12
491.759	3.13
492.108	3.15
492.458	3.15
492.807	3.16
493.157	3.16
493.506	3.19
493.855	3.19
494.204	3.2
494.554	3.21
494.903	3.23
495.252	3.22
495.601	3.24
495.95	3.24
496.299	3.25
496.648	3.26
496.997	3.29
497.346	3.33
497.695	3.35
498.043	3.36
498.392	3.39
498.741	3.4
499.09	3.42
499.438	3.45
499.787	3.47
500.135	3.49
500.484	3.48
500.832	3.48
501.181	3.5
501.529	3.52
501.878	3.54
502.226	3.58
502.574	3.61
502.923	3.6
503.271	3.62
503.619	3.61
503.967	3.61
504.315	3.62
504.663	3.61
505.011	3.63
505.359	3.62
505.707	3.62
506.055	3.62
506.403	3.64
506.751	3.64
507.098	3.66
507.446	3.67
507.794	3.72
508.141	3.73
508.489	3.76
508.837	3.76
509.184	3.77
509.531	3.75
509.879	3.75
510.226	3.77
510.574	3.81
510.921	3.83
511.268	3.86
511.616	3.88
511.963	3.92
512.31	3.95
512.657	4
513.004	4.03
513.351	4.07
513.698	4.08
514.045	4.09
514.392	4.12
514.739	4.15
515.086	4.17
515.432	4.21
515.779	4.22
516.126	4.27
516.473	4.31
516.819	4.35
517.166	4.4
517.512	4.44
517.859	4.48
518.205	4.5
518.552	4.51
518.898	4.55
519.245	4.58
519.591	4.59
519.937	4.62
520.283	4.68
520.629	4.71
520.976	4.78
521.322	4.84
521.668	4.9
522.014	4.94
522.36	5
522.706	5.05
523.052	5.14
523.398	5.19
523.743	5.26
524.089	5.33
524.435	5.38
524.781	5.45
525.126	5.5
525.472	5.56
525.817	5.63
526.163	5.68
526.509	5.72
526.854	5.78
527.199	5.82
527.545	5.86
527.89	5.92
528.235	5.97
528.581	6.02
528.926	6.07
529.271	6.11
529.616	6.18
529.961	6.24
530.306	6.3
530.651	6.36
530.996	6.43
531.341	6.51
531.686	6.59
532.031	6.67
532.376	6.75
532.721	6.85
533.065	6.92
533.41	7.01
533.755	7.1
534.099	7.2
534.444	7.28
534.788	7.38
535.133	7.48
535.477	7.59
535.822	7.7
536.166	7.82
536.51	7.97
536.855	8.09
537.199	8.26
537.543	8.41
537.887	8.58
538.231	8.76
538.576	8.92
538.92	9.11
539.264	9.25
539.608	9.41
539.951	9.54
540.295	9.7
540.639	9.85
540.983	10
541.327	10.15
541.671	10.33
542.014	10.5
542.358	10.64
542.701	10.78
543.045	10.92
543.389	11.08
543.732	11.24
544.075	11.41
544.419	11.56
544.762	11.73
545.105	11.91
545.449	12.1
545.792	12.32
546.135	12.54
546.478	12.79
546.821	13.04
547.165	13.32
547.508	13.58
547.851	13.84
548.194	14.09
548.536	14.34
548.879	14.6
549.222	14.83
549.565	15.12
549.908	15.41
550.25	15.74
550.593	16.07
550.936	16.38
551.278	16.7
551.621	16.96
551.963	17.35
552.306	17.66
552.648	17.98
552.991	18.22
553.333	18.53
553.675	18.84
554.017	19.12
554.36	19.42
554.702	19.71
555.044	20.01
555.386	20.39
555.728	20.72
556.07	21.08
556.412	21.44
556.754	21.76
557.096	22.05
557.438	22.37
557.78	22.68
558.121	23.03
558.463	23.31
558.805	23.68
559.147	23.99
559.488	24.34
559.83	24.65
560.171	25
560.513	25.38
560.854	25.75
561.196	26.13
561.537	26.48
561.878	26.84
562.22	27.19
562.561	27.47
562.902	27.84
563.243	28.14
563.584	28.46
563.925	28.81
564.266	29.16
564.607	29.48
564.948	29.79
565.289	30.11
565.63	30.43
565.971	30.74
566.312	31
566.653	31.3
566.993	31.64
567.334	31.98
567.675	32.25
568.015	32.53
568.356	32.82
568.696	33.12
569.037	33.44
569.377	33.73
569.718	33.99
570.058	34.22
570.398	34.5
570.739	34.78
571.079	35.07
571.419	35.32
571.759	35.58
572.099	35.82
572.439	36.13
572.779	36.42
573.119	36.68
573.459	36.96
573.799	37.12
574.139	37.32
574.479	37.54
574.819	37.77
575.158	37.98
575.498	38.2
575.838	38.44
576.177	38.66
576.517	38.85
576.856	39.18
577.196	39.44
577.535	39.73
577.875	39.96
578.214	40.22
578.553	40.52
578.893	40.77
579.232	41.02
579.571	41.23
579.91	41.47
580.25	41.73
580.589	41.96
580.928	42.26
581.267	42.55
581.606	42.83
581.945	43.06
582.283	43.3
582.622	43.53
582.961	43.72
583.3	43.89
583.639	44.16
583.977	44.35
584.316	44.57
584.654	44.74
584.993	45.07
585.332	45.24
585.67	45.48
586.008	45.62
586.347	45.85
586.685	46.04
587.024	46.27
587.362	46.38
587.7	46.58
588.038	46.82
588.376	46.97
588.715	47.11
589.053	47.22
589.391	47.35
589.729	47.53
590.067	47.75
590.404	47.9
590.742	48.03
591.08	48.12
591.418	48.35
591.756	48.58
592.093	48.59
592.431	48.8
592.769	48.95
593.106	49.13
593.444	49.28
593.781	49.46
594.119	49.51
594.456	49.73
594.793	49.82
595.131	49.9
595.468	50.04
595.805	50.18
596.143	50.31
596.48	50.46
596.817	50.5
597.154	50.57
597.491	50.76
597.828	50.98
598.165	51.14
598.502	51.17
598.839	51.29
599.176	51.46
599.512	51.57
599.849	51.69
600.186	51.8
600.523	51.92
600.859	52.01
601.196	52.08
601.532	52.17
601.869	52.29
602.205	52.5
602.542	52.6
602.878	52.8
603.215	52.89
603.551	53.01
603.887	53.12
604.223	53.19
604.56	53.22
604.896	53.29
605.232	53.4
605.568	53.56
605.904	53.61
606.24	53.72
606.576	53.74
606.912	53.79
607.248	53.89
607.583	53.95
607.919	54.06
608.255	54.29
608.591	54.37
608.926	54.49
609.262	54.53
609.597	54.61
609.933	54.56
610.268	54.71
610.604	54.8
610.939	54.93
611.275	55.12
611.61	55.24
611.945	55.32
612.281	55.33
612.616	55.41
612.951	55.51
613.286	55.58
613.621	55.75
613.956	55.92
614.291	56.07
614.626	56.24
614.961	56.33
615.296	56.48
615.631	56.61
615.966	56.67
616.3	56.76
616.635	56.84
616.97	56.98
617.304	57.01
617.639	56.98
617.973	57.06
618.308	56.99
618.642	57.14
618.977	57.09
619.311	57.27
619.646	57.35
619.98	57.35
620.314	57.45
620.648	57.49
620.983	57.54
621.317	57.59
621.651	57.71
621.985	57.77
622.319	57.73
622.653	57.72
622.987	57.89
623.321	57.92
623.655	58.05
623.988	58.08
624.322	58.19
624.656	58.28
624.99	58.27
625.323	58.33
625.657	58.32
625.99	58.41
626.324	58.39
626.657	58.4
626.991	58.44
627.324	58.46
627.658	58.43
627.991	58.52
628.324	58.54
628.657	58.44
628.991	58.44
629.324	58.5
629.657	58.57
629.99	58.54
630.323	58.58
630.656	58.51
630.989	58.56
631.322	58.51
631.655	58.52
631.987	58.63
632.32	58.54
632.653	58.52
632.986	58.58
633.318	58.68
633.651	58.77
633.984	58.82
634.316	58.86
634.649	58.93
634.981	59
635.313	59.1
635.646	59.19
635.978	59.21
636.31	59.26
636.643	59.27
636.975	59.28
637.307	59.34
637.639	59.46
637.971	59.48
638.303	59.6
638.635	59.72
638.967	59.77
639.299	59.99
639.631	60.01
639.963	60.02
640.295	59.95
640.626	59.95
640.958	60
641.29	60.08
641.621	60.28
641.953	60.21
642.285	60.15
642.616	60.15
642.948	60.19
643.279	60.23
643.61	60.34
643.942	60.39
644.273	60.49
644.604	60.42
644.936	60.35
645.267	60.4
645.598	60.38
645.929	60.42
646.26	60.44
646.591	60.63
646.922	60.58
647.253	60.73
647.584	60.71
647.915	60.78
648.245	60.69
648.576	60.65
648.907	60.62
649.238	60.67
649.568	60.74
649.899	60.69
650.229	60.83
650.56	60.87
650.89	60.99
651.221	61.04
651.551	61.2
651.882	61.39
652.212	61.33
652.542	61.4
652.872	61.35
653.203	61.41
653.533	61.41
653.863	61.51
654.193	61.46
654.523	61.6
654.853	61.45
655.183	61.5
655.513	61.35
655.843	61.38
656.172	61.48
656.502	61.5
656.832	61.65
657.162	61.55
657.491	61.55
657.821	61.46
658.15	61.39
658.48	61.34
658.809	61.3
659.139	61.38
659.468	61.32
659.798	61.34
660.127	61.25
660.456	61.21
660.785	61.23
661.115	61.29
661.444	61.25
661.773	61.42
662.102	61.51
662.431	61.64
662.76	61.76
663.089	61.7
663.418	61.77
663.747	61.81
664.076	61.83
664.404	61.83
664.733	61.89
665.062	61.86
665.39	62
665.719	62.11
666.048	62.21
666.376	62.3
666.705	62.33
667.033	62.33
667.362	62.42
667.69	62.53
668.018	62.71
668.347	62.69
668.675	62.79
669.003	62.72
669.331	62.77
669.659	62.8
669.987	62.9
670.315	62.82
670.643	62.6
670.971	62.66
671.299	62.63
671.627	62.74
671.955	62.81
672.283	62.62
672.61	62.51
672.938	62.45
673.266	62.44
673.593	62.42
673.921	62.49
674.249	62.46
674.576	62.31
674.904	62.2
675.231	62.19
675.558	62.16
675.886	62.29
676.213	62.25
676.54	62.12
676.867	61.94
677.195	62.01
677.522	62.29
677.849	62.29
678.176	62.32
678.503	62.29
678.83	62.29
679.157	62.39
679.484	62.29
679.81	62.24
680.137	62.24
680.464	62.3
680.791	62.33
681.117	62.34
681.444	62.38
681.771	62.29
682.097	62.38
682.424	62.31
682.75	62.05
683.077	62.1
683.403	62.19
683.729	62.23
684.056	62.19
684.382	62.15
684.708	62.22
685.034	62.19
685.36	62.22
685.686	62.03
686.012	62.22
686.339	62.29
686.664	62.3
686.99	62.28
687.316	62.21
687.642	62.11
687.968	62.11
688.294	62.23
688.619	62.3
688.945	62.38
689.271	62.45
689.596	62.65
689.922	62.78
690.247	62.76
690.573	62.84
690.898	62.91
691.224	62.86
691.549	62.69
691.874	62.78
692.2	62.68
692.525	62.85
692.85	62.7
693.175	62.75
693.5	62.91
693.825	63.13
694.15	63.28
694.475	63.39
694.8	63.53
695.125	63.38
695.45	63.44
695.775	63.21
696.099	63.17
696.424	63.24
696.749	63.2
697.073	63.25
697.398	63.37
697.723	63.33
698.047	63.29
698.372	63.44
698.696	63.46
699.02	63.55
699.345	63.71
699.669	63.69
699.993	63.79
700.318	63.73
700.642	63.64
700.966	63.54
701.29	63.67
701.614	63.55
701.938	63.71
702.262	63.75
702.586	63.7
702.91	63.87
703.234	63.74
703.557	63.69
703.881	63.71
704.205	63.54
704.529	63.67
704.852	63.86
705.176	63.8
705.499	63.73
705.823	63.61
706.146	63.45
706.47	63.51
706.793	63.37
707.117	63.27
707.44	63.17
707.763	63.17
708.086	63.09
708.409	62.99
708.733	62.89
709.056	62.85
709.379	63.09
709.702	63.07
710.025	63.37
710.348	63.42
710.671	63.36
710.993	63.49
711.316	63.29
711.639	63.14
711.962	62.96
712.284	62.74
712.607	62.74
712.93	62.53
713.252	62.47
713.575	62.3
713.897	62.44
714.22	62.25
714.542	62.29
714.864	62.19
715.187	62.16
715.509	62.04
715.831	61.88
716.153	61.64
716.475	61.49
716.798	61.27
717.12	61.19
717.442	61.14
717.764	60.95
718.085	61.08
718.407	61.18
718.729	61.47
719.051	61.77
719.373	61.95
719.695	62.12
720.016	62.26
720.338	62.45
720.659	62.34
720.981	62.75
721.302	62.92
721.624	63.01
721.945	63.27
722.267	63.73
722.588	63.66
722.909	64.03
723.231	64.15
723.552	64.09
723.873	64.36
724.194	64.41
724.515	64.7
724.836	64.37
725.157	64.26
725.478	64.04
725.799	64.03
726.12	63.88
726.441	63.67
726.762	63.6
727.083	63.68
727.403	63.51
727.724	63.29
728.045	63.13
728.365	63.16
728.686	63.12
729.006	62.91
729.327	62.98
729.647	62.79
729.967	62.52
730.288	62.48
730.608	62.39
730.928	62.35
731.249	62.21
731.569	62.59
731.889	62.61
732.209	62.61
732.529	62.56
732.849	62.69
733.169	62.97
733.489	62.91
733.809	62.89
734.129	63.08
734.448	63.23
734.768	63.24
735.088	63.17
735.408	63.02
735.727	63.11
736.047	63.29
736.366	63.14
736.686	63.35
737.005	63.42
737.325	63.4
737.644	63.29
737.963	62.93
738.283	62.97
738.602	63.2
738.921	63.22
739.24	63.23
739.56	63.07
739.879	63.09
740.198	63.06
740.517	63.3
740.836	62.98
741.155	63.06
741.473	62.84
741.792	62.89
742.111	63.01
742.43	62.78
742.748	62.74
743.067	62.99
743.386	62.82
743.704	62.7
744.023	62.81
744.341	63.19
744.66	63.47
744.978	63.44
745.297	63.23
745.615	63.29
745.933	63.19
746.252	63.21
746.57	63.3
746.888	63.05
747.206	62.9
747.524	62.99
747.842	62.89
748.16	63.42
748.478	63.56
748.796	63.66
749.114	63.83
749.432	63.52
749.749	63.22
750.067	63.24
750.385	63.47
750.703	62.89
751.02	62.71
751.338	62.58
751.655	62.31
751.973	62.46
752.29	62.44
752.608	62.44
752.925	62.25
753.242	62.22
753.56	62.75
753.877	62.9
754.194	62.89
754.511	62.64
754.828	62.11
755.145	61.91
755.462	61.81
755.779	61.56
756.096	61.75
756.413	61.91
756.73	62.11
757.047	62.23
757.364	62.51
757.68	62.36
757.997	62.63
758.314	63
758.63	62.86
758.947	62.73
759.264	62.78
759.58	63.18
759.896	62.91
760.213	62.91
760.529	62.56
760.846	62.84
761.162	63.24
761.478	63.49
761.794	63.69
762.11	63.62
762.426	63.81
762.743	63.77
763.059	64.02
763.375	64.11
763.69	63.82
764.006	63.79
764.322	63.68
764.638	63.84
764.954	63.6
765.27	63.67
765.585	63.77
765.901	63.75
766.216	63.63
766.532	64.13
766.848	64.03
767.163	64.25
767.478	64.36
767.794	63.89
768.109	63.79
768.424	64.01
768.74	63.98
769.055	63.87
769.37	63.95
769.685	63.74
770	63.71
770.315	64.04
770.63	64.22
770.945	64.84
771.26	64.39
771.575	64.44
771.89	64.22
772.205	63.91
772.52	64.25
772.834	63.93
773.149	62.97
773.464	62.99
773.778	62.79
774.093	62.68
774.407	63.31
774.722	63.05
775.036	62.73
775.351	63.05
775.665	63.07
775.979	62.65
776.293	62.94
776.608	62.77
776.922	62.7
777.236	62.23
777.55	61.69
777.864	61.89
778.178	61.63
778.492	61.68
778.806	61.88
779.12	61.18
779.434	61.73
779.747	62.1
780.061	61.62
780.375	61.81
780.689	61.79
781.002	61.41
781.316	62.22
781.629	61.92
781.943	61.49
782.256	61.36
782.57	61.75
782.883	61.2
783.196	61.65
783.51	61.88
783.823	63.31
784.136	63.71
784.449	63.88
784.762	64.75
785.075	65.12
785.388	65.33
785.701	65.7
786.014	66.05
786.327	66.15
786.64	66.49
786.953	66.67
787.266	67.12
787.578	67.5
787.891	67.09
788.204	67.11
788.516	67.39
788.829	67.48
789.141	67.33
789.454	67.6
789.766	67.18
790.079	66.86
790.391	65.84
790.703	65.71
791.016	65.67
791.328	64.99
791.64	64.32
791.952	64.48
792.264	64.98
792.576	64.9
792.888	65.18
793.2	65.25
793.512	65.36
793.824	65.02
794.136	64.6
794.448	64.28
794.76	64.84
795.071	64.95
795.383	65.77
795.695	65.37
796.006	66.14
796.318	66.51
796.629	67.17
796.941	66.95
797.252	66.55
797.564	67.27
797.875	68.01
798.186	68.36
798.497	68.11
798.809	67.78
799.12	66.64
799.431	66.63
799.742	66.51
800.053	66.64
800.364	66.3
800.675	66.8
800.986	67.16
801.297	67.15
801.608	66.04
801.918	65.11
802.229	65.87
802.54	65.4
802.851	64.72
803.161	64.09
803.472	63.8
803.782	63.52
804.093	62.69
804.403	62.3
804.714	61.61
805.024	62.08
805.334	61.94
805.645	63.12
805.955	62.66
806.265	62.26
806.575	61.19
806.885	61.57
807.195	61.46
807.505	62.03
807.815	61.23
808.125	62.07
808.435	62.09
808.745	62.12
809.055	62.13
809.365	62.28
809.674	62.31
809.984	63.47
810.294	64.46
810.603	64.85
810.913	65.11
811.222	65.71
811.532	65.06
811.841	64.66
812.151	64.2
812.46	64.24
812.769	64.37
813.079	64.22
813.388	63.93
813.697	63.02
814.006	63.15
814.315	63.43
814.624	64.42
814.933	64.48
815.242	64.67
815.551	64.56
815.86	65.29
816.169	65.45
816.478	65.26
816.786	65.13
817.095	64.55
817.404	64.29
817.712	64.94
818.021	64.41
818.33	64.42
818.638	64.32
818.947	64.38
819.255	64.8
819.563	65.21
819.872	64.95
820.18	65.37
820.488	65.03
820.796	65.1
821.105	64.83
821.413	64.89
821.721	64.7
822.029	64.86
822.337	64.72
822.645	64.72
822.953	64.49
823.26	64.5
823.568	64.69
823.876	64.62
824.184	64.32
824.491	64.37
824.799	64.54
825.107	64.57
825.414	64.49
825.722	64.51
826.029	64.38
826.337	64.45
826.644	64.32
826.951	64.46
827.259	64.26
827.566	64.15
827.873	64.26
828.18	64.32
828.488	64.25
828.795	64.2
829.102	63.9
829.409	64.13
829.716	63.84
830.023	63.36
830.329	63.43
830.636	63.48
830.943	63.9
831.25	63.68
831.557	63.63
831.863	63.73
832.17	63.82
832.476	63.98
832.783	64.05
833.089	64.12
833.396	63.78
833.702	63.71
834.009	64.48
834.315	64.59
834.621	64.46
834.928	63.88
835.234	63.89
835.54	63.66
835.846	63.76
836.152	64.11
836.458	64.33
836.764	64.12
837.07	65.03
837.376	64.75
837.682	65.25
837.988	65.39
838.293	65.88
838.599	66.29
838.905	66.64
839.211	67.3
839.516	67.06
839.822	67.92
840.127	69.46
840.433	69.46
840.738	68.66
841.044	68.56
841.349	69.38
841.654	68.98
841.959	69.87
842.265	69.32
842.57	69.44
842.875	70.08
843.18	71.31
843.485	70.62
843.79	70.49
844.095	70.27
844.4	69.82
844.705	67.92
845.01	67.01
845.315	67.1
845.619	65.8
845.924	67.56
846.229	67.38
846.533	68.52
846.838	65.76
847.142	66.75
847.447	68.4
847.751	67.12
848.056	68.13
848.36	68.63
848.664	68.22
848.969	69.09
849.273	69.55
849.577	71.63
849.881	69.87
850.185	71.39
850.489	72.03
850.794	71.44
851.097	73.12
851.401	74.7
851.705	74.87
852.009	74.91
852.313	72.89
852.617	71.05
852.92	69.68
853.224	68.74
853.528	67.65
853.831	67.54
854.135	69.17
854.438	70.93
854.742	72.69
855.045	71.7
855.349	70.02
855.652	66.99
855.955	64.44
856.259	65
856.562	64.28
856.865	62.65
857.168	65.54
857.471	65.52
857.774	63.82
858.077	63.24
858.38	65.76
858.683	67.61
858.986	65.09
859.289	64.38
859.592	67.43
859.894	69.2
860.197	70.35
860.5	68.6
860.802	62.4
861.105	63.3
861.407	64.92
861.71	69
862.012	72.17
862.315	69.56
862.617	68.83
862.919	67.95
863.222	70.15
863.524	67.79
863.826	68.03
864.128	67.22
864.43	69.12
864.732	67.87
865.034	66.57
865.336	67.55
865.638	65.67
865.94	64.87
866.242	62.52
866.544	60.01
866.846	61.98
867.147	66.64
867.449	62.91
867.751	63.04
868.052	60.69
868.354	59.09
868.655	58.84
868.957	57.96
869.258	58.95
869.56	60.02
869.861	58.15
870.162	57.68
870.463	60.72
870.765	60.35
871.066	58.6
871.367	58.62
871.668	59.99
871.969	59.53
872.27	57.29
872.571	61.13
872.872	63.63
873.173	63.56
873.473	63.79
873.774	65.09
874.075	67.5
874.376	63.85
874.676	65.62
874.977	70.62
875.277	71.23
875.578	68.74
875.878	65.79
876.179	67.93
876.479	68.92
876.78	64.79
877.08	64.02
877.38	65.22
877.68	66.35
877.981	66.06
878.281	68.09
878.581	72.13
