Data from BA17718_Reflection_00012.txt Node
Date: Tue Nov 19 11:47:51 EST 2019
User: vgr7
Spectrometer: USB2G7710
Scans to average: 3
Trigger mode: 4
Integration Time (sec): 2.000000E-2
Electric dark correction enabled: true
Boxcar width: 10
XAxis mode: Wavelengths
Number of Pixels in Spectrum: 2048
>>>>>Begin Spectral Data<<<<<
177.721	89.83
178.105	19.71
178.488	-29.03
178.871	-63.72
179.254	-45
179.636	994.74
180.019	-252.52
180.402	30.77
180.785	-65.45
181.168	85.49
181.55	17.2
181.933	17.06
182.316	23.63
182.698	22.13
183.081	7.56
183.463	-34.62
183.846	-17.3
184.228	-0.6
184.611	10.86
184.993	150
185.376	-440.82
185.758	-242.98
186.14	-1237.5
186.522	-593.18
186.904	-1050
187.287	1166.04
187.669	-6300
188.051	-3559.09
188.433	907.23
188.815	-3096.43
189.197	-836.17
189.579	-319.71
189.961	-271.83
190.342	-212.38
190.724	-190.22
191.106	-181.72
191.488	-163.77
191.869	-141.74
192.251	-130.02
192.633	-135.13
193.014	-119.24
193.396	-202.96
193.777	-133.47
194.159	-96.94
194.54	-73.01
194.922	-45.43
195.303	-63.5
195.684	-80.53
196.065	-52.6
196.447	-32.17
196.828	-28.89
197.209	-16.56
197.59	-6.31
197.971	-1.68
198.352	-13.12
198.733	-8.41
199.114	-2.05
199.495	-17.16
199.876	-29.83
200.257	-28.43
200.638	-39.43
201.018	-61.99
201.399	-42.86
201.78	-48.72
202.16	-62.79
202.541	-70.57
202.922	-72.03
203.302	-78.06
203.683	-90.83
204.063	-95.15
204.444	-101.23
204.824	-106.91
205.204	-121.58
205.585	-143.33
205.965	-206.05
206.345	-147.56
206.725	-155.28
207.106	-117.97
207.486	-93.89
207.866	-83.27
208.246	-110.33
208.626	-174.59
209.006	-124.79
209.386	-109.27
209.766	-288.46
210.145	-117.03
210.525	-135.21
210.905	-138.24
211.285	-100.53
211.664	-52.5
212.044	-61.08
212.424	-26.21
212.803	-50.29
213.183	-91.07
213.562	-120
213.942	-37.28
214.321	-100.57
214.701	-76.96
215.08	-116.62
215.459	-63.54
215.838	-75.55
216.218	-112.81
216.597	-72.83
216.976	-65.74
217.355	-72.16
217.734	-96.87
218.113	-97.18
218.492	-86.77
218.871	-79.2
219.25	-73.88
219.629	-99.27
220.008	-80.07
220.387	-94.19
220.766	-81.02
221.144	-19.8
221.523	-17.05
221.902	0.38
222.28	12.59
222.659	26.56
223.037	24.91
223.416	27.15
223.794	26.69
224.173	24.04
224.551	13.55
224.929	0.42
225.308	3.64
225.686	5.12
226.064	1.58
226.442	1.52
226.821	-0
227.199	4.74
227.577	7.42
227.955	7.32
228.333	0.46
228.711	0.43
229.089	-6.74
229.467	-7.75
229.845	-12.56
230.222	-8.77
230.6	-14.08
230.978	-16.6
231.356	-15.59
231.733	-11.08
232.111	-7.95
232.488	-8.54
232.866	-4.41
233.243	-3.84
233.621	-0.18
233.998	1.41
234.376	4.81
234.753	3.19
235.13	3.62
235.508	2.55
235.885	2.51
236.262	3.54
236.639	0.64
237.016	1.43
237.393	1.38
237.77	4.16
238.147	2.73
238.524	4.02
238.901	4.83
239.278	3.89
239.655	3.26
240.032	2.73
240.409	4.31
240.785	3.87
241.162	4.66
241.539	5.09
241.915	5.08
242.292	5.36
242.668	6.01
243.045	6.37
243.421	6.35
243.798	6.41
244.174	6.56
244.551	7.3
244.927	7.62
245.303	7.8
245.679	7.48
246.056	7.42
246.432	7.27
246.808	7.24
247.184	7.56
247.56	7.61
247.936	8.02
248.312	8.07
248.688	8.19
249.064	8.07
249.44	7.9
249.815	8.12
250.191	7.94
250.567	7.87
250.943	7.57
251.318	7.67
251.694	7.56
252.069	7.56
252.445	7.43
252.82	7.45
253.196	7.5
253.571	7.51
253.947	7.93
254.322	7.65
254.697	7.62
255.073	7.38
255.448	7.57
255.823	7.38
256.198	6.84
256.573	6.83
256.948	6.52
257.323	6.24
257.698	6.03
258.073	5.8
258.448	5.72
258.823	5.61
259.198	5.53
259.573	5.64
259.948	5.71
260.322	5.72
260.697	5.71
261.072	5.72
261.446	5.7
261.821	5.48
262.195	5.6
262.57	5.51
262.944	5.54
263.319	5.36
263.693	5.18
264.067	5.29
264.442	5.25
264.816	5.35
265.19	5.36
265.564	5.38
265.938	5.36
266.313	5.25
266.687	5.49
267.061	5.35
267.435	5.24
267.809	5.05
268.183	5.05
268.556	4.75
268.93	4.72
269.304	4.67
269.678	4.86
270.051	4.9
270.425	5.08
270.799	4.88
271.172	4.94
271.546	5.18
271.919	5
272.293	5
272.666	5.08
273.04	5.07
273.413	5.1
273.787	5.14
274.16	5.19
274.533	5.07
274.906	5.17
275.279	5.2
275.653	5.32
276.026	5.45
276.399	5.43
276.772	5.18
277.145	5.11
277.518	5.13
277.891	5.14
278.263	5.09
278.636	5.3
279.009	5.34
279.382	5.1
279.755	5.2
280.127	5.14
280.5	5.08
280.872	5.23
281.245	5.05
281.617	5.07
281.99	5.11
282.362	5.11
282.735	5.24
283.107	5.18
283.479	5.26
283.852	5.27
284.224	5.28
284.596	5.53
284.968	5.45
285.34	5.35
285.713	5.24
286.085	5.06
286.457	4.98
286.829	4.92
287.201	4.99
287.572	5.08
287.944	5.12
288.316	5.09
288.688	5.06
289.06	5.15
289.431	5.11
289.803	5.02
290.175	5.11
290.546	5.02
290.918	5.12
291.289	5
291.661	4.79
292.032	4.94
292.403	4.8
292.775	5.17
293.146	5.26
293.517	5.31
293.889	5.34
294.26	5.42
294.631	5.33
295.002	5.32
295.373	5.33
295.744	5.36
296.115	5.34
296.486	5.27
296.857	5.25
297.228	5.26
297.599	5.24
297.97	5.31
298.34	5.28
298.711	5.29
299.082	5.36
299.452	5.39
299.823	5.36
300.194	5.58
300.564	5.27
300.935	5.36
301.305	5.42
301.676	5.44
302.046	5.43
302.416	5.6
302.787	5.49
303.157	5.45
303.527	5.38
303.897	5.32
304.267	5.36
304.637	5.39
305.008	5.39
305.378	5.56
305.748	5.27
306.117	5.31
306.487	5.38
306.857	5.34
307.227	5.49
307.597	5.53
307.967	5.33
308.336	5.33
308.706	5.39
309.076	5.42
309.445	5.54
309.815	5.72
310.184	5.68
310.554	5.87
310.923	5.83
311.293	5.86
311.662	6.02
312.031	6.08
312.401	6.11
312.77	6.21
313.139	6.06
313.508	6.22
313.877	6.25
314.246	6.13
314.616	6.17
314.985	6.19
315.353	6.18
315.722	6.29
316.091	6.54
316.46	6.43
316.829	6.38
317.198	6.25
317.567	6
317.935	6.06
318.304	6.15
318.672	6.2
319.041	6.29
319.41	6.36
319.778	6.42
320.147	6.45
320.515	6.44
320.883	6.52
321.252	6.73
321.62	6.72
321.988	6.81
322.357	6.87
322.725	6.93
323.093	6.84
323.461	6.78
323.829	6.71
324.197	6.59
324.565	6.65
324.933	6.88
325.301	6.88
325.669	6.89
326.037	6.74
326.405	6.81
326.772	6.71
327.14	6.6
327.508	6.54
327.875	6.59
328.243	6.61
328.61	6.7
328.978	6.4
329.346	6.47
329.713	6.46
330.08	6.54
330.448	6.6
330.815	6.68
331.182	6.59
331.55	6.68
331.917	6.78
332.284	6.85
332.651	6.79
333.018	6.88
333.385	6.94
333.752	7.03
334.119	7.02
334.486	6.99
334.853	7.06
335.22	6.93
335.587	6.86
335.954	6.79
336.32	6.74
336.687	6.86
337.054	6.79
337.42	6.83
337.787	6.67
338.153	6.72
338.52	6.8
338.886	6.89
339.253	6.75
339.619	6.74
339.986	6.63
340.352	6.51
340.718	6.5
341.084	6.51
341.451	6.57
341.817	6.59
342.183	6.69
342.549	6.81
342.915	6.87
343.281	6.84
343.647	6.83
344.013	6.82
344.379	6.85
344.745	6.88
345.11	6.94
345.476	7.05
345.842	6.88
346.208	6.8
346.573	6.79
346.939	6.88
347.304	6.84
347.67	6.98
348.035	6.94
348.401	7
348.766	6.87
349.132	6.86
349.497	6.87
349.862	6.91
350.228	6.73
350.593	6.97
350.958	7.15
351.323	7.24
351.688	7.36
352.053	7.27
352.418	7.38
352.783	7.31
353.148	7.29
353.513	7.34
353.878	7.32
354.243	7.32
354.608	7.28
354.972	7.33
355.337	7.16
355.702	7.27
356.066	7.19
356.431	7.24
356.795	7.14
357.16	7.12
357.524	7.05
357.889	7.05
358.253	6.9
358.618	6.84
358.982	6.73
359.346	6.63
359.71	6.67
360.075	6.63
360.439	6.65
360.803	6.63
361.167	6.61
361.531	6.56
361.895	6.53
362.259	6.52
362.623	6.51
362.987	6.59
363.351	6.5
363.714	6.49
364.078	6.43
364.442	6.47
364.806	6.41
365.169	6.42
365.533	6.39
365.896	6.47
366.26	6.34
366.623	6.36
366.987	6.41
367.35	6.48
367.714	6.44
368.077	6.43
368.44	6.42
368.803	6.36
369.167	6.38
369.53	6.41
369.893	6.35
370.256	6.3
370.619	6.25
370.982	6.29
371.345	6.31
371.708	6.35
372.071	6.26
372.434	6.25
372.797	6.28
373.159	6.21
373.522	6.09
373.885	6.1
374.247	6.04
374.61	5.94
374.973	5.84
375.335	5.78
375.698	5.71
376.06	5.68
376.423	5.68
376.785	5.61
377.147	5.53
377.51	5.53
377.872	5.49
378.234	5.49
378.596	5.46
378.958	5.42
379.321	5.37
379.683	5.41
380.045	5.31
380.407	5.24
380.769	5.29
381.13	5.26
381.492	5.27
381.854	5.33
382.216	5.34
382.578	5.34
382.939	5.34
383.301	5.33
383.663	5.29
384.024	5.27
384.386	5.33
384.747	5.29
385.109	5.27
385.47	5.27
385.832	5.22
386.193	5.16
386.554	5.11
386.916	5.16
387.277	5.09
387.638	5.09
387.999	5.08
388.36	5.07
388.721	5.08
389.082	5.11
389.443	5.07
389.804	5.07
390.165	5.03
390.526	4.99
390.887	4.94
391.248	4.92
391.609	4.94
391.969	4.9
392.33	4.91
392.691	4.89
393.051	4.82
393.412	4.83
393.772	4.85
394.133	4.88
394.493	4.77
394.854	4.78
395.214	4.8
395.574	4.75
395.935	4.72
396.295	4.7
396.655	4.65
397.015	4.63
397.376	4.63
397.736	4.62
398.096	4.59
398.456	4.6
398.816	4.57
399.176	4.48
399.535	4.44
399.895	4.45
400.255	4.44
400.615	4.47
400.975	4.44
401.334	4.42
401.694	4.4
402.054	4.43
402.413	4.41
402.773	4.41
403.132	4.42
403.492	4.42
403.851	4.41
404.211	4.39
404.57	4.38
404.929	4.32
405.288	4.32
405.648	4.33
406.007	4.32
406.366	4.33
406.725	4.34
407.084	4.37
407.443	4.33
407.802	4.33
408.161	4.33
408.52	4.3
408.879	4.33
409.238	4.3
409.596	4.28
409.955	4.26
410.314	4.24
410.673	4.24
411.031	4.21
411.39	4.19
411.748	4.14
412.107	4.13
412.465	4.14
412.824	4.14
413.182	4.12
413.54	4.15
413.899	4.14
414.257	4.12
414.615	4.06
414.974	4.09
415.332	4.08
415.69	4.06
416.048	4.07
416.406	4.05
416.764	4.06
417.122	4.04
417.48	4.06
417.838	4.05
418.195	4.04
418.553	4.06
418.911	4.04
419.269	4.05
419.626	4.06
419.984	4.07
420.342	4.07
420.699	4.05
421.057	4.04
421.414	4.05
421.772	4.05
422.129	4.08
422.486	4.05
422.844	4.04
423.201	4.06
423.558	4.04
423.915	4.05
424.273	4.04
424.63	4.05
424.987	4.03
425.344	4.03
425.701	4.01
426.058	4.01
426.415	4.02
426.772	4.03
427.128	4.02
427.485	4
427.842	4
428.199	4.01
428.555	3.99
428.912	3.97
429.269	3.97
429.625	3.93
429.982	3.94
430.338	3.96
430.695	3.94
431.051	3.96
431.407	3.95
431.764	3.95
432.12	3.92
432.476	3.95
432.832	3.96
433.189	3.97
433.545	3.96
433.901	3.95
434.257	3.92
434.613	3.92
434.969	3.91
435.325	3.89
435.681	3.9
436.036	3.9
436.392	3.89
436.748	3.88
437.104	3.9
437.459	3.89
437.815	3.87
438.171	3.87
438.526	3.87
438.882	3.88
439.237	3.89
439.593	3.91
439.948	3.89
440.304	3.9
440.659	3.91
441.014	3.91
441.369	3.92
441.725	3.93
442.08	3.92
442.435	3.93
442.79	3.93
443.145	3.92
443.5	3.91
443.855	3.9
444.21	3.88
444.565	3.88
444.92	3.88
445.275	3.89
445.629	3.87
445.984	3.86
446.339	3.85
446.693	3.84
447.048	3.82
447.403	3.8
447.757	3.78
448.112	3.79
448.466	3.78
448.82	3.76
449.175	3.77
449.529	3.78
449.883	3.76
450.238	3.76
450.592	3.74
450.946	3.75
451.3	3.78
451.654	3.79
452.008	3.79
452.362	3.78
452.716	3.77
453.07	3.76
453.424	3.75
453.778	3.73
454.132	3.7
454.486	3.71
454.839	3.73
455.193	3.76
455.547	3.75
455.9	3.75
456.254	3.76
456.607	3.77
456.961	3.78
457.314	3.79
457.668	3.8
458.021	3.82
458.375	3.82
458.728	3.81
459.081	3.8
459.434	3.79
459.787	3.82
460.141	3.83
460.494	3.86
460.847	3.88
461.2	3.89
461.553	3.89
461.906	3.9
462.259	3.9
462.611	3.87
462.964	3.87
463.317	3.86
463.67	3.88
464.022	3.87
464.375	3.85
464.728	3.84
465.08	3.8
465.433	3.79
465.785	3.79
466.138	3.81
466.49	3.82
466.843	3.84
467.195	3.83
467.547	3.79
467.899	3.81
468.252	3.8
468.604	3.79
468.956	3.81
469.308	3.81
469.66	3.82
470.012	3.85
470.364	3.84
470.716	3.84
471.068	3.83
471.42	3.83
471.772	3.86
472.123	3.89
472.475	3.91
472.827	3.94
473.178	3.96
473.53	3.95
473.882	3.94
474.233	3.94
474.585	3.94
474.936	3.96
475.288	3.95
475.639	3.97
475.99	3.98
476.342	3.99
476.693	3.96
477.044	3.94
477.395	3.92
477.746	3.93
478.097	3.92
478.448	3.91
478.8	3.89
479.15	3.87
479.501	3.85
479.852	3.85
480.203	3.87
480.554	3.86
480.905	3.86
481.255	3.87
481.606	3.86
481.957	3.88
482.307	3.89
482.658	3.89
483.009	3.89
483.359	3.89
483.709	3.88
484.06	3.89
484.41	3.9
484.761	3.91
485.111	3.91
485.461	3.92
485.811	3.93
486.162	3.95
486.512	3.96
486.862	3.98
487.212	3.98
487.562	3.98
487.912	3.98
488.262	3.98
488.612	3.99
488.961	4
489.311	3.99
489.661	3.99
490.011	3.98
490.36	3.98
490.71	3.98
491.06	3.99
491.409	3.99
491.759	4
492.108	4
492.458	4.01
492.807	4.01
493.157	4.02
493.506	4.01
493.855	4
494.204	3.99
494.554	4
494.903	4
495.252	4.02
495.601	4.02
495.95	4.02
496.299	4.04
496.648	4.05
496.997	4.05
497.346	4.08
497.695	4.11
498.043	4.15
498.392	4.16
498.741	4.19
499.09	4.23
499.438	4.26
499.787	4.28
500.135	4.28
500.484	4.3
500.832	4.32
501.181	4.36
501.529	4.41
501.878	4.43
502.226	4.43
502.574	4.45
502.923	4.48
503.271	4.51
503.619	4.52
503.967	4.53
504.315	4.56
504.663	4.58
505.011	4.6
505.359	4.6
505.707	4.62
506.055	4.63
506.403	4.62
506.751	4.63
507.098	4.66
507.446	4.68
507.794	4.7
508.141	4.73
508.489	4.74
508.837	4.75
509.184	4.75
509.531	4.78
509.879	4.79
510.226	4.82
510.574	4.84
510.921	4.87
511.268	4.9
511.616	4.92
511.963	4.95
512.31	4.98
512.657	5.01
513.004	5.04
513.351	5.07
513.698	5.12
514.045	5.15
514.392	5.17
514.739	5.23
515.086	5.28
515.432	5.33
515.779	5.36
516.126	5.41
516.473	5.48
516.819	5.52
517.166	5.58
517.512	5.6
517.859	5.63
518.205	5.67
518.552	5.7
518.898	5.74
519.245	5.78
519.591	5.84
519.937	5.88
520.283	5.92
520.629	5.97
520.976	6.01
521.322	6.1
521.668	6.17
522.014	6.23
522.36	6.27
522.706	6.34
523.052	6.42
523.398	6.5
523.743	6.57
524.089	6.67
524.435	6.74
524.781	6.84
525.126	6.93
525.472	7.02
525.817	7.09
526.163	7.17
526.509	7.22
526.854	7.28
527.199	7.34
527.545	7.39
527.89	7.46
528.235	7.52
528.581	7.58
528.926	7.64
529.271	7.69
529.616	7.76
529.961	7.8
530.306	7.87
530.651	7.94
530.996	8.01
531.341	8.1
531.686	8.19
532.031	8.28
532.376	8.36
532.721	8.45
533.065	8.55
533.41	8.67
533.755	8.79
534.099	8.89
534.444	9.01
534.788	9.13
535.133	9.23
535.477	9.34
535.822	9.46
536.166	9.62
536.51	9.79
536.855	9.99
537.199	10.17
537.543	10.37
537.887	10.57
538.231	10.75
538.576	10.93
538.92	11.11
539.264	11.31
539.608	11.49
539.951	11.65
540.295	11.83
540.639	12
540.983	12.17
541.327	12.35
541.671	12.51
542.014	12.7
542.358	12.88
542.701	13.05
543.045	13.21
543.389	13.4
543.732	13.59
544.075	13.77
544.419	13.96
544.762	14.15
545.105	14.34
545.449	14.58
545.792	14.81
546.135	15.03
546.478	15.27
546.821	15.56
547.165	15.88
547.508	16.15
547.851	16.44
548.194	16.71
548.536	16.99
548.879	17.3
549.222	17.59
549.565	17.88
549.908	18.19
550.25	18.49
550.593	18.8
550.936	19.12
551.278	19.45
551.621	19.77
551.963	20.09
552.306	20.46
552.648	20.78
552.991	21.11
553.333	21.47
553.675	21.79
554.017	22.08
554.36	22.36
554.702	22.68
555.044	22.92
555.386	23.25
555.728	23.61
556.07	23.95
556.412	24.3
556.754	24.66
557.096	24.97
557.438	25.33
557.78	25.64
558.121	25.98
558.463	26.31
558.805	26.67
559.147	27.04
559.488	27.38
559.83	27.73
560.171	28.04
560.513	28.43
560.854	28.82
561.196	29.21
561.537	29.53
561.878	29.89
562.22	30.27
562.561	30.54
562.902	30.85
563.243	31.18
563.584	31.53
563.925	31.85
564.266	32.2
564.607	32.55
564.948	32.93
565.289	33.24
565.63	33.52
565.971	33.83
566.312	34.14
566.653	34.39
566.993	34.71
567.334	35.06
567.675	35.43
568.015	35.76
568.356	36.04
568.696	36.38
569.037	36.67
569.377	37
569.718	37.35
570.058	37.7
570.398	38.02
570.739	38.29
571.079	38.63
571.419	38.93
571.759	39.31
572.099	39.52
572.439	39.84
572.779	40.14
573.119	40.42
573.459	40.66
573.799	40.97
574.139	41.23
574.479	41.49
574.819	41.65
575.158	41.79
575.498	42.04
575.838	42.28
576.177	42.59
576.517	42.78
576.856	43.09
577.196	43.33
577.535	43.55
577.875	43.82
578.214	44.04
578.553	44.29
578.893	44.47
579.232	44.72
579.571	44.94
579.91	45.2
580.25	45.45
580.589	45.66
580.928	45.9
581.267	46.08
581.606	46.32
581.945	46.59
582.283	46.92
582.622	47.14
582.961	47.37
583.3	47.53
583.639	47.9
583.977	48.08
584.316	48.27
584.654	48.46
584.993	48.74
585.332	48.97
585.67	49.16
586.008	49.42
586.347	49.59
586.685	49.83
587.024	50.09
587.362	50.26
587.7	50.57
588.038	50.78
588.376	50.99
588.715	51.12
589.053	51.29
589.391	51.45
589.729	51.66
590.067	51.8
590.404	51.97
590.742	52.17
591.08	52.38
591.418	52.59
591.756	52.87
592.093	52.97
592.431	53.17
592.769	53.29
593.106	53.47
593.444	53.77
593.781	53.87
594.119	54.01
594.456	54.23
594.793	54.31
595.131	54.43
595.468	54.55
595.805	54.75
596.143	54.9
596.48	54.99
596.817	55.13
597.154	55.25
597.491	55.41
597.828	55.48
598.165	55.57
598.502	55.64
598.839	55.72
599.176	55.83
599.512	55.95
599.849	56.2
600.186	56.24
600.523	56.25
600.859	56.44
601.196	56.51
601.532	56.59
601.869	56.69
602.205	56.84
602.542	57.04
602.878	57.21
603.215	57.31
603.551	57.54
603.887	57.66
604.223	57.82
604.56	57.89
604.896	58.06
605.232	58.23
605.568	58.35
605.904	58.45
606.24	58.59
606.576	58.67
606.912	58.82
607.248	58.94
607.583	59.08
607.919	59.18
608.255	59.3
608.591	59.37
608.926	59.52
609.262	59.61
609.597	59.65
609.933	59.65
610.268	59.7
610.604	59.7
610.939	59.76
611.275	59.79
611.61	59.85
611.945	59.87
612.281	59.77
612.616	59.83
612.951	59.9
613.286	59.97
613.621	60
613.956	59.96
614.291	60.09
614.626	60.16
614.961	60.24
615.296	60.4
615.631	60.45
615.966	60.52
616.3	60.58
616.635	60.69
616.97	60.79
617.304	61
617.639	61.03
617.973	61.05
618.308	61.03
618.642	61.12
618.977	61.13
619.311	61.3
619.646	61.37
619.98	61.46
620.314	61.51
620.648	61.61
620.983	61.71
621.317	61.84
621.651	61.9
621.985	61.93
622.319	62.01
622.653	62.2
622.987	62.25
623.321	62.37
623.655	62.39
623.988	62.49
624.322	62.5
624.656	62.48
624.99	62.57
625.323	62.76
625.657	62.82
625.99	62.91
626.324	62.98
626.657	63.06
626.991	63.12
627.324	63.13
627.658	63.14
627.991	63.18
628.324	63.14
628.657	63.27
628.991	63.24
629.324	63.24
629.657	63.18
629.99	63.25
630.323	63.24
630.656	63.26
630.989	63.32
631.322	63.33
631.655	63.54
631.987	63.6
632.32	63.51
632.653	63.5
632.986	63.46
633.318	63.55
633.651	63.49
633.984	63.47
634.316	63.55
634.649	63.58
634.981	63.69
635.313	63.77
635.646	63.72
635.978	63.83
636.31	63.88
636.643	63.97
636.975	63.97
637.307	64.02
637.639	64.1
637.971	64.12
638.303	64.13
638.635	64.16
638.967	64.21
639.299	64.36
639.631	64.47
639.963	64.58
640.295	64.63
640.626	64.7
640.958	64.83
641.29	64.9
641.621	64.91
641.953	64.92
642.285	64.95
642.616	65.06
642.948	65
643.279	65.13
643.61	65.21
643.942	65.37
644.273	65.45
644.604	65.36
644.936	65.31
645.267	65.39
645.598	65.39
645.929	65.5
646.26	65.49
646.591	65.54
646.922	65.55
647.253	65.55
647.584	65.68
647.915	65.6
648.245	65.7
648.576	65.76
648.907	65.68
649.238	65.76
649.568	65.75
649.899	65.78
650.229	65.79
650.56	65.93
650.89	65.92
651.221	65.88
651.551	66.18
651.882	66.29
652.212	66.21
652.542	66.26
652.872	66.24
653.203	66.28
653.533	66.24
653.863	66.24
654.193	66.26
654.523	66.15
654.853	66.27
655.183	66.15
655.513	66.13
655.843	66.29
656.172	66.27
656.502	66.38
656.832	66.42
657.162	66.32
657.491	66.24
657.821	66.3
658.15	66.42
658.48	66.31
658.809	66.24
659.139	66.26
659.468	66.25
659.798	66.25
660.127	66.31
660.456	66.34
660.785	66.36
661.115	66.31
661.444	66.38
661.773	66.39
662.102	66.49
662.431	66.57
662.76	66.57
663.089	66.64
663.418	66.73
663.747	66.8
664.076	66.84
664.404	66.97
664.733	66.99
665.062	66.84
665.39	66.88
665.719	66.95
666.048	67.18
666.376	67.17
666.705	67.16
667.033	67.09
667.362	67.29
667.69	67.49
668.018	67.75
668.347	67.87
668.675	67.96
669.003	68
669.331	68
669.659	68.09
669.987	67.97
670.315	67.67
670.643	67.66
670.971	67.59
671.299	67.5
671.627	67.46
671.955	67.6
672.283	67.48
672.61	67.42
672.938	67.26
673.266	67.39
673.593	67.42
673.921	67.51
674.249	67.39
674.576	67.34
674.904	67.16
675.231	67.12
675.558	67.01
675.886	67.07
676.213	67.03
676.54	66.89
676.867	66.93
677.195	67.02
677.522	67.28
677.849	67.39
678.176	67.43
678.503	67.4
678.83	67.4
679.157	67.49
679.484	67.55
679.81	67.58
680.137	67.53
680.464	67.58
680.791	67.6
681.117	67.43
681.444	67.34
681.771	67.44
682.097	67.41
682.424	67.53
682.75	67.41
683.077	67.44
683.403	67.47
683.729	67.59
684.056	67.67
684.382	67.7
684.708	67.78
685.034	67.67
685.36	67.53
685.686	67.45
686.012	67.67
686.339	67.73
686.664	67.68
686.99	67.63
687.316	67.56
687.642	67.57
687.968	67.81
688.294	67.82
688.619	67.9
688.945	68.05
689.271	67.95
689.596	67.98
689.922	68.16
690.247	68.27
690.573	68.21
690.898	68.18
691.224	67.96
691.549	67.87
691.874	67.91
692.2	68.25
692.525	68.21
692.85	68
693.175	67.94
693.5	68.17
693.825	68.5
694.15	68.63
694.475	68.6
694.8	68.53
695.125	68.53
695.45	68.47
695.775	68.34
696.099	68.33
696.424	68.52
696.749	68.6
697.073	68.6
697.398	68.73
697.723	68.76
698.047	68.71
698.372	68.81
698.696	68.84
699.02	68.73
699.345	68.85
699.669	68.94
699.993	68.92
700.318	68.95
700.642	68.69
700.966	68.51
701.29	68.61
701.614	68.54
701.938	68.73
702.262	68.66
702.586	68.77
702.91	68.9
703.234	68.8
703.557	68.51
703.881	68.48
704.205	68.33
704.529	68.57
704.852	68.76
705.176	68.86
705.499	68.86
705.823	68.84
706.146	69.05
706.47	68.95
706.793	68.96
707.117	68.65
707.44	68.88
707.763	69.09
708.086	69.07
708.409	69.35
708.733	69.11
709.056	69.18
709.379	69.4
709.702	69.57
710.025	69.71
710.348	69.9
710.671	69.97
710.993	69.91
711.316	69.74
711.639	69.78
711.962	69.63
712.284	69.55
712.607	69.7
712.93	69.48
713.252	69.41
713.575	69.43
713.897	69.53
714.22	69.47
714.542	69.49
714.864	69.27
715.187	68.96
715.509	68.99
715.831	68.7
716.153	68.47
716.475	68.38
716.798	68.24
717.12	68.04
717.442	67.99
717.764	68.1
718.085	67.93
718.407	67.81
718.729	67.89
719.051	67.94
719.373	67.76
719.695	67.76
720.016	67.78
720.338	67.99
720.659	68.05
720.981	68.07
721.302	67.99
721.624	68.09
721.945	68.32
722.267	68.58
722.588	68.95
722.909	68.92
723.231	68.79
723.552	68.99
723.873	69.15
724.194	68.89
724.515	69.13
724.836	69.06
725.157	69.08
725.478	69.09
725.799	69.35
726.12	69.47
726.441	69.42
726.762	69.66
727.083	69.69
727.403	69.49
727.724	69.22
728.045	69.29
728.365	69.22
728.686	69.25
729.006	69.04
729.327	69.18
729.647	68.97
729.967	69.12
730.288	69.04
730.608	69.18
730.928	69.48
731.249	69.23
731.569	69.43
731.889	69.23
732.209	69.14
732.529	69.02
732.849	69.02
733.169	69.21
733.489	69.03
733.809	68.94
734.129	69.18
734.448	69.5
734.768	69.43
735.088	69.61
735.408	69.61
735.727	69.8
736.047	69.72
736.366	69.88
736.686	69.82
737.005	69.87
737.325	69.82
737.644	69.68
737.963	69.64
738.283	69.61
738.602	69.47
738.921	69.54
739.24	69.41
739.56	69.31
739.879	69.17
740.198	69.27
740.517	69.34
740.836	69.17
741.155	69.27
741.473	69.15
741.792	69.23
742.111	69.25
742.43	69.03
742.748	68.92
743.067	69.24
743.386	69.07
743.704	68.91
744.023	69.31
744.341	69.22
744.66	69.16
744.978	69.36
745.297	69.62
745.615	69.75
745.933	69.59
746.252	69.49
746.57	69.44
746.888	69.49
747.206	69.16
747.524	68.97
747.842	68.4
748.16	69.06
748.478	69.1
748.796	68.92
749.114	69.23
749.432	69.06
749.749	68.62
750.067	68.59
750.385	68.58
750.703	68.07
751.02	68.32
751.338	68.48
751.655	68.35
751.973	68.67
752.29	68.51
752.608	69.11
752.925	69.39
753.242	69.62
753.56	69.7
753.877	69.99
754.194	69.96
754.511	70.32
754.828	69.47
755.145	69.23
755.462	69.32
755.779	69.08
756.096	69.07
756.413	69.12
756.73	69.59
757.047	69.38
757.364	69.12
757.68	69.2
757.997	69.33
758.314	69.36
758.63	69.42
758.947	69.39
759.264	69.06
759.58	69.33
759.896	69.45
760.213	69.24
760.529	68.98
760.846	69.66
761.162	69.73
761.478	69.99
761.794	70.12
762.11	70.27
762.426	70.37
762.743	70.24
763.059	70.72
763.375	70.41
763.69	70.55
764.006	70.52
764.322	70.28
764.638	70.03
764.954	69.88
765.27	69.67
765.585	69.74
765.901	69.94
766.216	69.8
766.532	69.99
766.848	69.91
767.163	70.12
767.478	70.03
767.794	70
768.109	70.05
768.424	69.96
768.74	69.68
769.055	69.31
769.37	69.38
769.685	68.77
770	68.87
770.315	68.91
770.63	69.34
770.945	69.57
771.26	70.08
771.575	70.35
771.89	70.24
772.205	69.95
772.52	69.94
772.834	69.69
773.149	69.25
773.464	69.38
773.778	69.53
774.093	68.85
774.407	68.95
774.722	68.79
775.036	68.79
775.351	69.2
775.665	69.49
775.979	69.48
776.293	69.75
776.608	69.98
776.922	69.93
777.236	68.92
777.55	69.22
777.864	69.09
778.178	68.51
778.492	68.55
778.806	69.26
779.12	68.9
779.434	69.89
779.747	69.93
780.061	70.17
780.375	69.95
780.689	70.34
781.002	70.23
781.316	70.61
781.629	70.66
781.943	70.26
782.256	70.31
782.57	70.34
782.883	70.25
783.196	69.91
783.51	70.11
783.823	71.24
784.136	70.71
784.449	70.66
784.762	71.82
785.075	71.94
785.388	71.66
785.701	71.79
786.014	71.11
786.327	71.73
786.64	71.64
786.953	71.47
787.266	71.71
787.578	71.73
787.891	72.01
788.204	71.75
788.516	72.81
788.829	72.83
789.141	73.04
789.454	72.59
789.766	72.42
790.079	72.51
790.391	72.57
790.703	72.76
791.016	72.34
791.328	71.69
791.64	71.75
791.952	71.77
792.264	72.35
792.576	72.64
792.888	71.74
793.2	71.73
793.512	71.91
793.824	71.81
794.136	71.23
794.448	70.6
794.76	71.48
795.071	70.84
795.383	71.42
795.695	70.74
796.006	72.06
796.318	72.02
796.629	72.27
796.941	72.29
797.252	71.93
797.564	72.65
797.875	72.75
798.186	72.42
798.497	72.52
798.809	71.97
799.12	71.49
799.431	71.68
799.742	71.92
800.053	72.46
800.364	72.98
800.675	73.53
800.986	73.8
801.297	73.65
801.608	73.74
801.918	73.15
802.229	73.62
802.54	73.35
802.851	73.59
803.161	72.64
803.472	72.56
803.782	72.66
804.093	72.16
804.403	72.49
804.714	72.91
805.024	73.09
805.334	73.13
805.645	73.31
805.955	73.38
806.265	73.44
806.575	72.06
806.885	71.86
807.195	72.62
807.505	73.29
807.815	72.81
808.125	72.71
808.435	72.6
808.745	73.36
809.055	73.31
809.365	73.89
809.674	73.77
809.984	73.82
810.294	74.41
810.603	74.54
810.913	74.06
811.222	73.41
811.532	73.38
811.841	73.21
812.151	73.58
812.46	73.78
812.769	73.62
813.079	74.73
813.388	74.12
813.697	71.63
814.006	70.66
814.315	70.9
814.624	70.87
814.933	71.66
815.242	71.84
815.551	72.1
815.86	71.58
816.169	71.93
816.478	71.17
816.786	72.06
817.095	71.86
817.404	72.19
817.712	72.97
818.021	71.61
818.33	71.79
818.638	71.37
818.947	71.03
819.255	70.35
819.563	70.62
819.872	71.22
820.18	71.97
820.488	72.54
820.796	72.75
821.105	72.49
821.413	72.67
821.721	72.33
822.029	71.98
822.337	71.84
822.645	71.99
822.953	72.05
823.26	71.71
823.568	71.9
823.876	71.96
824.184	71.96
824.491	72.22
824.799	72.06
825.107	71.92
825.414	72.15
825.722	72.43
826.029	72.28
826.337	72.18
826.644	72.17
826.951	71.94
827.259	71.53
827.566	71.57
827.873	71.26
828.18	71.45
828.488	71.79
828.795	71.71
829.102	71.52
829.409	71.64
829.716	71.63
830.023	71.47
830.329	71.32
830.636	71.15
830.943	71.08
831.25	71.2
831.557	71.19
831.863	71.14
832.17	70.85
832.476	71.11
832.783	70.88
833.089	71.24
833.396	71.07
833.702	71.06
834.009	70.89
834.315	70.92
834.621	70.31
834.928	70.25
835.234	70.18
835.54	69.75
835.846	69.4
836.152	69.73
836.458	70.06
836.764	69.94
837.07	69.88
837.376	70.15
837.682	70.56
837.988	70.71
838.293	70.16
838.599	70.6
838.905	70.55
839.211	71.48
839.516	71.05
839.822	71.62
840.127	73.05
840.433	74.39
840.738	73.52
841.044	75.01
841.349	75.44
841.654	76.51
841.959	77.92
842.265	79.41
842.57	79.18
842.875	78.05
843.18	79
843.485	79.8
843.79	79.46
844.095	79.81
844.4	80.34
844.705	81.55
845.01	81.88
845.315	82.56
845.619	78.88
845.924	79.11
846.229	79.02
846.533	78.33
846.838	75.92
847.142	79.15
847.447	78.59
847.751	74.83
848.056	76.02
848.36	77.03
848.664	76.68
848.969	78.15
849.273	78.5
849.577	77.09
849.881	75.09
850.185	74.18
850.489	73.06
850.794	72.84
851.097	69.68
851.401	69.3
851.705	71.26
852.009	73.72
852.313	74.64
852.617	72.57
852.92	72.89
853.224	71.87
853.528	69.14
853.831	68.62
854.135	69.44
854.438	70.18
854.742	69.5
855.045	69.29
855.349	67.23
855.652	67.26
855.955	69.18
856.259	71.95
856.562	71.32
856.865	71.22
857.168	72.5
857.471	77.38
857.774	77.72
858.077	75.42
858.38	74.99
858.683	73.12
858.986	72.58
859.289	71.53
859.592	72.47
859.894	76.42
860.197	76.77
860.5	78.3
860.802	73.82
861.105	77.08
861.407	74
861.71	77.56
862.012	79.58
862.315	79.63
862.617	77.85
862.919	79.75
863.222	81.15
863.524	79.1
863.826	75.98
864.128	75.01
864.43	78.76
864.732	82.37
865.034	86.56
865.336	88.93
865.638	89.16
865.94	92.31
866.242	87.15
866.544	83.93
866.846	84.77
867.147	90.18
867.449	84.01
867.751	84.81
868.052	82.08
868.354	79.74
868.655	79.74
868.957	81.37
869.258	82.06
869.56	81.22
869.861	81.9
870.162	80.53
870.463	82.23
870.765	79.25
871.066	76.63
871.367	75.92
871.668	75.25
871.969	74.82
872.27	72.82
872.571	75.48
872.872	77.01
873.173	78.02
873.473	73.52
873.774	75.75
874.075	76.84
874.376	75.64
874.676	77.34
874.977	72.72
875.277	70.82
875.578	67.39
875.878	67
876.179	67.27
876.479	68.65
876.78	66.36
877.08	64.35
877.38	63.18
877.68	60.29
877.981	60.23
878.281	60.24
878.581	61.21
