Data from BA17724_Reflection_00006.txt Node
Date: Tue Nov 19 11:57:54 EST 2019
User: vgr7
Spectrometer: USB2G7710
Scans to average: 3
Trigger mode: 4
Integration Time (sec): 2.000000E-2
Electric dark correction enabled: true
Boxcar width: 10
XAxis mode: Wavelengths
Number of Pixels in Spectrum: 2048
>>>>>Begin Spectral Data<<<<<
177.721	-73.32
178.105	-150
178.488	-136.15
178.871	-136.36
179.254	-243.75
179.636	-1287.1
180.019	-497.56
180.402	-15.15
180.785	-300
181.168	-1.6
181.55	60.94
181.933	33.18
182.316	91.35
182.698	149.47
183.081	127.62
183.463	207.48
183.846	287.12
184.228	375.59
184.611	11475
184.993	1920
185.376	-772.88
185.758	12225
186.14	450
186.522	801.49
186.904	1462.5
187.287	291.7
187.669	241.07
188.051	272.82
188.433	134.6
188.815	167.92
189.197	209.83
189.579	189.1
189.961	248.6
190.342	256.95
190.724	254.87
191.106	214.73
191.488	202.61
191.869	296.89
192.251	195.61
192.633	101.14
193.014	120.57
193.396	101.15
193.777	193.92
194.159	158.82
194.54	368.38
194.922	397.3
195.303	1312.5
195.684	1610.87
196.065	-1631.71
196.447	-861.04
196.828	1541.86
197.209	-1558.54
197.59	-1187.23
197.971	678.95
198.352	525.62
198.733	310.4
199.114	404.73
199.495	393.37
199.876	225
200.257	401.65
200.638	3284.21
201.018	347.19
201.399	4256.25
201.78	297.12
202.16	342.86
202.541	202.94
202.922	196.84
203.302	153.29
203.683	105.63
204.063	94.38
204.444	113.36
204.824	471.43
205.204	318.75
205.585	600
205.965	-58.02
206.345	2.14
206.725	-10.17
207.106	50.7
207.486	61.98
207.866	42.01
208.246	32.71
208.626	21.34
209.006	14.63
209.386	19.71
209.766	2.68
210.145	-14.24
210.525	-39.31
210.905	-20.03
211.285	-10.81
211.664	-7.1
212.044	-2.55
212.424	2.6
212.803	7.76
213.183	-4.97
213.562	-14.44
213.942	-15.71
214.321	1.13
214.701	-1.44
215.08	-32.89
215.459	-52.37
215.838	-85.02
216.218	-110.4
216.597	-80.86
216.976	-84.71
217.355	-88.66
217.734	-112.16
218.113	-98.7
218.492	-83.05
218.871	-83.44
219.25	-70.32
219.629	-56.4
220.008	-90.58
220.387	-146.34
220.766	-73.05
221.144	-73.78
221.523	-94.6
221.902	-117.64
222.28	-135.54
222.659	-90.52
223.037	-94.23
223.416	-65.11
223.794	-42.86
224.173	-36.44
224.551	-20.69
224.929	-23.29
225.308	-7.34
225.686	-3.87
226.064	-11.87
226.442	-0.71
226.821	-0
227.199	-2.81
227.577	-11.55
227.955	-5.98
228.333	-5.94
228.711	-8.19
229.089	-7.94
229.467	-5.86
229.845	0.24
230.222	-1.47
230.6	-3.6
230.978	-6.67
231.356	-9.85
231.733	-8.89
232.111	-6.68
232.488	-9.98
232.866	-7.86
233.243	-6.88
233.621	-2.44
233.998	-1.2
234.376	-4.27
234.753	-4.25
235.13	-5.98
235.508	-5.02
235.885	-4.99
236.262	-3.74
236.639	-4.7
237.016	-4.19
237.393	-1.54
237.77	-1
238.147	0.21
238.524	0.68
238.901	1.91
239.278	2.27
239.655	2.25
240.032	2.25
240.409	4.1
240.785	3.89
241.162	2.88
241.539	2.45
241.915	2.64
242.292	2.94
242.668	2.67
243.045	3.55
243.421	3.67
243.798	3.69
244.174	3.75
244.551	4.14
244.927	4.38
245.303	4.22
245.679	4.24
246.056	4.1
246.432	4.08
246.808	4.12
247.184	4.42
247.56	4.51
247.936	4.6
248.312	4.34
248.688	4.69
249.064	4.67
249.44	4.48
249.815	4.51
250.191	4.36
250.567	4.61
250.943	4.4
251.318	4.32
251.694	4.13
252.069	4.07
252.445	4.16
252.82	4.2
253.196	4.02
253.571	4.06
253.947	4.25
254.322	4.25
254.697	4.03
255.073	3.86
255.448	3.56
255.823	3.86
256.198	3.49
256.573	3.61
256.948	3.79
257.323	3.85
257.698	3.88
258.073	3.75
258.448	3.78
258.823	3.72
259.198	3.81
259.573	3.73
259.948	3.82
260.322	3.66
260.697	3.64
261.072	3.79
261.446	3.62
261.821	3.62
262.195	3.63
262.57	3.75
262.944	3.67
263.319	3.7
263.693	3.45
264.067	3.54
264.442	3.41
264.816	3.51
265.19	3.47
265.564	3.41
265.938	3.64
266.313	3.54
266.687	3.74
267.061	3.74
267.435	4.03
267.809	3.95
268.183	4.05
268.556	3.86
268.93	3.84
269.304	3.97
269.678	3.94
270.051	3.87
270.425	3.81
270.799	3.78
271.172	3.74
271.546	3.73
271.919	3.7
272.293	3.57
272.666	3.35
273.04	3.4
273.413	3.43
273.787	3.29
274.16	3.11
274.533	3.25
274.906	3.21
275.279	3.07
275.653	3.3
276.026	3.25
276.399	3.46
276.772	3.45
277.145	3.31
277.518	3.45
277.891	3.58
278.263	3.53
278.636	3.64
279.009	3.89
279.382	4
279.755	4.2
280.127	4.13
280.5	4.3
280.872	4.2
281.245	4.24
281.617	4.33
281.99	4.43
282.362	4.22
282.735	4.15
283.107	4.09
283.479	3.99
283.852	3.89
284.224	3.71
284.596	3.66
284.968	3.57
285.34	3.52
285.713	3.45
286.085	3.49
286.457	3.58
286.829	3.43
287.201	3.49
287.572	3.33
287.944	3.41
288.316	3.39
288.688	3.45
289.06	3.4
289.431	3.43
289.803	3.47
290.175	3.56
290.546	3.68
290.918	3.57
291.289	3.28
291.661	3.41
292.032	3.44
292.403	3.25
292.775	3.48
293.146	3.63
293.517	3.52
293.889	3.47
294.26	3.4
294.631	3.5
295.002	3.48
295.373	3.54
295.744	3.5
296.115	3.34
296.486	3.34
296.857	3.26
297.228	3.13
297.599	2.89
297.97	2.86
298.34	2.78
298.711	3.08
299.082	3.17
299.452	3.24
299.823	3.18
300.194	3.3
300.564	3.15
300.935	2.98
301.305	3.06
301.676	2.86
302.046	2.8
302.416	2.72
302.787	2.74
303.157	2.75
303.527	2.88
303.897	3.11
304.267	3.1
304.637	3.21
305.008	3.36
305.378	3.58
305.748	3.51
306.117	3.5
306.487	3.32
306.857	3.5
307.227	3.43
307.597	3.61
307.967	3.49
308.336	3.56
308.706	3.59
309.076	3.6
309.445	3.99
309.815	3.93
310.184	3.84
310.554	3.72
310.923	3.71
311.293	3.6
311.662	3.58
312.031	3.49
312.401	3.51
312.77	3.44
313.139	3.53
313.508	3.52
313.877	3.68
314.246	3.71
314.616	3.48
314.985	3.47
315.353	3.31
315.722	3.52
316.091	3.53
316.46	3.46
316.829	3.47
317.198	3.25
317.567	3.38
317.935	3.5
318.304	3.71
318.672	3.71
319.041	3.62
319.41	3.5
319.778	3.71
320.147	3.7
320.515	3.64
320.883	3.62
321.252	3.7
321.62	3.56
321.988	3.53
322.357	3.62
322.725	3.55
323.093	3.44
323.461	3.41
323.829	3.43
324.197	3.56
324.565	3.55
324.933	3.59
325.301	3.36
325.669	3.23
326.037	3.24
326.405	3.2
326.772	3.19
327.14	3.21
327.508	3.12
327.875	3.1
328.243	3.17
328.61	3.16
328.978	2.99
329.346	3
329.713	3.09
330.08	3.28
330.448	3.31
330.815	3.49
331.182	3.34
331.55	3.35
331.917	3.24
332.284	3.32
332.651	3.33
333.018	3.41
333.385	3.53
333.752	3.45
334.119	3.43
334.486	3.56
334.853	3.48
335.22	3.52
335.587	3.45
335.954	3.35
336.32	3.31
336.687	3.45
337.054	3.47
337.42	3.37
337.787	3.26
338.153	3.38
338.52	3.44
338.886	3.48
339.253	3.47
339.619	3.52
339.986	3.47
340.352	3.53
340.718	3.61
341.084	3.72
341.451	3.79
341.817	3.72
342.183	3.66
342.549	3.79
342.915	3.8
343.281	3.8
343.647	3.9
344.013	3.93
344.379	3.97
344.745	3.89
345.11	3.95
345.476	3.9
345.842	3.72
346.208	3.74
346.573	3.87
346.939	3.82
347.304	3.88
347.67	3.91
348.035	3.83
348.401	3.87
348.766	3.76
349.132	3.79
349.497	3.86
349.862	3.88
350.228	3.87
350.593	3.86
350.958	3.99
351.323	3.95
351.688	3.92
352.053	3.96
352.418	4.04
352.783	4.02
353.148	4.15
353.513	4.21
353.878	4.13
354.243	4.07
354.608	4.13
354.972	4.12
355.337	4
355.702	3.99
356.066	3.96
356.431	3.91
356.795	3.84
357.16	3.89
357.524	3.93
357.889	3.91
358.253	3.98
358.618	3.86
358.982	3.93
359.346	3.91
359.71	3.92
360.075	3.91
360.439	3.92
360.803	3.9
361.167	3.93
361.531	3.95
361.895	3.93
362.259	3.94
362.623	3.88
362.987	4.01
363.351	4.05
363.714	3.98
364.078	4.07
364.442	4.05
364.806	4.05
365.169	4.06
365.533	4.11
365.896	4.07
366.26	4.11
366.623	4.02
366.987	3.99
367.35	3.96
367.714	3.94
368.077	3.93
368.44	3.91
368.803	3.88
369.167	3.83
369.53	3.85
369.893	3.86
370.256	3.86
370.619	3.76
370.982	3.74
371.345	3.92
371.708	3.85
372.071	3.84
372.434	3.86
372.797	3.86
373.159	3.76
373.522	3.7
373.885	3.7
374.247	3.74
374.61	3.86
374.973	3.81
375.335	3.88
375.698	3.93
376.06	3.95
376.423	3.93
376.785	4.03
377.147	4.01
377.51	3.96
377.872	4.01
378.234	4.05
378.596	4.06
378.958	4
379.321	3.99
379.683	4.02
380.045	3.99
380.407	3.95
380.769	3.97
381.13	3.92
381.492	3.94
381.854	3.97
382.216	3.94
382.578	3.95
382.939	3.93
383.301	3.86
383.663	3.82
384.024	3.91
384.386	3.89
384.747	3.91
385.109	3.94
385.47	3.98
385.832	3.98
386.193	3.98
386.554	3.9
386.916	3.98
387.277	3.96
387.638	3.97
387.999	3.97
388.36	4
388.721	4.07
389.082	4.07
389.443	4.08
389.804	4.16
390.165	4.16
390.526	4.14
390.887	4.18
391.248	4.2
391.609	4.18
391.969	4.2
392.33	4.2
392.691	4.18
393.051	4.1
393.412	4.1
393.772	4.1
394.133	4.13
394.493	4.06
394.854	4.08
395.214	4.09
395.574	4.11
395.935	4.09
396.295	4.13
396.655	4.17
397.015	4.14
397.376	4.07
397.736	4.09
398.096	4.1
398.456	4.09
398.816	4.07
399.176	4
399.535	3.98
399.895	3.98
400.255	3.97
400.615	3.98
400.975	3.96
401.334	3.93
401.694	3.93
402.054	3.94
402.413	3.95
402.773	3.97
403.132	3.96
403.492	3.96
403.851	3.94
404.211	3.89
404.57	3.89
404.929	3.88
405.288	3.87
405.648	3.89
406.007	3.86
406.366	3.85
406.725	3.89
407.084	3.89
407.443	3.88
407.802	3.87
408.161	3.87
408.52	3.9
408.879	3.92
409.238	3.94
409.596	3.95
409.955	3.94
410.314	3.94
410.673	3.92
411.031	3.91
411.39	3.94
411.748	3.99
412.107	3.98
412.465	3.98
412.824	3.98
413.182	3.98
413.54	3.99
413.899	4.02
414.257	4.02
414.615	4
414.974	4
415.332	3.99
415.69	3.98
416.048	3.98
416.406	3.98
416.764	3.98
417.122	3.97
417.48	3.95
417.838	3.95
418.195	3.94
418.553	3.93
418.911	3.91
419.269	3.89
419.626	3.91
419.984	3.91
420.342	3.92
420.699	3.9
421.057	3.91
421.414	3.91
421.772	3.92
422.129	3.92
422.486	3.9
422.844	3.9
423.201	3.92
423.558	3.91
423.915	3.91
424.273	3.91
424.63	3.92
424.987	3.94
425.344	3.91
425.701	3.93
426.058	3.93
426.415	3.93
426.772	3.93
427.128	3.91
427.485	3.9
427.842	3.9
428.199	3.92
428.555	3.9
428.912	3.87
429.269	3.85
429.625	3.86
429.982	3.88
430.338	3.87
430.695	3.85
431.051	3.88
431.407	3.85
431.764	3.83
432.12	3.83
432.476	3.84
432.832	3.87
433.189	3.85
433.545	3.86
433.901	3.85
434.257	3.85
434.613	3.85
434.969	3.86
435.325	3.84
435.681	3.84
436.036	3.86
436.392	3.87
436.748	3.88
437.104	3.88
437.459	3.87
437.815	3.88
438.171	3.88
438.526	3.86
438.882	3.87
439.237	3.88
439.593	3.89
439.948	3.88
440.304	3.85
440.659	3.87
441.014	3.85
441.369	3.85
441.725	3.85
442.08	3.86
442.435	3.85
442.79	3.84
443.145	3.84
443.5	3.82
443.855	3.82
444.21	3.82
444.565	3.81
444.92	3.82
445.275	3.83
445.629	3.81
445.984	3.82
446.339	3.81
446.693	3.81
447.048	3.79
447.403	3.8
447.757	3.79
448.112	3.79
448.466	3.8
448.82	3.81
449.175	3.81
449.529	3.82
449.883	3.81
450.238	3.81
450.592	3.79
450.946	3.79
451.3	3.8
451.654	3.78
452.008	3.78
452.362	3.77
452.716	3.76
453.07	3.77
453.424	3.77
453.778	3.78
454.132	3.79
454.486	3.8
454.839	3.8
455.193	3.8
455.547	3.81
455.9	3.8
456.254	3.8
456.607	3.8
456.961	3.77
457.314	3.77
457.668	3.78
458.021	3.8
458.375	3.8
458.728	3.8
459.081	3.83
459.434	3.82
459.787	3.79
460.141	3.8
460.494	3.8
460.847	3.79
461.2	3.78
461.553	3.78
461.906	3.78
462.259	3.76
462.611	3.79
462.964	3.8
463.317	3.79
463.67	3.81
464.022	3.81
464.375	3.83
464.728	3.85
465.08	3.85
465.433	3.84
465.785	3.85
466.138	3.86
466.49	3.86
466.843	3.89
467.195	3.94
467.547	3.96
467.899	3.97
468.252	3.98
468.604	3.98
468.956	3.97
469.308	3.97
469.66	3.98
470.012	3.95
470.364	3.96
470.716	3.97
471.068	3.95
471.42	3.97
471.772	3.99
472.123	3.99
472.475	4
472.827	4
473.178	3.98
473.53	3.97
473.882	3.95
474.233	3.93
474.585	3.95
474.936	3.95
475.288	3.92
475.639	3.93
475.99	3.91
476.342	3.92
476.693	3.94
477.044	3.95
477.395	3.95
477.746	3.91
478.097	3.9
478.448	3.89
478.8	3.86
479.15	3.84
479.501	3.85
479.852	3.86
480.203	3.88
480.554	3.91
480.905	3.92
481.255	3.93
481.606	3.94
481.957	3.93
482.307	3.94
482.658	3.95
483.009	3.96
483.359	3.97
483.709	3.97
484.06	3.97
484.41	3.96
484.761	3.98
485.111	3.99
485.461	3.99
485.811	3.99
486.162	4
486.512	4.01
486.862	4
487.212	4
487.562	3.99
487.912	3.99
488.262	3.98
488.612	3.99
488.961	3.99
489.311	3.98
489.661	3.97
490.011	3.97
490.36	3.95
490.71	3.95
491.06	3.95
491.409	3.95
491.759	3.95
492.108	3.93
492.458	3.93
492.807	3.94
493.157	3.95
493.506	3.94
493.855	3.95
494.204	3.94
494.554	3.94
494.903	3.95
495.252	3.95
495.601	3.98
495.95	3.98
496.299	3.98
496.648	3.99
496.997	4
497.346	4.02
497.695	4.03
498.043	4.06
498.392	4.06
498.741	4.06
499.09	4.06
499.438	4.08
499.787	4.08
500.135	4.08
500.484	4.07
500.832	4.07
501.181	4.07
501.529	4.1
501.878	4.12
502.226	4.1
502.574	4.1
502.923	4.08
503.271	4.05
503.619	4.09
503.967	4.08
504.315	4.08
504.663	4.07
505.011	4.08
505.359	4.06
505.707	4.08
506.055	4.09
506.403	4.11
506.751	4.11
507.098	4.12
507.446	4.13
507.794	4.16
508.141	4.17
508.489	4.16
508.837	4.15
509.184	4.16
509.531	4.17
509.879	4.17
510.226	4.16
510.574	4.19
510.921	4.18
511.268	4.17
511.616	4.19
511.963	4.21
512.31	4.22
512.657	4.23
513.004	4.22
513.351	4.22
513.698	4.23
514.045	4.22
514.392	4.24
514.739	4.24
515.086	4.23
515.432	4.26
515.779	4.28
516.126	4.29
516.473	4.29
516.819	4.3
517.166	4.32
517.512	4.33
517.859	4.33
518.205	4.32
518.552	4.34
518.898	4.34
519.245	4.34
519.591	4.35
519.937	4.35
520.283	4.35
520.629	4.37
520.976	4.36
521.322	4.38
521.668	4.36
522.014	4.37
522.36	4.37
522.706	4.38
523.052	4.39
523.398	4.38
523.743	4.39
524.089	4.39
524.435	4.4
524.781	4.42
525.126	4.43
525.472	4.45
525.817	4.45
526.163	4.45
526.509	4.46
526.854	4.48
527.199	4.5
527.545	4.51
527.89	4.51
528.235	4.52
528.581	4.53
528.926	4.53
529.271	4.54
529.616	4.54
529.961	4.53
530.306	4.53
530.651	4.55
530.996	4.57
531.341	4.57
531.686	4.58
532.031	4.58
532.376	4.57
532.721	4.56
533.065	4.56
533.41	4.56
533.755	4.57
534.099	4.55
534.444	4.55
534.788	4.55
535.133	4.54
535.477	4.53
535.822	4.53
536.166	4.54
536.51	4.54
536.855	4.55
537.199	4.56
537.543	4.57
537.887	4.57
538.231	4.54
538.576	4.56
538.92	4.57
539.264	4.58
539.608	4.61
539.951	4.61
540.295	4.64
540.639	4.66
540.983	4.66
541.327	4.66
541.671	4.67
542.014	4.68
542.358	4.69
542.701	4.73
543.045	4.72
543.389	4.73
543.732	4.74
544.075	4.75
544.419	4.77
544.762	4.77
545.105	4.78
545.449	4.81
545.792	4.81
546.135	4.81
546.478	4.81
546.821	4.8
547.165	4.8
547.508	4.78
547.851	4.78
548.194	4.77
548.536	4.78
548.879	4.78
549.222	4.74
549.565	4.73
549.908	4.7
550.25	4.71
550.593	4.71
550.936	4.72
551.278	4.68
551.621	4.67
551.963	4.65
552.306	4.62
552.648	4.61
552.991	4.6
553.333	4.58
553.675	4.6
554.017	4.61
554.36	4.64
554.702	4.63
555.044	4.65
555.386	4.69
555.728	4.66
556.07	4.66
556.412	4.7
556.754	4.71
557.096	4.71
557.438	4.72
557.78	4.71
558.121	4.68
558.463	4.7
558.805	4.72
559.147	4.77
559.488	4.76
559.83	4.73
560.171	4.72
560.513	4.72
560.854	4.68
561.196	4.69
561.537	4.72
561.878	4.75
562.22	4.72
562.561	4.71
562.902	4.76
563.243	4.74
563.584	4.75
563.925	4.81
564.266	4.8
564.607	4.77
564.948	4.79
565.289	4.8
565.63	4.82
565.971	4.79
566.312	4.74
566.653	4.77
566.993	4.85
567.334	4.85
567.675	4.87
568.015	4.87
568.356	4.85
568.696	4.84
569.037	4.81
569.377	4.81
569.718	4.81
570.058	4.78
570.398	4.81
570.739	4.77
571.079	4.73
571.419	4.71
571.759	4.72
572.099	4.73
572.439	4.73
572.779	4.72
573.119	4.73
573.459	4.75
573.799	4.73
574.139	4.71
574.479	4.71
574.819	4.71
575.158	4.73
575.498	4.74
575.838	4.71
576.177	4.71
576.517	4.71
576.856	4.7
577.196	4.72
577.535	4.7
577.875	4.73
578.214	4.73
578.553	4.76
578.893	4.76
579.232	4.75
579.571	4.76
579.91	4.77
580.25	4.75
580.589	4.78
580.928	4.78
581.267	4.76
581.606	4.76
581.945	4.76
582.283	4.74
582.622	4.74
582.961	4.75
583.3	4.75
583.639	4.78
583.977	4.79
584.316	4.79
584.654	4.82
584.993	4.8
585.332	4.89
585.67	4.92
586.008	4.93
586.347	4.93
586.685	4.9
587.024	4.93
587.362	4.99
587.7	4.97
588.038	5.04
588.376	5.07
588.715	5.06
589.053	5.05
589.391	5.09
589.729	5.09
590.067	5.13
590.404	5.14
590.742	5.12
591.08	5.11
591.418	5.1
591.756	5.06
592.093	5.09
592.431	5.03
592.769	5
593.106	4.99
593.444	5.02
593.781	5.04
594.119	5.01
594.456	4.96
594.793	4.97
595.131	4.94
595.468	4.96
595.805	5
596.143	4.99
596.48	4.99
596.817	4.98
597.154	4.96
597.491	4.99
597.828	5.01
598.165	5.05
598.502	5.07
598.839	5.07
599.176	5.07
599.512	5.07
599.849	5.06
600.186	5.08
600.523	5.08
600.859	5.13
601.196	5.14
601.532	5.16
601.869	5.16
602.205	5.1
602.542	5.05
602.878	5.09
603.215	5.13
603.551	5.15
603.887	5.13
604.223	5.12
604.56	5.12
604.896	5.09
605.232	5.07
605.568	5.06
605.904	5.05
606.24	5.05
606.576	5.08
606.912	5.09
607.248	5.11
607.583	5.09
607.919	5.06
608.255	5.07
608.591	5.07
608.926	5.07
609.262	5.12
609.597	5.17
609.933	5.12
610.268	5.13
610.604	5.11
610.939	5.15
611.275	5.17
611.61	5.14
611.945	5.17
612.281	5.16
612.616	5.17
612.951	5.23
613.286	5.22
613.621	5.24
613.956	5.28
614.291	5.26
614.626	5.27
614.961	5.24
615.296	5.29
615.631	5.31
615.966	5.35
616.3	5.36
616.635	5.3
616.97	5.34
617.304	5.24
617.639	5.21
617.973	5.14
618.308	5.19
618.642	5.22
618.977	5.19
619.311	5.18
619.646	5.23
619.98	5.18
620.314	5.18
620.648	5.12
620.983	5.05
621.317	5.03
621.651	5.03
621.985	5.04
622.319	4.92
622.653	4.89
622.987	4.85
623.321	4.86
623.655	4.88
623.988	4.88
624.322	4.98
624.656	5.01
624.99	5.06
625.323	4.99
625.657	4.97
625.99	4.98
626.324	5
626.657	4.95
626.991	4.98
627.324	5.01
627.658	5.05
627.991	5.16
628.324	5.14
628.657	5.16
628.991	5.17
629.324	5.25
629.657	5.25
629.99	5.26
630.323	5.23
630.656	5.21
630.989	5.18
631.322	5.12
631.655	5.08
631.987	5.04
632.32	5.11
632.653	5.13
632.986	5.12
633.318	5.14
633.651	5.15
633.984	5.12
634.316	5.06
634.649	5.07
634.981	4.98
635.313	4.99
635.646	5.02
635.978	5.07
636.31	5
636.643	5.03
636.975	5.05
637.307	5.09
637.639	5.12
637.971	5.09
638.303	5.1
638.635	5.1
638.967	5.16
639.299	5.14
639.631	5.1
639.963	5.14
640.295	5.18
640.626	5.21
640.958	5.24
641.29	5.19
641.621	5.17
641.953	5.14
642.285	5.17
642.616	5.14
642.948	5.1
643.279	5.12
643.61	5.18
643.942	5.16
644.273	5.11
644.604	5.07
644.936	5.09
645.267	5.16
645.598	5.22
645.929	5.16
646.26	5.07
646.591	5.14
646.922	5.15
647.253	5.05
647.584	5
647.915	4.99
648.245	5.09
648.576	5.01
648.907	5.06
649.238	4.99
649.568	4.97
649.899	4.93
650.229	4.97
650.56	4.96
650.89	5.03
651.221	5.1
651.551	5.11
651.882	5.16
652.212	5.14
652.542	5.05
652.872	5.16
653.203	5.28
653.533	5.26
653.863	5.24
654.193	5.25
654.523	5.34
654.853	5.35
655.183	5.34
655.513	5.42
655.843	5.44
656.172	5.52
656.502	5.53
656.832	5.65
657.162	5.68
657.491	5.73
657.821	5.72
658.15	5.73
658.48	5.73
658.809	5.67
659.139	5.68
659.468	5.72
659.798	5.72
660.127	5.66
660.456	5.62
660.785	5.65
661.115	5.71
661.444	5.69
661.773	5.71
662.102	5.72
662.431	5.69
662.76	5.69
663.089	5.69
663.418	5.73
663.747	5.73
664.076	5.62
664.404	5.56
664.733	5.56
665.062	5.56
665.39	5.59
665.719	5.66
666.048	5.67
666.376	5.72
666.705	5.74
667.033	5.78
667.362	5.79
667.69	5.8
668.018	5.85
668.347	5.8
668.675	5.72
669.003	5.68
669.331	5.76
669.659	5.68
669.987	5.7
670.315	5.65
670.643	5.54
670.971	5.7
671.299	5.72
671.627	5.64
671.955	5.6
672.283	5.59
672.61	5.49
672.938	5.49
673.266	5.45
673.593	5.35
673.921	5.39
674.249	5.42
674.576	5.47
674.904	5.38
675.231	5.44
675.558	5.55
675.886	5.63
676.213	5.6
676.54	5.68
676.867	5.62
677.195	5.7
677.522	5.69
677.849	5.71
678.176	5.7
678.503	5.69
678.83	5.65
679.157	5.63
679.484	5.7
679.81	5.67
680.137	5.81
680.464	5.79
680.791	5.75
681.117	5.77
681.444	5.8
681.771	5.89
682.097	5.98
682.424	5.87
682.75	5.81
683.077	5.75
683.403	5.76
683.729	5.82
684.056	5.8
684.382	5.93
684.708	5.86
685.034	5.76
685.36	5.8
685.686	5.93
686.012	6.06
686.339	6.06
686.664	6.03
686.99	5.83
687.316	5.84
687.642	5.92
687.968	5.94
688.294	5.81
688.619	5.84
688.945	5.68
689.271	5.72
689.596	5.78
689.922	5.89
690.247	5.88
690.573	5.87
690.898	5.84
691.224	5.67
691.549	5.84
691.874	5.95
692.2	5.97
692.525	5.89
692.85	5.85
693.175	5.94
693.5	5.88
693.825	6.06
694.15	6.14
694.475	6.18
694.8	6.11
695.125	6.17
695.45	6.05
695.775	6.12
696.099	6.27
696.424	6.27
696.749	6.24
697.073	6.19
697.398	6.21
697.723	6.3
698.047	6.36
698.372	6.22
698.696	6.28
699.02	6.27
699.345	6.29
699.669	6.3
699.993	6.31
700.318	6.46
700.642	6.46
700.966	6.48
701.29	6.51
701.614	6.61
701.938	6.57
702.262	6.55
702.586	6.57
702.91	6.48
703.234	6.4
703.557	6.48
703.881	6.6
704.205	6.69
704.529	6.62
704.852	6.59
705.176	6.68
705.499	6.5
705.823	6.61
706.146	6.6
706.47	6.57
706.793	6.55
707.117	6.61
707.44	6.69
707.763	6.8
708.086	6.54
708.409	6.43
708.733	6.41
709.056	6.64
709.379	6.68
709.702	6.79
710.025	6.93
710.348	6.75
710.671	6.66
710.993	6.47
711.316	6.52
711.639	6.55
711.962	6.52
712.284	6.66
712.607	6.64
712.93	6.64
713.252	6.62
713.575	6.53
713.897	6.41
714.22	6.32
714.542	6.22
714.864	6.22
715.187	6.07
715.509	6.11
715.831	6.11
716.153	6.01
716.475	6
716.798	5.87
717.12	5.89
717.442	5.97
717.764	6.04
718.085	6.01
718.407	6
718.729	5.92
719.051	5.81
719.373	5.76
719.695	5.8
720.016	5.85
720.338	5.8
720.659	5.81
720.981	5.77
721.302	5.96
721.624	6.04
721.945	6.29
722.267	6.39
722.588	6.3
722.909	6.22
723.231	6.08
723.552	6.2
723.873	6.24
724.194	6.22
724.515	6.34
724.836	6.29
725.157	6.5
725.478	6.61
725.799	6.79
726.12	7
726.441	6.95
726.762	6.86
727.083	6.88
727.403	7.04
727.724	7.01
728.045	6.8
728.365	6.8
728.686	6.86
729.006	6.64
729.327	6.62
729.647	6.82
729.967	6.74
730.288	6.66
730.608	6.7
730.928	6.83
731.249	6.76
731.569	6.73
731.889	6.58
732.209	6.4
732.529	6.31
732.849	6.05
733.169	6.12
733.489	5.97
733.809	5.92
734.129	5.76
734.448	5.85
734.768	5.64
735.088	5.76
735.408	5.82
735.727	6
736.047	5.89
736.366	5.75
736.686	6.1
737.005	6.32
737.325	6.32
737.644	6.22
737.963	6.14
738.283	6.31
738.602	6.19
738.921	6.47
739.24	6.24
739.56	6.36
739.879	6.17
740.198	6.2
740.517	6.45
740.836	6.56
741.155	6.71
741.473	7.06
741.792	7.05
742.111	6.94
742.43	7.2
742.748	7.21
743.067	7.4
743.386	6.96
743.704	6.67
744.023	6.71
744.341	6.62
744.66	6.64
744.978	6.39
745.297	6.53
745.615	6.49
745.933	6.95
746.252	7.12
746.57	7.45
746.888	7.72
747.206	7.77
747.524	7.89
747.842	7.73
748.16	7.72
748.478	7.64
748.796	7.54
749.114	7.38
749.432	7.31
749.749	7.07
750.067	7.45
750.385	7.53
750.703	7.42
751.02	7.7
751.338	7.67
751.655	7.82
751.973	7.88
752.29	7.71
752.608	7.58
752.925	7.62
753.242	7.51
753.56	7.29
753.877	6.95
754.194	7.3
754.511	7.06
754.828	6.87
755.145	7.14
755.462	7.22
755.779	7.2
756.096	7.52
756.413	7.92
756.73	7.84
757.047	8.04
757.364	8.19
757.68	8.1
757.997	8.11
758.314	8.33
758.63	8.13
758.947	8.29
759.264	8.2
759.58	7.92
759.896	7.82
760.213	8.04
760.529	8.13
760.846	7.77
761.162	7.94
761.478	7.91
761.794	8.05
762.11	7.98
762.426	7.95
762.743	7.78
763.059	7.62
763.375	7.61
763.69	7.54
764.006	7.53
764.322	7.62
764.638	7.87
764.954	7.93
765.27	8.05
765.585	8.17
765.901	8.23
766.216	8.19
766.532	8.22
766.848	8.08
767.163	8.3
767.478	8.31
767.794	8.21
768.109	8.38
768.424	8.02
768.74	8.01
769.055	7.86
769.37	7.98
769.685	7.91
770	7.67
770.315	8.08
770.63	8.38
770.945	8.48
771.26	8.15
771.575	7.45
771.89	7.71
772.205	7.57
772.52	7.47
772.834	7.41
773.149	7.61
773.464	7.92
773.778	7.76
774.093	8.03
774.407	8.35
774.722	8.61
775.036	8.7
775.351	9.36
775.665	9.85
775.979	9.88
776.293	9.93
776.608	10.33
776.922	9.92
777.236	9.87
777.55	9.72
777.864	9.9
778.178	10.28
778.492	10.04
778.806	10.1
779.12	10.42
779.434	10.83
779.747	10.91
780.061	10.49
780.375	10.76
780.689	10.24
781.002	9.74
781.316	9.16
781.629	9.59
781.943	9.23
782.256	8.78
782.57	9.14
782.883	9.26
783.196	9.33
783.51	9.68
783.823	9.6
784.136	9.18
784.449	9.1
784.762	9.82
785.075	10.2
785.388	10.76
785.701	10.8
786.014	10.89
786.327	11.05
786.64	12.1
786.953	11.7
787.266	12.5
787.578	12.71
787.891	12.81
788.204	12.61
788.516	12.43
788.829	12.5
789.141	12.21
789.454	12.4
789.766	12.7
790.079	12.23
790.391	12.17
790.703	12.53
791.016	12.32
791.328	11.76
791.64	11.73
791.952	11.58
792.264	11.63
792.576	11.63
792.888	11.14
793.2	10.44
793.512	10.58
793.824	9.14
794.136	9.7
794.448	9.81
794.76	9.47
795.071	9.42
795.383	8.95
795.695	8.89
796.006	8.7
796.318	8.42
796.629	8.56
796.941	8.61
797.252	8.42
797.564	8.81
797.875	8.64
798.186	8.5
798.497	8.03
798.809	7.51
799.12	7.42
799.431	7.45
799.742	7.67
800.053	7.73
800.364	9.08
800.675	8.15
800.986	8.63
801.297	8.36
801.608	8.03
801.918	9.58
802.229	9.58
802.54	9.41
802.851	9.43
803.161	9.73
803.472	9.89
803.782	10.35
804.093	10.38
804.403	10.23
804.714	10.74
805.024	10.92
805.334	11.54
805.645	11.47
805.955	11.94
806.265	12.02
806.575	12.36
806.885	11.83
807.195	12.81
807.505	12.46
807.815	12.67
808.125	13.64
808.435	12.97
808.745	12.8
809.055	12.73
809.365	12.51
809.674	12.37
809.984	12.25
810.294	12.25
810.603	11.93
810.913	12.41
811.222	12.02
811.532	12.06
811.841	12.53
812.151	12.35
812.46	12.04
812.769	11.8
813.079	11.42
813.388	11.24
813.697	10.37
814.006	10.63
814.315	10.79
814.624	11.14
814.933	11.08
815.242	11.47
815.551	11.75
815.86	12.5
816.169	11.35
816.478	11.3
816.786	11.06
817.095	11.05
817.404	11.43
817.712	11.4
818.021	11.33
818.33	10.17
818.638	10.19
818.947	10.32
819.255	10.28
819.563	10.37
819.872	10.63
820.18	10.66
820.488	10.42
820.796	10.66
821.105	10.57
821.413	10.32
821.721	10.52
822.029	10.4
822.337	10.23
822.645	10.57
822.953	10.69
823.26	10.67
823.568	10.78
823.876	10.69
824.184	10.71
824.491	10.66
824.799	10.9
825.107	10.9
825.414	10.84
825.722	10.84
826.029	10.76
826.337	10.67
826.644	10.88
826.951	11.08
827.259	11.02
827.566	10.85
827.873	11.06
828.18	10.92
828.488	11.06
828.795	11.12
829.102	11.06
829.409	10.68
829.716	10.59
830.023	10.97
830.329	11.07
830.636	11.01
830.943	10.99
831.25	11.19
831.557	11.41
831.863	11.45
832.17	11.61
832.476	11.76
832.783	11.75
833.089	11.44
833.396	11.28
833.702	11.68
834.009	11.77
834.315	12.08
834.621	12.03
834.928	12.13
835.234	12.16
835.54	12.13
835.846	12.82
836.152	13.01
836.458	12.18
836.764	12.37
837.07	12.24
837.376	12.28
837.682	11.67
837.988	11.36
838.293	12.06
838.599	11.88
838.905	11.96
839.211	12.14
839.516	12.65
839.822	12.87
840.127	11.96
840.433	12.56
840.738	12.05
841.044	11.65
841.349	11.97
841.654	12.01
841.959	11.88
842.265	11.23
842.57	11.05
842.875	10.91
843.18	10.18
843.485	10.31
843.79	9.1
844.095	9.49
844.4	10.57
844.705	10.04
845.01	10.32
845.315	10.73
845.619	10.86
845.924	10.28
846.229	10.21
846.533	10.61
846.838	10.48
847.142	10.32
847.447	9.8
847.751	10.12
848.056	8.74
848.36	7.13
848.664	7.82
848.969	7.47
849.273	7.94
849.577	8.57
849.881	8.8
850.185	11.61
850.489	10.91
850.794	11.08
851.097	9.4
851.401	7.96
851.705	8.83
852.009	8
852.313	7.69
852.617	8.2
852.92	9.57
853.224	7.55
853.528	8.41
853.831	10.4
854.135	9.65
854.438	9.51
854.742	13.02
855.045	10.82
855.349	11.07
855.652	10.34
855.955	10.89
856.259	8.5
856.562	8.51
856.865	9.59
857.168	10.28
857.471	11.26
857.774	12.12
858.077	9.8
858.38	12.83
858.683	13.24
858.986	14.45
859.289	12.94
859.592	16.23
859.894	15.87
860.197	17.67
860.5	17.98
860.802	22.86
861.105	22.61
861.407	19.82
861.71	19.28
862.012	20.12
862.315	17.39
862.617	20.16
862.919	18.94
863.222	18.71
863.524	14.04
863.826	13.92
864.128	16.45
864.43	16.41
864.732	13.1
865.034	11.71
865.336	10.57
865.638	10.69
865.94	8.35
866.242	6.4
866.544	5.56
866.846	4.77
867.147	3.59
867.449	2.61
867.751	4.81
868.052	5.47
868.354	5.81
868.655	6.89
868.957	5.17
869.258	3.47
869.56	3.23
869.861	2.96
870.162	1.36
870.463	0.36
870.765	2.03
871.066	2.86
871.367	3.98
871.668	4.5
871.969	4.42
872.27	6.63
872.571	7.78
872.872	6.76
873.173	6.77
873.473	4.97
873.774	5.38
874.075	10.13
874.376	9.91
874.676	8.47
874.977	9.89
875.277	10.47
875.578	11.88
875.878	12.08
876.179	15.33
876.479	17.49
876.78	16.31
877.08	15.64
877.38	16.94
877.68	17.84
877.981	15.34
878.281	16.72
878.581	12.66
