Data from BA17729_Reflection_00013.txt Node
Date: Tue Nov 19 11:51:01 EST 2019
User: vgr7
Spectrometer: USB2G7710
Scans to average: 3
Trigger mode: 4
Integration Time (sec): 2.000000E-2
Electric dark correction enabled: true
Boxcar width: 10
XAxis mode: Wavelengths
Number of Pixels in Spectrum: 2048
>>>>>Begin Spectral Data<<<<<
177.721	29.99
178.105	-6.95
178.488	26.65
178.871	41.18
179.254	-48.78
179.636	59.54
180.019	-37.15
180.402	966.67
180.785	149.3
181.168	-67.36
181.55	19.86
181.933	18
182.316	67.09
182.698	88.8
183.081	152.83
183.463	186.4
183.846	228.43
184.228	187.11
184.611	124.85
184.993	283.72
185.376	4011.76
185.758	90.49
186.14	73.39
186.522	56.4
186.904	101.1
187.287	275.39
187.669	224
188.051	3690.91
188.433	740.85
188.815	506.04
189.197	2089.36
189.579	-352.57
189.961	-304.15
190.342	-249.53
190.724	2025.53
191.106	-795.6
191.488	-647.71
191.869	-59.63
192.251	-77.52
192.633	49.2
193.014	115.34
193.396	244.17
193.777	18.21
194.159	29.52
194.54	40.31
194.922	86.97
195.303	46.4
195.684	7.27
196.065	10.42
196.447	-3.21
196.828	-2.17
197.209	27.78
197.59	33.93
197.971	15.12
198.352	27.61
198.733	27.58
199.114	30.54
199.495	41.43
199.876	16.22
200.257	6.99
200.638	-4.09
201.018	-11.62
201.399	-12.84
201.78	-8.49
202.16	-10.36
202.541	-7.92
202.922	-5.47
203.302	-1.86
203.683	5.25
204.063	8.67
204.444	36.87
204.824	56.46
205.204	65.36
205.585	71.02
205.965	72.98
206.345	82.33
206.725	80.1
207.106	66.75
207.486	48.1
207.866	57.31
208.246	62.42
208.626	48.43
209.006	73.57
209.386	75.81
209.766	46.56
210.145	32.93
210.525	20.64
210.905	64.48
211.285	60.02
211.664	70.38
212.044	70.08
212.424	42.5
212.803	37
213.183	21.09
213.562	30.66
213.942	17.45
214.321	24.81
214.701	13.12
215.08	-26.02
215.459	-0.42
215.838	-11.42
216.218	-17.52
216.597	8.13
216.976	2.41
217.355	7.13
217.734	-5.81
218.113	17.87
218.492	21.61
218.871	17.75
219.25	17.45
219.629	-17.36
220.008	-52.59
220.387	-23.36
220.766	10.37
221.144	25.13
221.523	-5.51
221.902	5.33
222.28	14.23
222.659	20.36
223.037	36.67
223.416	38.39
223.794	61.54
224.173	52.65
224.551	53.62
224.929	28.57
225.308	31.81
225.686	33.69
226.064	27.26
226.442	30.19
226.821	22.5
227.199	24.07
227.577	30.81
227.955	24.47
228.333	21.62
228.711	26.5
229.089	23.94
229.467	25.34
229.845	23.64
230.222	19.75
230.6	18.33
230.978	19.68
231.356	18.17
231.733	15.68
232.111	16.02
232.488	16.09
232.866	19.8
233.243	18.42
233.621	19.76
233.998	20.6
234.376	18.1
234.753	17.33
235.13	14.22
235.508	13.56
235.885	14.93
236.262	15.81
236.639	10.67
237.016	10.57
237.393	10.63
237.77	12.53
238.147	12.75
238.524	12.34
238.901	10.21
239.278	8.89
239.655	9.43
240.032	8.45
240.409	8.61
240.785	7.94
241.162	7.87
241.539	7.03
241.915	6.02
242.292	6.21
242.668	6.58
243.045	6.85
243.421	6.73
243.798	6.82
244.174	6.96
244.551	7.34
244.927	7.41
245.303	7.16
245.679	6.84
246.056	6.63
246.432	6.48
246.808	6.79
247.184	7
247.56	6.47
247.936	6.57
248.312	6.62
248.688	6.65
249.064	6.6
249.44	6.6
249.815	6.81
250.191	6.83
250.567	6.65
250.943	6.54
251.318	6.3
251.694	6.27
252.069	6
252.445	6.04
252.82	6.47
253.196	6.79
253.571	7.06
253.947	7.31
254.322	7.3
254.697	7.25
255.073	7.29
255.448	7.46
255.823	7.36
256.198	7.02
256.573	7.13
256.948	7.45
257.323	7.6
257.698	7.46
258.073	7.16
258.448	7.29
258.823	7.07
259.198	7.02
259.573	6.91
259.948	6.93
260.322	6.7
260.697	6.5
261.072	6.28
261.446	6.23
261.821	6.21
262.195	6.19
262.57	6.19
262.944	6.23
263.319	6.13
263.693	6.05
264.067	6.03
264.442	5.83
264.816	5.37
265.19	5.26
265.564	5.12
265.938	5.37
266.313	5.17
266.687	5.46
267.061	5.6
267.435	5.56
267.809	5.32
268.183	5.39
268.556	5.18
268.93	5.28
269.304	4.95
269.678	4.81
270.051	4.95
270.425	4.81
270.799	4.5
271.172	4.72
271.546	5.01
271.919	4.97
272.293	5.14
272.666	5.27
273.04	5.2
273.413	5.19
273.787	5.1
274.16	5.19
274.533	5.21
274.906	5.28
275.279	5.3
275.653	5.42
276.026	5.53
276.399	5.68
276.772	5.77
277.145	6.01
277.518	6.14
277.891	6.19
278.263	6.28
278.636	6.69
279.009	6.55
279.382	6.27
279.755	6.37
280.127	6.42
280.5	6.35
280.872	6.35
281.245	6.39
281.617	6.43
281.99	6.34
282.362	6.14
282.735	5.78
283.107	5.87
283.479	5.94
283.852	5.93
284.224	5.84
284.596	5.66
284.968	5.65
285.34	5.73
285.713	5.76
286.085	5.65
286.457	5.48
286.829	5.66
287.201	5.73
287.572	5.68
287.944	5.6
288.316	5.68
288.688	5.77
289.06	5.79
289.431	5.84
289.803	5.86
290.175	6.02
290.546	6.2
290.918	6.15
291.289	5.98
291.661	5.94
292.032	5.99
292.403	6.12
292.775	6.13
293.146	6.07
293.517	6.06
293.889	6.2
294.26	6.26
294.631	6.23
295.002	6.28
295.373	6.37
295.744	6.38
296.115	6.53
296.486	6.54
296.857	6.62
297.228	6.59
297.599	6.62
297.97	6.6
298.34	6.77
298.711	6.84
299.082	7.15
299.452	7.17
299.823	7.15
300.194	7.27
300.564	7.12
300.935	7.1
301.305	6.99
301.676	7.03
302.046	7.02
302.416	7.08
302.787	7.13
303.157	7.04
303.527	7.09
303.897	6.99
304.267	6.9
304.637	6.87
305.008	7.03
305.378	7.12
305.748	7.06
306.117	7.03
306.487	7.1
306.857	7.05
307.227	7.22
307.597	7.34
307.967	7.25
308.336	7.34
308.706	7.3
309.076	7.45
309.445	7.56
309.815	7.62
310.184	7.58
310.554	7.53
310.923	7.49
311.293	7.44
311.662	7.45
312.031	7.55
312.401	7.41
312.77	7.44
313.139	7.46
313.508	7.45
313.877	7.35
314.246	7.16
314.616	7.18
314.985	7
315.353	7.02
315.722	7.09
316.091	7.21
316.46	7.29
316.829	7.25
317.198	7.31
317.567	7.27
317.935	7.46
318.304	7.62
318.672	7.79
319.041	8
319.41	8.05
319.778	7.92
320.147	8.23
320.515	8.12
320.883	7.98
321.252	8
321.62	8.05
321.988	8.3
322.357	8.27
322.725	8.31
323.093	8.3
323.461	8.31
323.829	8.31
324.197	8.31
324.565	8.3
324.933	8.18
325.301	8.2
325.669	7.95
326.037	7.92
326.405	7.94
326.772	7.91
327.14	7.9
327.508	8.08
327.875	8.01
328.243	8.03
328.61	8.13
328.978	8.22
329.346	8.35
329.713	8.38
330.08	8.57
330.448	8.73
330.815	8.78
331.182	8.76
331.55	8.91
331.917	8.96
332.284	9.03
332.651	9.07
333.018	9.04
333.385	9.11
333.752	9.04
334.119	9.09
334.486	9
334.853	8.92
335.22	9.02
335.587	9.11
335.954	9.06
336.32	8.98
336.687	9.08
337.054	9.15
337.42	9.12
337.787	8.83
338.153	8.85
338.52	8.91
338.886	8.91
339.253	8.8
339.619	8.83
339.986	8.72
340.352	8.67
340.718	8.79
341.084	8.8
341.451	8.87
341.817	8.9
342.183	8.79
342.549	8.91
342.915	8.8
343.281	8.75
343.647	8.81
344.013	8.97
344.379	8.93
344.745	8.82
345.11	8.86
345.476	8.99
345.842	8.72
346.208	8.71
346.573	8.75
346.939	8.75
347.304	8.69
347.67	8.83
348.035	8.89
348.401	8.87
348.766	8.82
349.132	8.85
349.497	8.87
349.862	8.93
350.228	8.89
350.593	8.94
350.958	9.05
351.323	8.96
351.688	8.9
352.053	8.96
352.418	9.13
352.783	9.08
353.148	8.96
353.513	9.08
353.878	9.11
354.243	8.93
354.608	9.04
354.972	9.02
355.337	8.99
355.702	8.97
356.066	8.97
356.431	9
356.795	8.97
357.16	8.9
357.524	8.92
357.889	8.88
358.253	8.81
358.618	8.72
358.982	8.79
359.346	8.82
359.71	8.73
360.075	8.64
360.439	8.61
360.803	8.68
361.167	8.62
361.531	8.58
361.895	8.66
362.259	8.52
362.623	8.5
362.987	8.44
363.351	8.4
363.714	8.4
364.078	8.39
364.442	8.33
364.806	8.31
365.169	8.32
365.533	8.3
365.896	8.31
366.26	8.29
366.623	8.26
366.987	8.14
367.35	8.17
367.714	8.12
368.077	8.07
368.44	8.02
368.803	8.03
369.167	7.98
369.53	7.93
369.893	8.03
370.256	8.13
370.619	8.13
370.982	8.05
371.345	7.97
371.708	7.94
372.071	7.94
372.434	7.9
372.797	7.85
373.159	7.77
373.522	7.72
373.885	7.7
374.247	7.64
374.61	7.6
374.973	7.48
375.335	7.48
375.698	7.44
376.06	7.4
376.423	7.41
376.785	7.39
377.147	7.35
377.51	7.26
377.872	7.23
378.234	7.2
378.596	7.22
378.958	7.2
379.321	7.18
379.683	7.15
380.045	7.16
380.407	7.15
380.769	7.15
381.13	7.13
381.492	7.04
381.854	6.99
382.216	7.03
382.578	7.1
382.939	7.05
383.301	7.05
383.663	7
384.024	6.95
384.386	6.9
384.747	6.9
385.109	6.9
385.47	6.8
385.832	6.74
386.193	6.68
386.554	6.65
386.916	6.63
387.277	6.59
387.638	6.53
387.999	6.47
388.36	6.46
388.721	6.43
389.082	6.48
389.443	6.46
389.804	6.44
390.165	6.33
390.526	6.35
390.887	6.33
391.248	6.34
391.609	6.33
391.969	6.28
392.33	6.24
392.691	6.25
393.051	6.24
393.412	6.25
393.772	6.24
394.133	6.24
394.493	6.18
394.854	6.16
395.214	6.11
395.574	6.09
395.935	6.06
396.295	6.03
396.655	5.93
397.015	5.91
397.376	5.84
397.736	5.79
398.096	5.73
398.456	5.72
398.816	5.68
399.176	5.62
399.535	5.61
399.895	5.63
400.255	5.52
400.615	5.51
400.975	5.49
401.334	5.48
401.694	5.44
402.054	5.49
402.413	5.49
402.773	5.47
403.132	5.44
403.492	5.44
403.851	5.41
404.211	5.45
404.57	5.42
404.929	5.43
405.288	5.45
405.648	5.41
406.007	5.36
406.366	5.38
406.725	5.42
407.084	5.39
407.443	5.33
407.802	5.35
408.161	5.33
408.52	5.3
408.879	5.27
409.238	5.27
409.596	5.21
409.955	5.18
410.314	5.16
410.673	5.17
411.031	5.12
411.39	5.14
411.748	5.13
412.107	5.15
412.465	5.12
412.824	5.12
413.182	5.09
413.54	5.11
413.899	5.05
414.257	5.01
414.615	5.02
414.974	5.03
415.332	5
415.69	5.01
416.048	4.98
416.406	4.97
416.764	4.94
417.122	4.91
417.48	4.93
417.838	4.95
418.195	4.94
418.553	4.97
418.911	4.93
419.269	4.91
419.626	4.89
419.984	4.88
420.342	4.87
420.699	4.86
421.057	4.87
421.414	4.89
421.772	4.88
422.129	4.85
422.486	4.84
422.844	4.85
423.201	4.84
423.558	4.85
423.915	4.87
424.273	4.86
424.63	4.88
424.987	4.86
425.344	4.85
425.701	4.83
426.058	4.79
426.415	4.8
426.772	4.79
427.128	4.79
427.485	4.8
427.842	4.8
428.199	4.82
428.555	4.8
428.912	4.79
429.269	4.79
429.625	4.81
429.982	4.79
430.338	4.79
430.695	4.76
431.051	4.77
431.407	4.75
431.764	4.76
432.12	4.74
432.476	4.75
432.832	4.73
433.189	4.74
433.545	4.75
433.901	4.75
434.257	4.75
434.613	4.74
434.969	4.74
435.325	4.75
435.681	4.74
436.036	4.72
436.392	4.71
436.748	4.7
437.104	4.68
437.459	4.69
437.815	4.71
438.171	4.71
438.526	4.69
438.882	4.69
439.237	4.68
439.593	4.69
439.948	4.69
440.304	4.69
440.659	4.67
441.014	4.66
441.369	4.67
441.725	4.65
442.08	4.66
442.435	4.63
442.79	4.62
443.145	4.6
443.5	4.59
443.855	4.6
444.21	4.59
444.565	4.57
444.92	4.56
445.275	4.55
445.629	4.55
445.984	4.55
446.339	4.54
446.693	4.53
447.048	4.51
447.403	4.49
447.757	4.46
448.112	4.5
448.466	4.5
448.82	4.48
449.175	4.49
449.529	4.49
449.883	4.49
450.238	4.47
450.592	4.5
450.946	4.5
451.3	4.49
451.654	4.5
452.008	4.52
452.362	4.51
452.716	4.49
453.07	4.47
453.424	4.45
453.778	4.47
454.132	4.46
454.486	4.49
454.839	4.51
455.193	4.54
455.547	4.51
455.9	4.51
456.254	4.54
456.607	4.55
456.961	4.54
457.314	4.56
457.668	4.56
458.021	4.55
458.375	4.54
458.728	4.55
459.081	4.55
459.434	4.55
459.787	4.58
460.141	4.58
460.494	4.59
460.847	4.61
461.2	4.62
461.553	4.64
461.906	4.64
462.259	4.63
462.611	4.65
462.964	4.66
463.317	4.64
463.67	4.62
464.022	4.63
464.375	4.61
464.728	4.64
465.08	4.64
465.433	4.66
465.785	4.71
466.138	4.72
466.49	4.72
466.843	4.74
467.195	4.74
467.547	4.73
467.899	4.74
468.252	4.76
468.604	4.75
468.956	4.75
469.308	4.74
469.66	4.76
470.012	4.75
470.364	4.74
470.716	4.78
471.068	4.81
471.42	4.79
471.772	4.82
472.123	4.79
472.475	4.82
472.827	4.82
473.178	4.78
473.53	4.76
473.882	4.76
474.233	4.75
474.585	4.74
474.936	4.75
475.288	4.76
475.639	4.74
475.99	4.73
476.342	4.71
476.693	4.72
477.044	4.71
477.395	4.7
477.746	4.7
478.097	4.68
478.448	4.65
478.8	4.65
479.15	4.63
479.501	4.65
479.852	4.63
480.203	4.64
480.554	4.66
480.905	4.66
481.255	4.67
481.606	4.67
481.957	4.68
482.307	4.69
482.658	4.69
483.009	4.68
483.359	4.69
483.709	4.7
484.06	4.7
484.41	4.71
484.761	4.73
485.111	4.74
485.461	4.75
485.811	4.75
486.162	4.75
486.512	4.77
486.862	4.77
487.212	4.78
487.562	4.77
487.912	4.78
488.262	4.79
488.612	4.79
488.961	4.8
489.311	4.79
489.661	4.81
490.011	4.82
490.36	4.83
490.71	4.85
491.06	4.86
491.409	4.86
491.759	4.87
492.108	4.88
492.458	4.87
492.807	4.87
493.157	4.9
493.506	4.93
493.855	4.94
494.204	4.97
494.554	5
494.903	5.02
495.252	5.03
495.601	5.06
495.95	5.08
496.299	5.1
496.648	5.13
496.997	5.15
497.346	5.18
497.695	5.19
498.043	5.2
498.392	5.23
498.741	5.25
499.09	5.26
499.438	5.28
499.787	5.32
500.135	5.35
500.484	5.35
500.832	5.39
501.181	5.41
501.529	5.46
501.878	5.47
502.226	5.5
502.574	5.55
502.923	5.57
503.271	5.63
503.619	5.68
503.967	5.71
504.315	5.75
504.663	5.78
505.011	5.8
505.359	5.83
505.707	5.88
506.055	5.92
506.403	5.98
506.751	6.03
507.098	6.08
507.446	6.12
507.794	6.19
508.141	6.22
508.489	6.27
508.837	6.28
509.184	6.32
509.531	6.35
509.879	6.4
510.226	6.44
510.574	6.46
510.921	6.52
511.268	6.58
511.616	6.6
511.963	6.65
512.31	6.71
512.657	6.74
513.004	6.74
513.351	6.77
513.698	6.8
514.045	6.84
514.392	6.86
514.739	6.93
515.086	6.95
515.432	7.01
515.779	7.06
516.126	7.13
516.473	7.15
516.819	7.22
517.166	7.25
517.512	7.29
517.859	7.32
518.205	7.33
518.552	7.37
518.898	7.44
519.245	7.48
519.591	7.54
519.937	7.6
520.283	7.67
520.629	7.74
520.976	7.8
521.322	7.87
521.668	7.94
522.014	7.99
522.36	8.05
522.706	8.13
523.052	8.21
523.398	8.27
523.743	8.35
524.089	8.42
524.435	8.52
524.781	8.6
525.126	8.68
525.472	8.76
525.817	8.81
526.163	8.85
526.509	8.89
526.854	8.93
527.199	8.99
527.545	9.03
527.89	9.09
528.235	9.17
528.581	9.22
528.926	9.27
529.271	9.33
529.616	9.39
529.961	9.44
530.306	9.51
530.651	9.56
530.996	9.63
531.341	9.71
531.686	9.79
532.031	9.87
532.376	9.95
532.721	10.04
533.065	10.15
533.41	10.26
533.755	10.38
534.099	10.48
534.444	10.58
534.788	10.7
535.133	10.79
535.477	10.89
535.822	10.99
536.166	11.11
536.51	11.25
536.855	11.37
537.199	11.5
537.543	11.63
537.887	11.78
538.231	11.94
538.576	12.07
538.92	12.22
539.264	12.37
539.608	12.48
539.951	12.61
540.295	12.72
540.639	12.85
540.983	12.96
541.327	13.1
541.671	13.22
542.014	13.36
542.358	13.49
542.701	13.6
543.045	13.74
543.389	13.9
543.732	14.03
544.075	14.2
544.419	14.35
544.762	14.53
545.105	14.73
545.449	14.91
545.792	15.1
546.135	15.28
546.478	15.5
546.821	15.78
547.165	16.02
547.508	16.28
547.851	16.54
548.194	16.78
548.536	17.01
548.879	17.26
549.222	17.49
549.565	17.78
549.908	18.07
550.25	18.33
550.593	18.57
550.936	18.88
551.278	19.14
551.621	19.47
551.963	19.74
552.306	20.01
552.648	20.29
552.991	20.54
553.333	20.8
553.675	21.06
554.017	21.35
554.36	21.61
554.702	21.84
555.044	22.06
555.386	22.37
555.728	22.68
556.07	22.97
556.412	23.29
556.754	23.53
557.096	23.84
557.438	24.17
557.78	24.47
558.121	24.8
558.463	25.18
558.805	25.47
559.147	25.8
559.488	26.1
559.83	26.37
560.171	26.71
560.513	27.03
560.854	27.3
561.196	27.61
561.537	27.86
561.878	28.22
562.22	28.54
562.561	28.79
562.902	29.09
563.243	29.43
563.584	29.69
563.925	30.04
564.266	30.27
564.607	30.56
564.948	30.83
565.289	31.12
565.63	31.33
565.971	31.58
566.312	31.82
566.653	32.08
566.993	32.4
567.334	32.64
567.675	32.9
568.015	33.19
568.356	33.39
568.696	33.71
569.037	33.92
569.377	34.15
569.718	34.44
570.058	34.67
570.398	34.89
570.739	35.16
571.079	35.37
571.419	35.69
571.759	35.92
572.099	36.15
572.439	36.36
572.779	36.56
573.119	36.76
573.459	36.98
573.799	37.21
574.139	37.46
574.479	37.73
574.819	37.97
575.158	38.23
575.498	38.51
575.838	38.73
576.177	39.02
576.517	39.32
576.856	39.6
577.196	39.87
577.535	40.25
577.875	40.57
578.214	40.88
578.553	41.21
578.893	41.49
579.232	41.8
579.571	42.16
579.91	42.47
580.25	42.78
580.589	43.12
580.928	43.34
581.267	43.57
581.606	43.82
581.945	44.01
582.283	44.25
582.622	44.48
582.961	44.65
583.3	44.79
583.639	44.98
583.977	45.23
584.316	45.38
584.654	45.49
584.993	45.64
585.332	45.75
585.67	45.84
586.008	46.03
586.347	46.16
586.685	46.21
587.024	46.39
587.362	46.5
587.7	46.59
588.038	46.77
588.376	46.96
588.715	47.06
589.053	47.22
589.391	47.34
589.729	47.42
590.067	47.63
590.404	47.8
590.742	47.97
591.08	48.02
591.418	48.27
591.756	48.36
592.093	48.38
592.431	48.51
592.769	48.64
593.106	48.64
593.444	48.8
593.781	48.89
594.119	48.96
594.456	49.1
594.793	49.19
595.131	49.25
595.468	49.28
595.805	49.37
596.143	49.48
596.48	49.59
596.817	49.8
597.154	49.92
597.491	50.01
597.828	50.05
598.165	50.17
598.502	50.15
598.839	50.29
599.176	50.49
599.512	50.63
599.849	50.77
600.186	50.94
600.523	51.02
600.859	51.1
601.196	51.12
601.532	51.13
601.869	51.18
602.205	51.3
602.542	51.41
602.878	51.49
603.215	51.5
603.551	51.53
603.887	51.47
604.223	51.55
604.56	51.68
604.896	51.81
605.232	51.85
605.568	51.93
605.904	51.93
606.24	51.98
606.576	51.99
606.912	51.99
607.248	52.14
607.583	52.24
607.919	52.33
608.255	52.56
608.591	52.82
608.926	53.01
609.262	53.11
609.597	53.19
609.933	53.34
610.268	53.52
610.604	53.64
610.939	53.85
611.275	53.94
611.61	53.97
611.945	54.08
612.281	54.3
612.616	54.48
612.951	54.67
613.286	54.82
613.621	54.99
613.956	55.21
614.291	55.29
614.626	55.37
614.961	55.62
615.296	55.73
615.631	55.79
615.966	55.81
616.3	55.93
616.635	56.05
616.97	56.18
617.304	56.26
617.639	56.38
617.973	56.48
618.308	56.6
618.642	56.78
618.977	56.74
619.311	56.73
619.646	56.85
619.98	56.93
620.314	56.97
620.648	57.17
620.983	57.28
621.317	57.27
621.651	57.54
621.985	57.54
622.319	57.58
622.653	57.53
622.987	57.61
623.321	57.62
623.655	57.68
623.988	57.66
624.322	57.66
624.656	57.56
624.99	57.43
625.323	57.34
625.657	57.18
625.99	57.27
626.324	57.3
626.657	57.19
626.991	57.26
627.324	57.22
627.658	57.11
627.991	57.09
628.324	57.26
628.657	57.14
628.991	57.22
629.324	57.29
629.657	57.47
629.99	57.47
630.323	57.51
630.656	57.59
630.989	57.62
631.322	57.81
631.655	57.94
631.987	58.11
632.32	58.18
632.653	58.22
632.986	58.37
633.318	58.43
633.651	58.55
633.984	58.52
634.316	58.76
634.649	58.88
634.981	58.93
635.313	58.84
635.646	59
635.978	59.13
636.31	59.04
636.643	59
636.975	59.15
637.307	59.24
637.639	59.3
637.971	59.34
638.303	59.29
638.635	59.46
638.967	59.54
639.299	59.62
639.631	59.92
639.963	60.04
640.295	60.17
640.626	60.38
640.958	60.49
641.29	60.55
641.621	60.63
641.953	60.77
642.285	61
642.616	60.92
642.948	60.89
643.279	60.99
643.61	61.12
643.942	61.19
644.273	61.29
644.604	61.31
644.936	61.48
645.267	61.51
645.598	61.45
645.929	61.34
646.26	61.47
646.591	61.33
646.922	61.22
647.253	61.08
647.584	60.96
647.915	60.82
648.245	60.75
648.576	60.6
648.907	60.43
649.238	60.35
649.568	60.4
649.899	60.35
650.229	60.4
650.56	60.45
650.89	60.48
651.221	60.58
651.551	60.57
651.882	60.61
652.212	60.53
652.542	60.68
652.872	60.84
653.203	60.73
653.533	60.75
653.863	60.6
654.193	60.68
654.523	60.62
654.853	60.73
655.183	60.54
655.513	60.63
655.843	60.59
656.172	60.53
656.502	60.45
656.832	60.36
657.162	60.17
657.491	60.02
657.821	59.96
658.15	59.78
658.48	59.64
658.809	59.46
659.139	59.55
659.468	59.48
659.798	59.48
660.127	59.53
660.456	59.43
660.785	59.55
661.115	59.65
661.444	59.68
661.773	59.71
662.102	59.96
662.431	60.06
662.76	60.22
663.089	60.31
663.418	60.29
663.747	60.46
664.076	60.67
664.404	60.83
664.733	60.75
665.062	60.9
665.39	61.16
665.719	61.26
666.048	61.32
666.376	61.25
666.705	61.25
667.033	61.21
667.362	61.33
667.69	61.35
668.018	61.27
668.347	61.37
668.675	61.48
669.003	61.25
669.331	61.3
669.659	61.26
669.987	61.2
670.315	61.37
670.643	61.48
670.971	61.51
671.299	61.55
671.627	61.66
671.955	61.63
672.283	61.42
672.61	61.35
672.938	61.21
673.266	61.27
673.593	61.13
673.921	61.26
674.249	61.41
674.576	61.4
674.904	61.26
675.231	61.24
675.558	61.17
675.886	61.45
676.213	61.29
676.54	61.31
676.867	61.4
677.195	61.27
677.522	61.11
677.849	60.97
678.176	60.82
678.503	60.73
678.83	60.78
679.157	60.78
679.484	60.74
679.81	60.7
680.137	60.68
680.464	60.8
680.791	60.71
681.117	60.56
681.444	60.55
681.771	60.53
682.097	60.59
682.424	60.45
682.75	60.2
683.077	60.22
683.403	60.22
683.729	60.24
684.056	60.2
684.382	60.18
684.708	60.33
685.034	60.31
685.36	60.28
685.686	60.18
686.012	60.31
686.339	60.37
686.664	60.51
686.99	60.32
687.316	60.19
687.642	60.19
687.968	60.19
688.294	60.09
688.619	60.06
688.945	60.04
689.271	60.15
689.596	60.23
689.922	60.16
690.247	60.11
690.573	60.05
690.898	60.12
691.224	60.32
691.549	60.35
691.874	60.32
692.2	60.49
692.525	60.43
692.85	60.36
693.175	60.42
693.5	60.43
693.825	60.45
694.15	60.3
694.475	60.22
694.8	60.11
695.125	60.12
695.45	60.08
695.775	59.76
696.099	59.82
696.424	59.71
696.749	59.75
697.073	59.66
697.398	59.55
697.723	59.5
698.047	59.4
698.372	59.26
698.696	59.32
699.02	59.29
699.345	59.35
699.669	59.45
699.993	59.5
700.318	59.45
700.642	59.63
700.966	59.82
701.29	60.09
701.614	60.2
701.938	60.27
702.262	60.66
702.586	61
702.91	61.09
703.234	61.27
703.557	61.43
703.881	61.82
704.205	62.01
704.529	62.12
704.852	62.15
705.176	62.43
705.499	62.39
705.823	62.45
706.146	62.62
706.47	62.72
706.793	62.81
707.117	62.88
707.44	62.82
707.763	62.81
708.086	62.55
708.409	62.53
708.733	62.37
709.056	61.94
709.379	61.82
709.702	61.59
710.025	61.47
710.348	61.32
710.671	61.15
710.993	60.97
711.316	60.94
711.639	60.95
711.962	60.9
712.284	61.02
712.607	60.96
712.93	60.78
713.252	60.4
713.575	60.21
713.897	60.12
714.22	60.04
714.542	60.02
714.864	59.94
715.187	59.9
715.509	59.93
715.831	60.12
716.153	60.06
716.475	60.17
716.798	60.21
717.12	60.03
717.442	60.03
717.764	60.08
718.085	60.23
718.407	60.14
718.729	60.25
719.051	60.12
719.373	60
719.695	59.92
720.016	60.07
720.338	60
720.659	60.23
720.981	60.08
721.302	60.04
721.624	60.29
721.945	60.42
722.267	60.84
722.588	60.77
722.909	60.72
723.231	60.47
723.552	60.52
723.873	60.65
724.194	60.54
724.515	60.55
724.836	60.37
725.157	60.23
725.478	60.05
725.799	60.05
726.12	60.06
726.441	60.21
726.762	60.18
727.083	60.36
727.403	60.07
727.724	60.21
728.045	60.38
728.365	60.18
728.686	60.13
729.006	59.66
729.327	59.82
729.647	59.81
729.967	60.04
730.288	60.01
730.608	60
730.928	59.85
731.249	59.9
731.569	59.98
731.889	60.33
732.209	60.31
732.529	60.33
732.849	60.32
733.169	60.25
733.489	60.43
733.809	60.43
734.129	60.62
734.448	60.86
734.768	60.76
735.088	60.9
735.408	60.99
735.727	61.34
736.047	61.39
736.366	61.54
736.686	61.64
737.005	61.57
737.325	61.59
737.644	61.71
737.963	61.63
738.283	61.44
738.602	61.08
738.921	61.25
739.24	61.58
739.56	61.73
739.879	61.9
740.198	61.47
740.517	61.44
740.836	61.57
741.155	61.41
741.473	61.48
741.792	61.25
742.111	61.24
742.43	61.12
742.748	60.74
743.067	60.87
743.386	60.77
743.704	60.92
744.023	61.2
744.341	61.34
744.66	61.34
744.978	61.74
745.297	61.95
745.615	61.5
745.933	61.35
746.252	61.46
746.57	61.46
746.888	61.78
747.206	61.82
747.524	61.49
747.842	61.55
748.16	61.59
748.478	61.7
748.796	61.94
749.114	61.92
749.432	62.16
749.749	62.37
750.067	62.15
750.385	62.61
750.703	62.57
751.02	62.61
751.338	62.68
751.655	62.43
751.973	62.57
752.29	62.73
752.608	62.46
752.925	62.74
753.242	62.59
753.56	62.42
753.877	62.11
754.194	62.37
754.511	62.23
754.828	62.1
755.145	62.07
755.462	61.8
755.779	61.9
756.096	61.44
756.413	61.07
756.73	61.04
757.047	60.44
757.364	59.94
757.68	59.66
757.997	59.4
758.314	59.18
758.63	58.68
758.947	58.63
759.264	58.41
759.58	57.61
759.896	57.38
760.213	57.23
760.529	57.31
760.846	56.85
761.162	56.54
761.478	56.59
761.794	56.41
762.11	56.05
762.426	55.93
762.743	56.27
763.059	56.13
763.375	56.05
763.69	56.09
764.006	56.2
764.322	56.35
764.638	56.8
764.954	57.04
765.27	57.01
765.585	57.11
765.901	57.23
766.216	57.65
766.532	57.51
766.848	57.56
767.163	57.63
767.478	58
767.794	58.38
768.109	58.59
768.424	59.09
768.74	59.6
769.055	59.72
769.37	59.47
769.685	59.45
770	60.05
770.315	59.88
770.63	60.14
770.945	60.23
771.26	59.54
771.575	59.39
771.89	59.64
772.205	59.67
772.52	59.65
772.834	59.82
773.149	60.51
773.464	61.14
773.778	61.75
774.093	61.36
774.407	61.75
774.722	61.46
775.036	61.05
775.351	61.26
775.665	61.29
775.979	61.72
776.293	62.25
776.608	62.12
776.922	62.69
777.236	62.54
777.55	62.66
777.864	63.37
778.178	63.8
778.492	64.1
778.806	64.02
779.12	64.76
779.434	64.29
779.747	64.35
780.061	63.77
780.375	63.69
780.689	64.24
781.002	63.92
781.316	63.64
781.629	63.75
781.943	63.94
782.256	63.74
782.57	63.77
782.883	63.76
783.196	63.49
783.51	63.39
783.823	63.62
784.136	63.82
784.449	63.51
784.762	63.26
785.075	63.17
785.388	63.55
785.701	63.12
786.014	62.97
786.327	63.08
786.64	63.43
786.953	62.92
787.266	62.73
787.578	62.88
787.891	63.32
788.204	63.4
788.516	62.88
788.829	63.38
789.141	63.35
789.454	63.29
789.766	63.62
790.079	63.14
790.391	62.91
790.703	62.68
791.016	62.74
791.328	62.32
791.64	62.15
791.952	62.15
792.264	62.06
792.576	62.76
792.888	62.67
793.2	62.15
793.512	61.89
793.824	61.7
794.136	61.79
794.448	61.86
794.76	61.69
795.071	61.77
795.383	60.98
795.695	60.75
796.006	60.46
796.318	60.46
796.629	60.49
796.941	60.89
797.252	60.54
797.564	60.19
797.875	60.27
798.186	60.84
798.497	60.3
798.809	60.08
799.12	59.61
799.431	59.43
799.742	60.14
800.053	60.24
800.364	60.14
800.675	59.76
800.986	59.52
801.297	59.62
801.608	59.49
801.918	59.7
802.229	59.7
802.54	59.37
802.851	58.53
803.161	58.97
803.472	58.35
803.782	58.63
804.093	58.85
804.403	59.19
804.714	58.58
805.024	58.45
805.334	58.88
805.645	59.03
805.955	59.33
806.265	59.11
806.575	59.55
806.885	58.92
807.195	59.09
807.505	59.57
807.815	59.94
808.125	59.88
808.435	60.39
808.745	61.01
809.055	61.98
809.365	62.33
809.674	61.49
809.984	62.13
810.294	62.32
810.603	61.72
810.913	62.12
811.222	62.23
811.532	63.52
811.841	62.22
812.151	62.25
812.46	61.18
812.769	61.01
813.079	60.27
813.388	61.7
813.697	60.72
814.006	60.42
814.315	60
814.624	61.07
814.933	62.13
815.242	61.41
815.551	61.14
815.86	61.52
816.169	61.45
816.478	61.86
816.786	61.5
817.095	61.61
817.404	61.07
817.712	60.69
818.021	60
818.33	60.82
818.638	60.04
818.947	59.94
819.255	59.47
819.563	59.13
819.872	58.08
820.18	57.95
820.488	57.34
820.796	57
821.105	56.01
821.413	55.26
821.721	55.37
822.029	55.57
822.337	55.5
822.645	55.73
822.953	55.49
823.26	55.42
823.568	55.55
823.876	55.57
824.184	55.59
824.491	55.65
824.799	55.37
825.107	55.46
825.414	55.68
825.722	55.75
826.029	55.71
826.337	56.08
826.644	56.11
826.951	56.33
827.259	56.59
827.566	56.91
827.873	57.61
828.18	57.84
828.488	57.62
828.795	57.89
829.102	57.93
829.409	57.99
829.716	58.53
830.023	58.64
830.329	58.34
830.636	58.4
830.943	57.88
831.25	58.04
831.557	57.97
831.863	57.55
832.17	57.52
832.476	57.92
832.783	57.31
833.089	57.55
833.396	57.62
833.702	57.5
834.009	57.88
834.315	56.83
834.621	56.52
834.928	56.43
835.234	56.23
835.54	56.37
835.846	56.62
836.152	56.33
836.458	56.2
836.764	56.45
837.07	56.55
837.376	56.82
837.682	57.56
837.988	58.03
838.293	58.15
838.599	58.54
838.905	58.69
839.211	58.79
839.516	58.69
839.822	58.72
840.127	58.52
840.433	58.16
840.738	59
841.044	58.82
841.349	60.12
841.654	59.97
841.959	60.98
842.265	61.28
842.57	61.16
842.875	62.6
843.18	62.13
843.485	61.72
843.79	62.6
844.095	62.69
844.4	61.8
844.705	62.38
845.01	61.65
845.315	62.75
845.619	63.9
845.924	63.98
846.229	64.11
846.533	65.62
846.838	66.19
847.142	65.65
847.447	66.37
847.751	65.37
848.056	65
848.36	65.31
848.664	65.28
848.969	66.16
849.273	64.75
849.577	66.77
849.881	66.61
850.185	66.38
850.489	63.83
850.794	65.59
851.097	66.87
851.401	66.25
851.705	63.68
852.009	62.62
852.313	62.37
852.617	60.72
852.92	60.66
853.224	61.73
853.528	62.48
853.831	64.99
854.135	66.99
854.438	70.22
854.742	68.56
855.045	68.51
855.349	67.43
855.652	67.67
855.955	68.16
856.259	70.58
856.562	69.92
856.865	73.2
857.168	73.04
857.471	70.72
857.774	71.24
858.077	71.16
858.38	72.77
858.683	75.15
858.986	78.7
859.289	75.95
859.592	74.73
859.894	76.1
860.197	74.96
860.5	73.53
860.802	69.8
861.105	70.83
861.407	70.79
861.71	71.64
862.012	75.06
862.315	76.28
862.617	76.57
862.919	75.97
863.222	75.95
863.524	76.19
863.826	76.25
864.128	77.84
864.43	77.27
864.732	77.97
865.034	78.57
865.336	76.85
865.638	75.78
865.94	80.01
866.242	76.63
866.544	78.12
866.846	77.27
867.147	78.78
867.449	79
867.751	77.95
868.052	77.82
868.354	73.34
868.655	73.82
868.957	71.95
869.258	73.15
869.56	71.48
869.861	71.08
870.162	69.95
870.463	68.76
870.765	69.91
871.066	70.01
871.367	72.28
871.668	72.39
871.969	72.77
872.27	69.24
872.571	74.47
872.872	70.44
873.173	71.6
873.473	71.23
873.774	68.79
874.075	72.66
874.376	72.14
874.676	72.33
874.977	70.5
875.277	70.65
875.578	71.65
875.878	73.06
876.179	72.62
876.479	74.84
876.78	75.62
877.08	76.76
877.38	75.42
877.68	70.81
877.981	70.59
878.281	74.63
878.581	74.71
