Data from BA17724_Reflection_00010.txt Node
Date: Tue Nov 19 11:58:03 EST 2019
User: vgr7
Spectrometer: USB2G7710
Scans to average: 3
Trigger mode: 4
Integration Time (sec): 2.000000E-2
Electric dark correction enabled: true
Boxcar width: 10
XAxis mode: Wavelengths
Number of Pixels in Spectrum: 2048
>>>>>Begin Spectral Data<<<<<
177.721	-7.23
178.105	93.9
178.488	63.06
178.871	50
179.254	162.5
179.636	1487.1
180.019	148.78
180.402	87.88
180.785	-271.43
181.168	33.16
181.55	-1.56
181.933	28.57
182.316	25.61
182.698	135.34
183.081	329.28
183.463	251.87
183.846	391.41
184.228	450.39
184.611	14600
184.993	2060
185.376	-705.08
185.758	10475
186.14	280.77
186.522	540.3
186.904	912.5
187.287	109.88
187.669	98.21
188.051	138.59
188.433	112.28
188.815	144.5
189.197	128.9
189.579	82.71
189.961	98.25
190.342	185.2
190.724	144.25
191.106	67.47
191.488	47.76
191.869	-11.4
192.251	-0.31
192.633	-0.23
193.014	-39.24
193.396	-14.68
193.777	-85.08
194.159	-103.21
194.54	-201.47
194.922	-156.76
195.303	-325
195.684	-269.57
196.065	478.05
196.447	87.01
196.828	-365.12
197.209	478.05
197.59	46.81
197.971	93.42
198.352	-90.08
198.733	-102.97
199.114	-160.36
199.495	-40.31
199.876	29.28
200.257	21.49
200.638	-321.05
201.018	46.63
201.399	68.75
201.78	-68.27
202.16	-14.29
202.541	28.57
202.922	-38.34
203.302	-9.72
203.683	-2.82
204.063	-8.99
204.444	-90.84
204.824	-314.29
205.204	-259.37
205.585	-292.86
205.965	59.91
206.345	-21
206.725	-25.91
207.106	-25.75
207.486	1.65
207.866	-1.13
208.246	29.3
208.626	17.03
209.006	-8.82
209.386	-8.58
209.766	-38.39
210.145	-8.31
210.525	11.72
210.905	9.09
211.285	28.57
211.664	27.81
212.044	26.75
212.424	7.91
212.803	1.88
213.183	-12.15
213.562	7.49
213.942	0.12
214.321	9.95
214.701	-2.24
215.08	-8.8
215.459	-4.9
215.838	-7.4
216.218	-31.99
216.597	0.82
216.976	6.81
217.355	5.67
217.734	-0.92
218.113	-2
218.492	-29.37
218.871	-38.41
219.25	-41.45
219.629	-64.51
220.008	-123.77
220.387	-114.63
220.766	-55.27
221.144	-25.47
221.523	-48.44
221.902	-36.42
222.28	-25.9
222.659	-3.97
223.037	0.68
223.416	-2.98
223.794	10.04
224.173	-3.71
224.551	-27.11
224.929	-24.73
225.308	-29.08
225.686	-25.21
226.064	-22.43
226.442	-15.8
226.821	-17.15
227.199	-15.91
227.577	-10.69
227.955	-4.75
228.333	-6.99
228.711	-9.24
229.089	-13.95
229.467	-12.79
229.845	-16.57
230.222	-15.23
230.6	-16.79
230.978	-14.69
231.356	-13.27
231.733	-12.78
232.111	-6.2
232.488	-1.07
232.866	1.08
233.243	2.09
233.621	4.6
233.998	2.8
234.376	2.85
234.753	5.51
235.13	5.69
235.508	4.19
235.885	3.12
236.262	3.45
236.639	5.26
237.016	6.92
237.393	7.51
237.77	9.99
238.147	9.98
238.524	9.64
238.901	8.29
239.278	7.57
239.655	7.85
240.032	7.07
240.409	6.8
240.785	7.07
241.162	6.78
241.539	6.13
241.915	6.06
242.292	6.18
242.668	5.97
243.045	6.08
243.421	6.32
243.798	6.64
244.174	6.75
244.551	6.39
244.927	5.83
245.303	5.5
245.679	5.12
246.056	5.22
246.432	5.14
246.808	5.33
247.184	5.45
247.56	5.12
247.936	5.21
248.312	5
248.688	4.83
249.064	4.66
249.44	4.71
249.815	4.83
250.191	4.92
250.567	4.86
250.943	4.76
251.318	4.66
251.694	4.12
252.069	4.03
252.445	3.97
252.82	4.35
253.196	4.64
253.571	5.07
253.947	4.84
254.322	4.85
254.697	4.66
255.073	4.48
255.448	4.55
255.823	4.6
256.198	4.81
256.573	4.92
256.948	5.11
257.323	5.17
257.698	5.14
258.073	4.91
258.448	4.89
258.823	4.99
259.198	4.93
259.573	4.92
259.948	5.21
260.322	5.16
260.697	5.12
261.072	4.98
261.446	4.84
261.821	4.9
262.195	4.91
262.57	4.8
262.944	5.01
263.319	4.92
263.693	4.85
264.067	4.86
264.442	4.82
264.816	4.69
265.19	4.8
265.564	4.69
265.938	4.79
266.313	4.54
266.687	4.54
267.061	4.7
267.435	4.98
267.809	4.57
268.183	4.49
268.556	4.26
268.93	4.31
269.304	4.26
269.678	4.29
270.051	4.36
270.425	4.45
270.799	4.16
271.172	4.36
271.546	4.4
271.919	4.33
272.293	4.47
272.666	4.53
273.04	4.37
273.413	4.42
273.787	4.34
274.16	4.43
274.533	4.44
274.906	4.47
275.279	4.52
275.653	4.76
276.026	4.89
276.399	4.94
276.772	5.12
277.145	5.5
277.518	5.44
277.891	5.37
278.263	5.3
278.636	5.44
279.009	5.46
279.382	5.4
279.755	5.43
280.127	5.3
280.5	5.38
280.872	5.37
281.245	5.49
281.617	5.44
281.99	5.43
282.362	5.31
282.735	5.2
283.107	4.96
283.479	4.91
283.852	4.95
284.224	5.08
284.596	4.95
284.968	4.7
285.34	4.64
285.713	4.67
286.085	4.67
286.457	4.72
286.829	4.68
287.201	4.72
287.572	4.8
287.944	4.83
288.316	4.86
288.688	4.97
289.06	4.97
289.431	4.99
289.803	5.13
290.175	5.11
290.546	5.15
290.918	5.14
291.289	4.93
291.661	5.01
292.032	4.94
292.403	4.96
292.775	5.02
293.146	5.03
293.517	5.06
293.889	5.08
294.26	5.05
294.631	5.1
295.002	5
295.373	4.94
295.744	4.91
296.115	4.97
296.486	4.91
296.857	4.91
297.228	4.9
297.599	4.78
297.97	4.86
298.34	4.83
298.711	5.01
299.082	5.12
299.452	5.09
299.823	5.14
300.194	5.19
300.564	4.92
300.935	5.05
301.305	4.99
301.676	5.09
302.046	5.11
302.416	5.22
302.787	5.35
303.157	5.17
303.527	5.16
303.897	5.12
304.267	5.26
304.637	5.2
305.008	5.44
305.378	5.53
305.748	5.59
306.117	5.59
306.487	5.51
306.857	5.69
307.227	5.84
307.597	5.83
307.967	5.76
308.336	6.07
308.706	6
309.076	6.03
309.445	6.05
309.815	6.06
310.184	5.85
310.554	5.84
310.923	6.06
311.293	6.11
311.662	6.12
312.031	5.94
312.401	6.12
312.77	5.98
313.139	5.86
313.508	5.85
313.877	5.98
314.246	6.05
314.616	6.04
314.985	5.85
315.353	5.83
315.722	6.05
316.091	6.05
316.46	6.11
316.829	6.19
317.198	6.22
317.567	6.34
317.935	6.35
318.304	6.51
318.672	6.31
319.041	6.35
319.41	6.17
319.778	6.31
320.147	6.05
320.515	6.08
320.883	6.1
321.252	6.13
321.62	6.05
321.988	6.05
322.357	5.99
322.725	6.03
323.093	6.17
323.461	6.17
323.829	6.28
324.197	6.37
324.565	6.32
324.933	6.23
325.301	5.96
325.669	5.89
326.037	5.8
326.405	5.89
326.772	5.91
327.14	5.93
327.508	5.95
327.875	6.02
328.243	6.09
328.61	6.16
328.978	6.23
329.346	6.27
329.713	6.32
330.08	6.3
330.448	6.34
330.815	6.13
331.182	5.94
331.55	5.67
331.917	5.55
332.284	5.51
332.651	5.63
333.018	5.81
333.385	5.85
333.752	5.81
334.119	5.91
334.486	5.84
334.853	5.89
335.22	5.94
335.587	5.77
335.954	5.62
336.32	5.68
336.687	5.67
337.054	5.54
337.42	5.5
337.787	5.52
338.153	5.47
338.52	5.7
338.886	5.82
339.253	5.92
339.619	5.91
339.986	6.06
340.352	6.05
340.718	6.07
341.084	6.24
341.451	6.41
341.817	6.43
342.183	6.46
342.549	6.56
342.915	6.45
343.281	6.58
343.647	6.71
344.013	6.62
344.379	6.57
344.745	6.64
345.11	6.63
345.476	6.66
345.842	6.74
346.208	6.66
346.573	6.57
346.939	6.66
347.304	6.75
347.67	6.67
348.035	6.56
348.401	6.61
348.766	6.59
349.132	6.51
349.497	6.52
349.862	6.46
350.228	6.45
350.593	6.53
350.958	6.61
351.323	6.6
351.688	6.67
352.053	6.62
352.418	6.6
352.783	6.67
353.148	6.59
353.513	6.53
353.878	6.52
354.243	6.53
354.608	6.56
354.972	6.4
355.337	6.43
355.702	6.46
356.066	6.26
356.431	6.18
356.795	6.12
357.16	6.07
357.524	6.14
357.889	6.13
358.253	6.07
358.618	6.01
358.982	5.95
359.346	5.93
359.71	5.98
360.075	6.04
360.439	6.01
360.803	6.07
361.167	6
361.531	5.97
361.895	5.92
362.259	5.95
362.623	6.02
362.987	5.99
363.351	5.93
363.714	6
364.078	6.09
364.442	6.09
364.806	6.02
365.169	5.96
365.533	5.99
365.896	6.05
366.26	6.03
366.623	5.98
366.987	5.96
367.35	5.94
367.714	5.92
368.077	5.94
368.44	5.92
368.803	5.94
369.167	5.9
369.53	5.95
369.893	5.81
370.256	5.74
370.619	5.77
370.982	5.79
371.345	5.76
371.708	5.62
372.071	5.57
372.434	5.57
372.797	5.63
373.159	5.52
373.522	5.47
373.885	5.47
374.247	5.48
374.61	5.48
374.973	5.44
375.335	5.41
375.698	5.28
376.06	5.22
376.423	5.21
376.785	5.2
377.147	5.21
377.51	5.18
377.872	5.14
378.234	5.1
378.596	5.09
378.958	5.11
379.321	5.13
379.683	5.14
380.045	5.13
380.407	5.06
380.769	5.04
381.13	4.95
381.492	4.9
381.854	4.94
382.216	4.97
382.578	4.95
382.939	4.92
383.301	4.96
383.663	4.97
384.024	4.99
384.386	4.99
384.747	4.93
385.109	4.98
385.47	5.03
385.832	5.01
386.193	4.99
386.554	4.94
386.916	4.92
387.277	4.9
387.638	4.89
387.999	4.89
388.36	4.89
388.721	4.9
389.082	4.95
389.443	4.92
389.804	4.83
390.165	4.85
390.526	4.84
390.887	4.86
391.248	4.87
391.609	4.89
391.969	4.88
392.33	4.85
392.691	4.82
393.051	4.77
393.412	4.79
393.772	4.77
394.133	4.78
394.493	4.79
394.854	4.75
395.214	4.74
395.574	4.72
395.935	4.71
396.295	4.75
396.655	4.71
397.015	4.74
397.376	4.74
397.736	4.73
398.096	4.72
398.456	4.69
398.816	4.65
399.176	4.57
399.535	4.56
399.895	4.57
400.255	4.5
400.615	4.51
400.975	4.51
401.334	4.49
401.694	4.48
402.054	4.44
402.413	4.46
402.773	4.45
403.132	4.44
403.492	4.44
403.851	4.43
404.211	4.39
404.57	4.34
404.929	4.36
405.288	4.36
405.648	4.32
406.007	4.31
406.366	4.33
406.725	4.35
407.084	4.33
407.443	4.31
407.802	4.33
408.161	4.3
408.52	4.29
408.879	4.26
409.238	4.27
409.596	4.27
409.955	4.28
410.314	4.26
410.673	4.25
411.031	4.25
411.39	4.24
411.748	4.25
412.107	4.23
412.465	4.19
412.824	4.14
413.182	4.15
413.54	4.14
413.899	4.11
414.257	4.1
414.615	4.13
414.974	4.12
415.332	4.14
415.69	4.14
416.048	4.1
416.406	4.14
416.764	4.14
417.122	4.14
417.48	4.11
417.838	4.13
418.195	4.1
418.553	4.08
418.911	4.07
419.269	4.06
419.626	4.08
419.984	4.07
420.342	4.07
420.699	4.05
421.057	4.05
421.414	4.05
421.772	4.04
422.129	4.01
422.486	4
422.844	3.98
423.201	3.99
423.558	4
423.915	3.98
424.273	3.98
424.63	3.99
424.987	4
425.344	3.97
425.701	3.97
426.058	3.99
426.415	3.98
426.772	3.97
427.128	3.96
427.485	3.97
427.842	3.96
428.199	3.97
428.555	3.97
428.912	3.93
429.269	3.95
429.625	3.98
429.982	4.01
430.338	4.02
430.695	4.01
431.051	4
431.407	4
431.764	3.96
432.12	3.96
432.476	3.97
432.832	4
433.189	4
433.545	3.97
433.901	3.99
434.257	4
434.613	3.98
434.969	3.99
435.325	4
435.681	4.02
436.036	4.01
436.392	4.02
436.748	4.02
437.104	4
437.459	3.97
437.815	3.95
438.171	3.95
438.526	3.94
438.882	3.93
439.237	3.94
439.593	3.93
439.948	3.92
440.304	3.89
440.659	3.89
441.014	3.89
441.369	3.89
441.725	3.89
442.08	3.9
442.435	3.88
442.79	3.87
443.145	3.87
443.5	3.87
443.855	3.86
444.21	3.88
444.565	3.88
444.92	3.89
445.275	3.9
445.629	3.91
445.984	3.93
446.339	3.94
446.693	3.93
447.048	3.91
447.403	3.92
447.757	3.93
448.112	3.94
448.466	3.95
448.82	3.92
449.175	3.93
449.529	3.94
449.883	3.93
450.238	3.96
450.592	3.96
450.946	3.95
451.3	3.95
451.654	3.92
452.008	3.92
452.362	3.92
452.716	3.91
453.07	3.9
453.424	3.88
453.778	3.87
454.132	3.88
454.486	3.88
454.839	3.86
455.193	3.87
455.547	3.87
455.9	3.86
456.254	3.87
456.607	3.85
456.961	3.83
457.314	3.84
457.668	3.82
458.021	3.81
458.375	3.8
458.728	3.81
459.081	3.8
459.434	3.81
459.787	3.8
460.141	3.8
460.494	3.81
460.847	3.81
461.2	3.8
461.553	3.8
461.906	3.81
462.259	3.8
462.611	3.8
462.964	3.81
463.317	3.81
463.67	3.83
464.022	3.86
464.375	3.83
464.728	3.86
465.08	3.85
465.433	3.85
465.785	3.89
466.138	3.88
466.49	3.9
466.843	3.9
467.195	3.92
467.547	3.89
467.899	3.88
468.252	3.9
468.604	3.9
468.956	3.9
469.308	3.92
469.66	3.94
470.012	3.93
470.364	3.91
470.716	3.92
471.068	3.91
471.42	3.9
471.772	3.95
472.123	3.95
472.475	3.96
472.827	3.98
473.178	3.97
473.53	3.97
473.882	3.96
474.233	3.95
474.585	3.92
474.936	3.96
475.288	3.97
475.639	3.96
475.99	3.97
476.342	4.01
476.693	3.98
477.044	3.96
477.395	3.95
477.746	3.95
478.097	3.92
478.448	3.92
478.8	3.92
479.15	3.91
479.501	3.89
479.852	3.88
480.203	3.88
480.554	3.87
480.905	3.88
481.255	3.89
481.606	3.9
481.957	3.91
482.307	3.91
482.658	3.9
483.009	3.91
483.359	3.9
483.709	3.89
484.06	3.92
484.41	3.93
484.761	3.95
485.111	3.94
485.461	3.95
485.811	3.95
486.162	3.95
486.512	3.95
486.862	3.96
487.212	3.96
487.562	3.95
487.912	3.96
488.262	3.96
488.612	3.96
488.961	3.96
489.311	3.97
489.661	3.97
490.011	3.98
490.36	3.98
490.71	4
491.06	4
491.409	3.98
491.759	3.99
492.108	3.98
492.458	3.99
492.807	3.99
493.157	3.99
493.506	4
493.855	3.99
494.204	3.98
494.554	4
494.903	4.02
495.252	4.01
495.601	4.03
495.95	4.04
496.299	4.04
496.648	4.05
496.997	4.06
497.346	4.08
497.695	4.09
498.043	4.09
498.392	4.09
498.741	4.11
499.09	4.11
499.438	4.12
499.787	4.16
500.135	4.18
500.484	4.2
500.832	4.2
501.181	4.23
501.529	4.26
501.878	4.29
502.226	4.34
502.574	4.36
502.923	4.37
503.271	4.39
503.619	4.4
503.967	4.4
504.315	4.42
504.663	4.4
505.011	4.41
505.359	4.42
505.707	4.44
506.055	4.46
506.403	4.48
506.751	4.49
507.098	4.51
507.446	4.53
507.794	4.54
508.141	4.57
508.489	4.61
508.837	4.63
509.184	4.62
509.531	4.62
509.879	4.66
510.226	4.68
510.574	4.69
510.921	4.7
511.268	4.71
511.616	4.75
511.963	4.77
512.31	4.8
512.657	4.84
513.004	4.84
513.351	4.85
513.698	4.87
514.045	4.92
514.392	4.93
514.739	4.99
515.086	5.04
515.432	5.06
515.779	5.08
516.126	5.13
516.473	5.17
516.819	5.22
517.166	5.24
517.512	5.27
517.859	5.31
518.205	5.36
518.552	5.4
518.898	5.41
519.245	5.49
519.591	5.52
519.937	5.55
520.283	5.61
520.629	5.68
520.976	5.72
521.322	5.75
521.668	5.82
522.014	5.87
522.36	5.93
522.706	6
523.052	6.06
523.398	6.1
523.743	6.17
524.089	6.23
524.435	6.29
524.781	6.37
525.126	6.4
525.472	6.47
525.817	6.52
526.163	6.58
526.509	6.63
526.854	6.69
527.199	6.76
527.545	6.82
527.89	6.86
528.235	6.92
528.581	6.97
528.926	7.02
529.271	7.07
529.616	7.12
529.961	7.18
530.306	7.26
530.651	7.34
530.996	7.42
531.341	7.5
531.686	7.6
532.031	7.68
532.376	7.79
532.721	7.88
533.065	7.98
533.41	8.08
533.755	8.19
534.099	8.3
534.444	8.39
534.788	8.49
535.133	8.6
535.477	8.71
535.822	8.85
536.166	8.99
536.51	9.16
536.855	9.33
537.199	9.49
537.543	9.66
537.887	9.84
538.231	10.02
538.576	10.21
538.92	10.38
539.264	10.56
539.608	10.73
539.951	10.9
540.295	11.09
540.639	11.28
540.983	11.43
541.327	11.59
541.671	11.76
542.014	11.95
542.358	12.12
542.701	12.3
543.045	12.45
543.389	12.64
543.732	12.81
544.075	12.98
544.419	13.17
544.762	13.37
545.105	13.58
545.449	13.81
545.792	14.02
546.135	14.29
546.478	14.54
546.821	14.82
547.165	15.09
547.508	15.38
547.851	15.63
548.194	15.94
548.536	16.24
548.879	16.54
549.222	16.81
549.565	17.07
549.908	17.36
550.25	17.71
550.593	18.01
550.936	18.29
551.278	18.61
551.621	18.87
551.963	19.19
552.306	19.49
552.648	19.78
552.991	20.06
553.333	20.32
553.675	20.64
554.017	20.93
554.36	21.25
554.702	21.5
555.044	21.8
555.386	22.12
555.728	22.42
556.07	22.72
556.412	23.06
556.754	23.4
557.096	23.73
557.438	24.04
557.78	24.36
558.121	24.7
558.463	25.02
558.805	25.37
559.147	25.74
559.488	26.11
559.83	26.42
560.171	26.77
560.513	27.12
560.854	27.4
561.196	27.78
561.537	28.1
561.878	28.45
562.22	28.79
562.561	29.11
562.902	29.45
563.243	29.82
563.584	30.15
563.925	30.53
564.266	30.82
564.607	31.13
564.948	31.45
565.289	31.79
565.63	32.14
565.971	32.5
566.312	32.73
566.653	33.01
566.993	33.3
567.334	33.6
567.675	33.87
568.015	34.23
568.356	34.45
568.696	34.72
569.037	35.03
569.377	35.26
569.718	35.52
570.058	35.8
570.398	36.04
570.739	36.31
571.079	36.53
571.419	36.83
571.759	37.07
572.099	37.29
572.439	37.54
572.779	37.8
573.119	37.99
573.459	38.23
573.799	38.39
574.139	38.61
574.479	38.85
574.819	39.12
575.158	39.28
575.498	39.54
575.838	39.79
576.177	40.03
576.517	40.33
576.856	40.56
577.196	40.8
577.535	41.03
577.875	41.29
578.214	41.52
578.553	41.72
578.893	42
579.232	42.27
579.571	42.53
579.91	42.72
580.25	42.93
580.589	43.21
580.928	43.47
581.267	43.71
581.606	43.83
581.945	43.99
582.283	44.17
582.622	44.35
582.961	44.56
583.3	44.76
583.639	44.97
583.977	45.2
584.316	45.34
584.654	45.55
584.993	45.73
585.332	45.96
585.67	46.18
586.008	46.43
586.347	46.61
586.685	46.86
587.024	47.1
587.362	47.37
587.7	47.6
588.038	47.85
588.376	47.99
588.715	48.25
589.053	48.48
589.391	48.75
589.729	48.95
590.067	49.12
590.404	49.2
590.742	49.36
591.08	49.6
591.418	49.85
591.756	49.99
592.093	50.16
592.431	50.41
592.769	50.53
593.106	50.6
593.444	50.78
593.781	50.97
594.119	51.15
594.456	51.24
594.793	51.35
595.131	51.39
595.468	51.64
595.805	51.8
596.143	51.92
596.48	52.01
596.817	52.12
597.154	52.23
597.491	52.43
597.828	52.56
598.165	52.55
598.502	52.62
598.839	52.79
599.176	52.84
599.512	52.94
599.849	53.07
600.186	53.17
600.523	53.3
600.859	53.37
601.196	53.49
601.532	53.68
601.869	53.81
602.205	53.99
602.542	54.1
602.878	54.26
603.215	54.4
603.551	54.54
603.887	54.64
604.223	54.75
604.56	54.8
604.896	54.89
605.232	55.06
605.568	55.2
605.904	55.32
606.24	55.52
606.576	55.53
606.912	55.75
607.248	55.91
607.583	55.97
607.919	56.13
608.255	56.21
608.591	56.26
608.926	56.37
609.262	56.42
609.597	56.5
609.933	56.56
610.268	56.68
610.604	56.75
610.939	56.85
611.275	56.93
611.61	57.04
611.945	57.13
612.281	57.2
612.616	57.33
612.951	57.36
613.286	57.48
613.621	57.65
613.956	57.56
614.291	57.64
614.626	57.83
614.961	57.82
615.296	57.97
615.631	58.07
615.966	58.17
616.3	58.32
616.635	58.43
616.97	58.46
617.304	58.37
617.639	58.41
617.973	58.46
618.308	58.57
618.642	58.58
618.977	58.62
619.311	58.65
619.646	58.64
619.98	58.72
620.314	58.68
620.648	58.79
620.983	58.96
621.317	59.01
621.651	59.12
621.985	59.17
622.319	59.22
622.653	59.28
622.987	59.28
623.321	59.36
623.655	59.37
623.988	59.4
624.322	59.53
624.656	59.65
624.99	59.74
625.323	59.79
625.657	59.97
625.99	60.11
626.324	60.22
626.657	60.29
626.991	60.37
627.324	60.47
627.658	60.5
627.991	60.55
628.324	60.67
628.657	60.7
628.991	60.68
629.324	60.71
629.657	60.79
629.99	60.91
630.323	60.98
630.656	61.04
630.989	61.18
631.322	61.21
631.655	61.32
631.987	61.33
632.32	61.32
632.653	61.41
632.986	61.42
633.318	61.46
633.651	61.44
633.984	61.48
634.316	61.58
634.649	61.68
634.981	61.75
635.313	61.78
635.646	61.84
635.978	62
636.31	62.04
636.643	62.03
636.975	62.04
637.307	62.14
637.639	62.15
637.971	62.06
638.303	62.09
638.635	61.93
638.967	62.08
639.299	62.17
639.631	62.17
639.963	62.18
640.295	62.32
640.626	62.35
640.958	62.49
641.29	62.47
641.621	62.4
641.953	62.38
642.285	62.39
642.616	62.37
642.948	62.33
643.279	62.28
643.61	62.5
643.942	62.65
644.273	62.36
644.604	62.38
644.936	62.49
645.267	62.63
645.598	62.76
645.929	62.7
646.26	62.77
646.591	62.75
646.922	62.8
647.253	62.68
647.584	62.8
647.915	62.75
648.245	62.73
648.576	62.66
648.907	62.69
649.238	62.66
649.568	62.77
649.899	62.81
650.229	62.99
650.56	62.83
650.89	62.81
651.221	63.05
651.551	63.18
651.882	63.2
652.212	63.12
652.542	63.18
652.872	63.22
653.203	63.28
653.533	63.31
653.863	63.29
654.193	63.37
654.523	63.38
654.853	63.51
655.183	63.58
655.513	63.77
655.843	63.85
656.172	64
656.502	63.85
656.832	63.93
657.162	63.78
657.491	63.82
657.821	63.88
658.15	63.88
658.48	63.98
658.809	63.97
659.139	64.02
659.468	64.16
659.798	64.23
660.127	64.24
660.456	64.32
660.785	64.42
661.115	64.48
661.444	64.42
661.773	64.27
662.102	64.17
662.431	64.19
662.76	64.27
663.089	64.27
663.418	64.45
663.747	64.44
664.076	64.44
664.404	64.54
664.733	64.49
665.062	64.67
665.39	64.55
665.719	64.63
666.048	64.66
666.376	64.7
666.705	64.64
667.033	64.6
667.362	64.48
667.69	64.34
668.018	64.36
668.347	64.65
668.675	64.77
669.003	64.95
669.331	64.97
669.659	65.01
669.987	64.94
670.315	64.85
670.643	64.94
670.971	65.1
671.299	65.07
671.627	65
671.955	64.87
672.283	64.86
672.61	64.81
672.938	64.86
673.266	64.7
673.593	64.64
673.921	64.79
674.249	64.87
674.576	65.06
674.904	65.02
675.231	64.86
675.558	64.8
675.886	64.8
676.213	64.82
676.54	64.78
676.867	64.86
677.195	64.97
677.522	64.97
677.849	65.11
678.176	65.1
678.503	65.16
678.83	65.15
679.157	65.17
679.484	65.34
679.81	65.31
680.137	65.37
680.464	65.56
680.791	65.46
681.117	65.52
681.444	65.47
681.771	65.41
682.097	65.52
682.424	65.49
682.75	65.46
683.077	65.57
683.403	65.54
683.729	65.51
684.056	65.62
684.382	65.69
684.708	65.59
685.034	65.71
685.36	65.83
685.686	65.93
686.012	66.04
686.339	66.13
686.664	66.15
686.99	66.18
687.316	66.25
687.642	66.24
687.968	66.2
688.294	66.16
688.619	66.13
688.945	66.15
689.271	66.2
689.596	66.29
689.922	66.36
690.247	66.4
690.573	66.4
690.898	66.47
691.224	66.47
691.549	66.39
691.874	66.31
692.2	66.31
692.525	66.43
692.85	66.33
693.175	66.02
693.5	66.02
693.825	66.08
694.15	65.85
694.475	65.96
694.8	66.05
695.125	66.08
695.45	66.14
695.775	66.11
696.099	66.23
696.424	66.26
696.749	65.99
697.073	65.96
697.398	65.96
697.723	65.69
698.047	65.52
698.372	65.59
698.696	65.64
699.02	65.68
699.345	65.66
699.669	65.67
699.993	65.84
700.318	65.94
700.642	65.97
700.966	66
701.29	65.93
701.614	65.94
701.938	65.96
702.262	65.92
702.586	65.75
702.91	65.7
703.234	65.52
703.557	65.77
703.881	66.11
704.205	66.25
704.529	66.36
704.852	66.27
705.176	66.33
705.499	66.47
705.823	66.48
706.146	66.42
706.47	66.56
706.793	66.43
707.117	66.24
707.44	66.02
707.763	66.11
708.086	66
708.409	65.89
708.733	66
709.056	66.24
709.379	66.42
709.702	66.38
710.025	66.57
710.348	66.57
710.671	66.35
710.993	66.12
711.316	66.19
711.639	66.48
711.962	66.41
712.284	66.33
712.607	66.17
712.93	66
713.252	65.83
713.575	65.93
713.897	66
714.22	66.1
714.542	66.1
714.864	66.03
715.187	66.23
715.509	66.21
715.831	66.38
716.153	66.61
716.475	66.77
716.798	66.76
717.12	66.66
717.442	66.63
717.764	66.87
718.085	66.93
718.407	66.8
718.729	66.93
719.051	66.59
719.373	66.88
719.695	67.04
720.016	66.82
720.338	66.93
720.659	66.97
720.981	66.7
721.302	66.81
721.624	67.27
721.945	67.19
722.267	67.18
722.588	67.07
722.909	66.78
723.231	66.85
723.552	66.68
723.873	66.3
724.194	66.28
724.515	66.2
724.836	65.93
725.157	66.07
725.478	65.98
725.799	66.2
726.12	66.09
726.441	66.38
726.762	66.93
727.083	66.95
727.403	67.19
727.724	67.63
728.045	67.68
728.365	67.71
728.686	67.86
729.006	67.89
729.327	67.64
729.647	67.7
729.967	67.75
730.288	67.69
730.608	67.92
730.928	68.04
731.249	68.14
731.569	68.21
731.889	67.95
732.209	67.93
732.529	68.05
732.849	68.23
733.169	68.12
733.489	68.11
733.809	67.64
734.129	67.35
734.448	67.28
734.768	67.32
735.088	67
735.408	67.01
735.727	67.21
736.047	67.27
736.366	67.31
736.686	67.25
737.005	67.69
737.325	67.7
737.644	67.82
737.963	67.67
738.283	67.7
738.602	68.08
738.921	67.8
739.24	68.08
739.56	68.17
739.879	68.11
740.198	68.11
740.517	68.65
740.836	69.02
741.155	69.03
741.473	68.79
741.792	69.02
742.111	69.04
742.43	69.07
742.748	68.97
743.067	68.73
743.386	68.83
743.704	68.52
744.023	69.11
744.341	68.98
744.66	68.9
744.978	69.04
745.297	68.8
745.615	69.42
745.933	69.4
746.252	69.02
746.57	69.01
746.888	68.79
747.206	68.36
747.524	68.52
747.842	68.62
748.16	68.97
748.478	68.93
748.796	68.48
749.114	67.99
749.432	68.3
749.749	68.4
750.067	68.21
750.385	68.23
750.703	67.85
751.02	67.77
751.338	68.04
751.655	68.14
751.973	68.17
752.29	67.93
752.608	67.54
752.925	67.7
753.242	67.63
753.56	68.08
753.877	67.91
754.194	67.47
754.511	67.5
754.828	67.27
755.145	67.42
755.462	67.46
755.779	67.41
756.096	67.4
756.413	67.09
756.73	66.63
757.047	66.66
757.364	66.41
757.68	66.51
757.997	66.02
758.314	65.88
758.63	66.23
758.947	66.44
759.264	66.5
759.58	66.46
759.896	66.29
760.213	66.29
760.529	66.74
760.846	66.79
761.162	66.51
761.478	66.27
761.794	66.18
762.11	66.51
762.426	66.95
762.743	66.75
763.059	67.11
763.375	67.33
763.69	67.76
764.006	67.77
764.322	67.49
764.638	67.64
764.954	67.47
765.27	67.47
765.585	67.11
765.901	67.36
766.216	67.46
766.532	67.55
766.848	67.47
767.163	67.71
767.478	68
767.794	68.33
768.109	68.64
768.424	68.82
768.74	69.02
769.055	69.52
769.37	69.65
769.685	69.58
770	70.04
770.315	69.82
770.63	70.3
770.945	70.8
771.26	71.41
771.575	72.01
771.89	72.21
772.205	72.38
772.52	71.84
772.834	71.64
773.149	71.9
773.464	71.9
773.778	71.39
774.093	71.6
774.407	71.5
774.722	71.41
775.036	70.99
775.351	70.77
775.665	69.28
775.979	69.17
776.293	69.42
776.608	69.04
776.922	69.1
777.236	69.34
777.55	69.1
777.864	69.16
778.178	69.17
778.492	69.24
778.806	69.66
779.12	69.75
779.434	69.76
779.747	69.57
780.061	70.09
780.375	70.47
780.689	69.88
781.002	69.75
781.316	69.48
781.629	70.27
781.943	69.79
782.256	70.09
782.57	70.27
782.883	70.24
783.196	69.81
783.51	69.44
783.823	68.96
784.136	68.98
784.449	68.51
784.762	68.36
785.075	68.14
785.388	68.11
785.701	68.44
786.014	68.61
786.327	68.24
786.64	67.78
786.953	67.68
787.266	68.44
787.578	68.61
787.891	69.33
788.204	69.03
788.516	68.76
788.829	69.24
789.141	68.89
789.454	68.64
789.766	69.45
790.079	68.92
790.391	68.92
790.703	68.53
791.016	68.81
791.328	68.74
791.64	68.15
791.952	68.2
792.264	68.17
792.576	68.4
792.888	68.65
793.2	68.38
793.512	68.76
793.824	67.9
794.136	67.82
794.448	67.46
794.76	66.51
795.071	67.23
795.383	66.93
795.695	67.32
796.006	67.38
796.318	66.95
796.629	67.98
796.941	68.49
797.252	69.26
797.564	68.69
797.875	68.59
798.186	69.39
798.497	69.18
798.809	68.94
799.12	68.93
799.431	69.03
799.742	69.51
800.053	69.51
800.364	69.98
800.675	70.12
800.986	70.36
801.297	71.36
801.608	70.93
801.918	71.63
802.229	72.25
802.54	72.08
802.851	72.14
803.161	71.57
803.472	71.29
803.782	71.33
804.093	72.1
804.403	72.28
804.714	72.52
805.024	72.43
805.334	72.84
805.645	72.37
805.955	72.71
806.265	73.11
806.575	72.51
806.885	72.33
807.195	72.8
807.505	72.49
807.815	71.89
808.125	72.03
808.435	71.04
808.745	70.51
809.055	70.92
809.365	70.74
809.674	71
809.984	70.49
810.294	70.25
810.603	69.74
810.913	69.88
811.222	68.51
811.532	68.37
811.841	68.3
812.151	68.37
812.46	67.71
812.769	66.98
813.079	66.82
813.388	66.68
813.697	65.69
814.006	65.41
814.315	65.56
814.624	66.21
814.933	66.19
815.242	66.94
815.551	67.64
815.86	68.03
816.169	67.76
816.478	67.5
816.786	66.92
817.095	67.24
817.404	66.99
817.712	68.32
818.021	68.95
818.33	68.6
818.638	68.32
818.947	68.2
819.255	67.49
819.563	68.01
819.872	68.37
820.18	68.67
820.488	69.14
820.796	69.29
821.105	69.08
821.413	68.84
821.721	68.7
822.029	68.04
822.337	67.74
822.645	67.92
822.953	68.06
823.26	68.29
823.568	68.27
823.876	68.31
824.184	68.37
824.491	68.39
824.799	68.61
825.107	68.52
825.414	68.44
825.722	68.82
826.029	68.87
826.337	68.65
826.644	68.79
826.951	68.69
827.259	68.47
827.566	68.29
827.873	68.62
828.18	68.69
828.488	68.93
828.795	69.32
829.102	69.11
829.409	68.87
829.716	68.77
830.023	69.08
830.329	68.88
830.636	68.05
830.943	67.94
831.25	67.8
831.557	68.77
831.863	69.13
832.17	69.2
832.476	69.06
832.783	68.96
833.089	68.22
833.396	68.16
833.702	68.59
834.009	68.86
834.315	68.98
834.621	68.21
834.928	68.77
835.234	69.25
835.54	69.67
835.846	70.37
836.152	70.15
836.458	69.24
836.764	70.13
837.07	70.69
837.376	70.7
837.682	70.76
837.988	70.13
838.293	70.56
838.599	69.37
838.905	68.89
839.211	69.51
839.516	70.41
839.822	71.11
840.127	71.27
840.433	71.07
840.738	71.41
841.044	72.21
841.349	73.62
841.654	72.28
841.959	71.57
842.265	70.49
842.57	70.29
842.875	71.12
843.18	69.13
843.485	70.67
843.79	69.6
844.095	68.92
844.4	67.7
844.705	67.06
845.01	68.85
845.315	68.28
845.619	69.47
845.924	68.78
846.229	64.71
846.533	63.06
846.838	62.66
847.142	61.7
847.447	61.13
847.751	56.92
848.056	57.31
848.36	57.72
848.664	58.26
848.969	59.65
849.273	60.01
849.577	61.22
849.881	58.02
850.185	58.74
850.489	60.11
850.794	61.18
851.097	64.24
851.401	63.24
851.705	65.4
852.009	62.49
852.313	62.81
852.617	67.83
852.92	68.85
853.224	70.71
853.528	70.93
853.831	72.25
854.135	72.82
854.438	74.2
854.742	75.94
855.045	76.45
855.349	75.34
855.652	74.23
855.955	74.57
856.259	74.84
856.562	74.36
856.865	71.02
857.168	72.42
857.471	66.24
857.774	67.06
858.077	65.24
858.38	67.77
858.683	66.43
858.986	66.59
859.289	66.57
859.592	66.01
859.894	63.34
860.197	65.06
860.5	70.03
860.802	66.29
861.105	65.28
861.407	64.71
861.71	66.01
862.012	64.04
862.315	60.66
862.617	60.77
862.919	61.45
863.222	63.1
863.524	61.48
863.826	64.29
864.128	63.17
864.43	65.53
864.732	63.62
865.034	64.85
865.336	60.5
865.638	61.67
865.94	60.46
866.242	65.16
866.544	64.43
866.846	63.01
867.147	65.81
867.449	65.07
867.751	65.76
868.052	65.93
868.354	68.15
868.655	68.34
868.957	68.75
869.258	67.43
869.56	66.03
869.861	65.26
870.162	61.87
870.463	64.07
870.765	65.72
871.066	65.61
871.367	65.18
871.668	66.63
871.969	66
872.27	68.01
872.571	67.72
872.872	64.18
873.173	64.62
873.473	65.17
873.774	66.27
874.075	66.22
874.376	66.31
874.676	66.71
874.977	69.81
875.277	70.28
875.578	72.8
875.878	74.28
876.179	75.68
876.479	80.6
876.78	79.01
877.08	75.6
877.38	76.27
877.68	77.03
877.981	80.49
878.281	81.88
878.581	82.07
