Data from BA28304_Reflection_00004.txt Node
Date: Mon Nov 18 15:35:59 EST 2019
User: vgr7
Spectrometer: USB2G7710
Scans to average: 3
Trigger mode: 4
Integration Time (sec): 2.000000E-2
Electric dark correction enabled: true
Boxcar width: 10
XAxis mode: Wavelengths
Number of Pixels in Spectrum: 2048
>>>>>Begin Spectral Data<<<<<
177.721	100.82
178.105	60.69
178.488	68.53
178.871	401.98
179.254	35.48
179.636	64.63
180.019	117.35
180.402	158.06
180.785	-501.5
181.168	-2087.5
181.55	570.59
181.933	144.69
182.316	134.98
182.698	167.19
183.081	292.67
183.463	6053.49
183.846	-1039.93
184.228	-716.71
184.611	5845.45
184.993	3264.56
185.376	-1900
185.758	-327.38
186.14	-239.66
186.522	-290.61
186.904	-1072.41
187.287	-1135.06
187.669	-329.91
188.051	-553.5
188.433	-613.63
188.815	-431.28
189.197	-343.13
189.579	-210.99
189.961	-170.06
190.342	-124.47
190.724	-73.26
191.106	-74.46
191.488	-80.46
191.869	-78.06
192.251	-59.55
192.633	-49.93
193.014	-56.59
193.396	-88.75
193.777	-95.11
194.159	-107.51
194.54	-71.5
194.922	-66.47
195.303	-60.99
195.684	-61.21
196.065	-49.99
196.447	-22.91
196.828	-43.94
197.209	-65.85
197.59	-85.8
197.971	-89.31
198.352	-63.09
198.733	-70.63
199.114	-40.26
199.495	-36.61
199.876	-22.11
200.257	-49.49
200.638	-76
201.018	-70.12
201.399	-56.11
201.78	-32.28
202.16	-49.86
202.541	-151.81
202.922	-424.24
203.302	-1129.57
203.683	-498.05
204.063	334100
204.444	-743.68
204.824	-281.05
205.204	-104.47
205.585	-129.15
205.965	-191.17
206.345	-520.79
206.725	-424.06
207.106	-827.31
207.486	1974.44
207.866	-2454.91
208.246	-333.88
208.626	-312.33
209.006	-225.69
209.386	-346.04
209.766	-346.96
210.145	-152.33
210.525	-79.27
210.905	-62
211.285	-26.96
211.664	-15.79
212.044	-33.1
212.424	-18.56
212.803	-39.79
213.183	-61.24
213.562	-34.78
213.942	-1.03
214.321	13.51
214.701	5.43
215.08	-13.8
215.459	-10.85
215.838	-23.1
216.218	-26.72
216.597	-66.24
216.976	-40.18
217.355	-41.22
217.734	-45.75
218.113	-72.94
218.492	-76.78
218.871	-77.05
219.25	-83.8
219.629	-94.25
220.008	-46.75
220.387	-53.33
220.766	-54.35
221.144	-53.7
221.523	-44.57
221.902	-49.85
222.28	-45.31
222.659	-27.52
223.037	-13.47
223.416	-13.82
223.794	-8.71
224.173	-14.47
224.551	-0.39
224.929	-7.21
225.308	-3.18
225.686	-0.36
226.064	7.84
226.442	10.57
226.821	17.49
227.199	17.14
227.577	12.97
227.955	14
228.333	13.88
228.711	15.29
229.089	12.84
229.467	9.16
229.845	6.53
230.222	4.62
230.6	1.83
230.978	-1.03
231.356	1.74
231.733	3.22
232.111	6.48
232.488	5.86
232.866	5.9
233.243	7.5
233.621	8.16
233.998	7.77
234.376	7.3
234.753	5.65
235.13	4.83
235.508	5.44
235.885	5.17
236.262	3.86
236.639	2.72
237.016	4.9
237.393	5.89
237.77	6.02
238.147	5.36
238.524	5.6
238.901	5.8
239.278	6.24
239.655	5.74
240.032	5.13
240.409	4.53
240.785	4.68
241.162	4.39
241.539	3.92
241.915	3.99
242.292	3.67
242.668	3.48
243.045	3.52
243.421	3.62
243.798	3.5
244.174	3.53
244.551	3.97
244.927	4
245.303	4.09
245.679	4.35
246.056	4.17
246.432	4.15
246.808	4.33
247.184	3.83
247.56	3.66
247.936	3.5
248.312	3.44
248.688	3.4
249.064	3.22
249.44	3.19
249.815	3.13
250.191	3.23
250.567	3.43
250.943	3.33
251.318	3.24
251.694	3.19
252.069	3.23
252.445	3.04
252.82	2.67
253.196	2.52
253.571	2.37
253.947	2.71
254.322	2.67
254.697	2.36
255.073	2.49
255.448	2.97
255.823	3.1
256.198	3.41
256.573	3.35
256.948	3.45
257.323	3.65
257.698	3.67
258.073	3.58
258.448	3.45
258.823	3.53
259.198	3.54
259.573	3.63
259.948	3.53
260.322	3.58
260.697	3.63
261.072	3.58
261.446	3.53
261.821	3.47
262.195	3.55
262.57	3.53
262.944	3.45
263.319	3.18
263.693	3.18
264.067	3.27
264.442	3.43
264.816	3.45
265.19	3.19
265.564	3.03
265.938	2.96
266.313	3
266.687	3
267.061	3.19
267.435	3.03
267.809	3.08
268.183	3.03
268.556	3.17
268.93	3.35
269.304	3.47
269.678	3.54
270.051	3.5
270.425	3.69
270.799	3.73
271.172	3.82
271.546	3.75
271.919	3.59
272.293	3.52
272.666	3.44
273.04	3.62
273.413	3.57
273.787	3.61
274.16	3.53
274.533	3.48
274.906	3.42
275.279	3.47
275.653	3.42
276.026	3.43
276.399	3.34
276.772	3.22
277.145	3.05
277.518	2.98
277.891	2.96
278.263	2.75
278.636	2.75
279.009	2.7
279.382	2.91
279.755	2.84
280.127	2.93
280.5	3.05
280.872	3.08
281.245	3.13
281.617	3.2
281.99	3.23
282.362	3.32
282.735	3.14
283.107	3.14
283.479	3.23
283.852	3.14
284.224	3.12
284.596	3.08
284.968	3.32
285.34	3.31
285.713	3.19
286.085	3.29
286.457	3.31
286.829	3.34
287.201	3.29
287.572	3.3
287.944	3.24
288.316	3.32
288.688	3.28
289.06	3.29
289.431	3.27
289.803	3.36
290.175	3.34
290.546	3.38
290.918	3.36
291.289	3.32
291.661	3.51
292.032	3.75
292.403	3.78
292.775	3.73
293.146	3.71
293.517	3.8
293.889	3.78
294.26	3.78
294.631	3.8
295.002	3.76
295.373	3.75
295.744	3.82
296.115	3.78
296.486	3.69
296.857	3.64
297.228	3.68
297.599	3.55
297.97	3.51
298.34	3.59
298.711	3.69
299.082	3.66
299.452	3.57
299.823	3.46
300.194	3.49
300.564	3.4
300.935	3.5
301.305	3.45
301.676	3.45
302.046	3.46
302.416	3.62
302.787	3.69
303.157	3.71
303.527	3.63
303.897	3.52
304.267	3.62
304.637	3.59
305.008	3.59
305.378	3.63
305.748	3.65
306.117	3.51
306.487	3.49
306.857	3.55
307.227	3.6
307.597	3.47
307.967	3.44
308.336	3.5
308.706	3.39
309.076	3.49
309.445	3.4
309.815	3.45
310.184	3.31
310.554	3.3
310.923	3.24
311.293	3.23
311.662	3.27
312.031	3.19
312.401	3.27
312.77	3.22
313.139	3.16
313.508	3.23
313.877	3.23
314.246	3.27
314.616	3.14
314.985	3.21
315.353	3.21
315.722	3.21
316.091	3.04
316.46	3.05
316.829	3.04
317.198	3.21
317.567	3.12
317.935	3.01
318.304	3.11
318.672	3.07
319.041	3.13
319.41	3.03
319.778	3
320.147	2.95
320.515	2.78
320.883	2.92
321.252	2.82
321.62	2.9
321.988	2.97
322.357	3.09
322.725	2.99
323.093	3.06
323.461	3.06
323.829	3.06
324.197	3.09
324.565	2.96
324.933	2.96
325.301	2.89
325.669	2.89
326.037	2.84
326.405	2.99
326.772	2.98
327.14	3.02
327.508	3.1
327.875	2.96
328.243	3.06
328.61	3.08
328.978	3.07
329.346	3.04
329.713	2.89
330.08	2.78
330.448	2.68
330.815	2.52
331.182	2.48
331.55	2.55
331.917	2.57
332.284	2.61
332.651	2.42
333.018	2.54
333.385	2.49
333.752	2.36
334.119	2.31
334.486	2.23
334.853	2.23
335.22	2.19
335.587	2.3
335.954	2.3
336.32	2.27
336.687	2.24
337.054	2.27
337.42	2.3
337.787	2.42
338.153	2.51
338.52	2.61
338.886	2.61
339.253	2.54
339.619	2.55
339.986	2.55
340.352	2.66
340.718	2.66
341.084	2.69
341.451	2.72
341.817	2.79
342.183	2.85
342.549	2.8
342.915	2.89
343.281	2.87
343.647	2.86
344.013	2.88
344.379	2.84
344.745	2.88
345.11	2.89
345.476	2.92
345.842	2.82
346.208	2.78
346.573	2.88
346.939	2.98
347.304	2.96
347.67	2.96
348.035	2.99
348.401	3.01
348.766	3.03
349.132	3.03
349.497	2.99
349.862	2.99
350.228	3
350.593	2.91
350.958	2.9
351.323	2.94
351.688	2.95
352.053	3.08
352.418	3.09
352.783	3.07
353.148	2.97
353.513	3
353.878	3.04
354.243	3.01
354.608	3.07
354.972	3.05
355.337	3.09
355.702	3.12
356.066	3.14
356.431	3.11
356.795	3.15
357.16	3.13
357.524	3.08
357.889	3.05
358.253	3.05
358.618	3.11
358.982	3.08
359.346	3.02
359.71	2.92
360.075	2.94
360.439	2.98
360.803	2.97
361.167	2.97
361.531	2.95
361.895	2.92
362.259	2.86
362.623	2.91
362.987	2.91
363.351	2.9
363.714	2.83
364.078	2.89
364.442	2.81
364.806	2.82
365.169	2.85
365.533	2.85
365.896	2.84
366.26	2.85
366.623	2.86
366.987	2.86
367.35	2.9
367.714	2.89
368.077	2.86
368.44	2.9
368.803	2.95
369.167	2.94
369.53	2.91
369.893	2.87
370.256	2.84
370.619	2.8
370.982	2.73
371.345	2.75
371.708	2.71
372.071	2.74
372.434	2.65
372.797	2.61
373.159	2.62
373.522	2.62
373.885	2.55
374.247	2.59
374.61	2.6
374.973	2.6
375.335	2.56
375.698	2.62
376.06	2.59
376.423	2.58
376.785	2.66
377.147	2.7
377.51	2.76
377.872	2.81
378.234	2.76
378.596	2.8
378.958	2.84
379.321	2.86
379.683	2.88
380.045	2.95
380.407	2.98
380.769	3.01
381.13	3.03
381.492	3.02
381.854	2.99
382.216	2.99
382.578	2.98
382.939	2.98
383.301	2.9
383.663	2.91
384.024	2.91
384.386	2.87
384.747	2.84
385.109	2.86
385.47	2.77
385.832	2.81
386.193	2.79
386.554	2.74
386.916	2.71
387.277	2.72
387.638	2.73
387.999	2.74
388.36	2.74
388.721	2.77
389.082	2.77
389.443	2.77
389.804	2.77
390.165	2.79
390.526	2.79
390.887	2.79
391.248	2.78
391.609	2.78
391.969	2.77
392.33	2.79
392.691	2.71
393.051	2.76
393.412	2.79
393.772	2.8
394.133	2.83
394.493	2.86
394.854	2.87
395.214	2.84
395.574	2.81
395.935	2.83
396.295	2.82
396.655	2.83
397.015	2.83
397.376	2.85
397.736	2.81
398.096	2.82
398.456	2.82
398.816	2.84
399.176	2.8
399.535	2.8
399.895	2.79
400.255	2.85
400.615	2.83
400.975	2.84
401.334	2.82
401.694	2.82
402.054	2.78
402.413	2.75
402.773	2.76
403.132	2.76
403.492	2.76
403.851	2.76
404.211	2.77
404.57	2.79
404.929	2.79
405.288	2.81
405.648	2.81
406.007	2.82
406.366	2.79
406.725	2.84
407.084	2.84
407.443	2.85
407.802	2.85
408.161	2.84
408.52	2.8
408.879	2.78
409.238	2.79
409.596	2.82
409.955	2.81
410.314	2.82
410.673	2.8
411.031	2.78
411.39	2.78
411.748	2.78
412.107	2.75
412.465	2.77
412.824	2.77
413.182	2.78
413.54	2.79
413.899	2.81
414.257	2.79
414.615	2.78
414.974	2.78
415.332	2.76
415.69	2.78
416.048	2.81
416.406	2.83
416.764	2.82
417.122	2.8
417.48	2.79
417.838	2.8
418.195	2.82
418.553	2.82
418.911	2.81
419.269	2.8
419.626	2.82
419.984	2.82
420.342	2.82
420.699	2.82
421.057	2.82
421.414	2.83
421.772	2.82
422.129	2.83
422.486	2.84
422.844	2.83
423.201	2.82
423.558	2.81
423.915	2.81
424.273	2.82
424.63	2.83
424.987	2.84
425.344	2.85
425.701	2.85
426.058	2.85
426.415	2.86
426.772	2.86
427.128	2.86
427.485	2.85
427.842	2.82
428.199	2.83
428.555	2.83
428.912	2.83
429.269	2.86
429.625	2.84
429.982	2.82
430.338	2.84
430.695	2.84
431.051	2.83
431.407	2.83
431.764	2.83
432.12	2.82
432.476	2.83
432.832	2.8
433.189	2.79
433.545	2.79
433.901	2.79
434.257	2.77
434.613	2.78
434.969	2.78
435.325	2.81
435.681	2.82
436.036	2.82
436.392	2.8
436.748	2.8
437.104	2.8
437.459	2.79
437.815	2.81
438.171	2.83
438.526	2.83
438.882	2.84
439.237	2.84
439.593	2.86
439.948	2.84
440.304	2.86
440.659	2.87
441.014	2.88
441.369	2.86
441.725	2.88
442.08	2.88
442.435	2.85
442.79	2.83
443.145	2.82
443.5	2.81
443.855	2.81
444.21	2.81
444.565	2.82
444.92	2.84
445.275	2.82
445.629	2.8
445.984	2.8
446.339	2.78
446.693	2.76
447.048	2.76
447.403	2.75
447.757	2.75
448.112	2.75
448.466	2.74
448.82	2.73
449.175	2.73
449.529	2.71
449.883	2.74
450.238	2.74
450.592	2.74
450.946	2.73
451.3	2.73
451.654	2.73
452.008	2.72
452.362	2.7
452.716	2.69
453.07	2.71
453.424	2.72
453.778	2.73
454.132	2.74
454.486	2.73
454.839	2.74
455.193	2.73
455.547	2.73
455.9	2.75
456.254	2.77
456.607	2.77
456.961	2.79
457.314	2.77
457.668	2.78
458.021	2.78
458.375	2.78
458.728	2.8
459.081	2.8
459.434	2.79
459.787	2.81
460.141	2.82
460.494	2.82
460.847	2.82
461.2	2.81
461.553	2.82
461.906	2.83
462.259	2.84
462.611	2.86
462.964	2.87
463.317	2.85
463.67	2.84
464.022	2.84
464.375	2.82
464.728	2.84
465.08	2.83
465.433	2.83
465.785	2.84
466.138	2.82
466.49	2.81
466.843	2.82
467.195	2.81
467.547	2.81
467.899	2.81
468.252	2.8
468.604	2.83
468.956	2.84
469.308	2.83
469.66	2.83
470.012	2.83
470.364	2.84
470.716	2.84
471.068	2.85
471.42	2.85
471.772	2.88
472.123	2.88
472.475	2.9
472.827	2.91
473.178	2.91
473.53	2.93
473.882	2.93
474.233	2.93
474.585	2.93
474.936	2.91
475.288	2.91
475.639	2.94
475.99	2.92
476.342	2.9
476.693	2.91
477.044	2.91
477.395	2.91
477.746	2.91
478.097	2.91
478.448	2.92
478.8	2.92
479.15	2.91
479.501	2.9
479.852	2.89
480.203	2.9
480.554	2.9
480.905	2.91
481.255	2.91
481.606	2.92
481.957	2.93
482.307	2.94
482.658	2.95
483.009	2.94
483.359	2.94
483.709	2.94
484.06	2.94
484.41	2.94
484.761	2.94
485.111	2.94
485.461	2.94
485.811	2.94
486.162	2.94
486.512	2.95
486.862	2.95
487.212	2.96
487.562	2.95
487.912	2.96
488.262	2.95
488.612	2.95
488.961	2.94
489.311	2.95
489.661	2.95
490.011	2.94
490.36	2.94
490.71	2.95
491.06	2.96
491.409	2.95
491.759	2.94
492.108	2.95
492.458	2.95
492.807	2.95
493.157	2.96
493.506	2.96
493.855	2.96
494.204	2.95
494.554	2.95
494.903	2.95
495.252	2.95
495.601	2.96
495.95	2.97
496.299	2.96
496.648	2.95
496.997	2.94
497.346	2.96
497.695	2.94
498.043	2.95
498.392	2.94
498.741	2.96
499.09	2.95
499.438	2.95
499.787	2.96
500.135	2.97
500.484	2.97
500.832	2.95
501.181	2.96
501.529	2.97
501.878	2.98
502.226	2.99
502.574	3
502.923	2.99
503.271	2.99
503.619	3
503.967	3.02
504.315	3.01
504.663	3.01
505.011	3.02
505.359	3.02
505.707	3.04
506.055	3.03
506.403	3.04
506.751	3.04
507.098	3.04
507.446	3.03
507.794	3.03
508.141	3.04
508.489	3.05
508.837	3.05
509.184	3.05
509.531	3.06
509.879	3.07
510.226	3.08
510.574	3.08
510.921	3.08
511.268	3.07
511.616	3.09
511.963	3.1
512.31	3.11
512.657	3.12
513.004	3.11
513.351	3.12
513.698	3.13
514.045	3.13
514.392	3.13
514.739	3.13
515.086	3.13
515.432	3.12
515.779	3.12
516.126	3.12
516.473	3.14
516.819	3.14
517.166	3.13
517.512	3.11
517.859	3.12
518.205	3.13
518.552	3.14
518.898	3.12
519.245	3.12
519.591	3.11
519.937	3.1
520.283	3.09
520.629	3.1
520.976	3.1
521.322	3.11
521.668	3.11
522.014	3.12
522.36	3.12
522.706	3.12
523.052	3.12
523.398	3.12
523.743	3.12
524.089	3.14
524.435	3.14
524.781	3.17
525.126	3.16
525.472	3.16
525.817	3.16
526.163	3.17
526.509	3.18
526.854	3.2
527.199	3.21
527.545	3.21
527.89	3.21
528.235	3.21
528.581	3.21
528.926	3.22
529.271	3.22
529.616	3.22
529.961	3.23
530.306	3.23
530.651	3.23
530.996	3.23
531.341	3.23
531.686	3.23
532.031	3.22
532.376	3.24
532.721	3.23
533.065	3.24
533.41	3.24
533.755	3.23
534.099	3.23
534.444	3.22
534.788	3.22
535.133	3.24
535.477	3.24
535.822	3.25
536.166	3.24
536.51	3.25
536.855	3.26
537.199	3.26
537.543	3.27
537.887	3.28
538.231	3.28
538.576	3.28
538.92	3.27
539.264	3.27
539.608	3.28
539.951	3.29
540.295	3.29
540.639	3.28
540.983	3.29
541.327	3.3
541.671	3.3
542.014	3.3
542.358	3.3
542.701	3.3
543.045	3.3
543.389	3.3
543.732	3.31
544.075	3.31
544.419	3.3
544.762	3.3
545.105	3.3
545.449	3.29
545.792	3.3
546.135	3.32
546.478	3.32
546.821	3.29
547.165	3.3
547.508	3.32
547.851	3.32
548.194	3.31
548.536	3.31
548.879	3.31
549.222	3.32
549.565	3.31
549.908	3.32
550.25	3.32
550.593	3.33
550.936	3.31
551.278	3.31
551.621	3.29
551.963	3.3
552.306	3.29
552.648	3.29
552.991	3.29
553.333	3.27
553.675	3.27
554.017	3.28
554.36	3.26
554.702	3.26
555.044	3.26
555.386	3.27
555.728	3.26
556.07	3.3
556.412	3.28
556.754	3.3
557.096	3.29
557.438	3.3
557.78	3.31
558.121	3.33
558.463	3.37
558.805	3.4
559.147	3.39
559.488	3.39
559.83	3.4
560.171	3.38
560.513	3.41
560.854	3.38
561.196	3.41
561.537	3.46
561.878	3.42
562.22	3.41
562.561	3.4
562.902	3.42
563.243	3.38
563.584	3.37
563.925	3.38
564.266	3.37
564.607	3.38
564.948	3.38
565.289	3.37
565.63	3.36
565.971	3.33
566.312	3.36
566.653	3.35
566.993	3.34
567.334	3.35
567.675	3.37
568.015	3.41
568.356	3.39
568.696	3.4
569.037	3.42
569.377	3.45
569.718	3.49
570.058	3.47
570.398	3.48
570.739	3.51
571.079	3.5
571.419	3.51
571.759	3.51
572.099	3.49
572.439	3.51
572.779	3.48
573.119	3.53
573.459	3.54
573.799	3.53
574.139	3.51
574.479	3.51
574.819	3.49
575.158	3.48
575.498	3.49
575.838	3.47
576.177	3.44
576.517	3.43
576.856	3.41
577.196	3.43
577.535	3.41
577.875	3.4
578.214	3.41
578.553	3.41
578.893	3.38
579.232	3.37
579.571	3.36
579.91	3.38
580.25	3.38
580.589	3.34
580.928	3.39
581.267	3.4
581.606	3.4
581.945	3.39
582.283	3.38
582.622	3.33
582.961	3.3
583.3	3.29
583.639	3.31
583.977	3.3
584.316	3.31
584.654	3.34
584.993	3.34
585.332	3.34
585.67	3.29
586.008	3.29
586.347	3.29
586.685	3.31
587.024	3.3
587.362	3.26
587.7	3.26
588.038	3.27
588.376	3.29
588.715	3.29
589.053	3.33
589.391	3.36
589.729	3.4
590.067	3.44
590.404	3.49
590.742	3.47
591.08	3.46
591.418	3.44
591.756	3.42
592.093	3.42
592.431	3.39
592.769	3.42
593.106	3.41
593.444	3.43
593.781	3.4
594.119	3.39
594.456	3.41
594.793	3.42
595.131	3.41
595.468	3.39
595.805	3.43
596.143	3.43
596.48	3.41
596.817	3.39
597.154	3.37
597.491	3.36
597.828	3.36
598.165	3.38
598.502	3.38
598.839	3.38
599.176	3.39
599.512	3.43
599.849	3.46
600.186	3.48
600.523	3.51
600.859	3.54
601.196	3.57
601.532	3.55
601.869	3.54
602.205	3.57
602.542	3.61
602.878	3.6
603.215	3.55
603.551	3.6
603.887	3.64
604.223	3.67
604.56	3.69
604.896	3.65
605.232	3.68
605.568	3.69
605.904	3.7
606.24	3.74
606.576	3.73
606.912	3.73
607.248	3.72
607.583	3.71
607.919	3.7
608.255	3.68
608.591	3.7
608.926	3.71
609.262	3.69
609.597	3.67
609.933	3.68
610.268	3.68
610.604	3.69
610.939	3.65
611.275	3.65
611.61	3.67
611.945	3.72
612.281	3.71
612.616	3.73
612.951	3.74
613.286	3.7
613.621	3.7
613.956	3.7
614.291	3.73
614.626	3.69
614.961	3.71
615.296	3.68
615.631	3.7
615.966	3.73
616.3	3.76
616.635	3.72
616.97	3.7
617.304	3.72
617.639	3.72
617.973	3.78
618.308	3.72
618.642	3.73
618.977	3.72
619.311	3.7
619.646	3.69
619.98	3.66
620.314	3.64
620.648	3.65
620.983	3.65
621.317	3.66
621.651	3.69
621.985	3.74
622.319	3.81
622.653	3.79
622.987	3.73
623.321	3.7
623.655	3.74
623.988	3.79
624.322	3.83
624.656	3.82
624.99	3.78
625.323	3.81
625.657	3.79
625.99	3.83
626.324	3.84
626.657	3.86
626.991	3.89
627.324	3.92
627.658	3.93
627.991	3.95
628.324	3.97
628.657	3.97
628.991	3.95
629.324	3.96
629.657	4
629.99	4.05
630.323	4.08
630.656	4.1
630.989	4.09
631.322	4.09
631.655	4.08
631.987	4.07
632.32	4.09
632.653	4.1
632.986	4.09
633.318	4.13
633.651	4.12
633.984	4.09
634.316	4.12
634.649	4.12
634.981	4.12
635.313	4.08
635.646	4.11
635.978	4.12
636.31	4.09
636.643	4.09
636.975	4.06
637.307	4.04
637.639	4.01
637.971	4.01
638.303	4.01
638.635	4.05
638.967	4.02
639.299	4
639.631	3.97
639.963	3.95
640.295	3.91
640.626	3.95
640.958	3.99
641.29	3.97
641.621	3.93
641.953	3.94
642.285	3.95
642.616	4
642.948	3.98
643.279	3.98
643.61	4.01
643.942	4.03
644.273	4.05
644.604	4.1
644.936	4.09
645.267	4.03
645.598	4
645.929	4.04
646.26	4.04
646.591	4.06
646.922	4.04
647.253	4.07
647.584	3.94
647.915	3.89
648.245	3.84
648.576	3.91
648.907	3.94
649.238	3.91
649.568	3.89
649.899	3.91
650.229	3.86
650.56	3.82
650.89	3.82
651.221	3.83
651.551	3.81
651.882	3.78
652.212	3.8
652.542	3.83
652.872	3.87
653.203	3.94
653.533	3.94
653.863	3.94
654.193	3.95
654.523	4.05
654.853	4.08
655.183	4.13
655.513	4.05
655.843	3.91
656.172	3.93
656.502	3.87
656.832	3.82
657.162	3.9
657.491	3.91
657.821	3.91
658.15	3.89
658.48	3.95
658.809	3.96
659.139	3.99
659.468	4
659.798	3.99
660.127	3.99
660.456	4.04
660.785	4.1
661.115	4.08
661.444	4.04
661.773	4.08
662.102	4.03
662.431	4.11
662.76	4.24
663.089	4.29
663.418	4.3
663.747	4.28
664.076	4.32
664.404	4.33
664.733	4.39
665.062	4.43
665.39	4.41
665.719	4.48
666.048	4.5
666.376	4.43
666.705	4.47
667.033	4.41
667.362	4.43
667.69	4.39
668.018	4.41
668.347	4.47
668.675	4.48
669.003	4.53
669.331	4.6
669.659	4.6
669.987	4.54
670.315	4.62
670.643	4.64
670.971	4.62
671.299	4.65
671.627	4.61
671.955	4.56
672.283	4.54
672.61	4.42
672.938	4.29
673.266	4.32
673.593	4.38
673.921	4.37
674.249	4.3
674.576	4.31
674.904	4.23
675.231	4.2
675.558	4.16
675.886	4.19
676.213	4.12
676.54	4.16
676.867	4.13
677.195	4.1
677.522	4.1
677.849	4.05
678.176	4.04
678.503	4
678.83	4.04
679.157	3.98
679.484	4.02
679.81	4.11
680.137	4.07
680.464	3.97
680.791	4
681.117	3.98
681.444	4
681.771	4.07
682.097	4.05
682.424	4.03
682.75	3.96
683.077	3.91
683.403	3.93
683.729	4.02
684.056	4.05
684.382	4.16
684.708	4.16
685.034	4.09
685.36	4.18
685.686	4.14
686.012	4.22
686.339	4.32
686.664	4.32
686.99	4.45
687.316	4.43
687.642	4.43
687.968	4.46
688.294	4.58
688.619	4.57
688.945	4.6
689.271	4.61
689.596	4.68
689.922	4.76
690.247	4.62
690.573	4.61
690.898	4.66
691.224	4.65
691.549	4.69
691.874	4.7
692.2	4.65
692.525	4.76
692.85	4.74
693.175	4.74
693.5	4.76
693.825	4.76
694.15	4.88
694.475	4.83
694.8	4.82
695.125	4.59
695.45	4.57
695.775	4.57
696.099	4.62
696.424	4.65
696.749	4.64
697.073	4.68
697.398	4.62
697.723	4.56
698.047	4.52
698.372	4.47
698.696	4.47
699.02	4.51
699.345	4.54
699.669	4.58
699.993	4.51
700.318	4.5
700.642	4.5
700.966	4.45
701.29	4.57
701.614	4.57
701.938	4.73
702.262	4.82
702.586	4.93
702.91	4.97
703.234	4.87
703.557	4.97
703.881	5.09
704.205	5.08
704.529	5.12
704.852	5.14
705.176	5.23
705.499	5.36
705.823	5.35
706.146	5.3
706.47	5.25
706.793	5.26
707.117	5.27
707.44	5.21
707.763	5.24
708.086	5.11
708.409	5.11
708.733	5.07
709.056	4.98
709.379	4.91
709.702	4.83
710.025	4.93
710.348	4.76
710.671	4.64
710.993	4.8
711.316	4.86
711.639	4.88
711.962	4.96
712.284	4.91
712.607	4.98
712.93	5.04
713.252	5.01
713.575	5.07
713.897	5.08
714.22	5.08
714.542	5.12
714.864	5
715.187	5.1
715.509	5.21
715.831	5.25
716.153	5.27
716.475	5.28
716.798	5.33
717.12	5.34
717.442	5.49
717.764	5.42
718.085	5.23
718.407	5.17
718.729	5.11
719.051	5.16
719.373	5.04
719.695	4.77
720.016	4.9
720.338	4.83
720.659	4.95
720.981	4.89
721.302	4.9
721.624	5.07
721.945	4.9
722.267	4.79
722.588	4.69
722.909	4.63
723.231	4.63
723.552	4.44
723.873	4.5
724.194	4.45
724.515	4.4
724.836	4.54
725.157	4.63
725.478	4.61
725.799	4.64
726.12	4.71
726.441	5.04
726.762	5.03
727.083	4.99
727.403	4.9
727.724	4.99
728.045	5.02
728.365	5.02
728.686	5.09
729.006	5.14
729.327	5.22
729.647	5.34
729.967	5.3
730.288	5.39
730.608	5.41
730.928	5.34
731.249	5.38
731.569	5.38
731.889	5.47
732.209	5.53
732.529	5.52
732.849	5.59
733.169	5.52
733.489	5.62
733.809	5.78
734.129	5.84
734.448	5.97
734.768	5.92
735.088	6.01
735.408	6.08
735.727	6.14
736.047	6.15
736.366	5.95
736.686	6.04
737.005	6.17
737.325	6
737.644	6.13
737.963	6.25
738.283	6.31
738.602	6.2
738.921	6.27
739.24	6.24
739.56	6
739.879	5.95
740.198	5.89
740.517	5.67
740.836	5.68
741.155	5.59
741.473	5.61
741.792	5.46
742.111	5.47
742.43	5.4
742.748	5.34
743.067	5.47
743.386	5.49
743.704	5.29
744.023	5.53
744.341	5.32
744.66	5.48
744.978	5.29
745.297	5.19
745.615	5.25
745.933	5.45
746.252	5.8
746.57	5.69
746.888	5.48
747.206	5.63
747.524	5.56
747.842	5.54
748.16	5.56
748.478	5.66
748.796	5.63
749.114	5.78
749.432	5.85
749.749	5.97
750.067	5.81
750.385	5.97
750.703	5.97
751.02	6.04
751.338	5.82
751.655	5.94
751.973	5.86
752.29	5.71
752.608	5.59
752.925	5.4
753.242	5.59
753.56	5.5
753.877	5.53
754.194	5.65
754.511	5.95
754.828	5.76
755.145	5.85
755.462	5.8
755.779	5.83
756.096	5.84
756.413	6.07
756.73	6.06
757.047	6.04
757.364	6.2
757.68	6.47
757.997	6.21
758.314	6.24
758.63	6.61
758.947	6.49
759.264	6.34
759.58	6.32
759.896	6.39
760.213	6.58
760.529	6.54
760.846	6.47
761.162	6.19
761.478	6.43
761.794	6.37
762.11	6.29
762.426	6.28
762.743	6.35
763.059	6.1
763.375	6.38
763.69	6.53
764.006	6.39
764.322	6.26
764.638	6.49
764.954	6.76
765.27	6.57
765.585	6.73
765.901	6.75
766.216	6.74
766.532	6.71
766.848	6.56
767.163	6.63
767.478	6.56
767.794	6.69
768.109	6.63
768.424	6.64
768.74	6.86
769.055	6.8
769.37	6.91
769.685	6.77
770	6.8
770.315	6.47
770.63	6.6
770.945	6.61
771.26	6.58
771.575	6.26
771.89	6.4
772.205	6.24
772.52	6.31
772.834	6.23
773.149	6.16
773.464	6.1
773.778	6
774.093	5.61
774.407	5.94
774.722	5.97
775.036	6
775.351	6.09
775.665	5.76
775.979	5.56
776.293	5.85
776.608	5.66
776.922	5.72
777.236	5.78
777.55	5.91
777.864	5.84
778.178	5.79
778.492	5.96
778.806	5.77
779.12	5.74
779.434	5.83
779.747	6.04
780.061	6.43
780.375	6.47
780.689	7.16
781.002	6.67
781.316	6.94
781.629	7.35
781.943	7.28
782.256	7.56
782.57	7.46
782.883	7.37
783.196	7.16
783.51	7.16
783.823	7.22
784.136	6.96
784.449	7.01
784.762	7.13
785.075	6.97
785.388	7.36
785.701	7.58
786.014	7.67
786.327	7.36
786.64	7.81
786.953	8.23
787.266	7.85
787.578	8.1
787.891	7.44
788.204	6.95
788.516	7.07
788.829	7.33
789.141	7.45
789.454	7.73
789.766	7.89
790.079	8.11
790.391	7.71
790.703	7.89
791.016	7.83
791.328	7.96
791.64	8.09
791.952	8.36
792.264	7.93
792.576	8.07
792.888	8.19
793.2	7.86
793.512	7.31
793.824	7.22
794.136	6.9
794.448	7.45
794.76	7.56
795.071	7.56
795.383	7.21
795.695	7.12
796.006	6.83
796.318	6.91
796.629	7.18
796.941	7.35
797.252	7.85
797.564	8.03
797.875	7.97
798.186	7.56
798.497	7.01
798.809	7.2
799.12	7.35
799.431	7.49
799.742	7.6
800.053	7.69
800.364	8.33
800.675	8.01
800.986	7.91
801.297	7.91
801.608	7.59
801.918	7.92
802.229	8.3
802.54	8.55
802.851	8.56
803.161	8.32
803.472	8.62
803.782	8.33
804.093	8.05
804.403	7.31
804.714	8.1
805.024	8.27
805.334	8.44
805.645	8.55
805.955	8.44
806.265	7.96
806.575	8.15
806.885	7.95
807.195	8.25
807.505	8.46
807.815	8.69
808.125	8.28
808.435	8.14
808.745	7.55
809.055	7.65
809.365	7.26
809.674	6.86
809.984	6.81
810.294	6.46
810.603	6.98
810.913	7.91
811.222	8.12
811.532	8.53
811.841	8.3
812.151	8.05
812.46	7.42
812.769	7.28
813.079	6.57
813.388	6.43
813.697	7.08
814.006	6.69
814.315	6.35
814.624	6.94
814.933	7.14
815.242	7
815.551	6.87
815.86	6.76
816.169	6.94
816.478	6.58
816.786	6.85
817.095	6.72
817.404	6.64
817.712	6.13
818.021	6.57
818.33	6.92
818.638	7.28
818.947	7.95
819.255	8.56
819.563	9.05
819.872	8.69
820.18	8.48
820.488	8.67
820.796	8.76
821.105	8.8
821.413	8.68
821.721	8.93
822.029	8.92
822.337	9.09
822.645	9.2
822.953	9.32
823.26	9.36
823.568	9.43
823.876	9.51
824.184	9.37
824.491	9.14
824.799	9.11
825.107	9.01
825.414	9.01
825.722	9.07
826.029	9.14
826.337	9.42
826.644	9.46
826.951	9.4
827.259	9.48
827.566	9.44
827.873	9.39
828.18	9.33
828.488	9.38
828.795	9.47
829.102	9.43
829.409	9.31
829.716	9.15
830.023	9.23
830.329	9.25
830.636	9.37
830.943	9.76
831.25	9.92
831.557	9.9
831.863	10.19
832.17	10.07
832.476	10.13
832.783	10
833.089	10.02
833.396	10.17
833.702	9.99
834.009	10.12
834.315	10.23
834.621	10.16
834.928	10.1
835.234	10.48
835.54	10.44
835.846	10.77
836.152	10.62
836.458	10.01
836.764	9.67
837.07	9.68
837.376	9.2
837.682	8.87
837.988	9.04
838.293	8.63
838.599	8.64
838.905	8.08
839.211	7.84
839.516	7.98
839.822	7.92
840.127	8.15
840.433	7.98
840.738	8.05
841.044	8.21
841.349	8.23
841.654	6.59
841.959	6.26
842.265	6.14
842.57	7.17
842.875	7.44
843.18	8.13
843.485	9.12
843.79	9.21
844.095	9.65
844.4	9.8
844.705	9.54
845.01	9.07
845.315	9.54
845.619	9.6
845.924	9.67
846.229	9.93
846.533	10.07
846.838	11.45
847.142	11.09
847.447	9.93
847.751	11.46
848.056	12.99
848.36	13.77
848.664	14.46
848.969	14.17
849.273	13.76
849.577	14.06
849.881	13.15
850.185	14.03
850.489	14.68
850.794	13.33
851.097	14.59
851.401	15.34
851.705	14.7
852.009	15.92
852.313	17.12
852.617	15.51
852.92	15.49
853.224	15.09
853.528	15.7
853.831	16.87
854.135	14.43
854.438	12.32
854.742	12.84
855.045	12.07
855.349	10.77
855.652	11.91
855.955	10.96
856.259	11.22
856.562	11.76
856.865	10.61
857.168	12.33
857.471	12.4
857.774	11.02
858.077	11.52
858.38	11.08
858.683	10.04
858.986	11.74
859.289	11.42
859.592	11.15
859.894	10.74
860.197	12.67
860.5	14.66
860.802	16.4
861.105	15.07
861.407	15.16
861.71	15.46
862.012	16.51
862.315	13.75
862.617	11.74
862.919	10.47
863.222	11.82
863.524	10.34
863.826	9.28
864.128	10.26
864.43	10.77
864.732	10.35
865.034	10.3
865.336	9.72
865.638	9.17
865.94	8.83
866.242	9.91
866.544	8.06
866.846	7.16
867.147	5.85
867.449	7.14
867.751	9.39
868.052	9.94
868.354	7.35
868.655	10.82
868.957	13.17
869.258	12.42
869.56	11.33
869.861	12.41
870.162	12.33
870.463	13.19
870.765	12.28
871.066	11.3
871.367	10.94
871.668	11.02
871.969	11.68
872.27	9.47
872.571	9.32
872.872	9.83
873.173	9.33
873.473	10.67
873.774	11.23
874.075	6.18
874.376	4.78
874.676	7.07
874.977	4.83
875.277	5.6
875.578	6.61
875.878	6.97
876.179	7.23
876.479	7.49
876.78	5.58
877.08	6.48
877.38	7.37
877.68	7.07
877.981	6.41
878.281	5.96
878.581	9.14
