Data from BA28474_Reflection_00014.txt Node
Date: Mon Nov 18 15:31:02 EST 2019
User: vgr7
Spectrometer: USB2G7710
Scans to average: 3
Trigger mode: 4
Integration Time (sec): 2.000000E-2
Electric dark correction enabled: true
Boxcar width: 10
XAxis mode: Wavelengths
Number of Pixels in Spectrum: 2048
>>>>>Begin Spectral Data<<<<<
177.721	19.27
178.105	-6.15
178.488	-38.2
178.871	-103.49
179.254	-467.16
179.636	0.76
180.019	-315.09
180.402	82.22
180.785	155.78
181.168	-86.57
181.55	-111.06
181.933	283.78
182.316	55.2
182.698	68.59
183.081	59.55
183.463	66.8
183.846	55.39
184.228	-1233.33
184.611	-54.84
184.993	-5.26
185.376	34.16
185.758	34.52
186.14	18.22
186.522	9.85
186.904	18.53
187.287	16.25
187.669	85.36
188.051	111.56
188.433	109.51
188.815	105.43
189.197	158.29
189.579	205.26
189.961	133.01
190.342	67.89
190.724	58.01
191.106	55.93
191.488	61.25
191.869	47.61
192.251	31.46
192.633	85.36
193.014	50.53
193.396	-8.2
193.777	-5.83
194.159	2.96
194.54	-9.8
194.922	-17.24
195.303	-34.25
195.684	-38.82
196.065	-28.31
196.447	-52.15
196.828	-49.95
197.209	-63.75
197.59	-44.27
197.971	-52.81
198.352	-32.94
198.733	-42.74
199.114	-25.65
199.495	-29.61
199.876	-17.65
200.257	-3.32
200.638	-8.25
201.018	-14.16
201.399	12.97
201.78	22.27
202.16	21.8
202.541	21.33
202.922	-0.2
203.302	-13.52
203.683	-17.65
204.063	-1.36
204.444	49
204.824	41.07
205.204	51.68
205.585	42.28
205.965	95.7
206.345	59.33
206.725	92.08
207.106	152.48
207.486	135.09
207.866	460.36
208.246	215.83
208.626	179.3
209.006	107.21
209.386	63.3
209.766	67.21
210.145	29.6
210.525	41.61
210.905	37.26
211.285	42.21
211.664	57.58
212.044	41.05
212.424	35.65
212.803	37.36
213.183	50.75
213.562	45.78
213.942	46.23
214.321	53.56
214.701	50.6
215.08	28.83
215.459	40.41
215.838	35.44
216.218	17.73
216.597	33.29
216.976	37.45
217.355	36.4
217.734	26.08
218.113	28.93
218.492	20.73
218.871	14.48
219.25	43.71
219.629	15.79
220.008	13.19
220.387	5.44
220.766	-0.83
221.144	-21
221.523	-11.78
221.902	-23.64
222.28	-32.29
222.659	-29.74
223.037	-21.66
223.416	-33.99
223.794	-37.74
224.173	-26.79
224.551	-18.36
224.929	-10.79
225.308	-4.97
225.686	1.1
226.064	7.18
226.442	8.24
226.821	8.64
227.199	-0.06
227.577	1.25
227.955	1.72
228.333	-0.85
228.711	4.41
229.089	6.48
229.467	3.29
229.845	1.39
230.222	-0.12
230.6	-0.21
230.978	0.33
231.356	2.19
231.733	3.06
232.111	3.05
232.488	3.3
232.866	2.81
233.243	2.5
233.621	1.35
233.998	-0.5
234.376	-0.28
234.753	2.51
235.13	5.89
235.508	6.26
235.885	5.14
236.262	6.62
236.639	5.65
237.016	4.59
237.393	5.49
237.77	6.89
238.147	7.25
238.524	7.37
238.901	7.3
239.278	7.16
239.655	7.08
240.032	6.77
240.409	5.78
240.785	5.92
241.162	5.94
241.539	6.11
241.915	6.92
242.292	6.5
242.668	5.89
243.045	5.22
243.421	5.21
243.798	5.12
244.174	5.06
244.551	4.75
244.927	4.79
245.303	4.99
245.679	4.99
246.056	5.05
246.432	5.03
246.808	5.03
247.184	4.87
247.56	4.5
247.936	4.35
248.312	4.31
248.688	4.36
249.064	4.42
249.44	4.27
249.815	4.29
250.191	4.44
250.567	4.58
250.943	4.8
251.318	4.82
251.694	5.17
252.069	5.04
252.445	5.25
252.82	5.56
253.196	5.5
253.571	5.42
253.947	5.46
254.322	5.88
254.697	5.52
255.073	5.52
255.448	5.49
255.823	5.52
256.198	5.53
256.573	5.13
256.948	5.13
257.323	5.18
257.698	5.07
258.073	4.96
258.448	4.79
258.823	4.77
259.198	4.46
259.573	4.12
259.948	4.28
260.322	4.4
260.697	4.22
261.072	4.13
261.446	4.2
261.821	4.25
262.195	4.22
262.57	4.26
262.944	4.29
263.319	4.45
263.693	4.38
264.067	4.45
264.442	4.61
264.816	4.47
265.19	4.42
265.564	4.29
265.938	4.44
266.313	4.31
266.687	4.33
267.061	4.69
267.435	5.02
267.809	4.89
268.183	4.66
268.556	4.72
268.93	4.67
269.304	4.57
269.678	4.52
270.051	4.48
270.425	4.49
270.799	4.51
271.172	4.47
271.546	4.5
271.919	4.42
272.293	4.45
272.666	4.64
273.04	4.74
273.413	4.71
273.787	4.46
274.16	4.45
274.533	4.44
274.906	4.4
275.279	4.28
275.653	4.35
276.026	4.32
276.399	4.33
276.772	4.54
277.145	4.54
277.518	4.51
277.891	4.61
278.263	4.61
278.636	4.69
279.009	4.53
279.382	4.56
279.755	4.68
280.127	4.87
280.5	4.79
280.872	4.74
281.245	4.68
281.617	4.89
281.99	5.11
282.362	5.05
282.735	4.95
283.107	5.01
283.479	5.08
283.852	5.09
284.224	5.02
284.596	4.9
284.968	5
285.34	5.12
285.713	4.96
286.085	4.95
286.457	4.9
286.829	5.07
287.201	5.07
287.572	5.02
287.944	4.85
288.316	4.85
288.688	4.78
289.06	4.77
289.431	4.75
289.803	4.75
290.175	4.86
290.546	4.99
290.918	5.11
291.289	5.15
291.661	5.2
292.032	5.17
292.403	5.27
292.775	5.17
293.146	5.03
293.517	4.94
293.889	5.13
294.26	5.12
294.631	5.04
295.002	5.12
295.373	5.21
295.744	5.24
296.115	5.21
296.486	5.27
296.857	5.35
297.228	5.39
297.599	5.35
297.97	5.37
298.34	5.21
298.711	5.24
299.082	5.18
299.452	5.26
299.823	5.35
300.194	5.36
300.564	5.4
300.935	5.49
301.305	5.61
301.676	5.62
302.046	5.7
302.416	5.95
302.787	5.93
303.157	5.94
303.527	5.95
303.897	6.13
304.267	6.25
304.637	6.33
305.008	6.43
305.378	6.51
305.748	6.59
306.117	6.82
306.487	6.83
306.857	6.86
307.227	6.91
307.597	6.99
307.967	7.03
308.336	7.29
308.706	7.44
309.076	7.53
309.445	7.54
309.815	7.54
310.184	7.52
310.554	7.66
310.923	7.7
311.293	7.8
311.662	7.89
312.031	7.83
312.401	7.88
312.77	7.94
313.139	8.12
313.508	8.08
313.877	8.13
314.246	8.11
314.616	8.1
314.985	8.29
315.353	8.29
315.722	8.39
316.091	8.23
316.46	8.04
316.829	8.22
317.198	8.39
317.567	8.33
317.935	8.45
318.304	8.45
318.672	8.48
319.041	8.63
319.41	8.38
319.778	8.61
320.147	8.74
320.515	8.65
320.883	8.67
321.252	8.79
321.62	8.8
321.988	9.01
322.357	8.91
322.725	8.86
323.093	8.94
323.461	9.1
323.829	9.28
324.197	9.51
324.565	9.48
324.933	9.43
325.301	9.77
325.669	9.78
326.037	9.85
326.405	9.92
326.772	10.05
327.14	10.37
327.508	10.3
327.875	10.26
328.243	10.46
328.61	10.51
328.978	10.61
329.346	10.75
329.713	10.73
330.08	11
330.448	11.01
330.815	11.07
331.182	10.91
331.55	10.94
331.917	11.09
332.284	11.1
332.651	11.12
333.018	11.04
333.385	11
333.752	10.99
334.119	11.04
334.486	10.97
334.853	10.82
335.22	10.87
335.587	11.14
335.954	11.13
336.32	11.11
336.687	11.08
337.054	11.11
337.42	11.09
337.787	11.14
338.153	11.05
338.52	11.13
338.886	11.29
339.253	11.23
339.619	11.22
339.986	11.35
340.352	11.53
340.718	11.52
341.084	11.6
341.451	11.66
341.817	11.72
342.183	11.79
342.549	11.88
342.915	11.94
343.281	11.88
343.647	11.8
344.013	11.91
344.379	11.91
344.745	11.9
345.11	11.94
345.476	11.93
345.842	12.02
346.208	11.98
346.573	11.96
346.939	12.11
347.304	12.14
347.67	11.99
348.035	11.96
348.401	11.98
348.766	12.05
349.132	12.15
349.497	12.06
349.862	12.02
350.228	12
350.593	11.97
350.958	11.91
351.323	12.03
351.688	11.99
352.053	12.03
352.418	12.03
352.783	12.11
353.148	12.13
353.513	12.2
353.878	12.22
354.243	12.36
354.608	12.3
354.972	12.24
355.337	12.34
355.702	12.34
356.066	12.36
356.431	12.26
356.795	12.17
357.16	12.24
357.524	12.24
357.889	12.19
358.253	12.16
358.618	12.19
358.982	12.09
359.346	12.01
359.71	11.99
360.075	11.95
360.439	11.85
360.803	11.83
361.167	11.75
361.531	11.73
361.895	11.55
362.259	11.52
362.623	11.57
362.987	11.52
363.351	11.47
363.714	11.42
364.078	11.39
364.442	11.37
364.806	11.36
365.169	11.25
365.533	11.26
365.896	11.22
366.26	11.12
366.623	11.13
366.987	11.17
367.35	11.09
367.714	11.05
368.077	11.06
368.44	11.03
368.803	10.99
369.167	10.89
369.53	10.85
369.893	10.8
370.256	10.69
370.619	10.63
370.982	10.55
371.345	10.48
371.708	10.42
372.071	10.34
372.434	10.2
372.797	10.17
373.159	10.07
373.522	10.04
373.885	9.98
374.247	9.91
374.61	9.82
374.973	9.72
375.335	9.64
375.698	9.61
376.06	9.5
376.423	9.44
376.785	9.44
377.147	9.4
377.51	9.37
377.872	9.21
378.234	9.17
378.596	9.14
378.958	9.02
379.321	8.94
379.683	8.9
380.045	8.86
380.407	8.77
380.769	8.73
381.13	8.65
381.492	8.61
381.854	8.57
382.216	8.47
382.578	8.45
382.939	8.43
383.301	8.29
383.663	8.24
384.024	8.16
384.386	8.14
384.747	8.14
385.109	8.02
385.47	8.03
385.832	7.95
386.193	7.88
386.554	7.88
386.916	7.82
387.277	7.76
387.638	7.72
387.999	7.7
388.36	7.63
388.721	7.6
389.082	7.49
389.443	7.38
389.804	7.33
390.165	7.27
390.526	7.21
390.887	7.14
391.248	7.1
391.609	7.08
391.969	6.95
392.33	6.85
392.691	6.79
393.051	6.75
393.412	6.76
393.772	6.68
394.133	6.64
394.493	6.61
394.854	6.57
395.214	6.54
395.574	6.5
395.935	6.48
396.295	6.39
396.655	6.38
397.015	6.35
397.376	6.3
397.736	6.25
398.096	6.22
398.456	6.22
398.816	6.17
399.176	6.11
399.535	6.08
399.895	6.03
400.255	6.01
400.615	5.97
400.975	5.87
401.334	5.85
401.694	5.79
402.054	5.78
402.413	5.71
402.773	5.62
403.132	5.57
403.492	5.52
403.851	5.51
404.211	5.44
404.57	5.42
404.929	5.42
405.288	5.35
405.648	5.29
406.007	5.24
406.366	5.22
406.725	5.21
407.084	5.19
407.443	5.17
407.802	5.17
408.161	5.15
408.52	5.14
408.879	5.11
409.238	5.11
409.596	5.06
409.955	5.08
410.314	5.07
410.673	5.02
411.031	5.01
411.39	4.98
411.748	4.99
412.107	4.98
412.465	4.95
412.824	4.98
413.182	4.97
413.54	4.99
413.899	4.97
414.257	4.94
414.615	4.89
414.974	4.89
415.332	4.86
415.69	4.82
416.048	4.77
416.406	4.76
416.764	4.72
417.122	4.71
417.48	4.66
417.838	4.64
418.195	4.67
418.553	4.61
418.911	4.62
419.269	4.6
419.626	4.57
419.984	4.54
420.342	4.51
420.699	4.49
421.057	4.46
421.414	4.43
421.772	4.42
422.129	4.43
422.486	4.4
422.844	4.37
423.201	4.36
423.558	4.35
423.915	4.33
424.273	4.31
424.63	4.28
424.987	4.28
425.344	4.27
425.701	4.23
426.058	4.23
426.415	4.2
426.772	4.19
427.128	4.17
427.485	4.17
427.842	4.16
428.199	4.16
428.555	4.15
428.912	4.14
429.269	4.14
429.625	4.11
429.982	4.1
430.338	4.09
430.695	4.08
431.051	4.07
431.407	4.06
431.764	4.08
432.12	4.08
432.476	4.06
432.832	4.03
433.189	4.03
433.545	4.06
433.901	4.05
434.257	4.04
434.613	4.07
434.969	4.05
435.325	4.04
435.681	4.02
436.036	4.01
436.392	4.02
436.748	4
437.104	4.01
437.459	4.02
437.815	4.03
438.171	4.03
438.526	4.05
438.882	4.06
439.237	4.05
439.593	4.06
439.948	4.05
440.304	4.08
440.659	4.07
441.014	4.06
441.369	4.04
441.725	4.03
442.08	4.01
442.435	4
442.79	4.01
443.145	4
443.5	4
443.855	4
444.21	4
444.565	3.98
444.92	3.99
445.275	3.98
445.629	3.98
445.984	3.96
446.339	3.91
446.693	3.9
447.048	3.88
447.403	3.86
447.757	3.84
448.112	3.83
448.466	3.82
448.82	3.83
449.175	3.84
449.529	3.83
449.883	3.83
450.238	3.81
450.592	3.8
450.946	3.79
451.3	3.75
451.654	3.74
452.008	3.75
452.362	3.71
452.716	3.69
453.07	3.67
453.424	3.68
453.778	3.69
454.132	3.7
454.486	3.69
454.839	3.68
455.193	3.67
455.547	3.66
455.9	3.65
456.254	3.65
456.607	3.64
456.961	3.64
457.314	3.64
457.668	3.64
458.021	3.63
458.375	3.64
458.728	3.64
459.081	3.64
459.434	3.63
459.787	3.66
460.141	3.67
460.494	3.69
460.847	3.69
461.2	3.69
461.553	3.71
461.906	3.71
462.259	3.77
462.611	3.79
462.964	3.81
463.317	3.82
463.67	3.84
464.022	3.86
464.375	3.87
464.728	3.89
465.08	3.92
465.433	3.94
465.785	3.97
466.138	3.99
466.49	4.02
466.843	4.03
467.195	4.03
467.547	4.06
467.899	4.04
468.252	4.08
468.604	4.11
468.956	4.12
469.308	4.16
469.66	4.12
470.012	4.13
470.364	4.16
470.716	4.16
471.068	4.17
471.42	4.17
471.772	4.21
472.123	4.21
472.475	4.2
472.827	4.24
473.178	4.25
473.53	4.24
473.882	4.25
474.233	4.27
474.585	4.25
474.936	4.24
475.288	4.27
475.639	4.26
475.99	4.24
476.342	4.23
476.693	4.22
477.044	4.23
477.395	4.23
477.746	4.22
478.097	4.2
478.448	4.17
478.8	4.16
479.15	4.13
479.501	4.12
479.852	4.12
480.203	4.1
480.554	4.1
480.905	4.1
481.255	4.11
481.606	4.11
481.957	4.11
482.307	4.11
482.658	4.11
483.009	4.11
483.359	4.11
483.709	4.1
484.06	4.09
484.41	4.11
484.761	4.11
485.111	4.09
485.461	4.1
485.811	4.11
486.162	4.11
486.512	4.12
486.862	4.13
487.212	4.13
487.562	4.14
487.912	4.14
488.262	4.15
488.612	4.14
488.961	4.14
489.311	4.15
489.661	4.15
490.011	4.16
490.36	4.15
490.71	4.17
491.06	4.18
491.409	4.18
491.759	4.17
492.108	4.18
492.458	4.21
492.807	4.22
493.157	4.23
493.506	4.26
493.855	4.27
494.204	4.29
494.554	4.32
494.903	4.32
495.252	4.35
495.601	4.37
495.95	4.41
496.299	4.44
496.648	4.48
496.997	4.51
497.346	4.54
497.695	4.59
498.043	4.62
498.392	4.66
498.741	4.74
499.09	4.78
499.438	4.84
499.787	4.92
500.135	4.98
500.484	5.05
500.832	5.12
501.181	5.18
501.529	5.24
501.878	5.3
502.226	5.39
502.574	5.47
502.923	5.54
503.271	5.6
503.619	5.68
503.967	5.77
504.315	5.85
504.663	5.97
505.011	6.04
505.359	6.13
505.707	6.24
506.055	6.32
506.403	6.46
506.751	6.55
507.098	6.61
507.446	6.72
507.794	6.83
508.141	6.93
508.489	7.05
508.837	7.17
509.184	7.31
509.531	7.43
509.879	7.54
510.226	7.67
510.574	7.8
510.921	7.92
511.268	8.03
511.616	8.17
511.963	8.3
512.31	8.44
512.657	8.59
513.004	8.72
513.351	8.9
513.698	9.02
514.045	9.17
514.392	9.34
514.739	9.52
515.086	9.7
515.432	9.85
515.779	10.01
516.126	10.18
516.473	10.34
516.819	10.48
517.166	10.62
517.512	10.76
517.859	10.9
518.205	11.04
518.552	11.2
518.898	11.33
519.245	11.45
519.591	11.58
519.937	11.71
520.283	11.89
520.629	12.05
520.976	12.24
521.322	12.42
521.668	12.61
522.014	12.79
522.36	12.98
522.706	13.19
523.052	13.42
523.398	13.66
523.743	13.91
524.089	14.16
524.435	14.41
524.781	14.67
525.126	14.91
525.472	15.14
525.817	15.33
526.163	15.51
526.509	15.71
526.854	15.88
527.199	16.05
527.545	16.2
527.89	16.34
528.235	16.49
528.581	16.66
528.926	16.83
529.271	16.99
529.616	17.18
529.961	17.36
530.306	17.54
530.651	17.72
530.996	17.91
531.341	18.11
531.686	18.34
532.031	18.55
532.376	18.77
532.721	18.98
533.065	19.21
533.41	19.46
533.755	19.69
534.099	19.96
534.444	20.23
534.788	20.49
535.133	20.76
535.477	21.04
535.822	21.32
536.166	21.6
536.51	21.92
536.855	22.22
537.199	22.57
537.543	22.93
537.887	23.3
538.231	23.67
538.576	24.05
538.92	24.4
539.264	24.74
539.608	25.07
539.951	25.41
540.295	25.71
540.639	25.98
540.983	26.26
541.327	26.5
541.671	26.75
542.014	27.03
542.358	27.27
542.701	27.52
543.045	27.8
543.389	28.1
543.732	28.37
544.075	28.64
544.419	28.9
544.762	29.18
545.105	29.45
545.449	29.73
545.792	30
546.135	30.3
546.478	30.63
546.821	30.97
547.165	31.27
547.508	31.63
547.851	32
548.194	32.35
548.536	32.71
548.879	33.06
549.222	33.42
549.565	33.78
549.908	34.13
550.25	34.51
550.593	34.86
550.936	35.22
551.278	35.58
551.621	35.98
551.963	36.3
552.306	36.63
552.648	36.99
552.991	37.33
553.333	37.63
553.675	37.98
554.017	38.27
554.36	38.62
554.702	38.86
555.044	39.16
555.386	39.45
555.728	39.76
556.07	40.01
556.412	40.28
556.754	40.58
557.096	40.91
557.438	41.13
557.78	41.41
558.121	41.74
558.463	41.95
558.805	42.16
559.147	42.4
559.488	42.7
559.83	42.94
560.171	43.17
560.513	43.4
560.854	43.6
561.196	43.89
561.537	44.15
561.878	44.43
562.22	44.7
562.561	44.92
562.902	45.18
563.243	45.51
563.584	45.75
563.925	46.02
564.266	46.16
564.607	46.38
564.948	46.56
565.289	46.65
565.63	46.89
565.971	47.12
566.312	47.33
566.653	47.47
566.993	47.67
567.334	47.82
567.675	48.04
568.015	48.19
568.356	48.34
568.696	48.45
569.037	48.63
569.377	48.71
569.718	48.91
570.058	49.03
570.398	49.08
570.739	49.21
571.079	49.33
571.419	49.5
571.759	49.69
572.099	49.86
572.439	50.05
572.779	50.2
573.119	50.26
573.459	50.39
573.799	50.53
574.139	50.64
574.479	50.81
574.819	50.9
575.158	51.02
575.498	51.17
575.838	51.28
576.177	51.38
576.517	51.55
576.856	51.64
577.196	51.76
577.535	51.96
577.875	52.13
578.214	52.29
578.553	52.44
578.893	52.48
579.232	52.6
579.571	52.74
579.91	52.82
580.25	53.02
580.589	53.09
580.928	53.19
581.267	53.31
581.606	53.44
581.945	53.55
582.283	53.7
582.622	53.72
582.961	53.9
583.3	54
583.639	54.06
583.977	54.18
584.316	54.29
584.654	54.36
584.993	54.39
585.332	54.39
585.67	54.47
586.008	54.61
586.347	54.62
586.685	54.63
587.024	54.73
587.362	54.77
587.7	54.87
588.038	55.03
588.376	55.08
588.715	55.15
589.053	55.22
589.391	55.24
589.729	55.35
590.067	55.41
590.404	55.51
590.742	55.61
591.08	55.64
591.418	55.76
591.756	55.81
592.093	55.84
592.431	56
592.769	56.09
593.106	56.16
593.444	56.2
593.781	56.32
594.119	56.32
594.456	56.44
594.793	56.51
595.131	56.52
595.468	56.59
595.805	56.66
596.143	56.76
596.48	56.79
596.817	56.81
597.154	56.9
597.491	56.93
597.828	56.95
598.165	57.03
598.502	57.01
598.839	57.06
599.176	57.15
599.512	57.12
599.849	57.1
600.186	57.18
600.523	57.29
600.859	57.29
601.196	57.47
601.532	57.43
601.869	57.51
602.205	57.54
602.542	57.58
602.878	57.67
603.215	57.7
603.551	57.77
603.887	57.89
604.223	57.84
604.56	57.9
604.896	57.98
605.232	58.07
605.568	58.18
605.904	58.28
606.24	58.35
606.576	58.42
606.912	58.43
607.248	58.47
607.583	58.53
607.919	58.64
608.255	58.59
608.591	58.68
608.926	58.68
609.262	58.79
609.597	58.89
609.933	58.84
610.268	58.87
610.604	58.94
610.939	58.98
611.275	59.01
611.61	59.08
611.945	59.17
612.281	59.17
612.616	59.15
612.951	59.12
613.286	59.19
613.621	59.27
613.956	59.36
614.291	59.33
614.626	59.36
614.961	59.38
615.296	59.47
615.631	59.52
615.966	59.55
616.3	59.48
616.635	59.42
616.97	59.5
617.304	59.49
617.639	59.59
617.973	59.58
618.308	59.59
618.642	59.54
618.977	59.45
619.311	59.47
619.646	59.53
619.98	59.61
620.314	59.65
620.648	59.67
620.983	59.77
621.317	59.78
621.651	59.78
621.985	59.88
622.319	59.93
622.653	59.96
622.987	60
623.321	60.14
623.655	60.14
623.988	60.13
624.322	60.2
624.656	60.29
624.99	60.31
625.323	60.27
625.657	60.39
625.99	60.43
626.324	60.51
626.657	60.57
626.991	60.55
627.324	60.63
627.658	60.63
627.991	60.65
628.324	60.68
628.657	60.65
628.991	60.63
629.324	60.65
629.657	60.64
629.99	60.68
630.323	60.63
630.656	60.77
630.989	60.9
631.322	60.96
631.655	60.77
631.987	60.87
632.32	60.93
632.653	60.93
632.986	60.98
633.318	60.95
633.651	60.87
633.984	60.9
634.316	60.7
634.649	60.64
634.981	60.67
635.313	60.66
635.646	60.82
635.978	60.82
636.31	60.75
636.643	60.77
636.975	60.78
637.307	60.8
637.639	60.81
637.971	60.69
638.303	60.63
638.635	60.68
638.967	60.62
639.299	60.71
639.631	60.62
639.963	60.66
640.295	60.65
640.626	60.84
640.958	60.84
641.29	60.95
641.621	61.01
641.953	60.95
642.285	61.06
642.616	60.89
642.948	60.96
643.279	60.99
643.61	61
643.942	60.99
644.273	61.01
644.604	61.03
644.936	61.17
645.267	61.17
645.598	61.23
645.929	61.31
646.26	61.39
646.591	61.53
646.922	61.56
647.253	61.66
647.584	61.53
647.915	61.52
648.245	61.47
648.576	61.56
648.907	61.74
649.238	61.7
649.568	61.79
649.899	61.82
650.229	61.83
650.56	61.88
650.89	61.95
651.221	61.98
651.551	61.85
651.882	61.78
652.212	61.79
652.542	61.82
652.872	61.77
653.203	61.74
653.533	61.6
653.863	61.38
654.193	61.38
654.523	61.51
654.853	61.62
655.183	61.71
655.513	61.76
655.843	61.75
656.172	61.78
656.502	61.97
656.832	61.94
657.162	62.04
657.491	62.17
657.821	62.2
658.15	62.2
658.48	62.28
658.809	62.33
659.139	62.51
659.468	62.43
659.798	62.39
660.127	62.33
660.456	62.45
660.785	62.65
661.115	62.68
661.444	62.6
661.773	62.54
662.102	62.53
662.431	62.39
662.76	62.32
663.089	62.38
663.418	62.32
663.747	62.3
664.076	62.22
664.404	61.94
664.733	61.94
665.062	62.01
665.39	62.09
665.719	62.1
666.048	61.98
666.376	62.07
666.705	62.11
667.033	62.21
667.362	62.24
667.69	62.14
668.018	62.15
668.347	62.21
668.675	62.27
669.003	62.54
669.331	62.73
669.659	62.78
669.987	62.64
670.315	62.53
670.643	62.52
670.971	62.46
671.299	62.74
671.627	62.78
671.955	62.81
672.283	62.73
672.61	62.74
672.938	62.89
673.266	62.86
673.593	62.89
673.921	62.79
674.249	62.61
674.576	62.57
674.904	62.5
675.231	62.45
675.558	62.34
675.886	62.29
676.213	62.23
676.54	62.24
676.867	62.44
677.195	62.47
677.522	62.48
677.849	62.72
678.176	62.84
678.503	62.85
678.83	62.58
679.157	62.71
679.484	62.62
679.81	62.6
680.137	62.55
680.464	62.52
680.791	62.61
681.117	62.74
681.444	62.78
681.771	62.92
682.097	62.95
682.424	63.19
682.75	63.18
683.077	63.07
683.403	63.12
683.729	63.16
684.056	63.21
684.382	63.27
684.708	63.1
685.034	62.83
685.36	62.82
685.686	63.03
686.012	62.98
686.339	62.98
686.664	62.8
686.99	62.86
687.316	62.95
687.642	63.05
687.968	63.02
688.294	63.03
688.619	62.94
688.945	62.84
689.271	62.7
689.596	62.66
689.922	62.83
690.247	62.78
690.573	62.69
690.898	62.69
691.224	62.62
691.549	62.63
691.874	62.67
692.2	62.67
692.525	62.69
692.85	62.78
693.175	62.87
693.5	62.81
693.825	62.84
694.15	62.92
694.475	63.05
694.8	63.13
695.125	63.32
695.45	63.32
695.775	63.46
696.099	63.4
696.424	63.34
696.749	63.32
697.073	63.28
697.398	63.22
697.723	63.3
698.047	63.32
698.372	63.51
698.696	63.6
699.02	63.51
699.345	63.48
699.669	63.42
699.993	63.35
700.318	63.46
700.642	63.55
700.966	63.46
701.29	63.37
701.614	63.36
701.938	63.36
702.262	63.39
702.586	63.44
702.91	63.51
703.234	63.54
703.557	63.53
703.881	63.47
704.205	63.48
704.529	63.38
704.852	63.48
705.176	63.36
705.499	63.24
705.823	63.37
706.146	63.38
706.47	63.32
706.793	63.41
707.117	63.51
707.44	63.55
707.763	63.59
708.086	63.38
708.409	63.25
708.733	63.19
709.056	63.09
709.379	63.12
709.702	63.19
710.025	63.2
710.348	63.24
710.671	63.29
710.993	63.27
711.316	63.28
711.639	63.33
711.962	63.45
712.284	63.52
712.607	63.55
712.93	63.68
713.252	63.87
713.575	63.97
713.897	64.04
714.22	63.9
714.542	63.8
714.864	63.88
715.187	64.07
715.509	63.94
715.831	63.87
716.153	63.82
716.475	63.73
716.798	63.87
717.12	63.84
717.442	63.92
717.764	63.9
718.085	63.89
718.407	63.78
718.729	63.73
719.051	63.65
719.373	63.54
719.695	63.3
720.016	63.3
720.338	63.36
720.659	63.46
720.981	63.48
721.302	63.79
721.624	63.95
721.945	63.76
722.267	63.88
722.588	64.17
722.909	64.43
723.231	64.3
723.552	64.04
723.873	64.07
724.194	64.02
724.515	64.31
724.836	64.29
725.157	64.43
725.478	64.33
725.799	64.34
726.12	64.46
726.441	64.57
726.762	64.33
727.083	64.32
727.403	64.02
727.724	64.22
728.045	64.11
728.365	63.88
728.686	64.01
729.006	64.19
729.327	63.76
729.647	63.66
729.967	63.95
730.288	64.07
730.608	63.95
730.928	64.18
731.249	64.07
731.569	64.28
731.889	64.22
732.209	64.17
732.529	64.08
732.849	64.27
733.169	64.38
733.489	64.29
733.809	64.33
734.129	64.63
734.448	64.63
734.768	64.61
735.088	64.66
735.408	64.44
735.727	64.39
736.047	64.85
736.366	64.82
736.686	64.71
737.005	64.8
737.325	65.22
737.644	65.11
737.963	65.39
738.283	65.12
738.602	65.42
738.921	65.32
739.24	65.41
739.56	65.08
739.879	65.13
740.198	65.19
740.517	65.12
740.836	64.83
741.155	64.69
741.473	64.87
741.792	65.22
742.111	65.63
742.43	65.68
742.748	65.69
743.067	65.73
743.386	65.98
743.704	65.92
744.023	65.5
744.341	65.31
744.66	65.26
744.978	65.39
745.297	64.91
745.615	64.93
745.933	65.41
746.252	65.52
746.57	65.56
746.888	65.77
747.206	65.75
747.524	65.79
747.842	65.9
748.16	65.65
748.478	65.4
748.796	65.35
749.114	65.32
749.432	65.02
749.749	64.64
750.067	64.32
750.385	64.24
750.703	63.93
751.02	64.11
751.338	63.73
751.655	63.63
751.973	63.81
752.29	63.8
752.608	63.4
752.925	63.48
753.242	63.29
753.56	63.29
753.877	62.94
754.194	63.38
754.511	63.13
754.828	63.38
755.145	63.41
755.462	63.68
755.779	63.39
756.096	63.49
756.413	63.76
756.73	63.69
757.047	63.76
757.364	64.27
757.68	64.17
757.997	64.5
758.314	64.8
758.63	64.69
758.947	65.15
759.264	65.12
759.58	65.1
759.896	65.22
760.213	65.12
760.529	65.01
760.846	64.78
761.162	64.97
761.478	64.77
761.794	64.66
762.11	64.39
762.426	64.43
762.743	64.67
763.059	64.75
763.375	64.91
763.69	64.77
764.006	64.74
764.322	64.71
764.638	64.66
764.954	64.36
765.27	64.35
765.585	64.32
765.901	64.2
766.216	64.27
766.532	64.26
766.848	64.3
767.163	64.63
767.478	64.57
767.794	64.65
768.109	64.49
768.424	64.73
768.74	64.89
769.055	64.82
769.37	64.41
769.685	64.08
770	63.94
770.315	63.95
770.63	63.85
770.945	64.15
771.26	63.86
771.575	63.87
771.89	63.53
772.205	63.58
772.52	63.87
772.834	63.77
773.149	63.83
773.464	63.84
773.778	63.5
774.093	63.74
774.407	63.85
774.722	64.31
775.036	64.33
775.351	64.25
775.665	64.57
775.979	64.39
776.293	64.65
776.608	64.88
776.922	64.98
777.236	64.94
777.55	64.81
777.864	65.03
778.178	65.5
778.492	66.24
778.806	66.16
779.12	65.91
779.434	66.24
779.747	66.5
780.061	66.58
780.375	66.7
780.689	66.5
781.002	66.35
781.316	66.92
781.629	66.74
781.943	66.96
782.256	67.36
782.57	68.2
782.883	68.07
783.196	68.21
783.51	68.4
783.823	68.52
784.136	68.32
784.449	68.79
784.762	68.92
785.075	68.45
785.388	68.16
785.701	68.45
786.014	68.21
786.327	67.39
786.64	67.39
786.953	68.36
787.266	67.91
787.578	67.82
787.891	67.06
788.204	67.1
788.516	66.43
788.829	66.26
789.141	65.93
789.454	66.12
789.766	65.99
790.079	65.83
790.391	65.79
790.703	66.11
791.016	66.07
791.328	66.34
791.64	66.68
791.952	67.2
792.264	67.69
792.576	67.47
792.888	68.15
793.2	68.42
793.512	67.37
793.824	67.52
794.136	67.68
794.448	67.54
794.76	67.26
795.071	67.93
795.383	67.85
795.695	67.94
796.006	67.99
796.318	68
796.629	68.44
796.941	68.77
797.252	68.44
797.564	68.28
797.875	67.67
798.186	67.59
798.497	67.08
798.809	66.81
799.12	66.72
799.431	66.52
799.742	66.53
800.053	66.8
800.364	67.12
800.675	67.14
800.986	66.94
801.297	66.57
801.608	66.24
801.918	65.96
802.229	65.97
802.54	65.93
802.851	66.25
803.161	65.88
803.472	66.05
803.782	66.66
804.093	65.82
804.403	65.94
804.714	66.51
805.024	66.95
805.334	66.67
805.645	66.71
805.955	67.06
806.265	66.43
806.575	66.98
806.885	66.64
807.195	66.77
807.505	66.96
807.815	67.45
808.125	68.23
808.435	68.69
808.745	68.45
809.055	68.24
809.365	67.84
809.674	68.14
809.984	67.63
810.294	67.13
810.603	66.97
810.913	66.57
811.222	66.09
811.532	65.11
811.841	65
812.151	65.31
812.46	64.5
812.769	64.83
813.079	64.53
813.388	65.01
813.697	64.47
814.006	64.99
814.315	65.43
814.624	65.4
814.933	65.81
815.242	65.93
815.551	66.12
815.86	66.4
816.169	66.61
816.478	67.05
816.786	67.14
817.095	68.15
817.404	68.67
817.712	68.32
818.021	69.01
818.33	68.6
818.638	68.56
818.947	68.48
819.255	68.14
819.563	67.93
819.872	67.6
820.18	67.62
820.488	67.3
820.796	66.73
821.105	66.25
821.413	66.01
821.721	66.1
822.029	66.12
822.337	65.85
822.645	65.74
822.953	65.55
823.26	65.33
823.568	65.22
823.876	65.26
824.184	65.38
824.491	65.35
824.799	65.43
825.107	65.18
825.414	65.3
825.722	65.29
826.029	65.33
826.337	65.34
826.644	65.15
826.951	65.25
827.259	65.58
827.566	65.56
827.873	65.59
828.18	65.49
828.488	65.58
828.795	65.44
829.102	65.58
829.409	65.9
829.716	66.1
830.023	66.08
830.329	65.87
830.636	65.84
830.943	65.81
831.25	65.37
831.557	65.45
831.863	65.23
832.17	65.24
832.476	65.23
832.783	65.44
833.089	65.89
833.396	65.99
833.702	65.73
834.009	65.67
834.315	65.65
834.621	65.98
834.928	65.49
835.234	66.17
835.54	66
835.846	66.1
836.152	66.77
836.458	66.77
836.764	67.29
837.07	66.98
837.376	66.6
837.682	67.84
837.988	68.66
838.293	68.72
838.599	69.23
838.905	69.13
839.211	68.48
839.516	68.06
839.822	68.39
840.127	68.15
840.433	68.86
840.738	69.11
841.044	69.01
841.349	70.67
841.654	71.27
841.959	71.61
842.265	70.69
842.57	70.08
842.875	70.5
843.18	71.86
843.485	73.41
843.79	74.82
844.095	73.73
844.4	72.95
844.705	72.43
845.01	71.39
845.315	72.77
845.619	75.61
845.924	76.56
846.229	76.88
846.533	78.83
846.838	79.76
847.142	79
847.447	78.92
847.751	78.32
848.056	77.09
848.36	76.79
848.664	77.28
848.969	75.55
849.273	75.67
849.577	72.08
849.881	71.88
850.185	72.55
850.489	74.23
850.794	74.16
851.097	76.26
851.401	76.72
851.705	74.53
852.009	72.05
852.313	72.69
852.617	68.82
852.92	67.94
853.224	65.46
853.528	66.85
853.831	66.85
854.135	67.73
854.438	68.26
854.742	68.39
855.045	69.22
855.349	70.35
855.652	70.28
855.955	69.7
856.259	67.78
856.562	66.9
856.865	64.96
857.168	65.36
857.471	64.64
857.774	65.07
858.077	65.36
858.38	64.78
858.683	64.69
858.986	66.91
859.289	66.43
859.592	68.57
859.894	69.89
860.197	70.91
860.5	69.98
860.802	68.76
861.105	69.24
861.407	69.73
861.71	72.91
862.012	73.78
862.315	74.8
862.617	75.05
862.919	73.85
863.222	76.08
863.524	77.15
863.826	77.92
864.128	78.1
864.43	79.32
864.732	78.74
865.034	78.14
865.336	78.61
865.638	76.8
865.94	77.54
866.242	75.27
866.544	75.45
866.846	75.65
867.147	79.9
867.449	76.59
867.751	76.98
868.052	75.38
868.354	76.59
868.655	75.24
868.957	78.88
869.258	79.81
869.56	77.25
869.861	74.77
870.162	72.48
870.463	74.52
870.765	73.54
871.066	72.76
871.367	73.06
871.668	73.71
871.969	75.78
872.27	74.88
872.571	75.21
872.872	72.44
873.173	73.06
873.473	68.24
873.774	69.9
874.075	67.4
874.376	65.98
874.676	65.28
874.977	67.55
875.277	64.61
875.578	64.01
875.878	64.76
876.179	66.31
876.479	67.93
876.78	65.43
877.08	65.1
877.38	67.3
877.68	65.98
877.981	64.32
878.281	63.78
878.581	62.78
