Data from BA28308_Reflection_00012.txt Node
Date: Mon Nov 18 15:39:06 EST 2019
User: vgr7
Spectrometer: USB2G7710
Scans to average: 3
Trigger mode: 4
Integration Time (sec): 2.000000E-2
Electric dark correction enabled: true
Boxcar width: 10
XAxis mode: Wavelengths
Number of Pixels in Spectrum: 2048
>>>>>Begin Spectral Data<<<<<
177.721	10.62
178.105	47.37
178.488	113.95
178.871	31.75
179.254	71.62
179.636	-190.18
180.019	6.39
180.402	164.71
180.785	-45.47
181.168	8.03
181.55	101.99
181.933	82.74
182.316	79.26
182.698	115.2
183.081	95.48
183.463	76.54
183.846	116.78
184.228	103.83
184.611	56.72
184.993	70.27
185.376	89.75
185.758	101.31
186.14	317.18
186.522	280.33
186.904	176.54
187.287	256.98
187.669	308.71
188.051	478.59
188.433	-433.51
188.815	-109.07
189.197	-72.3
189.579	-40.69
189.961	-23.06
190.342	-32.61
190.724	-15.7
191.106	-37.02
191.488	-44.26
191.869	-35.02
192.251	-64.36
192.633	-62.66
193.014	-87.68
193.396	-133.63
193.777	-147.55
194.159	-174.52
194.54	-97.2
194.922	-86.61
195.303	-69.27
195.684	-49.17
196.065	-42
196.447	-26.43
196.828	-27.18
197.209	-51.64
197.59	-79.03
197.971	-68.22
198.352	-64.94
198.733	-137.85
199.114	-132.16
199.495	-108.55
199.876	-105.94
200.257	-89.95
200.638	-56.11
201.018	-89.82
201.399	-52.91
201.78	-57.72
202.16	-79.68
202.541	-120.89
202.922	-186.32
203.302	-218.28
203.683	-209.12
204.063	-404.74
204.444	-603.46
204.824	-721.37
205.204	-1461.7
205.585	-46328.57
205.965	5653.85
206.345	435.14
206.725	392.82
207.106	249.55
207.486	218.13
207.866	224.76
208.246	287.84
208.626	300.91
209.006	846.84
209.386	561.65
209.766	546.88
210.145	472.29
210.525	-7386.49
210.905	-317.48
211.285	-560.38
211.664	-749.25
212.044	-307.23
212.424	-166.6
212.803	-137.73
213.183	-58.85
213.562	-43.45
213.942	-28.03
214.321	-14.46
214.701	-3.8
215.08	1.03
215.459	-9.8
215.838	-12.54
216.218	-18.64
216.597	-11.46
216.976	-20.32
217.355	-28.47
217.734	-33.09
218.113	-34.24
218.492	-40.7
218.871	-52.81
219.25	-49.03
219.629	-46.81
220.008	-78.63
220.387	-71.63
220.766	-102.02
221.144	-176.4
221.523	-199.11
221.902	-280.01
222.28	-346.29
222.659	-290.46
223.037	-164.98
223.416	-140.09
223.794	-141.81
224.173	-96.92
224.551	-64.59
224.929	-53.91
225.308	-45.73
225.686	-40.47
226.064	-37
226.442	-26.36
226.821	-23.36
227.199	-23.27
227.577	-26.45
227.955	-19.76
228.333	-19.44
228.711	-16.35
229.089	-8.81
229.467	-8.22
229.845	-10.19
230.222	-8.45
230.6	-11.23
230.978	-11.25
231.356	-8.35
231.733	-5.59
232.111	-3.74
232.488	-7.19
232.866	-6.21
233.243	-3.48
233.621	-2.78
233.998	-1.63
234.376	-3.73
234.753	-4.32
235.13	-3.53
235.508	-1.7
235.885	-1.48
236.262	-2.23
236.639	-0.87
237.016	-1.11
237.393	-0.17
237.77	2.11
238.147	2.82
238.524	3.88
238.901	4.22
239.278	4.17
239.655	4.92
240.032	4.19
240.409	4.14
240.785	3.48
241.162	3.31
241.539	3.49
241.915	3.97
242.292	4.33
242.668	4.65
243.045	4.67
243.421	4.8
243.798	4.35
244.174	4.84
244.551	4.67
244.927	4.35
245.303	4.41
245.679	4.39
246.056	4.35
246.432	4.29
246.808	4.29
247.184	4.18
247.56	3.75
247.936	3.87
248.312	4.02
248.688	4.07
249.064	3.87
249.44	3.79
249.815	3.73
250.191	3.69
250.567	3.67
250.943	3.42
251.318	3.4
251.694	3.35
252.069	3.27
252.445	3.45
252.82	3.37
253.196	3.4
253.571	3.28
253.947	3.27
254.322	3.26
254.697	3.16
255.073	3.01
255.448	3.34
255.823	3.19
256.198	3.38
256.573	3.6
256.948	4.04
257.323	4.36
257.698	4.45
258.073	4.41
258.448	4.2
258.823	4.38
259.198	4.36
259.573	4.46
259.948	4.37
260.322	4.27
260.697	4.14
261.072	3.94
261.446	3.94
261.821	3.83
262.195	3.98
262.57	4.07
262.944	4.14
263.319	4.02
263.693	3.97
264.067	3.84
264.442	3.78
264.816	3.57
265.19	3.48
265.564	3.29
265.938	3.4
266.313	3.45
266.687	3.35
267.061	3.27
267.435	3.28
267.809	3.13
268.183	3.21
268.556	3.49
268.93	3.73
269.304	3.8
269.678	3.99
270.051	3.78
270.425	3.81
270.799	3.75
271.172	3.81
271.546	3.8
271.919	3.87
272.293	3.85
272.666	3.94
273.04	3.67
273.413	3.82
273.787	3.74
274.16	3.7
274.533	3.81
274.906	3.81
275.279	3.91
275.653	3.96
276.026	3.91
276.399	3.96
276.772	3.81
277.145	3.83
277.518	3.66
277.891	3.62
278.263	3.5
278.636	3.65
279.009	3.53
279.382	3.84
279.755	3.81
280.127	3.95
280.5	3.82
280.872	4.05
281.245	3.92
281.617	4.11
281.99	4.26
282.362	4.19
282.735	4.13
283.107	4.01
283.479	4.09
283.852	3.98
284.224	3.97
284.596	4.08
284.968	4.06
285.34	4.25
285.713	4.24
286.085	4.34
286.457	4.43
286.829	4.49
287.201	4.39
287.572	4.29
287.944	4.23
288.316	4.28
288.688	4.22
289.06	4.21
289.431	4.03
289.803	4.13
290.175	4.2
290.546	4.35
290.918	4.47
291.289	4.47
291.661	4.61
292.032	4.7
292.403	4.62
292.775	4.74
293.146	4.63
293.517	4.67
293.889	4.57
294.26	4.43
294.631	4.45
295.002	4.38
295.373	4.43
295.744	4.49
296.115	4.53
296.486	4.54
296.857	4.43
297.228	4.54
297.599	4.44
297.97	4.41
298.34	4.29
298.711	4.31
299.082	4.3
299.452	4.33
299.823	4.33
300.194	4.29
300.564	4.09
300.935	4.18
301.305	4.28
301.676	4.48
302.046	4.6
302.416	4.79
302.787	4.86
303.157	4.97
303.527	4.94
303.897	4.82
304.267	5.04
304.637	5.37
305.008	5.42
305.378	5.51
305.748	5.6
306.117	5.7
306.487	5.67
306.857	5.79
307.227	5.81
307.597	5.72
307.967	5.94
308.336	6.1
308.706	6.08
309.076	6.1
309.445	5.98
309.815	5.89
310.184	5.69
310.554	5.74
310.923	5.69
311.293	5.74
311.662	5.88
312.031	5.74
312.401	5.69
312.77	5.67
313.139	5.73
313.508	5.74
313.877	5.69
314.246	5.77
314.616	5.64
314.985	5.74
315.353	5.61
315.722	5.6
316.091	5.56
316.46	5.47
316.829	5.5
317.198	5.52
317.567	5.67
317.935	5.69
318.304	5.64
318.672	5.7
319.041	5.78
319.41	5.73
319.778	5.74
320.147	5.83
320.515	5.96
320.883	5.9
321.252	5.96
321.62	6.07
321.988	6.03
322.357	6.07
322.725	6.13
323.093	6.45
323.461	6.52
323.829	6.56
324.197	6.64
324.565	6.6
324.933	6.64
325.301	6.64
325.669	6.74
326.037	6.94
326.405	6.98
326.772	7.03
327.14	7.18
327.508	7.22
327.875	7.14
328.243	7.17
328.61	7.14
328.978	7.15
329.346	7.28
329.713	7.24
330.08	7.38
330.448	7.25
330.815	7.16
331.182	7.15
331.55	7.23
331.917	7.37
332.284	7.46
332.651	7.49
333.018	7.49
333.385	7.63
333.752	7.59
334.119	7.7
334.486	7.57
334.853	7.42
335.22	7.39
335.587	7.46
335.954	7.46
336.32	7.42
336.687	7.49
337.054	7.4
337.42	7.48
337.787	7.5
338.153	7.44
338.52	7.58
338.886	7.51
339.253	7.4
339.619	7.42
339.986	7.42
340.352	7.55
340.718	7.51
341.084	7.43
341.451	7.49
341.817	7.49
342.183	7.53
342.549	7.59
342.915	7.68
343.281	7.66
343.647	7.61
344.013	7.71
344.379	7.67
344.745	7.69
345.11	7.71
345.476	7.7
345.842	7.8
346.208	7.74
346.573	7.73
346.939	7.89
347.304	7.82
347.67	7.78
348.035	7.75
348.401	7.78
348.766	7.79
349.132	7.75
349.497	7.72
349.862	7.74
350.228	7.81
350.593	7.75
350.958	7.81
351.323	7.89
351.688	7.91
352.053	7.99
352.418	8.08
352.783	8.09
353.148	8.14
353.513	8.17
353.878	8.06
354.243	8.21
354.608	8.25
354.972	8.23
355.337	8.3
355.702	8.27
356.066	8.35
356.431	8.3
356.795	8.3
357.16	8.31
357.524	8.27
357.889	8.27
358.253	8.28
358.618	8.29
358.982	8.25
359.346	8.24
359.71	8.17
360.075	8.16
360.439	8.14
360.803	8.13
361.167	8.07
361.531	8.13
361.895	8.1
362.259	7.99
362.623	8.08
362.987	8.03
363.351	8.04
363.714	8.07
364.078	8.07
364.442	8.05
364.806	8.07
365.169	8.06
365.533	8.02
365.896	8.04
366.26	7.99
366.623	8
366.987	7.96
367.35	7.96
367.714	7.99
368.077	7.99
368.44	7.95
368.803	8
369.167	7.93
369.53	7.93
369.893	7.95
370.256	7.86
370.619	7.83
370.982	7.84
371.345	7.75
371.708	7.76
372.071	7.7
372.434	7.65
372.797	7.66
373.159	7.62
373.522	7.57
373.885	7.64
374.247	7.6
374.61	7.54
374.973	7.48
375.335	7.37
375.698	7.34
376.06	7.35
376.423	7.24
376.785	7.26
377.147	7.22
377.51	7.16
377.872	7.15
378.234	7.09
378.596	7.06
378.958	7.04
379.321	7.02
379.683	6.98
380.045	6.89
380.407	6.9
380.769	6.91
381.13	6.9
381.492	6.79
381.854	6.77
382.216	6.82
382.578	6.78
382.939	6.78
383.301	6.73
383.663	6.68
384.024	6.7
384.386	6.71
384.747	6.69
385.109	6.69
385.47	6.68
385.832	6.67
386.193	6.6
386.554	6.58
386.916	6.53
387.277	6.57
387.638	6.59
387.999	6.53
388.36	6.49
388.721	6.48
389.082	6.43
389.443	6.38
389.804	6.33
390.165	6.33
390.526	6.3
390.887	6.25
391.248	6.24
391.609	6.2
391.969	6.17
392.33	6.13
392.691	6.1
393.051	6.02
393.412	6.01
393.772	5.98
394.133	5.97
394.493	5.95
394.854	5.94
395.214	5.89
395.574	5.85
395.935	5.81
396.295	5.81
396.655	5.8
397.015	5.8
397.376	5.78
397.736	5.76
398.096	5.71
398.456	5.69
398.816	5.66
399.176	5.64
399.535	5.56
399.895	5.48
400.255	5.44
400.615	5.43
400.975	5.41
401.334	5.37
401.694	5.31
402.054	5.3
402.413	5.25
402.773	5.21
403.132	5.18
403.492	5.18
403.851	5.14
404.211	5.1
404.57	5.05
404.929	5.04
405.288	5.01
405.648	4.99
406.007	4.97
406.366	4.93
406.725	4.95
407.084	4.96
407.443	4.99
407.802	4.98
408.161	4.96
408.52	4.93
408.879	4.91
409.238	4.89
409.596	4.87
409.955	4.85
410.314	4.87
410.673	4.87
411.031	4.85
411.39	4.82
411.748	4.82
412.107	4.81
412.465	4.79
412.824	4.76
413.182	4.73
413.54	4.72
413.899	4.72
414.257	4.68
414.615	4.65
414.974	4.64
415.332	4.63
415.69	4.62
416.048	4.59
416.406	4.59
416.764	4.57
417.122	4.56
417.48	4.56
417.838	4.54
418.195	4.54
418.553	4.53
418.911	4.52
419.269	4.51
419.626	4.52
419.984	4.5
420.342	4.49
420.699	4.48
421.057	4.47
421.414	4.44
421.772	4.43
422.129	4.42
422.486	4.42
422.844	4.41
423.201	4.38
423.558	4.37
423.915	4.37
424.273	4.35
424.63	4.34
424.987	4.33
425.344	4.31
425.701	4.29
426.058	4.27
426.415	4.26
426.772	4.25
427.128	4.22
427.485	4.22
427.842	4.2
428.199	4.21
428.555	4.21
428.912	4.24
429.269	4.26
429.625	4.27
429.982	4.22
430.338	4.21
430.695	4.23
431.051	4.23
431.407	4.22
431.764	4.22
432.12	4.19
432.476	4.17
432.832	4.16
433.189	4.15
433.545	4.13
433.901	4.1
434.257	4.1
434.613	4.1
434.969	4.08
435.325	4.08
435.681	4.05
436.036	4.03
436.392	4.01
436.748	3.96
437.104	3.95
437.459	3.96
437.815	3.95
438.171	3.94
438.526	3.94
438.882	3.93
439.237	3.94
439.593	3.96
439.948	3.96
440.304	3.97
440.659	3.98
441.014	4
441.369	4.01
441.725	3.99
442.08	3.97
442.435	3.96
442.79	3.95
443.145	3.97
443.5	3.97
443.855	3.96
444.21	3.98
444.565	3.96
444.92	3.95
445.275	3.95
445.629	3.95
445.984	3.95
446.339	3.94
446.693	3.92
447.048	3.9
447.403	3.88
447.757	3.86
448.112	3.85
448.466	3.84
448.82	3.82
449.175	3.83
449.529	3.82
449.883	3.82
450.238	3.82
450.592	3.8
450.946	3.8
451.3	3.8
451.654	3.78
452.008	3.79
452.362	3.77
452.716	3.78
453.07	3.77
453.424	3.75
453.778	3.74
454.132	3.72
454.486	3.73
454.839	3.73
455.193	3.74
455.547	3.73
455.9	3.73
456.254	3.74
456.607	3.76
456.961	3.76
457.314	3.77
457.668	3.77
458.021	3.74
458.375	3.75
458.728	3.75
459.081	3.75
459.434	3.75
459.787	3.77
460.141	3.75
460.494	3.76
460.847	3.78
461.2	3.77
461.553	3.79
461.906	3.82
462.259	3.82
462.611	3.82
462.964	3.83
463.317	3.83
463.67	3.83
464.022	3.81
464.375	3.82
464.728	3.85
465.08	3.84
465.433	3.88
465.785	3.87
466.138	3.9
466.49	3.91
466.843	3.92
467.195	3.93
467.547	3.95
467.899	3.95
468.252	3.96
468.604	3.99
468.956	3.99
469.308	3.97
469.66	3.97
470.012	3.96
470.364	3.98
470.716	4
471.068	4
471.42	4.01
471.772	4.07
472.123	4.05
472.475	4.08
472.827	4.08
473.178	4.1
473.53	4.09
473.882	4.08
474.233	4.06
474.585	4.07
474.936	4.06
475.288	4.06
475.639	4.07
475.99	4.06
476.342	4.05
476.693	4.05
477.044	4.07
477.395	4.07
477.746	4.07
478.097	4.06
478.448	4.05
478.8	4.05
479.15	4.01
479.501	4.02
479.852	4.02
480.203	4.01
480.554	4
480.905	4
481.255	4
481.606	4.01
481.957	4.02
482.307	4.02
482.658	4.02
483.009	4.01
483.359	4.02
483.709	4.03
484.06	4.04
484.41	4.03
484.761	4.03
485.111	4.04
485.461	4.04
485.811	4.05
486.162	4.04
486.512	4.05
486.862	4.04
487.212	4.04
487.562	4.05
487.912	4.06
488.262	4.05
488.612	4.05
488.961	4.06
489.311	4.06
489.661	4.05
490.011	4.06
490.36	4.06
490.71	4.07
491.06	4.06
491.409	4.07
491.759	4.09
492.108	4.11
492.458	4.11
492.807	4.11
493.157	4.11
493.506	4.13
493.855	4.14
494.204	4.15
494.554	4.15
494.903	4.15
495.252	4.16
495.601	4.18
495.95	4.19
496.299	4.2
496.648	4.23
496.997	4.26
497.346	4.3
497.695	4.32
498.043	4.32
498.392	4.34
498.741	4.37
499.09	4.36
499.438	4.36
499.787	4.4
500.135	4.44
500.484	4.47
500.832	4.53
501.181	4.56
501.529	4.59
501.878	4.68
502.226	4.72
502.574	4.76
502.923	4.8
503.271	4.84
503.619	4.87
503.967	4.92
504.315	4.95
504.663	5
505.011	5.05
505.359	5.1
505.707	5.15
506.055	5.2
506.403	5.26
506.751	5.3
507.098	5.34
507.446	5.39
507.794	5.46
508.141	5.5
508.489	5.54
508.837	5.58
509.184	5.6
509.531	5.65
509.879	5.7
510.226	5.74
510.574	5.81
510.921	5.87
511.268	5.92
511.616	5.98
511.963	6.02
512.31	6.06
512.657	6.12
513.004	6.19
513.351	6.24
513.698	6.32
514.045	6.4
514.392	6.45
514.739	6.49
515.086	6.55
515.432	6.62
515.779	6.69
516.126	6.76
516.473	6.84
516.819	6.88
517.166	6.92
517.512	7
517.859	7.04
518.205	7.09
518.552	7.14
518.898	7.2
519.245	7.27
519.591	7.34
519.937	7.38
520.283	7.44
520.629	7.51
520.976	7.55
521.322	7.62
521.668	7.7
522.014	7.81
522.36	7.91
522.706	7.98
523.052	8.08
523.398	8.2
523.743	8.31
524.089	8.44
524.435	8.58
524.781	8.71
525.126	8.83
525.472	8.95
525.817	9.06
526.163	9.15
526.509	9.23
526.854	9.31
527.199	9.41
527.545	9.49
527.89	9.58
528.235	9.67
528.581	9.77
528.926	9.85
529.271	9.94
529.616	10.04
529.961	10.14
530.306	10.25
530.651	10.34
530.996	10.45
531.341	10.57
531.686	10.68
532.031	10.8
532.376	10.93
532.721	11.06
533.065	11.19
533.41	11.32
533.755	11.47
534.099	11.62
534.444	11.79
534.788	11.96
535.133	12.11
535.477	12.3
535.822	12.46
536.166	12.66
536.51	12.88
536.855	13.1
537.199	13.32
537.543	13.56
537.887	13.81
538.231	14.06
538.576	14.33
538.92	14.59
539.264	14.82
539.608	15.05
539.951	15.26
540.295	15.49
540.639	15.72
540.983	15.93
541.327	16.17
541.671	16.34
542.014	16.55
542.358	16.78
542.701	16.96
543.045	17.18
543.389	17.4
543.732	17.61
544.075	17.83
544.419	18.09
544.762	18.34
545.105	18.62
545.449	18.9
545.792	19.15
546.135	19.42
546.478	19.74
546.821	20.06
547.165	20.38
547.508	20.74
547.851	21.08
548.194	21.41
548.536	21.76
548.879	22.13
549.222	22.48
549.565	22.84
549.908	23.24
550.25	23.63
550.593	24.04
550.936	24.44
551.278	24.82
551.621	25.15
551.963	25.53
552.306	25.88
552.648	26.25
552.991	26.61
553.333	26.97
553.675	27.28
554.017	27.62
554.36	27.94
554.702	28.28
555.044	28.55
555.386	28.89
555.728	29.21
556.07	29.58
556.412	29.95
556.754	30.3
557.096	30.64
557.438	30.95
557.78	31.31
558.121	31.65
558.463	32.01
558.805	32.41
559.147	32.72
559.488	33.09
559.83	33.41
560.171	33.79
560.513	34.14
560.854	34.48
561.196	34.85
561.537	35.26
561.878	35.58
562.22	35.9
562.561	36.27
562.902	36.6
563.243	36.86
563.584	37.14
563.925	37.41
564.266	37.7
564.607	38.01
564.948	38.26
565.289	38.51
565.63	38.72
565.971	38.95
566.312	39.24
566.653	39.44
566.993	39.69
567.334	39.9
567.675	40.16
568.015	40.43
568.356	40.67
568.696	40.87
569.037	41.08
569.377	41.38
569.718	41.61
570.058	41.8
570.398	42.07
570.739	42.32
571.079	42.57
571.419	42.81
571.759	43.04
572.099	43.24
572.439	43.46
572.779	43.69
573.119	43.94
573.459	44.16
573.799	44.39
574.139	44.54
574.479	44.78
574.819	44.99
575.158	45.14
575.498	45.32
575.838	45.54
576.177	45.77
576.517	45.94
576.856	46.14
577.196	46.37
577.535	46.55
577.875	46.71
578.214	46.89
578.553	47.08
578.893	47.25
579.232	47.46
579.571	47.67
579.91	47.88
580.25	47.98
580.589	48.11
580.928	48.34
581.267	48.63
581.606	48.78
581.945	48.89
582.283	49.01
582.622	49.16
582.961	49.27
583.3	49.48
583.639	49.64
583.977	49.73
584.316	49.9
584.654	50.11
584.993	50.29
585.332	50.46
585.67	50.56
586.008	50.74
586.347	50.9
586.685	51.06
587.024	51.17
587.362	51.31
587.7	51.38
588.038	51.53
588.376	51.56
588.715	51.67
589.053	51.78
589.391	52
589.729	52.07
590.067	52.17
590.404	52.22
590.742	52.36
591.08	52.44
591.418	52.53
591.756	52.62
592.093	52.69
592.431	52.72
592.769	52.86
593.106	52.93
593.444	52.98
593.781	53.07
594.119	53.17
594.456	53.29
594.793	53.48
595.131	53.47
595.468	53.63
595.805	53.73
596.143	53.87
596.48	53.89
596.817	54.08
597.154	54.14
597.491	54.2
597.828	54.23
598.165	54.3
598.502	54.4
598.839	54.49
599.176	54.63
599.512	54.74
599.849	54.79
600.186	54.89
600.523	54.98
600.859	55.07
601.196	55.19
601.532	55.29
601.869	55.34
602.205	55.44
602.542	55.43
602.878	55.48
603.215	55.54
603.551	55.67
603.887	55.6
604.223	55.7
604.56	55.81
604.896	55.92
605.232	56.04
605.568	56.02
605.904	56.06
606.24	56.14
606.576	56.25
606.912	56.33
607.248	56.39
607.583	56.47
607.919	56.45
608.255	56.48
608.591	56.52
608.926	56.57
609.262	56.64
609.597	56.79
609.933	56.88
610.268	56.91
610.604	56.92
610.939	57.04
611.275	57.09
611.61	57.14
611.945	57.17
612.281	57.25
612.616	57.34
612.951	57.4
613.286	57.44
613.621	57.53
613.956	57.53
614.291	57.53
614.626	57.62
614.961	57.75
615.296	57.76
615.631	57.77
615.966	57.87
616.3	57.9
616.635	57.89
616.97	57.89
617.304	57.94
617.639	58.05
617.973	58.08
618.308	58.07
618.642	58.05
618.977	58.09
619.311	58.09
619.646	58.18
619.98	58.3
620.314	58.27
620.648	58.26
620.983	58.38
621.317	58.45
621.651	58.59
621.985	58.76
622.319	58.87
622.653	59.01
622.987	58.99
623.321	59
623.655	59.04
623.988	59.14
624.322	59.23
624.656	59.21
624.99	59.26
625.323	59.35
625.657	59.45
625.99	59.5
626.324	59.53
626.657	59.52
626.991	59.59
627.324	59.65
627.658	59.66
627.991	59.68
628.324	59.77
628.657	59.66
628.991	59.61
629.324	59.69
629.657	59.69
629.99	59.74
630.323	59.77
630.656	59.75
630.989	59.73
631.322	59.76
631.655	59.86
631.987	59.96
632.32	59.92
632.653	59.96
632.986	59.92
633.318	59.97
633.651	60.01
633.984	59.84
634.316	59.8
634.649	59.93
634.981	59.98
635.313	59.97
635.646	60.01
635.978	60
636.31	60.02
636.643	60.11
636.975	60.11
637.307	60.14
637.639	60.26
637.971	60.24
638.303	60.26
638.635	60.27
638.967	60.29
639.299	60.43
639.631	60.4
639.963	60.48
640.295	60.43
640.626	60.48
640.958	60.54
641.29	60.66
641.621	60.63
641.953	60.6
642.285	60.61
642.616	60.64
642.948	60.72
643.279	60.69
643.61	60.58
643.942	60.69
644.273	60.76
644.604	60.74
644.936	60.8
645.267	60.77
645.598	60.79
645.929	60.76
646.26	60.86
646.591	60.82
646.922	61.05
647.253	61.18
647.584	61.16
647.915	61.18
648.245	61.1
648.576	61.16
648.907	61.23
649.238	61.2
649.568	61.22
649.899	61.23
650.229	61.2
650.56	61.22
650.89	61.2
651.221	61.18
651.551	61.2
651.882	61.3
652.212	61.36
652.542	61.35
652.872	61.4
653.203	61.34
653.533	61.36
653.863	61.19
654.193	61.16
654.523	61.26
654.853	61.46
655.183	61.45
655.513	61.41
655.843	61.42
656.172	61.55
656.502	61.53
656.832	61.53
657.162	61.57
657.491	61.6
657.821	61.64
658.15	61.63
658.48	61.61
658.809	61.57
659.139	61.6
659.468	61.74
659.798	61.71
660.127	61.71
660.456	61.78
660.785	61.82
661.115	61.82
661.444	61.76
661.773	61.67
662.102	61.75
662.431	61.75
662.76	61.75
663.089	61.76
663.418	61.86
663.747	61.82
664.076	61.88
664.404	61.87
664.733	61.9
665.062	62.12
665.39	62.12
665.719	62.13
666.048	62.04
666.376	61.92
666.705	61.94
667.033	61.84
667.362	61.79
667.69	61.78
668.018	61.86
668.347	61.94
668.675	61.94
669.003	61.92
669.331	61.96
669.659	61.94
669.987	61.9
670.315	62.1
670.643	62.07
670.971	62.08
671.299	62.23
671.627	62.15
671.955	62.03
672.283	62.19
672.61	62.33
672.938	62.39
673.266	62.4
673.593	62.4
673.921	62.55
674.249	62.55
674.576	62.62
674.904	62.73
675.231	62.74
675.558	62.75
675.886	62.87
676.213	62.82
676.54	62.8
676.867	62.67
677.195	62.48
677.522	62.59
677.849	62.68
678.176	62.67
678.503	62.76
678.83	62.78
679.157	62.74
679.484	62.63
679.81	62.67
680.137	62.7
680.464	62.77
680.791	62.81
681.117	62.93
681.444	62.88
681.771	62.78
682.097	62.82
682.424	62.79
682.75	62.74
683.077	62.84
683.403	62.92
683.729	63.12
684.056	63.29
684.382	63.27
684.708	63.14
685.034	63.05
685.36	62.95
685.686	63.16
686.012	63.21
686.339	63.33
686.664	63.46
686.99	63.42
687.316	63.35
687.642	63.37
687.968	63.33
688.294	63.47
688.619	63.44
688.945	63.4
689.271	63.51
689.596	63.47
689.922	63.36
690.247	63.43
690.573	63.51
690.898	63.24
691.224	63.27
691.549	63.26
691.874	63.37
692.2	63.42
692.525	63.21
692.85	63.36
693.175	63.34
693.5	63.09
693.825	63.18
694.15	63.29
694.475	63.1
694.8	63.08
695.125	63.1
695.45	63.35
695.775	63.41
696.099	63.37
696.424	63.54
696.749	63.5
697.073	63.42
697.398	63.24
697.723	63.38
698.047	63.37
698.372	63.44
698.696	63.41
699.02	63.36
699.345	63.34
699.669	63.23
699.993	63.03
700.318	63.13
700.642	63.14
700.966	63.22
701.29	63.29
701.614	63.32
701.938	63.17
702.262	63.02
702.586	62.92
702.91	62.84
703.234	62.78
703.557	62.94
703.881	63.08
704.205	62.97
704.529	62.84
704.852	63
705.176	62.98
705.499	63.01
705.823	63.06
706.146	62.98
706.47	62.88
706.793	63.05
707.117	63.19
707.44	63.06
707.763	62.87
708.086	62.89
708.409	62.91
708.733	62.95
709.056	62.89
709.379	62.9
709.702	62.98
710.025	63.05
710.348	63.11
710.671	62.98
710.993	63.12
711.316	63.19
711.639	63.15
711.962	63.13
712.284	62.95
712.607	63.26
712.93	63.35
713.252	63.52
713.575	63.47
713.897	63.45
714.22	63.43
714.542	63.45
714.864	63.47
715.187	63.49
715.509	63.6
715.831	63.61
716.153	63.81
716.475	63.7
716.798	63.47
717.12	63.27
717.442	63.28
717.764	63.36
718.085	63.42
718.407	63.37
718.729	63.29
719.051	63.58
719.373	63.19
719.695	63.15
720.016	62.81
720.338	62.95
720.659	62.89
720.981	62.87
721.302	63.04
721.624	63.12
721.945	63.02
722.267	62.88
722.588	62.89
722.909	62.7
723.231	62.89
723.552	63.12
723.873	63.15
724.194	63.38
724.515	63.23
724.836	63.21
725.157	63.42
725.478	63.53
725.799	63.41
726.12	63.58
726.441	63.8
726.762	64.2
727.083	64.16
727.403	64.2
727.724	64.45
728.045	64.14
728.365	64.09
728.686	64.29
729.006	64.24
729.327	64.19
729.647	64.22
729.967	64.11
730.288	63.94
730.608	64.11
730.928	64.14
731.249	64.27
731.569	64.42
731.889	64.13
732.209	64.23
732.529	64.22
732.849	64.16
733.169	63.94
733.489	63.78
733.809	63.86
734.129	63.83
734.448	63.73
734.768	63.99
735.088	64.19
735.408	64.26
735.727	64.35
736.047	64.52
736.366	64.6
736.686	64.58
737.005	64.61
737.325	64.65
737.644	64.54
737.963	64.56
738.283	64.39
738.602	64.65
738.921	64.6
739.24	64.6
739.56	64.54
739.879	64.92
740.198	65
740.517	64.91
740.836	64.64
741.155	64.73
741.473	65.04
741.792	64.7
742.111	64.39
742.43	64.45
742.748	64.48
743.067	64.41
743.386	64.62
743.704	64.71
744.023	64.59
744.341	64.33
744.66	64.5
744.978	64.52
745.297	64.66
745.615	64.67
745.933	64.84
746.252	65.03
746.57	64.58
746.888	64.45
747.206	64.47
747.524	64.64
747.842	64.55
748.16	64.16
748.478	64.38
748.796	64.71
749.114	64.87
749.432	64.71
749.749	64.92
750.067	65.13
750.385	65.16
750.703	65.41
751.02	65.58
751.338	65.42
751.655	65.45
751.973	64.84
752.29	64.87
752.608	65.01
752.925	65.23
753.242	65.41
753.56	65.38
753.877	65.3
754.194	65.37
754.511	65.46
754.828	65.62
755.145	65.32
755.462	64.86
755.779	64.73
756.096	64.88
756.413	64.9
756.73	64.6
757.047	64.49
757.364	64.33
757.68	64.59
757.997	64.79
758.314	64.86
758.63	65.25
758.947	64.89
759.264	64.49
759.58	64.22
759.896	64.29
760.213	64.49
760.529	64.74
760.846	64.52
761.162	64.37
761.478	64.05
761.794	64.39
762.11	64.72
762.426	64.82
762.743	64.74
763.059	64.57
763.375	64.54
763.69	64.58
764.006	64.59
764.322	64.44
764.638	64.19
764.954	63.99
765.27	64.14
765.585	64.32
765.901	64.24
766.216	64.34
766.532	64.51
766.848	64.14
767.163	64.12
767.478	64.48
767.794	64.74
768.109	64.62
768.424	64.49
768.74	64.31
769.055	64.08
769.37	64.07
769.685	63.92
770	64.14
770.315	64.16
770.63	64.16
770.945	64.04
771.26	64.26
771.575	64.29
771.89	63.85
772.205	63.85
772.52	64.15
772.834	64.28
773.149	64.25
773.464	64.9
773.778	65.09
774.093	65.03
774.407	64.56
774.722	64.7
775.036	64.77
775.351	65.05
775.665	65.05
775.979	65.06
776.293	65.4
776.608	65.03
776.922	64.99
777.236	64.79
777.55	64.94
777.864	65.13
778.178	65.04
778.492	65.23
778.806	65.11
779.12	65.23
779.434	65.18
779.747	65.06
780.061	64.6
780.375	64.36
780.689	64.42
781.002	64.65
781.316	65.02
781.629	65.04
781.943	64.96
782.256	65.01
782.57	65.05
782.883	64.96
783.196	64.91
783.51	64.73
783.823	65.06
784.136	65.13
784.449	65.3
784.762	66.04
785.075	66.36
785.388	66.29
785.701	66.11
786.014	66
786.327	66.26
786.64	66.76
786.953	66.33
787.266	65.9
787.578	66.55
787.891	66.64
788.204	66.12
788.516	66.19
788.829	66.17
789.141	65.91
789.454	65.71
789.766	66.08
790.079	66.32
790.391	66.17
790.703	66.02
791.016	65.75
791.328	65.73
791.64	65.55
791.952	65.96
792.264	65.99
792.576	65.75
792.888	65.21
793.2	64.93
793.512	64.82
793.824	65.44
794.136	64.86
794.448	64.79
794.76	64.99
795.071	64.87
795.383	65.43
795.695	65.68
796.006	65.76
796.318	65.75
796.629	66.11
796.941	66.51
797.252	66.62
797.564	66.88
797.875	67.06
798.186	67.17
798.497	67.09
798.809	66.46
799.12	66.2
799.431	66.53
799.742	66.72
800.053	66.94
800.364	65.98
800.675	66.11
800.986	66.17
801.297	65.78
801.608	65.5
801.918	64.67
802.229	64.86
802.54	65.19
802.851	65.3
803.161	65.36
803.472	65.08
803.782	64.82
804.093	64.58
804.403	63.95
804.714	63.9
805.024	63.44
805.334	63.91
805.645	64.63
805.955	64.16
806.265	64.54
806.575	64.76
806.885	65.62
807.195	65.67
807.505	65.76
807.815	66.39
808.125	66.65
808.435	67.13
808.745	67.62
809.055	67.6
809.365	67.42
809.674	66.89
809.984	67.32
810.294	66.94
810.603	66.39
810.913	66.01
811.222	65.38
811.532	65.62
811.841	66.07
812.151	66.03
812.46	65.98
812.769	65.64
813.079	65.57
813.388	65.09
813.697	64.73
814.006	64.55
814.315	64.48
814.624	64.06
814.933	64.09
815.242	62.66
815.551	62.16
815.86	63.08
816.169	63.47
816.478	63.16
816.786	62.67
817.095	62.98
817.404	63.82
817.712	64.5
818.021	64.89
818.33	65.33
818.638	65.28
818.947	65.93
819.255	65.87
819.563	65.54
819.872	66.35
820.18	66.5
820.488	66.43
820.796	66.9
821.105	67.45
821.413	67.12
821.721	67.46
822.029	67.5
822.337	67.21
822.645	67.29
822.953	67.2
823.26	67.42
823.568	67.5
823.876	67.38
824.184	67.45
824.491	67.41
824.799	67.14
825.107	67.05
825.414	67.03
825.722	67.12
826.029	67.38
826.337	66.96
826.644	66.93
826.951	67.08
827.259	66.78
827.566	66.51
827.873	66.58
828.18	66.46
828.488	66.4
828.795	66.23
829.102	65.89
829.409	66.08
829.716	66.27
830.023	66.44
830.329	66.42
830.636	66.09
830.943	66.32
831.25	66.59
831.557	66.65
831.863	66.4
832.17	66.2
832.476	65.97
832.783	66.29
833.089	66.21
833.396	65.88
833.702	66.18
834.009	66.13
834.315	66.14
834.621	66.03
834.928	65.82
835.234	65.83
835.54	66.01
835.846	65.72
836.152	65.52
836.458	65.13
836.764	65.17
837.07	65.1
837.376	64.59
837.682	64.73
837.988	64.61
838.293	64.91
838.599	64.97
838.905	64.88
839.211	65.2
839.516	64.72
839.822	64.85
840.127	64.25
840.433	64.87
840.738	64.95
841.044	65.49
841.349	66.02
841.654	65.99
841.959	65.66
842.265	65.4
842.57	65
842.875	64.37
843.18	64.7
843.485	65.02
843.79	65.35
844.095	64.67
844.4	65.03
844.705	64.67
845.01	63.13
845.315	63.78
845.619	63.47
845.924	64.38
846.229	63.95
846.533	62.81
846.838	61.52
847.142	62.19
847.447	61.35
847.751	61.1
848.056	62.05
848.36	62.66
848.664	61.1
848.969	60.37
849.273	61.29
849.577	60.2
849.881	60.17
850.185	59.62
850.489	60.32
850.794	59.98
851.097	60.29
851.401	61.85
851.705	59.81
852.009	59.58
852.313	58.87
852.617	59.82
852.92	61.56
853.224	59.85
853.528	60.5
853.831	60.42
854.135	60.92
854.438	60.21
854.742	60.94
855.045	62.39
855.349	63.2
855.652	62.68
855.955	63.46
856.259	61.9
856.562	63.12
856.865	64.59
857.168	65.43
857.471	65.09
857.774	65.03
858.077	68.31
858.38	67.7
858.683	66.25
858.986	65.97
859.289	67.4
859.592	67.52
859.894	65.65
860.197	64.81
860.5	62.69
860.802	62.69
861.105	62.85
861.407	62.14
861.71	63.41
862.012	65.39
862.315	64.65
862.617	64.5
862.919	61.94
863.222	59.16
863.524	57.76
863.826	56.84
864.128	58.03
864.43	55.17
864.732	56.32
865.034	57.13
865.336	56.49
865.638	55.61
865.94	55.56
866.242	55.57
866.544	55.12
866.846	57.47
867.147	57.08
867.449	56.18
867.751	57.59
868.052	57.19
868.354	55.51
868.655	55.75
868.957	56.88
869.258	57.08
869.56	57.55
869.861	57.24
870.162	58.37
870.463	55.9
870.765	56.76
871.066	55.41
871.367	55.34
871.668	53.62
871.969	52.91
872.27	53.41
872.571	52.39
872.872	53.17
873.173	52.73
873.473	52.74
873.774	53.4
874.075	49.48
874.376	48.47
874.676	50.61
874.977	50.56
875.277	51.63
875.578	52.82
875.878	53.02
876.179	54.23
876.479	53.09
876.78	54.71
877.08	54.16
877.38	54.07
877.68	55.71
877.981	58.1
878.281	58.42
878.581	59.65
