Data from BA28474_Reflection_00003.txt Node
Date: Mon Nov 18 15:30:31 EST 2019
User: vgr7
Spectrometer: USB2G7710
Scans to average: 3
Trigger mode: 4
Integration Time (sec): 2.000000E-2
Electric dark correction enabled: true
Boxcar width: 10
XAxis mode: Wavelengths
Number of Pixels in Spectrum: 2048
>>>>>Begin Spectral Data<<<<<
177.721	-24.79
178.105	-15.46
178.488	-30.81
178.871	-63.76
179.254	-312.94
179.636	78.37
180.019	93.71
180.402	55.56
180.785	-68.66
181.168	0.5
181.55	-59.13
181.933	173.87
182.316	86.67
182.698	92.44
183.081	103.75
183.463	148.41
183.846	225.15
184.228	18655.56
184.611	-323.66
184.993	-190.15
185.376	-50.43
185.758	-74.17
186.14	-80.5
186.522	-72.8
186.904	-80.9
187.287	-120.55
187.669	-51.78
188.051	-72.77
188.433	-61.12
188.815	-54.23
189.197	-66.97
189.579	-46.67
189.961	-67.35
190.342	-48.88
190.724	-53.69
191.106	-80.13
191.488	-69.72
191.869	-47.49
192.251	-65.8
192.633	-86.92
193.014	-78.64
193.396	-161.2
193.777	-92.22
194.159	-70.02
194.54	-67.56
194.922	-67.69
195.303	-89.21
195.684	-84.8
196.065	-96.46
196.447	-112.34
196.828	-130.95
197.209	-138.88
197.59	-115.39
197.971	-106.49
198.352	-85.29
198.733	-101.16
199.114	-77.14
199.495	-93.33
199.876	-87.39
200.257	-97.12
200.638	-79.32
201.018	-98.42
201.399	-124.25
201.78	-128.07
202.16	-149.92
202.541	-190.43
202.922	-340.21
203.302	-270.06
203.683	-341.51
204.063	-332.1
204.444	-314.69
204.824	-280.7
205.204	-216.33
205.585	-279.74
205.965	-359.5
206.345	-350.4
206.725	-354.79
207.106	-517.1
207.486	-475.61
207.866	-1680.78
208.246	-647.75
208.626	-797.21
209.006	-259.76
209.386	-270.03
209.766	-252.76
210.145	-183.79
210.525	-141.57
210.905	-91.02
211.285	-79.21
211.664	-61.56
212.044	-42.92
212.424	-20.6
212.803	-27.94
213.183	-12.52
213.562	-12.83
213.942	6.15
214.321	20.85
214.701	18.99
215.08	9.13
215.459	26.92
215.838	29.2
216.218	22.77
216.597	28.37
216.976	26.77
217.355	30.98
217.734	33.43
218.113	27.73
218.492	34.21
218.871	42.01
219.25	12.34
219.629	-1.75
220.008	-6.2
220.387	-14.79
220.766	-14.12
221.144	-50.1
221.523	-57.92
221.902	-68.48
222.28	-80.74
222.659	-41.94
223.037	-31.39
223.416	-28.32
223.794	-28.74
224.173	-32.79
224.551	-31.34
224.929	-27.19
225.308	-17.9
225.686	-20.08
226.064	-18.44
226.442	-19.55
226.821	-13.27
227.199	-6.53
227.577	-8.33
227.955	-8.15
228.333	-7.81
228.711	-4.2
229.089	1.87
229.467	0.75
229.845	-0.49
230.222	-1.88
230.6	-5.7
230.978	-5.22
231.356	-4.09
231.733	-3.85
232.111	-2.44
232.488	-0.85
232.866	0.77
233.243	-0.58
233.621	-1.92
233.998	-0.87
234.376	-0.04
234.753	-2.94
235.13	-3.14
235.508	-2.34
235.885	-0.86
236.262	-1.46
236.639	-1.73
237.016	-2.32
237.393	0.19
237.77	1.58
238.147	2.69
238.524	2.58
238.901	2.45
239.278	2.3
239.655	3
240.032	2.5
240.409	2.56
240.785	2.54
241.162	3.49
241.539	4.47
241.915	4.35
242.292	3.85
242.668	3.95
243.045	3.91
243.421	4.46
243.798	4
244.174	4.41
244.551	4.42
244.927	4.32
245.303	4.28
245.679	4.39
246.056	4.37
246.432	4.53
246.808	4.8
247.184	4.62
247.56	4.34
247.936	4.54
248.312	4.63
248.688	4.47
249.064	4.18
249.44	4.05
249.815	4.1
250.191	4.34
250.567	4.32
250.943	4.31
251.318	4.35
251.694	4.55
252.069	4.27
252.445	4.38
252.82	4.42
253.196	4.53
253.571	4.58
253.947	4.8
254.322	5.04
254.697	4.45
255.073	4.48
255.448	4.08
255.823	3.96
256.198	3.99
256.573	3.91
256.948	4.32
257.323	4.53
257.698	4.43
258.073	4.45
258.448	4.46
258.823	4.41
259.198	4.17
259.573	4.02
259.948	4.01
260.322	4.06
260.697	4.11
261.072	3.86
261.446	3.71
261.821	3.62
262.195	3.67
262.57	3.7
262.944	3.6
263.319	3.7
263.693	3.56
264.067	3.41
264.442	3.54
264.816	3.32
265.19	3.1
265.564	3.27
265.938	3.04
266.313	3.14
266.687	3.18
267.061	3.17
267.435	3.3
267.809	3.3
268.183	3.25
268.556	3.15
268.93	3.33
269.304	3.54
269.678	3.78
270.051	3.83
270.425	4.02
270.799	4.18
271.172	4.26
271.546	4.42
271.919	4.69
272.293	4.68
272.666	4.66
273.04	4.61
273.413	4.5
273.787	4.78
274.16	4.67
274.533	4.5
274.906	4.63
275.279	4.61
275.653	4.61
276.026	4.53
276.399	4.59
276.772	4.76
277.145	4.5
277.518	4.43
277.891	4.32
278.263	4.19
278.636	4.14
279.009	4.11
279.382	4.18
279.755	4.08
280.127	4.13
280.5	4.23
280.872	4.38
281.245	4.39
281.617	4.25
281.99	4.29
282.362	4.39
282.735	4.13
283.107	4.09
283.479	4.16
283.852	4.13
284.224	4.08
284.596	3.9
284.968	3.93
285.34	3.85
285.713	3.74
286.085	3.72
286.457	3.67
286.829	3.7
287.201	3.73
287.572	3.55
287.944	3.53
288.316	3.51
288.688	3.41
289.06	3.44
289.431	3.41
289.803	3.41
290.175	3.37
290.546	3.48
290.918	3.52
291.289	3.55
291.661	3.6
292.032	3.62
292.403	3.73
292.775	3.89
293.146	3.75
293.517	3.76
293.889	3.74
294.26	3.82
294.631	3.79
295.002	3.74
295.373	3.85
295.744	3.76
296.115	3.71
296.486	3.54
296.857	3.45
297.228	3.5
297.599	3.43
297.97	3.54
298.34	3.6
298.711	3.63
299.082	3.54
299.452	3.56
299.823	3.69
300.194	3.68
300.564	3.67
300.935	3.73
301.305	3.83
301.676	3.96
302.046	3.98
302.416	4.11
302.787	3.96
303.157	3.77
303.527	3.78
303.897	3.76
304.267	4.07
304.637	4.17
305.008	4.16
305.378	4.28
305.748	4.23
306.117	4.21
306.487	4.16
306.857	4.21
307.227	4.17
307.597	3.95
307.967	3.96
308.336	3.83
308.706	3.83
309.076	3.79
309.445	3.66
309.815	3.62
310.184	3.48
310.554	3.59
310.923	3.63
311.293	3.63
311.662	3.57
312.031	3.43
312.401	3.44
312.77	3.46
313.139	3.54
313.508	3.55
313.877	3.49
314.246	3.42
314.616	3.42
314.985	3.42
315.353	3.58
315.722	3.65
316.091	3.57
316.46	3.63
316.829	3.55
317.198	3.66
317.567	3.61
317.935	3.63
318.304	3.59
318.672	3.62
319.041	3.65
319.41	3.85
319.778	4.01
320.147	4.01
320.515	4.03
320.883	3.88
321.252	4.01
321.62	4.13
321.988	4.13
322.357	3.93
322.725	3.91
323.093	3.87
323.461	3.83
323.829	3.96
324.197	4.01
324.565	4
324.933	4.03
325.301	4.04
325.669	4.14
326.037	4.1
326.405	4.21
326.772	4.31
327.14	4.31
327.508	4.26
327.875	4.09
328.243	4.02
328.61	3.97
328.978	3.8
329.346	3.85
329.713	3.8
330.08	4.01
330.448	4
330.815	3.98
331.182	3.9
331.55	3.95
331.917	3.93
332.284	4.13
332.651	4.04
333.018	4.01
333.385	3.82
333.752	3.78
334.119	3.67
334.486	3.65
334.853	3.59
335.22	3.52
335.587	3.73
335.954	3.69
336.32	3.65
336.687	3.74
337.054	3.59
337.42	3.67
337.787	3.64
338.153	3.61
338.52	3.61
338.886	3.48
339.253	3.29
339.619	3.21
339.986	3
340.352	3.11
340.718	3.07
341.084	3.11
341.451	3.23
341.817	3.41
342.183	3.42
342.549	3.46
342.915	3.48
343.281	3.49
343.647	3.52
344.013	3.56
344.379	3.5
344.745	3.55
345.11	3.55
345.476	3.53
345.842	3.58
346.208	3.64
346.573	3.7
346.939	3.77
347.304	3.79
347.67	3.83
348.035	3.72
348.401	3.83
348.766	3.87
349.132	3.87
349.497	3.7
349.862	3.74
350.228	3.76
350.593	3.75
350.958	3.72
351.323	3.79
351.688	3.81
352.053	3.9
352.418	3.9
352.783	3.88
353.148	3.81
353.513	3.75
353.878	3.74
354.243	3.83
354.608	3.82
354.972	3.82
355.337	3.83
355.702	3.93
356.066	3.88
356.431	3.85
356.795	3.87
357.16	3.92
357.524	3.82
357.889	3.74
358.253	3.74
358.618	3.71
358.982	3.7
359.346	3.69
359.71	3.58
360.075	3.56
360.439	3.57
360.803	3.64
361.167	3.64
361.531	3.63
361.895	3.58
362.259	3.55
362.623	3.55
362.987	3.55
363.351	3.5
363.714	3.49
364.078	3.51
364.442	3.41
364.806	3.38
365.169	3.38
365.533	3.41
365.896	3.37
366.26	3.31
366.623	3.29
366.987	3.26
367.35	3.33
367.714	3.35
368.077	3.4
368.44	3.4
368.803	3.43
369.167	3.33
369.53	3.25
369.893	3.34
370.256	3.34
370.619	3.33
370.982	3.27
371.345	3.25
371.708	3.28
372.071	3.3
372.434	3.31
372.797	3.34
373.159	3.26
373.522	3.34
373.885	3.43
374.247	3.42
374.61	3.46
374.973	3.37
375.335	3.39
375.698	3.4
376.06	3.35
376.423	3.36
376.785	3.46
377.147	3.57
377.51	3.57
377.872	3.57
378.234	3.59
378.596	3.64
378.958	3.62
379.321	3.59
379.683	3.67
380.045	3.71
380.407	3.74
380.769	3.79
381.13	3.77
381.492	3.75
381.854	3.78
382.216	3.79
382.578	3.88
382.939	3.79
383.301	3.76
383.663	3.76
384.024	3.77
384.386	3.81
384.747	3.77
385.109	3.74
385.47	3.69
385.832	3.68
386.193	3.69
386.554	3.72
386.916	3.72
387.277	3.69
387.638	3.71
387.999	3.65
388.36	3.66
388.721	3.68
389.082	3.66
389.443	3.63
389.804	3.6
390.165	3.58
390.526	3.63
390.887	3.6
391.248	3.62
391.609	3.61
391.969	3.57
392.33	3.56
392.691	3.58
393.051	3.62
393.412	3.62
393.772	3.62
394.133	3.63
394.493	3.63
394.854	3.61
395.214	3.58
395.574	3.62
395.935	3.6
396.295	3.62
396.655	3.64
397.015	3.66
397.376	3.68
397.736	3.69
398.096	3.73
398.456	3.77
398.816	3.8
399.176	3.78
399.535	3.77
399.895	3.78
400.255	3.78
400.615	3.79
400.975	3.82
401.334	3.8
401.694	3.8
402.054	3.79
402.413	3.84
402.773	3.82
403.132	3.79
403.492	3.8
403.851	3.78
404.211	3.8
404.57	3.8
404.929	3.81
405.288	3.79
405.648	3.76
406.007	3.73
406.366	3.71
406.725	3.73
407.084	3.76
407.443	3.76
407.802	3.77
408.161	3.76
408.52	3.74
408.879	3.77
409.238	3.77
409.596	3.77
409.955	3.72
410.314	3.76
410.673	3.79
411.031	3.79
411.39	3.78
411.748	3.76
412.107	3.77
412.465	3.75
412.824	3.76
413.182	3.75
413.54	3.75
413.899	3.76
414.257	3.72
414.615	3.7
414.974	3.72
415.332	3.71
415.69	3.7
416.048	3.69
416.406	3.67
416.764	3.66
417.122	3.68
417.48	3.68
417.838	3.68
418.195	3.68
418.553	3.68
418.911	3.68
419.269	3.68
419.626	3.68
419.984	3.68
420.342	3.69
420.699	3.69
421.057	3.71
421.414	3.71
421.772	3.74
422.129	3.75
422.486	3.75
422.844	3.75
423.201	3.75
423.558	3.77
423.915	3.78
424.273	3.78
424.63	3.77
424.987	3.77
425.344	3.77
425.701	3.78
426.058	3.78
426.415	3.79
426.772	3.79
427.128	3.76
427.485	3.77
427.842	3.75
428.199	3.77
428.555	3.78
428.912	3.77
429.269	3.77
429.625	3.77
429.982	3.74
430.338	3.75
430.695	3.74
431.051	3.71
431.407	3.71
431.764	3.7
432.12	3.71
432.476	3.73
432.832	3.7
433.189	3.7
433.545	3.7
433.901	3.7
434.257	3.69
434.613	3.73
434.969	3.73
435.325	3.76
435.681	3.73
436.036	3.71
436.392	3.72
436.748	3.72
437.104	3.71
437.459	3.71
437.815	3.71
438.171	3.73
438.526	3.76
438.882	3.77
439.237	3.79
439.593	3.8
439.948	3.79
440.304	3.81
440.659	3.8
441.014	3.81
441.369	3.8
441.725	3.8
442.08	3.8
442.435	3.8
442.79	3.78
443.145	3.78
443.5	3.79
443.855	3.8
444.21	3.78
444.565	3.78
444.92	3.78
445.275	3.77
445.629	3.77
445.984	3.74
446.339	3.74
446.693	3.74
447.048	3.72
447.403	3.72
447.757	3.72
448.112	3.71
448.466	3.7
448.82	3.71
449.175	3.72
449.529	3.7
449.883	3.68
450.238	3.68
450.592	3.69
450.946	3.68
451.3	3.67
451.654	3.68
452.008	3.68
452.362	3.67
452.716	3.68
453.07	3.68
453.424	3.69
453.778	3.69
454.132	3.67
454.486	3.67
454.839	3.66
455.193	3.65
455.547	3.64
455.9	3.64
456.254	3.67
456.607	3.65
456.961	3.67
457.314	3.69
457.668	3.69
458.021	3.69
458.375	3.7
458.728	3.71
459.081	3.72
459.434	3.72
459.787	3.75
460.141	3.73
460.494	3.72
460.847	3.74
461.2	3.74
461.553	3.74
461.906	3.74
462.259	3.76
462.611	3.78
462.964	3.81
463.317	3.8
463.67	3.8
464.022	3.82
464.375	3.81
464.728	3.81
465.08	3.82
465.433	3.8
465.785	3.79
466.138	3.79
466.49	3.8
466.843	3.81
467.195	3.79
467.547	3.8
467.899	3.82
468.252	3.81
468.604	3.82
468.956	3.83
469.308	3.83
469.66	3.83
470.012	3.82
470.364	3.8
470.716	3.79
471.068	3.79
471.42	3.79
471.772	3.82
472.123	3.82
472.475	3.82
472.827	3.84
473.178	3.85
473.53	3.83
473.882	3.83
474.233	3.82
474.585	3.8
474.936	3.8
475.288	3.79
475.639	3.79
475.99	3.8
476.342	3.8
476.693	3.81
477.044	3.83
477.395	3.83
477.746	3.84
478.097	3.85
478.448	3.85
478.8	3.86
479.15	3.82
479.501	3.84
479.852	3.85
480.203	3.85
480.554	3.86
480.905	3.88
481.255	3.88
481.606	3.89
481.957	3.9
482.307	3.91
482.658	3.92
483.009	3.92
483.359	3.92
483.709	3.92
484.06	3.93
484.41	3.92
484.761	3.93
485.111	3.94
485.461	3.94
485.811	3.93
486.162	3.94
486.512	3.95
486.862	3.95
487.212	3.94
487.562	3.95
487.912	3.95
488.262	3.94
488.612	3.94
488.961	3.93
489.311	3.94
489.661	3.93
490.011	3.93
490.36	3.93
490.71	3.93
491.06	3.93
491.409	3.92
491.759	3.91
492.108	3.92
492.458	3.92
492.807	3.92
493.157	3.93
493.506	3.93
493.855	3.91
494.204	3.9
494.554	3.9
494.903	3.9
495.252	3.89
495.601	3.89
495.95	3.9
496.299	3.91
496.648	3.9
496.997	3.92
497.346	3.94
497.695	3.95
498.043	3.94
498.392	3.93
498.741	3.93
499.09	3.92
499.438	3.91
499.787	3.92
500.135	3.92
500.484	3.9
500.832	3.92
501.181	3.93
501.529	3.93
501.878	3.96
502.226	3.97
502.574	3.97
502.923	3.97
503.271	3.93
503.619	3.95
503.967	3.96
504.315	3.95
504.663	3.94
505.011	3.93
505.359	3.93
505.707	3.94
506.055	3.97
506.403	3.99
506.751	3.99
507.098	3.98
507.446	3.99
507.794	3.99
508.141	3.99
508.489	3.98
508.837	4
509.184	4
509.531	3.99
509.879	4
510.226	4.01
510.574	4.03
510.921	4.03
511.268	4.02
511.616	4.04
511.963	4.06
512.31	4.06
512.657	4.08
513.004	4.08
513.351	4.12
513.698	4.12
514.045	4.13
514.392	4.16
514.739	4.16
515.086	4.17
515.432	4.16
515.779	4.16
516.126	4.16
516.473	4.16
516.819	4.19
517.166	4.2
517.512	4.2
517.859	4.2
518.205	4.17
518.552	4.2
518.898	4.19
519.245	4.16
519.591	4.18
519.937	4.15
520.283	4.15
520.629	4.13
520.976	4.1
521.322	4.09
521.668	4.09
522.014	4.1
522.36	4.1
522.706	4.12
523.052	4.14
523.398	4.15
523.743	4.15
524.089	4.14
524.435	4.15
524.781	4.16
525.126	4.16
525.472	4.19
525.817	4.2
526.163	4.21
526.509	4.22
526.854	4.23
527.199	4.25
527.545	4.25
527.89	4.24
528.235	4.27
528.581	4.27
528.926	4.27
529.271	4.27
529.616	4.27
529.961	4.27
530.306	4.27
530.651	4.26
530.996	4.25
531.341	4.25
531.686	4.25
532.031	4.25
532.376	4.25
532.721	4.24
533.065	4.22
533.41	4.23
533.755	4.23
534.099	4.23
534.444	4.22
534.788	4.24
535.133	4.25
535.477	4.24
535.822	4.23
536.166	4.23
536.51	4.22
536.855	4.22
537.199	4.21
537.543	4.23
537.887	4.24
538.231	4.26
538.576	4.27
538.92	4.28
539.264	4.27
539.608	4.27
539.951	4.28
540.295	4.28
540.639	4.28
540.983	4.29
541.327	4.28
541.671	4.28
542.014	4.28
542.358	4.28
542.701	4.3
543.045	4.3
543.389	4.32
543.732	4.33
544.075	4.33
544.419	4.34
544.762	4.34
545.105	4.36
545.449	4.36
545.792	4.34
546.135	4.36
546.478	4.37
546.821	4.38
547.165	4.36
547.508	4.37
547.851	4.36
548.194	4.35
548.536	4.36
548.879	4.37
549.222	4.37
549.565	4.37
549.908	4.36
550.25	4.36
550.593	4.37
550.936	4.36
551.278	4.35
551.621	4.33
551.963	4.33
552.306	4.3
552.648	4.3
552.991	4.33
553.333	4.31
553.675	4.3
554.017	4.32
554.36	4.38
554.702	4.38
555.044	4.36
555.386	4.38
555.728	4.37
556.07	4.39
556.412	4.37
556.754	4.36
557.096	4.35
557.438	4.35
557.78	4.33
558.121	4.35
558.463	4.36
558.805	4.37
559.147	4.37
559.488	4.39
559.83	4.38
560.171	4.38
560.513	4.37
560.854	4.39
561.196	4.39
561.537	4.34
561.878	4.31
562.22	4.33
562.561	4.33
562.902	4.34
563.243	4.36
563.584	4.37
563.925	4.39
564.266	4.36
564.607	4.35
564.948	4.38
565.289	4.34
565.63	4.35
565.971	4.36
566.312	4.36
566.653	4.36
566.993	4.36
567.334	4.33
567.675	4.35
568.015	4.36
568.356	4.37
568.696	4.38
569.037	4.42
569.377	4.44
569.718	4.43
570.058	4.43
570.398	4.4
570.739	4.42
571.079	4.43
571.419	4.47
571.759	4.5
572.099	4.49
572.439	4.53
572.779	4.51
573.119	4.53
573.459	4.55
573.799	4.55
574.139	4.54
574.479	4.54
574.819	4.52
575.158	4.5
575.498	4.48
575.838	4.51
576.177	4.49
576.517	4.45
576.856	4.47
577.196	4.48
577.535	4.48
577.875	4.46
578.214	4.44
578.553	4.47
578.893	4.43
579.232	4.42
579.571	4.39
579.91	4.39
580.25	4.39
580.589	4.39
580.928	4.4
581.267	4.4
581.606	4.43
581.945	4.43
582.283	4.46
582.622	4.46
582.961	4.48
583.3	4.51
583.639	4.57
583.977	4.55
584.316	4.51
584.654	4.53
584.993	4.56
585.332	4.57
585.67	4.49
586.008	4.49
586.347	4.47
586.685	4.48
587.024	4.51
587.362	4.49
587.7	4.48
588.038	4.53
588.376	4.53
588.715	4.53
589.053	4.55
589.391	4.54
589.729	4.59
590.067	4.55
590.404	4.54
590.742	4.56
591.08	4.54
591.418	4.59
591.756	4.58
592.093	4.56
592.431	4.55
592.769	4.59
593.106	4.59
593.444	4.62
593.781	4.62
594.119	4.63
594.456	4.63
594.793	4.64
595.131	4.56
595.468	4.59
595.805	4.57
596.143	4.6
596.48	4.55
596.817	4.51
597.154	4.51
597.491	4.49
597.828	4.46
598.165	4.48
598.502	4.43
598.839	4.45
599.176	4.46
599.512	4.46
599.849	4.46
600.186	4.48
600.523	4.5
600.859	4.55
601.196	4.52
601.532	4.55
601.869	4.55
602.205	4.57
602.542	4.55
602.878	4.57
603.215	4.53
603.551	4.58
603.887	4.58
604.223	4.59
604.56	4.63
604.896	4.65
605.232	4.66
605.568	4.67
605.904	4.65
606.24	4.67
606.576	4.67
606.912	4.68
607.248	4.7
607.583	4.68
607.919	4.66
608.255	4.66
608.591	4.67
608.926	4.67
609.262	4.73
609.597	4.74
609.933	4.77
610.268	4.79
610.604	4.78
610.939	4.77
611.275	4.78
611.61	4.76
611.945	4.72
612.281	4.71
612.616	4.73
612.951	4.77
613.286	4.78
613.621	4.8
613.956	4.8
614.291	4.78
614.626	4.77
614.961	4.72
615.296	4.71
615.631	4.69
615.966	4.7
616.3	4.65
616.635	4.66
616.97	4.64
617.304	4.61
617.639	4.65
617.973	4.67
618.308	4.62
618.642	4.64
618.977	4.66
619.311	4.66
619.646	4.69
619.98	4.69
620.314	4.69
620.648	4.71
620.983	4.72
621.317	4.74
621.651	4.78
621.985	4.81
622.319	4.8
622.653	4.78
622.987	4.85
623.321	4.86
623.655	4.83
623.988	4.83
624.322	4.85
624.656	4.88
624.99	4.91
625.323	4.95
625.657	4.95
625.99	4.95
626.324	4.96
626.657	4.94
626.991	4.93
627.324	4.91
627.658	4.89
627.991	4.87
628.324	4.84
628.657	4.86
628.991	4.84
629.324	4.85
629.657	4.85
629.99	4.78
630.323	4.78
630.656	4.82
630.989	4.82
631.322	4.8
631.655	4.7
631.987	4.69
632.32	4.7
632.653	4.66
632.986	4.68
633.318	4.65
633.651	4.62
633.984	4.64
634.316	4.64
634.649	4.7
634.981	4.72
635.313	4.73
635.646	4.71
635.978	4.75
636.31	4.72
636.643	4.77
636.975	4.81
637.307	4.82
637.639	4.85
637.971	4.86
638.303	4.88
638.635	4.9
638.967	4.91
639.299	4.91
639.631	4.94
639.963	4.92
640.295	4.96
640.626	5.01
640.958	5
641.29	5.02
641.621	4.99
641.953	4.97
642.285	4.99
642.616	5.01
642.948	5.01
643.279	5.09
643.61	5.01
643.942	5.01
644.273	5
644.604	4.99
644.936	4.9
645.267	4.96
645.598	5.01
645.929	5.01
646.26	5.07
646.591	5.07
646.922	5.05
647.253	5.06
647.584	5.06
647.915	5
648.245	5
648.576	5.02
648.907	5.05
649.238	5.02
649.568	4.95
649.899	4.95
650.229	4.92
650.56	4.96
650.89	4.99
651.221	4.98
651.551	4.97
651.882	5.05
652.212	5.03
652.542	5.02
652.872	4.97
653.203	4.89
653.533	4.93
653.863	4.93
654.193	4.91
654.523	4.91
654.853	4.99
655.183	4.98
655.513	4.95
655.843	4.99
656.172	5.06
656.502	5.08
656.832	5.09
657.162	5.17
657.491	5.18
657.821	5.18
658.15	5.24
658.48	5.22
658.809	5.19
659.139	5.13
659.468	5.13
659.798	5.16
660.127	5.22
660.456	5.21
660.785	5.21
661.115	5.24
661.444	5.25
661.773	5.27
662.102	5.34
662.431	5.36
662.76	5.32
663.089	5.32
663.418	5.28
663.747	5.26
664.076	5.15
664.404	5.1
664.733	5.14
665.062	5.15
665.39	5.08
665.719	5.09
666.048	5.18
666.376	5.09
666.705	5.06
667.033	5.01
667.362	5.09
667.69	5.12
668.018	5.06
668.347	5.06
668.675	5.12
669.003	5.15
669.331	5.18
669.659	5.22
669.987	5.19
670.315	5.25
670.643	5.32
670.971	5.35
671.299	5.44
671.627	5.38
671.955	5.4
672.283	5.51
672.61	5.58
672.938	5.6
673.266	5.74
673.593	5.83
673.921	5.84
674.249	5.77
674.576	5.8
674.904	5.9
675.231	5.89
675.558	5.76
675.886	5.72
676.213	5.66
676.54	5.6
676.867	5.6
677.195	5.62
677.522	5.55
677.849	5.58
678.176	5.54
678.503	5.49
678.83	5.49
679.157	5.49
679.484	5.42
679.81	5.38
680.137	5.33
680.464	5.3
680.791	5.28
681.117	5.26
681.444	5.18
681.771	5.13
682.097	5.12
682.424	5.09
682.75	5.08
683.077	5.16
683.403	5.09
683.729	5.09
684.056	5.1
684.382	5.14
684.708	5.16
685.034	5.19
685.36	5.27
685.686	5.19
686.012	5.15
686.339	5.19
686.664	5.22
686.99	5.25
687.316	5.27
687.642	5.36
687.968	5.34
688.294	5.41
688.619	5.41
688.945	5.42
689.271	5.41
689.596	5.33
689.922	5.23
690.247	5.33
690.573	5.32
690.898	5.3
691.224	5.31
691.549	5.26
691.874	5.16
692.2	5.16
692.525	5.26
692.85	5.32
693.175	5.31
693.5	5.25
693.825	5.32
694.15	5.28
694.475	5.32
694.8	5.35
695.125	5.34
695.45	5.31
695.775	5.33
696.099	5.41
696.424	5.49
696.749	5.44
697.073	5.43
697.398	5.46
697.723	5.44
698.047	5.48
698.372	5.53
698.696	5.55
699.02	5.52
699.345	5.49
699.669	5.52
699.993	5.56
700.318	5.56
700.642	5.5
700.966	5.48
701.29	5.49
701.614	5.51
701.938	5.52
702.262	5.63
702.586	5.67
702.91	5.65
703.234	5.65
703.557	5.77
703.881	5.81
704.205	5.76
704.529	5.86
704.852	5.76
705.176	5.77
705.499	5.73
705.823	5.66
706.146	5.66
706.47	5.53
706.793	5.4
707.117	5.39
707.44	5.45
707.763	5.54
708.086	5.37
708.409	5.3
708.733	5.32
709.056	5.14
709.379	5.17
709.702	5.24
710.025	5.18
710.348	5.14
710.671	5.16
710.993	5.23
711.316	5.2
711.639	5.28
711.962	5.39
712.284	5.46
712.607	5.6
712.93	5.65
713.252	5.76
713.575	5.94
713.897	6.06
714.22	5.99
714.542	6.01
714.864	6.02
715.187	6.19
715.509	6.1
715.831	6.23
716.153	6.2
716.475	6.17
716.798	6.3
717.12	6.26
717.442	6.37
717.764	6.26
718.085	6.15
718.407	6.12
718.729	6
719.051	6.03
719.373	5.83
719.695	5.94
720.016	6.01
720.338	6.04
720.659	5.87
720.981	5.93
721.302	6
721.624	6
721.945	6.02
722.267	6.02
722.588	5.95
722.909	5.89
723.231	5.86
723.552	5.67
723.873	5.78
724.194	5.81
724.515	5.88
724.836	6.01
725.157	6.05
725.478	5.86
725.799	5.91
726.12	5.95
726.441	5.84
726.762	5.67
727.083	5.62
727.403	5.75
727.724	5.83
728.045	5.84
728.365	5.85
728.686	5.61
729.006	5.59
729.327	5.66
729.647	5.66
729.967	5.8
730.288	6.02
730.608	5.94
730.928	5.94
731.249	5.95
731.569	6.11
731.889	6.2
732.209	6.42
732.529	6.42
732.849	6.5
733.169	6.33
733.489	6.3
733.809	6.33
734.129	6.28
734.448	6.38
734.768	6.22
735.088	6.32
735.408	6.53
735.727	6.78
736.047	6.74
736.366	6.72
736.686	6.74
737.005	6.68
737.325	6.62
737.644	6.51
737.963	6.59
738.283	6.32
738.602	6.31
738.921	6.19
739.24	6.26
739.56	6.35
739.879	6.48
740.198	6.68
740.517	6.71
740.836	6.81
741.155	6.59
741.473	6.6
741.792	6.53
742.111	6.56
742.43	6.41
742.748	6.26
743.067	6.49
743.386	6.41
743.704	6.31
744.023	6.62
744.341	6.55
744.66	6.76
744.978	6.81
745.297	6.77
745.615	7.01
745.933	6.81
746.252	6.58
746.57	6.7
746.888	6.5
747.206	6.29
747.524	6.37
747.842	6.69
748.16	6.95
748.478	7.15
748.796	7.24
749.114	7.52
749.432	7.57
749.749	7.45
750.067	7.33
750.385	7.25
750.703	7.11
751.02	7.1
751.338	6.79
751.655	6.76
751.973	6.76
752.29	6.67
752.608	6.86
752.925	7.09
753.242	6.96
753.56	6.83
753.877	6.84
754.194	6.6
754.511	6.34
754.828	6.22
755.145	5.97
755.462	5.73
755.779	5.66
756.096	6.05
756.413	6.04
756.73	6.28
757.047	6.56
757.364	6.55
757.68	6.48
757.997	6.68
758.314	6.7
758.63	6.51
758.947	6.44
759.264	6.37
759.58	6.44
759.896	6.75
760.213	6.79
760.529	6.84
760.846	6.99
761.162	7.01
761.478	7.05
761.794	7.17
762.11	7.29
762.426	7.3
762.743	7.23
763.059	7.31
763.375	7.25
763.69	7.19
764.006	7.24
764.322	7.4
764.638	7.51
764.954	7.7
765.27	7.86
765.585	7.77
765.901	7.83
766.216	7.92
766.532	7.58
766.848	7.59
767.163	7.64
767.478	7.69
767.794	7.9
768.109	7.98
768.424	7.94
768.74	8.09
769.055	8.06
769.37	7.99
769.685	7.76
770	7.8
770.315	7.67
770.63	7.43
770.945	7.43
771.26	7.3
771.575	7.08
771.89	6.97
772.205	7.13
772.52	7.15
772.834	6.95
773.149	7.02
773.464	7.15
773.778	7.22
774.093	6.82
774.407	6.5
774.722	6.12
775.036	6.38
775.351	6.4
775.665	6.3
775.979	6.35
776.293	6.51
776.608	6.21
776.922	6.14
777.236	6.49
777.55	6.51
777.864	6.37
778.178	6.56
778.492	6.83
778.806	6.73
779.12	6.55
779.434	6.59
779.747	6.73
780.061	6.94
780.375	6.69
780.689	7.06
781.002	7.28
781.316	7.56
781.629	7.52
781.943	7.3
782.256	7.45
782.57	7.28
782.883	7.41
783.196	7.83
783.51	8.11
783.823	8.05
784.136	8.3
784.449	8.34
784.762	8.16
785.075	8.05
785.388	8.44
785.701	8.44
786.014	8.24
786.327	8.24
786.64	8.57
786.953	9.02
787.266	8.79
787.578	8.79
787.891	8.97
788.204	8.51
788.516	8.62
788.829	8.52
789.141	8.9
789.454	8.91
789.766	9.29
790.079	9.49
790.391	9.22
790.703	9.35
791.016	9.05
791.328	9.15
791.64	9.11
791.952	9.03
792.264	8.81
792.576	8.82
792.888	9.09
793.2	8.82
793.512	8.92
793.824	8.88
794.136	8.94
794.448	9.03
794.76	8.99
795.071	9.11
795.383	9.38
795.695	9.05
796.006	8.92
796.318	8.39
796.629	7.89
796.941	8.19
797.252	8.25
797.564	8.76
797.875	8.78
798.186	8.36
798.497	8.06
798.809	8.18
799.12	8.34
799.431	8.1
799.742	8
800.053	7.85
800.364	8.26
800.675	7.77
800.986	7.61
801.297	7.99
801.608	7.49
801.918	6.95
802.229	7.11
802.54	7.1
802.851	7.2
803.161	7.4
803.472	7.6
803.782	7.53
804.093	7.2
804.403	7.2
804.714	7.79
805.024	7.94
805.334	8.42
805.645	8.46
805.955	8.4
806.265	8.62
806.575	8.5
806.885	8.72
807.195	9.6
807.505	9.75
807.815	9.59
808.125	10.04
808.435	10.41
808.745	10.28
809.055	10.83
809.365	11.04
809.674	10.56
809.984	10.18
810.294	9.74
810.603	9.64
810.913	10.36
811.222	10.61
811.532	11.48
811.841	11.63
812.151	12.5
812.46	12.94
812.769	12.38
813.079	12.24
813.388	11.52
813.697	11.07
814.006	10.41
814.315	11.13
814.624	11
814.933	10.62
815.242	10.8
815.551	10.57
815.86	10.8
816.169	11.55
816.478	11.28
816.786	11.55
817.095	11.95
817.404	11.68
817.712	11.68
818.021	10.85
818.33	10.86
818.638	9.88
818.947	9.88
819.255	9.7
819.563	9.64
819.872	9.67
820.18	9.82
820.488	9.99
820.796	9.95
821.105	9.89
821.413	10.04
821.721	9.87
822.029	9.96
822.337	9.9
822.645	9.71
822.953	9.66
823.26	9.59
823.568	9.57
823.876	9.39
824.184	9.27
824.491	9.36
824.799	9.24
825.107	9.25
825.414	9.3
825.722	9.36
826.029	9.54
826.337	9.76
826.644	9.79
826.951	9.81
827.259	9.68
827.566	9.66
827.873	9.62
828.18	9.79
828.488	9.85
828.795	9.69
829.102	10.09
829.409	10.61
829.716	10.58
830.023	10.59
830.329	10.82
830.636	11
830.943	11.08
831.25	11.03
831.557	11.04
831.863	11.06
832.17	11.48
832.476	11.23
832.783	11.18
833.089	10.93
833.396	11.15
833.702	11.23
834.009	11.3
834.315	11.5
834.621	11.61
834.928	11.44
835.234	11.51
835.54	11.13
835.846	10.82
836.152	11.31
836.458	11.33
836.764	10.92
837.07	10.98
837.376	9.79
837.682	9.66
837.988	10.12
838.293	9.9
838.599	9.87
838.905	9.56
839.211	9.19
839.516	9.59
839.822	9.35
840.127	9.56
840.433	9.59
840.738	9.39
841.044	8.81
841.349	8.99
841.654	9.11
841.959	9.59
842.265	9.73
842.57	9.75
842.875	10.49
843.18	11.18
843.485	11.68
843.79	14.11
844.095	13.42
844.4	13.79
844.705	13.47
845.01	12.64
845.315	13.95
845.619	14.03
845.924	14.41
846.229	13.98
846.533	13.38
846.838	12.84
847.142	11.61
847.447	11.79
847.751	10.42
848.056	8.65
848.36	9.6
848.664	9
848.969	9.46
849.273	7.1
849.577	7.74
849.881	5.49
850.185	4.94
850.489	7.9
850.794	5.6
851.097	5.57
851.401	5.27
851.705	3.73
852.009	4.22
852.313	3.3
852.617	2
852.92	2.73
853.224	1.45
853.528	3.92
853.831	3.92
854.135	4.6
854.438	5.33
854.742	2.84
855.045	2.91
855.349	1.03
855.652	1.77
855.955	1.81
856.259	2.34
856.562	2.8
856.865	2.57
857.168	3.54
857.471	4.62
857.774	3.88
858.077	4.82
858.38	3.99
858.683	2.51
858.986	5.13
859.289	5.54
859.592	7.78
859.894	7.49
860.197	8.58
860.5	8.36
860.802	9.19
861.105	8.12
861.407	8.12
861.71	8.24
862.012	10.6
862.315	9.62
862.617	9.06
862.919	8.49
863.222	9.1
863.524	9.39
863.826	9.08
864.128	10.49
864.43	10.61
864.732	11.61
865.034	12.95
865.336	11.58
865.638	10.28
865.94	9.24
866.242	7.06
866.544	6.43
866.846	5.55
867.147	5.66
867.449	7.38
867.751	8.13
868.052	9.76
868.354	7.36
868.655	8.41
868.957	10.58
869.258	10.08
869.56	8.43
869.861	6.16
870.162	6.18
870.463	6.75
870.765	6.64
871.066	6.73
871.367	6.54
871.668	8.21
871.969	8.01
872.27	7.72
872.571	9.41
872.872	9.62
873.173	9.69
873.473	11.63
873.774	10.95
874.075	10.39
874.376	8.55
874.676	9.59
874.977	5.17
875.277	3.38
875.578	4.24
875.878	4.43
876.179	6.11
876.479	5.9
876.78	5.24
877.08	5.62
877.38	4.08
877.68	3.6
877.981	1.92
878.281	3.19
878.581	4.95
