Data from BA28473_Reflection_00009.txt Node
Date: Mon Nov 18 15:28:30 EST 2019
User: vgr7
Spectrometer: USB2G7710
Scans to average: 3
Trigger mode: 4
Integration Time (sec): 2.000000E-2
Electric dark correction enabled: true
Boxcar width: 10
XAxis mode: Wavelengths
Number of Pixels in Spectrum: 2048
>>>>>Begin Spectral Data<<<<<
177.721	-102.78
178.105	-98.61
178.488	-93.48
178.871	-171.49
179.254	-141.16
179.636	32.58
180.019	122.9
180.402	62.5
180.785	-94.81
181.168	475
181.55	166.08
181.933	87.12
182.316	112.32
182.698	63.33
183.081	64.99
183.463	72.24
183.846	67.5
184.228	85.26
184.611	88.29
184.993	339.39
185.376	198.62
185.758	148.99
186.14	178.22
186.522	112.95
186.904	124.9
187.287	118.76
187.669	102.08
188.051	75.21
188.433	51.97
188.815	5.7
189.197	67.19
189.579	79.87
189.961	48.66
190.342	-100.92
190.724	40.82
191.106	93.32
191.488	12.47
191.869	66.12
192.251	258.77
192.633	155.09
193.014	-90.67
193.396	-104.05
193.777	-161.21
194.159	-372.34
194.54	287.12
194.922	152.54
195.303	257.39
195.684	338.29
196.065	168.37
196.447	311.49
196.828	-451.02
197.209	-201.78
197.59	140.72
197.971	76.38
198.352	38.69
198.733	56.59
199.114	23.74
199.495	33.38
199.876	35.82
200.257	47.88
200.638	67.27
201.018	63.59
201.399	79
201.78	76.15
202.16	53.46
202.541	33.37
202.922	51.99
203.302	75.42
203.683	79.56
204.063	57.13
204.444	60.79
204.824	60.24
205.204	62.88
205.585	86.78
205.965	73.22
206.345	78.66
206.725	57.06
207.106	172.56
207.486	163.18
207.866	245.7
208.246	180.44
208.626	117.87
209.006	95.78
209.386	55.82
209.766	51.99
210.145	112.42
210.525	135.25
210.905	101.28
211.285	62.2
211.664	65.97
212.044	98.65
212.424	90
212.803	179.56
213.183	144.99
213.562	127.08
213.942	118.16
214.321	127.66
214.701	141.34
215.08	122.51
215.459	145.47
215.838	162.39
216.218	169.26
216.597	181.91
216.976	175.96
217.355	220.52
217.734	189.4
218.113	156.97
218.492	169.68
218.871	170
219.25	170.26
219.629	128.93
220.008	120.22
220.387	109.44
220.766	105.53
221.144	121.57
221.523	96.94
221.902	98.97
222.28	72.17
222.659	61.53
223.037	51.43
223.416	40.77
223.794	22.42
224.173	13.65
224.551	9.27
224.929	23.92
225.308	27.51
225.686	24.21
226.064	30.75
226.442	28.15
226.821	28.97
227.199	26.67
227.577	27.85
227.955	24.13
228.333	19.62
228.711	17.06
229.089	18.27
229.467	17.19
229.845	16.59
230.222	13.64
230.6	11.03
230.978	7.94
231.356	7.82
231.733	10.13
232.111	12.45
232.488	12.3
232.866	7.43
233.243	5.41
233.621	3.64
233.998	3.21
234.376	1.57
234.753	0.13
235.13	1.3
235.508	2.85
235.885	4.76
236.262	6.12
236.639	6.45
237.016	5.9
237.393	6.84
237.77	7.86
238.147	9.27
238.524	9.79
238.901	10.4
239.278	11.11
239.655	10.58
240.032	10.47
240.409	9.69
240.785	9.74
241.162	9.64
241.539	10.16
241.915	9.51
242.292	8.92
242.668	9.4
243.045	8.81
243.421	8.65
243.798	8.05
244.174	7.95
244.551	7.47
244.927	7.14
245.303	6.96
245.679	6.85
246.056	6.67
246.432	6.55
246.808	6.48
247.184	6.33
247.56	6.27
247.936	6.15
248.312	6.36
248.688	6.53
249.064	6.32
249.44	6.2
249.815	6.27
250.191	6.39
250.567	6.21
250.943	6.26
251.318	6.2
251.694	6.2
252.069	6.38
252.445	6.75
252.82	6.86
253.196	6.77
253.571	6.89
253.947	7.2
254.322	7.35
254.697	7.43
255.073	7.02
255.448	6.87
255.823	6.76
256.198	6.41
256.573	6.17
256.948	6.3
257.323	6.3
257.698	6.37
258.073	6.44
258.448	6.36
258.823	6.41
259.198	6.2
259.573	6.37
259.948	6.26
260.322	6.13
260.697	6.07
261.072	6.23
261.446	6.14
261.821	6.03
262.195	5.98
262.57	5.79
262.944	5.94
263.319	5.92
263.693	5.87
264.067	6.04
264.442	6.13
264.816	5.97
265.19	6
265.564	5.86
265.938	5.76
266.313	5.68
266.687	5.63
267.061	5.86
267.435	5.78
267.809	5.61
268.183	5.89
268.556	5.91
268.93	5.8
269.304	5.73
269.678	5.75
270.051	5.82
270.425	6
270.799	5.93
271.172	5.86
271.546	5.78
271.919	5.6
272.293	5.42
272.666	5.63
273.04	5.49
273.413	5.52
273.787	5.57
274.16	5.62
274.533	5.53
274.906	5.34
275.279	5.28
275.653	5.26
276.026	5
276.399	4.82
276.772	4.89
277.145	4.94
277.518	4.91
277.891	4.86
278.263	4.81
278.636	4.73
279.009	4.85
279.382	4.92
279.755	4.93
280.127	5.09
280.5	5
280.872	5.27
281.245	5.28
281.617	5.27
281.99	5.34
282.362	5.58
282.735	5.58
283.107	5.57
283.479	5.72
283.852	5.66
284.224	5.8
284.596	5.84
284.968	5.92
285.34	5.99
285.713	6.05
286.085	6.12
286.457	6.23
286.829	6.34
287.201	6.41
287.572	6.41
287.944	6.3
288.316	6.33
288.688	6.23
289.06	6.23
289.431	6.27
289.803	6.13
290.175	6.04
290.546	6.18
290.918	6.21
291.289	6.33
291.661	6.49
292.032	6.59
292.403	6.66
292.775	6.78
293.146	6.7
293.517	6.68
293.889	6.71
294.26	6.69
294.631	6.62
295.002	6.58
295.373	6.59
295.744	6.71
296.115	6.76
296.486	6.78
296.857	6.86
297.228	6.9
297.599	7.03
297.97	7.04
298.34	7.08
298.711	7.26
299.082	7.15
299.452	7.15
299.823	7.16
300.194	7.17
300.564	7.08
300.935	7.19
301.305	7.2
301.676	7.39
302.046	7.55
302.416	7.75
302.787	7.84
303.157	8
303.527	8.2
303.897	8.3
304.267	8.46
304.637	8.68
305.008	8.75
305.378	9
305.748	9.34
306.117	9.27
306.487	9.24
306.857	9.46
307.227	9.54
307.597	9.69
307.967	9.77
308.336	9.82
308.706	9.76
309.076	9.82
309.445	9.78
309.815	9.85
310.184	9.8
310.554	9.95
310.923	9.99
311.293	10.07
311.662	10.02
312.031	9.98
312.401	9.98
312.77	9.99
313.139	10.02
313.508	9.92
313.877	10.08
314.246	10.13
314.616	10.01
314.985	10.11
315.353	10.11
315.722	10.25
316.091	10.31
316.46	10.43
316.829	10.61
317.198	10.6
317.567	10.51
317.935	10.58
318.304	10.7
318.672	10.83
319.041	10.87
319.41	10.93
319.778	10.97
320.147	10.93
320.515	10.98
320.883	10.78
321.252	10.72
321.62	10.8
321.988	10.9
322.357	11.17
322.725	11.22
323.093	11.43
323.461	11.58
323.829	11.75
324.197	11.87
324.565	11.9
324.933	12.05
325.301	12.17
325.669	12.2
326.037	12.2
326.405	12.22
326.772	12.11
327.14	12.28
327.508	12.42
327.875	12.37
328.243	12.61
328.61	12.77
328.978	12.79
329.346	12.86
329.713	12.98
330.08	12.89
330.448	12.96
330.815	12.82
331.182	12.7
331.55	12.73
331.917	12.82
332.284	12.79
332.651	12.73
333.018	12.77
333.385	12.94
333.752	12.92
334.119	13.03
334.486	13.2
334.853	13.13
335.22	13.09
335.587	13.16
335.954	13.16
336.32	13.26
336.687	13.32
337.054	13.35
337.42	13.5
337.787	13.75
338.153	13.76
338.52	13.9
338.886	13.86
339.253	13.72
339.619	13.82
339.986	13.98
340.352	13.94
340.718	14.01
341.084	13.97
341.451	14.11
341.817	14.12
342.183	14.14
342.549	14.22
342.915	14.3
343.281	14.38
343.647	14.4
344.013	14.38
344.379	14.45
344.745	14.5
345.11	14.4
345.476	14.28
345.842	14.44
346.208	14.44
346.573	14.53
346.939	14.74
347.304	14.59
347.67	14.54
348.035	14.67
348.401	14.68
348.766	14.64
349.132	14.56
349.497	14.55
349.862	14.58
350.228	14.6
350.593	14.66
350.958	14.76
351.323	14.73
351.688	14.78
352.053	14.86
352.418	14.88
352.783	14.94
353.148	15.06
353.513	14.97
353.878	14.96
354.243	14.93
354.608	14.85
354.972	14.94
355.337	15.04
355.702	15.01
356.066	15.08
356.431	15.13
356.795	15.19
357.16	15.1
357.524	15.15
357.889	15.14
358.253	15.16
358.618	15.09
358.982	14.99
359.346	14.93
359.71	14.91
360.075	14.92
360.439	14.89
360.803	14.83
361.167	14.79
361.531	14.77
361.895	14.8
362.259	14.77
362.623	14.75
362.987	14.64
363.351	14.67
363.714	14.56
364.078	14.53
364.442	14.43
364.806	14.48
365.169	14.39
365.533	14.39
365.896	14.28
366.26	14.21
366.623	14.26
366.987	14.31
367.35	14.27
367.714	14.2
368.077	14.09
368.44	13.99
368.803	13.99
369.167	13.95
369.53	13.88
369.893	13.92
370.256	13.88
370.619	13.92
370.982	13.82
371.345	13.85
371.708	13.78
372.071	13.76
372.434	13.82
372.797	13.81
373.159	13.76
373.522	13.8
373.885	13.8
374.247	13.77
374.61	13.7
374.973	13.69
375.335	13.68
375.698	13.69
376.06	13.77
376.423	13.77
376.785	13.77
377.147	13.78
377.51	13.7
377.872	13.71
378.234	13.63
378.596	13.61
378.958	13.56
379.321	13.55
379.683	13.52
380.045	13.42
380.407	13.39
380.769	13.37
381.13	13.25
381.492	13.26
381.854	13.23
382.216	13.12
382.578	13.13
382.939	13.02
383.301	13
383.663	12.86
384.024	12.75
384.386	12.74
384.747	12.76
385.109	12.72
385.47	12.63
385.832	12.59
386.193	12.53
386.554	12.43
386.916	12.42
387.277	12.41
387.638	12.37
387.999	12.29
388.36	12.22
388.721	12.21
389.082	12.1
389.443	12.02
389.804	12.06
390.165	11.96
390.526	11.95
390.887	11.86
391.248	11.87
391.609	11.89
391.969	11.78
392.33	11.62
392.691	11.56
393.051	11.5
393.412	11.47
393.772	11.4
394.133	11.4
394.493	11.34
394.854	11.24
395.214	11.16
395.574	11.12
395.935	11.08
396.295	11.03
396.655	10.99
397.015	10.93
397.376	10.83
397.736	10.73
398.096	10.65
398.456	10.57
398.816	10.49
399.176	10.34
399.535	10.32
399.895	10.3
400.255	10.27
400.615	10.22
400.975	10.17
401.334	10.09
401.694	10.06
402.054	10
402.413	9.98
402.773	9.91
403.132	9.83
403.492	9.78
403.851	9.72
404.211	9.67
404.57	9.64
404.929	9.63
405.288	9.64
405.648	9.61
406.007	9.62
406.366	9.6
406.725	9.62
407.084	9.6
407.443	9.58
407.802	9.52
408.161	9.51
408.52	9.45
408.879	9.47
409.238	9.43
409.596	9.42
409.955	9.39
410.314	9.36
410.673	9.38
411.031	9.35
411.39	9.36
411.748	9.32
412.107	9.31
412.465	9.29
412.824	9.26
413.182	9.26
413.54	9.21
413.899	9.19
414.257	9.16
414.615	9.09
414.974	9.06
415.332	9.03
415.69	8.98
416.048	8.94
416.406	8.91
416.764	8.86
417.122	8.83
417.48	8.79
417.838	8.78
418.195	8.74
418.553	8.71
418.911	8.66
419.269	8.63
419.626	8.61
419.984	8.55
420.342	8.52
420.699	8.47
421.057	8.44
421.414	8.38
421.772	8.32
422.129	8.3
422.486	8.25
422.844	8.23
423.201	8.19
423.558	8.17
423.915	8.14
424.273	8.12
424.63	8.08
424.987	8.05
425.344	8.01
425.701	7.97
426.058	7.94
426.415	7.93
426.772	7.91
427.128	7.87
427.485	7.86
427.842	7.83
428.199	7.83
428.555	7.82
428.912	7.82
429.269	7.83
429.625	7.79
429.982	7.79
430.338	7.77
430.695	7.76
431.051	7.76
431.407	7.75
431.764	7.74
432.12	7.74
432.476	7.73
432.832	7.74
433.189	7.76
433.545	7.75
433.901	7.75
434.257	7.74
434.613	7.76
434.969	7.74
435.325	7.73
435.681	7.72
436.036	7.72
436.392	7.73
436.748	7.74
437.104	7.74
437.459	7.75
437.815	7.76
438.171	7.77
438.526	7.76
438.882	7.77
439.237	7.75
439.593	7.76
439.948	7.76
440.304	7.74
440.659	7.71
441.014	7.71
441.369	7.69
441.725	7.68
442.08	7.66
442.435	7.66
442.79	7.65
443.145	7.63
443.5	7.61
443.855	7.59
444.21	7.57
444.565	7.56
444.92	7.55
445.275	7.49
445.629	7.46
445.984	7.45
446.339	7.41
446.693	7.39
447.048	7.35
447.403	7.32
447.757	7.33
448.112	7.31
448.466	7.3
448.82	7.27
449.175	7.25
449.529	7.23
449.883	7.21
450.238	7.19
450.592	7.19
450.946	7.17
451.3	7.14
451.654	7.11
452.008	7.11
452.362	7.1
452.716	7.12
453.07	7.12
453.424	7.13
453.778	7.14
454.132	7.15
454.486	7.14
454.839	7.13
455.193	7.1
455.547	7.1
455.9	7.09
456.254	7.1
456.607	7.12
456.961	7.11
457.314	7.11
457.668	7.12
458.021	7.1
458.375	7.1
458.728	7.1
459.081	7.12
459.434	7.1
459.787	7.09
460.141	7.11
460.494	7.13
460.847	7.13
461.2	7.13
461.553	7.13
461.906	7.16
462.259	7.19
462.611	7.19
462.964	7.21
463.317	7.22
463.67	7.24
464.022	7.24
464.375	7.26
464.728	7.27
465.08	7.3
465.433	7.35
465.785	7.39
466.138	7.4
466.49	7.41
466.843	7.46
467.195	7.52
467.547	7.53
467.899	7.55
468.252	7.56
468.604	7.59
468.956	7.62
469.308	7.66
469.66	7.65
470.012	7.69
470.364	7.74
470.716	7.78
471.068	7.79
471.42	7.81
471.772	7.84
472.123	7.87
472.475	7.87
472.827	7.86
473.178	7.87
473.53	7.88
473.882	7.9
474.233	7.89
474.585	7.86
474.936	7.88
475.288	7.88
475.639	7.88
475.99	7.89
476.342	7.9
476.693	7.91
477.044	7.92
477.395	7.92
477.746	7.89
478.097	7.87
478.448	7.86
478.8	7.86
479.15	7.81
479.501	7.8
479.852	7.79
480.203	7.8
480.554	7.79
480.905	7.78
481.255	7.78
481.606	7.78
481.957	7.79
482.307	7.77
482.658	7.76
483.009	7.75
483.359	7.74
483.709	7.73
484.06	7.72
484.41	7.73
484.761	7.73
485.111	7.72
485.461	7.72
485.811	7.72
486.162	7.71
486.512	7.73
486.862	7.74
487.212	7.75
487.562	7.75
487.912	7.75
488.262	7.76
488.612	7.77
488.961	7.77
489.311	7.77
489.661	7.78
490.011	7.79
490.36	7.8
490.71	7.81
491.06	7.83
491.409	7.85
491.759	7.86
492.108	7.89
492.458	7.92
492.807	7.95
493.157	8
493.506	8.03
493.855	8.06
494.204	8.09
494.554	8.13
494.903	8.17
495.252	8.23
495.601	8.28
495.95	8.33
496.299	8.37
496.648	8.42
496.997	8.48
497.346	8.56
497.695	8.63
498.043	8.7
498.392	8.76
498.741	8.81
499.09	8.89
499.438	8.95
499.787	9.02
500.135	9.1
500.484	9.16
500.832	9.25
501.181	9.33
501.529	9.41
501.878	9.51
502.226	9.59
502.574	9.69
502.923	9.81
503.271	9.89
503.619	10.04
503.967	10.14
504.315	10.25
504.663	10.38
505.011	10.48
505.359	10.59
505.707	10.72
506.055	10.86
506.403	10.98
506.751	11.07
507.098	11.19
507.446	11.3
507.794	11.42
508.141	11.53
508.489	11.64
508.837	11.78
509.184	11.89
509.531	12.03
509.879	12.15
510.226	12.26
510.574	12.37
510.921	12.49
511.268	12.61
511.616	12.75
511.963	12.88
512.31	13.03
512.657	13.19
513.004	13.31
513.351	13.46
513.698	13.61
514.045	13.78
514.392	13.97
514.739	14.13
515.086	14.3
515.432	14.47
515.779	14.64
516.126	14.8
516.473	14.94
516.819	15.08
517.166	15.21
517.512	15.36
517.859	15.51
518.205	15.64
518.552	15.8
518.898	15.94
519.245	16.07
519.591	16.18
519.937	16.3
520.283	16.47
520.629	16.63
520.976	16.78
521.322	16.95
521.668	17.12
522.014	17.34
522.36	17.53
522.706	17.73
523.052	17.93
523.398	18.14
523.743	18.41
524.089	18.65
524.435	18.91
524.781	19.16
525.126	19.37
525.472	19.57
525.817	19.75
526.163	19.93
526.509	20.1
526.854	20.25
527.199	20.4
527.545	20.54
527.89	20.68
528.235	20.85
528.581	21.01
528.926	21.16
529.271	21.31
529.616	21.45
529.961	21.6
530.306	21.79
530.651	21.99
530.996	22.16
531.341	22.34
531.686	22.53
532.031	22.71
532.376	22.93
532.721	23.15
533.065	23.4
533.41	23.62
533.755	23.87
534.099	24.14
534.444	24.38
534.788	24.65
535.133	24.92
535.477	25.18
535.822	25.46
536.166	25.76
536.51	26.06
536.855	26.41
537.199	26.78
537.543	27.1
537.887	27.42
538.231	27.79
538.576	28.14
538.92	28.48
539.264	28.82
539.608	29.14
539.951	29.42
540.295	29.68
540.639	29.94
540.983	30.18
541.327	30.43
541.671	30.67
542.014	30.93
542.358	31.17
542.701	31.4
543.045	31.63
543.389	31.88
543.732	32.15
544.075	32.39
544.419	32.6
544.762	32.87
545.105	33.14
545.449	33.42
545.792	33.74
546.135	34.07
546.478	34.38
546.821	34.72
547.165	35.07
547.508	35.4
547.851	35.75
548.194	36.09
548.536	36.45
548.879	36.87
549.222	37.22
549.565	37.54
549.908	37.85
550.25	38.23
550.593	38.55
550.936	38.91
551.278	39.26
551.621	39.71
551.963	40.07
552.306	40.4
552.648	40.72
552.991	41.02
553.333	41.31
553.675	41.66
554.017	41.92
554.36	42.23
554.702	42.51
555.044	42.87
555.386	43.17
555.728	43.45
556.07	43.72
556.412	44
556.754	44.31
557.096	44.63
557.438	44.96
557.78	45.26
558.121	45.52
558.463	45.84
558.805	46.07
559.147	46.33
559.488	46.65
559.83	46.93
560.171	47.18
560.513	47.45
560.854	47.67
561.196	47.92
561.537	48.15
561.878	48.42
562.22	48.61
562.561	48.83
562.902	49.08
563.243	49.3
563.584	49.49
563.925	49.73
564.266	49.92
564.607	50.11
564.948	50.31
565.289	50.46
565.63	50.7
565.971	50.86
566.312	51.02
566.653	51.18
566.993	51.38
567.334	51.58
567.675	51.74
568.015	51.91
568.356	52.09
568.696	52.19
569.037	52.35
569.377	52.48
569.718	52.63
570.058	52.81
570.398	52.99
570.739	53.2
571.079	53.3
571.419	53.47
571.759	53.59
572.099	53.71
572.439	53.9
572.779	53.94
573.119	54.1
573.459	54.22
573.799	54.38
574.139	54.46
574.479	54.6
574.819	54.67
575.158	54.79
575.498	54.93
575.838	55.11
576.177	55.22
576.517	55.38
576.856	55.55
577.196	55.67
577.535	55.75
577.875	55.88
578.214	55.97
578.553	56.15
578.893	56.3
579.232	56.42
579.571	56.46
579.91	56.66
580.25	56.79
580.589	56.96
580.928	57.06
581.267	57.18
581.606	57.16
581.945	57.32
582.283	57.43
582.622	57.45
582.961	57.54
583.3	57.56
583.639	57.62
583.977	57.74
584.316	57.85
584.654	57.94
584.993	57.99
585.332	58.16
585.67	58.19
586.008	58.22
586.347	58.36
586.685	58.53
587.024	58.65
587.362	58.69
587.7	58.73
588.038	58.8
588.376	58.88
588.715	59.08
589.053	59.11
589.391	59.17
589.729	59.31
590.067	59.3
590.404	59.44
590.742	59.47
591.08	59.51
591.418	59.54
591.756	59.64
592.093	59.72
592.431	59.81
592.769	59.94
593.106	60.04
593.444	60.08
593.781	60.14
594.119	60.13
594.456	60.23
594.793	60.28
595.131	60.36
595.468	60.43
595.805	60.48
596.143	60.61
596.48	60.71
596.817	60.73
597.154	60.92
597.491	60.98
597.828	61.09
598.165	61.19
598.502	61.23
598.839	61.24
599.176	61.28
599.512	61.36
599.849	61.33
600.186	61.42
600.523	61.46
600.859	61.44
601.196	61.56
601.532	61.6
601.869	61.71
602.205	61.72
602.542	61.78
602.878	61.77
603.215	61.68
603.551	61.69
603.887	61.83
604.223	61.89
604.56	61.97
604.896	62.02
605.232	62
605.568	62.07
605.904	62.13
606.24	62.09
606.576	62.11
606.912	62.15
607.248	62.13
607.583	62.19
607.919	62.28
608.255	62.32
608.591	62.37
608.926	62.38
609.262	62.51
609.597	62.58
609.933	62.59
610.268	62.76
610.604	62.87
610.939	62.87
611.275	62.81
611.61	62.84
611.945	62.96
612.281	62.99
612.616	63.09
612.951	63.17
613.286	63.3
613.621	63.33
613.956	63.39
614.291	63.39
614.626	63.42
614.961	63.44
615.296	63.51
615.631	63.45
615.966	63.55
616.3	63.57
616.635	63.53
616.97	63.7
617.304	63.66
617.639	63.7
617.973	63.7
618.308	63.73
618.642	63.83
618.977	63.78
619.311	63.95
619.646	63.87
619.98	63.85
620.314	63.96
620.648	64.05
620.983	64.09
621.317	64.13
621.651	64.22
621.985	64.28
622.319	64.31
622.653	64.44
622.987	64.42
623.321	64.36
623.655	64.43
623.988	64.49
624.322	64.56
624.656	64.56
624.99	64.6
625.323	64.64
625.657	64.57
625.99	64.6
626.324	64.61
626.657	64.64
626.991	64.69
627.324	64.61
627.658	64.54
627.991	64.64
628.324	64.69
628.657	64.78
628.991	64.82
629.324	64.85
629.657	64.91
629.99	64.95
630.323	65
630.656	65.04
630.989	64.93
631.322	64.94
631.655	64.91
631.987	64.89
632.32	64.95
632.653	64.99
632.986	65.04
633.318	64.98
633.651	64.98
633.984	65.03
634.316	65.15
634.649	65.2
634.981	65.17
635.313	65.23
635.646	65.18
635.978	65.22
636.31	65.16
636.643	65.1
636.975	65.13
637.307	65.22
637.639	65.23
637.971	65.27
638.303	65.29
638.635	65.42
638.967	65.41
639.299	65.31
639.631	65.21
639.963	65.26
640.295	65.33
640.626	65.36
640.958	65.39
641.29	65.41
641.621	65.49
641.953	65.54
642.285	65.48
642.616	65.49
642.948	65.44
643.279	65.51
643.61	65.46
643.942	65.51
644.273	65.49
644.604	65.43
644.936	65.52
645.267	65.54
645.598	65.42
645.929	65.49
646.26	65.68
646.591	65.72
646.922	65.6
647.253	65.58
647.584	65.63
647.915	65.59
648.245	65.54
648.576	65.53
648.907	65.57
649.238	65.71
649.568	65.76
649.899	65.78
650.229	65.87
650.56	65.9
650.89	65.91
651.221	65.83
651.551	65.8
651.882	65.79
652.212	65.78
652.542	65.92
652.872	65.95
653.203	65.96
653.533	66.05
653.863	66.07
654.193	66.16
654.523	66.13
654.853	66.18
655.183	66.19
655.513	66.24
655.843	66.19
656.172	66.2
656.502	66.13
656.832	66.25
657.162	66.13
657.491	66.23
657.821	66.26
658.15	66.32
658.48	66.44
658.809	66.55
659.139	66.55
659.468	66.64
659.798	66.65
660.127	66.69
660.456	66.78
660.785	66.87
661.115	66.73
661.444	66.89
661.773	66.83
662.102	66.89
662.431	66.89
662.76	66.93
663.089	66.8
663.418	66.84
663.747	66.86
664.076	66.99
664.404	67.02
664.733	66.95
665.062	67.01
665.39	66.92
665.719	66.89
666.048	66.88
666.376	66.85
666.705	66.8
667.033	66.78
667.362	66.77
667.69	66.86
668.018	67.08
668.347	67.01
668.675	67.22
669.003	67.22
669.331	67.2
669.659	67.17
669.987	67.33
670.315	67.43
670.643	67.37
670.971	67.46
671.299	67.58
671.627	67.66
671.955	67.51
672.283	67.64
672.61	67.66
672.938	67.76
673.266	67.71
673.593	67.96
673.921	67.93
674.249	67.89
674.576	67.83
674.904	67.82
675.231	67.89
675.558	67.87
675.886	67.88
676.213	67.89
676.54	67.88
676.867	67.91
677.195	67.79
677.522	67.69
677.849	67.69
678.176	67.5
678.503	67.5
678.83	67.62
679.157	67.51
679.484	67.44
679.81	67.5
680.137	67.48
680.464	67.4
680.791	67.53
681.117	67.51
681.444	67.42
681.771	67.34
682.097	67.31
682.424	67.19
682.75	67.15
683.077	67.24
683.403	67.49
683.729	67.51
684.056	67.65
684.382	67.72
684.708	67.72
685.034	67.76
685.36	67.74
685.686	67.62
686.012	67.71
686.339	67.69
686.664	67.69
686.99	67.76
687.316	67.85
687.642	67.64
687.968	67.63
688.294	67.8
688.619	67.91
688.945	67.94
689.271	68
689.596	67.88
689.922	67.62
690.247	67.51
690.573	67.5
690.898	67.37
691.224	67.47
691.549	67.33
691.874	67.35
692.2	67.32
692.525	67.56
692.85	67.57
693.175	67.83
693.5	67.87
693.825	67.68
694.15	67.38
694.475	67.47
694.8	67.64
695.125	67.71
695.45	67.64
695.775	67.79
696.099	67.87
696.424	68.17
696.749	68.43
697.073	68.46
697.398	68.53
697.723	68.58
698.047	68.57
698.372	68.73
698.696	68.78
699.02	68.86
699.345	68.89
699.669	68.98
699.993	68.95
700.318	68.82
700.642	68.84
700.966	69.08
701.29	69.08
701.614	68.98
701.938	69.05
702.262	69.21
702.586	69.09
702.91	69
703.234	68.89
703.557	68.72
703.881	68.76
704.205	68.67
704.529	68.65
704.852	68.64
705.176	68.44
705.499	68.35
705.823	68.35
706.146	68.17
706.47	68.2
706.793	68.09
707.117	68.15
707.44	68.19
707.763	68.16
708.086	68.22
708.409	68.27
708.733	68.21
709.056	67.92
709.379	67.98
709.702	68.03
710.025	67.88
710.348	68.06
710.671	67.91
710.993	67.89
711.316	67.84
711.639	67.8
711.962	67.76
712.284	67.77
712.607	67.85
712.93	67.93
713.252	67.95
713.575	67.87
713.897	68.07
714.22	68.03
714.542	68.04
714.864	68
715.187	68.03
715.509	68.05
715.831	68.15
716.153	68.16
716.475	68.08
716.798	68.14
717.12	68.11
717.442	68.28
717.764	68.38
718.085	68.38
718.407	68.3
718.729	68.31
719.051	68.47
719.373	68.36
719.695	68.31
720.016	68.26
720.338	68.3
720.659	68.25
720.981	68.24
721.302	68.16
721.624	68.26
721.945	68.35
722.267	68.33
722.588	68.27
722.909	68.28
723.231	68.4
723.552	68.34
723.873	68.46
724.194	68.18
724.515	68.08
724.836	68.31
725.157	68.55
725.478	68.79
725.799	68.69
726.12	68.76
726.441	68.97
726.762	69.09
727.083	69.27
727.403	69.16
727.724	69.5
728.045	69.42
728.365	69.39
728.686	69.24
729.006	68.93
729.327	69.3
729.647	69.33
729.967	69.36
730.288	69.54
730.608	69.22
730.928	69.34
731.249	69.25
731.569	68.99
731.889	68.81
732.209	68.66
732.529	68.68
732.849	68.56
733.169	68.42
733.489	68.32
733.809	68.23
734.129	68.24
734.448	68.18
734.768	68.23
735.088	68.09
735.408	68.11
735.727	68.36
736.047	68
736.366	67.8
736.686	67.73
737.005	67.86
737.325	68.23
737.644	68.2
737.963	68.22
738.283	68.43
738.602	68.78
738.921	68.75
739.24	68.66
739.56	68.46
739.879	68.58
740.198	68.52
740.517	68.52
740.836	68.54
741.155	68.38
741.473	68.29
741.792	68.39
742.111	68.76
742.43	68.81
742.748	69.11
743.067	69.11
743.386	68.87
743.704	68.59
744.023	68.54
744.341	68.61
744.66	68.85
744.978	68.69
745.297	68.15
745.615	68.29
745.933	68.32
746.252	68.49
746.57	68.34
746.888	68.3
747.206	68.22
747.524	68.25
747.842	68.32
748.16	68.18
748.478	68
748.796	67.82
749.114	67.48
749.432	67.46
749.749	67.61
750.067	68.05
750.385	68.11
750.703	68.05
751.02	67.78
751.338	67.72
751.655	68
751.973	68.28
752.29	68.16
752.608	68.16
752.925	68.25
753.242	68.13
753.56	68.33
753.877	68.4
754.194	68.15
754.511	67.97
754.828	68.46
755.145	68.55
755.462	68.36
755.779	68.5
756.096	68.63
756.413	68.73
756.73	68.7
757.047	68.58
757.364	68.56
757.68	68.71
757.997	68.67
758.314	68.5
758.63	68.55
758.947	68.8
759.264	68.89
759.58	68.69
759.896	69.06
760.213	69.02
760.529	69.19
760.846	69.43
761.162	69.42
761.478	69.01
761.794	69.32
762.11	69.48
762.426	69.26
762.743	68.88
763.059	68.69
763.375	68.82
763.69	68.99
764.006	69.06
764.322	69.43
764.638	69.61
764.954	69.46
765.27	69.42
765.585	69.24
765.901	69.29
766.216	69.47
766.532	69.36
766.848	69.37
767.163	69.07
767.478	69.13
767.794	69.11
768.109	69.53
768.424	69.33
768.74	69.19
769.055	69.51
769.37	69.84
769.685	70.08
770	69.88
770.315	69.84
770.63	69.69
770.945	69.24
771.26	69.04
771.575	69.43
771.89	69.57
772.205	69.36
772.52	69.43
772.834	69.33
773.149	69
773.464	69.03
773.778	69.54
774.093	69.34
774.407	69.49
774.722	69.81
775.036	69.52
775.351	69.27
775.665	68.92
775.979	68.77
776.293	68.68
776.608	68.7
776.922	68.46
777.236	68.7
777.55	68.78
777.864	68.27
778.178	68.29
778.492	68.37
778.806	68.92
779.12	69.12
779.434	69.74
779.747	69.93
780.061	69.64
780.375	69.55
780.689	69.81
781.002	69.55
781.316	69.09
781.629	69.77
781.943	70.76
782.256	70.93
782.57	71.06
782.883	70.71
783.196	70.51
783.51	70.74
783.823	70.38
784.136	70.38
784.449	70.86
784.762	70.55
785.075	70.39
785.388	70.48
785.701	70.36
786.014	69.55
786.327	69.57
786.64	69.49
786.953	68.97
787.266	68.5
787.578	68.66
787.891	68.45
788.204	68.06
788.516	67.52
788.829	68.24
789.141	68.11
789.454	68.25
789.766	68.89
790.079	68.97
790.391	69.06
790.703	69.34
791.016	69.6
791.328	69.59
791.64	69.85
791.952	69.32
792.264	69.02
792.576	69.14
792.888	69.37
793.2	70.05
793.512	70.7
793.824	70.93
794.136	71.22
794.448	71.49
794.76	72.02
795.071	71.94
795.383	71.31
795.695	71.45
796.006	71.43
796.318	71.14
796.629	71.57
796.941	71.23
797.252	71.51
797.564	71.64
797.875	71.29
798.186	71.49
798.497	71.84
798.809	71.44
799.12	71.67
799.431	71.71
799.742	70.97
800.053	70.81
800.364	70.44
800.675	70.86
800.986	70.05
801.297	69.69
801.608	70.18
801.918	70.76
802.229	70.9
802.54	71.23
802.851	70.24
803.161	69.84
803.472	70.92
803.782	70.16
804.093	69.36
804.403	69.99
804.714	69.59
805.024	68.98
805.334	69.61
805.645	69.71
805.955	69.9
806.265	70.84
806.575	70.39
806.885	70.73
807.195	69.87
807.505	70.5
807.815	71.03
808.125	71.02
808.435	71.12
808.745	70.94
809.055	70.26
809.365	71.49
809.674	71.86
809.984	71.05
810.294	71.05
810.603	71.66
810.913	72.43
811.222	72.11
811.532	72.56
811.841	73.11
812.151	73.01
812.46	72.93
812.769	72.52
813.079	72.03
813.388	71.99
813.697	72.17
814.006	72.31
814.315	71.42
814.624	71.55
814.933	71.3
815.242	71.51
815.551	71.86
815.86	71.68
816.169	71.04
816.478	70.85
816.786	70
817.095	70.19
817.404	69.88
817.712	70.79
818.021	70.89
818.33	70.16
818.638	70.42
818.947	69.77
819.255	69.94
819.563	70.35
819.872	70.21
820.18	70.72
820.488	70.75
820.796	71.09
821.105	70.77
821.413	70.57
821.721	70.45
822.029	70.46
822.337	70.52
822.645	70.45
822.953	70.39
823.26	70.64
823.568	70.59
823.876	70.55
824.184	70.38
824.491	70.34
824.799	70.29
825.107	70.22
825.414	70.47
825.722	70.39
826.029	70.37
826.337	70.59
826.644	70.44
826.951	70.4
827.259	70.03
827.566	70
827.873	70.15
828.18	70.36
828.488	70.41
828.795	70.37
829.102	70.44
829.409	70.74
829.716	70.68
830.023	70.9
830.329	70.6
830.636	70.34
830.943	70.37
831.25	70.42
831.557	70.36
831.863	69.96
832.17	69.97
832.476	69.87
832.783	69.79
833.089	69.79
833.396	69.44
833.702	70.03
834.009	70.3
834.315	69.94
834.621	69.62
834.928	70.01
835.234	69.94
835.54	70.17
835.846	69.93
836.152	70.36
836.458	70.03
836.764	70.32
837.07	71.08
837.376	71.58
837.682	72.25
837.988	72.33
838.293	72.33
838.599	72.39
838.905	72.3
839.211	72.76
839.516	72.67
839.822	73.36
840.127	73.04
840.433	72.95
840.738	73.16
841.044	73.11
841.349	72.45
841.654	73.12
841.959	72.44
842.265	73.2
842.57	71.68
842.875	71.4
843.18	71.22
843.485	70.88
843.79	71.95
844.095	71.33
844.4	70.58
844.705	70.45
845.01	69.86
845.315	71.49
845.619	69.24
845.924	69.29
846.229	69.64
846.533	68.36
846.838	67.22
847.142	67.16
847.447	66.9
847.751	68.44
848.056	68.49
848.36	69.52
848.664	68.02
848.969	68.43
849.273	68.47
849.577	67.64
849.881	66.21
850.185	63.92
850.489	62.4
850.794	63.85
851.097	65.74
851.401	68.68
851.705	67.46
852.009	70.11
852.313	70.47
852.617	70.63
852.92	74.44
853.224	75.66
853.528	76.85
853.831	78.47
854.135	79.7
854.438	79.19
854.742	78.63
855.045	81.83
855.349	86.1
855.652	87.17
855.955	88.3
856.259	89.06
856.562	89.4
856.865	91.6
857.168	93.31
857.471	89.56
857.774	87.42
858.077	88.29
858.38	89.83
858.683	92.15
858.986	91.68
859.289	90.59
859.592	89.04
859.894	89.17
860.197	87.55
860.5	83.71
860.802	80.9
861.105	82.07
861.407	80.2
861.71	79.07
862.012	80.4
862.315	80.53
862.617	80.42
862.919	80.48
863.222	80.88
863.524	78.93
863.826	80.96
864.128	80.56
864.43	78.6
864.732	76.19
865.034	75.31
865.336	72.85
865.638	72.82
865.94	76.02
866.242	73.67
866.544	73.84
866.846	75.4
867.147	77.29
867.449	77.23
867.751	78.57
868.052	75.31
868.354	72.56
868.655	73.44
868.957	75.8
869.258	75.55
869.56	77.86
869.861	78.88
870.162	78.6
870.463	77.6
870.765	77.88
871.066	79.52
871.367	77.28
871.668	82.73
871.969	84.05
872.27	82.14
872.571	83
872.872	81.89
873.173	81.28
873.473	81.11
873.774	81.01
874.075	77.21
874.376	80.15
874.676	81.55
874.977	81.56
875.277	78.81
875.578	79.62
875.878	77.33
876.179	76.93
876.479	77.57
876.78	78.71
877.08	80.08
877.38	79.84
877.68	80.41
877.981	76.03
878.281	73.58
878.581	74.15
