Data from BA28304_Reflection_00003.txt Node
Date: Mon Nov 18 15:35:56 EST 2019
User: vgr7
Spectrometer: USB2G7710
Scans to average: 3
Trigger mode: 4
Integration Time (sec): 2.000000E-2
Electric dark correction enabled: true
Boxcar width: 10
XAxis mode: Wavelengths
Number of Pixels in Spectrum: 2048
>>>>>Begin Spectral Data<<<<<
177.721	44.15
178.105	95.09
178.488	44.01
178.871	332.67
179.254	67.74
179.636	49.33
180.019	141.21
180.402	77.42
180.785	-584.21
181.168	-3337.5
181.55	-1958.82
181.933	186.03
182.316	167.68
182.698	155.04
183.081	274.87
183.463	4681.4
183.846	-900
184.228	-663.34
184.611	4772.73
184.993	2441.77
185.376	-1516.82
185.758	-319.03
186.14	-126.77
186.522	-277.01
186.904	-929.56
187.287	-1139.04
187.669	-355.27
188.051	-533.75
188.433	-413.02
188.815	-333.59
189.197	-303.54
189.579	-143.97
189.961	-104.23
190.342	-61.89
190.724	-38.05
191.106	-46.17
191.488	-37.74
191.869	-23.9
192.251	-12.37
192.633	-15.34
193.014	-25.14
193.396	-74.75
193.777	-64.6
194.159	-97.14
194.54	-61.04
194.922	-60.95
195.303	-44.08
195.684	-50.48
196.065	-37.33
196.447	-52.19
196.828	-66.19
197.209	-71.34
197.59	-117.94
197.971	-160.99
198.352	-172.66
198.733	-251.43
199.114	-211.43
199.495	-240.69
199.876	-296.61
200.257	-479.86
200.638	-379.38
201.018	-356.07
201.399	-223.25
201.78	-194.26
202.16	-208.36
202.541	-350.23
202.922	-900
203.302	-2020.62
203.683	-749.79
204.063	575100
204.444	-1182.66
204.824	-510.71
205.204	-224.07
205.585	-262.93
205.965	-255.48
206.345	-548.61
206.725	-393.05
207.106	-935.36
207.486	1763.68
207.866	-2009.83
208.246	-262.14
208.626	-249.63
209.006	-145.85
209.386	-330.22
209.766	-365.35
210.145	-239.54
210.525	-139.86
210.905	-139.98
211.285	-82.74
211.664	-67.02
212.044	-74.61
212.424	-71.44
212.803	-74.74
213.183	-109.81
213.562	-82.49
213.942	-81.94
214.321	-46.78
214.701	-75.72
215.08	-34.65
215.459	-16.91
215.838	-25.83
216.218	-49.65
216.597	-57.46
216.976	-43.23
217.355	-28.28
217.734	-39.26
218.113	-33.64
218.492	-17.06
218.871	-10.44
219.25	-44.48
219.629	-98.72
220.008	-35.61
220.387	-24.67
220.766	-32.87
221.144	-38.39
221.523	-50.93
221.902	-66.48
222.28	-81.64
222.659	-61.13
223.037	-63.18
223.416	-63.31
223.794	-49.74
224.173	-41.95
224.551	-38.86
224.929	-45.19
225.308	-32.45
225.686	-24.23
226.064	-20.87
226.442	-21.48
226.821	-18.27
227.199	-14.72
227.577	-11.56
227.955	-16.23
228.333	-17.05
228.711	-13.04
229.089	-8.24
229.467	-5.05
229.845	-1.34
230.222	2.29
230.6	0.98
230.978	3.07
231.356	6.92
231.733	5.85
232.111	5.51
232.488	5.38
232.866	3.57
233.243	3.68
233.621	1.84
233.998	3.77
234.376	1.4
234.753	4.45
235.13	5.18
235.508	3.96
235.885	4.28
236.262	3.01
236.639	3.17
237.016	3.1
237.393	3.5
237.77	4.21
238.147	3.32
238.524	4.12
238.901	4.56
239.278	4.71
239.655	4.12
240.032	3.63
240.409	3.38
240.785	3.79
241.162	3.82
241.539	4.12
241.915	4.48
242.292	4.63
242.668	3.81
243.045	3.59
243.421	3.72
243.798	3.66
244.174	3.84
244.551	3.44
244.927	2.95
245.303	3.17
245.679	3.29
246.056	3.56
246.432	3.3
246.808	3.16
247.184	2.76
247.56	2.63
247.936	2.59
248.312	2.61
248.688	2.66
249.064	2.51
249.44	2.51
249.815	2.26
250.191	2.49
250.567	2.47
250.943	2.39
251.318	2.42
251.694	2.67
252.069	2.59
252.445	2.83
252.82	3.16
253.196	2.96
253.571	2.73
253.947	2.47
254.322	2.49
254.697	2.18
255.073	2.37
255.448	2.46
255.823	2.71
256.198	2.88
256.573	2.78
256.948	2.67
257.323	2.91
257.698	2.91
258.073	2.84
258.448	2.91
258.823	2.96
259.198	2.84
259.573	2.65
259.948	2.62
260.322	2.65
260.697	2.56
261.072	2.36
261.446	2.24
261.821	2.23
262.195	2.37
262.57	2.52
262.944	2.49
263.319	2.59
263.693	2.61
264.067	2.48
264.442	2.54
264.816	2.58
265.19	2.33
265.564	2.27
265.938	1.96
266.313	1.83
266.687	1.77
267.061	1.88
267.435	1.82
267.809	1.62
268.183	1.58
268.556	1.28
268.93	1.47
269.304	1.66
269.678	1.8
270.051	1.71
270.425	1.8
270.799	1.69
271.172	1.66
271.546	1.54
271.919	1.59
272.293	1.69
272.666	1.72
273.04	1.9
273.413	1.88
273.787	2.11
274.16	2.14
274.533	2.22
274.906	2.21
275.279	2.34
275.653	2.48
276.026	2.39
276.399	2.68
276.772	2.84
277.145	2.84
277.518	2.68
277.891	2.65
278.263	2.41
278.636	2.36
279.009	2.41
279.382	2.64
279.755	2.71
280.127	2.73
280.5	2.73
280.872	2.5
281.245	2.6
281.617	2.73
281.99	2.91
282.362	2.97
282.735	2.92
283.107	2.93
283.479	2.98
283.852	3.02
284.224	3.12
284.596	3.05
284.968	3
285.34	2.97
285.713	3.09
286.085	3.12
286.457	3.29
286.829	3.08
287.201	3
287.572	2.89
287.944	2.68
288.316	2.82
288.688	2.82
289.06	2.82
289.431	2.7
289.803	2.76
290.175	2.69
290.546	2.84
290.918	2.89
291.289	2.86
291.661	2.9
292.032	2.83
292.403	2.86
292.775	2.9
293.146	2.96
293.517	2.93
293.889	3.1
294.26	3.06
294.631	3.24
295.002	3.23
295.373	3.29
295.744	3.41
296.115	3.32
296.486	3.32
296.857	3.27
297.228	3.33
297.599	3.18
297.97	3.19
298.34	3.14
298.711	3.11
299.082	3.02
299.452	2.97
299.823	3.06
300.194	3.02
300.564	2.87
300.935	3
301.305	3.06
301.676	3.05
302.046	3.17
302.416	3.28
302.787	3.27
303.157	3.31
303.527	3.31
303.897	3.33
304.267	3.41
304.637	3.48
305.008	3.46
305.378	3.47
305.748	3.47
306.117	3.33
306.487	3.27
306.857	3.25
307.227	3.31
307.597	3.21
307.967	3.19
308.336	3.33
308.706	3.17
309.076	3.06
309.445	2.98
309.815	2.75
310.184	2.6
310.554	2.58
310.923	2.49
311.293	2.44
311.662	2.35
312.031	2.37
312.401	2.26
312.77	2.31
313.139	2.29
313.508	2.23
313.877	2.23
314.246	2.22
314.616	2.3
314.985	2.27
315.353	2.15
315.722	2.23
316.091	2.13
316.46	2.02
316.829	2.09
317.198	2.12
317.567	2.2
317.935	2.21
318.304	2.11
318.672	2.14
319.041	2.14
319.41	2.23
319.778	2.22
320.147	2.39
320.515	2.29
320.883	2.33
321.252	2.42
321.62	2.45
321.988	2.41
322.357	2.49
322.725	2.27
323.093	2.3
323.461	2.23
323.829	2.18
324.197	2.26
324.565	2.15
324.933	2.1
325.301	2.11
325.669	2.09
326.037	2.12
326.405	2.22
326.772	2.3
327.14	2.35
327.508	2.22
327.875	2.04
328.243	2.12
328.61	2.02
328.978	2.05
329.346	2.06
329.713	2.12
330.08	2.11
330.448	2.19
330.815	2.19
331.182	2.24
331.55	2.35
331.917	2.37
332.284	2.42
332.651	2.28
333.018	2.37
333.385	2.33
333.752	2.51
334.119	2.46
334.486	2.39
334.853	2.38
335.22	2.45
335.587	2.53
335.954	2.4
336.32	2.41
336.687	2.39
337.054	2.42
337.42	2.35
337.787	2.37
338.153	2.44
338.52	2.39
338.886	2.27
339.253	2.3
339.619	2.26
339.986	2.34
340.352	2.37
340.718	2.31
341.084	2.38
341.451	2.37
341.817	2.41
342.183	2.33
342.549	2.31
342.915	2.34
343.281	2.31
343.647	2.35
344.013	2.38
344.379	2.25
344.745	2.32
345.11	2.33
345.476	2.23
345.842	2.32
346.208	2.34
346.573	2.37
346.939	2.35
347.304	2.37
347.67	2.31
348.035	2.31
348.401	2.24
348.766	2.26
349.132	2.24
349.497	2.08
349.862	2.24
350.228	2.26
350.593	2.24
350.958	2.31
351.323	2.31
351.688	2.31
352.053	2.37
352.418	2.35
352.783	2.35
353.148	2.38
353.513	2.28
353.878	2.25
354.243	2.35
354.608	2.38
354.972	2.37
355.337	2.41
355.702	2.51
356.066	2.58
356.431	2.5
356.795	2.52
357.16	2.57
357.524	2.52
357.889	2.43
358.253	2.45
358.618	2.49
358.982	2.43
359.346	2.43
359.71	2.37
360.075	2.38
360.439	2.41
360.803	2.41
361.167	2.46
361.531	2.52
361.895	2.42
362.259	2.38
362.623	2.45
362.987	2.39
363.351	2.35
363.714	2.38
364.078	2.37
364.442	2.28
364.806	2.26
365.169	2.24
365.533	2.34
365.896	2.33
366.26	2.28
366.623	2.34
366.987	2.39
367.35	2.49
367.714	2.45
368.077	2.38
368.44	2.37
368.803	2.25
369.167	2.21
369.53	2.27
369.893	2.26
370.256	2.24
370.619	2.27
370.982	2.21
371.345	2.15
371.708	2.2
372.071	2.32
372.434	2.32
372.797	2.31
373.159	2.26
373.522	2.24
373.885	2.22
374.247	2.26
374.61	2.23
374.973	2.19
375.335	2.16
375.698	2.21
376.06	2.27
376.423	2.36
376.785	2.41
377.147	2.42
377.51	2.45
377.872	2.48
378.234	2.47
378.596	2.53
378.958	2.54
379.321	2.53
379.683	2.48
380.045	2.55
380.407	2.56
380.769	2.57
381.13	2.56
381.492	2.6
381.854	2.55
382.216	2.53
382.578	2.56
382.939	2.59
383.301	2.59
383.663	2.55
384.024	2.54
384.386	2.54
384.747	2.54
385.109	2.54
385.47	2.54
385.832	2.5
386.193	2.52
386.554	2.55
386.916	2.53
387.277	2.52
387.638	2.51
387.999	2.5
388.36	2.51
388.721	2.56
389.082	2.56
389.443	2.55
389.804	2.53
390.165	2.54
390.526	2.54
390.887	2.58
391.248	2.63
391.609	2.61
391.969	2.59
392.33	2.58
392.691	2.6
393.051	2.54
393.412	2.59
393.772	2.56
394.133	2.56
394.493	2.58
394.854	2.58
395.214	2.56
395.574	2.6
395.935	2.58
396.295	2.57
396.655	2.53
397.015	2.53
397.376	2.57
397.736	2.54
398.096	2.53
398.456	2.5
398.816	2.46
399.176	2.44
399.535	2.44
399.895	2.43
400.255	2.41
400.615	2.45
400.975	2.43
401.334	2.41
401.694	2.4
402.054	2.4
402.413	2.42
402.773	2.41
403.132	2.39
403.492	2.42
403.851	2.4
404.211	2.41
404.57	2.43
404.929	2.41
405.288	2.41
405.648	2.42
406.007	2.41
406.366	2.43
406.725	2.48
407.084	2.49
407.443	2.5
407.802	2.5
408.161	2.49
408.52	2.45
408.879	2.48
409.238	2.51
409.596	2.51
409.955	2.5
410.314	2.52
410.673	2.53
411.031	2.52
411.39	2.51
411.748	2.52
412.107	2.53
412.465	2.51
412.824	2.55
413.182	2.55
413.54	2.57
413.899	2.56
414.257	2.54
414.615	2.53
414.974	2.54
415.332	2.54
415.69	2.54
416.048	2.55
416.406	2.55
416.764	2.52
417.122	2.53
417.48	2.55
417.838	2.56
418.195	2.56
418.553	2.56
418.911	2.58
419.269	2.59
419.626	2.59
419.984	2.62
420.342	2.61
420.699	2.6
421.057	2.59
421.414	2.58
421.772	2.6
422.129	2.62
422.486	2.61
422.844	2.62
423.201	2.62
423.558	2.63
423.915	2.64
424.273	2.66
424.63	2.65
424.987	2.64
425.344	2.62
425.701	2.62
426.058	2.63
426.415	2.62
426.772	2.61
427.128	2.61
427.485	2.6
427.842	2.6
428.199	2.61
428.555	2.64
428.912	2.66
429.269	2.66
429.625	2.63
429.982	2.63
430.338	2.63
430.695	2.65
431.051	2.63
431.407	2.62
431.764	2.6
432.12	2.6
432.476	2.6
432.832	2.62
433.189	2.6
433.545	2.58
433.901	2.59
434.257	2.59
434.613	2.61
434.969	2.6
435.325	2.58
435.681	2.58
436.036	2.56
436.392	2.56
436.748	2.54
437.104	2.54
437.459	2.55
437.815	2.56
438.171	2.56
438.526	2.57
438.882	2.59
439.237	2.61
439.593	2.62
439.948	2.62
440.304	2.6
440.659	2.61
441.014	2.62
441.369	2.62
441.725	2.62
442.08	2.61
442.435	2.63
442.79	2.64
443.145	2.65
443.5	2.65
443.855	2.66
444.21	2.66
444.565	2.67
444.92	2.68
445.275	2.68
445.629	2.68
445.984	2.68
446.339	2.67
446.693	2.65
447.048	2.64
447.403	2.64
447.757	2.65
448.112	2.66
448.466	2.67
448.82	2.67
449.175	2.68
449.529	2.69
449.883	2.68
450.238	2.69
450.592	2.71
450.946	2.71
451.3	2.71
451.654	2.73
452.008	2.73
452.362	2.7
452.716	2.7
453.07	2.69
453.424	2.69
453.778	2.69
454.132	2.67
454.486	2.67
454.839	2.67
455.193	2.65
455.547	2.65
455.9	2.65
456.254	2.65
456.607	2.64
456.961	2.63
457.314	2.64
457.668	2.63
458.021	2.58
458.375	2.58
458.728	2.58
459.081	2.56
459.434	2.56
459.787	2.56
460.141	2.57
460.494	2.57
460.847	2.59
461.2	2.58
461.553	2.59
461.906	2.6
462.259	2.6
462.611	2.6
462.964	2.61
463.317	2.62
463.67	2.63
464.022	2.63
464.375	2.64
464.728	2.64
465.08	2.65
465.433	2.7
465.785	2.7
466.138	2.69
466.49	2.72
466.843	2.7
467.195	2.73
467.547	2.72
467.899	2.74
468.252	2.72
468.604	2.73
468.956	2.74
469.308	2.74
469.66	2.76
470.012	2.77
470.364	2.79
470.716	2.78
471.068	2.79
471.42	2.78
471.772	2.8
472.123	2.77
472.475	2.76
472.827	2.75
473.178	2.74
473.53	2.74
473.882	2.73
474.233	2.74
474.585	2.71
474.936	2.71
475.288	2.72
475.639	2.74
475.99	2.75
476.342	2.75
476.693	2.77
477.044	2.77
477.395	2.78
477.746	2.76
478.097	2.75
478.448	2.74
478.8	2.74
479.15	2.72
479.501	2.74
479.852	2.74
480.203	2.74
480.554	2.75
480.905	2.76
481.255	2.76
481.606	2.78
481.957	2.79
482.307	2.78
482.658	2.78
483.009	2.78
483.359	2.77
483.709	2.78
484.06	2.77
484.41	2.77
484.761	2.77
485.111	2.78
485.461	2.78
485.811	2.79
486.162	2.79
486.512	2.8
486.862	2.8
487.212	2.81
487.562	2.81
487.912	2.81
488.262	2.81
488.612	2.81
488.961	2.8
489.311	2.81
489.661	2.81
490.011	2.82
490.36	2.82
490.71	2.84
491.06	2.83
491.409	2.84
491.759	2.83
492.108	2.83
492.458	2.83
492.807	2.82
493.157	2.83
493.506	2.84
493.855	2.84
494.204	2.82
494.554	2.81
494.903	2.8
495.252	2.79
495.601	2.82
495.95	2.82
496.299	2.83
496.648	2.81
496.997	2.82
497.346	2.82
497.695	2.82
498.043	2.82
498.392	2.8
498.741	2.8
499.09	2.81
499.438	2.81
499.787	2.81
500.135	2.82
500.484	2.81
500.832	2.81
501.181	2.8
501.529	2.81
501.878	2.82
502.226	2.84
502.574	2.86
502.923	2.83
503.271	2.82
503.619	2.84
503.967	2.86
504.315	2.84
504.663	2.85
505.011	2.86
505.359	2.85
505.707	2.88
506.055	2.9
506.403	2.92
506.751	2.92
507.098	2.92
507.446	2.92
507.794	2.92
508.141	2.91
508.489	2.94
508.837	2.95
509.184	2.98
509.531	2.98
509.879	2.99
510.226	3.01
510.574	2.99
510.921	2.99
511.268	2.98
511.616	2.99
511.963	3.01
512.31	3.02
512.657	3.03
513.004	3.03
513.351	3.02
513.698	3.02
514.045	3
514.392	3.01
514.739	3
515.086	3.01
515.432	3.02
515.779	2.98
516.126	3
516.473	2.99
516.819	3
517.166	2.97
517.512	2.96
517.859	2.98
518.205	2.97
518.552	2.99
518.898	2.98
519.245	2.96
519.591	2.95
519.937	2.93
520.283	2.92
520.629	2.93
520.976	2.92
521.322	2.94
521.668	2.95
522.014	2.95
522.36	2.98
522.706	2.98
523.052	3
523.398	3
523.743	3
524.089	3.01
524.435	3.02
524.781	3.03
525.126	3.05
525.472	3.06
525.817	3.05
526.163	3.06
526.509	3.07
526.854	3.08
527.199	3.09
527.545	3.09
527.89	3.09
528.235	3.11
528.581	3.11
528.926	3.11
529.271	3.12
529.616	3.1
529.961	3.11
530.306	3.11
530.651	3.11
530.996	3.1
531.341	3.1
531.686	3.1
532.031	3.09
532.376	3.09
532.721	3.1
533.065	3.1
533.41	3.11
533.755	3.1
534.099	3.11
534.444	3.11
534.788	3.11
535.133	3.09
535.477	3.1
535.822	3.08
536.166	3.08
536.51	3.08
536.855	3.09
537.199	3.1
537.543	3.11
537.887	3.12
538.231	3.12
538.576	3.13
538.92	3.13
539.264	3.13
539.608	3.13
539.951	3.13
540.295	3.13
540.639	3.11
540.983	3.13
541.327	3.1
541.671	3.09
542.014	3.09
542.358	3.11
542.701	3.11
543.045	3.12
543.389	3.12
543.732	3.13
544.075	3.14
544.419	3.13
544.762	3.13
545.105	3.13
545.449	3.15
545.792	3.14
546.135	3.14
546.478	3.14
546.821	3.15
547.165	3.15
547.508	3.16
547.851	3.16
548.194	3.14
548.536	3.15
548.879	3.19
549.222	3.2
549.565	3.2
549.908	3.21
550.25	3.21
550.593	3.2
550.936	3.18
551.278	3.15
551.621	3.15
551.963	3.16
552.306	3.14
552.648	3.13
552.991	3.13
553.333	3.12
553.675	3.12
554.017	3.1
554.36	3.12
554.702	3.12
555.044	3.12
555.386	3.13
555.728	3.12
556.07	3.13
556.412	3.11
556.754	3.09
557.096	3.07
557.438	3.08
557.78	3.13
558.121	3.15
558.463	3.18
558.805	3.17
559.147	3.13
559.488	3.13
559.83	3.14
560.171	3.13
560.513	3.13
560.854	3.13
561.196	3.14
561.537	3.14
561.878	3.14
562.22	3.13
562.561	3.14
562.902	3.18
563.243	3.16
563.584	3.2
563.925	3.23
564.266	3.21
564.607	3.2
564.948	3.17
565.289	3.17
565.63	3.15
565.971	3.17
566.312	3.19
566.653	3.19
566.993	3.2
567.334	3.21
567.675	3.25
568.015	3.26
568.356	3.26
568.696	3.25
569.037	3.26
569.377	3.29
569.718	3.3
570.058	3.3
570.398	3.29
570.739	3.26
571.079	3.28
571.419	3.29
571.759	3.33
572.099	3.33
572.439	3.35
572.779	3.34
573.119	3.35
573.459	3.37
573.799	3.39
574.139	3.38
574.479	3.36
574.819	3.35
575.158	3.34
575.498	3.32
575.838	3.34
576.177	3.31
576.517	3.29
576.856	3.31
577.196	3.31
577.535	3.34
577.875	3.38
578.214	3.36
578.553	3.36
578.893	3.34
579.232	3.34
579.571	3.31
579.91	3.33
580.25	3.31
580.589	3.3
580.928	3.26
581.267	3.26
581.606	3.26
581.945	3.27
582.283	3.3
582.622	3.31
582.961	3.29
583.3	3.3
583.639	3.31
583.977	3.29
584.316	3.24
584.654	3.24
584.993	3.22
585.332	3.25
585.67	3.21
586.008	3.2
586.347	3.2
586.685	3.22
587.024	3.21
587.362	3.24
587.7	3.24
588.038	3.25
588.376	3.24
588.715	3.23
589.053	3.25
589.391	3.25
589.729	3.29
590.067	3.27
590.404	3.25
590.742	3.26
591.08	3.25
591.418	3.3
591.756	3.28
592.093	3.31
592.431	3.27
592.769	3.28
593.106	3.27
593.444	3.25
593.781	3.22
594.119	3.25
594.456	3.23
594.793	3.24
595.131	3.2
595.468	3.23
595.805	3.24
596.143	3.23
596.48	3.2
596.817	3.19
597.154	3.24
597.491	3.29
597.828	3.29
598.165	3.28
598.502	3.28
598.839	3.28
599.176	3.24
599.512	3.26
599.849	3.3
600.186	3.31
600.523	3.36
600.859	3.42
601.196	3.42
601.532	3.43
601.869	3.44
602.205	3.47
602.542	3.47
602.878	3.47
603.215	3.49
603.551	3.51
603.887	3.52
604.223	3.49
604.56	3.51
604.896	3.5
605.232	3.52
605.568	3.5
605.904	3.51
606.24	3.53
606.576	3.5
606.912	3.48
607.248	3.48
607.583	3.5
607.919	3.46
608.255	3.46
608.591	3.46
608.926	3.44
609.262	3.48
609.597	3.49
609.933	3.5
610.268	3.48
610.604	3.49
610.939	3.46
611.275	3.47
611.61	3.43
611.945	3.44
612.281	3.43
612.616	3.45
612.951	3.49
613.286	3.49
613.621	3.5
613.956	3.49
614.291	3.49
614.626	3.44
614.961	3.47
615.296	3.43
615.631	3.41
615.966	3.46
616.3	3.47
616.635	3.47
616.97	3.45
617.304	3.45
617.639	3.46
617.973	3.45
618.308	3.43
618.642	3.44
618.977	3.43
619.311	3.43
619.646	3.46
619.98	3.45
620.314	3.46
620.648	3.46
620.983	3.5
621.317	3.57
621.651	3.54
621.985	3.52
622.319	3.55
622.653	3.58
622.987	3.58
623.321	3.55
623.655	3.55
623.988	3.62
624.322	3.67
624.656	3.66
624.99	3.74
625.323	3.74
625.657	3.75
625.99	3.74
626.324	3.73
626.657	3.74
626.991	3.73
627.324	3.77
627.658	3.78
627.991	3.74
628.324	3.71
628.657	3.76
628.991	3.78
629.324	3.77
629.657	3.79
629.99	3.83
630.323	3.83
630.656	3.86
630.989	3.83
631.322	3.79
631.655	3.78
631.987	3.72
632.32	3.69
632.653	3.67
632.986	3.69
633.318	3.69
633.651	3.65
633.984	3.66
634.316	3.63
634.649	3.6
634.981	3.64
635.313	3.64
635.646	3.63
635.978	3.63
636.31	3.63
636.643	3.6
636.975	3.57
637.307	3.61
637.639	3.58
637.971	3.55
638.303	3.54
638.635	3.53
638.967	3.54
639.299	3.64
639.631	3.71
639.963	3.64
640.295	3.7
640.626	3.69
640.958	3.67
641.29	3.66
641.621	3.7
641.953	3.67
642.285	3.58
642.616	3.58
642.948	3.57
643.279	3.59
643.61	3.57
643.942	3.53
644.273	3.53
644.604	3.54
644.936	3.52
645.267	3.51
645.598	3.55
645.929	3.55
646.26	3.49
646.591	3.44
646.922	3.55
647.253	3.51
647.584	3.52
647.915	3.52
648.245	3.51
648.576	3.57
648.907	3.56
649.238	3.64
649.568	3.7
649.899	3.68
650.229	3.65
650.56	3.65
650.89	3.61
651.221	3.56
651.551	3.52
651.882	3.57
652.212	3.65
652.542	3.64
652.872	3.63
653.203	3.57
653.533	3.6
653.863	3.54
654.193	3.56
654.523	3.58
654.853	3.63
655.183	3.66
655.513	3.6
655.843	3.67
656.172	3.69
656.502	3.68
656.832	3.73
657.162	3.81
657.491	3.81
657.821	3.87
658.15	3.91
658.48	3.97
658.809	3.93
659.139	3.92
659.468	3.94
659.798	3.94
660.127	4.03
660.456	3.99
660.785	4.04
661.115	4.05
661.444	4.04
661.773	3.95
662.102	3.98
662.431	4.02
662.76	4.02
663.089	4.01
663.418	3.95
663.747	3.9
664.076	3.89
664.404	3.9
664.733	3.94
665.062	3.9
665.39	3.84
665.719	3.84
666.048	3.8
666.376	3.8
666.705	3.79
667.033	3.75
667.362	3.82
667.69	3.78
668.018	3.77
668.347	3.79
668.675	3.92
669.003	3.89
669.331	3.87
669.659	3.85
669.987	3.77
670.315	3.81
670.643	3.88
670.971	3.89
671.299	3.88
671.627	3.87
671.955	3.83
672.283	3.89
672.61	3.88
672.938	3.9
673.266	3.9
673.593	4.04
673.921	4.02
674.249	4.01
674.576	4.04
674.904	4.02
675.231	3.94
675.558	3.9
675.886	3.89
676.213	3.9
676.54	3.92
676.867	4.04
677.195	4.07
677.522	4.06
677.849	4.07
678.176	4.08
678.503	4.03
678.83	4.11
679.157	4.1
679.484	4.12
679.81	4.12
680.137	4.03
680.464	3.97
680.791	4.02
681.117	4
681.444	3.99
681.771	4.05
682.097	4.08
682.424	4.11
682.75	4.12
683.077	4.08
683.403	4.13
683.729	4.09
684.056	4.12
684.382	4.04
684.708	4.04
685.034	4.13
685.36	4.16
685.686	4.09
686.012	4.09
686.339	4.23
686.664	4.25
686.99	4.36
687.316	4.34
687.642	4.35
687.968	4.41
688.294	4.48
688.619	4.54
688.945	4.59
689.271	4.52
689.596	4.51
689.922	4.59
690.247	4.53
690.573	4.46
690.898	4.5
691.224	4.67
691.549	4.71
691.874	4.58
692.2	4.6
692.525	4.67
692.85	4.74
693.175	4.68
693.5	4.66
693.825	4.64
694.15	4.58
694.475	4.52
694.8	4.45
695.125	4.39
695.45	4.29
695.775	4.27
696.099	4.35
696.424	4.33
696.749	4.29
697.073	4.28
697.398	4.4
697.723	4.31
698.047	4.17
698.372	4.07
698.696	4.07
699.02	4.12
699.345	4.14
699.669	4.17
699.993	4.1
700.318	4.08
700.642	4.04
700.966	4.16
701.29	4.19
701.614	4.23
701.938	4.22
702.262	4.42
702.586	4.44
702.91	4.44
703.234	4.46
703.557	4.47
703.881	4.48
704.205	4.38
704.529	4.32
704.852	4.47
705.176	4.47
705.499	4.51
705.823	4.44
706.146	4.36
706.47	4.3
706.793	4.38
707.117	4.54
707.44	4.54
707.763	4.46
708.086	4.37
708.409	4.29
708.733	4.28
709.056	4.01
709.379	4.05
709.702	4.04
710.025	4.04
710.348	4.1
710.671	4.17
710.993	4.34
711.316	4.48
711.639	4.44
711.962	4.5
712.284	4.49
712.607	4.56
712.93	4.73
713.252	4.73
713.575	4.83
713.897	4.67
714.22	4.73
714.542	4.79
714.864	4.89
715.187	5.06
715.509	5.01
715.831	5.07
716.153	5.09
716.475	5.09
716.798	5.23
717.12	5.13
717.442	5.04
717.764	4.89
718.085	4.75
718.407	4.82
718.729	4.85
719.051	4.93
719.373	4.71
719.695	4.58
720.016	4.53
720.338	4.39
720.659	4.46
720.981	4.41
721.302	4.37
721.624	4.37
721.945	4.27
722.267	4.27
722.588	4.29
722.909	4.07
723.231	3.96
723.552	3.87
723.873	4
724.194	4.05
724.515	4.2
724.836	4.2
725.157	4.08
725.478	4.08
725.799	4.06
726.12	4
726.441	3.98
726.762	4.05
727.083	4.14
727.403	4.09
727.724	4.35
728.045	4.31
728.365	4.2
728.686	4.28
729.006	4.38
729.327	4.37
729.647	4.62
729.967	4.78
730.288	4.9
730.608	4.82
730.928	4.75
731.249	4.7
731.569	5.06
731.889	5.09
732.209	5.13
732.529	5.22
732.849	5.52
733.169	5.52
733.489	5.47
733.809	5.42
734.129	5.51
734.448	5.42
734.768	5.41
735.088	5.65
735.408	5.51
735.727	5.59
736.047	5.69
736.366	5.53
736.686	5.48
737.005	5.38
737.325	5.4
737.644	5.56
737.963	5.65
738.283	5.31
738.602	5.41
738.921	5.43
739.24	5.37
739.56	5.32
739.879	5.52
740.198	5.67
740.517	5.77
740.836	5.78
741.155	5.74
741.473	5.83
741.792	5.74
742.111	5.74
742.43	5.66
742.748	5.5
743.067	5.52
743.386	5.64
743.704	5.61
744.023	5.73
744.341	5.47
744.66	5.58
744.978	5.7
745.297	5.54
745.615	5.42
745.933	5.44
746.252	5.48
746.57	5.24
746.888	5.12
747.206	5.01
747.524	4.93
747.842	4.99
748.16	5.08
748.478	5.12
748.796	5.22
749.114	5.43
749.432	5.37
749.749	5.57
750.067	5.48
750.385	5.51
750.703	5.51
751.02	5.68
751.338	5.39
751.655	5.26
751.973	5.5
752.29	5.45
752.608	5.4
752.925	5.21
753.242	5.22
753.56	5.19
753.877	5.22
754.194	5.43
754.511	5.34
754.828	5.16
755.145	5.19
755.462	5.12
755.779	5.03
756.096	5.35
756.413	5.38
756.73	5.5
757.047	5.48
757.364	5.63
757.68	5.65
757.997	5.84
758.314	5.7
758.63	5.64
758.947	5.9
759.264	5.78
759.58	5.93
759.896	6.03
760.213	6.05
760.529	6.11
760.846	5.73
761.162	5.46
761.478	5.48
761.794	5.45
762.11	5.58
762.426	5.76
762.743	5.66
763.059	5.47
763.375	5.62
763.69	5.74
764.006	5.56
764.322	5.52
764.638	5.68
764.954	5.94
765.27	5.83
765.585	5.82
765.901	5.93
766.216	5.96
766.532	5.95
766.848	5.9
767.163	5.79
767.478	6.05
767.794	6.34
768.109	6.47
768.424	6.65
768.74	6.44
769.055	6.18
769.37	6.27
769.685	6.45
770	6.26
770.315	6.28
770.63	6.43
770.945	6.68
771.26	6.17
771.575	6.05
771.89	5.97
772.205	5.8
772.52	5.74
772.834	5.56
773.149	5.57
773.464	5.81
773.778	5.91
774.093	5.75
774.407	5.76
774.722	5.88
775.036	5.47
775.351	5.79
775.665	5.75
775.979	5.35
776.293	4.97
776.608	4.87
776.922	4.36
777.236	4.31
777.55	3.9
777.864	4.16
778.178	4.31
778.492	4.76
778.806	4.78
779.12	4.85
779.434	4.77
779.747	4.82
780.061	4.65
780.375	4.58
780.689	4.6
781.002	4.99
781.316	5.04
781.629	5.41
781.943	5.52
782.256	5.65
782.57	6.11
782.883	6.54
783.196	6.53
783.51	6.63
783.823	6.65
784.136	6.92
784.449	7.15
784.762	6.77
785.075	6.65
785.388	6.68
785.701	6.79
786.014	6.95
786.327	7.04
786.64	7.23
786.953	7.44
787.266	7.31
787.578	7.02
787.891	6.76
788.204	6.62
788.516	6.78
788.829	7.04
789.141	6.98
789.454	6.74
789.766	7.07
790.079	7.29
790.391	7.21
790.703	7.28
791.016	7.11
791.328	7.63
791.64	7.65
791.952	8.25
792.264	8.1
792.576	8.18
792.888	8.18
793.2	8.23
793.512	8.26
793.824	8.63
794.136	8.4
794.448	8.14
794.76	7.59
795.071	7.32
795.383	7.04
795.695	7
796.006	7.22
796.318	6.9
796.629	7.41
796.941	7.38
797.252	7.69
797.564	7.7
797.875	7.28
798.186	6.75
798.497	6.28
798.809	6.43
799.12	6.42
799.431	6.43
799.742	6.24
800.053	6.53
800.364	6.25
800.675	6.28
800.986	6.76
801.297	7.34
801.608	7.58
801.918	7.83
802.229	7.94
802.54	7.75
802.851	7.65
803.161	7.46
803.472	7.25
803.782	6.78
804.093	7.03
804.403	7.3
804.714	7.91
805.024	7.98
805.334	8.29
805.645	8.55
805.955	8.58
806.265	8.81
806.575	8.43
806.885	9.05
807.195	9.35
807.505	9.41
807.815	9.31
808.125	8.61
808.435	8.38
808.745	7.94
809.055	8.44
809.365	8.8
809.674	8.73
809.984	9.4
810.294	9.59
810.603	9.2
810.913	9.94
811.222	9.8
811.532	9.86
811.841	9.95
812.151	10.09
812.46	9.9
812.769	10.02
813.079	9.6
813.388	9.53
813.697	9.64
814.006	9.76
814.315	9.95
814.624	10
814.933	10.3
815.242	11.41
815.551	11.44
815.86	11.31
816.169	11.07
816.478	10.79
816.786	10.32
817.095	10.24
817.404	9.5
817.712	9.37
818.021	9.23
818.33	9
818.638	8.79
818.947	9
819.255	9.41
819.563	9.33
819.872	9.07
820.18	9.28
820.488	8.98
820.796	8.89
821.105	9.04
821.413	9.05
821.721	8.95
822.029	8.85
822.337	8.91
822.645	9.03
822.953	9.05
823.26	9.24
823.568	9.11
823.876	9.12
824.184	9.12
824.491	9.04
824.799	8.99
825.107	9.01
825.414	9.09
825.722	9
826.029	9.19
826.337	9.32
826.644	9.2
826.951	9.24
827.259	9.32
827.566	9.19
827.873	9.07
828.18	9.08
828.488	9.26
828.795	9.3
829.102	9.12
829.409	9.26
829.716	9.15
830.023	9.58
830.329	9.38
830.636	9.7
830.943	9.84
831.25	9.77
831.557	9.62
831.863	9.43
832.17	8.81
832.476	8.77
832.783	8.68
833.089	8.74
833.396	8.84
833.702	9.03
834.009	9.54
834.315	9.78
834.621	9.42
834.928	9.35
835.234	9.18
835.54	9.26
835.846	9.01
836.152	9.16
836.458	9.27
836.764	9.51
837.07	9.59
837.376	9.44
837.682	9.71
837.988	10.1
838.293	10
838.599	10.72
838.905	10.96
839.211	10.48
839.516	10.52
839.822	10.76
840.127	10.37
840.433	10.54
840.738	10.39
841.044	10.79
841.349	10.19
841.654	11.24
841.959	11.42
842.265	11.44
842.57	11.77
842.875	12.01
843.18	12.6
843.485	11.98
843.79	12.23
844.095	11.67
844.4	12.33
844.705	12.27
845.01	11.79
845.315	11.8
845.619	12.05
845.924	11.63
846.229	11.4
846.533	11.94
846.838	11.79
847.142	10.94
847.447	9.65
847.751	11.58
848.056	9.63
848.36	10.22
848.664	10.09
848.969	8.37
849.273	5.77
849.577	2.87
849.881	1.16
850.185	2.25
850.489	4.27
850.794	2.09
851.097	2.67
851.401	3.26
851.705	3.1
852.009	4.31
852.313	4.27
852.617	5.24
852.92	6.01
853.224	5.55
853.528	7.32
853.831	8.99
854.135	9.1
854.438	7.67
854.742	7.45
855.045	8.39
855.349	11.79
855.652	11.18
855.955	14.89
856.259	15.46
856.562	14.13
856.865	12.65
857.168	13.07
857.471	12.56
857.774	11.91
858.077	11.67
858.38	12.13
858.683	11.27
858.986	8.62
859.289	8.66
859.592	7.45
859.894	7.03
860.197	6.55
860.5	5.47
860.802	7.93
861.105	7.2
861.407	5.58
861.71	4.48
862.012	4.73
862.315	2.48
862.617	2.4
862.919	2.07
863.222	0.96
863.524	1.7
863.826	2.29
864.128	1.82
864.43	1.07
864.732	1.15
865.034	2.72
865.336	5.18
865.638	4.47
865.94	5.48
866.242	4.75
866.544	4.49
866.846	4.75
867.147	3.88
867.449	4.79
867.751	7.26
868.052	6.89
868.354	8.08
868.655	8.49
868.957	9.05
869.258	12
869.56	14
869.861	12.18
870.162	11.1
870.463	11.76
870.765	14.05
871.066	12.08
871.367	11.31
871.668	8.97
871.969	8.79
872.27	8.62
872.571	6.85
872.872	8.97
873.173	7.19
873.473	9.1
873.774	9.24
874.075	7.01
874.376	4.74
874.676	6.4
874.977	5.01
875.277	5.57
875.578	4.47
875.878	3.44
876.179	5.51
876.479	6.5
876.78	5.69
877.08	2.28
877.38	3.01
877.68	2.55
877.981	4.68
878.281	4.6
878.581	5.09
