Data from BA28304_Reflection_00001.txt Node
Date: Mon Nov 18 15:35:51 EST 2019
User: vgr7
Spectrometer: USB2G7710
Scans to average: 3
Trigger mode: 4
Integration Time (sec): 2.000000E-2
Electric dark correction enabled: true
Boxcar width: 10
XAxis mode: Wavelengths
Number of Pixels in Spectrum: 2048
>>>>>Begin Spectral Data<<<<<
177.721	38.44
178.105	9.09
178.488	14.39
178.871	0.99
179.254	-114.08
179.636	38.81
180.019	-58.35
180.402	67.74
180.785	378.2
181.168	5225
181.55	-4194.12
181.933	215.08
182.316	128.14
182.698	83.56
183.081	119.9
183.463	1239.53
183.846	-272.01
184.228	-264.27
184.611	1863.64
184.993	872.15
185.376	-1199.07
185.758	-262.27
186.14	-146.75
186.522	-175.65
186.904	-880.3
187.287	-979.68
187.669	-197.73
188.051	-375.76
188.433	-333.38
188.815	-210.65
189.197	-168.74
189.579	-106.43
189.961	-105.19
190.342	-120.83
190.724	-77.94
191.106	-64.63
191.488	-56.26
191.869	-65.3
192.251	-51.4
192.633	-61.73
193.014	-73.08
193.396	-89.64
193.777	-74.27
194.159	-115.03
194.54	-92.11
194.922	-64.31
195.303	-58.85
195.684	-71.42
196.065	-52.14
196.447	-54.13
196.828	-52.58
197.209	-42.44
197.59	-52.95
197.971	-54.85
198.352	-13.94
198.733	-19.73
199.114	-29.97
199.495	-7.34
199.876	28.68
200.257	28.4
200.638	44
201.018	59.15
201.399	18.68
201.78	23.56
202.16	27.95
202.541	4.42
202.922	-52.6
203.302	-160.7
203.683	-126.7
204.063	157100
204.444	-236.19
204.824	-185.27
205.204	-97.02
205.585	-130.95
205.965	-172.08
206.345	-419.77
206.725	-369.52
207.106	-691.75
207.486	1826.46
207.866	-2506.94
208.246	-341.66
208.626	-436.66
209.006	-318.18
209.386	-574.82
209.766	-614.29
210.145	-388.57
210.525	-179.92
210.905	-153.77
211.285	-116.64
211.664	-107.64
212.044	-110.29
212.424	-108.49
212.803	-90.77
213.183	-116.83
213.562	-110.03
213.942	-80.15
214.321	-82.54
214.701	-169.01
215.08	-130.42
215.459	-104.47
215.838	-71.02
216.218	-80.49
216.597	-67.79
216.976	-54.55
217.355	-46.77
217.734	-85.81
218.113	-79.15
218.492	-118.35
218.871	-111.86
219.25	-105.12
219.629	-146.01
220.008	-84.79
220.387	-81.24
220.766	-81.65
221.144	-95.7
221.523	-66.71
221.902	-58.73
222.28	-71.38
222.659	-58.06
223.037	-61.43
223.416	-65.57
223.794	-63.66
224.173	-76.86
224.551	-65.49
224.929	-73.86
225.308	-54.89
225.686	-34.18
226.064	-28.61
226.442	-25.51
226.821	-16.62
227.199	-14.03
227.577	-16.28
227.955	-14.53
228.333	-17.53
228.711	-13.83
229.089	-10.54
229.467	-11.76
229.845	-13.17
230.222	-8.92
230.6	-4.2
230.978	-2.72
231.356	0.13
231.733	-0.53
232.111	3.82
232.488	2.86
232.866	5.59
233.243	6.55
233.621	3.59
233.998	4.7
234.376	5.44
234.753	4.38
235.13	3.97
235.508	6.62
235.885	6.82
236.262	6.59
236.639	4.54
237.016	4.97
237.393	5.17
237.77	6.67
238.147	6.8
238.524	6.13
238.901	6.02
239.278	5.72
239.655	5.85
240.032	5.51
240.409	4.82
240.785	4.12
241.162	3.75
241.539	4
241.915	3.57
242.292	3.18
242.668	2.98
243.045	3.14
243.421	3.01
243.798	2.8
244.174	3.05
244.551	2.96
244.927	2.77
245.303	2.66
245.679	2.56
246.056	2.41
246.432	2.3
246.808	2.13
247.184	2.17
247.56	2.07
247.936	1.88
248.312	2.2
248.688	2.21
249.064	2.29
249.44	2.32
249.815	2.38
250.191	2.35
250.567	2.41
250.943	2.11
251.318	2.11
251.694	2.17
252.069	2
252.445	2.27
252.82	2.31
253.196	2.21
253.571	2.32
253.947	2.29
254.322	2.65
254.697	2.7
255.073	2.14
255.448	2.26
255.823	2.21
256.198	2.29
256.573	2.18
256.948	2.08
257.323	2.15
257.698	2.32
258.073	2.25
258.448	2.19
258.823	2.21
259.198	2.3
259.573	2.32
259.948	2.26
260.322	2.24
260.697	2.08
261.072	2.18
261.446	2.15
261.821	2.1
262.195	2.01
262.57	1.84
262.944	1.9
263.319	1.77
263.693	1.84
264.067	1.75
264.442	1.99
264.816	1.96
265.19	1.87
265.564	1.73
265.938	1.93
266.313	1.86
266.687	1.94
267.061	2
267.435	1.69
267.809	1.74
268.183	1.67
268.556	1.75
268.93	1.87
269.304	1.77
269.678	1.94
270.051	1.83
270.425	2.2
270.799	2.41
271.172	2.43
271.546	2.42
271.919	2.4
272.293	2.17
272.666	2.27
273.04	2.32
273.413	2.26
273.787	2.31
274.16	2.49
274.533	2.48
274.906	2.35
275.279	2.59
275.653	2.71
276.026	2.71
276.399	2.95
276.772	3.02
277.145	2.87
277.518	2.79
277.891	2.96
278.263	2.87
278.636	2.88
279.009	2.83
279.382	2.89
279.755	2.9
280.127	3.14
280.5	3.07
280.872	3.07
281.245	3.15
281.617	3.08
281.99	3.02
282.362	2.97
282.735	2.84
283.107	2.78
283.479	2.77
283.852	2.73
284.224	2.58
284.596	2.41
284.968	2.48
285.34	2.59
285.713	2.5
286.085	2.48
286.457	2.56
286.829	2.64
287.201	2.63
287.572	2.64
287.944	2.41
288.316	2.39
288.688	2.26
289.06	2.19
289.431	2.14
289.803	2.12
290.175	2.32
290.546	2.54
290.918	2.6
291.289	2.76
291.661	2.87
292.032	3.09
292.403	3.2
292.775	3.39
293.146	3.23
293.517	3.28
293.889	3.25
294.26	3.14
294.631	3.09
295.002	3.07
295.373	3.07
295.744	3.2
296.115	3.19
296.486	3.28
296.857	3.33
297.228	3.32
297.599	3.27
297.97	3.13
298.34	3.03
298.711	2.99
299.082	2.77
299.452	2.78
299.823	2.62
300.194	2.67
300.564	2.58
300.935	2.66
301.305	2.52
301.676	2.67
302.046	2.61
302.416	2.74
302.787	2.76
303.157	2.72
303.527	2.63
303.897	2.57
304.267	2.69
304.637	2.69
305.008	2.75
305.378	2.81
305.748	2.77
306.117	2.74
306.487	2.78
306.857	2.82
307.227	2.83
307.597	2.85
307.967	2.8
308.336	2.76
308.706	2.77
309.076	2.81
309.445	2.58
309.815	2.61
310.184	2.48
310.554	2.42
310.923	2.54
311.293	2.57
311.662	2.59
312.031	2.52
312.401	2.48
312.77	2.47
313.139	2.45
313.508	2.41
313.877	2.33
314.246	2.33
314.616	2.42
314.985	2.37
315.353	2.25
315.722	2.22
316.091	2.11
316.46	1.95
316.829	2.13
317.198	2.35
317.567	2.27
317.935	2.34
318.304	2.29
318.672	2.14
319.041	2.18
319.41	2.14
319.778	2.25
320.147	2.27
320.515	2.21
320.883	2.28
321.252	2.45
321.62	2.5
321.988	2.45
322.357	2.3
322.725	2.25
323.093	2.4
323.461	2.37
323.829	2.58
324.197	2.76
324.565	2.66
324.933	2.48
325.301	2.52
325.669	2.47
326.037	2.64
326.405	2.58
326.772	2.58
327.14	2.75
327.508	2.59
327.875	2.55
328.243	2.63
328.61	2.55
328.978	2.49
329.346	2.71
329.713	2.7
330.08	2.69
330.448	2.64
330.815	2.49
331.182	2.52
331.55	2.42
331.917	2.42
332.284	2.53
332.651	2.67
333.018	2.72
333.385	2.74
333.752	2.6
334.119	2.77
334.486	2.67
334.853	2.6
335.22	2.54
335.587	2.64
335.954	2.64
336.32	2.78
336.687	2.79
337.054	2.67
337.42	2.79
337.787	2.89
338.153	2.91
338.52	3.03
338.886	3.01
339.253	2.93
339.619	2.95
339.986	2.83
340.352	2.9
340.718	2.85
341.084	2.92
341.451	3.06
341.817	2.98
342.183	2.99
342.549	2.95
342.915	3.06
343.281	3.02
343.647	2.98
344.013	2.87
344.379	2.81
344.745	2.73
345.11	2.6
345.476	2.62
345.842	2.64
346.208	2.6
346.573	2.6
346.939	2.72
347.304	2.58
347.67	2.49
348.035	2.38
348.401	2.36
348.766	2.32
349.132	2.25
349.497	2.17
349.862	2.29
350.228	2.28
350.593	2.28
350.958	2.32
351.323	2.33
351.688	2.32
352.053	2.42
352.418	2.47
352.783	2.54
353.148	2.49
353.513	2.51
353.878	2.54
354.243	2.61
354.608	2.55
354.972	2.54
355.337	2.61
355.702	2.63
356.066	2.7
356.431	2.69
356.795	2.67
357.16	2.68
357.524	2.63
357.889	2.59
358.253	2.6
358.618	2.64
358.982	2.68
359.346	2.65
359.71	2.61
360.075	2.54
360.439	2.53
360.803	2.51
361.167	2.45
361.531	2.43
361.895	2.38
362.259	2.35
362.623	2.41
362.987	2.42
363.351	2.43
363.714	2.39
364.078	2.38
364.442	2.41
364.806	2.44
365.169	2.43
365.533	2.38
365.896	2.34
366.26	2.29
366.623	2.27
366.987	2.25
367.35	2.28
367.714	2.4
368.077	2.33
368.44	2.33
368.803	2.43
369.167	2.36
369.53	2.34
369.893	2.38
370.256	2.39
370.619	2.36
370.982	2.35
371.345	2.33
371.708	2.37
372.071	2.31
372.434	2.26
372.797	2.26
373.159	2.29
373.522	2.33
373.885	2.33
374.247	2.34
374.61	2.37
374.973	2.37
375.335	2.34
375.698	2.44
376.06	2.47
376.423	2.43
376.785	2.48
377.147	2.51
377.51	2.49
377.872	2.52
378.234	2.53
378.596	2.55
378.958	2.5
379.321	2.52
379.683	2.58
380.045	2.64
380.407	2.64
380.769	2.72
381.13	2.69
381.492	2.64
381.854	2.63
382.216	2.63
382.578	2.6
382.939	2.55
383.301	2.51
383.663	2.43
384.024	2.42
384.386	2.47
384.747	2.42
385.109	2.46
385.47	2.41
385.832	2.38
386.193	2.39
386.554	2.43
386.916	2.4
387.277	2.39
387.638	2.35
387.999	2.35
388.36	2.33
388.721	2.34
389.082	2.35
389.443	2.38
389.804	2.39
390.165	2.39
390.526	2.4
390.887	2.37
391.248	2.46
391.609	2.47
391.969	2.48
392.33	2.5
392.691	2.49
393.051	2.52
393.412	2.56
393.772	2.53
394.133	2.56
394.493	2.54
394.854	2.51
395.214	2.54
395.574	2.57
395.935	2.57
396.295	2.61
396.655	2.58
397.015	2.56
397.376	2.57
397.736	2.6
398.096	2.61
398.456	2.64
398.816	2.62
399.176	2.59
399.535	2.53
399.895	2.54
400.255	2.54
400.615	2.54
400.975	2.51
401.334	2.5
401.694	2.52
402.054	2.53
402.413	2.56
402.773	2.57
403.132	2.54
403.492	2.56
403.851	2.53
404.211	2.57
404.57	2.58
404.929	2.58
405.288	2.56
405.648	2.56
406.007	2.54
406.366	2.53
406.725	2.58
407.084	2.6
407.443	2.58
407.802	2.61
408.161	2.59
408.52	2.61
408.879	2.62
409.238	2.61
409.596	2.62
409.955	2.6
410.314	2.61
410.673	2.62
411.031	2.61
411.39	2.6
411.748	2.62
412.107	2.63
412.465	2.61
412.824	2.61
413.182	2.6
413.54	2.64
413.899	2.65
414.257	2.63
414.615	2.64
414.974	2.68
415.332	2.66
415.69	2.66
416.048	2.65
416.406	2.65
416.764	2.65
417.122	2.64
417.48	2.65
417.838	2.65
418.195	2.67
418.553	2.65
418.911	2.65
419.269	2.63
419.626	2.63
419.984	2.63
420.342	2.63
420.699	2.64
421.057	2.63
421.414	2.62
421.772	2.63
422.129	2.63
422.486	2.62
422.844	2.62
423.201	2.62
423.558	2.63
423.915	2.64
424.273	2.65
424.63	2.65
424.987	2.66
425.344	2.66
425.701	2.65
426.058	2.67
426.415	2.66
426.772	2.69
427.128	2.69
427.485	2.7
427.842	2.7
428.199	2.69
428.555	2.71
428.912	2.71
429.269	2.71
429.625	2.71
429.982	2.68
430.338	2.67
430.695	2.68
431.051	2.68
431.407	2.68
431.764	2.69
432.12	2.67
432.476	2.69
432.832	2.67
433.189	2.68
433.545	2.67
433.901	2.71
434.257	2.69
434.613	2.7
434.969	2.7
435.325	2.69
435.681	2.71
436.036	2.69
436.392	2.69
436.748	2.68
437.104	2.68
437.459	2.69
437.815	2.7
438.171	2.7
438.526	2.71
438.882	2.71
439.237	2.7
439.593	2.69
439.948	2.67
440.304	2.67
440.659	2.66
441.014	2.67
441.369	2.65
441.725	2.64
442.08	2.64
442.435	2.65
442.79	2.66
443.145	2.66
443.5	2.67
443.855	2.66
444.21	2.65
444.565	2.67
444.92	2.68
445.275	2.68
445.629	2.69
445.984	2.69
446.339	2.67
446.693	2.64
447.048	2.65
447.403	2.64
447.757	2.64
448.112	2.62
448.466	2.6
448.82	2.61
449.175	2.61
449.529	2.61
449.883	2.59
450.238	2.57
450.592	2.59
450.946	2.58
451.3	2.58
451.654	2.59
452.008	2.6
452.362	2.59
452.716	2.59
453.07	2.58
453.424	2.56
453.778	2.57
454.132	2.59
454.486	2.58
454.839	2.6
455.193	2.62
455.547	2.63
455.9	2.63
456.254	2.63
456.607	2.65
456.961	2.65
457.314	2.65
457.668	2.66
458.021	2.64
458.375	2.64
458.728	2.65
459.081	2.64
459.434	2.63
459.787	2.63
460.141	2.64
460.494	2.65
460.847	2.66
461.2	2.64
461.553	2.65
461.906	2.68
462.259	2.68
462.611	2.69
462.964	2.7
463.317	2.72
463.67	2.7
464.022	2.69
464.375	2.68
464.728	2.69
465.08	2.7
465.433	2.72
465.785	2.73
466.138	2.74
466.49	2.75
466.843	2.74
467.195	2.76
467.547	2.76
467.899	2.75
468.252	2.73
468.604	2.77
468.956	2.77
469.308	2.76
469.66	2.73
470.012	2.7
470.364	2.73
470.716	2.72
471.068	2.72
471.42	2.72
471.772	2.75
472.123	2.74
472.475	2.72
472.827	2.73
473.178	2.73
473.53	2.7
473.882	2.69
474.233	2.7
474.585	2.68
474.936	2.69
475.288	2.7
475.639	2.73
475.99	2.72
476.342	2.7
476.693	2.7
477.044	2.73
477.395	2.75
477.746	2.73
478.097	2.73
478.448	2.74
478.8	2.74
479.15	2.73
479.501	2.72
479.852	2.74
480.203	2.74
480.554	2.74
480.905	2.76
481.255	2.76
481.606	2.77
481.957	2.78
482.307	2.78
482.658	2.77
483.009	2.77
483.359	2.78
483.709	2.8
484.06	2.81
484.41	2.81
484.761	2.82
485.111	2.82
485.461	2.83
485.811	2.85
486.162	2.85
486.512	2.85
486.862	2.86
487.212	2.85
487.562	2.85
487.912	2.85
488.262	2.86
488.612	2.87
488.961	2.87
489.311	2.88
489.661	2.87
490.011	2.88
490.36	2.88
490.71	2.89
491.06	2.87
491.409	2.86
491.759	2.86
492.108	2.86
492.458	2.85
492.807	2.84
493.157	2.83
493.506	2.85
493.855	2.85
494.204	2.85
494.554	2.84
494.903	2.84
495.252	2.83
495.601	2.83
495.95	2.83
496.299	2.82
496.648	2.81
496.997	2.81
497.346	2.82
497.695	2.83
498.043	2.82
498.392	2.83
498.741	2.84
499.09	2.84
499.438	2.81
499.787	2.82
500.135	2.85
500.484	2.84
500.832	2.84
501.181	2.85
501.529	2.84
501.878	2.86
502.226	2.88
502.574	2.89
502.923	2.89
503.271	2.88
503.619	2.89
503.967	2.88
504.315	2.89
504.663	2.88
505.011	2.89
505.359	2.88
505.707	2.87
506.055	2.87
506.403	2.88
506.751	2.89
507.098	2.89
507.446	2.88
507.794	2.87
508.141	2.87
508.489	2.87
508.837	2.9
509.184	2.92
509.531	2.92
509.879	2.92
510.226	2.95
510.574	2.95
510.921	2.95
511.268	2.96
511.616	2.96
511.963	2.96
512.31	2.96
512.657	2.98
513.004	2.98
513.351	2.98
513.698	2.98
514.045	2.97
514.392	2.97
514.739	2.99
515.086	3.01
515.432	3.01
515.779	3
516.126	2.99
516.473	3
516.819	3.01
517.166	2.99
517.512	2.99
517.859	3.01
518.205	3.01
518.552	3.02
518.898	3
519.245	3.03
519.591	3.02
519.937	3
520.283	3
520.629	3
520.976	3.01
521.322	3.02
521.668	3.02
522.014	3.02
522.36	3.01
522.706	3.02
523.052	3.05
523.398	3.06
523.743	3.04
524.089	3.03
524.435	3.04
524.781	3.04
525.126	3.02
525.472	3.03
525.817	3.03
526.163	3.04
526.509	3.04
526.854	3.05
527.199	3.06
527.545	3.07
527.89	3.07
528.235	3.08
528.581	3.07
528.926	3.07
529.271	3.07
529.616	3.06
529.961	3.07
530.306	3.06
530.651	3.05
530.996	3.06
531.341	3.06
531.686	3.06
532.031	3.06
532.376	3.07
532.721	3.07
533.065	3.07
533.41	3.07
533.755	3.07
534.099	3.07
534.444	3.09
534.788	3.07
535.133	3.07
535.477	3.06
535.822	3.07
536.166	3.08
536.51	3.09
536.855	3.08
537.199	3.07
537.543	3.06
537.887	3.07
538.231	3.08
538.576	3.08
538.92	3.09
539.264	3.08
539.608	3.07
539.951	3.07
540.295	3.08
540.639	3.06
540.983	3.04
541.327	3.05
541.671	3.04
542.014	3.05
542.358	3.05
542.701	3.05
543.045	3.04
543.389	3.05
543.732	3.05
544.075	3.06
544.419	3.07
544.762	3.08
545.105	3.07
545.449	3.07
545.792	3.04
546.135	3.05
546.478	3.06
546.821	3.07
547.165	3.06
547.508	3.07
547.851	3.08
548.194	3.08
548.536	3.06
548.879	3.07
549.222	3.08
549.565	3.1
549.908	3.12
550.25	3.14
550.593	3.15
550.936	3.14
551.278	3.11
551.621	3.1
551.963	3.11
552.306	3.11
552.648	3.09
552.991	3.13
553.333	3.11
553.675	3.11
554.017	3.1
554.36	3.11
554.702	3.11
555.044	3.12
555.386	3.16
555.728	3.19
556.07	3.17
556.412	3.16
556.754	3.15
557.096	3.14
557.438	3.13
557.78	3.12
558.121	3.15
558.463	3.16
558.805	3.16
559.147	3.15
559.488	3.16
559.83	3.2
560.171	3.18
560.513	3.22
560.854	3.22
561.196	3.23
561.537	3.23
561.878	3.23
562.22	3.24
562.561	3.23
562.902	3.22
563.243	3.26
563.584	3.27
563.925	3.27
564.266	3.28
564.607	3.27
564.948	3.28
565.289	3.27
565.63	3.28
565.971	3.28
566.312	3.27
566.653	3.29
566.993	3.26
567.334	3.26
567.675	3.27
568.015	3.28
568.356	3.27
568.696	3.3
569.037	3.29
569.377	3.3
569.718	3.29
570.058	3.29
570.398	3.3
570.739	3.27
571.079	3.27
571.419	3.27
571.759	3.3
572.099	3.28
572.439	3.29
572.779	3.28
573.119	3.3
573.459	3.32
573.799	3.32
574.139	3.34
574.479	3.37
574.819	3.35
575.158	3.32
575.498	3.32
575.838	3.29
576.177	3.25
576.517	3.24
576.856	3.23
577.196	3.23
577.535	3.22
577.875	3.26
578.214	3.25
578.553	3.22
578.893	3.2
579.232	3.22
579.571	3.2
579.91	3.21
580.25	3.22
580.589	3.19
580.928	3.16
581.267	3.18
581.606	3.15
581.945	3.16
582.283	3.17
582.622	3.18
582.961	3.2
583.3	3.24
583.639	3.26
583.977	3.31
584.316	3.29
584.654	3.3
584.993	3.24
585.332	3.26
585.67	3.3
586.008	3.3
586.347	3.31
586.685	3.32
587.024	3.31
587.362	3.33
587.7	3.34
588.038	3.33
588.376	3.32
588.715	3.33
589.053	3.33
589.391	3.37
589.729	3.39
590.067	3.36
590.404	3.36
590.742	3.38
591.08	3.36
591.418	3.37
591.756	3.39
592.093	3.45
592.431	3.45
592.769	3.45
593.106	3.44
593.444	3.41
593.781	3.4
594.119	3.41
594.456	3.41
594.793	3.4
595.131	3.39
595.468	3.39
595.805	3.38
596.143	3.39
596.48	3.38
596.817	3.38
597.154	3.37
597.491	3.38
597.828	3.35
598.165	3.33
598.502	3.34
598.839	3.32
599.176	3.28
599.512	3.28
599.849	3.26
600.186	3.28
600.523	3.34
600.859	3.39
601.196	3.42
601.532	3.39
601.869	3.4
602.205	3.43
602.542	3.43
602.878	3.43
603.215	3.44
603.551	3.46
603.887	3.45
604.223	3.45
604.56	3.5
604.896	3.54
605.232	3.58
605.568	3.56
605.904	3.54
606.24	3.56
606.576	3.56
606.912	3.57
607.248	3.57
607.583	3.54
607.919	3.5
608.255	3.46
608.591	3.49
608.926	3.5
609.262	3.55
609.597	3.55
609.933	3.57
610.268	3.54
610.604	3.52
610.939	3.5
611.275	3.52
611.61	3.51
611.945	3.52
612.281	3.49
612.616	3.49
612.951	3.54
613.286	3.52
613.621	3.53
613.956	3.5
614.291	3.51
614.626	3.53
614.961	3.53
615.296	3.54
615.631	3.52
615.966	3.51
616.3	3.42
616.635	3.41
616.97	3.42
617.304	3.42
617.639	3.45
617.973	3.45
618.308	3.42
618.642	3.35
618.977	3.32
619.311	3.29
619.646	3.29
619.98	3.3
620.314	3.3
620.648	3.31
620.983	3.36
621.317	3.34
621.651	3.33
621.985	3.37
622.319	3.39
622.653	3.41
622.987	3.45
623.321	3.5
623.655	3.51
623.988	3.49
624.322	3.48
624.656	3.46
624.99	3.47
625.323	3.5
625.657	3.55
625.99	3.58
626.324	3.64
626.657	3.66
626.991	3.64
627.324	3.67
627.658	3.68
627.991	3.68
628.324	3.68
628.657	3.68
628.991	3.64
629.324	3.61
629.657	3.61
629.99	3.62
630.323	3.64
630.656	3.66
630.989	3.69
631.322	3.73
631.655	3.77
631.987	3.76
632.32	3.76
632.653	3.7
632.986	3.7
633.318	3.66
633.651	3.64
633.984	3.62
634.316	3.63
634.649	3.65
634.981	3.66
635.313	3.64
635.646	3.66
635.978	3.66
636.31	3.71
636.643	3.72
636.975	3.68
637.307	3.65
637.639	3.59
637.971	3.64
638.303	3.6
638.635	3.53
638.967	3.56
639.299	3.62
639.631	3.65
639.963	3.62
640.295	3.67
640.626	3.7
640.958	3.73
641.29	3.7
641.621	3.64
641.953	3.61
642.285	3.67
642.616	3.66
642.948	3.69
643.279	3.65
643.61	3.62
643.942	3.66
644.273	3.67
644.604	3.68
644.936	3.58
645.267	3.64
645.598	3.66
645.929	3.65
646.26	3.65
646.591	3.65
646.922	3.67
647.253	3.66
647.584	3.62
647.915	3.65
648.245	3.67
648.576	3.72
648.907	3.75
649.238	3.66
649.568	3.64
649.899	3.71
650.229	3.72
650.56	3.72
650.89	3.67
651.221	3.71
651.551	3.73
651.882	3.73
652.212	3.74
652.542	3.77
652.872	3.76
653.203	3.71
653.533	3.75
653.863	3.76
654.193	3.77
654.523	3.8
654.853	3.8
655.183	3.81
655.513	3.79
655.843	3.81
656.172	3.92
656.502	3.92
656.832	3.82
657.162	3.85
657.491	3.91
657.821	3.88
658.15	3.85
658.48	3.86
658.809	3.95
659.139	3.9
659.468	3.87
659.798	3.86
660.127	3.88
660.456	3.9
660.785	3.88
661.115	3.86
661.444	3.86
661.773	3.9
662.102	3.82
662.431	3.83
662.76	3.81
663.089	3.74
663.418	3.72
663.747	3.73
664.076	3.7
664.404	3.64
664.733	3.76
665.062	3.8
665.39	3.83
665.719	3.75
666.048	3.76
666.376	3.79
666.705	3.81
667.033	3.79
667.362	3.79
667.69	3.81
668.018	3.8
668.347	3.84
668.675	3.83
669.003	3.89
669.331	3.96
669.659	3.94
669.987	3.97
670.315	4.01
670.643	3.97
670.971	4.04
671.299	4.12
671.627	4.02
671.955	3.99
672.283	3.92
672.61	3.98
672.938	4.01
673.266	3.99
673.593	4.03
673.921	4.05
674.249	4.01
674.576	4.04
674.904	4.13
675.231	4.08
675.558	4.08
675.886	4.14
676.213	4.06
676.54	4.11
676.867	4.14
677.195	4.14
677.522	4.27
677.849	4.29
678.176	4.24
678.503	4.28
678.83	4.27
679.157	4.32
679.484	4.31
679.81	4.25
680.137	4.26
680.464	4.24
680.791	4.21
681.117	4.18
681.444	4.12
681.771	4.12
682.097	4.1
682.424	4.11
682.75	4.12
683.077	4.08
683.403	4.06
683.729	3.98
684.056	4.08
684.382	4.1
684.708	3.95
685.034	3.91
685.36	3.95
685.686	3.94
686.012	3.81
686.339	3.84
686.664	3.9
686.99	3.92
687.316	3.91
687.642	3.97
687.968	4.02
688.294	4.06
688.619	3.95
688.945	3.93
689.271	3.86
689.596	3.9
689.922	3.99
690.247	3.94
690.573	4.06
690.898	4.02
691.224	4.02
691.549	4.12
691.874	4.1
692.2	4.06
692.525	4.12
692.85	4.3
693.175	4.28
693.5	4.32
693.825	4.34
694.15	4.37
694.475	4.41
694.8	4.44
695.125	4.47
695.45	4.56
695.775	4.59
696.099	4.54
696.424	4.55
696.749	4.46
697.073	4.59
697.398	4.54
697.723	4.48
698.047	4.44
698.372	4.46
698.696	4.47
699.02	4.49
699.345	4.41
699.669	4.43
699.993	4.44
700.318	4.39
700.642	4.33
700.966	4.43
701.29	4.41
701.614	4.45
701.938	4.48
702.262	4.53
702.586	4.5
702.91	4.58
703.234	4.58
703.557	4.63
703.881	4.5
704.205	4.53
704.529	4.59
704.852	4.6
705.176	4.56
705.499	4.67
705.823	4.73
706.146	4.8
706.47	4.79
706.793	4.81
707.117	4.87
707.44	4.86
707.763	4.7
708.086	4.59
708.409	4.51
708.733	4.4
709.056	4.32
709.379	4.54
709.702	4.51
710.025	4.46
710.348	4.46
710.671	4.5
710.993	4.59
711.316	4.58
711.639	4.66
711.962	4.74
712.284	4.75
712.607	4.72
712.93	4.87
713.252	4.78
713.575	4.9
713.897	4.88
714.22	5.01
714.542	5.01
714.864	5.14
715.187	5.22
715.509	5.31
715.831	5.36
716.153	5.26
716.475	5.31
716.798	5.37
717.12	5.39
717.442	5.51
717.764	5.47
718.085	5.47
718.407	5.35
718.729	5.3
719.051	5.33
719.373	5.31
719.695	5.22
720.016	5.35
720.338	5.33
720.659	5.38
720.981	5.22
721.302	5.31
721.624	5.24
721.945	5.25
722.267	5.21
722.588	5.04
722.909	4.97
723.231	4.99
723.552	4.99
723.873	4.95
724.194	4.59
724.515	4.53
724.836	4.49
725.157	4.56
725.478	4.53
725.799	4.44
726.12	4.52
726.441	4.44
726.762	4.45
727.083	4.18
727.403	4.14
727.724	4.3
728.045	4.25
728.365	4.45
728.686	4.48
729.006	4.68
729.327	4.76
729.647	4.93
729.967	4.93
730.288	4.91
730.608	4.91
730.928	5.18
731.249	5.14
731.569	5.28
731.889	5.32
732.209	5.25
732.529	5.3
732.849	5.2
733.169	5.17
733.489	5.23
733.809	5.38
734.129	5.52
734.448	5.48
734.768	5.53
735.088	5.35
735.408	5.25
735.727	5.15
736.047	5.27
736.366	5.09
736.686	5.29
737.005	5.25
737.325	5.51
737.644	5.46
737.963	5.5
738.283	5.27
738.602	5.23
738.921	5.41
739.24	5.49
739.56	5.35
739.879	5.61
740.198	5.51
740.517	5.48
740.836	5.43
741.155	5.51
741.473	5.48
741.792	5.54
742.111	5.62
742.43	5.62
742.748	5.53
743.067	5.66
743.386	5.46
743.704	5.38
744.023	5.16
744.341	5.31
744.66	5.64
744.978	5.51
745.297	5.55
745.615	5.49
745.933	5.42
746.252	5.71
746.57	5.43
746.888	5.27
747.206	5.26
747.524	5.23
747.842	5.17
748.16	5.32
748.478	5.16
748.796	5.09
749.114	5.32
749.432	5.3
749.749	5.36
750.067	5.12
750.385	5.15
750.703	5.34
751.02	5.23
751.338	4.63
751.655	4.81
751.973	4.78
752.29	4.91
752.608	5.03
752.925	5.09
753.242	5.08
753.56	5.08
753.877	5.11
754.194	5.1
754.511	5.2
754.828	5
755.145	5.09
755.462	5.33
755.779	5.22
756.096	5.27
756.413	5.19
756.73	5.47
757.047	5.5
757.364	5.16
757.68	5.09
757.997	5.37
758.314	5.45
758.63	5.44
758.947	5.32
759.264	5.23
759.58	5.07
759.896	5.39
760.213	5.56
760.529	5.68
760.846	5.61
761.162	5.58
761.478	5.77
761.794	5.74
762.11	5.56
762.426	5.38
762.743	5.5
763.059	5.58
763.375	5.56
763.69	5.81
764.006	5.99
764.322	6.02
764.638	6.11
764.954	6.25
765.27	6.33
765.585	6.4
765.901	6.43
766.216	6.56
766.532	6.19
766.848	6.18
767.163	6.2
767.478	6.27
767.794	6.14
768.109	6.09
768.424	6.16
768.74	6.52
769.055	6.71
769.37	6.68
769.685	6.62
770	6.75
770.315	6.61
770.63	6.61
770.945	6.52
771.26	6.39
771.575	6.04
771.89	6.07
772.205	5.98
772.52	5.95
772.834	5.91
773.149	6.37
773.464	6.88
773.778	7.09
774.093	7.18
774.407	7.25
774.722	7.19
775.036	7.4
775.351	7.35
775.665	7.06
775.979	6.87
776.293	7.02
776.608	6.71
776.922	6.59
777.236	6.75
777.55	6.78
777.864	7.01
778.178	7.18
778.492	6.92
778.806	6.86
779.12	7.03
779.434	6.86
779.747	6.92
780.061	6.54
780.375	6.04
780.689	5.7
781.002	6.13
781.316	6.29
781.629	6.43
781.943	6.45
782.256	7.06
782.57	7.03
782.883	6.7
783.196	7
783.51	6.87
783.823	6.74
784.136	7.05
784.449	7.03
784.762	7.44
785.075	7.92
785.388	8.06
785.701	8.14
786.014	8.22
786.327	8.31
786.64	8.68
786.953	9.18
787.266	9.62
787.578	9.29
787.891	9.31
788.204	8.85
788.516	8.51
788.829	8.27
789.141	8.56
789.454	8.78
789.766	8.75
790.079	8.62
790.391	8.44
790.703	8.19
791.016	8.28
791.328	8.34
791.64	8.14
791.952	8.64
792.264	8.13
792.576	7.94
792.888	7.45
793.2	7
793.512	6.45
793.824	6.13
794.136	5.8
794.448	5.75
794.76	5.97
795.071	6.2
795.383	5.89
795.695	5.48
796.006	5.26
796.318	5.21
796.629	5.96
796.941	5.69
797.252	6.27
797.564	5.89
797.875	5.13
798.186	5.24
798.497	4.57
798.809	4.6
799.12	5.24
799.431	5.33
799.742	5.17
800.053	5.24
800.364	5.15
800.675	5.72
800.986	5.76
801.297	5.7
801.608	5.61
801.918	5.55
802.229	6.08
802.54	6.1
802.851	6.25
803.161	6.01
803.472	6.51
803.782	6.22
804.093	6.33
804.403	6.78
804.714	6.45
805.024	6.37
805.334	6.63
805.645	6.5
805.955	6.66
806.265	7.56
806.575	7.93
806.885	8.26
807.195	8.37
807.505	8.68
807.815	8.52
808.125	7.71
808.435	7.81
808.745	7.33
809.055	7.58
809.365	7.34
809.674	7.09
809.984	6.99
810.294	6.59
810.603	6.65
810.913	7.47
811.222	7.99
811.532	8.29
811.841	8.65
812.151	8.83
812.46	8.36
812.769	7.58
813.079	7.76
813.388	8.12
813.697	8.17
814.006	7.11
814.315	7.49
814.624	8.03
814.933	8.17
815.242	8.7
815.551	8.8
815.86	9.52
816.169	9.12
816.478	8.91
816.786	9.76
817.095	10.39
817.404	9.9
817.712	9.45
818.021	9.12
818.33	8.57
818.638	7.95
818.947	8.48
819.255	8.75
819.563	8.51
819.872	8.06
820.18	7.93
820.488	8.12
820.796	8
821.105	8.1
821.413	8.04
821.721	8.02
822.029	7.96
822.337	7.93
822.645	8.07
822.953	8.12
823.26	8.03
823.568	7.88
823.876	8
824.184	8
824.491	8.07
824.799	8.27
825.107	8.37
825.414	8.41
825.722	8.4
826.029	8.44
826.337	8.62
826.644	8.65
826.951	8.63
827.259	8.63
827.566	8.78
827.873	8.88
828.18	8.89
828.488	8.94
828.795	8.69
829.102	8.85
829.409	9.09
829.716	9.09
830.023	9.19
830.329	8.74
830.636	9.06
830.943	9.35
831.25	9.11
831.557	9.21
831.863	9.2
832.17	8.8
832.476	8.96
832.783	8.97
833.089	8.97
833.396	9.18
833.702	9.51
834.009	9.24
834.315	9.12
834.621	8.86
834.928	9.19
835.234	9.28
835.54	9.21
835.846	9.15
836.152	9.22
836.458	9.25
836.764	9.61
837.07	9.58
837.376	8.93
837.682	9.36
837.988	8.54
838.293	8.61
838.599	8.76
838.905	8.55
839.211	8.23
839.516	8.44
839.822	8.81
840.127	8.67
840.433	8.89
840.738	9.39
841.044	9.68
841.349	9.04
841.654	9.69
841.959	9.97
842.265	9.72
842.57	10.15
842.875	9.86
843.18	9.78
843.485	9.6
843.79	10.86
844.095	9.51
844.4	11.64
844.705	11.16
845.01	12.67
845.315	12.49
845.619	12.33
845.924	12.03
846.229	11.59
846.533	11.9
846.838	12
847.142	10.39
847.447	10
847.751	11.13
848.056	10
848.36	10.17
848.664	9.61
848.969	8.77
849.273	7.52
849.577	7.5
849.881	7.17
850.185	6.22
850.489	7.78
850.794	5.78
851.097	3.56
851.401	0.79
851.705	-0.7
852.009	-0.14
852.313	-0.78
852.617	-0.76
852.92	-1.51
853.224	-2.35
853.528	0.25
853.831	0.92
854.135	1.01
854.438	0.76
854.742	-0.55
855.045	-0.17
855.349	-2.27
855.652	-2.05
855.955	-0.82
856.259	-1.69
856.562	-1.42
856.865	-1.19
857.168	0.97
857.471	3.85
857.774	5.41
858.077	6.69
858.38	7.06
858.683	6.69
858.986	8.38
859.289	7.87
859.592	6.47
859.894	7.52
860.197	6.12
860.5	5.41
860.802	5.86
861.105	7.32
861.407	6.99
861.71	9.06
862.012	10.26
862.315	8.04
862.617	8.61
862.919	7.59
863.222	4.75
863.524	3.97
863.826	5.62
864.128	6.7
864.43	5.84
864.732	6.82
865.034	6.91
865.336	5.12
865.638	6.35
865.94	6
866.242	3.51
866.544	3.84
866.846	4.1
867.147	3.62
867.449	1.83
867.751	2.43
868.052	3.8
868.354	1.72
868.655	4.04
868.957	2.17
869.258	1.83
869.56	6.02
869.861	6.4
870.162	5.04
870.463	5.09
870.765	7.16
871.066	5.31
871.367	5.98
871.668	5.08
871.969	2.19
872.27	4.25
872.571	4.13
872.872	5.22
873.173	3.54
873.473	4.44
873.774	7.87
874.075	6.94
874.376	6.87
874.676	10.82
874.977	8.8
875.277	11.47
875.578	12.61
875.878	10.11
876.179	9.92
876.479	9.47
876.78	7.29
877.08	6.48
877.38	7.22
877.68	6.76
877.981	8.28
878.281	12.26
878.581	13.29
