Data from BA28302_Reflection_00006.txt Node
Date: Mon Nov 18 15:48:42 EST 2019
User: vgr7
Spectrometer: USB2G7710
Scans to average: 3
Trigger mode: 4
Integration Time (sec): 2.000000E-2
Electric dark correction enabled: true
Boxcar width: 10
XAxis mode: Wavelengths
Number of Pixels in Spectrum: 2048
>>>>>Begin Spectral Data<<<<<
177.721	1267.25
178.105	-317.32
178.488	-513.88
178.871	-194.92
179.254	1303.39
179.636	-597.37
180.019	246.44
180.402	20.45
180.785	-66.28
181.168	503.41
181.55	-237.58
181.933	160.43
182.316	134.3
182.698	141.42
183.081	116.97
183.463	124.89
183.846	135.07
184.228	91.94
184.611	83.83
184.993	48.25
185.376	-11757.14
185.758	981.19
186.14	-1063.93
186.522	152.63
186.904	229.34
187.287	245.87
187.669	147.46
188.051	168.81
188.433	287.32
188.815	137.86
189.197	356.64
189.579	-2980
189.961	1811.86
190.342	255.89
190.724	-166.52
191.106	1100
191.488	136.73
191.869	69.4
192.251	205.34
192.633	2283.1
193.014	641.08
193.396	332.45
193.777	6479.31
194.159	-3481.82
194.54	-228.75
194.922	-106.74
195.303	-101.4
195.684	-87.79
196.065	1.23
196.447	-7.62
196.828	-26.42
197.209	-22.92
197.59	-139.85
197.971	24.14
198.352	-36.14
198.733	-81.64
199.114	-24.72
199.495	-0.66
199.876	-11.54
200.257	21.21
200.638	15.07
201.018	-2.46
201.399	17.76
201.78	-11.28
202.16	-27.18
202.541	-62.28
202.922	-320.65
203.302	-190.42
203.683	-118.48
204.063	-229.16
204.444	-347.31
204.824	-1471.43
205.204	-404.23
205.585	-103.31
205.965	-103.72
206.345	-156.23
206.725	-236.53
207.106	4649.3
207.486	883.3
207.866	568.48
208.246	1779.8
208.626	2005.03
209.006	598.9
209.386	902.74
209.766	-1013.36
210.145	-375.05
210.525	-156.94
210.905	-93.34
211.285	-103.18
211.664	-95.04
212.044	-108.59
212.424	-48.28
212.803	-52.25
213.183	-50.73
213.562	-63.36
213.942	-55.06
214.321	-22.41
214.701	-18.31
215.08	3.73
215.459	-5.89
215.838	-13.47
216.218	-13.73
216.597	1.23
216.976	-10.08
217.355	-4.78
217.734	-39.68
218.113	-45.17
218.492	-44
218.871	-50.3
219.25	-35.7
219.629	-32.64
220.008	-27.92
220.387	-63.48
220.766	-66
221.144	-54.45
221.523	-43.03
221.902	-39.59
222.28	-66.62
222.659	-56.73
223.037	-45.53
223.416	-38.61
223.794	-33.28
224.173	-29.15
224.551	-15.23
224.929	-17.97
225.308	-12.63
225.686	-6.95
226.064	-7.24
226.442	-5.41
226.821	-2.72
227.199	-2.64
227.577	-2.39
227.955	-1.75
228.333	-0.22
228.711	2.48
229.089	2.73
229.467	0.07
229.845	0.23
230.222	2.79
230.6	3.43
230.978	1.47
231.356	4.35
231.733	5.1
232.111	6.94
232.488	4.92
232.866	5.85
233.243	3.74
233.621	5.07
233.998	6.77
234.376	6.76
234.753	7.29
235.13	8.86
235.508	8.75
235.885	7.55
236.262	6.82
236.639	6
237.016	5.81
237.393	7.38
237.77	7.39
238.147	7.3
238.524	6.69
238.901	6.82
239.278	6.49
239.655	6.25
240.032	6.21
240.409	5.4
240.785	5.58
241.162	5.87
241.539	5.97
241.915	5.38
242.292	5.12
242.668	5.24
243.045	4.84
243.421	4.7
243.798	4.49
244.174	4.65
244.551	4.69
244.927	4.56
245.303	4.59
245.679	4.53
246.056	4.29
246.432	4.32
246.808	4.4
247.184	4.21
247.56	4.05
247.936	3.72
248.312	3.78
248.688	3.81
249.064	3.73
249.44	3.87
249.815	4.07
250.191	4.28
250.567	4.11
250.943	3.97
251.318	4.06
251.694	4.3
252.069	4.36
252.445	4.36
252.82	4.41
253.196	4.18
253.571	4.11
253.947	4.28
254.322	4.47
254.697	4.34
255.073	4.31
255.448	4.15
255.823	4.35
256.198	4.48
256.573	4.49
256.948	4.64
257.323	4.45
257.698	4.18
258.073	3.82
258.448	3.96
258.823	3.96
259.198	3.83
259.573	3.82
259.948	3.79
260.322	3.88
260.697	3.88
261.072	4.02
261.446	4.04
261.821	3.97
262.195	3.92
262.57	3.92
262.944	3.96
263.319	3.86
263.693	3.76
264.067	3.65
264.442	3.57
264.816	3.48
265.19	3.44
265.564	3.64
265.938	3.68
266.313	3.4
266.687	3.4
267.061	3.55
267.435	3.59
267.809	3.55
268.183	3.52
268.556	3.34
268.93	3.28
269.304	3.28
269.678	3.37
270.051	3.16
270.425	3.16
270.799	3.11
271.172	3.24
271.546	3.22
271.919	3.2
272.293	3.23
272.666	3.24
273.04	3.24
273.413	3.04
273.787	3.17
274.16	3.27
274.533	3.36
274.906	3.23
275.279	3.15
275.653	2.99
276.026	2.86
276.399	2.94
276.772	2.84
277.145	2.93
277.518	2.92
277.891	3.14
278.263	3.11
278.636	3.19
279.009	3.15
279.382	3.33
279.755	3.22
280.127	3.47
280.5	3.5
280.872	3.56
281.245	3.65
281.617	3.75
281.99	3.76
282.362	3.78
282.735	3.83
283.107	3.78
283.479	3.87
283.852	3.89
284.224	3.99
284.596	4.04
284.968	4.02
285.34	4
285.713	3.95
286.085	4.02
286.457	4.13
286.829	4.19
287.201	4.15
287.572	4.31
287.944	4.06
288.316	4.16
288.688	4.06
289.06	4.03
289.431	3.82
289.803	3.91
290.175	3.86
290.546	3.98
290.918	4.11
291.289	4.2
291.661	4.27
292.032	4.3
292.403	4.33
292.775	4.32
293.146	4.35
293.517	4.33
293.889	4.29
294.26	4.13
294.631	4.18
295.002	4.05
295.373	3.97
295.744	4.11
296.115	4.01
296.486	3.99
296.857	3.97
297.228	4.12
297.599	3.9
297.97	4.01
298.34	3.89
298.711	3.82
299.082	3.72
299.452	3.75
299.823	3.71
300.194	3.7
300.564	3.61
300.935	3.54
301.305	3.49
301.676	3.53
302.046	3.68
302.416	3.72
302.787	3.77
303.157	3.79
303.527	3.66
303.897	3.73
304.267	3.72
304.637	3.79
305.008	3.66
305.378	3.84
305.748	3.7
306.117	3.72
306.487	3.85
306.857	3.89
307.227	3.79
307.597	3.68
307.967	3.68
308.336	3.73
308.706	3.72
309.076	3.82
309.445	3.83
309.815	3.79
310.184	3.69
310.554	3.7
310.923	3.58
311.293	3.5
311.662	3.39
312.031	3.47
312.401	3.4
312.77	3.5
313.139	3.48
313.508	3.53
313.877	3.44
314.246	3.51
314.616	3.51
314.985	3.42
315.353	3.42
315.722	3.46
316.091	3.46
316.46	3.36
316.829	3.28
317.198	3.25
317.567	3.13
317.935	3.13
318.304	3.04
318.672	3.17
319.041	3.36
319.41	3.37
319.778	3.29
320.147	3.3
320.515	3.35
320.883	3.36
321.252	3.31
321.62	3.38
321.988	3.34
322.357	3.24
322.725	3.32
323.093	3.35
323.461	3.41
323.829	3.39
324.197	3.67
324.565	3.73
324.933	3.79
325.301	3.8
325.669	3.79
326.037	3.93
326.405	3.97
326.772	3.99
327.14	4.06
327.508	4.12
327.875	4.03
328.243	3.96
328.61	3.91
328.978	4.01
329.346	4.06
329.713	3.94
330.08	4.06
330.448	3.94
330.815	3.85
331.182	3.74
331.55	3.8
331.917	3.66
332.284	3.65
332.651	3.49
333.018	3.42
333.385	3.43
333.752	3.32
334.119	3.41
334.486	3.26
334.853	3.28
335.22	3.21
335.587	3.37
335.954	3.31
336.32	3.4
336.687	3.36
337.054	3.3
337.42	3.35
337.787	3.3
338.153	3.46
338.52	3.59
338.886	3.45
339.253	3.44
339.619	3.51
339.986	3.53
340.352	3.66
340.718	3.63
341.084	3.55
341.451	3.71
341.817	3.54
342.183	3.55
342.549	3.51
342.915	3.55
343.281	3.5
343.647	3.55
344.013	3.44
344.379	3.36
344.745	3.39
345.11	3.4
345.476	3.44
345.842	3.38
346.208	3.34
346.573	3.49
346.939	3.43
347.304	3.38
347.67	3.33
348.035	3.29
348.401	3.41
348.766	3.56
349.132	3.45
349.497	3.45
349.862	3.61
350.228	3.55
350.593	3.51
350.958	3.52
351.323	3.54
351.688	3.54
352.053	3.58
352.418	3.52
352.783	3.5
353.148	3.49
353.513	3.48
353.878	3.46
354.243	3.49
354.608	3.57
354.972	3.56
355.337	3.6
355.702	3.68
356.066	3.69
356.431	3.6
356.795	3.63
357.16	3.69
357.524	3.54
357.889	3.6
358.253	3.71
358.618	3.71
358.982	3.7
359.346	3.68
359.71	3.71
360.075	3.74
360.439	3.76
360.803	3.71
361.167	3.72
361.531	3.72
361.895	3.63
362.259	3.56
362.623	3.57
362.987	3.53
363.351	3.5
363.714	3.47
364.078	3.51
364.442	3.44
364.806	3.38
365.169	3.43
365.533	3.37
365.896	3.27
366.26	3.25
366.623	3.26
366.987	3.28
367.35	3.23
367.714	3.26
368.077	3.18
368.44	3.22
368.803	3.22
369.167	3.21
369.53	3.24
369.893	3.28
370.256	3.28
370.619	3.33
370.982	3.26
371.345	3.23
371.708	3.2
372.071	3.29
372.434	3.31
372.797	3.3
373.159	3.3
373.522	3.32
373.885	3.29
374.247	3.31
374.61	3.34
374.973	3.35
375.335	3.28
375.698	3.39
376.06	3.39
376.423	3.4
376.785	3.44
377.147	3.46
377.51	3.44
377.872	3.47
378.234	3.45
378.596	3.44
378.958	3.44
379.321	3.44
379.683	3.44
380.045	3.5
380.407	3.49
380.769	3.51
381.13	3.47
381.492	3.45
381.854	3.45
382.216	3.46
382.578	3.49
382.939	3.49
383.301	3.41
383.663	3.36
384.024	3.37
384.386	3.36
384.747	3.33
385.109	3.36
385.47	3.35
385.832	3.36
386.193	3.43
386.554	3.44
386.916	3.41
387.277	3.36
387.638	3.34
387.999	3.34
388.36	3.34
388.721	3.34
389.082	3.39
389.443	3.37
389.804	3.33
390.165	3.33
390.526	3.38
390.887	3.43
391.248	3.49
391.609	3.49
391.969	3.5
392.33	3.5
392.691	3.49
393.051	3.48
393.412	3.46
393.772	3.42
394.133	3.45
394.493	3.47
394.854	3.51
395.214	3.5
395.574	3.49
395.935	3.53
396.295	3.57
396.655	3.53
397.015	3.54
397.376	3.58
397.736	3.55
398.096	3.52
398.456	3.47
398.816	3.43
399.176	3.43
399.535	3.42
399.895	3.4
400.255	3.41
400.615	3.42
400.975	3.47
401.334	3.47
401.694	3.43
402.054	3.41
402.413	3.4
402.773	3.38
403.132	3.38
403.492	3.35
403.851	3.34
404.211	3.35
404.57	3.32
404.929	3.29
405.288	3.31
405.648	3.31
406.007	3.33
406.366	3.34
406.725	3.35
407.084	3.36
407.443	3.4
407.802	3.4
408.161	3.35
408.52	3.3
408.879	3.29
409.238	3.32
409.596	3.31
409.955	3.31
410.314	3.3
410.673	3.29
411.031	3.29
411.39	3.28
411.748	3.29
412.107	3.34
412.465	3.35
412.824	3.36
413.182	3.35
413.54	3.34
413.899	3.36
414.257	3.36
414.615	3.33
414.974	3.31
415.332	3.29
415.69	3.3
416.048	3.31
416.406	3.32
416.764	3.31
417.122	3.33
417.48	3.31
417.838	3.33
418.195	3.36
418.553	3.33
418.911	3.35
419.269	3.36
419.626	3.35
419.984	3.34
420.342	3.33
420.699	3.32
421.057	3.32
421.414	3.3
421.772	3.29
422.129	3.3
422.486	3.29
422.844	3.3
423.201	3.29
423.558	3.31
423.915	3.3
424.273	3.29
424.63	3.28
424.987	3.3
425.344	3.3
425.701	3.29
426.058	3.3
426.415	3.28
426.772	3.26
427.128	3.25
427.485	3.25
427.842	3.25
428.199	3.27
428.555	3.27
428.912	3.27
429.269	3.27
429.625	3.26
429.982	3.26
430.338	3.27
430.695	3.27
431.051	3.26
431.407	3.24
431.764	3.25
432.12	3.23
432.476	3.22
432.832	3.2
433.189	3.21
433.545	3.23
433.901	3.25
434.257	3.27
434.613	3.28
434.969	3.3
435.325	3.32
435.681	3.31
436.036	3.3
436.392	3.3
436.748	3.3
437.104	3.31
437.459	3.3
437.815	3.29
438.171	3.3
438.526	3.29
438.882	3.3
439.237	3.32
439.593	3.34
439.948	3.33
440.304	3.34
440.659	3.33
441.014	3.34
441.369	3.33
441.725	3.3
442.08	3.29
442.435	3.29
442.79	3.27
443.145	3.25
443.5	3.25
443.855	3.26
444.21	3.26
444.565	3.25
444.92	3.26
445.275	3.27
445.629	3.27
445.984	3.28
446.339	3.28
446.693	3.25
447.048	3.24
447.403	3.23
447.757	3.22
448.112	3.22
448.466	3.2
448.82	3.2
449.175	3.21
449.529	3.21
449.883	3.21
450.238	3.22
450.592	3.25
450.946	3.23
451.3	3.23
451.654	3.23
452.008	3.26
452.362	3.26
452.716	3.27
453.07	3.28
453.424	3.29
453.778	3.3
454.132	3.31
454.486	3.29
454.839	3.3
455.193	3.31
455.547	3.3
455.9	3.3
456.254	3.28
456.607	3.27
456.961	3.28
457.314	3.27
457.668	3.27
458.021	3.27
458.375	3.29
458.728	3.29
459.081	3.29
459.434	3.26
459.787	3.26
460.141	3.25
460.494	3.24
460.847	3.22
461.2	3.2
461.553	3.21
461.906	3.23
462.259	3.23
462.611	3.24
462.964	3.26
463.317	3.26
463.67	3.28
464.022	3.27
464.375	3.26
464.728	3.25
465.08	3.25
465.433	3.24
465.785	3.23
466.138	3.23
466.49	3.23
466.843	3.23
467.195	3.23
467.547	3.21
467.899	3.24
468.252	3.25
468.604	3.28
468.956	3.25
469.308	3.24
469.66	3.23
470.012	3.24
470.364	3.24
470.716	3.24
471.068	3.23
471.42	3.22
471.772	3.24
472.123	3.26
472.475	3.26
472.827	3.27
473.178	3.26
473.53	3.26
473.882	3.27
474.233	3.3
474.585	3.3
474.936	3.32
475.288	3.29
475.639	3.3
475.99	3.28
476.342	3.29
476.693	3.31
477.044	3.32
477.395	3.31
477.746	3.31
478.097	3.32
478.448	3.31
478.8	3.33
479.15	3.31
479.501	3.29
479.852	3.3
480.203	3.3
480.554	3.33
480.905	3.34
481.255	3.34
481.606	3.34
481.957	3.36
482.307	3.36
482.658	3.37
483.009	3.37
483.359	3.37
483.709	3.37
484.06	3.37
484.41	3.37
484.761	3.37
485.111	3.38
485.461	3.38
485.811	3.39
486.162	3.39
486.512	3.4
486.862	3.4
487.212	3.41
487.562	3.4
487.912	3.4
488.262	3.39
488.612	3.39
488.961	3.39
489.311	3.39
489.661	3.39
490.011	3.39
490.36	3.39
490.71	3.39
491.06	3.4
491.409	3.39
491.759	3.39
492.108	3.38
492.458	3.38
492.807	3.38
493.157	3.37
493.506	3.38
493.855	3.37
494.204	3.37
494.554	3.35
494.903	3.36
495.252	3.36
495.601	3.36
495.95	3.35
496.299	3.34
496.648	3.32
496.997	3.32
497.346	3.32
497.695	3.31
498.043	3.29
498.392	3.29
498.741	3.31
499.09	3.3
499.438	3.31
499.787	3.32
500.135	3.32
500.484	3.33
500.832	3.35
501.181	3.35
501.529	3.36
501.878	3.39
502.226	3.38
502.574	3.37
502.923	3.38
503.271	3.4
503.619	3.4
503.967	3.4
504.315	3.41
504.663	3.4
505.011	3.4
505.359	3.43
505.707	3.46
506.055	3.46
506.403	3.48
506.751	3.49
507.098	3.5
507.446	3.52
507.794	3.51
508.141	3.51
508.489	3.5
508.837	3.51
509.184	3.51
509.531	3.52
509.879	3.55
510.226	3.56
510.574	3.55
510.921	3.56
511.268	3.56
511.616	3.57
511.963	3.61
512.31	3.63
512.657	3.61
513.004	3.61
513.351	3.63
513.698	3.62
514.045	3.61
514.392	3.59
514.739	3.59
515.086	3.6
515.432	3.6
515.779	3.61
516.126	3.62
516.473	3.64
516.819	3.66
517.166	3.66
517.512	3.67
517.859	3.68
518.205	3.69
518.552	3.72
518.898	3.71
519.245	3.7
519.591	3.7
519.937	3.7
520.283	3.7
520.629	3.7
520.976	3.7
521.322	3.71
521.668	3.72
522.014	3.72
522.36	3.75
522.706	3.75
523.052	3.75
523.398	3.77
523.743	3.75
524.089	3.74
524.435	3.75
524.781	3.75
525.126	3.75
525.472	3.76
525.817	3.75
526.163	3.76
526.509	3.77
526.854	3.76
527.199	3.77
527.545	3.77
527.89	3.77
528.235	3.77
528.581	3.76
528.926	3.76
529.271	3.77
529.616	3.76
529.961	3.76
530.306	3.76
530.651	3.75
530.996	3.75
531.341	3.75
531.686	3.75
532.031	3.74
532.376	3.74
532.721	3.73
533.065	3.73
533.41	3.74
533.755	3.73
534.099	3.74
534.444	3.73
534.788	3.74
535.133	3.74
535.477	3.73
535.822	3.74
536.166	3.75
536.51	3.73
536.855	3.73
537.199	3.73
537.543	3.74
537.887	3.72
538.231	3.73
538.576	3.73
538.92	3.74
539.264	3.74
539.608	3.76
539.951	3.75
540.295	3.75
540.639	3.74
540.983	3.75
541.327	3.74
541.671	3.74
542.014	3.74
542.358	3.75
542.701	3.76
543.045	3.77
543.389	3.78
543.732	3.8
544.075	3.8
544.419	3.82
544.762	3.82
545.105	3.84
545.449	3.85
545.792	3.85
546.135	3.85
546.478	3.85
546.821	3.82
547.165	3.86
547.508	3.86
547.851	3.85
548.194	3.85
548.536	3.88
548.879	3.91
549.222	3.91
549.565	3.9
549.908	3.9
550.25	3.9
550.593	3.89
550.936	3.87
551.278	3.87
551.621	3.87
551.963	3.86
552.306	3.87
552.648	3.86
552.991	3.87
553.333	3.88
553.675	3.88
554.017	3.91
554.36	3.87
554.702	3.87
555.044	3.88
555.386	3.86
555.728	3.87
556.07	3.86
556.412	3.87
556.754	3.85
557.096	3.83
557.438	3.82
557.78	3.84
558.121	3.86
558.463	3.89
558.805	3.85
559.147	3.85
559.488	3.84
559.83	3.83
560.171	3.85
560.513	3.86
560.854	3.89
561.196	3.88
561.537	3.91
561.878	3.93
562.22	3.93
562.561	3.92
562.902	3.9
563.243	3.88
563.584	3.89
563.925	3.91
564.266	3.92
564.607	3.91
564.948	3.94
565.289	3.97
565.63	3.96
565.971	3.94
566.312	3.96
566.653	3.94
566.993	3.97
567.334	3.94
567.675	3.95
568.015	3.94
568.356	3.92
568.696	3.91
569.037	3.93
569.377	3.95
569.718	3.97
570.058	3.99
570.398	3.99
570.739	4
571.079	4
571.419	4.02
571.759	4.04
572.099	4.02
572.439	4.02
572.779	4
573.119	4.04
573.459	4.03
573.799	4.06
574.139	4.06
574.479	4.1
574.819	4.07
575.158	4.07
575.498	4.05
575.838	4.05
576.177	4.01
576.517	4
576.856	4
577.196	3.98
577.535	3.97
577.875	3.97
578.214	3.97
578.553	4
578.893	3.95
579.232	3.91
579.571	3.89
579.91	3.9
580.25	3.9
580.589	3.92
580.928	3.92
581.267	3.91
581.606	3.91
581.945	3.91
582.283	3.9
582.622	3.93
582.961	3.95
583.3	3.97
583.639	3.98
583.977	3.98
584.316	3.98
584.654	4
584.993	4
585.332	4.01
585.67	3.96
586.008	4.01
586.347	4.07
586.685	4.05
587.024	4.03
587.362	4.03
587.7	4.02
588.038	4.02
588.376	4
588.715	4
589.053	4.06
589.391	4.08
589.729	4.08
590.067	4.04
590.404	4.03
590.742	4.04
591.08	4
591.418	4.03
591.756	4.05
592.093	4.05
592.431	4.03
592.769	4.09
593.106	4.07
593.444	4.04
593.781	4.05
594.119	4.06
594.456	4.06
594.793	4.04
595.131	4.02
595.468	4.02
595.805	3.98
596.143	3.96
596.48	3.96
596.817	3.98
597.154	4.04
597.491	4.07
597.828	4.06
598.165	4.07
598.502	4.07
598.839	4.05
599.176	4.02
599.512	4.03
599.849	4.03
600.186	4.04
600.523	4.07
600.859	4.11
601.196	4.15
601.532	4.16
601.869	4.13
602.205	4.13
602.542	4.16
602.878	4.19
603.215	4.18
603.551	4.18
603.887	4.18
604.223	4.14
604.56	4.12
604.896	4.11
605.232	4.13
605.568	4.12
605.904	4.1
606.24	4.14
606.576	4.12
606.912	4.11
607.248	4.12
607.583	4.13
607.919	4.09
608.255	4.07
608.591	4.07
608.926	4.12
609.262	4.13
609.597	4.12
609.933	4.1
610.268	4.1
610.604	4.09
610.939	4.09
611.275	4.07
611.61	4.07
611.945	4.11
612.281	4.12
612.616	4.08
612.951	4.14
613.286	4.13
613.621	4.18
613.956	4.17
614.291	4.13
614.626	4.11
614.961	4.1
615.296	4.06
615.631	4.06
615.966	4.04
616.3	4.05
616.635	4.11
616.97	4.12
617.304	4.16
617.639	4.17
617.973	4.2
618.308	4.26
618.642	4.23
618.977	4.21
619.311	4.2
619.646	4.28
619.98	4.27
620.314	4.27
620.648	4.22
620.983	4.21
621.317	4.24
621.651	4.23
621.985	4.28
622.319	4.34
622.653	4.37
622.987	4.39
623.321	4.4
623.655	4.35
623.988	4.35
624.322	4.33
624.656	4.31
624.99	4.26
625.323	4.27
625.657	4.28
625.99	4.28
626.324	4.32
626.657	4.3
626.991	4.34
627.324	4.34
627.658	4.36
627.991	4.41
628.324	4.4
628.657	4.4
628.991	4.37
629.324	4.38
629.657	4.34
629.99	4.34
630.323	4.35
630.656	4.35
630.989	4.37
631.322	4.41
631.655	4.41
631.987	4.45
632.32	4.45
632.653	4.48
632.986	4.52
633.318	4.53
633.651	4.55
633.984	4.5
634.316	4.49
634.649	4.55
634.981	4.52
635.313	4.56
635.646	4.53
635.978	4.58
636.31	4.54
636.643	4.55
636.975	4.57
637.307	4.54
637.639	4.53
637.971	4.47
638.303	4.46
638.635	4.46
638.967	4.52
639.299	4.52
639.631	4.49
639.963	4.39
640.295	4.39
640.626	4.41
640.958	4.4
641.29	4.41
641.621	4.34
641.953	4.34
642.285	4.35
642.616	4.39
642.948	4.33
643.279	4.34
643.61	4.39
643.942	4.4
644.273	4.43
644.604	4.46
644.936	4.5
645.267	4.45
645.598	4.41
645.929	4.37
646.26	4.36
646.591	4.38
646.922	4.39
647.253	4.4
647.584	4.36
647.915	4.35
648.245	4.38
648.576	4.4
648.907	4.44
649.238	4.43
649.568	4.43
649.899	4.45
650.229	4.5
650.56	4.5
650.89	4.45
651.221	4.47
651.551	4.46
651.882	4.51
652.212	4.49
652.542	4.56
652.872	4.57
653.203	4.58
653.533	4.61
653.863	4.63
654.193	4.59
654.523	4.6
654.853	4.58
655.183	4.56
655.513	4.53
655.843	4.49
656.172	4.48
656.502	4.49
656.832	4.51
657.162	4.48
657.491	4.47
657.821	4.43
658.15	4.42
658.48	4.38
658.809	4.33
659.139	4.4
659.468	4.4
659.798	4.42
660.127	4.46
660.456	4.42
660.785	4.44
661.115	4.41
661.444	4.41
661.773	4.5
662.102	4.51
662.431	4.56
662.76	4.58
663.089	4.55
663.418	4.52
663.747	4.53
664.076	4.56
664.404	4.57
664.733	4.68
665.062	4.76
665.39	4.75
665.719	4.72
666.048	4.71
666.376	4.69
666.705	4.56
667.033	4.56
667.362	4.64
667.69	4.67
668.018	4.69
668.347	4.65
668.675	4.65
669.003	4.67
669.331	4.75
669.659	4.7
669.987	4.75
670.315	4.8
670.643	4.77
670.971	4.7
671.299	4.69
671.627	4.71
671.955	4.65
672.283	4.71
672.61	4.79
672.938	4.76
673.266	4.84
673.593	4.95
673.921	4.89
674.249	4.9
674.576	4.88
674.904	4.94
675.231	5
675.558	4.98
675.886	4.94
676.213	4.83
676.54	4.82
676.867	4.87
677.195	4.75
677.522	4.8
677.849	4.87
678.176	4.9
678.503	4.86
678.83	4.76
679.157	4.73
679.484	4.7
679.81	4.76
680.137	4.75
680.464	4.73
680.791	4.76
681.117	4.69
681.444	4.67
681.771	4.61
682.097	4.56
682.424	4.52
682.75	4.55
683.077	4.53
683.403	4.55
683.729	4.49
684.056	4.52
684.382	4.46
684.708	4.43
685.034	4.39
685.36	4.39
685.686	4.51
686.012	4.5
686.339	4.57
686.664	4.54
686.99	4.46
687.316	4.44
687.642	4.45
687.968	4.43
688.294	4.49
688.619	4.43
688.945	4.42
689.271	4.43
689.596	4.34
689.922	4.39
690.247	4.41
690.573	4.44
690.898	4.47
691.224	4.46
691.549	4.49
691.874	4.44
692.2	4.42
692.525	4.47
692.85	4.49
693.175	4.49
693.5	4.49
693.825	4.52
694.15	4.62
694.475	4.61
694.8	4.73
695.125	4.7
695.45	4.7
695.775	4.65
696.099	4.61
696.424	4.72
696.749	4.66
697.073	4.58
697.398	4.65
697.723	4.71
698.047	4.75
698.372	4.65
698.696	4.8
699.02	4.88
699.345	4.85
699.669	4.86
699.993	4.84
700.318	4.79
700.642	4.81
700.966	4.75
701.29	4.65
701.614	4.6
701.938	4.65
702.262	4.79
702.586	4.86
702.91	4.9
703.234	4.88
703.557	4.99
703.881	5.07
704.205	5.01
704.529	5.05
704.852	5.02
705.176	5.07
705.499	4.92
705.823	4.83
706.146	4.82
706.47	4.88
706.793	4.93
707.117	5.02
707.44	5.1
707.763	5.12
708.086	5.21
708.409	5.2
708.733	5.09
709.056	5.19
709.379	5.34
709.702	5.38
710.025	5.32
710.348	5.28
710.671	5.27
710.993	5.39
711.316	5.39
711.639	5.38
711.962	5.49
712.284	5.56
712.607	5.54
712.93	5.49
713.252	5.5
713.575	5.51
713.897	5.48
714.22	5.44
714.542	5.4
714.864	5.41
715.187	5.52
715.509	5.61
715.831	5.46
716.153	5.47
716.475	5.52
716.798	5.47
717.12	5.47
717.442	5.52
717.764	5.41
718.085	5.37
718.407	5.48
718.729	5.43
719.051	5.38
719.373	5.34
719.695	5.42
720.016	5.44
720.338	5.42
720.659	5.37
720.981	5.44
721.302	5.66
721.624	5.65
721.945	5.57
722.267	5.42
722.588	5.48
722.909	5.42
723.231	5.31
723.552	5.55
723.873	5.73
724.194	5.79
724.515	5.75
724.836	5.7
725.157	5.7
725.478	5.63
725.799	5.64
726.12	5.81
726.441	5.69
726.762	5.65
727.083	5.56
727.403	5.63
727.724	5.78
728.045	5.56
728.365	5.55
728.686	5.53
729.006	5.71
729.327	5.68
729.647	5.65
729.967	5.68
730.288	5.65
730.608	5.43
730.928	5.39
731.249	5.34
731.569	5.64
731.889	5.76
732.209	5.87
732.529	5.95
732.849	5.92
733.169	5.93
733.489	5.9
733.809	5.97
734.129	5.95
734.448	5.79
734.768	5.84
735.088	5.95
735.408	6
735.727	5.88
736.047	5.77
736.366	5.66
736.686	5.64
737.005	5.63
737.325	5.64
737.644	5.66
737.963	5.72
738.283	5.36
738.602	5.34
738.921	5.28
739.24	5.27
739.56	5.24
739.879	5.19
740.198	5.32
740.517	5.38
740.836	5.22
741.155	5.28
741.473	5.44
741.792	5.43
742.111	5.51
742.43	5.61
742.748	5.79
743.067	5.85
743.386	5.87
743.704	5.96
744.023	6.22
744.341	6.29
744.66	6.39
744.978	6.31
745.297	5.99
745.615	5.92
745.933	5.93
746.252	5.85
746.57	5.91
746.888	5.86
747.206	5.56
747.524	5.66
747.842	5.7
748.16	5.8
748.478	5.68
748.796	5.47
749.114	5.71
749.432	5.59
749.749	5.69
750.067	5.84
750.385	5.54
750.703	5.53
751.02	5.48
751.338	5.33
751.655	5.55
751.973	5.66
752.29	5.96
752.608	6.03
752.925	6.09
753.242	6.2
753.56	6.13
753.877	6.37
754.194	6.56
754.511	6.29
754.828	6.05
755.145	6.04
755.462	6.24
755.779	6.06
756.096	6.22
756.413	6.3
756.73	6.25
757.047	6.39
757.364	6.15
757.68	6.11
757.997	6.26
758.314	6.04
758.63	6.12
758.947	5.97
759.264	5.95
759.58	5.95
759.896	5.82
760.213	6.05
760.529	6.21
760.846	6.24
761.162	6.53
761.478	6.53
761.794	6.54
762.11	6.46
762.426	6.47
762.743	6.44
763.059	6.4
763.375	6.3
763.69	6.5
764.006	6.68
764.322	6.85
764.638	6.86
764.954	7.19
765.27	7.08
765.585	7.19
765.901	7.15
766.216	7.24
766.532	7.25
766.848	7.1
767.163	6.97
767.478	6.83
767.794	6.64
768.109	6.5
768.424	6.63
768.74	6.77
769.055	6.91
769.37	6.84
769.685	6.83
770	6.99
770.315	6.83
770.63	6.8
770.945	6.66
771.26	6.88
771.575	6.67
771.89	7.02
772.205	6.89
772.52	6.97
772.834	6.81
773.149	7.03
773.464	7.13
773.778	7.17
774.093	6.96
774.407	7.17
774.722	7.45
775.036	7.38
775.351	7.25
775.665	7.02
775.979	7.3
776.293	7.39
776.608	7.31
776.922	7.19
777.236	7.26
777.55	7.34
777.864	7.3
778.178	7.24
778.492	7.05
778.806	7.15
779.12	7.36
779.434	7.62
779.747	7.72
780.061	7.68
780.375	7.76
780.689	7.88
781.002	8.15
781.316	8.14
781.629	8.55
781.943	8.78
782.256	8.68
782.57	8.79
782.883	9
783.196	9.29
783.51	9.45
783.823	9.06
784.136	8.43
784.449	8.26
784.762	8.32
785.075	8.26
785.388	8.07
785.701	7.95
786.014	7.57
786.327	7.3
786.64	7.78
786.953	8.08
787.266	8.46
787.578	8.14
787.891	7.98
788.204	7.59
788.516	7.29
788.829	7.62
789.141	7.43
789.454	7.23
789.766	7.29
790.079	7.67
790.391	7.66
790.703	8.01
791.016	8.22
791.328	8.64
791.64	8.76
791.952	9.16
792.264	8.75
792.576	8.96
792.888	9.14
793.2	8.56
793.512	8.12
793.824	8.11
794.136	7.97
794.448	8.34
794.76	8.38
795.071	8.77
795.383	8.67
795.695	8.39
796.006	8.6
796.318	8.46
796.629	7.96
796.941	7.71
797.252	7.85
797.564	7.74
797.875	7.3
798.186	7.35
798.497	7.23
798.809	7.39
799.12	7.64
799.431	7.71
799.742	7.96
800.053	8.24
800.364	8.19
800.675	8.36
800.986	8.11
801.297	7.69
801.608	7.84
801.918	7.57
802.229	8.04
802.54	7.59
802.851	8.01
803.161	8.41
803.472	9.2
803.782	9.36
804.093	9.03
804.403	9.17
804.714	8.86
805.024	8.6
805.334	8.94
805.645	8.8
805.955	9.3
806.265	9.52
806.575	8.98
806.885	9.15
807.195	9.03
807.505	9.21
807.815	10.19
808.125	9.61
808.435	9.83
808.745	9.13
809.055	9.18
809.365	8.68
809.674	8.23
809.984	7.8
810.294	7.6
810.603	8.04
810.913	8.12
811.222	8.71
811.532	8.52
811.841	9.09
812.151	9.45
812.46	8.74
812.769	8.3
813.079	8.63
813.388	8.49
813.697	8.25
814.006	7.94
814.315	7.81
814.624	8.34
814.933	8.48
815.242	9.18
815.551	9.48
815.86	9.65
816.169	9.62
816.478	9.52
816.786	9.96
817.095	10
817.404	9.78
817.712	9.31
818.021	9.68
818.33	8.96
818.638	8.73
818.947	8.95
819.255	9.12
819.563	9.04
819.872	9.14
820.18	9.18
820.488	9.1
820.796	8.78
821.105	8.58
821.413	8.67
821.721	8.47
822.029	8.58
822.337	8.62
822.645	8.8
822.953	8.89
823.26	8.84
823.568	8.67
823.876	8.72
824.184	8.79
824.491	8.67
824.799	8.66
825.107	8.71
825.414	8.53
825.722	8.51
826.029	8.5
826.337	8.62
826.644	8.66
826.951	8.65
827.259	8.64
827.566	8.53
827.873	8.58
828.18	8.71
828.488	8.54
828.795	8.34
829.102	8.21
829.409	8.19
829.716	8.17
830.023	8.31
830.329	8.1
830.636	7.92
830.943	8.1
831.25	7.94
831.557	7.78
831.863	8.08
832.17	8.03
832.476	8.44
832.783	8.35
833.089	8.19
833.396	8.45
833.702	9.23
834.009	9.61
834.315	9.44
834.621	9.62
834.928	9.5
835.234	9.46
835.54	8.92
835.846	8.95
836.152	8.94
836.458	8.93
836.764	9.16
837.07	9.09
837.376	8.6
837.682	8.52
837.988	8.38
838.293	8.11
838.599	8.3
838.905	7.68
839.211	7.15
839.516	7.76
839.822	7.81
840.127	7.03
840.433	7.57
840.738	7.48
841.044	7.24
841.349	8.18
841.654	8.55
841.959	9.76
842.265	9.38
842.57	10.22
842.875	10.56
843.18	10.68
843.485	10.94
843.79	11.51
844.095	13.04
844.4	13.73
844.705	13.8
845.01	13.3
845.315	12.89
845.619	12.68
845.924	12.47
846.229	13.28
846.533	13.63
846.838	12.91
847.142	12.49
847.447	12.58
847.751	11.59
848.056	11.09
848.36	10.72
848.664	11.59
848.969	10.99
849.273	10.23
849.577	10.88
849.881	11.07
850.185	11.96
850.489	11.88
850.794	10.12
851.097	11.01
851.401	11.28
851.705	12.71
852.009	13.39
852.313	12.46
852.617	11.11
852.92	12.14
853.224	11.47
853.528	13.78
853.831	12.98
854.135	13.53
854.438	14.78
854.742	14.22
855.045	14.06
855.349	12.86
855.652	14.66
855.955	14.85
856.259	13.46
856.562	13.54
856.865	11.06
857.168	13.79
857.471	13.17
857.774	12.56
858.077	13.92
858.38	12.49
858.683	13.2
858.986	14.93
859.289	13.39
859.592	13.69
859.894	11.54
860.197	11.94
860.5	11.61
860.802	10.65
861.105	11.34
861.407	10.98
861.71	9.82
862.012	9.47
862.315	10.62
862.617	12.21
862.919	12.56
863.222	14.41
863.524	14.01
863.826	15.46
864.128	17.57
864.43	15.43
864.732	17.46
865.034	17.16
865.336	16.31
865.638	17.66
865.94	17.52
866.242	18.72
866.544	17.46
866.846	17.71
867.147	17.62
867.449	18.14
867.751	19
868.052	19.77
868.354	17.15
868.655	16.17
868.957	15.55
869.258	15.67
869.56	15.1
869.861	14.46
870.162	12.36
870.463	11.24
870.765	11.25
871.066	10.2
871.367	10.59
871.668	8.82
871.969	7.38
872.27	7.23
872.571	6.84
872.872	10.56
873.173	9.51
873.473	9.46
873.774	8.52
874.075	9.11
874.376	8.53
874.676	11.24
874.977	8.97
875.277	10.32
875.578	10.25
875.878	9.96
876.179	10.01
876.479	11.59
876.78	11.57
877.08	12.66
877.38	13.58
877.68	13.03
877.981	14.37
878.281	14.87
878.581	15.96
