Data from BA28471_Reflection_00004.txt Node
Date: Mon Nov 18 15:21:05 EST 2019
User: vgr7
Spectrometer: USB2G7710
Scans to average: 3
Trigger mode: 4
Integration Time (sec): 2.000000E-2
Electric dark correction enabled: true
Boxcar width: 10
XAxis mode: Wavelengths
Number of Pixels in Spectrum: 2048
>>>>>Begin Spectral Data<<<<<
177.721	372.14
178.105	-125.43
178.488	-5.19
178.871	24.84
179.254	-33.45
179.636	-163.84
180.019	-38.82
180.402	30.77
180.785	100
181.168	27.25
181.55	-14.16
181.933	69.33
182.316	151.99
182.698	118.62
183.081	115.95
183.463	137.78
183.846	158.35
184.228	233.58
184.611	320.41
184.993	1548.28
185.376	-10.6
185.758	59.25
186.14	-98.68
186.522	-215.79
186.904	-124.78
187.287	-144.9
187.669	305.8
188.051	71.66
188.433	39.31
188.815	24.18
189.197	39.91
189.579	15.6
189.961	17.68
190.342	-2
190.724	-5.55
191.106	16.69
191.488	30.32
191.869	36.2
192.251	74.45
192.633	144.81
193.014	307.22
193.396	292.82
193.777	274.64
194.159	450.77
194.54	106.4
194.922	41.75
195.303	150.78
195.684	159.19
196.065	125.41
196.447	207.68
196.828	385.26
197.209	155.77
197.59	216.56
197.971	226.87
198.352	304.12
198.733	904.29
199.114	624.52
199.495	251.9
199.876	247.66
200.257	119.99
200.638	75.47
201.018	42.98
201.399	46.44
201.78	45.4
202.16	47.71
202.541	42.94
202.922	50.09
203.302	43.85
203.683	51.63
204.063	62.9
204.444	66.43
204.824	75.93
205.204	84.85
205.585	86.35
205.965	74.44
206.345	74.73
206.725	62.37
207.106	57.34
207.486	55
207.866	37.75
208.246	46.83
208.626	53.4
209.006	73.21
209.386	84.13
209.766	94.68
210.145	82.8
210.525	89.82
210.905	67.58
211.285	58.01
211.664	38.52
212.044	38.19
212.424	35.7
212.803	21.32
213.183	21.12
213.562	24.67
213.942	35.99
214.321	31.26
214.701	38.33
215.08	48.22
215.459	62.73
215.838	71.2
216.218	67.16
216.597	52.94
216.976	37.76
217.355	43.62
217.734	43.79
218.113	50.07
218.492	57.88
218.871	57.64
219.25	62.83
219.629	67.09
220.008	61.67
220.387	60.9
220.766	67.37
221.144	64.71
221.523	60.86
221.902	49.11
222.28	45.91
222.659	42.75
223.037	38.43
223.416	33.08
223.794	27.69
224.173	17.62
224.551	37.36
224.929	38.36
225.308	32.3
225.686	33.28
226.064	31.37
226.442	22.16
226.821	27.49
227.199	23.66
227.577	23.94
227.955	19.25
228.333	13.68
228.711	13.63
229.089	17.3
229.467	16.47
229.845	18.83
230.222	16.26
230.6	16.23
230.978	16.57
231.356	15.78
231.733	16.92
232.111	17.36
232.488	16.51
232.866	16.52
233.243	14.7
233.621	14.29
233.998	14.55
234.376	13.76
234.753	12.05
235.13	12.09
235.508	11.55
235.885	12.24
236.262	11.8
236.639	10.41
237.016	8.15
237.393	8.56
237.77	8.57
238.147	9.2
238.524	9.07
238.901	8.9
239.278	9.62
239.655	9.77
240.032	10.12
240.409	8.77
240.785	8.55
241.162	8.7
241.539	9.01
241.915	8.17
242.292	8.37
242.668	8.18
243.045	7.99
243.421	7.63
243.798	7.73
244.174	7.62
244.551	7.71
244.927	7.68
245.303	7.6
245.679	7.49
246.056	7.46
246.432	7.22
246.808	7.13
247.184	6.55
247.56	6.12
247.936	5.77
248.312	5.84
248.688	5.71
249.064	5.53
249.44	5.14
249.815	5.21
250.191	5.17
250.567	5.29
250.943	5.22
251.318	5.3
251.694	5.09
252.069	4.96
252.445	4.85
252.82	4.88
253.196	4.71
253.571	4.63
253.947	4.81
254.322	5.22
254.697	5.04
255.073	5.35
255.448	5.31
255.823	5.51
256.198	5.71
256.573	5.83
256.948	6.12
257.323	6.29
257.698	6.2
258.073	6.34
258.448	6.2
258.823	6.15
259.198	6.14
259.573	6.15
259.948	6.18
260.322	6.24
260.697	6.31
261.072	6.39
261.446	6.32
261.821	6.2
262.195	6.02
262.57	6
262.944	5.82
263.319	5.87
263.693	5.84
264.067	5.93
264.442	6.13
264.816	6
265.19	6.06
265.564	6.06
265.938	5.73
266.313	5.77
266.687	5.93
267.061	5.99
267.435	6.09
267.809	6.25
268.183	5.94
268.556	5.61
268.93	5.52
269.304	5.46
269.678	5.44
270.051	5.41
270.425	5.58
270.799	5.71
271.172	5.76
271.546	5.65
271.919	5.46
272.293	5.17
272.666	5.23
273.04	5.18
273.413	5.31
273.787	5.46
274.16	5.47
274.533	5.52
274.906	5.5
275.279	5.37
275.653	5.17
276.026	5.32
276.399	5.53
276.772	5.73
277.145	5.76
277.518	5.89
277.891	5.8
278.263	5.67
278.636	5.7
279.009	5.73
279.382	5.83
279.755	5.77
280.127	5.85
280.5	5.72
280.872	5.73
281.245	5.67
281.617	5.75
281.99	5.82
282.362	5.65
282.735	5.53
283.107	5.58
283.479	5.56
283.852	5.55
284.224	5.49
284.596	5.39
284.968	5.32
285.34	5.23
285.713	5.26
286.085	5.2
286.457	5.3
286.829	5.29
287.201	5.41
287.572	5.41
287.944	5.45
288.316	5.5
288.688	5.43
289.06	5.42
289.431	5.38
289.803	5.24
290.175	5.25
290.546	5.36
290.918	5.37
291.289	5.52
291.661	5.51
292.032	5.49
292.403	5.47
292.775	5.59
293.146	5.62
293.517	5.67
293.889	5.81
294.26	5.78
294.631	5.7
295.002	5.61
295.373	5.69
295.744	5.81
296.115	5.84
296.486	5.81
296.857	5.83
297.228	5.94
297.599	5.92
297.97	6
298.34	6.06
298.711	6.04
299.082	5.99
299.452	6
299.823	6.08
300.194	6.01
300.564	6.01
300.935	6.04
301.305	6.05
301.676	6.12
302.046	6.08
302.416	6.19
302.787	6.2
303.157	6.17
303.527	6.12
303.897	6.06
304.267	6.19
304.637	6.25
305.008	6.2
305.378	6.27
305.748	6.39
306.117	6.39
306.487	6.44
306.857	6.47
307.227	6.61
307.597	6.63
307.967	6.69
308.336	6.67
308.706	6.62
309.076	6.63
309.445	6.51
309.815	6.44
310.184	6.45
310.554	6.47
310.923	6.46
311.293	6.5
311.662	6.65
312.031	6.63
312.401	6.55
312.77	6.52
313.139	6.52
313.508	6.45
313.877	6.39
314.246	6.43
314.616	6.37
314.985	6.3
315.353	6.28
315.722	6.21
316.091	6.09
316.46	6.1
316.829	6.19
317.198	6.21
317.567	6.29
317.935	6.21
318.304	6.2
318.672	6.23
319.041	6.16
319.41	6.06
319.778	6
320.147	6.1
320.515	6.07
320.883	6.04
321.252	6.07
321.62	6.11
321.988	6.13
322.357	6.23
322.725	6.3
323.093	6.27
323.461	6.35
323.829	6.47
324.197	6.42
324.565	6.33
324.933	6.34
325.301	6.36
325.669	6.39
326.037	6.28
326.405	6.35
326.772	6.43
327.14	6.4
327.508	6.37
327.875	6.26
328.243	6.28
328.61	6.35
328.978	6.19
329.346	6.13
329.713	5.92
330.08	6
330.448	5.88
330.815	5.87
331.182	5.83
331.55	5.77
331.917	5.85
332.284	5.85
332.651	5.78
333.018	5.77
333.385	5.82
333.752	5.78
334.119	5.74
334.486	5.63
334.853	5.54
335.22	5.57
335.587	5.6
335.954	5.58
336.32	5.48
336.687	5.66
337.054	5.73
337.42	5.92
337.787	5.86
338.153	5.94
338.52	5.9
338.886	5.87
339.253	5.86
339.619	5.76
339.986	5.85
340.352	5.86
340.718	5.86
341.084	5.87
341.451	6.04
341.817	6.01
342.183	6.01
342.549	6.06
342.915	6.1
343.281	6.13
343.647	6.13
344.013	6.27
344.379	6.22
344.745	6.11
345.11	6.04
345.476	6.02
345.842	5.94
346.208	6
346.573	6.09
346.939	6.04
347.304	6.08
347.67	5.99
348.035	6.03
348.401	5.97
348.766	5.94
349.132	5.78
349.497	5.75
349.862	5.8
350.228	5.89
350.593	5.82
350.958	5.74
351.323	5.8
351.688	5.73
352.053	5.73
352.418	5.76
352.783	5.79
353.148	5.84
353.513	5.87
353.878	5.85
354.243	5.89
354.608	6.05
354.972	6.03
355.337	6.03
355.702	6.05
356.066	6.15
356.431	6.12
356.795	6.25
357.16	6.2
357.524	6.17
357.889	6.14
358.253	6.2
358.618	6.27
358.982	6.2
359.346	6.15
359.71	6.07
360.075	6.06
360.439	6
360.803	5.97
361.167	5.91
361.531	5.88
361.895	5.79
362.259	5.73
362.623	5.77
362.987	5.81
363.351	5.8
363.714	5.71
364.078	5.72
364.442	5.66
364.806	5.66
365.169	5.63
365.533	5.64
365.896	5.63
366.26	5.56
366.623	5.56
366.987	5.52
367.35	5.56
367.714	5.57
368.077	5.56
368.44	5.48
368.803	5.56
369.167	5.49
369.53	5.54
369.893	5.57
370.256	5.53
370.619	5.52
370.982	5.5
371.345	5.53
371.708	5.55
372.071	5.54
372.434	5.56
372.797	5.6
373.159	5.55
373.522	5.57
373.885	5.65
374.247	5.66
374.61	5.67
374.973	5.63
375.335	5.62
375.698	5.64
376.06	5.67
376.423	5.68
376.785	5.74
377.147	5.75
377.51	5.73
377.872	5.81
378.234	5.77
378.596	5.76
378.958	5.72
379.321	5.68
379.683	5.67
380.045	5.62
380.407	5.57
380.769	5.63
381.13	5.61
381.492	5.58
381.854	5.57
382.216	5.57
382.578	5.58
382.939	5.54
383.301	5.53
383.663	5.58
384.024	5.54
384.386	5.59
384.747	5.56
385.109	5.63
385.47	5.55
385.832	5.55
386.193	5.56
386.554	5.59
386.916	5.59
387.277	5.58
387.638	5.61
387.999	5.64
388.36	5.59
388.721	5.57
389.082	5.56
389.443	5.5
389.804	5.5
390.165	5.49
390.526	5.52
390.887	5.5
391.248	5.49
391.609	5.46
391.969	5.45
392.33	5.44
392.691	5.39
393.051	5.41
393.412	5.38
393.772	5.38
394.133	5.37
394.493	5.39
394.854	5.4
395.214	5.41
395.574	5.37
395.935	5.36
396.295	5.38
396.655	5.35
397.015	5.41
397.376	5.42
397.736	5.43
398.096	5.45
398.456	5.46
398.816	5.42
399.176	5.4
399.535	5.37
399.895	5.33
400.255	5.35
400.615	5.35
400.975	5.36
401.334	5.34
401.694	5.34
402.054	5.34
402.413	5.34
402.773	5.33
403.132	5.34
403.492	5.37
403.851	5.34
404.211	5.36
404.57	5.32
404.929	5.32
405.288	5.3
405.648	5.26
406.007	5.28
406.366	5.28
406.725	5.32
407.084	5.33
407.443	5.35
407.802	5.33
408.161	5.3
408.52	5.3
408.879	5.31
409.238	5.34
409.596	5.33
409.955	5.33
410.314	5.33
410.673	5.31
411.031	5.28
411.39	5.29
411.748	5.29
412.107	5.3
412.465	5.31
412.824	5.32
413.182	5.32
413.54	5.32
413.899	5.32
414.257	5.32
414.615	5.31
414.974	5.33
415.332	5.35
415.69	5.33
416.048	5.33
416.406	5.32
416.764	5.29
417.122	5.31
417.48	5.28
417.838	5.29
418.195	5.3
418.553	5.3
418.911	5.29
419.269	5.28
419.626	5.26
419.984	5.25
420.342	5.25
420.699	5.25
421.057	5.23
421.414	5.23
421.772	5.23
422.129	5.24
422.486	5.23
422.844	5.21
423.201	5.21
423.558	5.21
423.915	5.21
424.273	5.23
424.63	5.22
424.987	5.23
425.344	5.22
425.701	5.22
426.058	5.24
426.415	5.24
426.772	5.23
427.128	5.23
427.485	5.23
427.842	5.23
428.199	5.23
428.555	5.22
428.912	5.22
429.269	5.19
429.625	5.18
429.982	5.17
430.338	5.19
430.695	5.18
431.051	5.16
431.407	5.15
431.764	5.13
432.12	5.1
432.476	5.1
432.832	5.09
433.189	5.07
433.545	5.06
433.901	5.06
434.257	5.07
434.613	5.08
434.969	5.07
435.325	5.07
435.681	5.09
436.036	5.1
436.392	5.11
436.748	5.13
437.104	5.14
437.459	5.13
437.815	5.13
438.171	5.15
438.526	5.15
438.882	5.16
439.237	5.16
439.593	5.17
439.948	5.17
440.304	5.17
440.659	5.18
441.014	5.18
441.369	5.18
441.725	5.17
442.08	5.18
442.435	5.19
442.79	5.19
443.145	5.18
443.5	5.16
443.855	5.14
444.21	5.13
444.565	5.12
444.92	5.14
445.275	5.13
445.629	5.12
445.984	5.12
446.339	5.11
446.693	5.11
447.048	5.11
447.403	5.1
447.757	5.09
448.112	5.08
448.466	5.09
448.82	5.09
449.175	5.09
449.529	5.06
449.883	5.06
450.238	5.06
450.592	5.05
450.946	5.07
451.3	5.09
451.654	5.07
452.008	5.08
452.362	5.05
452.716	5.04
453.07	5.04
453.424	5.06
453.778	5.06
454.132	5.06
454.486	5.05
454.839	5.04
455.193	5.04
455.547	5.03
455.9	5.03
456.254	5.02
456.607	5.05
456.961	5.07
457.314	5.06
457.668	5.07
458.021	5.07
458.375	5.08
458.728	5.07
459.081	5.08
459.434	5.08
459.787	5.11
460.141	5.11
460.494	5.11
460.847	5.11
461.2	5.1
461.553	5.13
461.906	5.15
462.259	5.17
462.611	5.18
462.964	5.22
463.317	5.22
463.67	5.24
464.022	5.25
464.375	5.24
464.728	5.26
465.08	5.26
465.433	5.26
465.785	5.24
466.138	5.26
466.49	5.25
466.843	5.24
467.195	5.23
467.547	5.26
467.899	5.28
468.252	5.26
468.604	5.27
468.956	5.25
469.308	5.22
469.66	5.23
470.012	5.24
470.364	5.22
470.716	5.22
471.068	5.24
471.42	5.22
471.772	5.24
472.123	5.24
472.475	5.25
472.827	5.25
473.178	5.28
473.53	5.28
473.882	5.31
474.233	5.32
474.585	5.32
474.936	5.32
475.288	5.29
475.639	5.29
475.99	5.27
476.342	5.28
476.693	5.28
477.044	5.28
477.395	5.27
477.746	5.27
478.097	5.26
478.448	5.24
478.8	5.25
479.15	5.23
479.501	5.22
479.852	5.21
480.203	5.23
480.554	5.24
480.905	5.23
481.255	5.24
481.606	5.25
481.957	5.27
482.307	5.27
482.658	5.28
483.009	5.29
483.359	5.3
483.709	5.3
484.06	5.3
484.41	5.31
484.761	5.31
485.111	5.32
485.461	5.32
485.811	5.33
486.162	5.33
486.512	5.33
486.862	5.34
487.212	5.34
487.562	5.34
487.912	5.34
488.262	5.35
488.612	5.34
488.961	5.33
489.311	5.32
489.661	5.31
490.011	5.31
490.36	5.31
490.71	5.31
491.06	5.32
491.409	5.32
491.759	5.32
492.108	5.32
492.458	5.32
492.807	5.32
493.157	5.33
493.506	5.34
493.855	5.34
494.204	5.33
494.554	5.35
494.903	5.33
495.252	5.32
495.601	5.33
495.95	5.33
496.299	5.35
496.648	5.34
496.997	5.35
497.346	5.37
497.695	5.38
498.043	5.39
498.392	5.38
498.741	5.4
499.09	5.41
499.438	5.43
499.787	5.45
500.135	5.46
500.484	5.46
500.832	5.45
501.181	5.45
501.529	5.45
501.878	5.46
502.226	5.48
502.574	5.51
502.923	5.5
503.271	5.51
503.619	5.51
503.967	5.55
504.315	5.55
504.663	5.56
505.011	5.55
505.359	5.54
505.707	5.56
506.055	5.57
506.403	5.57
506.751	5.56
507.098	5.55
507.446	5.56
507.794	5.56
508.141	5.58
508.489	5.62
508.837	5.64
509.184	5.63
509.531	5.63
509.879	5.65
510.226	5.68
510.574	5.69
510.921	5.72
511.268	5.71
511.616	5.72
511.963	5.73
512.31	5.73
512.657	5.73
513.004	5.73
513.351	5.75
513.698	5.74
514.045	5.74
514.392	5.76
514.739	5.76
515.086	5.75
515.432	5.75
515.779	5.75
516.126	5.77
516.473	5.79
516.819	5.81
517.166	5.8
517.512	5.79
517.859	5.79
518.205	5.76
518.552	5.79
518.898	5.79
519.245	5.8
519.591	5.81
519.937	5.81
520.283	5.81
520.629	5.81
520.976	5.82
521.322	5.85
521.668	5.83
522.014	5.83
522.36	5.85
522.706	5.85
523.052	5.87
523.398	5.88
523.743	5.89
524.089	5.9
524.435	5.9
524.781	5.92
525.126	5.93
525.472	5.94
525.817	5.94
526.163	5.94
526.509	5.93
526.854	5.94
527.199	5.96
527.545	5.96
527.89	5.97
528.235	5.99
528.581	5.99
528.926	6.01
529.271	6.03
529.616	6.03
529.961	6.03
530.306	6.04
530.651	6.03
530.996	6.03
531.341	6.02
531.686	6.03
532.031	6.03
532.376	6.04
532.721	6.05
533.065	6.06
533.41	6.06
533.755	6.07
534.099	6.08
534.444	6.08
534.788	6.09
535.133	6.09
535.477	6.08
535.822	6.07
536.166	6.07
536.51	6.07
536.855	6.08
537.199	6.1
537.543	6.1
537.887	6.13
538.231	6.12
538.576	6.14
538.92	6.15
539.264	6.14
539.608	6.16
539.951	6.16
540.295	6.17
540.639	6.19
540.983	6.19
541.327	6.2
541.671	6.2
542.014	6.21
542.358	6.23
542.701	6.24
543.045	6.26
543.389	6.28
543.732	6.28
544.075	6.29
544.419	6.29
544.762	6.31
545.105	6.31
545.449	6.34
545.792	6.36
546.135	6.38
546.478	6.41
546.821	6.43
547.165	6.43
547.508	6.43
547.851	6.42
548.194	6.44
548.536	6.44
548.879	6.47
549.222	6.46
549.565	6.47
549.908	6.49
550.25	6.51
550.593	6.52
550.936	6.54
551.278	6.56
551.621	6.56
551.963	6.57
552.306	6.56
552.648	6.56
552.991	6.59
553.333	6.57
553.675	6.53
554.017	6.51
554.36	6.53
554.702	6.57
555.044	6.61
555.386	6.63
555.728	6.66
556.07	6.66
556.412	6.67
556.754	6.69
557.096	6.68
557.438	6.67
557.78	6.68
558.121	6.7
558.463	6.7
558.805	6.72
559.147	6.72
559.488	6.75
559.83	6.75
560.171	6.75
560.513	6.78
560.854	6.81
561.196	6.82
561.537	6.82
561.878	6.81
562.22	6.82
562.561	6.84
562.902	6.87
563.243	6.87
563.584	6.88
563.925	6.89
564.266	6.9
564.607	6.91
564.948	6.9
565.289	6.9
565.63	6.92
565.971	6.92
566.312	6.96
566.653	6.95
566.993	6.96
567.334	6.95
567.675	6.95
568.015	6.96
568.356	6.97
568.696	7.02
569.037	7.05
569.377	7.05
569.718	7.06
570.058	7.05
570.398	7.06
570.739	7.07
571.079	7.08
571.419	7.1
571.759	7.12
572.099	7.12
572.439	7.12
572.779	7.12
573.119	7.15
573.459	7.17
573.799	7.2
574.139	7.2
574.479	7.23
574.819	7.24
575.158	7.28
575.498	7.29
575.838	7.29
576.177	7.28
576.517	7.27
576.856	7.27
577.196	7.27
577.535	7.25
577.875	7.26
578.214	7.28
578.553	7.32
578.893	7.31
579.232	7.32
579.571	7.34
579.91	7.34
580.25	7.34
580.589	7.3
580.928	7.29
581.267	7.34
581.606	7.36
581.945	7.37
582.283	7.37
582.622	7.39
582.961	7.36
583.3	7.34
583.639	7.38
583.977	7.39
584.316	7.41
584.654	7.44
584.993	7.44
585.332	7.4
585.67	7.36
586.008	7.37
586.347	7.39
586.685	7.38
587.024	7.39
587.362	7.4
587.7	7.41
588.038	7.45
588.376	7.45
588.715	7.42
589.053	7.45
589.391	7.45
589.729	7.47
590.067	7.47
590.404	7.52
590.742	7.51
591.08	7.51
591.418	7.48
591.756	7.51
592.093	7.52
592.431	7.6
592.769	7.62
593.106	7.6
593.444	7.59
593.781	7.58
594.119	7.62
594.456	7.6
594.793	7.59
595.131	7.56
595.468	7.57
595.805	7.6
596.143	7.57
596.48	7.55
596.817	7.53
597.154	7.53
597.491	7.54
597.828	7.55
598.165	7.55
598.502	7.55
598.839	7.58
599.176	7.57
599.512	7.52
599.849	7.52
600.186	7.55
600.523	7.58
600.859	7.61
601.196	7.58
601.532	7.6
601.869	7.61
602.205	7.61
602.542	7.64
602.878	7.62
603.215	7.66
603.551	7.69
603.887	7.67
604.223	7.71
604.56	7.73
604.896	7.74
605.232	7.75
605.568	7.77
605.904	7.74
606.24	7.75
606.576	7.76
606.912	7.77
607.248	7.77
607.583	7.75
607.919	7.75
608.255	7.76
608.591	7.8
608.926	7.82
609.262	7.83
609.597	7.81
609.933	7.81
610.268	7.78
610.604	7.77
610.939	7.81
611.275	7.8
611.61	7.75
611.945	7.79
612.281	7.79
612.616	7.8
612.951	7.8
613.286	7.83
613.621	7.85
613.956	7.9
614.291	7.87
614.626	7.85
614.961	7.84
615.296	7.81
615.631	7.79
615.966	7.77
616.3	7.77
616.635	7.77
616.97	7.74
617.304	7.75
617.639	7.73
617.973	7.71
618.308	7.72
618.642	7.75
618.977	7.69
619.311	7.72
619.646	7.73
619.98	7.74
620.314	7.73
620.648	7.74
620.983	7.69
621.317	7.74
621.651	7.82
621.985	7.86
622.319	7.88
622.653	7.9
622.987	7.93
623.321	7.93
623.655	7.92
623.988	8
624.322	7.99
624.656	8.09
624.99	8.07
625.323	8.08
625.657	8.08
625.99	8.08
626.324	8.09
626.657	8.1
626.991	8.09
627.324	8.1
627.658	8.12
627.991	8.15
628.324	8.14
628.657	8.08
628.991	8.01
629.324	8.04
629.657	7.97
629.99	7.98
630.323	7.98
630.656	7.99
630.989	8
631.322	8.04
631.655	7.98
631.987	8.03
632.32	8.04
632.653	8.03
632.986	8.06
633.318	8.01
633.651	7.97
633.984	7.98
634.316	7.99
634.649	8
634.981	7.95
635.313	7.92
635.646	7.96
635.978	7.99
636.31	8.01
636.643	8.07
636.975	8.08
637.307	8.09
637.639	8.08
637.971	8.07
638.303	8.02
638.635	7.98
638.967	7.99
639.299	8.03
639.631	8.07
639.963	8.01
640.295	8.1
640.626	8.19
640.958	8.23
641.29	8.19
641.621	8.16
641.953	8.25
642.285	8.31
642.616	8.31
642.948	8.3
643.279	8.29
643.61	8.23
643.942	8.2
644.273	8.25
644.604	8.35
644.936	8.27
645.267	8.3
645.598	8.37
645.929	8.31
646.26	8.32
646.591	8.31
646.922	8.3
647.253	8.25
647.584	8.22
647.915	8.19
648.245	8.23
648.576	8.26
648.907	8.25
649.238	8.26
649.568	8.3
649.899	8.36
650.229	8.38
650.56	8.43
650.89	8.47
651.221	8.45
651.551	8.41
651.882	8.46
652.212	8.52
652.542	8.47
652.872	8.5
653.203	8.51
653.533	8.59
653.863	8.59
654.193	8.6
654.523	8.58
654.853	8.57
655.183	8.64
655.513	8.61
655.843	8.58
656.172	8.59
656.502	8.64
656.832	8.62
657.162	8.61
657.491	8.67
657.821	8.58
658.15	8.58
658.48	8.53
658.809	8.51
659.139	8.48
659.468	8.52
659.798	8.57
660.127	8.56
660.456	8.5
660.785	8.54
661.115	8.53
661.444	8.55
661.773	8.54
662.102	8.49
662.431	8.54
662.76	8.55
663.089	8.55
663.418	8.52
663.747	8.52
664.076	8.48
664.404	8.47
664.733	8.59
665.062	8.58
665.39	8.56
665.719	8.52
666.048	8.55
666.376	8.54
666.705	8.51
667.033	8.45
667.362	8.46
667.69	8.44
668.018	8.49
668.347	8.53
668.675	8.62
669.003	8.64
669.331	8.64
669.659	8.62
669.987	8.68
670.315	8.7
670.643	8.73
670.971	8.85
671.299	8.86
671.627	8.83
671.955	8.83
672.283	8.91
672.61	8.95
672.938	8.94
673.266	9.06
673.593	9.11
673.921	9.19
674.249	9.27
674.576	9.33
674.904	9.3
675.231	9.26
675.558	9.17
675.886	9.22
676.213	9.24
676.54	9.27
676.867	9.25
677.195	9.21
677.522	9.23
677.849	9.2
678.176	9.12
678.503	9.2
678.83	9.18
679.157	9.14
679.484	9.21
679.81	9.27
680.137	9.17
680.464	9.08
680.791	9.01
681.117	8.92
681.444	8.92
681.771	8.93
682.097	8.97
682.424	9.05
682.75	9.02
683.077	8.99
683.403	9.03
683.729	8.95
684.056	9.02
684.382	8.97
684.708	8.99
685.034	9.05
685.36	8.94
685.686	8.9
686.012	8.9
686.339	9
686.664	8.99
686.99	9
687.316	9.09
687.642	9.21
687.968	9.24
688.294	9.18
688.619	9.2
688.945	9.25
689.271	9.15
689.596	9.18
689.922	9.16
690.247	9.07
690.573	9.15
690.898	9.21
691.224	9.28
691.549	9.27
691.874	9.39
692.2	9.46
692.525	9.53
692.85	9.62
693.175	9.55
693.5	9.6
693.825	9.65
694.15	9.62
694.475	9.61
694.8	9.74
695.125	9.83
695.45	9.89
695.775	9.75
696.099	9.8
696.424	9.74
696.749	9.73
697.073	9.74
697.398	9.77
697.723	9.69
698.047	9.66
698.372	9.68
698.696	9.59
699.02	9.61
699.345	9.61
699.669	9.68
699.993	9.66
700.318	9.61
700.642	9.65
700.966	9.63
701.29	9.68
701.614	9.64
701.938	9.68
702.262	9.69
702.586	9.81
702.91	9.81
703.234	9.82
703.557	9.84
703.881	10
704.205	10.02
704.529	10.06
704.852	10.15
705.176	10.13
705.499	10.2
705.823	10.21
706.146	10.22
706.47	10.08
706.793	10.2
707.117	10.06
707.44	10.01
707.763	10.01
708.086	9.84
708.409	9.83
708.733	9.77
709.056	9.75
709.379	9.77
709.702	9.72
710.025	9.81
710.348	9.84
710.671	9.68
710.993	9.7
711.316	9.69
711.639	9.71
711.962	9.78
712.284	9.81
712.607	9.82
712.93	9.93
713.252	10.01
713.575	9.95
713.897	10.05
714.22	9.95
714.542	9.99
714.864	9.95
715.187	9.92
715.509	10
715.831	10.07
716.153	10.11
716.475	10.24
716.798	10.29
717.12	10.22
717.442	10.43
717.764	10.4
718.085	10.33
718.407	10.24
718.729	10.22
719.051	10.28
719.373	10.23
719.695	10.16
720.016	10.19
720.338	10.07
720.659	10.16
720.981	10.2
721.302	10.28
721.624	10.43
721.945	10.47
722.267	10.39
722.588	10.26
722.909	10.15
723.231	10.15
723.552	10
723.873	10.17
724.194	9.98
724.515	10.12
724.836	10.2
725.157	10.27
725.478	10.15
725.799	9.97
726.12	9.98
726.441	9.98
726.762	9.94
727.083	10.06
727.403	9.96
727.724	10.2
728.045	10.13
728.365	10.13
728.686	10.11
729.006	10.28
729.327	10.19
729.647	10.23
729.967	10.23
730.288	10.22
730.608	10.21
730.928	10.18
731.249	9.99
731.569	10.14
731.889	10.11
732.209	10.16
732.529	10.2
732.849	10.39
733.169	10.45
733.489	10.47
733.809	10.38
734.129	10.48
734.448	10.51
734.768	10.62
735.088	10.67
735.408	10.62
735.727	10.5
736.047	10.72
736.366	10.77
736.686	10.67
737.005	10.78
737.325	10.85
737.644	10.95
737.963	11.13
738.283	10.99
738.602	11.12
738.921	11.17
739.24	11.21
739.56	11.13
739.879	10.95
740.198	11.12
740.517	11.18
740.836	11.17
741.155	11.03
741.473	11.08
741.792	11.14
742.111	11.29
742.43	11.67
742.748	11.58
743.067	11.73
743.386	11.89
743.704	11.84
744.023	11.79
744.341	11.74
744.66	11.85
744.978	11.76
745.297	11.68
745.615	11.84
745.933	11.92
746.252	11.91
746.57	12.25
746.888	11.93
747.206	12.08
747.524	12.08
747.842	12.21
748.16	12.21
748.478	12.23
748.796	12.31
749.114	12.09
749.432	12.24
749.749	12.12
750.067	12.23
750.385	12.35
750.703	12.43
751.02	12.63
751.338	12.4
751.655	12.34
751.973	12.49
752.29	12.33
752.608	12.28
752.925	12.4
753.242	12.27
753.56	12.45
753.877	12.45
754.194	12.42
754.511	12.58
754.828	12.58
755.145	12.31
755.462	12.29
755.779	12.07
756.096	11.95
756.413	12.17
756.73	12.17
757.047	12.07
757.364	12
757.68	11.87
757.997	12.04
758.314	12.23
758.63	12.09
758.947	12.11
759.264	12.16
759.58	11.98
759.896	12.03
760.213	12.17
760.529	12.09
760.846	12.12
761.162	11.89
761.478	11.85
761.794	12.16
762.11	12.1
762.426	12.3
762.743	12.27
763.059	12.13
763.375	12.11
763.69	12.31
764.006	12.51
764.322	12.57
764.638	12.55
764.954	12.72
765.27	12.73
765.585	12.89
765.901	12.97
766.216	13.03
766.532	12.97
766.848	12.95
767.163	13.13
767.478	13.2
767.794	13.26
768.109	13.3
768.424	13.17
768.74	13.42
769.055	13.39
769.37	13.55
769.685	13.4
770	13.52
770.315	13.19
770.63	12.97
770.945	12.93
771.26	12.86
771.575	12.58
771.89	12.67
772.205	12.66
772.52	12.32
772.834	12.61
773.149	12.68
773.464	12.49
773.778	12.58
774.093	12.18
774.407	12.14
774.722	12.14
775.036	12.44
775.351	12.17
775.665	12.09
775.979	12.15
776.293	12.31
776.608	11.91
776.922	12.17
777.236	12.3
777.55	12.23
777.864	12.42
778.178	12.62
778.492	12.59
778.806	12.58
779.12	13.22
779.434	12.99
779.747	13.22
780.061	13.5
780.375	13.38
780.689	13.66
781.002	14.23
781.316	14.6
781.629	14.49
781.943	14.78
782.256	14.81
782.57	14.46
782.883	14.47
783.196	14.63
783.51	14.27
783.823	14.48
784.136	14.57
784.449	14.3
784.762	14.18
785.075	14.35
785.388	14.33
785.701	14.05
786.014	13.92
786.327	13.55
786.64	13.84
786.953	13.77
787.266	13.89
787.578	13.69
787.891	13.25
788.204	13.12
788.516	12.94
788.829	12.83
789.141	13.14
789.454	12.94
789.766	13.47
790.079	13.73
790.391	13.38
790.703	13.49
791.016	13.72
791.328	13.93
791.64	13.75
791.952	13.84
792.264	13.73
792.576	13.69
792.888	13.82
793.2	13.79
793.512	13.66
793.824	13.4
794.136	13.18
794.448	13.04
794.76	13.09
795.071	12.92
795.383	13.08
795.695	12.75
796.006	13.02
796.318	12.47
796.629	12.77
796.941	13.07
797.252	13.22
797.564	13.2
797.875	13.62
798.186	13.76
798.497	13.61
798.809	13.45
799.12	13.35
799.431	13.44
799.742	12.95
800.053	13.08
800.364	13.56
800.675	13.22
800.986	13.83
801.297	14.02
801.608	13.77
801.918	13.84
802.229	14.38
802.54	14.35
802.851	14.33
803.161	13.96
803.472	14.01
803.782	14.03
804.093	14.39
804.403	14.12
804.714	14.04
805.024	14.05
805.334	14.36
805.645	15.31
805.955	15.35
806.265	16.1
806.575	16.09
806.885	15.89
807.195	16.2
807.505	15.87
807.815	15.52
808.125	16.24
808.435	16.2
808.745	16.16
809.055	16.8
809.365	16.95
809.674	16.7
809.984	16.54
810.294	16.89
810.603	16.85
810.913	17.11
811.222	17.12
811.532	16.68
811.841	17.14
812.151	16.83
812.46	17.74
812.769	17.17
813.079	17.18
813.388	17.61
813.697	17.33
814.006	17.23
814.315	16.67
814.624	16.34
814.933	16.29
815.242	16.08
815.551	16.07
815.86	16.14
816.169	16.37
816.478	15.75
816.786	15.09
817.095	14.95
817.404	14.68
817.712	14.83
818.021	15.3
818.33	14.69
818.638	14.69
818.947	14.05
819.255	14.15
819.563	14.33
819.872	14.15
820.18	14.33
820.488	14.44
820.796	14.93
821.105	14.77
821.413	14.68
821.721	14.91
822.029	14.72
822.337	14.81
822.645	14.84
822.953	14.94
823.26	15.08
823.568	14.82
823.876	14.65
824.184	14.61
824.491	14.71
824.799	14.76
825.107	14.65
825.414	14.73
825.722	14.85
826.029	14.82
826.337	14.93
826.644	15
826.951	14.97
827.259	14.91
827.566	14.91
827.873	14.99
828.18	14.92
828.488	14.87
828.795	14.74
829.102	14.69
829.409	14.82
829.716	14.85
830.023	15.23
830.329	15.51
830.636	15.56
830.943	15.58
831.25	15.69
831.557	15.99
831.863	15.88
832.17	15.53
832.476	15.67
832.783	15.81
833.089	15.68
833.396	15.91
833.702	15.72
834.009	16
834.315	16.41
834.621	16.47
834.928	16.42
835.234	16.21
835.54	16.23
835.846	16.31
836.152	15.94
836.458	16.22
836.764	16.28
837.07	16.44
837.376	16.4
837.682	16.15
837.988	15.98
838.293	15.89
838.599	16.4
838.905	16.41
839.211	15.71
839.516	16.37
839.822	16.34
840.127	16.84
840.433	16.99
840.738	16.72
841.044	16.88
841.349	18.35
841.654	19.85
841.959	20.74
842.265	20.91
842.57	21.56
842.875	20.87
843.18	21.14
843.485	21.26
843.79	20.57
844.095	21.79
844.4	22.82
844.705	22.8
845.01	21.83
845.315	20.82
845.619	21.03
845.924	20.27
846.229	20.22
846.533	19.86
846.838	20.76
847.142	20.36
847.447	19.34
847.751	16.92
848.056	16.28
848.36	16.5
848.664	16.13
848.969	15.6
849.273	14.23
849.577	14.31
849.881	14.36
850.185	15.63
850.489	15.03
850.794	12.74
851.097	12.54
851.401	14.17
851.705	15.47
852.009	17.74
852.313	18.15
852.617	19.14
852.92	19.9
853.224	19.36
853.528	20.1
853.831	20.8
854.135	22.09
854.438	21.15
854.742	19.41
855.045	21.61
855.349	22.52
855.652	23.2
855.955	22.33
856.259	23.04
856.562	20.41
856.865	19.96
857.168	20.85
857.471	23.43
857.774	22.94
858.077	23.07
858.38	21.74
858.683	20.76
858.986	21.72
859.289	23.16
859.592	22.77
859.894	23.58
860.197	24.01
860.5	23.2
860.802	24.36
861.105	25.47
861.407	23.44
861.71	21.58
862.012	22.46
862.315	21.43
862.617	20.6
862.919	23.08
863.222	23.13
863.524	23.25
863.826	22.42
864.128	22.57
864.43	21.78
864.732	22.44
865.034	24.06
865.336	22.12
865.638	20.53
865.94	20.77
866.242	20.6
866.544	19.04
866.846	20.48
867.147	20.41
867.449	20.53
867.751	21.52
868.052	21.81
868.354	23.2
868.655	23.8
868.957	22.39
869.258	22.2
869.56	20.87
869.861	20.4
870.162	20.4
870.463	17.98
870.765	18.74
871.066	19.68
871.367	19.63
871.668	19.51
871.969	21.54
872.27	21.82
872.571	21.18
872.872	22.65
873.173	20.59
873.473	21.49
873.774	22.6
874.075	20.73
874.376	23.43
874.676	22.75
874.977	23.56
875.277	25.99
875.578	26.26
875.878	27.98
876.179	29.12
876.479	29.3
876.78	31.94
877.08	32.23
877.38	31.16
877.68	30.56
877.981	31.81
878.281	28.49
878.581	28.3
