Data from BA28524_Reflection_00012.txt Node
Date: Tue Nov 19 11:49:57 EST 2019
User: vgr7
Spectrometer: USB2G7710
Scans to average: 3
Trigger mode: 4
Integration Time (sec): 2.000000E-2
Electric dark correction enabled: true
Boxcar width: 10
XAxis mode: Wavelengths
Number of Pixels in Spectrum: 2048
>>>>>Begin Spectral Data<<<<<
177.721	-620.66
178.105	62.96
178.488	-121.09
178.871	366.67
179.254	511.11
179.636	2123.81
180.019	-6.06
180.402	117.65
180.785	154.67
181.168	516.67
181.55	252.58
181.933	196.74
182.316	108.69
182.698	153.81
183.081	37.58
183.463	-8.14
183.846	28.87
184.228	84.02
184.611	10.26
184.993	-37.04
185.376	-89.27
185.758	-1733.33
186.14	-133.33
186.522	-3955.56
186.904	1533.33
187.287	254.09
187.669	92.06
188.051	21.27
188.433	71.18
188.815	28.34
189.197	27
189.579	52.15
189.961	1.56
190.342	-36.62
190.724	-39.52
191.106	-41.94
191.488	-87.01
191.869	6.04
192.251	57.02
192.633	5.36
193.014	43.17
193.396	100.83
193.777	109.64
194.159	83.99
194.54	87
194.922	64.87
195.303	146.67
195.684	225.34
196.065	252.66
196.447	499.22
196.828	894.57
197.209	360.19
197.59	467.21
197.971	1151.91
198.352	642.04
198.733	751.52
199.114	1103.4
199.495	684.25
199.876	712.99
200.257	454.46
200.638	847.86
201.018	-1498.04
201.399	172.77
201.78	125.56
202.16	149.43
202.541	85.32
202.922	382.95
203.302	-99.19
203.683	377.78
204.063	-111.11
204.444	182.38
204.824	148.72
205.204	258.12
205.585	29.87
205.965	-30.24
206.345	-36.68
206.725	17.82
207.106	58.81
207.486	101.01
207.866	109.3
208.246	111.19
208.626	89.54
209.006	78.94
209.386	86.31
209.766	55.78
210.145	92.98
210.525	146.24
210.905	83.94
211.285	67.14
211.664	71.49
212.044	73.53
212.424	72.91
212.803	78.58
213.183	72.3
213.562	94.36
213.942	100.46
214.321	129.06
214.701	121.62
215.08	70.35
215.459	13.96
215.838	-6.91
216.218	-21.16
216.597	10.32
216.976	6.68
217.355	20.9
217.734	-12.84
218.113	-47.74
218.492	-49.49
218.871	-51.48
219.25	-68.09
219.629	-64.55
220.008	-76.61
220.387	-76.28
220.766	-48.59
221.144	-57.66
221.523	-58.7
221.902	-51.14
222.28	-39.41
222.659	-23.81
223.037	-16.65
223.416	-9.41
223.794	3.5
224.173	1.51
224.551	-2.16
224.929	-5.88
225.308	-1.97
225.686	3.62
226.064	-0.21
226.442	7.22
226.821	6.16
227.199	12.64
227.577	12.17
227.955	12.71
228.333	11.87
228.711	14.22
229.089	15.05
229.467	9.88
229.845	7.08
230.222	6.7
230.6	4.7
230.978	6.23
231.356	6.29
231.733	3.28
232.111	3.1
232.488	5.02
232.866	6.81
233.243	6.49
233.621	6.92
233.998	8.15
234.376	5.95
234.753	4.55
235.13	5.54
235.508	5.41
235.885	5.76
236.262	4.45
236.639	1.21
237.016	-0.97
237.393	1.97
237.77	3.45
238.147	3.91
238.524	4.04
238.901	4.31
239.278	3.45
239.655	3.59
240.032	4.28
240.409	3.08
240.785	3.18
241.162	3.52
241.539	3.46
241.915	3.55
242.292	3.87
242.668	4.25
243.045	4.56
243.421	4.62
243.798	4.96
244.174	5.18
244.551	5.05
244.927	5.19
245.303	4.72
245.679	4.89
246.056	5.02
246.432	5.49
246.808	5.6
247.184	5.7
247.56	5.81
247.936	5.54
248.312	6.01
248.688	6
249.064	5.77
249.44	5.77
249.815	5.83
250.191	5.89
250.567	6.18
250.943	6.05
251.318	6.25
251.694	5.91
252.069	6.06
252.445	6.34
252.82	6.73
253.196	7.04
253.571	6.99
253.947	6.83
254.322	6.73
254.697	6.55
255.073	6.53
255.448	6.58
255.823	6.64
256.198	6.5
256.573	6.32
256.948	6.1
257.323	6.28
257.698	6.2
258.073	6.16
258.448	5.93
258.823	5.59
259.198	5.47
259.573	5.38
259.948	5.5
260.322	5.48
260.697	5.52
261.072	5.5
261.446	5.3
261.821	5.3
262.195	5.22
262.57	5.09
262.944	5
263.319	4.87
263.693	4.81
264.067	4.6
264.442	4.72
264.816	4.83
265.19	4.69
265.564	4.52
265.938	4.6
266.313	4.59
266.687	4.68
267.061	4.55
267.435	4.69
267.809	4.42
268.183	4.37
268.556	4.02
268.93	4.11
269.304	4.07
269.678	4.24
270.051	4.21
270.425	4.24
270.799	4.19
271.172	4.18
271.546	4.23
271.919	4.42
272.293	4.33
272.666	4.36
273.04	4.19
273.413	4.4
273.787	4.26
274.16	4.29
274.533	4.39
274.906	4.55
275.279	4.5
275.653	4.65
276.026	4.59
276.399	4.73
276.772	4.67
277.145	4.82
277.518	4.61
277.891	4.56
278.263	4.6
278.636	4.82
279.009	4.93
279.382	4.92
279.755	4.88
280.127	5.05
280.5	5.04
280.872	5.25
281.245	5.08
281.617	5.2
281.99	5.06
282.362	5.08
282.735	4.94
283.107	4.91
283.479	4.82
283.852	5.19
284.224	5.32
284.596	5.35
284.968	5.3
285.34	5.33
285.713	5.5
286.085	5.43
286.457	5.39
286.829	5.26
287.201	5.42
287.572	5.53
287.944	5.6
288.316	5.64
288.688	5.79
289.06	5.97
289.431	5.93
289.803	6.13
290.175	6.19
290.546	6.44
290.918	6.57
291.289	6.64
291.661	6.5
292.032	6.52
292.403	6.5
292.775	6.75
293.146	6.88
293.517	6.78
293.889	6.91
294.26	7.1
294.631	7.22
295.002	7.28
295.373	7.11
295.744	6.84
296.115	6.86
296.486	6.81
296.857	6.75
297.228	6.73
297.599	6.64
297.97	6.7
298.34	6.58
298.711	6.72
299.082	6.73
299.452	6.72
299.823	6.69
300.194	6.77
300.564	6.72
300.935	6.74
301.305	6.8
301.676	6.83
302.046	6.71
302.416	6.73
302.787	6.57
303.157	6.69
303.527	7.16
303.897	7.09
304.267	7.15
304.637	7.11
305.008	7.19
305.378	7.33
305.748	7.32
306.117	7.25
306.487	7.28
306.857	7.47
307.227	7.55
307.597	7.66
307.967	7.77
308.336	7.67
308.706	7.65
309.076	7.73
309.445	7.77
309.815	7.88
310.184	7.94
310.554	8
310.923	7.95
311.293	7.76
311.662	7.96
312.031	7.88
312.401	7.87
312.77	7.96
313.139	7.88
313.508	7.97
313.877	8.08
314.246	7.98
314.616	7.97
314.985	7.98
315.353	8.04
315.722	8.16
316.091	8.27
316.46	8.29
316.829	8.12
317.198	8.02
317.567	8
317.935	7.93
318.304	8.13
318.672	8.34
319.041	8.45
319.41	8.41
319.778	8.47
320.147	8.63
320.515	8.64
320.883	8.73
321.252	8.66
321.62	8.54
321.988	8.63
322.357	8.47
322.725	8.62
323.093	8.63
323.461	8.47
323.829	8.4
324.197	8.47
324.565	8.69
324.933	8.79
325.301	8.65
325.669	8.73
326.037	8.55
326.405	8.53
326.772	8.46
327.14	8.28
327.508	8.27
327.875	8.29
328.243	8.18
328.61	8.16
328.978	8.11
329.346	8.32
329.713	8.38
330.08	8.47
330.448	8.44
330.815	8.5
331.182	8.56
331.55	8.51
331.917	8.4
332.284	8.41
332.651	8.37
333.018	8.49
333.385	8.38
333.752	8.35
334.119	8.37
334.486	8.52
334.853	8.62
335.22	8.64
335.587	8.58
335.954	8.67
336.32	8.59
336.687	8.73
337.054	8.65
337.42	8.45
337.787	8.52
338.153	8.35
338.52	8.35
338.886	8.11
339.253	8.17
339.619	8.22
339.986	7.99
340.352	8.04
340.718	8.01
341.084	7.98
341.451	8.06
341.817	7.95
342.183	7.65
342.549	7.66
342.915	7.64
343.281	7.7
343.647	7.66
344.013	7.62
344.379	7.6
344.745	7.62
345.11	7.77
345.476	7.82
345.842	7.89
346.208	7.9
346.573	8.07
346.939	8.1
347.304	8.18
347.67	8.36
348.035	8.37
348.401	8.38
348.766	8.46
349.132	8.41
349.497	8.5
349.862	8.61
350.228	8.52
350.593	8.55
350.958	8.57
351.323	8.62
351.688	8.75
352.053	8.65
352.418	8.68
352.783	8.6
353.148	8.52
353.513	8.49
353.878	8.4
354.243	8.36
354.608	8.35
354.972	8.25
355.337	8.15
355.702	8.07
356.066	7.99
356.431	7.95
356.795	8.03
357.16	8.01
357.524	8.04
357.889	8.12
358.253	8.05
358.618	8
358.982	7.89
359.346	7.81
359.71	7.72
360.075	7.61
360.439	7.6
360.803	7.57
361.167	7.45
361.531	7.4
361.895	7.27
362.259	7.29
362.623	7.26
362.987	7.33
363.351	7.28
363.714	7.28
364.078	7.33
364.442	7.26
364.806	7.18
365.169	7.15
365.533	7.2
365.896	7.17
366.26	7.2
366.623	7.21
366.987	7.19
367.35	7.28
367.714	7.3
368.077	7.29
368.44	7.26
368.803	7.31
369.167	7.33
369.53	7.46
369.893	7.43
370.256	7.37
370.619	7.24
370.982	7.28
371.345	7.28
371.708	7.21
372.071	7.01
372.434	6.99
372.797	6.96
373.159	6.73
373.522	6.61
373.885	6.49
374.247	6.43
374.61	6.39
374.973	6.3
375.335	6.27
375.698	6.16
376.06	6.11
376.423	6.13
376.785	6.07
377.147	6
377.51	5.98
377.872	5.99
378.234	5.98
378.596	5.94
378.958	5.95
379.321	5.88
379.683	5.96
380.045	5.9
380.407	5.87
380.769	5.93
381.13	5.96
381.492	5.91
381.854	5.89
382.216	5.91
382.578	5.91
382.939	5.9
383.301	5.93
383.663	5.87
384.024	5.79
384.386	5.75
384.747	5.73
385.109	5.67
385.47	5.66
385.832	5.63
386.193	5.53
386.554	5.41
386.916	5.43
387.277	5.41
387.638	5.46
387.999	5.43
388.36	5.39
388.721	5.42
389.082	5.48
389.443	5.49
389.804	5.47
390.165	5.41
390.526	5.38
390.887	5.33
391.248	5.28
391.609	5.29
391.969	5.25
392.33	5.23
392.691	5.19
393.051	5.15
393.412	5.13
393.772	5.16
394.133	5.19
394.493	5.17
394.854	5.15
395.214	5.14
395.574	5.09
395.935	5.06
396.295	4.99
396.655	4.94
397.015	4.87
397.376	4.84
397.736	4.82
398.096	4.78
398.456	4.79
398.816	4.79
399.176	4.75
399.535	4.74
399.895	4.71
400.255	4.71
400.615	4.73
400.975	4.73
401.334	4.71
401.694	4.7
402.054	4.7
402.413	4.65
402.773	4.6
403.132	4.6
403.492	4.62
403.851	4.63
404.211	4.61
404.57	4.63
404.929	4.6
405.288	4.62
405.648	4.64
406.007	4.66
406.366	4.65
406.725	4.64
407.084	4.67
407.443	4.67
407.802	4.65
408.161	4.62
408.52	4.64
408.879	4.68
409.238	4.67
409.596	4.64
409.955	4.67
410.314	4.68
410.673	4.69
411.031	4.68
411.39	4.68
411.748	4.69
412.107	4.68
412.465	4.67
412.824	4.63
413.182	4.6
413.54	4.58
413.899	4.59
414.257	4.58
414.615	4.56
414.974	4.55
415.332	4.56
415.69	4.52
416.048	4.5
416.406	4.43
416.764	4.4
417.122	4.37
417.48	4.36
417.838	4.33
418.195	4.29
418.553	4.27
418.911	4.23
419.269	4.23
419.626	4.21
419.984	4.2
420.342	4.19
420.699	4.19
421.057	4.16
421.414	4.15
421.772	4.14
422.129	4.13
422.486	4.12
422.844	4.1
423.201	4.12
423.558	4.11
423.915	4.11
424.273	4.13
424.63	4.13
424.987	4.13
425.344	4.12
425.701	4.13
426.058	4.13
426.415	4.13
426.772	4.11
427.128	4.12
427.485	4.11
427.842	4.12
428.199	4.11
428.555	4.13
428.912	4.12
429.269	4.11
429.625	4.11
429.982	4.13
430.338	4.14
430.695	4.12
431.051	4.09
431.407	4.09
431.764	4.05
432.12	4.06
432.476	4.07
432.832	4.07
433.189	4.08
433.545	4.08
433.901	4.1
434.257	4.11
434.613	4.1
434.969	4.11
435.325	4.1
435.681	4.09
436.036	4.09
436.392	4.09
436.748	4.1
437.104	4.1
437.459	4.09
437.815	4.1
438.171	4.08
438.526	4.08
438.882	4.08
439.237	4.09
439.593	4.09
439.948	4.08
440.304	4.08
440.659	4.06
441.014	4.04
441.369	4.04
441.725	4.01
442.08	4
442.435	3.99
442.79	3.99
443.145	3.99
443.5	3.98
443.855	3.96
444.21	3.97
444.565	3.96
444.92	3.95
445.275	3.91
445.629	3.92
445.984	3.91
446.339	3.91
446.693	3.9
447.048	3.9
447.403	3.9
447.757	3.91
448.112	3.91
448.466	3.92
448.82	3.92
449.175	3.93
449.529	3.94
449.883	3.92
450.238	3.91
450.592	3.91
450.946	3.91
451.3	3.9
451.654	3.88
452.008	3.87
452.362	3.87
452.716	3.89
453.07	3.89
453.424	3.89
453.778	3.89
454.132	3.9
454.486	3.89
454.839	3.89
455.193	3.88
455.547	3.87
455.9	3.84
456.254	3.84
456.607	3.85
456.961	3.84
457.314	3.84
457.668	3.83
458.021	3.85
458.375	3.84
458.728	3.86
459.081	3.88
459.434	3.89
459.787	3.9
460.141	3.91
460.494	3.92
460.847	3.92
461.2	3.93
461.553	3.92
461.906	3.95
462.259	3.93
462.611	3.94
462.964	3.96
463.317	3.97
463.67	3.98
464.022	3.97
464.375	4.01
464.728	4.04
465.08	4.06
465.433	4.07
465.785	4.09
466.138	4.08
466.49	4.07
466.843	4.09
467.195	4.1
467.547	4.09
467.899	4.1
468.252	4.11
468.604	4.12
468.956	4.13
469.308	4.12
469.66	4.15
470.012	4.13
470.364	4.14
470.716	4.14
471.068	4.16
471.42	4.18
471.772	4.17
472.123	4.18
472.475	4.18
472.827	4.18
473.178	4.19
473.53	4.19
473.882	4.17
474.233	4.14
474.585	4.1
474.936	4.11
475.288	4.08
475.639	4.09
475.99	4.07
476.342	4.07
476.693	4.06
477.044	4.05
477.395	4.04
477.746	4.03
478.097	4.03
478.448	4.02
478.8	4.02
479.15	4.01
479.501	3.99
479.852	3.98
480.203	3.98
480.554	3.98
480.905	3.99
481.255	3.99
481.606	4
481.957	4.02
482.307	4.02
482.658	4.04
483.009	4.03
483.359	4.02
483.709	4.02
484.06	4.03
484.41	4.03
484.761	4.03
485.111	4.04
485.461	4.04
485.811	4.02
486.162	4.03
486.512	4.04
486.862	4.05
487.212	4.06
487.562	4.06
487.912	4.06
488.262	4.06
488.612	4.09
488.961	4.1
489.311	4.1
489.661	4.11
490.011	4.11
490.36	4.12
490.71	4.14
491.06	4.14
491.409	4.15
491.759	4.16
492.108	4.17
492.458	4.18
492.807	4.19
493.157	4.22
493.506	4.23
493.855	4.23
494.204	4.25
494.554	4.25
494.903	4.26
495.252	4.29
495.601	4.31
495.95	4.31
496.299	4.32
496.648	4.34
496.997	4.35
497.346	4.37
497.695	4.39
498.043	4.43
498.392	4.46
498.741	4.48
499.09	4.51
499.438	4.54
499.787	4.58
500.135	4.61
500.484	4.63
500.832	4.65
501.181	4.69
501.529	4.71
501.878	4.74
502.226	4.77
502.574	4.8
502.923	4.82
503.271	4.86
503.619	4.9
503.967	4.92
504.315	4.93
504.663	4.96
505.011	5.02
505.359	5.04
505.707	5.07
506.055	5.12
506.403	5.16
506.751	5.2
507.098	5.24
507.446	5.27
507.794	5.31
508.141	5.38
508.489	5.4
508.837	5.45
509.184	5.49
509.531	5.53
509.879	5.55
510.226	5.59
510.574	5.64
510.921	5.68
511.268	5.73
511.616	5.79
511.963	5.85
512.31	5.86
512.657	5.89
513.004	5.94
513.351	5.97
513.698	6
514.045	6.06
514.392	6.12
514.739	6.18
515.086	6.25
515.432	6.29
515.779	6.37
516.126	6.42
516.473	6.5
516.819	6.56
517.166	6.64
517.512	6.66
517.859	6.71
518.205	6.74
518.552	6.81
518.898	6.85
519.245	6.91
519.591	6.97
519.937	7.03
520.283	7.08
520.629	7.15
520.976	7.22
521.322	7.29
521.668	7.37
522.014	7.47
522.36	7.55
522.706	7.64
523.052	7.75
523.398	7.85
523.743	7.97
524.089	8.06
524.435	8.16
524.781	8.29
525.126	8.39
525.472	8.5
525.817	8.58
526.163	8.68
526.509	8.74
526.854	8.83
527.199	8.91
527.545	9
527.89	9.07
528.235	9.14
528.581	9.2
528.926	9.29
529.271	9.38
529.616	9.46
529.961	9.54
530.306	9.63
530.651	9.72
530.996	9.81
531.341	9.93
531.686	10.03
532.031	10.14
532.376	10.27
532.721	10.39
533.065	10.51
533.41	10.64
533.755	10.79
534.099	10.92
534.444	11.05
534.788	11.2
535.133	11.36
535.477	11.51
535.822	11.68
536.166	11.82
536.51	11.99
536.855	12.17
537.199	12.36
537.543	12.56
537.887	12.78
538.231	13.01
538.576	13.2
538.92	13.39
539.264	13.58
539.608	13.75
539.951	13.9
540.295	14.1
540.639	14.26
540.983	14.44
541.327	14.62
541.671	14.8
542.014	14.99
542.358	15.17
542.701	15.33
543.045	15.5
543.389	15.69
543.732	15.84
544.075	16.02
544.419	16.22
544.762	16.4
545.105	16.61
545.449	16.84
545.792	17.07
546.135	17.32
546.478	17.6
546.821	17.89
547.165	18.2
547.508	18.46
547.851	18.75
548.194	18.99
548.536	19.26
548.879	19.55
549.222	19.8
549.565	20.05
549.908	20.34
550.25	20.61
550.593	20.93
550.936	21.26
551.278	21.63
551.621	21.95
551.963	22.31
552.306	22.6
552.648	22.87
552.991	23.15
553.333	23.48
553.675	23.75
554.017	24.04
554.36	24.32
554.702	24.6
555.044	24.9
555.386	25.23
555.728	25.54
556.07	25.79
556.412	26.11
556.754	26.41
557.096	26.72
557.438	27.01
557.78	27.3
558.121	27.59
558.463	27.83
558.805	28.1
559.147	28.36
559.488	28.64
559.83	28.91
560.171	29.21
560.513	29.45
560.854	29.74
561.196	30
561.537	30.26
561.878	30.54
562.22	30.78
562.561	31.05
562.902	31.29
563.243	31.61
563.584	31.85
563.925	32.14
564.266	32.41
564.607	32.72
564.948	32.97
565.289	33.21
565.63	33.5
565.971	33.78
566.312	34.03
566.653	34.27
566.993	34.49
567.334	34.74
567.675	34.98
568.015	35.18
568.356	35.43
568.696	35.65
569.037	35.85
569.377	36.1
569.718	36.37
570.058	36.61
570.398	36.84
570.739	37.05
571.079	37.23
571.419	37.53
571.759	37.69
572.099	37.92
572.439	38.12
572.779	38.32
573.119	38.53
573.459	38.68
573.799	38.85
574.139	39.05
574.479	39.28
574.819	39.5
575.158	39.76
575.498	39.97
575.838	40.17
576.177	40.39
576.517	40.55
576.856	40.68
577.196	40.9
577.535	41.13
577.875	41.31
578.214	41.56
578.553	41.66
578.893	41.9
579.232	42.13
579.571	42.31
579.91	42.43
580.25	42.56
580.589	42.78
580.928	43.07
581.267	43.32
581.606	43.47
581.945	43.69
582.283	43.82
582.622	43.98
582.961	44.14
583.3	44.3
583.639	44.56
583.977	44.8
584.316	44.92
584.654	44.98
584.993	45.2
585.332	45.31
585.67	45.47
586.008	45.56
586.347	45.7
586.685	45.84
587.024	45.97
587.362	46.17
587.7	46.23
588.038	46.24
588.376	46.39
588.715	46.51
589.053	46.52
589.391	46.66
589.729	46.75
590.067	46.85
590.404	46.95
590.742	47.01
591.08	47.14
591.418	47.34
591.756	47.47
592.093	47.61
592.431	47.78
592.769	47.89
593.106	47.99
593.444	48.12
593.781	48.29
594.119	48.42
594.456	48.48
594.793	48.67
595.131	48.89
595.468	48.89
595.805	48.92
596.143	49.04
596.48	49.13
596.817	49.21
597.154	49.34
597.491	49.46
597.828	49.56
598.165	49.62
598.502	49.67
598.839	49.83
599.176	49.98
599.512	50.07
599.849	50.18
600.186	50.34
600.523	50.41
600.859	50.45
601.196	50.57
601.532	50.71
601.869	50.72
602.205	50.79
602.542	50.94
602.878	51.1
603.215	51.16
603.551	51.12
603.887	51.25
604.223	51.3
604.56	51.32
604.896	51.42
605.232	51.46
605.568	51.57
605.904	51.58
606.24	51.55
606.576	51.55
606.912	51.6
607.248	51.63
607.583	51.68
607.919	51.76
608.255	51.85
608.591	51.88
608.926	51.93
609.262	51.89
609.597	51.99
609.933	51.96
610.268	52.04
610.604	52.17
610.939	52.26
611.275	52.24
611.61	52.35
611.945	52.36
612.281	52.43
612.616	52.44
612.951	52.55
613.286	52.63
613.621	52.74
613.956	52.86
614.291	53.01
614.626	53.09
614.961	53.15
615.296	53.13
615.631	53.23
615.966	53.35
616.3	53.52
616.635	53.48
616.97	53.57
617.304	53.72
617.639	53.7
617.973	53.65
618.308	53.77
618.642	53.79
618.977	53.83
619.311	53.85
619.646	53.93
619.98	54.04
620.314	54.09
620.648	54.11
620.983	54.08
621.317	54.05
621.651	54.05
621.985	54.06
622.319	54.16
622.653	54.18
622.987	54.33
623.321	54.33
623.655	54.38
623.988	54.36
624.322	54.33
624.656	54.41
624.99	54.48
625.323	54.56
625.657	54.61
625.99	54.57
626.324	54.65
626.657	54.59
626.991	54.58
627.324	54.65
627.658	54.74
627.991	54.87
628.324	54.84
628.657	54.86
628.991	55.01
629.324	55.01
629.657	55.02
629.99	54.91
630.323	54.93
630.656	54.92
630.989	55.04
631.322	55.08
631.655	55.08
631.987	55.08
632.32	55.03
632.653	55.15
632.986	55.3
633.318	55.35
633.651	55.41
633.984	55.49
634.316	55.51
634.649	55.47
634.981	55.48
635.313	55.49
635.646	55.52
635.978	55.52
636.31	55.57
636.643	55.51
636.975	55.67
637.307	55.72
637.639	55.84
637.971	55.9
638.303	55.85
638.635	55.99
638.967	55.97
639.299	56.05
639.631	55.88
639.963	55.92
640.295	55.94
640.626	55.99
640.958	55.91
641.29	55.89
641.621	55.88
641.953	55.78
642.285	55.83
642.616	55.91
642.948	55.8
643.279	55.86
643.61	55.92
643.942	55.84
644.273	55.81
644.604	55.87
644.936	55.81
645.267	55.85
645.598	55.87
645.929	55.92
646.26	55.95
646.591	56.03
646.922	56.01
647.253	55.97
647.584	55.99
647.915	56.02
648.245	56.02
648.576	56.13
648.907	56.3
649.238	56.5
649.568	56.58
649.899	56.64
650.229	56.6
650.56	56.77
650.89	56.85
651.221	56.97
651.551	56.9
651.882	57.02
652.212	57.08
652.542	57.11
652.872	57.15
653.203	57.03
653.533	57.1
653.863	57.16
654.193	57.21
654.523	57.15
654.853	57.21
655.183	57.34
655.513	57.25
655.843	57.22
656.172	57.14
656.502	57.07
656.832	57.09
657.162	57.1
657.491	57
657.821	56.93
658.15	56.91
658.48	56.95
658.809	56.91
659.139	56.92
659.468	56.91
659.798	56.91
660.127	57.05
660.456	57.06
660.785	57.09
661.115	57.05
661.444	57.16
661.773	57.12
662.102	57.1
662.431	57.28
662.76	57.25
663.089	57.25
663.418	57.29
663.747	57.39
664.076	57.43
664.404	57.64
664.733	57.66
665.062	57.68
665.39	57.71
665.719	57.65
666.048	57.64
666.376	57.58
666.705	57.6
667.033	57.65
667.362	57.59
667.69	57.48
668.018	57.55
668.347	57.45
668.675	57.51
669.003	57.51
669.331	57.54
669.659	57.45
669.987	57.51
670.315	57.49
670.643	57.38
670.971	57.37
671.299	57.28
671.627	57.37
671.955	57.34
672.283	57.22
672.61	57.35
672.938	57.43
673.266	57.51
673.593	57.58
673.921	57.5
674.249	57.63
674.576	57.67
674.904	57.64
675.231	57.75
675.558	57.84
675.886	57.91
676.213	57.79
676.54	57.77
676.867	57.65
677.195	57.73
677.522	57.62
677.849	57.77
678.176	57.76
678.503	57.8
678.83	57.77
679.157	57.86
679.484	57.88
679.81	57.81
680.137	57.76
680.464	57.69
680.791	57.73
681.117	57.62
681.444	57.65
681.771	57.74
682.097	57.66
682.424	57.58
682.75	57.57
683.077	57.59
683.403	57.75
683.729	57.86
684.056	57.76
684.382	57.96
684.708	57.76
685.034	57.82
685.36	57.75
685.686	57.8
686.012	57.82
686.339	57.79
686.664	57.96
686.99	57.93
687.316	57.9
687.642	57.81
687.968	58.03
688.294	58.13
688.619	57.95
688.945	57.99
689.271	57.98
689.596	57.92
689.922	57.91
690.247	57.77
690.573	57.58
690.898	57.62
691.224	57.6
691.549	57.76
691.874	57.89
692.2	57.94
692.525	57.87
692.85	58.02
693.175	58.06
693.5	58.03
693.825	58.11
694.15	58.03
694.475	58.08
694.8	57.91
695.125	57.85
695.45	58.03
695.775	58.1
696.099	58.2
696.424	58.16
696.749	58.14
697.073	58.35
697.398	58.73
697.723	58.77
698.047	58.81
698.372	58.69
698.696	58.63
699.02	58.53
699.345	58.67
699.669	58.55
699.993	58.45
700.318	58.33
700.642	58.33
700.966	58.44
701.29	58.56
701.614	58.62
701.938	58.62
702.262	58.64
702.586	58.78
702.91	58.49
703.234	58.46
703.557	58.48
703.881	58.41
704.205	58.1
704.529	58.13
704.852	58.06
705.176	58.15
705.499	58.02
705.823	58.26
706.146	58.33
706.47	58.41
706.793	58.44
707.117	58.42
707.44	58.65
707.763	58.85
708.086	58.83
708.409	58.9
708.733	59.02
709.056	59.07
709.379	59.01
709.702	59.17
710.025	59.24
710.348	59.36
710.671	59.43
710.993	59.58
711.316	59.81
711.639	59.95
711.962	60.04
712.284	59.92
712.607	59.75
712.93	59.67
713.252	59.42
713.575	59.38
713.897	59.43
714.22	59.38
714.542	59.41
714.864	59.31
715.187	59.25
715.509	59.17
715.831	59.06
716.153	59.01
716.475	59.28
716.798	59.4
717.12	59.26
717.442	59.44
717.764	59.28
718.085	59.04
718.407	58.85
718.729	58.83
719.051	58.78
719.373	59.06
719.695	59.1
720.016	59.41
720.338	59.48
720.659	59.44
720.981	59.26
721.302	59.13
721.624	59.33
721.945	59.2
722.267	59.27
722.588	59.18
722.909	59.05
723.231	58.87
723.552	58.8
723.873	58.94
724.194	58.49
724.515	58.72
724.836	58.67
725.157	58.94
725.478	58.97
725.799	59.42
726.12	59.36
726.441	59.18
726.762	59.16
727.083	59.32
727.403	59.3
727.724	59.41
728.045	59.28
728.365	59.07
728.686	59.12
729.006	58.86
729.327	58.94
729.647	59.42
729.967	59.22
730.288	59.32
730.608	59.39
730.928	59.51
731.249	59.38
731.569	59.32
731.889	59.08
732.209	59.11
732.529	58.91
732.849	58.68
733.169	58.96
733.489	58.81
733.809	58.83
734.129	59.11
734.448	59.07
734.768	59.22
735.088	59.38
735.408	59.57
735.727	59.82
736.047	59.67
736.366	59.42
736.686	59.52
737.005	59.32
737.325	59.13
737.644	59.09
737.963	59.35
738.283	59.56
738.602	59.59
738.921	59.55
739.24	59.37
739.56	59.38
739.879	59.21
740.198	59.48
740.517	59.51
740.836	59.4
741.155	59.38
741.473	59.3
741.792	59.32
742.111	59.1
742.43	59.04
742.748	59.21
743.067	59.1
743.386	59.05
743.704	59.22
744.023	59.18
744.341	59.36
744.66	58.99
744.978	58.72
745.297	58.72
745.615	58.7
745.933	58.94
746.252	59.15
746.57	59.01
746.888	59.08
747.206	59.09
747.524	58.89
747.842	58.73
748.16	58.63
748.478	58.3
748.796	58.4
749.114	58.39
749.432	58.56
749.749	58.72
750.067	58.66
750.385	58.61
750.703	58.55
751.02	58.38
751.338	58.44
751.655	58.13
751.973	57.94
752.29	57.69
752.608	57.45
752.925	57.39
753.242	57.33
753.56	56.85
753.877	56.73
754.194	56.99
754.511	57.25
754.828	57.5
755.145	57.53
755.462	57.32
755.779	57.41
756.096	57.44
756.413	57.17
756.73	57.42
757.047	57.42
757.364	57.96
757.68	57.9
757.997	57.99
758.314	58.05
758.63	58.13
758.947	58.31
759.264	58.3
759.58	58.15
759.896	58.42
760.213	58.96
760.529	59.02
760.846	58.94
761.162	58.71
761.478	58.29
761.794	58.8
762.11	59.08
762.426	59.13
762.743	59.02
763.059	59.03
763.375	59.07
763.69	59.21
764.006	59.03
764.322	58.98
764.638	59.13
764.954	59.6
765.27	59.94
765.585	60.08
765.901	60.35
766.216	60.45
766.532	60.36
766.848	60.07
767.163	60.01
767.478	60.19
767.794	60.3
768.109	60.75
768.424	60.64
768.74	60.81
769.055	61.06
769.37	61.01
769.685	61.09
770	61.24
770.315	61.24
770.63	61.14
770.945	61.7
771.26	61.13
771.575	61.17
771.89	60.79
772.205	60.65
772.52	60.68
772.834	60.92
773.149	60.96
773.464	60.98
773.778	61.03
774.093	60.47
774.407	60.34
774.722	60.29
775.036	59.91
775.351	59.47
775.665	59.06
775.979	59.22
776.293	59.21
776.608	58.88
776.922	58.53
777.236	58.98
777.55	58.55
777.864	58.97
778.178	58.51
778.492	58.78
778.806	58.65
779.12	58.5
779.434	58.25
779.747	57.87
780.061	57.9
780.375	57.87
780.689	57.94
781.002	57.98
781.316	57.73
781.629	57.88
781.943	58.32
782.256	58.05
782.57	57.72
782.883	57.39
783.196	57.21
783.51	57.55
783.823	56.79
784.136	56.56
784.449	56.62
784.762	57.06
785.075	57.31
785.388	57.4
785.701	57.35
786.014	57.48
786.327	58.25
786.64	58.44
786.953	58.48
787.266	58.77
787.578	59.2
787.891	59.18
788.204	59.05
788.516	59.05
788.829	59.22
789.141	59.66
789.454	60.24
789.766	61.04
790.079	60.95
790.391	60.84
790.703	60.89
791.016	61.05
791.328	60.59
791.64	59.72
791.952	59.58
792.264	59.62
792.576	59.51
792.888	59.34
793.2	59.45
793.512	59.22
793.824	59.27
794.136	59.08
794.448	59.16
794.76	59.36
795.071	58.8
795.383	59.05
795.695	58.92
796.006	58.54
796.318	58.16
796.629	58.15
796.941	58.98
797.252	59.09
797.564	59.63
797.875	59.44
798.186	59.97
798.497	60.3
798.809	60.02
799.12	59.8
799.431	59.45
799.742	59.27
800.053	58.92
800.364	58.81
800.675	59.3
800.986	60.05
801.297	59.82
801.608	60.03
801.918	60.18
802.229	60.59
802.54	60.64
802.851	60.9
803.161	61.15
803.472	60.95
803.782	61.05
804.093	61.37
804.403	62.56
804.714	63.53
805.024	63.13
805.334	63.56
805.645	63.55
805.955	64.02
806.265	63.44
806.575	64.15
806.885	64.35
807.195	64.37
807.505	63.9
807.815	64.38
808.125	64.87
808.435	65.11
808.745	64.65
809.055	64.84
809.365	64.55
809.674	63.78
809.984	64.08
810.294	64.12
810.603	63.79
810.913	62.67
811.222	61.29
811.532	62.31
811.841	61.51
812.151	62.59
812.46	62.81
812.769	63.63
813.079	63.47
813.388	63.23
813.697	61.5
814.006	61.78
814.315	61.4
814.624	61.32
814.933	60.81
815.242	59.83
815.551	60.14
815.86	59.95
816.169	60.74
816.478	60.41
816.786	60.15
817.095	59.33
817.404	59.39
817.712	59.95
818.021	59.95
818.33	59.94
818.638	59.78
818.947	59.18
819.255	59.34
819.563	59.61
819.872	59.98
820.18	60.58
820.488	60.75
820.796	61.14
821.105	60.87
821.413	60.73
821.721	61.12
822.029	60.84
822.337	60.92
822.645	60.88
822.953	60.9
823.26	60.97
823.568	60.83
823.876	60.85
824.184	60.75
824.491	60.69
824.799	60.94
825.107	61.03
825.414	61.13
825.722	60.91
826.029	60.73
826.337	60.49
826.644	60.48
826.951	60.36
827.259	60.39
827.566	60.52
827.873	60.52
828.18	60.22
828.488	60.31
828.795	60.25
829.102	60.1
829.409	59.92
829.716	59.75
830.023	59.96
830.329	60.01
830.636	59.82
830.943	59.47
831.25	59.07
831.557	58.73
831.863	58.7
832.17	58.87
832.476	59.16
832.783	59.54
833.089	59.5
833.396	58.95
833.702	58.52
834.009	58.88
834.315	58.65
834.621	59.47
834.928	59.44
835.234	59.41
835.54	59.38
835.846	59.84
836.152	60.41
836.458	59.91
836.764	60.13
837.07	61.16
837.376	61.43
837.682	61.94
837.988	62.03
838.293	61.77
838.599	62.62
838.905	62.24
839.211	61.98
839.516	62.08
839.822	62.6
840.127	62.51
840.433	62.22
840.738	62.4
841.044	61.99
841.349	63.02
841.654	62.66
841.959	63.99
842.265	63.64
842.57	63.2
842.875	64.06
843.18	62.92
843.485	61.72
843.79	61.21
844.095	60.59
844.4	59.33
844.705	60.43
845.01	59.55
845.315	59.96
845.619	60.97
845.924	61.85
846.229	62.22
846.533	62.41
846.838	61.72
847.142	62.87
847.447	61.91
847.751	61.12
848.056	59.43
848.36	56.33
848.664	56.33
848.969	56.06
849.273	56.89
849.577	58.15
849.881	57.85
850.185	58.61
850.489	60.81
850.794	60.5
851.097	61.53
851.401	61.51
851.705	63.79
852.009	60.53
852.313	60.09
852.617	61.27
852.92	60.82
853.224	61.74
853.528	63.58
853.831	64.53
854.135	65.14
854.438	67.29
854.742	69.06
855.045	66.29
855.349	67.45
855.652	65.69
855.955	65.13
856.259	65.52
856.562	65.21
856.865	64.4
857.168	66.98
857.471	68.93
857.774	68.44
858.077	66.19
858.38	71.45
858.683	69.85
858.986	70.49
859.289	68.16
859.592	68.45
859.894	68.42
860.197	69.44
860.5	69.18
860.802	70.09
861.105	70.1
861.407	71.98
861.71	71.75
862.012	73.16
862.315	74.47
862.617	73.51
862.919	73.45
863.222	72.72
863.524	71.29
863.826	67.38
864.128	67.97
864.43	69.73
864.732	68.45
865.034	69.77
865.336	67.08
865.638	71
865.94	67.96
866.242	66.83
866.544	65.6
866.846	66.31
867.147	67.41
867.449	66.21
867.751	66.09
868.052	64.81
868.354	64.67
868.655	62.32
868.957	64.2
869.258	62.79
869.56	62.26
869.861	64.18
870.162	64.82
870.463	64.88
870.765	62.69
871.066	59.72
871.367	57.98
871.668	60.16
871.969	62.37
872.27	65.06
872.571	65.98
872.872	70.99
873.173	70.08
873.473	70.95
873.774	70.12
874.075	68.57
874.376	70.92
874.676	72.73
874.977	75.58
875.277	75.67
875.578	76.07
875.878	76.19
876.179	75.38
876.479	76.53
876.78	77.91
877.08	80.69
877.38	84.32
877.68	86.91
877.981	85.6
878.281	80.4
878.581	80.57
