Data from BA28467_Reflection_00010.txt Node
Date: Mon Nov 18 15:33:20 EST 2019
User: vgr7
Spectrometer: USB2G7710
Scans to average: 3
Trigger mode: 4
Integration Time (sec): 2.000000E-2
Electric dark correction enabled: true
Boxcar width: 10
XAxis mode: Wavelengths
Number of Pixels in Spectrum: 2048
>>>>>Begin Spectral Data<<<<<
177.721	29.17
178.105	-16.75
178.488	7.83
178.871	-143.64
179.254	321.11
179.636	-22.53
180.019	2024.05
180.402	130
180.785	-2368.09
181.168	-737.84
181.55	-549.35
181.933	240.46
182.316	202.79
182.698	125.02
183.081	131.8
183.463	252.96
183.846	219.89
184.228	86.16
184.611	185.11
184.993	154.05
185.376	-411.01
185.758	-686.61
186.14	-623.19
186.522	-266.03
186.904	-433
187.287	-2800.76
187.669	-705.5
188.051	1137.9
188.433	-591.4
188.815	-203.88
189.197	-364.15
189.579	-276.59
189.961	-231.67
190.342	-133.35
190.724	-82.03
191.106	-78.93
191.488	-42.67
191.869	-41.62
192.251	-78.13
192.633	-85.28
193.014	-106.85
193.396	-151.88
193.777	-99.81
194.159	-55.45
194.54	-3.72
194.922	9.56
195.303	4.34
195.684	47.73
196.065	24.37
196.447	37.97
196.828	-248.75
197.209	-37.61
197.59	-29.93
197.971	273.91
198.352	-70.21
198.733	-17.65
199.114	-107.02
199.495	-10.9
199.876	-7.41
200.257	235.46
200.638	72.05
201.018	36.03
201.399	27.4
201.78	15.67
202.16	-17.47
202.541	-57.7
202.922	-87.08
203.302	-58.56
203.683	-51.79
204.063	-219.81
204.444	-19.91
204.824	48.67
205.204	119.42
205.585	29.02
205.965	-18.21
206.345	-74.59
206.725	-119.31
207.106	-273.3
207.486	-309.77
207.866	-318.81
208.246	-1191.83
208.626	1406.53
209.006	781.69
209.386	257.62
209.766	391.35
210.145	3694.94
210.525	-2016.79
210.905	-512.74
211.285	-218.49
211.664	-308.24
212.044	-152.86
212.424	-114.64
212.803	-172.19
213.183	-123.51
213.562	-96.66
213.942	-54.12
214.321	-36.96
214.701	-49.29
215.08	-43.61
215.459	-45.1
215.838	-13.07
216.218	-14.16
216.597	-14.72
216.976	-4.82
217.355	22.32
217.734	35.66
218.113	60.77
218.492	75.28
218.871	94.67
219.25	96.84
219.629	75.37
220.008	69.27
220.387	55.35
220.766	50.11
221.144	21.47
221.523	27.69
221.902	17.37
222.28	11.78
222.659	8.12
223.037	10.11
223.416	-8.34
223.794	1.44
224.173	-5.65
224.551	1.19
224.929	-12.21
225.308	-9.75
225.686	-11.77
226.064	-12.5
226.442	-10.26
226.821	-5.31
227.199	-10.02
227.577	-4.99
227.955	0.8
228.333	-1.06
228.711	1.03
229.089	10.13
229.467	7.87
229.845	8.55
230.222	6.49
230.6	7.01
230.978	9.22
231.356	9.73
231.733	9.87
232.111	10.84
232.488	11.4
232.866	12.23
233.243	13.52
233.621	12.74
233.998	14.56
234.376	12.74
234.753	11.98
235.13	13
235.508	10.63
235.885	9.09
236.262	9.79
236.639	8.99
237.016	7.41
237.393	8.99
237.77	7.15
238.147	8.32
238.524	7.56
238.901	7.91
239.278	7.99
239.655	6.62
240.032	6.42
240.409	5.35
240.785	5.23
241.162	4.75
241.539	5.01
241.915	4.9
242.292	4.61
242.668	4.62
243.045	4.99
243.421	5.04
243.798	5.05
244.174	4.76
244.551	4.55
244.927	4.21
245.303	3.94
245.679	4.17
246.056	3.81
246.432	3.93
246.808	3.74
247.184	3.38
247.56	3.51
247.936	3.27
248.312	3.53
248.688	3.44
249.064	3.5
249.44	3.39
249.815	3.34
250.191	3.65
250.567	3.55
250.943	3.21
251.318	3.16
251.694	2.77
252.069	2.85
252.445	2.76
252.82	2.77
253.196	2.62
253.571	2.63
253.947	2.94
254.322	3.04
254.697	2.69
255.073	2.86
255.448	2.92
255.823	3.19
256.198	3.01
256.573	3.01
256.948	3.14
257.323	3.34
257.698	3.38
258.073	3.17
258.448	3.23
258.823	3.34
259.198	3.38
259.573	3.63
259.948	3.59
260.322	3.68
260.697	3.59
261.072	3.62
261.446	3.56
261.821	3.52
262.195	3.59
262.57	3.59
262.944	3.6
263.319	3.43
263.693	3.35
264.067	3.28
264.442	3.47
264.816	3.37
265.19	3.28
265.564	3.18
265.938	3.32
266.313	3.38
266.687	3.38
267.061	3.38
267.435	3.17
267.809	3.19
268.183	3.1
268.556	3.08
268.93	3.14
269.304	3.12
269.678	3.07
270.051	3.01
270.425	3.09
270.799	3.13
271.172	3.34
271.546	3.36
271.919	3.33
272.293	3.33
272.666	3.33
273.04	3.32
273.413	3.33
273.787	3.31
274.16	3.12
274.533	3.05
274.906	2.97
275.279	3.14
275.653	3.23
276.026	3.26
276.399	3.36
276.772	3.39
277.145	3.39
277.518	3.46
277.891	3.37
278.263	3.35
278.636	3.39
279.009	3.28
279.382	3.47
279.755	3.38
280.127	3.41
280.5	3.53
280.872	3.69
281.245	3.67
281.617	3.72
281.99	3.87
282.362	3.94
282.735	3.92
283.107	3.88
283.479	3.9
283.852	3.85
284.224	3.83
284.596	3.79
284.968	3.72
285.34	3.62
285.713	3.68
286.085	3.71
286.457	3.8
286.829	3.83
287.201	3.8
287.572	3.96
287.944	3.91
288.316	3.83
288.688	3.77
289.06	3.75
289.431	3.69
289.803	3.73
290.175	3.65
290.546	3.76
290.918	3.74
291.289	3.66
291.661	3.75
292.032	3.81
292.403	3.82
292.775	3.86
293.146	3.87
293.517	3.95
293.889	4.07
294.26	4.07
294.631	4.14
295.002	4.21
295.373	4.27
295.744	4.28
296.115	4.23
296.486	4.13
296.857	4.12
297.228	4.18
297.599	4.12
297.97	4.22
298.34	4.3
298.711	4.52
299.082	4.56
299.452	4.66
299.823	4.74
300.194	4.7
300.564	4.74
300.935	4.81
301.305	4.71
301.676	4.67
302.046	4.68
302.416	4.76
302.787	4.77
303.157	4.71
303.527	4.88
303.897	5.03
304.267	5.16
304.637	5.27
305.008	5.35
305.378	5.54
305.748	5.56
306.117	5.62
306.487	5.52
306.857	5.53
307.227	5.56
307.597	5.62
307.967	5.73
308.336	5.74
308.706	5.86
309.076	6
309.445	6.15
309.815	6.12
310.184	5.97
310.554	6.04
310.923	6.22
311.293	6.12
311.662	6.14
312.031	6.18
312.401	6.26
312.77	6.3
313.139	6.28
313.508	6.34
313.877	6.21
314.246	6.3
314.616	6.29
314.985	6.38
315.353	6.3
315.722	6.36
316.091	6.45
316.46	6.48
316.829	6.52
317.198	6.45
317.567	6.53
317.935	6.8
318.304	6.77
318.672	6.74
319.041	6.84
319.41	6.84
319.778	6.77
320.147	6.78
320.515	6.65
320.883	6.65
321.252	6.72
321.62	6.83
321.988	6.8
322.357	6.83
322.725	6.83
323.093	6.91
323.461	6.96
323.829	7.02
324.197	7.17
324.565	7.11
324.933	7.19
325.301	7.16
325.669	7.17
326.037	7.21
326.405	7.24
326.772	7.32
327.14	7.4
327.508	7.58
327.875	7.62
328.243	7.71
328.61	7.8
328.978	7.89
329.346	8.01
329.713	8.02
330.08	8.1
330.448	8.04
330.815	8.06
331.182	8.07
331.55	8.16
331.917	8.07
332.284	8.29
332.651	8.25
333.018	8.4
333.385	8.34
333.752	8.44
334.119	8.6
334.486	8.52
334.853	8.48
335.22	8.5
335.587	8.56
335.954	8.51
336.32	8.43
336.687	8.47
337.054	8.41
337.42	8.43
337.787	8.51
338.153	8.57
338.52	8.61
338.886	8.64
339.253	8.66
339.619	8.66
339.986	8.6
340.352	8.64
340.718	8.54
341.084	8.58
341.451	8.55
341.817	8.46
342.183	8.43
342.549	8.43
342.915	8.54
343.281	8.51
343.647	8.58
344.013	8.6
344.379	8.48
344.745	8.6
345.11	8.73
345.476	8.79
345.842	8.82
346.208	8.84
346.573	8.86
346.939	8.94
347.304	8.93
347.67	8.91
348.035	9.02
348.401	9.08
348.766	9.06
349.132	8.98
349.497	8.98
349.862	9.07
350.228	9.17
350.593	9.13
350.958	9.12
351.323	9.18
351.688	9.32
352.053	9.41
352.418	9.29
352.783	9.25
353.148	9.15
353.513	9.22
353.878	9.12
354.243	9.1
354.608	9.01
354.972	9.01
355.337	9.1
355.702	9.11
356.066	9.11
356.431	9.08
356.795	9.13
357.16	9.08
357.524	8.98
357.889	8.89
358.253	8.8
358.618	8.8
358.982	8.75
359.346	8.67
359.71	8.66
360.075	8.73
360.439	8.67
360.803	8.64
361.167	8.54
361.531	8.54
361.895	8.49
362.259	8.45
362.623	8.44
362.987	8.4
363.351	8.32
363.714	8.32
364.078	8.31
364.442	8.24
364.806	8.22
365.169	8.29
365.533	8.23
365.896	8.16
366.26	8.15
366.623	8.11
366.987	7.99
367.35	7.93
367.714	7.85
368.077	7.88
368.44	7.81
368.803	7.83
369.167	7.79
369.53	7.72
369.893	7.75
370.256	7.69
370.619	7.64
370.982	7.55
371.345	7.47
371.708	7.47
372.071	7.42
372.434	7.37
372.797	7.27
373.159	7.25
373.522	7.27
373.885	7.17
374.247	7.13
374.61	7.17
374.973	7.12
375.335	7.05
375.698	6.98
376.06	6.99
376.423	6.93
376.785	6.91
377.147	6.91
377.51	6.85
377.872	6.81
378.234	6.72
378.596	6.72
378.958	6.72
379.321	6.65
379.683	6.63
380.045	6.61
380.407	6.55
380.769	6.52
381.13	6.47
381.492	6.48
381.854	6.48
382.216	6.37
382.578	6.36
382.939	6.35
383.301	6.29
383.663	6.23
384.024	6.16
384.386	6.16
384.747	6.1
385.109	6.08
385.47	6.05
385.832	6.04
386.193	6
386.554	5.95
386.916	5.95
387.277	5.94
387.638	5.92
387.999	5.88
388.36	5.85
388.721	5.79
389.082	5.75
389.443	5.71
389.804	5.71
390.165	5.64
390.526	5.59
390.887	5.56
391.248	5.55
391.609	5.51
391.969	5.44
392.33	5.42
392.691	5.39
393.051	5.4
393.412	5.39
393.772	5.31
394.133	5.26
394.493	5.2
394.854	5.17
395.214	5.08
395.574	5.08
395.935	5.03
396.295	5.06
396.655	5
397.015	4.97
397.376	4.94
397.736	4.89
398.096	4.86
398.456	4.81
398.816	4.79
399.176	4.78
399.535	4.77
399.895	4.74
400.255	4.72
400.615	4.66
400.975	4.6
401.334	4.59
401.694	4.57
402.054	4.54
402.413	4.51
402.773	4.51
403.132	4.46
403.492	4.46
403.851	4.39
404.211	4.41
404.57	4.38
404.929	4.37
405.288	4.39
405.648	4.39
406.007	4.39
406.366	4.38
406.725	4.38
407.084	4.36
407.443	4.34
407.802	4.35
408.161	4.33
408.52	4.31
408.879	4.32
409.238	4.31
409.596	4.33
409.955	4.31
410.314	4.29
410.673	4.29
411.031	4.27
411.39	4.26
411.748	4.27
412.107	4.26
412.465	4.22
412.824	4.21
413.182	4.17
413.54	4.14
413.899	4.12
414.257	4.09
414.615	4.04
414.974	4.05
415.332	4
415.69	3.97
416.048	3.95
416.406	3.93
416.764	3.92
417.122	3.89
417.48	3.87
417.838	3.87
418.195	3.86
418.553	3.84
418.911	3.82
419.269	3.78
419.626	3.76
419.984	3.74
420.342	3.72
420.699	3.71
421.057	3.69
421.414	3.68
421.772	3.68
422.129	3.67
422.486	3.65
422.844	3.65
423.201	3.64
423.558	3.63
423.915	3.63
424.273	3.6
424.63	3.57
424.987	3.57
425.344	3.57
425.701	3.56
426.058	3.56
426.415	3.56
426.772	3.54
427.128	3.54
427.485	3.52
427.842	3.53
428.199	3.51
428.555	3.53
428.912	3.52
429.269	3.52
429.625	3.53
429.982	3.51
430.338	3.48
430.695	3.49
431.051	3.48
431.407	3.48
431.764	3.49
432.12	3.5
432.476	3.5
432.832	3.49
433.189	3.48
433.545	3.48
433.901	3.45
434.257	3.46
434.613	3.46
434.969	3.49
435.325	3.48
435.681	3.5
436.036	3.48
436.392	3.45
436.748	3.45
437.104	3.43
437.459	3.42
437.815	3.43
438.171	3.42
438.526	3.43
438.882	3.44
439.237	3.46
439.593	3.49
439.948	3.49
440.304	3.5
440.659	3.48
441.014	3.48
441.369	3.49
441.725	3.48
442.08	3.47
442.435	3.46
442.79	3.45
443.145	3.44
443.5	3.44
443.855	3.44
444.21	3.42
444.565	3.42
444.92	3.44
445.275	3.44
445.629	3.43
445.984	3.41
446.339	3.39
446.693	3.37
447.048	3.33
447.403	3.3
447.757	3.29
448.112	3.29
448.466	3.27
448.82	3.27
449.175	3.27
449.529	3.26
449.883	3.27
450.238	3.25
450.592	3.26
450.946	3.25
451.3	3.24
451.654	3.26
452.008	3.26
452.362	3.24
452.716	3.23
453.07	3.24
453.424	3.25
453.778	3.25
454.132	3.24
454.486	3.24
454.839	3.25
455.193	3.24
455.547	3.24
455.9	3.25
456.254	3.25
456.607	3.25
456.961	3.26
457.314	3.25
457.668	3.26
458.021	3.25
458.375	3.24
458.728	3.26
459.081	3.27
459.434	3.27
459.787	3.28
460.141	3.28
460.494	3.29
460.847	3.28
461.2	3.29
461.553	3.31
461.906	3.33
462.259	3.34
462.611	3.37
462.964	3.38
463.317	3.39
463.67	3.4
464.022	3.42
464.375	3.41
464.728	3.42
465.08	3.44
465.433	3.44
465.785	3.46
466.138	3.47
466.49	3.46
466.843	3.47
467.195	3.49
467.547	3.51
467.899	3.51
468.252	3.52
468.604	3.51
468.956	3.52
469.308	3.51
469.66	3.51
470.012	3.5
470.364	3.51
470.716	3.51
471.068	3.5
471.42	3.49
471.772	3.51
472.123	3.53
472.475	3.54
472.827	3.56
473.178	3.56
473.53	3.53
473.882	3.54
474.233	3.55
474.585	3.52
474.936	3.51
475.288	3.53
475.639	3.53
475.99	3.55
476.342	3.54
476.693	3.55
477.044	3.55
477.395	3.55
477.746	3.53
478.097	3.52
478.448	3.51
478.8	3.5
479.15	3.46
479.501	3.45
479.852	3.44
480.203	3.43
480.554	3.43
480.905	3.44
481.255	3.45
481.606	3.44
481.957	3.46
482.307	3.46
482.658	3.45
483.009	3.45
483.359	3.46
483.709	3.46
484.06	3.46
484.41	3.47
484.761	3.47
485.111	3.49
485.461	3.5
485.811	3.5
486.162	3.51
486.512	3.54
486.862	3.54
487.212	3.55
487.562	3.56
487.912	3.56
488.262	3.58
488.612	3.57
488.961	3.59
489.311	3.59
489.661	3.6
490.011	3.62
490.36	3.62
490.71	3.62
491.06	3.64
491.409	3.65
491.759	3.66
492.108	3.66
492.458	3.67
492.807	3.68
493.157	3.69
493.506	3.7
493.855	3.71
494.204	3.72
494.554	3.74
494.903	3.76
495.252	3.78
495.601	3.8
495.95	3.82
496.299	3.83
496.648	3.85
496.997	3.86
497.346	3.89
497.695	3.92
498.043	3.96
498.392	3.97
498.741	4
499.09	4.03
499.438	4.08
499.787	4.11
500.135	4.17
500.484	4.2
500.832	4.24
501.181	4.29
501.529	4.32
501.878	4.38
502.226	4.42
502.574	4.47
502.923	4.49
503.271	4.56
503.619	4.6
503.967	4.66
504.315	4.71
504.663	4.74
505.011	4.78
505.359	4.81
505.707	4.9
506.055	4.96
506.403	5.02
506.751	5.07
507.098	5.15
507.446	5.18
507.794	5.22
508.141	5.28
508.489	5.33
508.837	5.39
509.184	5.45
509.531	5.52
509.879	5.59
510.226	5.69
510.574	5.75
510.921	5.82
511.268	5.89
511.616	5.96
511.963	6.05
512.31	6.14
512.657	6.23
513.004	6.31
513.351	6.38
513.698	6.44
514.045	6.52
514.392	6.58
514.739	6.68
515.086	6.8
515.432	6.9
515.779	6.97
516.126	7.04
516.473	7.12
516.819	7.21
517.166	7.27
517.512	7.35
517.859	7.41
518.205	7.49
518.552	7.59
518.898	7.66
519.245	7.72
519.591	7.81
519.937	7.87
520.283	7.95
520.629	8.05
520.976	8.15
521.322	8.29
521.668	8.39
522.014	8.48
522.36	8.59
522.706	8.7
523.052	8.84
523.398	9.02
523.743	9.15
524.089	9.26
524.435	9.41
524.781	9.54
525.126	9.67
525.472	9.79
525.817	9.9
526.163	10.01
526.509	10.12
526.854	10.21
527.199	10.3
527.545	10.37
527.89	10.46
528.235	10.54
528.581	10.62
528.926	10.71
529.271	10.8
529.616	10.88
529.961	10.98
530.306	11.09
530.651	11.18
530.996	11.29
531.341	11.41
531.686	11.54
532.031	11.67
532.376	11.78
532.721	11.92
533.065	12.07
533.41	12.2
533.755	12.35
534.099	12.5
534.444	12.66
534.788	12.85
535.133	13.02
535.477	13.2
535.822	13.36
536.166	13.58
536.51	13.81
536.855	14.05
537.199	14.28
537.543	14.52
537.887	14.79
538.231	15.02
538.576	15.27
538.92	15.51
539.264	15.75
539.608	15.99
539.951	16.2
540.295	16.4
540.639	16.61
540.983	16.82
541.327	16.99
541.671	17.18
542.014	17.37
542.358	17.55
542.701	17.76
543.045	17.99
543.389	18.19
543.732	18.38
544.075	18.59
544.419	18.81
544.762	19.04
545.105	19.26
545.449	19.51
545.792	19.74
546.135	20
546.478	20.28
546.821	20.58
547.165	20.88
547.508	21.2
547.851	21.52
548.194	21.78
548.536	22.11
548.879	22.43
549.222	22.74
549.565	23.07
549.908	23.41
550.25	23.71
550.593	24.05
550.936	24.38
551.278	24.71
551.621	25.04
551.963	25.36
552.306	25.65
552.648	25.95
552.991	26.28
553.333	26.61
553.675	26.88
554.017	27.21
554.36	27.52
554.702	27.79
555.044	28.12
555.386	28.43
555.728	28.77
556.07	29.08
556.412	29.39
556.754	29.7
557.096	30.01
557.438	30.32
557.78	30.62
558.121	30.91
558.463	31.21
558.805	31.48
559.147	31.76
559.488	32.13
559.83	32.45
560.171	32.76
560.513	33.07
560.854	33.41
561.196	33.67
561.537	33.92
561.878	34.23
562.22	34.48
562.561	34.79
562.902	35.03
563.243	35.28
563.584	35.52
563.925	35.73
564.266	35.9
564.607	36.14
564.948	36.4
565.289	36.63
565.63	36.83
565.971	37.06
566.312	37.28
566.653	37.48
566.993	37.68
567.334	37.96
567.675	38.17
568.015	38.34
568.356	38.53
568.696	38.76
569.037	38.92
569.377	39.08
569.718	39.24
570.058	39.53
570.398	39.75
570.739	39.96
571.079	40.19
571.419	40.45
571.759	40.65
572.099	40.76
572.439	40.95
572.779	41.13
573.119	41.31
573.459	41.51
573.799	41.66
574.139	41.83
574.479	41.93
574.819	42.06
575.158	42.23
575.498	42.39
575.838	42.58
576.177	42.73
576.517	42.91
576.856	43.07
577.196	43.18
577.535	43.34
577.875	43.52
578.214	43.64
578.553	43.8
578.893	43.89
579.232	44.06
579.571	44.19
579.91	44.35
580.25	44.46
580.589	44.55
580.928	44.74
581.267	44.91
581.606	45.06
581.945	45.2
582.283	45.33
582.622	45.49
582.961	45.56
583.3	45.72
583.639	45.82
583.977	45.96
584.316	46.02
584.654	46.1
584.993	46.18
585.332	46.31
585.67	46.38
586.008	46.55
586.347	46.69
586.685	46.85
587.024	46.95
587.362	47.05
587.7	47.18
588.038	47.25
588.376	47.38
588.715	47.45
589.053	47.56
589.391	47.55
589.729	47.59
590.067	47.69
590.404	47.74
590.742	47.86
591.08	47.92
591.418	48.05
591.756	48.13
592.093	48.22
592.431	48.27
592.769	48.34
593.106	48.44
593.444	48.56
593.781	48.64
594.119	48.72
594.456	48.82
594.793	48.84
595.131	48.88
595.468	48.84
595.805	48.9
596.143	48.92
596.48	49.03
596.817	49.15
597.154	49.2
597.491	49.3
597.828	49.3
598.165	49.36
598.502	49.41
598.839	49.49
599.176	49.52
599.512	49.57
599.849	49.68
600.186	49.67
600.523	49.69
600.859	49.67
601.196	49.78
601.532	49.81
601.869	49.88
602.205	49.86
602.542	50
602.878	50
603.215	50.06
603.551	50.11
603.887	50.1
604.223	50.16
604.56	50.17
604.896	50.19
605.232	50.24
605.568	50.28
605.904	50.32
606.24	50.41
606.576	50.45
606.912	50.45
607.248	50.48
607.583	50.56
607.919	50.7
608.255	50.73
608.591	50.82
608.926	50.89
609.262	51.04
609.597	51.05
609.933	51.2
610.268	51.23
610.604	51.19
610.939	51.24
611.275	51.26
611.61	51.37
611.945	51.5
612.281	51.62
612.616	51.72
612.951	51.73
613.286	51.79
613.621	51.86
613.956	51.9
614.291	51.99
614.626	51.89
614.961	51.82
615.296	51.85
615.631	51.92
615.966	52.04
616.3	52.07
616.635	52.11
616.97	52.04
617.304	52.16
617.639	52.27
617.973	52.27
618.308	52.32
618.642	52.39
618.977	52.34
619.311	52.25
619.646	52.17
619.98	52.14
620.314	52.13
620.648	52.22
620.983	52.26
621.317	52.3
621.651	52.38
621.985	52.51
622.319	52.62
622.653	52.57
622.987	52.57
623.321	52.61
623.655	52.65
623.988	52.78
624.322	52.74
624.656	52.85
624.99	52.89
625.323	52.94
625.657	52.84
625.99	52.89
626.324	52.95
626.657	53.02
626.991	53.09
627.324	53.1
627.658	53.11
627.991	53.23
628.324	53.26
628.657	53.34
628.991	53.35
629.324	53.21
629.657	53.22
629.99	53.21
630.323	53.14
630.656	53.13
630.989	53.12
631.322	53.1
631.655	53.03
631.987	53.15
632.32	53.14
632.653	53.24
632.986	53.33
633.318	53.32
633.651	53.36
633.984	53.44
634.316	53.43
634.649	53.48
634.981	53.38
635.313	53.34
635.646	53.3
635.978	53.26
636.31	53.37
636.643	53.46
636.975	53.48
637.307	53.55
637.639	53.57
637.971	53.49
638.303	53.58
638.635	53.62
638.967	53.62
639.299	53.68
639.631	53.6
639.963	53.6
640.295	53.73
640.626	53.81
640.958	53.78
641.29	53.88
641.621	53.76
641.953	53.84
642.285	53.87
642.616	53.95
642.948	53.94
643.279	53.89
643.61	53.77
643.942	53.76
644.273	53.8
644.604	53.78
644.936	53.92
645.267	53.9
645.598	53.91
645.929	54
646.26	54.04
646.591	54.12
646.922	54.11
647.253	54.16
647.584	54.07
647.915	54.11
648.245	54.09
648.576	54.15
648.907	54.11
649.238	54.08
649.568	54.09
649.899	54.2
650.229	54.26
650.56	54.44
650.89	54.55
651.221	54.5
651.551	54.62
651.882	54.63
652.212	54.65
652.542	54.71
652.872	54.73
653.203	54.68
653.533	54.73
653.863	54.69
654.193	54.56
654.523	54.56
654.853	54.57
655.183	54.57
655.513	54.67
655.843	54.69
656.172	54.81
656.502	54.85
656.832	54.88
657.162	54.96
657.491	54.87
657.821	54.83
658.15	55.07
658.48	54.99
658.809	55.07
659.139	55.06
659.468	55.04
659.798	54.96
660.127	55.01
660.456	55.04
660.785	55.12
661.115	55.23
661.444	55.26
661.773	55.35
662.102	55.48
662.431	55.41
662.76	55.49
663.089	55.4
663.418	55.41
663.747	55.39
664.076	55.37
664.404	55.34
664.733	55.3
665.062	55.11
665.39	55.14
665.719	55
666.048	54.85
666.376	54.88
666.705	54.91
667.033	54.8
667.362	54.81
667.69	54.92
668.018	54.85
668.347	54.88
668.675	54.82
669.003	54.7
669.331	54.82
669.659	54.8
669.987	54.7
670.315	54.65
670.643	54.64
670.971	54.57
671.299	54.74
671.627	54.88
671.955	54.88
672.283	54.96
672.61	55.02
672.938	55.1
673.266	54.98
673.593	55.03
673.921	55.13
674.249	55.11
674.576	54.96
674.904	54.89
675.231	54.83
675.558	54.79
675.886	54.85
676.213	54.85
676.54	54.86
676.867	55.06
677.195	55
677.522	55.01
677.849	55.18
678.176	55.12
678.503	55.04
678.83	54.96
679.157	54.82
679.484	54.77
679.81	54.88
680.137	54.93
680.464	54.82
680.791	54.76
681.117	54.8
681.444	54.79
681.771	54.92
682.097	54.89
682.424	55
682.75	54.91
683.077	54.9
683.403	55.06
683.729	55.07
684.056	55.12
684.382	55.05
684.708	54.91
685.034	54.81
685.36	54.86
685.686	54.86
686.012	54.93
686.339	54.99
686.664	54.96
686.99	55.03
687.316	55.15
687.642	55.2
687.968	55.07
688.294	55.2
688.619	55.08
688.945	55.15
689.271	55.22
689.596	55.27
689.922	55.18
690.247	54.99
690.573	54.99
690.898	54.99
691.224	55.06
691.549	55.15
691.874	55.28
692.2	55.2
692.525	55.41
692.85	55.4
693.175	55.56
693.5	55.53
693.825	55.5
694.15	55.4
694.475	55.46
694.8	55.48
695.125	55.22
695.45	55.2
695.775	55.25
696.099	55.13
696.424	55.12
696.749	55.16
697.073	55.11
697.398	55.14
697.723	55.27
698.047	55.17
698.372	55.12
698.696	55.05
699.02	55.08
699.345	54.94
699.669	54.94
699.993	54.82
700.318	54.93
700.642	55.05
700.966	54.96
701.29	54.86
701.614	54.86
701.938	55.09
702.262	55.14
702.586	55.22
702.91	55.23
703.234	55.21
703.557	55.23
703.881	55.3
704.205	55.31
704.529	55.2
704.852	55.29
705.176	55.31
705.499	55.32
705.823	55.36
706.146	55.49
706.47	55.62
706.793	55.62
707.117	55.63
707.44	55.47
707.763	55.63
708.086	55.75
708.409	55.78
708.733	55.58
709.056	55.68
709.379	55.57
709.702	55.32
710.025	55.41
710.348	55.47
710.671	55.39
710.993	55.39
711.316	55.36
711.639	55.31
711.962	55.27
712.284	55.27
712.607	55.17
712.93	55.14
713.252	55.09
713.575	55.01
713.897	54.9
714.22	55.09
714.542	55.01
714.864	54.97
715.187	54.82
715.509	54.96
715.831	54.99
716.153	54.96
716.475	55.05
716.798	54.97
717.12	54.71
717.442	54.74
717.764	54.72
718.085	54.59
718.407	54.65
718.729	54.77
719.051	54.7
719.373	54.75
719.695	54.79
720.016	54.76
720.338	54.9
720.659	54.93
720.981	54.87
721.302	55.24
721.624	55.23
721.945	55.37
722.267	55.51
722.588	55.55
722.909	55.52
723.231	55.63
723.552	55.69
723.873	55.86
724.194	55.75
724.515	55.66
724.836	55.97
725.157	55.89
725.478	55.91
725.799	56.05
726.12	56.11
726.441	56.13
726.762	56.26
727.083	56.18
727.403	56.09
727.724	56.17
728.045	55.82
728.365	55.7
728.686	55.75
729.006	55.81
729.327	55.75
729.647	56.08
729.967	56.06
730.288	56.21
730.608	56.1
730.928	56.32
731.249	56.26
731.569	56.14
731.889	56.13
732.209	56
732.529	55.88
732.849	55.76
733.169	55.55
733.489	55.41
733.809	55.42
734.129	55.65
734.448	55.51
734.768	55.47
735.088	55.69
735.408	55.82
735.727	55.45
736.047	55.51
736.366	55.18
736.686	55.29
737.005	55.31
737.325	55.44
737.644	55.41
737.963	55.59
738.283	55.71
738.602	55.61
738.921	55.62
739.24	55.75
739.56	55.79
739.879	56
740.198	56.08
740.517	55.98
740.836	55.58
741.155	55.51
741.473	55.75
741.792	55.49
742.111	55.37
742.43	55.52
742.748	55.51
743.067	55.56
743.386	55.46
743.704	55.4
744.023	55.47
744.341	55.41
744.66	55.32
744.978	55.31
745.297	55.64
745.615	55.53
745.933	55.73
746.252	56.27
746.57	56.44
746.888	56.54
747.206	56.79
747.524	57.05
747.842	56.9
748.16	57.02
748.478	57.17
748.796	56.79
749.114	56.65
749.432	56.28
749.749	56.32
750.067	56.64
750.385	56.6
750.703	56.43
751.02	56.38
751.338	56.36
751.655	56.3
751.973	56.38
752.29	56.63
752.608	56.18
752.925	55.69
753.242	55.6
753.56	55.68
753.877	55.65
754.194	55.65
754.511	55.71
754.828	55.45
755.145	55.36
755.462	55.97
755.779	56.2
756.096	56.4
756.413	56.51
756.73	56.29
757.047	56.28
757.364	56.26
757.68	56.54
757.997	56.37
758.314	56.55
758.63	56.26
758.947	56.13
759.264	56.26
759.58	56
759.896	55.98
760.213	55.92
760.529	55.76
760.846	55.71
761.162	56.01
761.478	56.02
761.794	56.12
762.11	55.77
762.426	55.71
762.743	55.9
763.059	56.16
763.375	55.92
763.69	55.93
764.006	56.13
764.322	56.01
764.638	56.23
764.954	56.24
765.27	56.32
765.585	56.39
765.901	56.66
766.216	56.94
766.532	56.82
766.848	56.81
767.163	57.08
767.478	57.26
767.794	56.98
768.109	56.95
768.424	57.07
768.74	57.39
769.055	57.65
769.37	57.6
769.685	57.32
770	57.72
770.315	57.56
770.63	57.45
770.945	57.46
771.26	57.61
771.575	57.45
771.89	57.51
772.205	57.78
772.52	57.53
772.834	57.16
773.149	57.12
773.464	57.12
773.778	57.23
774.093	56.93
774.407	57.08
774.722	57.6
775.036	57.58
775.351	57.43
775.665	57.25
775.979	57.3
776.293	56.93
776.608	56.63
776.922	56.87
777.236	56.93
777.55	57.29
777.864	56.81
778.178	56.61
778.492	56.67
778.806	56.3
779.12	56.05
779.434	56.6
779.747	56.76
780.061	56.97
780.375	56.69
780.689	56.6
781.002	56.59
781.316	56.21
781.629	56.21
781.943	56.34
782.256	56.04
782.57	55.95
782.883	56.13
783.196	55.81
783.51	55.8
783.823	55.96
784.136	55.73
784.449	56.17
784.762	56.39
785.075	56.06
785.388	55.9
785.701	56.33
786.014	55.57
786.327	55.53
786.64	55.02
786.953	54.73
787.266	54.63
787.578	54.75
787.891	54.82
788.204	54.55
788.516	54.37
788.829	54.43
789.141	54.64
789.454	55.14
789.766	55.28
790.079	54.72
790.391	54.31
790.703	54.17
791.016	53.98
791.328	54.21
791.64	54.09
791.952	54.67
792.264	54.3
792.576	54.93
792.888	55.23
793.2	55.89
793.512	56.27
793.824	56.57
794.136	56.79
794.448	56.51
794.76	56.77
795.071	57.04
795.383	57.16
795.695	56.94
796.006	56.33
796.318	56.7
796.629	57.78
796.941	58.69
797.252	58.72
797.564	58.97
797.875	58.59
798.186	59.14
798.497	59.07
798.809	59.12
799.12	59.06
799.431	58.77
799.742	58.5
800.053	58.21
800.364	58.64
800.675	58.36
800.986	58.41
801.297	58.22
801.608	57.5
801.918	57.63
802.229	57.61
802.54	57.65
802.851	57.69
803.161	57.35
803.472	56.8
803.782	56.57
804.093	56.27
804.403	56.72
804.714	57.33
805.024	56.64
805.334	57.85
805.645	57.83
805.955	57.94
806.265	58.94
806.575	59.16
806.885	59.01
807.195	58.58
807.505	58.8
807.815	58.82
808.125	59.63
808.435	59.43
808.745	59.38
809.055	59.97
809.365	60.09
809.674	60.29
809.984	60.22
810.294	60.39
810.603	60.97
810.913	60.43
811.222	59.44
811.532	59.9
811.841	59.39
812.151	59.53
812.46	59.77
812.769	58.03
813.079	57.71
813.388	57.66
813.697	58.28
814.006	58.42
814.315	58.65
814.624	58.06
814.933	58.33
815.242	58.34
815.551	58.23
815.86	58.5
816.169	58.46
816.478	57.58
816.786	57.76
817.095	57.39
817.404	57.64
817.712	58.05
818.021	58.4
818.33	57.59
818.638	57.39
818.947	56.76
819.255	57.05
819.563	56.69
819.872	56.87
820.18	56.58
820.488	56.64
820.796	56.49
821.105	56.43
821.413	56.43
821.721	56.48
822.029	56.49
822.337	56.51
822.645	56.35
822.953	56.64
823.26	56.69
823.568	56.72
823.876	56.86
824.184	56.87
824.491	56.93
824.799	56.91
825.107	56.87
825.414	56.94
825.722	56.96
826.029	57.18
826.337	57.01
826.644	57.17
826.951	57.04
827.259	57.14
827.566	57.36
827.873	57.6
828.18	57.67
828.488	57.56
828.795	57.52
829.102	57.62
829.409	57.42
829.716	57.17
830.023	57.15
830.329	56.68
830.636	56.33
830.943	56.02
831.25	56.02
831.557	56.27
831.863	56.56
832.17	56.32
832.476	56.52
832.783	56.58
833.089	56.67
833.396	56.85
833.702	56.97
834.009	57.27
834.315	56.66
834.621	56.24
834.928	56.04
835.234	55.77
835.54	55.89
835.846	56.03
836.152	56.15
836.458	55.82
836.764	56.42
837.07	56.48
837.376	56.84
837.682	57.22
837.988	56.99
838.293	56.5
838.599	56.86
838.905	56.67
839.211	56.92
839.516	56.67
839.822	56.66
840.127	56.07
840.433	55.34
840.738	56.4
841.044	57.47
841.349	57.49
841.654	57.8
841.959	57.56
842.265	57.56
842.57	58.45
842.875	59.48
843.18	58.9
843.485	59.57
843.79	58.46
844.095	57.53
844.4	57.17
844.705	57.82
845.01	58.14
845.315	56.94
845.619	56.55
845.924	56.28
846.229	56.84
846.533	56.35
846.838	56.88
847.142	54.63
847.447	52.05
847.751	53.53
848.056	52.32
848.36	52.57
848.664	53.44
848.969	54.81
849.273	53.33
849.577	53.46
849.881	53.07
850.185	51.98
850.489	54.6
850.794	56.9
851.097	58.34
851.401	57.09
851.705	58.58
852.009	59.1
852.313	58.78
852.617	57.13
852.92	59.52
853.224	58.88
853.528	61.62
853.831	63.51
854.135	62.56
854.438	63.93
854.742	63.78
855.045	60.49
855.349	59.48
855.652	59.94
855.955	59.37
856.259	58.25
856.562	60.34
856.865	58.08
857.168	54.68
857.471	53.91
857.774	53.31
858.077	54.11
858.38	55.07
858.683	55.53
858.986	57.38
859.289	56.14
859.592	56.98
859.894	55.11
860.197	56.75
860.5	57.66
860.802	59.71
861.105	57.92
861.407	59.64
861.71	59.54
862.012	60.61
862.315	61.24
862.617	60.91
862.919	59.36
863.222	58.9
863.524	60.57
863.826	62.41
864.128	64.79
864.43	63.16
864.732	61.98
865.034	62.84
865.336	62.59
865.638	62.85
865.94	61.2
866.242	64.74
866.544	63.39
866.846	66.58
867.147	63.93
867.449	67.82
867.751	69.03
868.052	66.23
868.354	66.52
868.655	66.76
868.957	66.69
869.258	68.1
869.56	67.69
869.861	67.43
870.162	63.61
870.463	62.68
870.765	65.27
871.066	64.38
871.367	63.4
871.668	61.97
871.969	62.01
872.27	62.59
872.571	60.46
872.872	60.17
873.173	54.96
873.473	52.77
873.774	51.37
874.075	50.06
874.376	50.31
874.676	49.01
874.977	49.83
875.277	50.26
875.578	49.12
875.878	50.18
876.179	50.21
876.479	50.82
876.78	50.36
877.08	48.84
877.38	48.38
877.68	48.76
877.981	49.31
878.281	48.09
878.581	47.36
