Data from BA28300_Reflection_00001.txt Node
Date: Mon Nov 18 15:57:58 EST 2019
User: vgr7
Spectrometer: USB2G7710
Scans to average: 3
Trigger mode: 4
Integration Time (sec): 2.000000E-2
Electric dark correction enabled: true
Boxcar width: 10
XAxis mode: Wavelengths
Number of Pixels in Spectrum: 2048
>>>>>Begin Spectral Data<<<<<
177.721	-461.36
178.105	-2135.29
178.488	219.9
178.871	78.43
179.254	283.39
179.636	-22.42
180.019	-142.59
180.402	88.89
180.785	136.51
181.168	187.98
181.55	633.83
181.933	181.23
182.316	212.93
182.698	173.44
183.081	198.02
183.463	188.21
183.846	215.6
184.228	224.72
184.611	404.7
184.993	-3942.25
185.376	-19958.82
185.758	1247.6
186.14	1155.36
186.522	671.73
186.904	652.36
187.287	1555.6
187.669	-490.29
188.051	-3030.84
188.433	6397.3
188.815	-253.48
189.197	-404.49
189.579	-312.95
189.961	-764.95
190.342	-900
190.724	-280.88
191.106	-251.35
191.488	-256.85
191.869	-372.17
192.251	-582.45
192.633	-719.4
193.014	709.33
193.396	376.41
193.777	-665.12
194.159	1191.43
194.54	-13252.94
194.922	1188.4
195.303	-1978.65
195.684	-3942.25
196.065	-641.47
196.447	-504.31
196.828	-1324.44
197.209	-542.32
197.59	-1111.14
197.971	-741.76
198.352	-254.15
198.733	-269.81
199.114	-234.37
199.495	-266.46
199.876	-192.16
200.257	-178.33
200.638	-131.61
201.018	-111.14
201.399	-112.76
201.78	-148.38
202.16	-164.69
202.541	-241.33
202.922	-487.37
203.302	-1015.63
203.683	-793.1
204.063	-368.35
204.444	-239.36
204.824	-258.64
205.204	-395.54
205.585	-195.44
205.965	-186.9
206.345	-333.37
206.725	-956.47
207.106	-3925.21
207.486	-1418.73
207.866	-5887.95
208.246	-848.61
208.626	-604.51
209.006	-302.21
209.386	-369.12
209.766	-523.59
210.145	-286.31
210.525	-213.51
210.905	-132.65
211.285	-104.01
211.664	-97.66
212.044	-71.07
212.424	-102.34
212.803	-75.52
213.183	-47.25
213.562	-42.17
213.942	-8.52
214.321	20.08
214.701	38.94
215.08	36.96
215.459	62.55
215.838	57.39
216.218	39.1
216.597	50.86
216.976	53.56
217.355	66.17
217.734	76.52
218.113	96.83
218.492	62.57
218.871	56.06
219.25	58.37
219.629	65.46
220.008	42.8
220.387	32.98
220.766	26.32
221.144	22.64
221.523	11.74
221.902	1.73
222.28	-12.99
222.659	-10.2
223.037	-6.35
223.416	-20.3
223.794	-20.12
224.173	-21.99
224.551	-22.48
224.929	-15.06
225.308	-14.89
225.686	-17.47
226.064	-21.14
226.442	-23.08
226.821	-15.62
227.199	-15.78
227.577	-15.47
227.955	-13.92
228.333	-8.78
228.711	-5.57
229.089	-4.07
229.467	-4.3
229.845	-5.05
230.222	-0.43
230.6	0.61
230.978	0.65
231.356	4.76
231.733	5.02
232.111	5.82
232.488	4.23
232.866	4.05
233.243	4.56
233.621	6.32
233.998	7.74
234.376	8.82
234.753	8.59
235.13	8.85
235.508	9.23
235.885	8.62
236.262	6.02
236.639	6.96
237.016	5.91
237.393	7.74
237.77	7.57
238.147	6.58
238.524	5.57
238.901	5.74
239.278	4.37
239.655	4.91
240.032	5.41
240.409	5.9
240.785	5.69
241.162	5.2
241.539	5.21
241.915	4.76
242.292	4.76
242.668	4.56
243.045	4.46
243.421	4.37
243.798	4.4
244.174	4.39
244.551	4.14
244.927	4.29
245.303	4.01
245.679	4.1
246.056	4.02
246.432	4.12
246.808	3.98
247.184	4.15
247.56	4.05
247.936	3.93
248.312	3.67
248.688	3.67
249.064	3.73
249.44	3.83
249.815	3.93
250.191	3.73
250.567	3.56
250.943	3.26
251.318	3.21
251.694	3.24
252.069	3.07
252.445	3.03
252.82	2.98
253.196	3.06
253.571	3
253.947	2.93
254.322	2.91
254.697	2.91
255.073	2.74
255.448	2.37
255.823	2.77
256.198	3.11
256.573	3.23
256.948	3.46
257.323	3.24
257.698	3.1
258.073	3.39
258.448	3.73
258.823	3.92
259.198	4.04
259.573	4.17
259.948	4.16
260.322	4.09
260.697	4.07
261.072	3.91
261.446	3.94
261.821	4.09
262.195	4.35
262.57	4.19
262.944	4.22
263.319	4.41
263.693	4.12
264.067	4.27
264.442	4.3
264.816	4.25
265.19	4.38
265.564	4.58
265.938	4.5
266.313	4.23
266.687	4.18
267.061	4.08
267.435	4.09
267.809	4.16
268.183	4.18
268.556	4.1
268.93	4.01
269.304	3.93
269.678	3.92
270.051	3.72
270.425	3.95
270.799	3.85
271.172	3.89
271.546	4.02
271.919	3.81
272.293	3.8
272.666	3.86
273.04	3.76
273.413	3.63
273.787	3.62
274.16	3.75
274.533	3.84
274.906	3.77
275.279	3.67
275.653	3.69
276.026	3.76
276.399	3.77
276.772	3.99
277.145	3.94
277.518	3.86
277.891	3.73
278.263	3.61
278.636	3.81
279.009	3.83
279.382	3.83
279.755	3.72
280.127	3.82
280.5	3.66
280.872	3.85
281.245	3.86
281.617	3.85
281.99	3.75
282.362	3.75
282.735	3.65
283.107	3.56
283.479	3.58
283.852	3.42
284.224	3.43
284.596	3.44
284.968	3.55
285.34	3.58
285.713	3.65
286.085	3.83
286.457	3.95
286.829	3.91
287.201	3.8
287.572	3.72
287.944	3.64
288.316	3.65
288.688	3.54
289.06	3.51
289.431	3.47
289.803	3.6
290.175	3.57
290.546	3.79
290.918	3.92
291.289	4.12
291.661	4.32
292.032	4.29
292.403	4.2
292.775	4.35
293.146	4.38
293.517	4.3
293.889	4.19
294.26	4.14
294.631	4.19
295.002	4.1
295.373	4.26
295.744	4.27
296.115	4.5
296.486	4.51
296.857	4.55
297.228	4.74
297.599	4.64
297.97	4.49
298.34	4.35
298.711	4.31
299.082	4.16
299.452	4.1
299.823	4.21
300.194	4.27
300.564	4.18
300.935	4.16
301.305	4.28
301.676	4.36
302.046	4.21
302.416	4.15
302.787	4.22
303.157	4.2
303.527	4.12
303.897	3.95
304.267	4
304.637	4.06
305.008	3.94
305.378	4.14
305.748	4.34
306.117	4.23
306.487	4.32
306.857	4.32
307.227	4.45
307.597	4.41
307.967	4.27
308.336	4.24
308.706	4.15
309.076	4.23
309.445	4.16
309.815	4.25
310.184	4.23
310.554	4.33
310.923	4.35
311.293	4.32
311.662	4.34
312.031	4.25
312.401	4.27
312.77	4.27
313.139	4.16
313.508	4.15
313.877	4.22
314.246	4.2
314.616	4.26
314.985	4.16
315.353	4.1
315.722	4.2
316.091	4.04
316.46	3.98
316.829	3.94
317.198	3.94
317.567	3.88
317.935	3.89
318.304	3.94
318.672	3.82
319.041	4.05
319.41	3.97
319.778	3.9
320.147	3.84
320.515	3.74
320.883	3.6
321.252	3.76
321.62	3.97
321.988	3.97
322.357	3.81
322.725	3.77
323.093	3.73
323.461	3.8
323.829	3.88
324.197	4.04
324.565	4.03
324.933	4.1
325.301	4.16
325.669	4.15
326.037	4.1
326.405	4.1
326.772	4.08
327.14	4.08
327.508	4.26
327.875	4.28
328.243	4.33
328.61	4.43
328.978	4.27
329.346	4.3
329.713	4.22
330.08	4.31
330.448	4.24
330.815	4.23
331.182	4.16
331.55	4.16
331.917	4.12
332.284	4.09
332.651	4.02
333.018	3.97
333.385	3.9
333.752	3.84
334.119	3.88
334.486	3.81
334.853	3.91
335.22	3.83
335.587	3.79
335.954	3.87
336.32	3.84
336.687	3.79
337.054	3.7
337.42	3.76
337.787	3.79
338.153	3.81
338.52	3.9
338.886	3.92
339.253	3.97
339.619	4
339.986	3.98
340.352	4.07
340.718	4.13
341.084	4.1
341.451	4.16
341.817	4.22
342.183	4.11
342.549	4.07
342.915	4.05
343.281	4.09
343.647	3.95
344.013	4.02
344.379	4
344.745	4
345.11	4.06
345.476	4.05
345.842	4.05
346.208	3.99
346.573	3.95
346.939	3.95
347.304	3.78
347.67	3.73
348.035	3.73
348.401	3.76
348.766	3.83
349.132	3.84
349.497	3.81
349.862	3.96
350.228	3.95
350.593	4.06
350.958	4
351.323	4.02
351.688	4.04
352.053	4.17
352.418	4.17
352.783	4.14
353.148	4.12
353.513	4.15
353.878	4.25
354.243	4.29
354.608	4.28
354.972	4.37
355.337	4.45
355.702	4.47
356.066	4.46
356.431	4.41
356.795	4.41
357.16	4.39
357.524	4.28
357.889	4.26
358.253	4.23
358.618	4.28
358.982	4.32
359.346	4.22
359.71	4.13
360.075	4.08
360.439	4.05
360.803	4.09
361.167	4.08
361.531	4.05
361.895	4
362.259	3.96
362.623	4.06
362.987	4.04
363.351	3.98
363.714	3.96
364.078	4.01
364.442	4
364.806	4
365.169	4.03
365.533	4.03
365.896	4.03
366.26	3.98
366.623	3.92
366.987	4.03
367.35	4.01
367.714	4.07
368.077	4.1
368.44	4.04
368.803	4.04
369.167	4.02
369.53	4.03
369.893	4.08
370.256	4.04
370.619	4.06
370.982	4.09
371.345	4.09
371.708	4.11
372.071	4.09
372.434	4.11
372.797	4.12
373.159	4.12
373.522	4.15
373.885	4.2
374.247	4.24
374.61	4.25
374.973	4.26
375.335	4.21
375.698	4.25
376.06	4.29
376.423	4.32
376.785	4.37
377.147	4.43
377.51	4.42
377.872	4.36
378.234	4.37
378.596	4.34
378.958	4.3
379.321	4.31
379.683	4.31
380.045	4.31
380.407	4.34
380.769	4.32
381.13	4.32
381.492	4.32
381.854	4.31
382.216	4.26
382.578	4.3
382.939	4.3
383.301	4.24
383.663	4.21
384.024	4.19
384.386	4.19
384.747	4.18
385.109	4.21
385.47	4.24
385.832	4.2
386.193	4.22
386.554	4.27
386.916	4.23
387.277	4.23
387.638	4.26
387.999	4.25
388.36	4.23
388.721	4.21
389.082	4.19
389.443	4.14
389.804	4.18
390.165	4.16
390.526	4.2
390.887	4.16
391.248	4.22
391.609	4.24
391.969	4.21
392.33	4.24
392.691	4.23
393.051	4.24
393.412	4.27
393.772	4.25
394.133	4.2
394.493	4.22
394.854	4.21
395.214	4.18
395.574	4.19
395.935	4.2
396.295	4.21
396.655	4.22
397.015	4.26
397.376	4.23
397.736	4.25
398.096	4.24
398.456	4.29
398.816	4.26
399.176	4.21
399.535	4.2
399.895	4.18
400.255	4.18
400.615	4.16
400.975	4.17
401.334	4.16
401.694	4.17
402.054	4.17
402.413	4.18
402.773	4.14
403.132	4.11
403.492	4.11
403.851	4.1
404.211	4.07
404.57	4.08
404.929	4.12
405.288	4.11
405.648	4.1
406.007	4.13
406.366	4.13
406.725	4.18
407.084	4.2
407.443	4.2
407.802	4.23
408.161	4.22
408.52	4.2
408.879	4.21
409.238	4.24
409.596	4.24
409.955	4.26
410.314	4.34
410.673	4.37
411.031	4.38
411.39	4.39
411.748	4.42
412.107	4.43
412.465	4.4
412.824	4.42
413.182	4.42
413.54	4.44
413.899	4.45
414.257	4.44
414.615	4.42
414.974	4.41
415.332	4.38
415.69	4.37
416.048	4.37
416.406	4.41
416.764	4.37
417.122	4.39
417.48	4.38
417.838	4.35
418.195	4.36
418.553	4.36
418.911	4.37
419.269	4.37
419.626	4.36
419.984	4.38
420.342	4.37
420.699	4.37
421.057	4.37
421.414	4.36
421.772	4.36
422.129	4.38
422.486	4.39
422.844	4.4
423.201	4.41
423.558	4.41
423.915	4.42
424.273	4.44
424.63	4.45
424.987	4.46
425.344	4.47
425.701	4.46
426.058	4.48
426.415	4.47
426.772	4.47
427.128	4.47
427.485	4.46
427.842	4.47
428.199	4.48
428.555	4.47
428.912	4.47
429.269	4.47
429.625	4.46
429.982	4.45
430.338	4.46
430.695	4.46
431.051	4.45
431.407	4.43
431.764	4.43
432.12	4.41
432.476	4.42
432.832	4.41
433.189	4.42
433.545	4.4
433.901	4.42
434.257	4.41
434.613	4.42
434.969	4.43
435.325	4.45
435.681	4.44
436.036	4.43
436.392	4.44
436.748	4.44
437.104	4.44
437.459	4.43
437.815	4.41
438.171	4.43
438.526	4.44
438.882	4.45
439.237	4.46
439.593	4.45
439.948	4.43
440.304	4.45
440.659	4.45
441.014	4.45
441.369	4.46
441.725	4.45
442.08	4.47
442.435	4.46
442.79	4.45
443.145	4.46
443.5	4.47
443.855	4.47
444.21	4.46
444.565	4.45
444.92	4.46
445.275	4.47
445.629	4.46
445.984	4.45
446.339	4.44
446.693	4.44
447.048	4.44
447.403	4.46
447.757	4.44
448.112	4.43
448.466	4.42
448.82	4.4
449.175	4.42
449.529	4.41
449.883	4.41
450.238	4.41
450.592	4.41
450.946	4.42
451.3	4.41
451.654	4.41
452.008	4.43
452.362	4.44
452.716	4.44
453.07	4.45
453.424	4.48
453.778	4.47
454.132	4.46
454.486	4.46
454.839	4.45
455.193	4.44
455.547	4.43
455.9	4.45
456.254	4.45
456.607	4.44
456.961	4.44
457.314	4.45
457.668	4.46
458.021	4.44
458.375	4.42
458.728	4.43
459.081	4.43
459.434	4.42
459.787	4.43
460.141	4.41
460.494	4.41
460.847	4.4
461.2	4.41
461.553	4.42
461.906	4.42
462.259	4.43
462.611	4.44
462.964	4.45
463.317	4.45
463.67	4.45
464.022	4.46
464.375	4.45
464.728	4.44
465.08	4.44
465.433	4.49
465.785	4.51
466.138	4.5
466.49	4.5
466.843	4.5
467.195	4.49
467.547	4.52
467.899	4.53
468.252	4.52
468.604	4.51
468.956	4.49
469.308	4.5
469.66	4.51
470.012	4.5
470.364	4.51
470.716	4.53
471.068	4.51
471.42	4.52
471.772	4.53
472.123	4.55
472.475	4.55
472.827	4.55
473.178	4.56
473.53	4.57
473.882	4.58
474.233	4.58
474.585	4.56
474.936	4.56
475.288	4.55
475.639	4.56
475.99	4.57
476.342	4.58
476.693	4.58
477.044	4.58
477.395	4.58
477.746	4.59
478.097	4.57
478.448	4.59
478.8	4.59
479.15	4.57
479.501	4.57
479.852	4.56
480.203	4.54
480.554	4.56
480.905	4.58
481.255	4.58
481.606	4.59
481.957	4.61
482.307	4.61
482.658	4.63
483.009	4.64
483.359	4.63
483.709	4.64
484.06	4.64
484.41	4.64
484.761	4.65
485.111	4.66
485.461	4.67
485.811	4.66
486.162	4.68
486.512	4.69
486.862	4.69
487.212	4.68
487.562	4.69
487.912	4.69
488.262	4.69
488.612	4.69
488.961	4.69
489.311	4.7
489.661	4.71
490.011	4.7
490.36	4.7
490.71	4.71
491.06	4.71
491.409	4.72
491.759	4.71
492.108	4.72
492.458	4.72
492.807	4.71
493.157	4.71
493.506	4.71
493.855	4.7
494.204	4.7
494.554	4.72
494.903	4.71
495.252	4.71
495.601	4.72
495.95	4.72
496.299	4.72
496.648	4.71
496.997	4.68
497.346	4.69
497.695	4.72
498.043	4.73
498.392	4.72
498.741	4.74
499.09	4.75
499.438	4.74
499.787	4.73
500.135	4.76
500.484	4.8
500.832	4.76
501.181	4.76
501.529	4.77
501.878	4.79
502.226	4.79
502.574	4.78
502.923	4.78
503.271	4.79
503.619	4.81
503.967	4.81
504.315	4.83
504.663	4.82
505.011	4.84
505.359	4.82
505.707	4.84
506.055	4.83
506.403	4.85
506.751	4.85
507.098	4.87
507.446	4.89
507.794	4.87
508.141	4.88
508.489	4.89
508.837	4.9
509.184	4.9
509.531	4.91
509.879	4.94
510.226	4.93
510.574	4.94
510.921	4.94
511.268	4.93
511.616	4.94
511.963	4.94
512.31	4.92
512.657	4.94
513.004	4.93
513.351	4.95
513.698	4.93
514.045	4.95
514.392	4.95
514.739	4.96
515.086	4.98
515.432	5.01
515.779	5.01
516.126	5.02
516.473	5.02
516.819	5.01
517.166	5.01
517.512	5
517.859	5
518.205	5
518.552	5.01
518.898	5
519.245	5
519.591	5
519.937	4.98
520.283	4.98
520.629	4.98
520.976	5
521.322	5.03
521.668	5.02
522.014	4.99
522.36	5
522.706	4.97
523.052	4.98
523.398	4.99
523.743	5
524.089	5.02
524.435	5.02
524.781	5.05
525.126	5.05
525.472	5.06
525.817	5.08
526.163	5.1
526.509	5.1
526.854	5.09
527.199	5.11
527.545	5.11
527.89	5.12
528.235	5.12
528.581	5.12
528.926	5.14
529.271	5.14
529.616	5.14
529.961	5.16
530.306	5.15
530.651	5.14
530.996	5.16
531.341	5.16
531.686	5.16
532.031	5.16
532.376	5.18
532.721	5.18
533.065	5.18
533.41	5.18
533.755	5.18
534.099	5.2
534.444	5.23
534.788	5.24
535.133	5.24
535.477	5.24
535.822	5.23
536.166	5.22
536.51	5.23
536.855	5.23
537.199	5.23
537.543	5.25
537.887	5.27
538.231	5.26
538.576	5.26
538.92	5.27
539.264	5.27
539.608	5.26
539.951	5.26
540.295	5.26
540.639	5.26
540.983	5.26
541.327	5.24
541.671	5.22
542.014	5.22
542.358	5.21
542.701	5.22
543.045	5.22
543.389	5.23
543.732	5.23
544.075	5.23
544.419	5.22
544.762	5.22
545.105	5.22
545.449	5.23
545.792	5.22
546.135	5.22
546.478	5.2
546.821	5.19
547.165	5.21
547.508	5.24
547.851	5.25
548.194	5.26
548.536	5.26
548.879	5.28
549.222	5.28
549.565	5.28
549.908	5.29
550.25	5.28
550.593	5.28
550.936	5.28
551.278	5.27
551.621	5.28
551.963	5.28
552.306	5.27
552.648	5.27
552.991	5.29
553.333	5.28
553.675	5.27
554.017	5.3
554.36	5.27
554.702	5.26
555.044	5.25
555.386	5.26
555.728	5.28
556.07	5.25
556.412	5.24
556.754	5.25
557.096	5.24
557.438	5.24
557.78	5.24
558.121	5.23
558.463	5.27
558.805	5.27
559.147	5.26
559.488	5.25
559.83	5.29
560.171	5.28
560.513	5.29
560.854	5.3
561.196	5.28
561.537	5.28
561.878	5.27
562.22	5.26
562.561	5.27
562.902	5.28
563.243	5.3
563.584	5.34
563.925	5.32
564.266	5.32
564.607	5.33
564.948	5.35
565.289	5.39
565.63	5.38
565.971	5.38
566.312	5.39
566.653	5.39
566.993	5.35
567.334	5.36
567.675	5.36
568.015	5.38
568.356	5.38
568.696	5.41
569.037	5.4
569.377	5.43
569.718	5.45
570.058	5.47
570.398	5.46
570.739	5.43
571.079	5.43
571.419	5.44
571.759	5.42
572.099	5.4
572.439	5.38
572.779	5.36
573.119	5.4
573.459	5.41
573.799	5.43
574.139	5.46
574.479	5.47
574.819	5.48
575.158	5.48
575.498	5.51
575.838	5.51
576.177	5.5
576.517	5.48
576.856	5.46
577.196	5.44
577.535	5.47
577.875	5.51
578.214	5.52
578.553	5.53
578.893	5.55
579.232	5.58
579.571	5.58
579.91	5.6
580.25	5.58
580.589	5.56
580.928	5.59
581.267	5.53
581.606	5.52
581.945	5.52
582.283	5.47
582.622	5.44
582.961	5.46
583.3	5.5
583.639	5.53
583.977	5.55
584.316	5.52
584.654	5.49
584.993	5.48
585.332	5.48
585.67	5.46
586.008	5.47
586.347	5.43
586.685	5.43
587.024	5.43
587.362	5.46
587.7	5.51
588.038	5.47
588.376	5.5
588.715	5.49
589.053	5.5
589.391	5.53
589.729	5.56
590.067	5.51
590.404	5.51
590.742	5.49
591.08	5.45
591.418	5.46
591.756	5.47
592.093	5.46
592.431	5.48
592.769	5.52
593.106	5.53
593.444	5.5
593.781	5.51
594.119	5.5
594.456	5.44
594.793	5.4
595.131	5.37
595.468	5.37
595.805	5.37
596.143	5.36
596.48	5.38
596.817	5.36
597.154	5.38
597.491	5.36
597.828	5.37
598.165	5.39
598.502	5.37
598.839	5.36
599.176	5.35
599.512	5.33
599.849	5.32
600.186	5.32
600.523	5.38
600.859	5.41
601.196	5.42
601.532	5.44
601.869	5.45
602.205	5.52
602.542	5.53
602.878	5.53
603.215	5.53
603.551	5.55
603.887	5.56
604.223	5.58
604.56	5.62
604.896	5.63
605.232	5.62
605.568	5.65
605.904	5.68
606.24	5.73
606.576	5.73
606.912	5.73
607.248	5.74
607.583	5.73
607.919	5.72
608.255	5.77
608.591	5.8
608.926	5.81
609.262	5.82
609.597	5.84
609.933	5.86
610.268	5.86
610.604	5.88
610.939	5.9
611.275	5.9
611.61	5.88
611.945	5.88
612.281	5.89
612.616	5.9
612.951	5.91
613.286	5.9
613.621	5.92
613.956	5.91
614.291	5.92
614.626	5.92
614.961	5.94
615.296	5.91
615.631	5.9
615.966	5.89
616.3	5.84
616.635	5.82
616.97	5.88
617.304	5.89
617.639	5.88
617.973	5.88
618.308	5.88
618.642	5.9
618.977	5.92
619.311	5.93
619.646	5.93
619.98	5.92
620.314	5.91
620.648	5.92
620.983	5.89
621.317	5.87
621.651	5.85
621.985	5.89
622.319	5.9
622.653	5.91
622.987	5.92
623.321	5.93
623.655	5.93
623.988	5.91
624.322	5.88
624.656	5.91
624.99	5.93
625.323	5.92
625.657	5.94
625.99	5.93
626.324	5.91
626.657	5.88
626.991	5.87
627.324	5.87
627.658	5.86
627.991	5.92
628.324	5.94
628.657	5.94
628.991	5.88
629.324	5.87
629.657	5.85
629.99	5.85
630.323	5.84
630.656	5.86
630.989	5.89
631.322	5.93
631.655	5.87
631.987	5.86
632.32	5.86
632.653	5.85
632.986	5.84
633.318	5.87
633.651	5.88
633.984	5.9
634.316	5.9
634.649	5.9
634.981	5.88
635.313	5.87
635.646	5.88
635.978	5.89
636.31	5.87
636.643	5.87
636.975	5.89
637.307	5.89
637.639	5.87
637.971	5.85
638.303	5.83
638.635	5.83
638.967	5.82
639.299	5.84
639.631	5.8
639.963	5.78
640.295	5.79
640.626	5.79
640.958	5.86
641.29	5.89
641.621	5.87
641.953	5.85
642.285	5.83
642.616	5.81
642.948	5.84
643.279	5.88
643.61	5.89
643.942	5.87
644.273	5.89
644.604	5.91
644.936	5.86
645.267	5.75
645.598	5.75
645.929	5.73
646.26	5.76
646.591	5.8
646.922	5.86
647.253	5.85
647.584	5.87
647.915	5.81
648.245	5.81
648.576	5.88
648.907	5.83
649.238	5.86
649.568	5.9
649.899	5.84
650.229	5.85
650.56	5.84
650.89	5.86
651.221	5.86
651.551	5.74
651.882	5.79
652.212	5.88
652.542	5.88
652.872	5.88
653.203	5.85
653.533	5.83
653.863	5.83
654.193	5.81
654.523	5.83
654.853	5.86
655.183	5.84
655.513	5.79
655.843	5.82
656.172	5.85
656.502	5.85
656.832	5.89
657.162	5.95
657.491	5.97
657.821	6
658.15	6.03
658.48	6.13
658.809	6.16
659.139	6.16
659.468	6.19
659.798	6.21
660.127	6.21
660.456	6.25
660.785	6.19
661.115	6.29
661.444	6.26
661.773	6.22
662.102	6.2
662.431	6.17
662.76	6.2
663.089	6.13
663.418	6.16
663.747	6.16
664.076	6.14
664.404	6.13
664.733	6.19
665.062	6.13
665.39	6.18
665.719	6.12
666.048	6.11
666.376	6.09
666.705	6.14
667.033	6.19
667.362	6.19
667.69	6.22
668.018	6.14
668.347	6.22
668.675	6.28
669.003	6.34
669.331	6.46
669.659	6.45
669.987	6.48
670.315	6.39
670.643	6.44
670.971	6.42
671.299	6.48
671.627	6.4
671.955	6.49
672.283	6.45
672.61	6.47
672.938	6.48
673.266	6.54
673.593	6.56
673.921	6.51
674.249	6.47
674.576	6.49
674.904	6.54
675.231	6.45
675.558	6.39
675.886	6.36
676.213	6.3
676.54	6.38
676.867	6.38
677.195	6.39
677.522	6.36
677.849	6.38
678.176	6.34
678.503	6.31
678.83	6.26
679.157	6.25
679.484	6.16
679.81	6.19
680.137	6.13
680.464	6.05
680.791	6.03
681.117	5.98
681.444	5.93
681.771	5.89
682.097	5.94
682.424	5.95
682.75	5.94
683.077	6
683.403	5.98
683.729	6.03
684.056	6.14
684.382	6.14
684.708	6.14
685.034	6.16
685.36	6.19
685.686	6.21
686.012	6.25
686.339	6.38
686.664	6.36
686.99	6.43
687.316	6.47
687.642	6.59
687.968	6.65
688.294	6.71
688.619	6.75
688.945	6.75
689.271	6.74
689.596	6.78
689.922	6.77
690.247	6.64
690.573	6.61
690.898	6.54
691.224	6.7
691.549	6.74
691.874	6.69
692.2	6.67
692.525	6.65
692.85	6.62
693.175	6.56
693.5	6.58
693.825	6.51
694.15	6.63
694.475	6.49
694.8	6.57
695.125	6.54
695.45	6.53
695.775	6.58
696.099	6.64
696.424	6.51
696.749	6.42
697.073	6.5
697.398	6.58
697.723	6.6
698.047	6.51
698.372	6.45
698.696	6.51
699.02	6.49
699.345	6.44
699.669	6.49
699.993	6.45
700.318	6.54
700.642	6.59
700.966	6.5
701.29	6.56
701.614	6.52
701.938	6.61
702.262	6.7
702.586	6.75
702.91	6.73
703.234	6.87
703.557	6.99
703.881	7.05
704.205	7.03
704.529	6.94
704.852	6.91
705.176	6.96
705.499	7.1
705.823	7.14
706.146	7.23
706.47	7.23
706.793	7.28
707.117	7.12
707.44	7.01
707.763	7.05
708.086	6.95
708.409	6.83
708.733	6.77
709.056	6.68
709.379	6.7
709.702	6.73
710.025	6.69
710.348	6.69
710.671	6.7
710.993	6.78
711.316	6.74
711.639	6.74
711.962	6.7
712.284	6.63
712.607	6.57
712.93	6.56
713.252	6.53
713.575	6.71
713.897	6.82
714.22	6.89
714.542	6.93
714.864	7.03
715.187	7.05
715.509	7
715.831	6.87
716.153	6.76
716.475	6.81
716.798	6.91
717.12	6.86
717.442	6.88
717.764	6.85
718.085	7.01
718.407	6.97
718.729	7.02
719.051	6.93
719.373	6.98
719.695	7
720.016	7.06
720.338	6.95
720.659	7
720.981	7.12
721.302	7.05
721.624	6.99
721.945	7.2
722.267	7.3
722.588	7.29
722.909	7.39
723.231	7.27
723.552	7.17
723.873	7.08
724.194	7.23
724.515	7.35
724.836	7.34
725.157	7.49
725.478	7.43
725.799	7.57
726.12	7.61
726.441	7.69
726.762	7.69
727.083	7.65
727.403	7.52
727.724	7.56
728.045	7.58
728.365	7.71
728.686	7.72
729.006	7.74
729.327	7.96
729.647	8
729.967	8.1
730.288	8.22
730.608	8.39
730.928	8.08
731.249	7.83
731.569	7.84
731.889	7.72
732.209	7.92
732.529	7.79
732.849	7.95
733.169	7.92
733.489	7.9
733.809	7.9
734.129	7.98
734.448	7.98
734.768	7.97
735.088	8
735.408	8.06
735.727	8.15
736.047	8.16
736.366	8.07
736.686	8
737.005	7.99
737.325	7.88
737.644	8.16
737.963	8.24
738.283	8.24
738.602	8.35
738.921	8.31
739.24	8.57
739.56	8.44
739.879	8.54
740.198	8.51
740.517	8.53
740.836	8.61
741.155	8.57
741.473	8.51
741.792	8.32
742.111	8.14
742.43	8.1
742.748	7.97
743.067	7.99
743.386	8.13
743.704	8.1
744.023	8.03
744.341	8
744.66	8.26
744.978	8.15
745.297	8.03
745.615	7.86
745.933	7.5
746.252	7.51
746.57	7.54
746.888	7.59
747.206	7.49
747.524	7.37
747.842	7.38
748.16	7.75
748.478	8.16
748.796	8.16
749.114	8.37
749.432	8.13
749.749	8.16
750.067	7.98
750.385	7.93
750.703	8.06
751.02	7.96
751.338	7.87
751.655	7.93
751.973	8.3
752.29	8.45
752.608	8.72
752.925	8.91
753.242	8.85
753.56	8.7
753.877	8.91
754.194	8.98
754.511	8.92
754.828	8.64
755.145	8.31
755.462	7.98
755.779	7.92
756.096	8.4
756.413	8.42
756.73	8.57
757.047	8.44
757.364	8.53
757.68	8.49
757.997	8.31
758.314	8.3
758.63	8.3
758.947	8.4
759.264	8.25
759.58	8.08
759.896	7.9
760.213	8.17
760.529	8.33
760.846	8.36
761.162	8.35
761.478	8.36
761.794	8.31
762.11	8.67
762.426	8.5
762.743	8.27
763.059	8.22
763.375	8.19
763.69	8.45
764.006	8.6
764.322	8.66
764.638	8.65
764.954	8.69
765.27	8.45
765.585	8.28
765.901	8.39
766.216	8.57
766.532	8.66
766.848	8.52
767.163	8.34
767.478	8.34
767.794	8.36
768.109	8.4
768.424	8.44
768.74	8.32
769.055	8.38
769.37	8.41
769.685	8.33
770	8.62
770.315	8.61
770.63	8.39
770.945	8.22
771.26	8.17
771.575	8.22
771.89	8.6
772.205	8.71
772.52	8.58
772.834	8.31
773.149	8.53
773.464	8.73
773.778	8.88
774.093	8.53
774.407	8.53
774.722	8.3
775.036	8.28
775.351	8.52
775.665	8.28
775.979	8.38
776.293	8.43
776.608	8.11
776.922	7.65
777.236	7.65
777.55	7.77
777.864	8.24
778.178	8.41
778.492	8.07
778.806	7.92
779.12	8.25
779.434	8.29
779.747	7.91
780.061	7.79
780.375	7.92
780.689	7.98
781.002	8.05
781.316	8.27
781.629	8.55
781.943	8.67
782.256	8.88
782.57	9.28
782.883	9.25
783.196	9.62
783.51	9.84
783.823	10.05
784.136	10.2
784.449	10.13
784.762	9.93
785.075	10
785.388	10.2
785.701	9.77
786.014	9.58
786.327	9.79
786.64	10.22
786.953	10.1
787.266	10.29
787.578	10.43
787.891	10.55
788.204	10.85
788.516	10.49
788.829	10.45
789.141	10.09
789.454	10.51
789.766	10.44
790.079	10.68
790.391	10.54
790.703	10.63
791.016	10.53
791.328	10.79
791.64	10.8
791.952	11.09
792.264	10.93
792.576	10.7
792.888	10.42
793.2	9.94
793.512	9.54
793.824	9.48
794.136	8.9
794.448	8.77
794.76	8.39
795.071	8.33
795.383	8.28
795.695	8.24
796.006	8.6
796.318	8.55
796.629	8.6
796.941	8.34
797.252	8.28
797.564	8.72
797.875	8.79
798.186	8.44
798.497	8.35
798.809	8.74
799.12	9.07
799.431	8.65
799.742	8.71
800.053	9.57
800.364	9.82
800.675	10.28
800.986	10.38
801.297	9.98
801.608	10.16
801.918	10.32
802.229	10.79
802.54	9.95
802.851	9.68
803.161	9.73
803.472	9.68
803.782	9.85
804.093	9.12
804.403	8.9
804.714	9.24
805.024	8.97
805.334	9.18
805.645	9.56
805.955	10.42
806.265	10.77
806.575	10
806.885	10.01
807.195	10.3
807.505	10.39
807.815	11.09
808.125	10.87
808.435	10.56
808.745	9.98
809.055	10.19
809.365	10.63
809.674	10.54
809.984	11.04
810.294	10.98
810.603	11.49
810.913	11.85
811.222	12.05
811.532	11.87
811.841	12.35
812.151	12.68
812.46	12.63
812.769	12.24
813.079	11.91
813.388	12.24
813.697	12.32
814.006	11.65
814.315	10.76
814.624	11.8
814.933	12.23
815.242	12.42
815.551	12.91
815.86	12.98
816.169	12.79
816.478	13.12
816.786	13.1
817.095	13.22
817.404	12.8
817.712	12.95
818.021	13.16
818.33	12.42
818.638	11.63
818.947	11.94
819.255	12.22
819.563	12.36
819.872	11.93
820.18	11.77
820.488	12.01
820.796	12.26
821.105	11.92
821.413	11.89
821.721	11.84
822.029	11.72
822.337	11.56
822.645	11.47
822.953	11.24
823.26	11.22
823.568	11.13
823.876	11.19
824.184	11.12
824.491	11.02
824.799	11.16
825.107	11.25
825.414	11.26
825.722	11.27
826.029	11.48
826.337	11.54
826.644	11.51
826.951	11.43
827.259	11.37
827.566	11.52
827.873	11.38
828.18	11.5
828.488	11.44
828.795	11.34
829.102	11.5
829.409	11.7
829.716	11.64
830.023	11.43
830.329	11.03
830.636	11.15
830.943	11.13
831.25	10.82
831.557	11.03
831.863	11.03
832.17	10.9
832.476	10.63
832.783	10.74
833.089	11.07
833.396	11.48
833.702	11.61
834.009	11.3
834.315	11.75
834.621	11.52
834.928	12.03
835.234	12.26
835.54	12.04
835.846	11.97
836.152	11.84
836.458	12.18
836.764	12.57
837.07	12.28
837.376	12.14
837.682	12.36
837.988	11.97
838.293	11.66
838.599	11.75
838.905	10.92
839.211	11.01
839.516	10.69
839.822	10.39
840.127	10.18
840.433	10.04
840.738	9.35
841.044	9.83
841.349	8.78
841.654	8.87
841.959	8.79
842.265	8.97
842.57	10.21
842.875	10.69
843.18	11.75
843.485	12.56
843.79	14.26
844.095	14.14
844.4	15.25
844.705	14.67
845.01	14.9
845.315	16.69
845.619	15.65
845.924	15.25
846.229	15.92
846.533	15.8
846.838	15.38
847.142	15.84
847.447	14.2
847.751	14.41
848.056	13.15
848.36	15.32
848.664	14.52
848.969	14.07
849.273	14.31
849.577	13.18
849.881	13.6
850.185	13.11
850.489	13.3
850.794	12.93
851.097	14.7
851.401	13.73
851.705	11.72
852.009	14
852.313	14.14
852.617	12.08
852.92	13.66
853.224	15.78
853.528	16.55
853.831	19.24
854.135	19.56
854.438	21.94
854.742	20.48
855.045	21.07
855.349	20.06
855.652	18.64
855.955	17.59
856.259	15.57
856.562	15.72
856.865	15.72
857.168	14.35
857.471	13.91
857.774	15.07
858.077	18.37
858.38	18.02
858.683	18.22
858.986	19.98
859.289	20.09
859.592	18.1
859.894	18.42
860.197	16.52
860.5	17.12
860.802	16.06
861.105	15.69
861.407	15.26
861.71	16.01
862.012	17.35
862.315	17.93
862.617	16.73
862.919	15.92
863.222	17.42
863.524	18.37
863.826	19
864.128	19.2
864.43	19.39
864.732	17.41
865.034	17.47
865.336	16.11
865.638	14.67
865.94	15.96
866.242	14.29
866.544	12.17
866.846	12.72
867.147	12.53
867.449	12.01
867.751	12.7
868.052	12.35
868.354	11.26
868.655	11.77
868.957	12.47
869.258	11.29
869.56	10.85
869.861	9.31
870.162	9.18
870.463	8.49
870.765	7.59
871.066	9.28
871.367	11.89
871.668	13.17
871.969	12.99
872.27	10.91
872.571	11.36
872.872	12.89
873.173	11.14
873.473	9.77
873.774	10.12
874.075	10.34
874.376	9.2
874.676	10.72
874.977	9.97
875.277	10.04
875.578	12.62
875.878	11.06
876.179	11.97
876.479	10.78
876.78	9.98
877.08	8.92
877.38	8.36
877.68	4.3
877.981	4.11
878.281	4.27
878.581	6.67
