Data from BA28299_Reflection_00002.txt Node
Date: Mon Nov 18 15:42:08 EST 2019
User: vgr7
Spectrometer: USB2G7710
Scans to average: 3
Trigger mode: 4
Integration Time (sec): 2.000000E-2
Electric dark correction enabled: true
Boxcar width: 10
XAxis mode: Wavelengths
Number of Pixels in Spectrum: 2048
>>>>>Begin Spectral Data<<<<<
177.721	92.61
178.105	88.51
178.488	-219.63
178.871	312.12
179.254	36.07
179.636	78.55
180.019	-18.07
180.402	69.23
180.785	-539.46
181.168	891.67
181.55	-652.14
181.933	248.63
182.316	114.93
182.698	116.84
183.081	150.15
183.463	210.07
183.846	205.67
184.228	1359.26
184.611	18366.67
184.993	-388.41
185.376	-339.09
185.758	-601.53
186.14	-399.33
186.522	-399.31
186.904	-232.61
187.287	-563.85
187.669	-172.46
188.051	-178.99
188.433	-145.36
188.815	-164.44
189.197	-133.94
189.579	-124.46
189.961	-148.37
190.342	-108.67
190.724	-84.5
191.106	-110
191.488	-109.87
191.869	-86.07
192.251	-88.28
192.633	-66.29
193.014	-75.88
193.396	-83.73
193.777	-81.54
194.159	-88.04
194.54	-80.95
194.922	-71.88
195.303	-60.24
195.684	-59.17
196.065	-54.87
196.447	-60.19
196.828	-54.98
197.209	-67.93
197.59	-72.31
197.971	-77.56
198.352	-65.69
198.733	-70.33
199.114	-62.39
199.495	-57.61
199.876	-57.58
200.257	-65.56
200.638	-68.82
201.018	-64.74
201.399	-62.55
201.78	-60.56
202.16	-67.88
202.541	-78.19
202.922	-94.49
203.302	-92.83
203.683	-106.73
204.063	-121.7
204.444	-127.95
204.824	-128.96
205.204	-104.1
205.585	-103.67
205.965	-100.2
206.345	-114.82
206.725	-122.69
207.106	-170.11
207.486	-228.51
207.866	-258.2
208.246	-199.63
208.626	-172.7
209.006	-151.3
209.386	-177.31
209.766	-168.67
210.145	-183.99
210.525	-143.81
210.905	-137.44
211.285	-128.91
211.664	-108.09
212.044	-123.83
212.424	-122.37
212.803	-150.83
213.183	-142.76
213.562	-129.4
213.942	-121.95
214.321	-127.94
214.701	-139.81
215.08	-135.32
215.459	-148.54
215.838	-178.93
216.218	-167.12
216.597	-152.12
216.976	-158.52
217.355	-129.1
217.734	-123.78
218.113	-114.96
218.492	-124.53
218.871	-129.75
219.25	-117.8
219.629	-133.67
220.008	-103.29
220.387	-103.53
220.766	-103.57
221.144	-133.36
221.523	-151.22
221.902	-126.32
222.28	-127.81
222.659	-105.8
223.037	-96.87
223.416	-91.8
223.794	-71.08
224.173	-69.93
224.551	-62.6
224.929	-49.85
225.308	-52.41
225.686	-49.08
226.064	-41.99
226.442	-40.72
226.821	-33.77
227.199	-34.28
227.577	-31.75
227.955	-32.21
228.333	-30.41
228.711	-24.8
229.089	-20.09
229.467	-17.87
229.845	-17.26
230.222	-14.17
230.6	-13.85
230.978	-12
231.356	-10.44
231.733	-11.12
232.111	-10.52
232.488	-11.62
232.866	-11.37
233.243	-8.55
233.621	-9.1
233.998	-9.55
234.376	-10.02
234.753	-10.28
235.13	-10.15
235.508	-8.43
235.885	-9.41
236.262	-8.25
236.639	-8.33
237.016	-7.66
237.393	-6.49
237.77	-5.41
238.147	-4.28
238.524	-3.37
238.901	-1.72
239.278	-1.21
239.655	0.09
240.032	0.16
240.409	0.78
240.785	0.2
241.162	0.09
241.539	0.56
241.915	1.09
242.292	1.17
242.668	1.25
243.045	1.79
243.421	2.18
243.798	2.44
244.174	2.47
244.551	2.26
244.927	2.38
245.303	2.59
245.679	2.8
246.056	2.69
246.432	2.58
246.808	2.44
247.184	2.45
247.56	2.24
247.936	2.18
248.312	2.04
248.688	2.28
249.064	2.16
249.44	2.16
249.815	2.14
250.191	2.45
250.567	2.55
250.943	2.4
251.318	2.14
251.694	2.13
252.069	1.92
252.445	2.28
252.82	2.32
253.196	1.82
253.571	1.63
253.947	1.84
254.322	2.07
254.697	1.75
255.073	1.32
255.448	1.31
255.823	1.47
256.198	1.62
256.573	1.66
256.948	1.86
257.323	1.67
257.698	1.79
258.073	1.64
258.448	1.74
258.823	1.75
259.198	1.72
259.573	1.7
259.948	1.87
260.322	1.77
260.697	1.6
261.072	1.83
261.446	1.78
261.821	1.7
262.195	1.57
262.57	1.77
262.944	1.83
263.319	1.84
263.693	1.78
264.067	1.73
264.442	1.93
264.816	1.95
265.19	2.03
265.564	1.85
265.938	1.8
266.313	1.57
266.687	1.46
267.061	1.61
267.435	1.82
267.809	1.67
268.183	1.62
268.556	1.71
268.93	1.62
269.304	1.59
269.678	1.56
270.051	1.62
270.425	1.51
270.799	1.62
271.172	1.66
271.546	1.65
271.919	1.78
272.293	1.67
272.666	1.66
273.04	1.75
273.413	1.87
273.787	1.85
274.16	1.92
274.533	2.05
274.906	2
275.279	1.92
275.653	1.9
276.026	1.95
276.399	2.08
276.772	2.06
277.145	2.09
277.518	2.23
277.891	2.18
278.263	2.19
278.636	2.16
279.009	2.06
279.382	2.15
279.755	2.07
280.127	2.12
280.5	2.01
280.872	1.99
281.245	1.85
281.617	1.97
281.99	2.14
282.362	2.12
282.735	1.96
283.107	2.04
283.479	2.18
283.852	2.09
284.224	2.12
284.596	2.06
284.968	2.08
285.34	2.08
285.713	2.21
286.085	2.27
286.457	2.41
286.829	2.4
287.201	2.46
287.572	2.41
287.944	2.29
288.316	2.25
288.688	2.31
289.06	2.3
289.431	2.21
289.803	2.03
290.175	2.07
290.546	2.25
290.918	2.13
291.289	2.08
291.661	2.27
292.032	2.27
292.403	2.38
292.775	2.52
293.146	2.46
293.517	2.37
293.889	2.44
294.26	2.49
294.631	2.55
295.002	2.49
295.373	2.5
295.744	2.6
296.115	2.73
296.486	2.69
296.857	2.84
297.228	3.03
297.599	3.06
297.97	2.95
298.34	2.96
298.711	3.11
299.082	3.08
299.452	3.05
299.823	3.09
300.194	3.02
300.564	2.83
300.935	2.95
301.305	2.88
301.676	2.89
302.046	2.74
302.416	2.74
302.787	2.79
303.157	2.77
303.527	2.74
303.897	2.65
304.267	2.79
304.637	2.84
305.008	2.79
305.378	2.84
305.748	3.01
306.117	3.07
306.487	3
306.857	3.07
307.227	3.09
307.597	3.11
307.967	3.26
308.336	3.37
308.706	3.24
309.076	3.42
309.445	3.23
309.815	3.27
310.184	3.34
310.554	3.31
310.923	3.36
311.293	3.35
311.662	3.47
312.031	3.4
312.401	3.36
312.77	3.44
313.139	3.55
313.508	3.49
313.877	3.4
314.246	3.46
314.616	3.35
314.985	3.23
315.353	3.15
315.722	3.11
316.091	3.07
316.46	3.08
316.829	2.99
317.198	3.17
317.567	3.12
317.935	3.1
318.304	3.1
318.672	3.12
319.041	3.13
319.41	2.97
319.778	2.93
320.147	2.87
320.515	2.69
320.883	2.57
321.252	2.64
321.62	2.67
321.988	2.58
322.357	2.74
322.725	2.85
323.093	2.83
323.461	2.66
323.829	2.74
324.197	2.77
324.565	2.86
324.933	2.78
325.301	2.85
325.669	2.93
326.037	2.79
326.405	2.79
326.772	2.91
327.14	3.12
327.508	3.14
327.875	3.09
328.243	3.25
328.61	3.21
328.978	3.25
329.346	3.34
329.713	3.24
330.08	3.22
330.448	3.17
330.815	3.07
331.182	3.17
331.55	3.3
331.917	3.26
332.284	3.29
332.651	3.21
333.018	3.21
333.385	3.26
333.752	3.46
334.119	3.41
334.486	3.3
334.853	3.25
335.22	3.17
335.587	3.25
335.954	3.17
336.32	3.18
336.687	3.18
337.054	3.15
337.42	3.32
337.787	3.25
338.153	3.27
338.52	3.41
338.886	3.36
339.253	3.25
339.619	3.36
339.986	3.36
340.352	3.52
340.718	3.5
341.084	3.31
341.451	3.43
341.817	3.51
342.183	3.55
342.549	3.52
342.915	3.6
343.281	3.58
343.647	3.55
344.013	3.63
344.379	3.51
344.745	3.5
345.11	3.49
345.476	3.46
345.842	3.47
346.208	3.36
346.573	3.46
346.939	3.58
347.304	3.45
347.67	3.42
348.035	3.4
348.401	3.43
348.766	3.58
349.132	3.49
349.497	3.55
349.862	3.61
350.228	3.58
350.593	3.6
350.958	3.63
351.323	3.67
351.688	3.69
352.053	3.72
352.418	3.75
352.783	3.73
353.148	3.81
353.513	3.82
353.878	3.84
354.243	3.88
354.608	3.81
354.972	3.91
355.337	3.95
355.702	3.97
356.066	4.02
356.431	3.94
356.795	3.93
357.16	3.85
357.524	3.81
357.889	3.81
358.253	3.76
358.618	3.78
358.982	3.77
359.346	3.8
359.71	3.81
360.075	3.81
360.439	3.81
360.803	3.78
361.167	3.75
361.531	3.77
361.895	3.76
362.259	3.72
362.623	3.75
362.987	3.75
363.351	3.7
363.714	3.76
364.078	3.76
364.442	3.78
364.806	3.82
365.169	3.78
365.533	3.86
365.896	3.83
366.26	3.79
366.623	3.78
366.987	3.7
367.35	3.76
367.714	3.73
368.077	3.68
368.44	3.65
368.803	3.7
369.167	3.68
369.53	3.65
369.893	3.66
370.256	3.58
370.619	3.53
370.982	3.51
371.345	3.37
371.708	3.41
372.071	3.37
372.434	3.35
372.797	3.36
373.159	3.29
373.522	3.33
373.885	3.36
374.247	3.39
374.61	3.38
374.973	3.34
375.335	3.4
375.698	3.44
376.06	3.46
376.423	3.48
376.785	3.54
377.147	3.59
377.51	3.57
377.872	3.64
378.234	3.63
378.596	3.67
378.958	3.71
379.321	3.72
379.683	3.78
380.045	3.79
380.407	3.84
380.769	3.84
381.13	3.88
381.492	3.89
381.854	3.89
382.216	3.93
382.578	3.95
382.939	3.93
383.301	3.88
383.663	3.88
384.024	3.87
384.386	3.86
384.747	3.83
385.109	3.87
385.47	3.83
385.832	3.86
386.193	3.88
386.554	3.86
386.916	3.87
387.277	3.81
387.638	3.82
387.999	3.77
388.36	3.8
388.721	3.82
389.082	3.84
389.443	3.84
389.804	3.84
390.165	3.84
390.526	3.85
390.887	3.88
391.248	3.9
391.609	3.87
391.969	3.88
392.33	3.88
392.691	3.89
393.051	3.93
393.412	3.9
393.772	3.9
394.133	3.91
394.493	3.94
394.854	3.94
395.214	3.95
395.574	3.95
395.935	3.95
396.295	3.94
396.655	3.92
397.015	3.9
397.376	3.88
397.736	3.88
398.096	3.9
398.456	3.93
398.816	3.93
399.176	3.91
399.535	3.89
399.895	3.9
400.255	3.9
400.615	3.87
400.975	3.92
401.334	3.87
401.694	3.88
402.054	3.82
402.413	3.85
402.773	3.84
403.132	3.85
403.492	3.84
403.851	3.84
404.211	3.8
404.57	3.84
404.929	3.84
405.288	3.83
405.648	3.8
406.007	3.76
406.366	3.75
406.725	3.82
407.084	3.84
407.443	3.83
407.802	3.85
408.161	3.87
408.52	3.85
408.879	3.88
409.238	3.88
409.596	3.92
409.955	3.93
410.314	3.95
410.673	3.94
411.031	3.94
411.39	3.92
411.748	3.92
412.107	3.92
412.465	3.94
412.824	3.97
413.182	3.98
413.54	4
413.899	4.03
414.257	4.02
414.615	4
414.974	4.01
415.332	4.01
415.69	3.99
416.048	4
416.406	3.99
416.764	4.02
417.122	4.04
417.48	4.01
417.838	4.01
418.195	4.04
418.553	4.03
418.911	4.04
419.269	4.06
419.626	4.05
419.984	4.06
420.342	4.06
420.699	4.05
421.057	4.06
421.414	4.06
421.772	4.06
422.129	4.08
422.486	4.06
422.844	4.06
423.201	4.06
423.558	4.06
423.915	4.06
424.273	4.05
424.63	4.03
424.987	4.04
425.344	4.03
425.701	4.04
426.058	4.04
426.415	4.04
426.772	4.03
427.128	4.04
427.485	4.04
427.842	4.03
428.199	4.05
428.555	4.05
428.912	4.05
429.269	4.05
429.625	4.03
429.982	4.02
430.338	4
430.695	4.01
431.051	4.03
431.407	4.03
431.764	4.04
432.12	4.05
432.476	4.04
432.832	4.04
433.189	4.03
433.545	4.05
433.901	4.06
434.257	4.07
434.613	4.07
434.969	4.08
435.325	4.1
435.681	4.09
436.036	4.09
436.392	4.1
436.748	4.1
437.104	4.12
437.459	4.14
437.815	4.16
438.171	4.17
438.526	4.17
438.882	4.18
439.237	4.18
439.593	4.2
439.948	4.21
440.304	4.21
440.659	4.21
441.014	4.2
441.369	4.19
441.725	4.18
442.08	4.17
442.435	4.15
442.79	4.13
443.145	4.13
443.5	4.13
443.855	4.1
444.21	4.1
444.565	4.11
444.92	4.11
445.275	4.1
445.629	4.1
445.984	4.11
446.339	4.09
446.693	4.09
447.048	4.07
447.403	4.07
447.757	4.07
448.112	4.06
448.466	4.06
448.82	4.06
449.175	4.09
449.529	4.09
449.883	4.1
450.238	4.11
450.592	4.14
450.946	4.14
451.3	4.16
451.654	4.16
452.008	4.15
452.362	4.15
452.716	4.15
453.07	4.14
453.424	4.14
453.778	4.14
454.132	4.14
454.486	4.15
454.839	4.13
455.193	4.1
455.547	4.11
455.9	4.12
456.254	4.13
456.607	4.12
456.961	4.13
457.314	4.14
457.668	4.13
458.021	4.12
458.375	4.12
458.728	4.13
459.081	4.13
459.434	4.11
459.787	4.13
460.141	4.14
460.494	4.15
460.847	4.15
461.2	4.16
461.553	4.16
461.906	4.17
462.259	4.2
462.611	4.23
462.964	4.24
463.317	4.24
463.67	4.24
464.022	4.24
464.375	4.22
464.728	4.22
465.08	4.22
465.433	4.22
465.785	4.19
466.138	4.19
466.49	4.19
466.843	4.19
467.195	4.19
467.547	4.22
467.899	4.21
468.252	4.19
468.604	4.19
468.956	4.21
469.308	4.18
469.66	4.16
470.012	4.15
470.364	4.13
470.716	4.12
471.068	4.13
471.42	4.13
471.772	4.17
472.123	4.17
472.475	4.17
472.827	4.17
473.178	4.2
473.53	4.19
473.882	4.18
474.233	4.2
474.585	4.19
474.936	4.16
475.288	4.16
475.639	4.19
475.99	4.19
476.342	4.17
476.693	4.18
477.044	4.2
477.395	4.21
477.746	4.21
478.097	4.21
478.448	4.21
478.8	4.22
479.15	4.22
479.501	4.22
479.852	4.24
480.203	4.26
480.554	4.28
480.905	4.29
481.255	4.31
481.606	4.32
481.957	4.33
482.307	4.36
482.658	4.38
483.009	4.38
483.359	4.4
483.709	4.4
484.06	4.42
484.41	4.43
484.761	4.43
485.111	4.44
485.461	4.44
485.811	4.44
486.162	4.45
486.512	4.46
486.862	4.48
487.212	4.48
487.562	4.48
487.912	4.49
488.262	4.5
488.612	4.49
488.961	4.5
489.311	4.51
489.661	4.51
490.011	4.5
490.36	4.5
490.71	4.5
491.06	4.51
491.409	4.52
491.759	4.5
492.108	4.52
492.458	4.51
492.807	4.52
493.157	4.52
493.506	4.53
493.855	4.52
494.204	4.52
494.554	4.52
494.903	4.52
495.252	4.5
495.601	4.5
495.95	4.5
496.299	4.48
496.648	4.47
496.997	4.45
497.346	4.46
497.695	4.48
498.043	4.49
498.392	4.47
498.741	4.46
499.09	4.44
499.438	4.44
499.787	4.45
500.135	4.49
500.484	4.49
500.832	4.49
501.181	4.49
501.529	4.5
501.878	4.5
502.226	4.5
502.574	4.51
502.923	4.51
503.271	4.54
503.619	4.57
503.967	4.57
504.315	4.56
504.663	4.57
505.011	4.54
505.359	4.53
505.707	4.57
506.055	4.59
506.403	4.62
506.751	4.61
507.098	4.61
507.446	4.59
507.794	4.59
508.141	4.59
508.489	4.6
508.837	4.59
509.184	4.59
509.531	4.61
509.879	4.64
510.226	4.65
510.574	4.64
510.921	4.63
511.268	4.65
511.616	4.67
511.963	4.69
512.31	4.7
512.657	4.7
513.004	4.69
513.351	4.68
513.698	4.68
514.045	4.69
514.392	4.69
514.739	4.7
515.086	4.73
515.432	4.73
515.779	4.71
516.126	4.74
516.473	4.75
516.819	4.74
517.166	4.74
517.512	4.75
517.859	4.76
518.205	4.76
518.552	4.76
518.898	4.76
519.245	4.74
519.591	4.74
519.937	4.73
520.283	4.74
520.629	4.77
520.976	4.78
521.322	4.8
521.668	4.81
522.014	4.83
522.36	4.83
522.706	4.85
523.052	4.88
523.398	4.88
523.743	4.88
524.089	4.89
524.435	4.88
524.781	4.89
525.126	4.92
525.472	4.93
525.817	4.93
526.163	4.94
526.509	4.96
526.854	4.97
527.199	4.99
527.545	4.97
527.89	4.97
528.235	4.96
528.581	4.97
528.926	4.97
529.271	4.97
529.616	4.97
529.961	4.97
530.306	4.98
530.651	4.98
530.996	4.97
531.341	4.98
531.686	4.99
532.031	4.99
532.376	4.99
532.721	4.98
533.065	4.99
533.41	5
533.755	4.99
534.099	5
534.444	4.99
534.788	5.01
535.133	5
535.477	5
535.822	5
536.166	5.01
536.51	5
536.855	5.01
537.199	5.01
537.543	5.03
537.887	5.02
538.231	5.03
538.576	5.02
538.92	5.02
539.264	5.02
539.608	5.01
539.951	5.03
540.295	5.03
540.639	5.02
540.983	5.02
541.327	5.04
541.671	5.05
542.014	5.04
542.358	5.06
542.701	5.07
543.045	5.06
543.389	5.06
543.732	5.09
544.075	5.09
544.419	5.1
544.762	5.08
545.105	5.08
545.449	5.1
545.792	5.11
546.135	5.13
546.478	5.14
546.821	5.15
547.165	5.15
547.508	5.15
547.851	5.17
548.194	5.18
548.536	5.16
548.879	5.17
549.222	5.19
549.565	5.19
549.908	5.22
550.25	5.23
550.593	5.22
550.936	5.19
551.278	5.17
551.621	5.16
551.963	5.17
552.306	5.18
552.648	5.16
552.991	5.19
553.333	5.17
553.675	5.18
554.017	5.18
554.36	5.2
554.702	5.2
555.044	5.19
555.386	5.2
555.728	5.18
556.07	5.19
556.412	5.18
556.754	5.18
557.096	5.19
557.438	5.21
557.78	5.21
558.121	5.23
558.463	5.23
558.805	5.22
559.147	5.22
559.488	5.22
559.83	5.23
560.171	5.2
560.513	5.23
560.854	5.22
561.196	5.22
561.537	5.21
561.878	5.2
562.22	5.18
562.561	5.16
562.902	5.17
563.243	5.18
563.584	5.18
563.925	5.18
564.266	5.18
564.607	5.17
564.948	5.18
565.289	5.17
565.63	5.2
565.971	5.19
566.312	5.2
566.653	5.22
566.993	5.22
567.334	5.21
567.675	5.22
568.015	5.25
568.356	5.27
568.696	5.3
569.037	5.31
569.377	5.34
569.718	5.37
570.058	5.36
570.398	5.35
570.739	5.38
571.079	5.37
571.419	5.35
571.759	5.34
572.099	5.33
572.439	5.33
572.779	5.31
573.119	5.35
573.459	5.36
573.799	5.35
574.139	5.37
574.479	5.39
574.819	5.39
575.158	5.36
575.498	5.34
575.838	5.34
576.177	5.33
576.517	5.34
576.856	5.32
577.196	5.33
577.535	5.34
577.875	5.33
578.214	5.33
578.553	5.34
578.893	5.34
579.232	5.34
579.571	5.37
579.91	5.38
580.25	5.4
580.589	5.41
580.928	5.41
581.267	5.39
581.606	5.38
581.945	5.37
582.283	5.38
582.622	5.37
582.961	5.36
583.3	5.37
583.639	5.38
583.977	5.41
584.316	5.4
584.654	5.35
584.993	5.33
585.332	5.35
585.67	5.36
586.008	5.35
586.347	5.38
586.685	5.35
587.024	5.35
587.362	5.32
587.7	5.33
588.038	5.34
588.376	5.35
588.715	5.34
589.053	5.39
589.391	5.4
589.729	5.42
590.067	5.39
590.404	5.4
590.742	5.4
591.08	5.35
591.418	5.36
591.756	5.38
592.093	5.39
592.431	5.37
592.769	5.37
593.106	5.4
593.444	5.37
593.781	5.4
594.119	5.38
594.456	5.41
594.793	5.36
595.131	5.33
595.468	5.35
595.805	5.38
596.143	5.35
596.48	5.34
596.817	5.33
597.154	5.31
597.491	5.29
597.828	5.31
598.165	5.3
598.502	5.29
598.839	5.32
599.176	5.33
599.512	5.35
599.849	5.39
600.186	5.38
600.523	5.45
600.859	5.45
601.196	5.51
601.532	5.45
601.869	5.48
602.205	5.5
602.542	5.49
602.878	5.51
603.215	5.5
603.551	5.51
603.887	5.53
604.223	5.57
604.56	5.61
604.896	5.58
605.232	5.6
605.568	5.63
605.904	5.63
606.24	5.65
606.576	5.67
606.912	5.66
607.248	5.65
607.583	5.63
607.919	5.63
608.255	5.58
608.591	5.7
608.926	5.73
609.262	5.77
609.597	5.77
609.933	5.78
610.268	5.83
610.604	5.86
610.939	5.82
611.275	5.84
611.61	5.82
611.945	5.87
612.281	5.91
612.616	5.92
612.951	5.93
613.286	5.93
613.621	5.89
613.956	5.91
614.291	5.92
614.626	5.93
614.961	5.93
615.296	5.98
615.631	5.91
615.966	5.89
616.3	5.85
616.635	5.88
616.97	5.84
617.304	5.81
617.639	5.81
617.973	5.84
618.308	5.8
618.642	5.82
618.977	5.81
619.311	5.81
619.646	5.83
619.98	5.77
620.314	5.79
620.648	5.82
620.983	5.82
621.317	5.89
621.651	5.87
621.985	5.92
622.319	5.89
622.653	5.9
622.987	5.95
623.321	5.98
623.655	5.95
623.988	6
624.322	5.98
624.656	6
624.99	6.03
625.323	6.08
625.657	6.08
625.99	6.09
626.324	6.06
626.657	6.03
626.991	6.08
627.324	6.04
627.658	6.03
627.991	6.02
628.324	5.98
628.657	5.97
628.991	5.97
629.324	5.99
629.657	5.98
629.99	5.95
630.323	5.97
630.656	5.98
630.989	6
631.322	6.01
631.655	5.94
631.987	5.92
632.32	5.9
632.653	5.91
632.986	5.91
633.318	5.96
633.651	6.02
633.984	6.01
634.316	6.01
634.649	6.07
634.981	6.09
635.313	6.1
635.646	6.12
635.978	6.15
636.31	6.15
636.643	6.14
636.975	6.11
637.307	6.09
637.639	6.12
637.971	6.09
638.303	6.05
638.635	6.1
638.967	6.1
639.299	6.07
639.631	6.04
639.963	6.01
640.295	5.98
640.626	5.9
640.958	6
641.29	6.01
641.621	5.96
641.953	5.94
642.285	5.94
642.616	5.98
642.948	5.93
643.279	5.91
643.61	5.88
643.942	5.92
644.273	5.98
644.604	5.95
644.936	5.9
645.267	5.97
645.598	6
645.929	6.03
646.26	6.08
646.591	6.05
646.922	6.04
647.253	6.1
647.584	6.1
647.915	6
648.245	5.99
648.576	6.02
648.907	6.05
649.238	6.02
649.568	5.98
649.899	5.92
650.229	6.01
650.56	6.06
650.89	6.06
651.221	5.98
651.551	5.96
651.882	5.99
652.212	6.05
652.542	6.03
652.872	6
653.203	5.99
653.533	6.08
653.863	6.12
654.193	6.08
654.523	6.15
654.853	6.24
655.183	6.25
655.513	6.2
655.843	6.2
656.172	6.25
656.502	6.29
656.832	6.34
657.162	6.36
657.491	6.31
657.821	6.34
658.15	6.38
658.48	6.36
658.809	6.39
659.139	6.27
659.468	6.31
659.798	6.34
660.127	6.4
660.456	6.39
660.785	6.37
661.115	6.42
661.444	6.42
661.773	6.4
662.102	6.38
662.431	6.48
662.76	6.55
663.089	6.54
663.418	6.49
663.747	6.52
664.076	6.41
664.404	6.45
664.733	6.5
665.062	6.5
665.39	6.57
665.719	6.66
666.048	6.74
666.376	6.66
666.705	6.66
667.033	6.54
667.362	6.6
667.69	6.62
668.018	6.55
668.347	6.49
668.675	6.48
669.003	6.54
669.331	6.51
669.659	6.41
669.987	6.36
670.315	6.48
670.643	6.4
670.971	6.51
671.299	6.45
671.627	6.36
671.955	6.36
672.283	6.38
672.61	6.2
672.938	6.17
673.266	6.2
673.593	6.34
673.921	6.35
674.249	6.34
674.576	6.33
674.904	6.43
675.231	6.5
675.558	6.58
675.886	6.54
676.213	6.56
676.54	6.59
676.867	6.68
677.195	6.59
677.522	6.66
677.849	6.59
678.176	6.67
678.503	6.68
678.83	6.66
679.157	6.63
679.484	6.68
679.81	6.68
680.137	6.61
680.464	6.52
680.791	6.53
681.117	6.48
681.444	6.48
681.771	6.48
682.097	6.42
682.424	6.28
682.75	6.29
683.077	6.23
683.403	6.36
683.729	6.3
684.056	6.34
684.382	6.39
684.708	6.39
685.034	6.41
685.36	6.47
685.686	6.51
686.012	6.53
686.339	6.59
686.664	6.63
686.99	6.74
687.316	6.81
687.642	6.88
687.968	6.95
688.294	7.01
688.619	7
688.945	7.08
689.271	7.14
689.596	7.2
689.922	7.34
690.247	7.18
690.573	7.21
690.898	7.2
691.224	7.13
691.549	7.18
691.874	7.17
692.2	7.14
692.525	7.13
692.85	7.22
693.175	7.18
693.5	7.09
693.825	7.07
694.15	6.98
694.475	6.97
694.8	6.94
695.125	6.86
695.45	6.79
695.775	6.8
696.099	6.81
696.424	6.74
696.749	6.68
697.073	6.68
697.398	6.8
697.723	6.77
698.047	6.79
698.372	6.76
698.696	6.75
699.02	6.77
699.345	6.82
699.669	6.81
699.993	6.77
700.318	6.81
700.642	6.87
700.966	6.85
701.29	6.82
701.614	6.76
701.938	6.8
702.262	6.91
702.586	6.89
702.91	6.91
703.234	6.93
703.557	6.98
703.881	7.09
704.205	7.11
704.529	7.1
704.852	7.12
705.176	7.14
705.499	7.22
705.823	7.21
706.146	7.18
706.47	7.11
706.793	7.16
707.117	7.24
707.44	7.19
707.763	7.21
708.086	7.17
708.409	7.25
708.733	7.31
709.056	7.16
709.379	7.3
709.702	7.33
710.025	7.35
710.348	7.28
710.671	7.33
710.993	7.29
711.316	7.43
711.639	7.42
711.962	7.34
712.284	7.31
712.607	7.36
712.93	7.35
713.252	7.26
713.575	7.33
713.897	7.29
714.22	7.31
714.542	7.37
714.864	7.42
715.187	7.48
715.509	7.38
715.831	7.54
716.153	7.47
716.475	7.48
716.798	7.61
717.12	7.64
717.442	7.53
717.764	7.37
718.085	7.23
718.407	7.25
718.729	7.26
719.051	7.33
719.373	7.3
719.695	7.33
720.016	7.62
720.338	7.65
720.659	7.69
720.981	7.68
721.302	7.7
721.624	7.8
721.945	7.72
722.267	7.81
722.588	7.63
722.909	7.51
723.231	7.39
723.552	7.23
723.873	7.14
724.194	7.07
724.515	7.18
724.836	7.27
725.157	7.21
725.478	7.22
725.799	7.2
726.12	7.37
726.441	7.31
726.762	7.07
727.083	7.05
727.403	7.1
727.724	7.12
728.045	7.21
728.365	7.04
728.686	7.11
729.006	7.11
729.327	7.04
729.647	7.12
729.967	7.11
730.288	7.2
730.608	7.18
730.928	7.29
731.249	7.31
731.569	7.45
731.889	7.61
732.209	7.87
732.529	7.78
732.849	7.58
733.169	7.67
733.489	7.85
733.809	7.85
734.129	7.82
734.448	7.84
734.768	7.74
735.088	7.94
735.408	7.87
735.727	7.7
736.047	7.89
736.366	7.92
736.686	8.03
737.005	8.1
737.325	8.06
737.644	8
737.963	7.98
738.283	7.96
738.602	7.85
738.921	7.7
739.24	7.65
739.56	7.74
739.879	7.72
740.198	7.57
740.517	7.67
740.836	7.7
741.155	7.61
741.473	7.64
741.792	7.63
742.111	7.78
742.43	7.93
742.748	7.84
743.067	8
743.386	7.98
743.704	7.85
744.023	7.83
744.341	7.89
744.66	8.15
744.978	8.1
745.297	8.15
745.615	8.19
745.933	8.25
746.252	8.52
746.57	8.58
746.888	8.62
747.206	8.42
747.524	8.45
747.842	8.61
748.16	8.63
748.478	8.6
748.796	8.64
749.114	8.97
749.432	9.03
749.749	8.75
750.067	8.94
750.385	9.03
750.703	9.23
751.02	9.16
751.338	8.79
751.655	8.74
751.973	8.74
752.29	8.74
752.608	8.78
752.925	8.5
753.242	8.64
753.56	8.61
753.877	8.8
754.194	8.65
754.511	8.83
754.828	8.96
755.145	8.95
755.462	8.75
755.779	8.42
756.096	8.37
756.413	8.61
756.73	8.63
757.047	8.47
757.364	8.47
757.68	8.73
757.997	8.97
758.314	8.96
758.63	8.8
758.947	8.76
759.264	8.76
759.58	8.77
759.896	8.71
760.213	8.85
760.529	8.85
760.846	8.91
761.162	8.62
761.478	8.47
761.794	8.14
762.11	8.16
762.426	8.34
762.743	8.55
763.059	8.63
763.375	8.56
763.69	8.76
764.006	8.77
764.322	8.55
764.638	8.46
764.954	8.55
765.27	8.56
765.585	8.7
765.901	8.81
766.216	8.77
766.532	8.78
766.848	8.58
767.163	8.43
767.478	8.4
767.794	8.57
768.109	8.54
768.424	8.83
768.74	9.03
769.055	9.12
769.37	9.08
769.685	8.91
770	8.89
770.315	8.89
770.63	8.86
770.945	9.06
771.26	8.96
771.575	9.09
771.89	9.18
772.205	9.18
772.52	9.29
772.834	9.23
773.149	9.25
773.464	9.26
773.778	9.44
774.093	9.26
774.407	9.29
774.722	9.68
775.036	9.74
775.351	9.44
775.665	9.14
775.979	8.96
776.293	8.94
776.608	8.95
776.922	8.43
777.236	8.4
777.55	8.03
777.864	8.33
778.178	8.29
778.492	8.43
778.806	8.05
779.12	8.02
779.434	8.09
779.747	7.92
780.061	8.03
780.375	7.99
780.689	8.06
781.002	8.03
781.316	7.6
781.629	8.01
781.943	8.19
782.256	8.31
782.57	8.02
782.883	7.86
783.196	7.83
783.51	8.34
783.823	8.67
784.136	8.94
784.449	8.8
784.762	9.15
785.075	9.03
785.388	9.07
785.701	9.24
786.014	9.17
786.327	9.25
786.64	9.57
786.953	9.5
787.266	9.41
787.578	9.16
787.891	8.98
788.204	8.79
788.516	8.73
788.829	8.67
789.141	8.96
789.454	9.16
789.766	9.46
790.079	9.34
790.391	9.36
790.703	9.89
791.016	9.51
791.328	8.84
791.64	8.77
791.952	9.23
792.264	8.87
792.576	8.58
792.888	8.76
793.2	8.77
793.512	8.83
793.824	9.1
794.136	9.52
794.448	9.74
794.76	9.7
795.071	9.72
795.383	9.69
795.695	9.31
796.006	9.6
796.318	9.7
796.629	9.99
796.941	9.3
797.252	9.04
797.564	9.71
797.875	9.7
798.186	9.66
798.497	8.94
798.809	8.88
799.12	9.21
799.431	8.91
799.742	8.49
800.053	9.09
800.364	9.29
800.675	8.97
800.986	8.85
801.297	8.4
801.608	8.23
801.918	8.19
802.229	8.84
802.54	8.38
802.851	7.93
803.161	7.6
803.472	8.41
803.782	8.54
804.093	8.69
804.403	8.52
804.714	8.73
805.024	8.79
805.334	9.04
805.645	9.2
805.955	9.41
806.265	10.25
806.575	9.3
806.885	9.16
807.195	9.23
807.505	9.11
807.815	9.32
808.125	9.55
808.435	9.81
808.745	9.57
809.055	10.31
809.365	9.9
809.674	9.76
809.984	9.61
810.294	9.62
810.603	9.12
810.913	9.56
811.222	10.06
811.532	10.24
811.841	10.3
812.151	10.23
812.46	10.11
812.769	9.38
813.079	9.78
813.388	10.02
813.697	10.14
814.006	10.32
814.315	10.47
814.624	10.28
814.933	10.44
815.242	10.71
815.551	10.64
815.86	11.51
816.169	11.73
816.478	11.2
816.786	10.41
817.095	10.8
817.404	10.83
817.712	10.09
818.021	10.91
818.33	10.75
818.638	10.97
818.947	11.25
819.255	11.57
819.563	11.4
819.872	11
820.18	11.08
820.488	11.25
820.796	11.19
821.105	11.33
821.413	11.41
821.721	11.28
822.029	11.11
822.337	11.16
822.645	11.27
822.953	11.16
823.26	11.38
823.568	11.22
823.876	11.14
824.184	11.14
824.491	11.13
824.799	11.06
825.107	11.08
825.414	11.1
825.722	11.14
826.029	11.18
826.337	11.32
826.644	11.25
826.951	11.31
827.259	11.43
827.566	11.35
827.873	11.29
828.18	11.38
828.488	11.4
828.795	11.13
829.102	10.88
829.409	11.3
829.716	10.98
830.023	11.14
830.329	11.53
830.636	11.71
830.943	11.48
831.25	11.67
831.557	11.53
831.863	11.29
832.17	11.25
832.476	11.52
832.783	11.87
833.089	11.99
833.396	11.62
833.702	11.41
834.009	11.61
834.315	11.58
834.621	11.69
834.928	11.97
835.234	12.01
835.54	11.8
835.846	11.41
836.152	11.55
836.458	11.7
836.764	11.02
837.07	11.2
837.376	10.95
837.682	10.84
837.988	10.63
838.293	10.43
838.599	10.05
838.905	9.67
839.211	9.15
839.516	8.49
839.822	8.53
840.127	8.11
840.433	8.03
840.738	6.89
841.044	6.35
841.349	6.64
841.654	6.84
841.959	7.07
842.265	7.36
842.57	7.49
842.875	7.03
843.18	7.81
843.485	7.15
843.79	8.09
844.095	8.05
844.4	9.02
844.705	8.98
845.01	8.21
845.315	7.29
845.619	6.67
845.924	7.03
846.229	7.19
846.533	7.98
846.838	7.61
847.142	8.47
847.447	7.05
847.751	4.61
848.056	3.13
848.36	3.57
848.664	3.35
848.969	2.48
849.273	1.8
849.577	2.2
849.881	2.42
850.185	2
850.489	1.63
850.794	-0.11
851.097	1.17
851.401	1.19
851.705	0.88
852.009	1.23
852.313	2.5
852.617	1
852.92	1.08
853.224	0.32
853.528	0.85
853.831	3.96
854.135	3.98
854.438	4.12
854.742	4.11
855.045	4.7
855.349	5.69
855.652	6.67
855.955	6.53
856.259	6.37
856.562	5.8
856.865	6.18
857.168	7.62
857.471	6.85
857.774	10.5
858.077	14.38
858.38	15.98
858.683	15.21
858.986	16.56
859.289	16.34
859.592	18.17
859.894	18.42
860.197	16.27
860.5	17.47
860.802	18.64
861.105	19.09
861.407	16.88
861.71	16.56
862.012	15.51
862.315	14.05
862.617	13.3
862.919	15
863.222	16.13
863.524	16.57
863.826	16.69
864.128	15.4
864.43	12.68
864.732	10.51
865.034	9.6
865.336	8.01
865.638	7.82
865.94	5.78
866.242	5.05
866.544	5.35
866.846	4.42
867.147	3.65
867.449	3.5
867.751	5.4
868.052	5.91
868.354	6.98
868.655	9.35
868.957	8.46
869.258	5.6
869.56	4.03
869.861	0.71
870.162	-1.1
870.463	-0.68
870.765	1.55
871.066	2.64
871.367	3.13
871.668	5.82
871.969	5.76
872.27	4.59
872.571	3.32
872.872	5.54
873.173	4.04
873.473	4.09
873.774	1.8
874.075	2.89
874.376	1.84
874.676	3.15
874.977	0.97
875.277	3.86
875.578	4.76
875.878	4.97
876.179	6.78
876.479	8.39
876.78	6.45
877.08	4.13
877.38	3.83
877.68	3.74
877.981	2.38
878.281	1.44
878.581	4.53
