Data from BA28471_Reflection_00009.txt Node
Date: Mon Nov 18 15:21:18 EST 2019
User: vgr7
Spectrometer: USB2G7710
Scans to average: 3
Trigger mode: 4
Integration Time (sec): 2.000000E-2
Electric dark correction enabled: true
Boxcar width: 10
XAxis mode: Wavelengths
Number of Pixels in Spectrum: 2048
>>>>>Begin Spectral Data<<<<<
177.721	7.13
178.105	227.17
178.488	221.99
178.871	83.3
179.254	64.93
179.636	130.94
180.019	333.93
180.402	94.87
180.785	3148.19
181.168	132.33
181.55	89.43
181.933	46.96
182.316	79.06
182.698	128.7
183.081	124.58
183.463	94.75
183.846	169.69
184.228	68.46
184.611	177.55
184.993	755.17
185.376	123.04
185.758	-34.13
186.14	-741.06
186.522	-5952.63
186.904	293.08
187.287	224.3
187.669	-314.25
188.051	-99.53
188.433	-26.1
188.815	47.73
189.197	42.54
189.579	23.08
189.961	-13.29
190.342	-25.05
190.724	-22.46
191.106	-15.81
191.488	-37.36
191.869	-65.26
192.251	-98.51
192.633	-151.68
193.014	-429.04
193.396	-627.79
193.777	-687.94
194.159	-955.38
194.54	-368.52
194.922	-272.67
195.303	-586.88
195.684	-493.09
196.065	-286.03
196.447	-445.36
196.828	-738.35
197.209	-365.53
197.59	-444.87
197.971	-429.52
198.352	-411.19
198.733	-1028.69
199.114	-823.24
199.495	-333.3
199.876	-269.98
200.257	-128.94
200.638	-67.97
201.018	-54.26
201.399	-43.09
201.78	-19.83
202.16	-32.19
202.541	-31.19
202.922	-34.86
203.302	-48.43
203.683	-47.21
204.063	-57.51
204.444	-15.95
204.824	-20.64
205.204	-18.09
205.585	-16.29
205.965	-2.49
206.345	1.47
206.725	-17.13
207.106	-25.39
207.486	-50.69
207.866	-42.49
208.246	-46.75
208.626	-61.11
209.006	-44.07
209.386	-84.79
209.766	-113.11
210.145	-80.94
210.525	-75.43
210.905	-53.41
211.285	-11.71
211.664	-29.87
212.044	-34.6
212.424	-48.76
212.803	-40.65
213.183	-35.5
213.562	-41.51
213.942	-41.51
214.321	-49.59
214.701	-54.6
215.08	-51.22
215.459	-40.66
215.838	-17.59
216.218	-38.95
216.597	-15.76
216.976	-27.3
217.355	-14.09
217.734	-9.35
218.113	-4.81
218.492	-0.56
218.871	-9.14
219.25	-20.7
219.629	-0.34
220.008	-6.06
220.387	2.02
220.766	-8.55
221.144	-26.68
221.523	-30.74
221.902	-45.71
222.28	-49.52
222.659	-35.68
223.037	-19.34
223.416	-16.32
223.794	-46.23
224.173	-38.47
224.551	-39.93
224.929	-39.51
225.308	-21.83
225.686	-29.88
226.064	-28.94
226.442	-24.07
226.821	-12.05
227.199	-14.6
227.577	-15.87
227.955	-9.27
228.333	-13.66
228.711	-11.35
229.089	-5.23
229.467	-7.1
229.845	-7.72
230.222	-6.86
230.6	-6.27
230.978	-8.97
231.356	-7.18
231.733	-3.99
232.111	-2.69
232.488	-2.35
232.866	-2.46
233.243	-3.04
233.621	-2.88
233.998	-1.5
234.376	-3.73
234.753	-2.97
235.13	-1.55
235.508	-0.1
235.885	0.18
236.262	1.01
236.639	-0.78
237.016	-2.49
237.393	0.14
237.77	1.93
238.147	2.07
238.524	2.73
238.901	3.74
239.278	4.3
239.655	4.7
240.032	4.24
240.409	3.76
240.785	4.37
241.162	4.41
241.539	4.68
241.915	4.44
242.292	4.6
242.668	3.78
243.045	4.12
243.421	4
243.798	3.83
244.174	3.64
244.551	4.45
244.927	4.63
245.303	4.57
245.679	4.64
246.056	4.73
246.432	4.59
246.808	4.52
247.184	4.35
247.56	4.29
247.936	4.28
248.312	4.4
248.688	4.37
249.064	4.44
249.44	4.32
249.815	4.46
250.191	4.38
250.567	4.64
250.943	4.5
251.318	4.56
251.694	4.78
252.069	5.02
252.445	4.67
252.82	4.47
253.196	4.52
253.571	4.46
253.947	4.75
254.322	4.99
254.697	5.09
255.073	4.91
255.448	4.8
255.823	4.98
256.198	5.21
256.573	4.94
256.948	4.76
257.323	4.94
257.698	4.84
258.073	5.06
258.448	5.04
258.823	4.99
259.198	4.9
259.573	4.69
259.948	4.56
260.322	4.58
260.697	4.64
261.072	4.49
261.446	4.4
261.821	4.3
262.195	4.26
262.57	4.22
262.944	4.22
263.319	4.16
263.693	4.04
264.067	3.98
264.442	4.1
264.816	4.07
265.19	3.82
265.564	3.6
265.938	3.29
266.313	3.3
266.687	3.42
267.061	3.24
267.435	3.44
267.809	3.48
268.183	3.52
268.556	3.49
268.93	3.75
269.304	3.85
269.678	3.8
270.051	3.81
270.425	3.94
270.799	3.97
271.172	3.95
271.546	3.94
271.919	3.92
272.293	3.97
272.666	4.05
273.04	4.03
273.413	4.22
273.787	4.38
274.16	4.33
274.533	4.29
274.906	4.31
275.279	4.07
275.653	4.14
276.026	4.23
276.399	4.38
276.772	4.17
277.145	4.1
277.518	4.06
277.891	4.03
278.263	3.74
278.636	3.83
279.009	3.96
279.382	4.16
279.755	4.03
280.127	4.02
280.5	3.93
280.872	4.17
281.245	4.01
281.617	4
281.99	4.05
282.362	4.06
282.735	4.13
283.107	4.17
283.479	4.2
283.852	4.15
284.224	4.12
284.596	4.18
284.968	4.19
285.34	4.2
285.713	4.12
286.085	4.31
286.457	4.34
286.829	4.38
287.201	4.28
287.572	4.27
287.944	4.21
288.316	4.3
288.688	4.27
289.06	4.27
289.431	4.22
289.803	4.35
290.175	4.23
290.546	4.25
290.918	4.29
291.289	4.32
291.661	4.42
292.032	4.42
292.403	4.54
292.775	4.63
293.146	4.65
293.517	4.71
293.889	4.62
294.26	4.65
294.631	4.64
295.002	4.74
295.373	4.74
295.744	4.75
296.115	4.7
296.486	4.59
296.857	4.71
297.228	4.83
297.599	4.69
297.97	4.79
298.34	4.84
298.711	4.84
299.082	4.84
299.452	4.71
299.823	4.71
300.194	4.63
300.564	4.53
300.935	4.67
301.305	4.62
301.676	4.69
302.046	4.67
302.416	4.71
302.787	4.64
303.157	4.68
303.527	4.8
303.897	4.88
304.267	5.05
304.637	5.18
305.008	5.22
305.378	5.33
305.748	5.45
306.117	5.46
306.487	5.56
306.857	5.6
307.227	5.74
307.597	5.79
307.967	5.78
308.336	5.84
308.706	5.84
309.076	6
309.445	6.02
309.815	5.96
310.184	6.01
310.554	6.13
310.923	6.16
311.293	6.15
311.662	6.17
312.031	6.11
312.401	6.14
312.77	6.27
313.139	6.43
313.508	6.56
313.877	6.67
314.246	6.77
314.616	6.85
314.985	6.86
315.353	6.81
315.722	7
316.091	6.96
316.46	7.05
316.829	7.11
317.198	7.25
317.567	7.48
317.935	7.51
318.304	7.52
318.672	7.64
319.041	7.94
319.41	7.94
319.778	8.19
320.147	8.19
320.515	8.15
320.883	8.09
321.252	8.13
321.62	8.1
321.988	8.17
322.357	8.18
322.725	8.25
323.093	8.48
323.461	8.51
323.829	8.69
324.197	8.7
324.565	8.7
324.933	8.73
325.301	8.69
325.669	8.71
326.037	8.85
326.405	8.96
326.772	8.87
327.14	8.96
327.508	8.98
327.875	9
328.243	8.93
328.61	8.93
328.978	8.85
329.346	8.87
329.713	8.88
330.08	8.9
330.448	8.9
330.815	8.77
331.182	8.88
331.55	8.87
331.917	8.97
332.284	9.11
332.651	9.14
333.018	9.03
333.385	9.1
333.752	9.08
334.119	9.1
334.486	9.11
334.853	9.07
335.22	9.12
335.587	9.27
335.954	9.34
336.32	9.42
336.687	9.5
337.054	9.55
337.42	9.54
337.787	9.6
338.153	9.75
338.52	9.9
338.886	9.84
339.253	9.85
339.619	9.69
339.986	9.72
340.352	9.78
340.718	9.9
341.084	9.94
341.451	9.98
341.817	9.98
342.183	9.92
342.549	9.97
342.915	10.05
343.281	10
343.647	10.02
344.013	10.09
344.379	10.07
344.745	10.1
345.11	10.14
345.476	10.11
345.842	10.03
346.208	10.11
346.573	10.18
346.939	10.34
347.304	10.5
347.67	10.41
348.035	10.37
348.401	10.44
348.766	10.36
349.132	10.42
349.497	10.38
349.862	10.5
350.228	10.59
350.593	10.44
350.958	10.41
351.323	10.45
351.688	10.39
352.053	10.43
352.418	10.54
352.783	10.55
353.148	10.51
353.513	10.53
353.878	10.42
354.243	10.45
354.608	10.37
354.972	10.32
355.337	10.39
355.702	10.49
356.066	10.5
356.431	10.51
356.795	10.54
357.16	10.56
357.524	10.45
357.889	10.37
358.253	10.45
358.618	10.49
358.982	10.44
359.346	10.3
359.71	10.25
360.075	10.15
360.439	10.13
360.803	10.12
361.167	10.11
361.531	10.09
361.895	9.95
362.259	9.89
362.623	9.88
362.987	9.85
363.351	9.76
363.714	9.76
364.078	9.75
364.442	9.67
364.806	9.58
365.169	9.67
365.533	9.63
365.896	9.48
366.26	9.36
366.623	9.34
366.987	9.41
367.35	9.36
367.714	9.33
368.077	9.27
368.44	9.27
368.803	9.22
369.167	9.15
369.53	9.15
369.893	9.17
370.256	9.1
370.619	9.02
370.982	8.94
371.345	8.83
371.708	8.78
372.071	8.69
372.434	8.62
372.797	8.48
373.159	8.42
373.522	8.46
373.885	8.48
374.247	8.45
374.61	8.32
374.973	8.28
375.335	8.24
375.698	8.21
376.06	8.12
376.423	8.07
376.785	8.04
377.147	8.01
377.51	7.92
377.872	7.89
378.234	7.86
378.596	7.8
378.958	7.71
379.321	7.66
379.683	7.66
380.045	7.67
380.407	7.64
380.769	7.62
381.13	7.57
381.492	7.5
381.854	7.45
382.216	7.43
382.578	7.41
382.939	7.3
383.301	7.2
383.663	7.18
384.024	7.12
384.386	7.12
384.747	7.05
385.109	7.03
385.47	6.98
385.832	6.94
386.193	6.93
386.554	6.88
386.916	6.84
387.277	6.78
387.638	6.66
387.999	6.59
388.36	6.51
388.721	6.44
389.082	6.44
389.443	6.36
389.804	6.29
390.165	6.21
390.526	6.18
390.887	6.17
391.248	6.12
391.609	6.1
391.969	6.05
392.33	6.03
392.691	6
393.051	5.97
393.412	5.88
393.772	5.82
394.133	5.81
394.493	5.76
394.854	5.72
395.214	5.72
395.574	5.7
395.935	5.67
396.295	5.64
396.655	5.57
397.015	5.53
397.376	5.52
397.736	5.47
398.096	5.43
398.456	5.39
398.816	5.36
399.176	5.29
399.535	5.23
399.895	5.19
400.255	5.12
400.615	5.04
400.975	5.03
401.334	5.02
401.694	4.96
402.054	4.93
402.413	4.9
402.773	4.86
403.132	4.84
403.492	4.82
403.851	4.81
404.211	4.8
404.57	4.74
404.929	4.75
405.288	4.74
405.648	4.72
406.007	4.69
406.366	4.64
406.725	4.63
407.084	4.6
407.443	4.58
407.802	4.58
408.161	4.56
408.52	4.54
408.879	4.51
409.238	4.49
409.596	4.46
409.955	4.4
410.314	4.4
410.673	4.36
411.031	4.36
411.39	4.34
411.748	4.28
412.107	4.31
412.465	4.25
412.824	4.24
413.182	4.21
413.54	4.19
413.899	4.21
414.257	4.19
414.615	4.2
414.974	4.2
415.332	4.16
415.69	4.14
416.048	4.1
416.406	4.09
416.764	4.08
417.122	4.09
417.48	4.09
417.838	4.05
418.195	4.04
418.553	4.01
418.911	3.98
419.269	3.98
419.626	3.95
419.984	3.95
420.342	3.92
420.699	3.91
421.057	3.88
421.414	3.86
421.772	3.83
422.129	3.8
422.486	3.78
422.844	3.78
423.201	3.76
423.558	3.76
423.915	3.74
424.273	3.74
424.63	3.7
424.987	3.7
425.344	3.7
425.701	3.69
426.058	3.67
426.415	3.67
426.772	3.64
427.128	3.64
427.485	3.62
427.842	3.6
428.199	3.59
428.555	3.59
428.912	3.6
429.269	3.59
429.625	3.58
429.982	3.55
430.338	3.56
430.695	3.57
431.051	3.55
431.407	3.55
431.764	3.56
432.12	3.55
432.476	3.53
432.832	3.5
433.189	3.51
433.545	3.51
433.901	3.51
434.257	3.49
434.613	3.49
434.969	3.49
435.325	3.49
435.681	3.49
436.036	3.5
436.392	3.48
436.748	3.48
437.104	3.47
437.459	3.48
437.815	3.46
438.171	3.47
438.526	3.47
438.882	3.47
439.237	3.46
439.593	3.46
439.948	3.46
440.304	3.47
440.659	3.47
441.014	3.47
441.369	3.45
441.725	3.45
442.08	3.43
442.435	3.43
442.79	3.43
443.145	3.43
443.5	3.42
443.855	3.41
444.21	3.42
444.565	3.43
444.92	3.43
445.275	3.42
445.629	3.4
445.984	3.4
446.339	3.38
446.693	3.35
447.048	3.35
447.403	3.34
447.757	3.32
448.112	3.3
448.466	3.29
448.82	3.28
449.175	3.3
449.529	3.3
449.883	3.28
450.238	3.27
450.592	3.27
450.946	3.26
451.3	3.23
451.654	3.22
452.008	3.2
452.362	3.18
452.716	3.18
453.07	3.17
453.424	3.16
453.778	3.15
454.132	3.15
454.486	3.16
454.839	3.16
455.193	3.16
455.547	3.16
455.9	3.16
456.254	3.17
456.607	3.16
456.961	3.16
457.314	3.17
457.668	3.18
458.021	3.16
458.375	3.16
458.728	3.18
459.081	3.19
459.434	3.19
459.787	3.2
460.141	3.21
460.494	3.2
460.847	3.22
461.2	3.22
461.553	3.25
461.906	3.25
462.259	3.28
462.611	3.31
462.964	3.32
463.317	3.32
463.67	3.32
464.022	3.35
464.375	3.36
464.728	3.37
465.08	3.39
465.433	3.41
465.785	3.42
466.138	3.45
466.49	3.45
466.843	3.47
467.195	3.48
467.547	3.5
467.899	3.53
468.252	3.53
468.604	3.54
468.956	3.54
469.308	3.55
469.66	3.53
470.012	3.53
470.364	3.56
470.716	3.59
471.068	3.59
471.42	3.58
471.772	3.59
472.123	3.6
472.475	3.63
472.827	3.65
473.178	3.67
473.53	3.65
473.882	3.66
474.233	3.66
474.585	3.67
474.936	3.66
475.288	3.65
475.639	3.65
475.99	3.63
476.342	3.65
476.693	3.65
477.044	3.65
477.395	3.64
477.746	3.62
478.097	3.61
478.448	3.59
478.8	3.59
479.15	3.56
479.501	3.55
479.852	3.53
480.203	3.52
480.554	3.53
480.905	3.52
481.255	3.51
481.606	3.51
481.957	3.5
482.307	3.5
482.658	3.5
483.009	3.5
483.359	3.51
483.709	3.51
484.06	3.51
484.41	3.53
484.761	3.53
485.111	3.53
485.461	3.53
485.811	3.54
486.162	3.55
486.512	3.57
486.862	3.57
487.212	3.58
487.562	3.59
487.912	3.58
488.262	3.6
488.612	3.61
488.961	3.62
489.311	3.63
489.661	3.63
490.011	3.65
490.36	3.67
490.71	3.68
491.06	3.68
491.409	3.69
491.759	3.68
492.108	3.69
492.458	3.71
492.807	3.72
493.157	3.74
493.506	3.76
493.855	3.77
494.204	3.8
494.554	3.81
494.903	3.82
495.252	3.86
495.601	3.91
495.95	3.93
496.299	3.95
496.648	3.99
496.997	4.02
497.346	4.05
497.695	4.08
498.043	4.12
498.392	4.15
498.741	4.19
499.09	4.25
499.438	4.31
499.787	4.36
500.135	4.42
500.484	4.46
500.832	4.51
501.181	4.56
501.529	4.62
501.878	4.69
502.226	4.77
502.574	4.83
502.923	4.86
503.271	4.95
503.619	5.04
503.967	5.1
504.315	5.18
504.663	5.27
505.011	5.36
505.359	5.44
505.707	5.54
506.055	5.62
506.403	5.72
506.751	5.81
507.098	5.89
507.446	5.99
507.794	6.05
508.141	6.15
508.489	6.25
508.837	6.34
509.184	6.46
509.531	6.57
509.879	6.68
510.226	6.8
510.574	6.87
510.921	6.98
511.268	7.07
511.616	7.17
511.963	7.28
512.31	7.39
512.657	7.52
513.004	7.62
513.351	7.76
513.698	7.89
514.045	8.02
514.392	8.17
514.739	8.31
515.086	8.45
515.432	8.6
515.779	8.73
516.126	8.88
516.473	9.02
516.819	9.14
517.166	9.26
517.512	9.39
517.859	9.55
518.205	9.67
518.552	9.81
518.898	9.95
519.245	10.07
519.591	10.18
519.937	10.27
520.283	10.44
520.629	10.58
520.976	10.73
521.322	10.89
521.668	11.03
522.014	11.23
522.36	11.42
522.706	11.6
523.052	11.82
523.398	12.04
523.743	12.23
524.089	12.44
524.435	12.67
524.781	12.88
525.126	13.08
525.472	13.29
525.817	13.49
526.163	13.63
526.509	13.78
526.854	13.93
527.199	14.11
527.545	14.25
527.89	14.4
528.235	14.56
528.581	14.7
528.926	14.85
529.271	15
529.616	15.16
529.961	15.32
530.306	15.47
530.651	15.63
530.996	15.83
531.341	16
531.686	16.19
532.031	16.39
532.376	16.59
532.721	16.78
533.065	16.99
533.41	17.24
533.755	17.48
534.099	17.71
534.444	17.92
534.788	18.15
535.133	18.36
535.477	18.59
535.822	18.85
536.166	19.11
536.51	19.39
536.855	19.69
537.199	20.02
537.543	20.36
537.887	20.71
538.231	21.03
538.576	21.37
538.92	21.67
539.264	21.99
539.608	22.29
539.951	22.57
540.295	22.85
540.639	23.11
540.983	23.35
541.327	23.61
541.671	23.88
542.014	24.13
542.358	24.41
542.701	24.65
543.045	24.89
543.389	25.16
543.732	25.44
544.075	25.7
544.419	25.97
544.762	26.24
545.105	26.51
545.449	26.8
545.792	27.11
546.135	27.45
546.478	27.78
546.821	28.11
547.165	28.44
547.508	28.78
547.851	29.16
548.194	29.51
548.536	29.89
548.879	30.27
549.222	30.65
549.565	31.03
549.908	31.44
550.25	31.82
550.593	32.16
550.936	32.45
551.278	32.84
551.621	33.19
551.963	33.56
552.306	33.97
552.648	34.31
552.991	34.66
553.333	35.02
553.675	35.3
554.017	35.66
554.36	35.99
554.702	36.32
555.044	36.64
555.386	36.95
555.728	37.22
556.07	37.55
556.412	37.88
556.754	38.19
557.096	38.43
557.438	38.77
557.78	39.13
558.121	39.46
558.463	39.76
558.805	40.11
559.147	40.39
559.488	40.66
559.83	40.95
560.171	41.31
560.513	41.67
560.854	42.03
561.196	42.28
561.537	42.66
561.878	42.97
562.22	43.24
562.561	43.61
562.902	43.94
563.243	44.2
563.584	44.44
563.925	44.69
564.266	44.99
564.607	45.19
564.948	45.48
565.289	45.74
565.63	45.99
565.971	46.16
566.312	46.39
566.653	46.59
566.993	46.87
567.334	47.01
567.675	47.21
568.015	47.46
568.356	47.69
568.696	47.83
569.037	48.05
569.377	48.25
569.718	48.43
570.058	48.64
570.398	48.81
570.739	48.96
571.079	49.19
571.419	49.39
571.759	49.62
572.099	49.74
572.439	49.89
572.779	50.04
573.119	50.25
573.459	50.45
573.799	50.6
574.139	50.72
574.479	50.88
574.819	51.02
575.158	51.08
575.498	51.24
575.838	51.39
576.177	51.52
576.517	51.67
576.856	51.78
577.196	51.93
577.535	52.1
577.875	52.31
578.214	52.42
578.553	52.65
578.893	52.73
579.232	52.93
579.571	53.14
579.91	53.33
580.25	53.4
580.589	53.48
580.928	53.64
581.267	53.82
581.606	53.93
581.945	54.02
582.283	54.18
582.622	54.34
582.961	54.4
583.3	54.43
583.639	54.54
583.977	54.72
584.316	54.79
584.654	54.97
584.993	55.14
585.332	55.32
585.67	55.38
586.008	55.52
586.347	55.6
586.685	55.69
587.024	55.83
587.362	56.02
587.7	56.15
588.038	56.33
588.376	56.39
588.715	56.58
589.053	56.79
589.391	56.88
589.729	56.95
590.067	57.06
590.404	57.27
590.742	57.37
591.08	57.45
591.418	57.58
591.756	57.64
592.093	57.6
592.431	57.66
592.769	57.7
593.106	57.8
593.444	57.85
593.781	57.91
594.119	57.99
594.456	58.07
594.793	58.16
595.131	58.23
595.468	58.33
595.805	58.36
596.143	58.37
596.48	58.39
596.817	58.51
597.154	58.58
597.491	58.59
597.828	58.7
598.165	58.82
598.502	58.87
598.839	58.98
599.176	59.1
599.512	59.2
599.849	59.31
600.186	59.39
600.523	59.52
600.859	59.65
601.196	59.68
601.532	59.73
601.869	59.8
602.205	59.84
602.542	59.89
602.878	59.93
603.215	59.98
603.551	60.01
603.887	60.04
604.223	60.08
604.56	60.18
604.896	60.21
605.232	60.21
605.568	60.23
605.904	60.25
606.24	60.35
606.576	60.33
606.912	60.35
607.248	60.35
607.583	60.36
607.919	60.42
608.255	60.49
608.591	60.53
608.926	60.55
609.262	60.57
609.597	60.55
609.933	60.67
610.268	60.7
610.604	60.84
610.939	60.83
611.275	60.86
611.61	60.85
611.945	60.88
612.281	60.92
612.616	60.95
612.951	61.01
613.286	61.02
613.621	61.09
613.956	61.11
614.291	61.21
614.626	61.21
614.961	61.17
615.296	61.19
615.631	61.29
615.966	61.35
616.3	61.37
616.635	61.5
616.97	61.43
617.304	61.49
617.639	61.55
617.973	61.6
618.308	61.73
618.642	61.9
618.977	61.98
619.311	61.99
619.646	62.06
619.98	62
620.314	62.02
620.648	62
620.983	62.05
621.317	62.03
621.651	62.12
621.985	62.29
622.319	62.3
622.653	62.25
622.987	62.29
623.321	62.37
623.655	62.35
623.988	62.44
624.322	62.43
624.656	62.48
624.99	62.49
625.323	62.54
625.657	62.51
625.99	62.47
626.324	62.48
626.657	62.55
626.991	62.59
627.324	62.61
627.658	62.71
627.991	62.82
628.324	62.86
628.657	62.88
628.991	62.78
629.324	62.82
629.657	62.83
629.99	62.84
630.323	62.8
630.656	62.72
630.989	62.77
631.322	62.84
631.655	62.78
631.987	62.77
632.32	62.65
632.653	62.57
632.986	62.6
633.318	62.67
633.651	62.69
633.984	62.76
634.316	62.85
634.649	62.84
634.981	62.76
635.313	62.78
635.646	62.79
635.978	62.81
636.31	62.83
636.643	62.9
636.975	62.88
637.307	63
637.639	63.09
637.971	63.04
638.303	63.01
638.635	63.13
638.967	63.29
639.299	63.5
639.631	63.62
639.963	63.61
640.295	63.6
640.626	63.54
640.958	63.49
641.29	63.37
641.621	63.37
641.953	63.46
642.285	63.5
642.616	63.57
642.948	63.64
643.279	63.63
643.61	63.71
643.942	63.7
644.273	63.7
644.604	63.78
644.936	63.88
645.267	63.88
645.598	63.77
645.929	63.78
646.26	63.69
646.591	63.8
646.922	63.9
647.253	64
647.584	64.03
647.915	64.08
648.245	64.15
648.576	64.16
648.907	64.15
649.238	64.11
649.568	64.14
649.899	64.06
650.229	63.99
650.56	63.94
650.89	64.05
651.221	63.97
651.551	63.88
651.882	63.84
652.212	63.96
652.542	63.94
652.872	63.87
653.203	63.94
653.533	63.88
653.863	63.85
654.193	63.67
654.523	63.76
654.853	63.71
655.183	63.77
655.513	63.71
655.843	63.83
656.172	63.93
656.502	63.85
656.832	63.97
657.162	64.07
657.491	64.12
657.821	64.08
658.15	64.18
658.48	64.28
658.809	64.24
659.139	64.18
659.468	64.18
659.798	64.21
660.127	64.22
660.456	64.13
660.785	64.21
661.115	64.27
661.444	64.24
661.773	64.37
662.102	64.43
662.431	64.47
662.76	64.41
663.089	64.45
663.418	64.56
663.747	64.57
664.076	64.63
664.404	64.68
664.733	64.76
665.062	64.69
665.39	64.74
665.719	64.78
666.048	64.83
666.376	64.9
666.705	64.91
667.033	64.89
667.362	65.04
667.69	64.97
668.018	64.97
668.347	64.96
668.675	64.85
669.003	64.84
669.331	64.95
669.659	64.91
669.987	64.85
670.315	64.87
670.643	64.82
670.971	64.77
671.299	64.65
671.627	64.61
671.955	64.7
672.283	64.76
672.61	64.62
672.938	64.58
673.266	64.63
673.593	64.64
673.921	64.59
674.249	64.67
674.576	64.74
674.904	64.83
675.231	64.84
675.558	64.86
675.886	64.92
676.213	64.95
676.54	64.9
676.867	64.94
677.195	64.92
677.522	64.86
677.849	64.8
678.176	64.71
678.503	64.8
678.83	64.72
679.157	64.67
679.484	64.93
679.81	64.94
680.137	64.9
680.464	64.85
680.791	64.9
681.117	64.79
681.444	64.62
681.771	64.68
682.097	64.79
682.424	64.73
682.75	64.69
683.077	64.68
683.403	64.72
683.729	64.71
684.056	64.71
684.382	64.71
684.708	64.8
685.034	64.95
685.36	64.91
685.686	64.93
686.012	64.79
686.339	64.69
686.664	64.69
686.99	64.71
687.316	64.68
687.642	64.65
687.968	64.68
688.294	64.84
688.619	64.71
688.945	64.65
689.271	64.76
689.596	64.75
689.922	64.7
690.247	64.75
690.573	64.72
690.898	64.7
691.224	64.78
691.549	64.73
691.874	64.78
692.2	64.58
692.525	64.6
692.85	64.89
693.175	64.99
693.5	65.01
693.825	64.98
694.15	64.99
694.475	64.98
694.8	65.05
695.125	65.06
695.45	65.23
695.775	65.34
696.099	65.45
696.424	65.36
696.749	65.35
697.073	65.42
697.398	65.4
697.723	65.36
698.047	65.33
698.372	65.35
698.696	65.29
699.02	65.55
699.345	65.62
699.669	65.68
699.993	65.52
700.318	65.57
700.642	65.67
700.966	65.75
701.29	65.79
701.614	65.68
701.938	65.73
702.262	65.81
702.586	65.67
702.91	65.6
703.234	65.57
703.557	65.63
703.881	65.71
704.205	65.85
704.529	66.02
704.852	66.11
705.176	66.11
705.499	66.19
705.823	65.93
706.146	65.83
706.47	65.61
706.793	65.83
707.117	65.77
707.44	65.58
707.763	65.36
708.086	65.38
708.409	65.43
708.733	65.41
709.056	65.31
709.379	65.29
709.702	65.29
710.025	65.22
710.348	65.34
710.671	65.06
710.993	65.11
711.316	65.03
711.639	65
711.962	64.94
712.284	64.92
712.607	64.92
712.93	65.02
713.252	65
713.575	64.92
713.897	64.86
714.22	65.07
714.542	65.41
714.864	65.39
715.187	65.3
715.509	65.21
715.831	65.15
716.153	65.14
716.475	65.14
716.798	65.08
717.12	64.78
717.442	64.93
717.764	64.93
718.085	64.79
718.407	64.81
718.729	64.81
719.051	64.74
719.373	64.7
719.695	64.66
720.016	64.7
720.338	64.79
720.659	65
720.981	65.05
721.302	64.92
721.624	64.85
721.945	64.89
722.267	65.24
722.588	65.23
722.909	65.22
723.231	65.16
723.552	65.45
723.873	65.54
724.194	65.32
724.515	65.26
724.836	65.5
725.157	65.44
725.478	65.66
725.799	65.66
726.12	65.7
726.441	65.8
726.762	65.58
727.083	65.24
727.403	65.06
727.724	64.92
728.045	64.88
728.365	64.95
728.686	64.91
729.006	64.78
729.327	64.62
729.647	64.72
729.967	64.88
730.288	64.76
730.608	65.01
730.928	65.16
731.249	65.01
731.569	64.99
731.889	65.11
732.209	65.03
732.529	65.24
732.849	65.26
733.169	65.2
733.489	65.51
733.809	65.76
734.129	65.79
734.448	65.98
734.768	65.8
735.088	65.92
735.408	65.95
735.727	65.76
736.047	65.85
736.366	65.87
736.686	65.76
737.005	65.85
737.325	65.87
737.644	65.88
737.963	65.95
738.283	65.82
738.602	65.81
738.921	65.71
739.24	65.67
739.56	65.78
739.879	65.56
740.198	65.58
740.517	65.44
740.836	65.43
741.155	65.24
741.473	65.6
741.792	65.31
742.111	65.53
742.43	65.72
742.748	66.12
743.067	66.33
743.386	66.41
743.704	66.44
744.023	66.27
744.341	66.04
744.66	66.25
744.978	66.23
745.297	66.02
745.615	66.29
745.933	66.23
746.252	66.02
746.57	66.5
746.888	66.38
747.206	66.32
747.524	66.13
747.842	66.07
748.16	65.84
748.478	66.08
748.796	66.11
749.114	65.97
749.432	65.54
749.749	65.35
750.067	65.28
750.385	65.27
750.703	65.51
751.02	65.66
751.338	65.54
751.655	65.64
751.973	65.97
752.29	65.43
752.608	65.44
752.925	65.8
753.242	65.71
753.56	65.72
753.877	66.07
754.194	66.39
754.511	66.55
754.828	66.9
755.145	66.85
755.462	66.62
755.779	66.68
756.096	66.58
756.413	66.29
756.73	66.36
757.047	66.17
757.364	66
757.68	66
757.997	65.93
758.314	65.87
758.63	65.79
758.947	65.95
759.264	65.94
759.58	65.62
759.896	65.53
760.213	65.41
760.529	65.24
760.846	65.23
761.162	65.16
761.478	64.74
761.794	64.92
762.11	64.91
762.426	64.79
762.743	64.88
763.059	65.09
763.375	65.15
763.69	65.45
764.006	65.52
764.322	65.63
764.638	65.68
764.954	65.68
765.27	65.4
765.585	65.58
765.901	65.44
766.216	65.44
766.532	65.6
766.848	65.43
767.163	65.3
767.478	65.47
767.794	65.13
768.109	65.36
768.424	65.2
768.74	65.16
769.055	65.17
769.37	65.3
769.685	65.25
770	65.25
770.315	65.26
770.63	64.87
770.945	64.94
771.26	64.7
771.575	64.82
771.89	65.04
772.205	65.05
772.52	65.09
772.834	65.33
773.149	65.48
773.464	65.9
773.778	66.13
774.093	65.83
774.407	66.13
774.722	66.09
775.036	66.13
775.351	66.25
775.665	66.17
775.979	65.9
776.293	65.73
776.608	65.45
776.922	65.31
777.236	65.23
777.55	64.96
777.864	64.89
778.178	64.59
778.492	64.79
778.806	64.97
779.12	65.16
779.434	64.92
779.747	64.42
780.061	64.72
780.375	64.41
780.689	64.06
781.002	64.57
781.316	64.94
781.629	64.81
781.943	64.65
782.256	64.84
782.57	64.47
782.883	64.82
783.196	64.77
783.51	64.44
783.823	64.38
784.136	64.83
784.449	65.06
784.762	65.32
785.075	65.06
785.388	64.61
785.701	64.32
786.014	64.57
786.327	64.33
786.64	63.96
786.953	64.28
787.266	64.82
787.578	64.48
787.891	63.97
788.204	64.05
788.516	64.42
788.829	64.4
789.141	64.82
789.454	64.53
789.766	64.9
790.079	65.43
790.391	65.61
790.703	65.49
791.016	65.14
791.328	64.93
791.64	64.85
791.952	64.78
792.264	64.83
792.576	64.63
792.888	64.99
793.2	64.89
793.512	64.95
793.824	64.77
794.136	65.07
794.448	65.21
794.76	64.81
795.071	64.79
795.383	65.27
795.695	65.49
796.006	65.57
796.318	65.59
796.629	65.2
796.941	65.26
797.252	64.98
797.564	65.57
797.875	65.64
798.186	65.65
798.497	65.78
798.809	66.13
799.12	66.17
799.431	65.93
799.742	65.81
800.053	66.32
800.364	66.34
800.675	65.95
800.986	66.24
801.297	66.95
801.608	66.77
801.918	66.15
802.229	66.05
802.54	66.26
802.851	65.81
803.161	66.11
803.472	66.23
803.782	66.31
804.093	66.5
804.403	66.35
804.714	67.03
805.024	66.64
805.334	66.78
805.645	67.11
805.955	67.22
806.265	67.21
806.575	66.81
806.885	66.27
807.195	66.52
807.505	66.18
807.815	65.79
808.125	65.74
808.435	65.97
808.745	66.01
809.055	66.12
809.365	65.99
809.674	65.65
809.984	65.8
810.294	65.89
810.603	65.6
810.913	66.86
811.222	66.53
811.532	67.45
811.841	67.41
812.151	67.21
812.46	66.9
812.769	66.81
813.079	67.2
813.388	68.24
813.697	68.01
814.006	67.58
814.315	67.85
814.624	67.55
814.933	67.88
815.242	68.02
815.551	67
815.86	67.26
816.169	67.52
816.478	66.85
816.786	66.43
817.095	66.42
817.404	65.09
817.712	64.96
818.021	64.33
818.33	64.15
818.638	64.26
818.947	65.24
819.255	65.4
819.563	64.54
819.872	64.52
820.18	65.13
820.488	65.92
820.796	65.9
821.105	65.67
821.413	65.89
821.721	65.89
822.029	66.08
822.337	66.12
822.645	66.36
822.953	66.66
823.26	66.76
823.568	66.73
823.876	66.89
824.184	67.06
824.491	67.28
824.799	67.31
825.107	67.19
825.414	67.15
825.722	67.32
826.029	67.72
826.337	67.72
826.644	67.31
826.951	67.07
827.259	67.01
827.566	67.25
827.873	66.97
828.18	67.02
828.488	66.96
828.795	67.25
829.102	66.9
829.409	66.7
829.716	66.77
830.023	66.9
830.329	66.67
830.636	66.25
830.943	65.96
831.25	65.7
831.557	66.2
831.863	65.48
832.17	65.39
832.476	64.93
832.783	64.86
833.089	65.36
833.396	65.38
833.702	65.72
834.009	65.53
834.315	66.09
834.621	65.95
834.928	66.4
835.234	65.79
835.54	66.07
835.846	66.04
836.152	65.53
836.458	65.68
836.764	66.18
837.07	65.93
837.376	65.69
837.682	65.88
837.988	65.48
838.293	65.65
838.599	65.25
838.905	65.01
839.211	64.95
839.516	65.21
839.822	64.97
840.127	64.52
840.433	65.33
840.738	64.43
841.044	65.44
841.349	65.56
841.654	66.08
841.959	66.6
842.265	67.03
842.57	67.68
842.875	66.72
843.18	65.57
843.485	65.82
843.79	66.91
844.095	66.56
844.4	66.84
844.705	66.87
845.01	68.06
845.315	68.43
845.619	67.66
845.924	67.81
846.229	67.02
846.533	66.76
846.838	66.05
847.142	65.53
847.447	64.12
847.751	62.06
848.056	61.38
848.36	59.62
848.664	59.53
848.969	59.78
849.273	61.26
849.577	61.85
849.881	63.11
850.185	62.99
850.489	64.06
850.794	65.07
851.097	65.2
851.401	63.63
851.705	63.48
852.009	64.53
852.313	62.72
852.617	62.14
852.92	62.62
853.224	62
853.528	63.25
853.831	63.64
854.135	65.13
854.438	64.78
854.742	66.13
855.045	65.3
855.349	63.5
855.652	60.9
855.955	60.3
856.259	59.13
856.562	55.59
856.865	54.53
857.168	51.67
857.471	52.77
857.774	53.9
858.077	52.56
858.38	51.43
858.683	50.55
858.986	52.31
859.289	52.07
859.592	52.35
859.894	51.57
860.197	52.03
860.5	50.87
860.802	52.72
861.105	51.55
861.407	50.3
861.71	50.69
862.012	49.41
862.315	47.76
862.617	46.55
862.919	48.19
863.222	47.94
863.524	50.15
863.826	49.85
864.128	48.75
864.43	50.18
864.732	52.21
865.034	55.2
865.336	54.86
865.638	54.35
865.94	53.54
866.242	55.16
866.544	53.92
866.846	56.48
867.147	57.14
867.449	55.92
867.751	59.87
868.052	61.35
868.354	62.15
868.655	66.25
868.957	67.68
869.258	71.73
869.56	74.98
869.861	75.65
870.162	77.37
870.463	77.05
870.765	79.49
871.066	79.68
871.367	78.59
871.668	76.28
871.969	78.57
872.27	81.13
872.571	78.05
872.872	78.21
873.173	74.47
873.473	73.86
873.774	75.99
874.075	75.58
874.376	74.1
874.676	76.31
874.977	73.82
875.277	74.31
875.578	70.55
875.878	68.67
876.179	67.42
876.479	66.09
876.78	66.71
877.08	64.53
877.38	63.52
877.68	63.08
877.981	65.37
878.281	64.03
878.581	61.61
