Data from BA28306_Reflection_00015.txt Node
Date: Mon Nov 18 15:54:06 EST 2019
User: vgr7
Spectrometer: USB2G7710
Scans to average: 3
Trigger mode: 4
Integration Time (sec): 2.000000E-2
Electric dark correction enabled: true
Boxcar width: 10
XAxis mode: Wavelengths
Number of Pixels in Spectrum: 2048
>>>>>Begin Spectral Data<<<<<
177.721	468.93
178.105	74.52
178.488	-70.21
178.871	-376.42
179.254	-603.3
179.636	-318.37
180.019	180.84
180.402	163.64
180.785	-11.91
181.168	-159.04
181.55	-54.06
181.933	150.54
182.316	150.43
182.698	170.97
183.081	163.07
183.463	231.33
183.846	333.5
184.228	-419.34
184.611	-456.52
184.993	8.93
185.376	70.12
185.758	222.25
186.14	102.89
186.522	15.3
186.904	-43.27
187.287	-81.31
187.669	-75.55
188.051	-80.31
188.433	-3.56
188.815	56.7
189.197	77.88
189.579	92.03
189.961	76.89
190.342	33.58
190.724	38.65
191.106	-17.44
191.488	3.21
191.869	-25.53
192.251	-58.76
192.633	-104.63
193.014	-154.97
193.396	-245.2
193.777	-173.2
194.159	-97.43
194.54	-101.15
194.922	-64.63
195.303	-43.73
195.684	-0.38
196.065	9.27
196.447	0.13
196.828	-36.54
197.209	-20.84
197.59	-28.32
197.971	-32.4
198.352	-11.46
198.733	-29.92
199.114	18.51
199.495	-6.87
199.876	3.99
200.257	13.37
200.638	57.45
201.018	82.82
201.399	122.43
201.78	144.02
202.16	87.49
202.541	77.26
202.922	57.94
203.302	7.21
203.683	-61.73
204.063	-46.23
204.444	-21.75
204.824	-5.5
205.204	-7.16
205.585	5.8
205.965	14.23
206.345	20.33
206.725	-3.09
207.106	-14.73
207.486	-31.31
207.866	-3.56
208.246	-1.89
208.626	-51.42
209.006	-12.21
209.386	-35.41
209.766	-56.75
210.145	11.41
210.525	12.14
210.905	25.95
211.285	32.29
211.664	31.79
212.044	20.54
212.424	24.51
212.803	23.41
213.183	39.49
213.562	42.9
213.942	41.32
214.321	49.11
214.701	49.71
215.08	42.5
215.459	45.08
215.838	33.43
216.218	34.45
216.597	42.43
216.976	41.08
217.355	39.64
217.734	51.84
218.113	50.49
218.492	56.28
218.871	45.03
219.25	52.33
219.629	47.4
220.008	53.2
220.387	34.25
220.766	28.15
221.144	6.29
221.523	-17.78
221.902	-21.43
222.28	-27.14
222.659	-11.86
223.037	-8.14
223.416	-12.98
223.794	-8.24
224.173	-12.33
224.551	-7.02
224.929	-13.58
225.308	-9.38
225.686	-13.41
226.064	-9.35
226.442	-14.04
226.821	-7.4
227.199	-10.07
227.577	-12.3
227.955	-12.99
228.333	-8.37
228.711	-4.03
229.089	0.93
229.467	3.49
229.845	1.63
230.222	1.96
230.6	-1.71
230.978	-3.1
231.356	-3.3
231.733	-2.58
232.111	0.8
232.488	0.05
232.866	0.99
233.243	2.57
233.621	2.82
233.998	3.08
234.376	3.38
234.753	4.4
235.13	4.3
235.508	5.39
235.885	5.29
236.262	3.19
236.639	3.9
237.016	3.91
237.393	4.73
237.77	6.61
238.147	6.62
238.524	7.71
238.901	8.62
239.278	8.94
239.655	8.77
240.032	7.66
240.409	7.33
240.785	6.82
241.162	5.81
241.539	5.88
241.915	5.69
242.292	5.79
242.668	5.44
243.045	5.54
243.421	5.05
243.798	5.09
244.174	5.6
244.551	5.39
244.927	5.19
245.303	5.34
245.679	5.3
246.056	5.24
246.432	4.98
246.808	4.73
247.184	4.38
247.56	4.29
247.936	4.45
248.312	4.68
248.688	4.86
249.064	4.98
249.44	5
249.815	5.1
250.191	5.07
250.567	5.18
250.943	5.26
251.318	5.65
251.694	5.66
252.069	5.27
252.445	5.1
252.82	4.97
253.196	4.77
253.571	4.83
253.947	5.12
254.322	5.37
254.697	5.71
255.073	5.8
255.448	5.78
255.823	5.62
256.198	5.55
256.573	5.3
256.948	5.59
257.323	5.59
257.698	5.42
258.073	5.45
258.448	5.31
258.823	5.27
259.198	5.05
259.573	5.06
259.948	5.24
260.322	5.34
260.697	5.4
261.072	5.32
261.446	5.23
261.821	5.02
262.195	5.07
262.57	4.86
262.944	4.88
263.319	4.79
263.693	4.72
264.067	4.65
264.442	4.72
264.816	4.42
265.19	4.29
265.564	4.1
265.938	4.02
266.313	3.9
266.687	3.73
267.061	3.62
267.435	3.65
267.809	3.49
268.183	3.4
268.556	3.37
268.93	3.5
269.304	3.43
269.678	3.65
270.051	3.43
270.425	3.63
270.799	3.63
271.172	3.84
271.546	3.98
271.919	4.02
272.293	3.9
272.666	4.05
273.04	4.08
273.413	4.21
273.787	4.32
274.16	4.39
274.533	4.52
274.906	4.62
275.279	4.59
275.653	4.66
276.026	4.56
276.399	4.6
276.772	4.56
277.145	4.52
277.518	4.54
277.891	4.61
278.263	4.5
278.636	4.54
279.009	4.44
279.382	4.37
279.755	4.34
280.127	4.51
280.5	4.45
280.872	4.51
281.245	4.44
281.617	4.49
281.99	4.52
282.362	4.49
282.735	4.42
283.107	4.47
283.479	4.39
283.852	4.41
284.224	4.36
284.596	4.27
284.968	4.38
285.34	4.29
285.713	4.32
286.085	4.45
286.457	4.53
286.829	4.47
287.201	4.59
287.572	4.58
287.944	4.57
288.316	4.58
288.688	4.62
289.06	4.63
289.431	4.63
289.803	4.83
290.175	4.91
290.546	5.05
290.918	5.05
291.289	5.14
291.661	5.32
292.032	5.49
292.403	5.62
292.775	5.58
293.146	5.55
293.517	5.64
293.889	5.62
294.26	5.56
294.631	5.61
295.002	5.53
295.373	5.49
295.744	5.56
296.115	5.48
296.486	5.28
296.857	5.28
297.228	5.39
297.599	5.31
297.97	5.21
298.34	5.33
298.711	5.44
299.082	5.44
299.452	5.43
299.823	5.42
300.194	5.62
300.564	5.71
300.935	5.91
301.305	5.84
301.676	5.98
302.046	6.13
302.416	6.34
302.787	6.45
303.157	6.57
303.527	6.56
303.897	6.74
304.267	7.03
304.637	7.23
305.008	7.17
305.378	7.21
305.748	7.45
306.117	7.49
306.487	7.46
306.857	7.58
307.227	7.75
307.597	7.85
307.967	7.67
308.336	7.67
308.706	7.67
309.076	7.77
309.445	7.75
309.815	7.7
310.184	7.49
310.554	7.41
310.923	7.44
311.293	7.64
311.662	7.71
312.031	7.9
312.401	7.88
312.77	7.96
313.139	8.05
313.508	8
313.877	7.91
314.246	7.99
314.616	8.04
314.985	8.04
315.353	8.04
315.722	8.18
316.091	8.23
316.46	8.19
316.829	8.18
317.198	8.11
317.567	8.25
317.935	8.36
318.304	8.38
318.672	8.38
319.041	8.5
319.41	8.54
319.778	8.4
320.147	8.47
320.515	8.42
320.883	8.25
321.252	8.46
321.62	8.57
321.988	8.7
322.357	8.79
322.725	8.9
323.093	9.13
323.461	9.22
323.829	9.4
324.197	9.52
324.565	9.7
324.933	9.87
325.301	9.9
325.669	10.09
326.037	10.27
326.405	10.42
326.772	10.34
327.14	10.4
327.508	10.42
327.875	10.46
328.243	10.5
328.61	10.77
328.978	10.8
329.346	10.91
329.713	10.81
330.08	10.89
330.448	10.73
330.815	10.57
331.182	10.67
331.55	10.67
331.917	10.69
332.284	10.76
332.651	10.78
333.018	10.75
333.385	10.81
333.752	10.81
334.119	10.9
334.486	10.9
334.853	10.96
335.22	10.92
335.587	10.93
335.954	10.93
336.32	10.85
336.687	10.84
337.054	10.85
337.42	10.89
337.787	10.84
338.153	10.95
338.52	11.02
338.886	10.89
339.253	10.82
339.619	10.78
339.986	10.69
340.352	10.69
340.718	10.8
341.084	10.77
341.451	10.87
341.817	10.86
342.183	10.76
342.549	10.74
342.915	10.9
343.281	10.94
343.647	11
344.013	11.11
344.379	11
344.745	11.02
345.11	11.04
345.476	11.09
345.842	11.14
346.208	11.17
346.573	11.29
346.939	11.42
347.304	11.51
347.67	11.54
348.035	11.64
348.401	11.67
348.766	11.76
349.132	11.69
349.497	11.68
349.862	11.84
350.228	11.79
350.593	11.71
350.958	11.72
351.323	11.7
351.688	11.65
352.053	11.75
352.418	11.82
352.783	11.84
353.148	11.87
353.513	11.91
353.878	11.93
354.243	12.02
354.608	11.89
354.972	11.84
355.337	11.88
355.702	11.77
356.066	11.71
356.431	11.68
356.795	11.74
357.16	11.61
357.524	11.49
357.889	11.5
358.253	11.48
358.618	11.48
358.982	11.46
359.346	11.34
359.71	11.31
360.075	11.24
360.439	11.22
360.803	11.16
361.167	11.08
361.531	11
361.895	10.84
362.259	10.85
362.623	10.86
362.987	10.84
363.351	10.86
363.714	10.82
364.078	10.76
364.442	10.67
364.806	10.7
365.169	10.69
365.533	10.66
365.896	10.59
366.26	10.48
366.623	10.42
366.987	10.44
367.35	10.36
367.714	10.34
368.077	10.33
368.44	10.22
368.803	10.12
369.167	10.09
369.53	10.02
369.893	10.01
370.256	9.97
370.619	9.91
370.982	9.77
371.345	9.75
371.708	9.65
372.071	9.58
372.434	9.5
372.797	9.45
373.159	9.34
373.522	9.31
373.885	9.32
374.247	9.32
374.61	9.25
374.973	9.18
375.335	9.07
375.698	8.99
376.06	8.92
376.423	8.89
376.785	8.85
377.147	8.88
377.51	8.76
377.872	8.66
378.234	8.57
378.596	8.52
378.958	8.44
379.321	8.42
379.683	8.42
380.045	8.37
380.407	8.29
380.769	8.2
381.13	8.15
381.492	8.02
381.854	7.97
382.216	7.87
382.578	7.82
382.939	7.74
383.301	7.72
383.663	7.67
384.024	7.64
384.386	7.6
384.747	7.49
385.109	7.48
385.47	7.42
385.832	7.38
386.193	7.38
386.554	7.3
386.916	7.23
387.277	7.18
387.638	7.16
387.999	7.13
388.36	7.13
388.721	7.12
389.082	7.13
389.443	7.03
389.804	7.05
390.165	7
390.526	6.99
390.887	6.92
391.248	6.89
391.609	6.82
391.969	6.78
392.33	6.77
392.691	6.74
393.051	6.69
393.412	6.68
393.772	6.58
394.133	6.6
394.493	6.56
394.854	6.51
395.214	6.45
395.574	6.45
395.935	6.4
396.295	6.36
396.655	6.26
397.015	6.25
397.376	6.18
397.736	6.15
398.096	6.12
398.456	6.09
398.816	6.06
399.176	6.03
399.535	5.96
399.895	5.9
400.255	5.89
400.615	5.86
400.975	5.79
401.334	5.77
401.694	5.71
402.054	5.69
402.413	5.65
402.773	5.6
403.132	5.52
403.492	5.51
403.851	5.47
404.211	5.47
404.57	5.41
404.929	5.41
405.288	5.36
405.648	5.3
406.007	5.28
406.366	5.27
406.725	5.26
407.084	5.27
407.443	5.26
407.802	5.26
408.161	5.22
408.52	5.17
408.879	5.17
409.238	5.14
409.596	5.15
409.955	5.14
410.314	5.16
410.673	5.12
411.031	5.1
411.39	5.1
411.748	5.11
412.107	5.12
412.465	5.1
412.824	5.06
413.182	5.05
413.54	5.02
413.899	4.98
414.257	4.94
414.615	4.9
414.974	4.85
415.332	4.79
415.69	4.77
416.048	4.76
416.406	4.72
416.764	4.69
417.122	4.64
417.48	4.59
417.838	4.57
418.195	4.58
418.553	4.55
418.911	4.52
419.269	4.5
419.626	4.49
419.984	4.46
420.342	4.46
420.699	4.45
421.057	4.44
421.414	4.43
421.772	4.42
422.129	4.42
422.486	4.41
422.844	4.4
423.201	4.38
423.558	4.38
423.915	4.38
424.273	4.37
424.63	4.37
424.987	4.37
425.344	4.37
425.701	4.34
426.058	4.34
426.415	4.33
426.772	4.31
427.128	4.29
427.485	4.29
427.842	4.3
428.199	4.29
428.555	4.28
428.912	4.26
429.269	4.28
429.625	4.27
429.982	4.26
430.338	4.24
430.695	4.24
431.051	4.23
431.407	4.23
431.764	4.22
432.12	4.2
432.476	4.2
432.832	4.18
433.189	4.18
433.545	4.17
433.901	4.17
434.257	4.16
434.613	4.15
434.969	4.15
435.325	4.13
435.681	4.13
436.036	4.12
436.392	4.13
436.748	4.08
437.104	4.08
437.459	4.08
437.815	4.1
438.171	4.1
438.526	4.11
438.882	4.1
439.237	4.09
439.593	4.11
439.948	4.12
440.304	4.12
440.659	4.12
441.014	4.13
441.369	4.11
441.725	4.09
442.08	4.1
442.435	4.09
442.79	4.1
443.145	4.08
443.5	4.09
443.855	4.06
444.21	4.07
444.565	4.06
444.92	4.06
445.275	4.03
445.629	4.03
445.984	4.01
446.339	4
446.693	3.99
447.048	3.98
447.403	3.97
447.757	3.95
448.112	3.93
448.466	3.91
448.82	3.91
449.175	3.93
449.529	3.9
449.883	3.89
450.238	3.88
450.592	3.89
450.946	3.87
451.3	3.87
451.654	3.84
452.008	3.85
452.362	3.82
452.716	3.82
453.07	3.81
453.424	3.83
453.778	3.82
454.132	3.82
454.486	3.81
454.839	3.8
455.193	3.81
455.547	3.82
455.9	3.83
456.254	3.83
456.607	3.82
456.961	3.83
457.314	3.84
457.668	3.85
458.021	3.85
458.375	3.84
458.728	3.83
459.081	3.84
459.434	3.83
459.787	3.84
460.141	3.85
460.494	3.86
460.847	3.85
461.2	3.86
461.553	3.87
461.906	3.87
462.259	3.88
462.611	3.88
462.964	3.88
463.317	3.9
463.67	3.92
464.022	3.93
464.375	3.93
464.728	3.96
465.08	3.97
465.433	3.97
465.785	3.99
466.138	4.02
466.49	4.03
466.843	4.04
467.195	4.08
467.547	4.1
467.899	4.11
468.252	4.11
468.604	4.11
468.956	4.11
469.308	4.12
469.66	4.12
470.012	4.16
470.364	4.16
470.716	4.17
471.068	4.15
471.42	4.16
471.772	4.18
472.123	4.18
472.475	4.19
472.827	4.2
473.178	4.2
473.53	4.19
473.882	4.19
474.233	4.21
474.585	4.19
474.936	4.18
475.288	4.2
475.639	4.22
475.99	4.21
476.342	4.22
476.693	4.23
477.044	4.22
477.395	4.21
477.746	4.18
478.097	4.16
478.448	4.17
478.8	4.15
479.15	4.13
479.501	4.11
479.852	4.09
480.203	4.08
480.554	4.08
480.905	4.08
481.255	4.09
481.606	4.09
481.957	4.09
482.307	4.09
482.658	4.08
483.009	4.07
483.359	4.08
483.709	4.08
484.06	4.09
484.41	4.09
484.761	4.09
485.111	4.1
485.461	4.11
485.811	4.11
486.162	4.11
486.512	4.14
486.862	4.14
487.212	4.14
487.562	4.15
487.912	4.17
488.262	4.17
488.612	4.17
488.961	4.18
489.311	4.2
489.661	4.21
490.011	4.22
490.36	4.23
490.71	4.23
491.06	4.25
491.409	4.25
491.759	4.25
492.108	4.27
492.458	4.29
492.807	4.3
493.157	4.32
493.506	4.34
493.855	4.35
494.204	4.36
494.554	4.38
494.903	4.4
495.252	4.4
495.601	4.44
495.95	4.48
496.299	4.5
496.648	4.52
496.997	4.56
497.346	4.61
497.695	4.66
498.043	4.69
498.392	4.73
498.741	4.77
499.09	4.79
499.438	4.84
499.787	4.87
500.135	4.92
500.484	4.97
500.832	5.03
501.181	5.07
501.529	5.14
501.878	5.22
502.226	5.28
502.574	5.34
502.923	5.4
503.271	5.44
503.619	5.49
503.967	5.56
504.315	5.61
504.663	5.67
505.011	5.73
505.359	5.79
505.707	5.85
506.055	5.91
506.403	6.03
506.751	6.08
507.098	6.18
507.446	6.24
507.794	6.33
508.141	6.42
508.489	6.5
508.837	6.57
509.184	6.63
509.531	6.69
509.879	6.79
510.226	6.89
510.574	6.98
510.921	7.06
511.268	7.12
511.616	7.2
511.963	7.29
512.31	7.37
512.657	7.49
513.004	7.58
513.351	7.68
513.698	7.75
514.045	7.84
514.392	7.93
514.739	8.03
515.086	8.12
515.432	8.21
515.779	8.31
516.126	8.4
516.473	8.5
516.819	8.59
517.166	8.66
517.512	8.74
517.859	8.8
518.205	8.88
518.552	8.98
518.898	9.08
519.245	9.17
519.591	9.25
519.937	9.32
520.283	9.4
520.629	9.51
520.976	9.6
521.322	9.72
521.668	9.84
522.014	9.95
522.36	10.06
522.706	10.19
523.052	10.34
523.398	10.52
523.743	10.69
524.089	10.85
524.435	11.01
524.781	11.17
525.126	11.33
525.472	11.46
525.817	11.59
526.163	11.7
526.509	11.83
526.854	11.94
527.199	12.04
527.545	12.15
527.89	12.25
528.235	12.37
528.581	12.48
528.926	12.59
529.271	12.72
529.616	12.83
529.961	12.95
530.306	13.07
530.651	13.2
530.996	13.33
531.341	13.48
531.686	13.63
532.031	13.77
532.376	13.91
532.721	14.09
533.065	14.25
533.41	14.45
533.755	14.62
534.099	14.82
534.444	15.01
534.788	15.22
535.133	15.41
535.477	15.62
535.822	15.84
536.166	16.05
536.51	16.3
536.855	16.54
537.199	16.81
537.543	17.11
537.887	17.38
538.231	17.66
538.576	17.94
538.92	18.2
539.264	18.47
539.608	18.74
539.951	19
540.295	19.24
540.639	19.46
540.983	19.69
541.327	19.9
541.671	20.13
542.014	20.36
542.358	20.6
542.701	20.82
543.045	21.04
543.389	21.27
543.732	21.48
544.075	21.76
544.419	22
544.762	22.26
545.105	22.51
545.449	22.78
545.792	23.08
546.135	23.41
546.478	23.74
546.821	24.04
547.165	24.4
547.508	24.73
547.851	25.08
548.194	25.39
548.536	25.75
548.879	26.07
549.222	26.4
549.565	26.74
549.908	27.09
550.25	27.46
550.593	27.8
550.936	28.19
551.278	28.51
551.621	28.85
551.963	29.19
552.306	29.51
552.648	29.87
552.991	30.18
553.333	30.46
553.675	30.77
554.017	31.08
554.36	31.32
554.702	31.61
555.044	31.92
555.386	32.24
555.728	32.52
556.07	32.86
556.412	33.14
556.754	33.4
557.096	33.68
557.438	33.98
557.78	34.32
558.121	34.62
558.463	34.95
558.805	35.26
559.147	35.58
559.488	35.95
559.83	36.24
560.171	36.52
560.513	36.83
560.854	37.13
561.196	37.47
561.537	37.8
561.878	38.07
562.22	38.37
562.561	38.63
562.902	38.93
563.243	39.16
563.584	39.48
563.925	39.77
564.266	39.97
564.607	40.22
564.948	40.47
565.289	40.7
565.63	40.88
565.971	41.12
566.312	41.28
566.653	41.45
566.993	41.68
567.334	41.91
567.675	42.11
568.015	42.36
568.356	42.53
568.696	42.69
569.037	42.88
569.377	43.08
569.718	43.24
570.058	43.4
570.398	43.64
570.739	43.8
571.079	43.97
571.419	44.2
571.759	44.38
572.099	44.52
572.439	44.74
572.779	44.9
573.119	45.03
573.459	45.19
573.799	45.34
574.139	45.5
574.479	45.68
574.819	45.88
575.158	45.95
575.498	46.1
575.838	46.23
576.177	46.4
576.517	46.53
576.856	46.7
577.196	46.9
577.535	47.08
577.875	47.27
578.214	47.47
578.553	47.66
578.893	47.75
579.232	47.94
579.571	47.94
579.91	48.11
580.25	48.28
580.589	48.49
580.928	48.68
581.267	48.81
581.606	48.89
581.945	48.97
582.283	49.08
582.622	49.25
582.961	49.4
583.3	49.52
583.639	49.64
583.977	49.79
584.316	49.88
584.654	49.92
584.993	50
585.332	50.14
585.67	50.19
586.008	50.35
586.347	50.45
586.685	50.63
587.024	50.78
587.362	50.86
587.7	50.97
588.038	51.02
588.376	51.14
588.715	51.24
589.053	51.32
589.391	51.49
589.729	51.55
590.067	51.66
590.404	51.74
590.742	51.81
591.08	51.81
591.418	51.88
591.756	51.94
592.093	52.03
592.431	52.06
592.769	52.11
593.106	52.15
593.444	52.21
593.781	52.24
594.119	52.26
594.456	52.3
594.793	52.31
595.131	52.4
595.468	52.45
595.805	52.48
596.143	52.56
596.48	52.6
596.817	52.67
597.154	52.73
597.491	52.78
597.828	52.85
598.165	52.89
598.502	52.92
598.839	52.99
599.176	53.07
599.512	53.14
599.849	53.26
600.186	53.34
600.523	53.5
600.859	53.61
601.196	53.69
601.532	53.84
601.869	53.94
602.205	54
602.542	53.99
602.878	54.04
603.215	54.1
603.551	54.14
603.887	54.17
604.223	54.22
604.56	54.31
604.896	54.36
605.232	54.46
605.568	54.45
605.904	54.54
606.24	54.55
606.576	54.53
606.912	54.58
607.248	54.61
607.583	54.59
607.919	54.61
608.255	54.64
608.591	54.62
608.926	54.64
609.262	54.68
609.597	54.72
609.933	54.84
610.268	54.84
610.604	54.93
610.939	54.97
611.275	54.98
611.61	54.96
611.945	55.02
612.281	55.12
612.616	55.23
612.951	55.26
613.286	55.33
613.621	55.48
613.956	55.57
614.291	55.59
614.626	55.72
614.961	55.76
615.296	55.81
615.631	55.87
615.966	55.92
616.3	55.97
616.635	56.04
616.97	56.01
617.304	56.17
617.639	56.18
617.973	56.17
618.308	56.21
618.642	56.32
618.977	56.3
619.311	56.27
619.646	56.3
619.98	56.41
620.314	56.39
620.648	56.32
620.983	56.31
621.317	56.43
621.651	56.35
621.985	56.34
622.319	56.36
622.653	56.43
622.987	56.5
623.321	56.46
623.655	56.55
623.988	56.53
624.322	56.48
624.656	56.43
624.99	56.51
625.323	56.58
625.657	56.57
625.99	56.56
626.324	56.59
626.657	56.68
626.991	56.64
627.324	56.67
627.658	56.71
627.991	56.82
628.324	56.81
628.657	56.77
628.991	56.86
629.324	56.92
629.657	56.89
629.99	56.89
630.323	56.95
630.656	56.89
630.989	57
631.322	56.99
631.655	57.05
631.987	57.05
632.32	57.03
632.653	57.09
632.986	57.16
633.318	57.19
633.651	57.12
633.984	57.04
634.316	57.06
634.649	57.18
634.981	57.09
635.313	57.05
635.646	57.14
635.978	57.15
636.31	57.17
636.643	57.12
636.975	57.05
637.307	57.12
637.639	57.19
637.971	57.06
638.303	57.1
638.635	57.24
638.967	57.3
639.299	57.39
639.631	57.33
639.963	57.31
640.295	57.32
640.626	57.45
640.958	57.61
641.29	57.57
641.621	57.5
641.953	57.54
642.285	57.58
642.616	57.6
642.948	57.55
643.279	57.55
643.61	57.7
643.942	57.83
644.273	57.82
644.604	57.87
644.936	57.93
645.267	57.97
645.598	57.83
645.929	57.84
646.26	57.85
646.591	57.82
646.922	57.77
647.253	57.73
647.584	57.58
647.915	57.54
648.245	57.57
648.576	57.64
648.907	57.53
649.238	57.62
649.568	57.67
649.899	57.74
650.229	57.92
650.56	57.97
650.89	57.9
651.221	57.93
651.551	57.92
651.882	57.9
652.212	57.87
652.542	57.87
652.872	57.8
653.203	57.82
653.533	57.87
653.863	58.03
654.193	58.14
654.523	58.28
654.853	58.25
655.183	58.24
655.513	58.21
655.843	58.37
656.172	58.44
656.502	58.48
656.832	58.47
657.162	58.38
657.491	58.16
657.821	58.22
658.15	58.24
658.48	58.27
658.809	58.25
659.139	58.25
659.468	58.34
659.798	58.45
660.127	58.36
660.456	58.38
660.785	58.43
661.115	58.34
661.444	58.35
661.773	58.48
662.102	58.61
662.431	58.67
662.76	58.61
663.089	58.44
663.418	58.4
663.747	58.39
664.076	58.32
664.404	58.51
664.733	58.46
665.062	58.46
665.39	58.57
665.719	58.76
666.048	58.72
666.376	58.71
666.705	58.57
667.033	58.55
667.362	58.55
667.69	58.41
668.018	58.63
668.347	58.59
668.675	58.56
669.003	58.5
669.331	58.52
669.659	58.5
669.987	58.66
670.315	58.75
670.643	58.84
670.971	58.92
671.299	58.95
671.627	58.99
671.955	59.12
672.283	59.06
672.61	59.07
672.938	59.19
673.266	59.23
673.593	59.29
673.921	59.49
674.249	59.47
674.576	59.61
674.904	59.39
675.231	59.44
675.558	59.4
675.886	59.32
676.213	59.25
676.54	59.35
676.867	59.42
677.195	59.26
677.522	59.25
677.849	59.22
678.176	59.08
678.503	59
678.83	58.87
679.157	58.95
679.484	58.85
679.81	58.86
680.137	58.79
680.464	58.77
680.791	58.83
681.117	58.83
681.444	58.8
681.771	58.84
682.097	58.85
682.424	58.92
682.75	58.99
683.077	58.98
683.403	59.01
683.729	58.94
684.056	58.99
684.382	58.95
684.708	58.99
685.034	59.03
685.36	59.06
685.686	58.98
686.012	58.88
686.339	58.95
686.664	59.06
686.99	59.12
687.316	59.14
687.642	58.85
687.968	58.89
688.294	58.95
688.619	58.94
688.945	58.9
689.271	58.81
689.596	58.82
689.922	58.9
690.247	58.97
690.573	58.91
690.898	58.96
691.224	58.93
691.549	58.95
691.874	59.04
692.2	59.05
692.525	59.27
692.85	59.29
693.175	59.11
693.5	58.88
693.825	58.89
694.15	58.89
694.475	59.11
694.8	59.24
695.125	59.14
695.45	59.15
695.775	59.18
696.099	59.25
696.424	59.28
696.749	59.17
697.073	58.93
697.398	58.87
697.723	58.93
698.047	59.1
698.372	59.05
698.696	59.19
699.02	59.26
699.345	59.05
699.669	59.04
699.993	59.06
700.318	59.17
700.642	59.16
700.966	59.25
701.29	59.12
701.614	59.08
701.938	59.21
702.262	59.21
702.586	59.23
702.91	59.08
703.234	59.19
703.557	59.25
703.881	59.56
704.205	59.8
704.529	59.74
704.852	59.5
705.176	59.61
705.499	59.42
705.823	59.07
706.146	59.05
706.47	58.78
706.793	58.94
707.117	58.85
707.44	58.92
707.763	58.88
708.086	58.94
708.409	58.94
708.733	58.82
709.056	58.97
709.379	59.04
709.702	59.21
710.025	59.19
710.348	59.32
710.671	59.1
710.993	59.03
711.316	58.94
711.639	59.14
711.962	59.25
712.284	59.25
712.607	59.79
712.93	59.78
713.252	59.93
713.575	59.82
713.897	59.77
714.22	59.93
714.542	59.91
714.864	59.78
715.187	59.65
715.509	59.53
715.831	59.34
716.153	59.28
716.475	59.27
716.798	59.04
717.12	58.97
717.442	59.05
717.764	59
718.085	59.08
718.407	58.87
718.729	58.76
719.051	58.75
719.373	58.51
719.695	58.7
720.016	58.76
720.338	58.87
720.659	58.88
720.981	58.62
721.302	58.46
721.624	58.68
721.945	58.92
722.267	59.01
722.588	59.05
722.909	59
723.231	59.1
723.552	59.26
723.873	59.22
724.194	59.08
724.515	58.91
724.836	58.95
725.157	59.22
725.478	58.94
725.799	59.04
726.12	59.11
726.441	59.04
726.762	59.14
727.083	59.17
727.403	59.25
727.724	59.55
728.045	59.74
728.365	59.57
728.686	59.39
729.006	59.33
729.327	59.41
729.647	59.51
729.967	59.44
730.288	59.72
730.608	59.69
730.928	59.78
731.249	59.77
731.569	59.64
731.889	59.52
732.209	59.48
732.529	59.6
732.849	59.32
733.169	59.35
733.489	59.31
733.809	59.22
734.129	59.26
734.448	59.01
734.768	59.02
735.088	59.21
735.408	59.38
735.727	59.74
736.047	59.62
736.366	59.63
736.686	59.59
737.005	59.36
737.325	59.52
737.644	59.58
737.963	59.78
738.283	59.75
738.602	60
738.921	60.38
739.24	60.32
739.56	60.45
739.879	60.46
740.198	60.37
740.517	60.47
740.836	60.44
741.155	60.43
741.473	60.23
741.792	60.19
742.111	59.97
742.43	59.75
742.748	59.78
743.067	59.79
743.386	59.97
743.704	59.88
744.023	59.59
744.341	59.64
744.66	59.83
744.978	60.06
745.297	59.77
745.615	59.46
745.933	59.21
746.252	59.42
746.57	59.3
746.888	59.28
747.206	59.53
747.524	59.42
747.842	59.71
748.16	60
748.478	60.06
748.796	60.36
749.114	60.46
749.432	60.82
749.749	61.01
750.067	60.8
750.385	60.63
750.703	60.86
751.02	60.96
751.338	60.98
751.655	60.74
751.973	60.8
752.29	61.26
752.608	61.46
752.925	61.45
753.242	61.44
753.56	61.56
753.877	61.32
754.194	61.35
754.511	61.27
754.828	61.05
755.145	60.83
755.462	60.63
755.779	60.58
756.096	60.44
756.413	59.85
756.73	60
757.047	60.37
757.364	60.11
757.68	60.07
757.997	59.69
758.314	59.84
758.63	59.63
758.947	59.56
759.264	59.44
759.58	59.41
759.896	59.59
760.213	59.72
760.529	59.63
760.846	59.81
761.162	59.75
761.478	60.09
761.794	60.3
762.11	60.31
762.426	60.35
762.743	60.15
763.059	60.39
763.375	60.29
763.69	60.3
764.006	60.43
764.322	60.3
764.638	60.42
764.954	60.53
765.27	60.84
765.585	60.66
765.901	60.81
766.216	60.57
766.532	60.5
766.848	60.39
767.163	60.56
767.478	60.57
767.794	60.55
768.109	60.47
768.424	60.43
768.74	60.47
769.055	60.14
769.37	60.45
769.685	60.34
770	60.47
770.315	60.57
770.63	60.48
770.945	60.8
771.26	60.95
771.575	60.91
771.89	60.82
772.205	61.07
772.52	60.95
772.834	61.2
773.149	61.26
773.464	61.69
773.778	61.9
774.093	61.66
774.407	61.58
774.722	61.48
775.036	61.76
775.351	61.57
775.665	62.11
775.979	61.21
776.293	61.28
776.608	61.55
776.922	60.97
777.236	60.91
777.55	60.73
777.864	60.65
778.178	60.73
778.492	60.26
778.806	59.72
779.12	59.93
779.434	60.12
779.747	60.18
780.061	59.59
780.375	59.64
780.689	59.81
781.002	59.78
781.316	59.92
781.629	59.45
781.943	59.55
782.256	59.56
782.57	60.39
782.883	60.55
783.196	60.35
783.51	60.24
783.823	59.91
784.136	59.85
784.449	59.68
784.762	59.32
785.075	59.22
785.388	59.26
785.701	59.15
786.014	59.37
786.327	59.29
786.64	59.29
786.953	59.47
787.266	59.51
787.578	59.87
787.891	60.3
788.204	60.14
788.516	60.44
788.829	60.28
789.141	60.11
789.454	60.12
789.766	60.24
790.079	60.63
790.391	61.19
790.703	61.13
791.016	61.34
791.328	61.56
791.64	62.17
791.952	62.81
792.264	62.17
792.576	61.89
792.888	62.12
793.2	62.4
793.512	61.77
793.824	62.06
794.136	62.07
794.448	61.46
794.76	61.74
795.071	61.84
795.383	61.6
795.695	61.56
796.006	61.53
796.318	61.29
796.629	61.44
796.941	61.55
797.252	61.58
797.564	61.51
797.875	60.95
798.186	60.81
798.497	60.64
798.809	61.28
799.12	61.04
799.431	61.17
799.742	60.87
800.053	61.35
800.364	60.91
800.675	60.44
800.986	60
801.297	59.67
801.608	59.09
801.918	59.11
802.229	59.71
802.54	59.3
802.851	59.22
803.161	58.83
803.472	59.25
803.782	59.77
804.093	60.07
804.403	60.64
804.714	61.36
805.024	61.02
805.334	60.59
805.645	60.54
805.955	60.4
806.265	61.03
806.575	60.34
806.885	60.53
807.195	60.91
807.505	61.67
807.815	62.17
808.125	62.46
808.435	62.88
808.745	62.83
809.055	63.7
809.365	63.81
809.674	64.02
809.984	63.04
810.294	61.81
810.603	62.46
810.913	63
811.222	62.56
811.532	62.58
811.841	62.88
812.151	63.37
812.46	63.33
812.769	63.02
813.079	63.7
813.388	63.61
813.697	62.98
814.006	61.98
814.315	61.48
814.624	61.7
814.933	61.67
815.242	61.15
815.551	60.41
815.86	60.65
816.169	60.73
816.478	61.1
816.786	61.42
817.095	60.81
817.404	60.41
817.712	60.08
818.021	60.8
818.33	60.76
818.638	60.52
818.947	60.42
819.255	60.89
819.563	60.49
819.872	60.54
820.18	60.94
820.488	61.24
820.796	61.25
821.105	61.09
821.413	60.99
821.721	61.03
822.029	60.9
822.337	60.95
822.645	61.03
822.953	61.01
823.26	61.19
823.568	60.89
823.876	60.74
824.184	60.84
824.491	60.83
824.799	60.9
825.107	60.89
825.414	61
825.722	60.82
826.029	60.93
826.337	60.79
826.644	60.75
826.951	60.65
827.259	60.75
827.566	60.79
827.873	60.89
828.18	60.62
828.488	60.89
828.795	60.88
829.102	61.07
829.409	61.26
829.716	61.31
830.023	61.78
830.329	62.12
830.636	62.16
830.943	61.76
831.25	61.95
831.557	62.45
831.863	62.22
832.17	62.25
832.476	62.03
832.783	62.56
833.089	62.44
833.396	62.55
833.702	62.53
834.009	62.54
834.315	62.13
834.621	62.7
834.928	62.75
835.234	62.82
835.54	62.41
835.846	62.11
836.152	62.05
836.458	61.98
836.764	61.61
837.07	61.58
837.376	61.85
837.682	61.63
837.988	61.33
838.293	61.24
838.599	61.3
838.905	62.37
839.211	62.61
839.516	62.83
839.822	62.49
840.127	62.4
840.433	63.3
840.738	63.76
841.044	62.99
841.349	62.09
841.654	60.87
841.959	60.46
842.265	61.34
842.57	59.92
842.875	60.04
843.18	60.12
843.485	59.48
843.79	59.96
844.095	59.54
844.4	59.89
844.705	59.8
845.01	60.2
845.315	57.74
845.619	56.71
845.924	56.89
846.229	57.93
846.533	58.25
846.838	57.75
847.142	57.76
847.447	57.66
847.751	58.71
848.056	59.7
848.36	61.35
848.664	59.54
848.969	62.06
849.273	62.29
849.577	63.35
849.881	64.36
850.185	64.41
850.489	64.71
850.794	63.93
851.097	64.96
851.401	64.35
851.705	63.96
852.009	64.21
852.313	64.47
852.617	63.08
852.92	61.32
853.224	59.34
853.528	60.02
853.831	60.44
854.135	60.11
854.438	59.73
854.742	58.56
855.045	58.65
855.349	58.46
855.652	56.35
855.955	54.18
856.259	54.34
856.562	52.09
856.865	51.65
857.168	51.64
857.471	50.39
857.774	50.85
858.077	53.48
858.38	54.78
858.683	53.59
858.986	54.79
859.289	55.63
859.592	57.57
859.894	56.06
860.197	56.26
860.5	55.69
860.802	55.38
861.105	53.9
861.407	53.72
861.71	52.9
862.012	54.65
862.315	55.59
862.617	53.32
862.919	54.11
863.222	54.45
863.524	55.46
863.826	56.55
864.128	56.51
864.43	56.82
864.732	56
865.034	57.61
865.336	58.14
865.638	58.65
865.94	56.61
866.242	56.61
866.544	57.42
866.846	58.38
867.147	60.2
867.449	63.61
867.751	65.97
868.052	65.69
868.354	66.09
868.655	66.74
868.957	67.64
869.258	68.83
869.56	69.14
869.861	68.45
870.162	67.38
870.463	68.23
870.765	67.66
871.066	68.3
871.367	65.29
871.668	65.98
871.969	65.7
872.27	66.59
872.571	66.88
872.872	66.96
873.173	67.79
873.473	64.97
873.774	64.41
874.075	61.97
874.376	60.75
874.676	61.8
874.977	64.25
875.277	63.79
875.578	61.55
875.878	60.72
876.179	60.33
876.479	61.19
876.78	59.59
877.08	59.34
877.38	57.86
877.68	59.92
877.981	58.02
878.281	58.6
878.581	58.75
