Data from BA28300_Reflection_00009.txt Node
Date: Mon Nov 18 15:58:18 EST 2019
User: vgr7
Spectrometer: USB2G7710
Scans to average: 3
Trigger mode: 4
Integration Time (sec): 2.000000E-2
Electric dark correction enabled: true
Boxcar width: 10
XAxis mode: Wavelengths
Number of Pixels in Spectrum: 2048
>>>>>Begin Spectral Data<<<<<
177.721	-111.49
178.105	-429.41
178.488	177.87
178.871	191.37
179.254	255.71
179.636	30.41
180.019	70.36
180.402	97.22
180.785	-4.19
181.168	-93.13
181.55	77.44
181.933	151.19
182.316	173.82
182.698	145.84
183.081	142.49
183.463	142.04
183.846	97.57
184.228	43.99
184.611	79.87
184.993	-533.8
185.376	629.41
185.758	-43.91
186.14	-201.04
186.522	-55.93
186.904	106.16
187.287	111.58
187.669	31.71
188.051	744.86
188.433	-1440.54
188.815	88.17
189.197	-34.65
189.579	95.68
189.961	263.99
190.342	324.67
190.724	204.7
191.106	152.46
191.488	128.49
191.869	213.11
192.251	24.79
192.633	-90.64
193.014	-48.69
193.396	78.29
193.777	-166.9
194.159	460
194.54	-3605.88
194.922	149.72
195.303	133.71
195.684	1071.83
196.065	180.79
196.447	217.09
196.828	630.55
197.209	435.32
197.59	724.63
197.971	620.88
198.352	304.6
198.733	314.47
199.114	269.9
199.495	326.26
199.876	213.03
200.257	237.71
200.638	229.16
201.018	158.77
201.399	171.46
201.78	173.87
202.16	158.77
202.541	206.18
202.922	367.19
203.302	453.32
203.683	360.58
204.063	96.55
204.444	18.65
204.824	-28.87
205.204	-125.48
205.585	-68.29
205.965	-70.61
206.345	-180.17
206.725	-443.53
207.106	-1790.76
207.486	-686.74
207.866	-2972.29
208.246	-587.37
208.626	-437.62
209.006	-207.75
209.386	-328.57
209.766	-302.76
210.145	-190.32
210.525	-115.26
210.905	-74.16
211.285	-47.9
211.664	-4.16
212.044	3.44
212.424	25.64
212.803	10.96
213.183	41.58
213.562	62.55
213.942	104.19
214.321	94.26
214.701	72.58
215.08	60.64
215.459	71.16
215.838	64.83
216.218	77.68
216.597	97.68
216.976	106.06
217.355	126.79
217.734	100.79
218.113	125.09
218.492	75.12
218.871	79.19
219.25	86.26
219.629	62.15
220.008	69.95
220.387	49.04
220.766	57.2
221.144	31
221.523	20.51
221.902	2.98
222.28	-14.59
222.659	-4.6
223.037	3.31
223.416	-0.5
223.794	-0.79
224.173	-1.77
224.551	0.91
224.929	-4.81
225.308	-7.03
225.686	-2.12
226.064	-2.47
226.442	-4.48
226.821	-0.29
227.199	-1.71
227.577	-1.81
227.955	-4.55
228.333	-3.44
228.711	-1.69
229.089	4.98
229.467	4.69
229.845	8.99
230.222	14.79
230.6	12.96
230.978	10.35
231.356	12.38
231.733	11.9
232.111	13.55
232.488	13.09
232.866	14.15
233.243	12.64
233.621	12.17
233.998	11.61
234.376	12.24
234.753	10.16
235.13	8.91
235.508	10.7
235.885	9.34
236.262	9.43
236.639	10.07
237.016	8.01
237.393	8.19
237.77	7.14
238.147	6.51
238.524	6.98
238.901	7.36
239.278	7.03
239.655	7.73
240.032	7.12
240.409	6.65
240.785	6.65
241.162	7.14
241.539	6.91
241.915	6.46
242.292	6.6
242.668	6.93
243.045	7.06
243.421	6.6
243.798	6.76
244.174	6.62
244.551	6.1
244.927	6.19
245.303	6.17
245.679	6.06
246.056	5.93
246.432	5.71
246.808	5.72
247.184	5.42
247.56	5.16
247.936	5.05
248.312	5.16
248.688	5.18
249.064	4.96
249.44	4.92
249.815	5.17
250.191	5.21
250.567	5.07
250.943	5.03
251.318	5.18
251.694	5.09
252.069	5.08
252.445	5.19
252.82	5.43
253.196	5.24
253.571	5.08
253.947	5.31
254.322	5.34
254.697	5.36
255.073	5.22
255.448	5
255.823	4.88
256.198	4.8
256.573	4.61
256.948	4.77
257.323	4.8
257.698	4.69
258.073	4.75
258.448	4.67
258.823	4.56
259.198	4.73
259.573	4.72
259.948	4.57
260.322	4.53
260.697	4.47
261.072	4.47
261.446	4.52
261.821	4.39
262.195	4.43
262.57	4.38
262.944	4.39
263.319	4.47
263.693	4.37
264.067	4.45
264.442	4.62
264.816	4.57
265.19	4.46
265.564	4.39
265.938	4.09
266.313	4.23
266.687	4.19
267.061	4.12
267.435	4.42
267.809	4.63
268.183	4.73
268.556	4.57
268.93	4.7
269.304	4.8
269.678	5.01
270.051	4.95
270.425	5.03
270.799	5
271.172	5
271.546	5.31
271.919	5.1
272.293	4.95
272.666	5.01
273.04	5.07
273.413	5.08
273.787	5.29
274.16	5.18
274.533	5.24
274.906	5.24
275.279	5.18
275.653	5.1
276.026	5.11
276.399	5.23
276.772	5.32
277.145	5.24
277.518	5.03
277.891	5.06
278.263	4.95
278.636	4.93
279.009	4.92
279.382	4.8
279.755	4.85
280.127	4.94
280.5	4.86
280.872	4.97
281.245	4.9
281.617	4.8
281.99	5.03
282.362	5.08
282.735	4.95
283.107	4.85
283.479	4.84
283.852	4.81
284.224	4.72
284.596	4.6
284.968	4.66
285.34	4.7
285.713	4.67
286.085	4.73
286.457	4.84
286.829	4.89
287.201	4.8
287.572	4.73
287.944	4.71
288.316	4.82
288.688	4.65
289.06	4.64
289.431	4.7
289.803	4.56
290.175	4.63
290.546	4.7
290.918	4.61
291.289	4.73
291.661	4.87
292.032	5.01
292.403	5.12
292.775	5.24
293.146	5.22
293.517	5.32
293.889	5.39
294.26	5.35
294.631	5.41
295.002	5.49
295.373	5.57
295.744	5.62
296.115	5.53
296.486	5.67
296.857	5.8
297.228	5.85
297.599	5.77
297.97	5.75
298.34	5.84
298.711	6.08
299.082	6.1
299.452	5.99
299.823	6.11
300.194	6.03
300.564	5.9
300.935	6.12
301.305	6.08
301.676	6.09
302.046	6.3
302.416	6.42
302.787	6.56
303.157	6.62
303.527	6.7
303.897	6.75
304.267	6.9
304.637	6.9
305.008	6.98
305.378	7.27
305.748	7.41
306.117	7.35
306.487	7.43
306.857	7.47
307.227	7.59
307.597	7.51
307.967	7.65
308.336	7.74
308.706	7.7
309.076	7.86
309.445	7.82
309.815	7.73
310.184	7.7
310.554	7.79
310.923	7.85
311.293	7.82
311.662	7.95
312.031	7.95
312.401	8.04
312.77	8.07
313.139	8.14
313.508	8.1
313.877	8.22
314.246	8.15
314.616	8.16
314.985	8.27
315.353	8.35
315.722	8.39
316.091	8.58
316.46	8.45
316.829	8.46
317.198	8.81
317.567	8.85
317.935	8.81
318.304	8.73
318.672	8.74
319.041	9.05
319.41	8.98
319.778	9.07
320.147	9.15
320.515	9.16
320.883	8.97
321.252	9.23
321.62	9.29
321.988	9.39
322.357	9.42
322.725	9.35
323.093	9.42
323.461	9.47
323.829	9.49
324.197	9.78
324.565	9.82
324.933	9.63
325.301	9.82
325.669	9.85
326.037	9.94
326.405	10.1
326.772	10.15
327.14	10.5
327.508	10.46
327.875	10.42
328.243	10.49
328.61	10.66
328.978	10.6
329.346	10.66
329.713	10.75
330.08	10.96
330.448	10.88
330.815	10.88
331.182	11.03
331.55	11.06
331.917	10.97
332.284	11.11
332.651	11.17
333.018	11.22
333.385	11.38
333.752	11.38
334.119	11.37
334.486	11.34
334.853	11.08
335.22	11.05
335.587	11.14
335.954	11.21
336.32	11.29
336.687	11.21
337.054	11.19
337.42	11.19
337.787	11.05
338.153	11.15
338.52	11.17
338.886	11.05
339.253	11.08
339.619	11.14
339.986	11.05
340.352	11.08
340.718	11
341.084	10.96
341.451	10.99
341.817	11.02
342.183	10.99
342.549	11.08
342.915	11.13
343.281	11.13
343.647	11.1
344.013	11.11
344.379	11.15
344.745	11.18
345.11	11.31
345.476	11.43
345.842	11.4
346.208	11.39
346.573	11.4
346.939	11.45
347.304	11.43
347.67	11.51
348.035	11.47
348.401	11.52
348.766	11.63
349.132	11.66
349.497	11.61
349.862	11.69
350.228	11.66
350.593	11.66
350.958	11.66
351.323	11.75
351.688	11.85
352.053	11.88
352.418	11.93
352.783	11.84
353.148	11.84
353.513	11.91
353.878	11.97
354.243	12.07
354.608	11.98
354.972	11.96
355.337	11.94
355.702	12.07
356.066	12.13
356.431	11.94
356.795	11.98
357.16	11.96
357.524	11.84
357.889	11.77
358.253	11.84
358.618	11.94
358.982	11.81
359.346	11.62
359.71	11.65
360.075	11.63
360.439	11.57
360.803	11.54
361.167	11.52
361.531	11.44
361.895	11.36
362.259	11.46
362.623	11.5
362.987	11.55
363.351	11.45
363.714	11.44
364.078	11.5
364.442	11.43
364.806	11.42
365.169	11.43
365.533	11.49
365.896	11.39
366.26	11.31
366.623	11.31
366.987	11.32
367.35	11.23
367.714	11.23
368.077	11.22
368.44	11.16
368.803	11.13
369.167	11.16
369.53	11.12
369.893	10.97
370.256	10.97
370.619	10.88
370.982	10.86
371.345	10.79
371.708	10.82
372.071	10.78
372.434	10.72
372.797	10.68
373.159	10.61
373.522	10.69
373.885	10.66
374.247	10.61
374.61	10.62
374.973	10.53
375.335	10.44
375.698	10.39
376.06	10.41
376.423	10.36
376.785	10.26
377.147	10.27
377.51	10.23
377.872	10.15
378.234	10.09
378.596	10.05
378.958	10.02
379.321	9.91
379.683	9.9
380.045	9.88
380.407	9.85
380.769	9.82
381.13	9.73
381.492	9.64
381.854	9.61
382.216	9.58
382.578	9.61
382.939	9.57
383.301	9.55
383.663	9.46
384.024	9.46
384.386	9.51
384.747	9.43
385.109	9.44
385.47	9.39
385.832	9.33
386.193	9.33
386.554	9.26
386.916	9.21
387.277	9.11
387.638	9.1
387.999	9.02
388.36	8.98
388.721	8.93
389.082	8.9
389.443	8.86
389.804	8.8
390.165	8.71
390.526	8.65
390.887	8.6
391.248	8.59
391.609	8.53
391.969	8.48
392.33	8.44
392.691	8.4
393.051	8.35
393.412	8.33
393.772	8.28
394.133	8.21
394.493	8.2
394.854	8.19
395.214	8.11
395.574	8.07
395.935	8.02
396.295	8.01
396.655	7.93
397.015	7.91
397.376	7.88
397.736	7.87
398.096	7.85
398.456	7.79
398.816	7.72
399.176	7.64
399.535	7.58
399.895	7.56
400.255	7.49
400.615	7.43
400.975	7.36
401.334	7.27
401.694	7.23
402.054	7.21
402.413	7.17
402.773	7.14
403.132	7.13
403.492	7.12
403.851	7.07
404.211	7.08
404.57	7.03
404.929	6.98
405.288	6.92
405.648	6.86
406.007	6.85
406.366	6.86
406.725	6.91
407.084	6.89
407.443	6.86
407.802	6.84
408.161	6.83
408.52	6.81
408.879	6.83
409.238	6.83
409.596	6.79
409.955	6.77
410.314	6.76
410.673	6.74
411.031	6.71
411.39	6.68
411.748	6.66
412.107	6.64
412.465	6.61
412.824	6.61
413.182	6.61
413.54	6.54
413.899	6.51
414.257	6.44
414.615	6.4
414.974	6.36
415.332	6.34
415.69	6.32
416.048	6.27
416.406	6.25
416.764	6.22
417.122	6.19
417.48	6.15
417.838	6.12
418.195	6.08
418.553	6.05
418.911	6.03
419.269	5.99
419.626	5.96
419.984	5.93
420.342	5.9
420.699	5.86
421.057	5.84
421.414	5.8
421.772	5.77
422.129	5.74
422.486	5.7
422.844	5.67
423.201	5.62
423.558	5.62
423.915	5.61
424.273	5.58
424.63	5.56
424.987	5.54
425.344	5.53
425.701	5.51
426.058	5.49
426.415	5.45
426.772	5.42
427.128	5.4
427.485	5.4
427.842	5.38
428.199	5.37
428.555	5.35
428.912	5.36
429.269	5.37
429.625	5.38
429.982	5.38
430.338	5.41
430.695	5.41
431.051	5.39
431.407	5.36
431.764	5.36
432.12	5.32
432.476	5.31
432.832	5.28
433.189	5.28
433.545	5.29
433.901	5.31
434.257	5.31
434.613	5.3
434.969	5.3
435.325	5.31
435.681	5.32
436.036	5.32
436.392	5.33
436.748	5.32
437.104	5.3
437.459	5.28
437.815	5.26
438.171	5.28
438.526	5.29
438.882	5.29
439.237	5.3
439.593	5.32
439.948	5.32
440.304	5.33
440.659	5.32
441.014	5.3
441.369	5.27
441.725	5.26
442.08	5.26
442.435	5.25
442.79	5.23
443.145	5.21
443.5	5.2
443.855	5.17
444.21	5.15
444.565	5.15
444.92	5.14
445.275	5.13
445.629	5.12
445.984	5.1
446.339	5.07
446.693	5.03
447.048	4.99
447.403	4.99
447.757	4.95
448.112	4.94
448.466	4.91
448.82	4.9
449.175	4.89
449.529	4.86
449.883	4.85
450.238	4.83
450.592	4.82
450.946	4.8
451.3	4.77
451.654	4.75
452.008	4.76
452.362	4.75
452.716	4.73
453.07	4.72
453.424	4.71
453.778	4.7
454.132	4.7
454.486	4.7
454.839	4.69
455.193	4.7
455.547	4.71
455.9	4.74
456.254	4.77
456.607	4.77
456.961	4.78
457.314	4.78
457.668	4.79
458.021	4.78
458.375	4.79
458.728	4.8
459.081	4.8
459.434	4.78
459.787	4.8
460.141	4.79
460.494	4.8
460.847	4.81
461.2	4.84
461.553	4.87
461.906	4.89
462.259	4.91
462.611	4.92
462.964	4.94
463.317	4.95
463.67	4.97
464.022	4.98
464.375	4.99
464.728	5.02
465.08	5.02
465.433	5.05
465.785	5.06
466.138	5.09
466.49	5.11
466.843	5.14
467.195	5.14
467.547	5.18
467.899	5.2
468.252	5.21
468.604	5.22
468.956	5.22
469.308	5.23
469.66	5.23
470.012	5.27
470.364	5.28
470.716	5.29
471.068	5.3
471.42	5.31
471.772	5.33
472.123	5.33
472.475	5.37
472.827	5.41
473.178	5.44
473.53	5.44
473.882	5.44
474.233	5.44
474.585	5.43
474.936	5.42
475.288	5.42
475.639	5.43
475.99	5.42
476.342	5.42
476.693	5.44
477.044	5.44
477.395	5.39
477.746	5.38
478.097	5.36
478.448	5.35
478.8	5.34
479.15	5.31
479.501	5.29
479.852	5.28
480.203	5.26
480.554	5.25
480.905	5.25
481.255	5.24
481.606	5.23
481.957	5.25
482.307	5.24
482.658	5.25
483.009	5.24
483.359	5.23
483.709	5.23
484.06	5.22
484.41	5.22
484.761	5.23
485.111	5.23
485.461	5.23
485.811	5.23
486.162	5.24
486.512	5.25
486.862	5.26
487.212	5.26
487.562	5.26
487.912	5.27
488.262	5.27
488.612	5.28
488.961	5.29
489.311	5.29
489.661	5.31
490.011	5.31
490.36	5.32
490.71	5.34
491.06	5.36
491.409	5.38
491.759	5.4
492.108	5.41
492.458	5.43
492.807	5.47
493.157	5.5
493.506	5.53
493.855	5.55
494.204	5.59
494.554	5.64
494.903	5.68
495.252	5.72
495.601	5.77
495.95	5.84
496.299	5.9
496.648	5.95
496.997	6
497.346	6.07
497.695	6.14
498.043	6.21
498.392	6.26
498.741	6.32
499.09	6.39
499.438	6.47
499.787	6.52
500.135	6.57
500.484	6.64
500.832	6.7
501.181	6.79
501.529	6.84
501.878	6.91
502.226	7
502.574	7.08
502.923	7.15
503.271	7.19
503.619	7.28
503.967	7.38
504.315	7.48
504.663	7.56
505.011	7.66
505.359	7.73
505.707	7.82
506.055	7.91
506.403	8.01
506.751	8.12
507.098	8.23
507.446	8.31
507.794	8.4
508.141	8.51
508.489	8.59
508.837	8.7
509.184	8.79
509.531	8.87
509.879	8.99
510.226	9.11
510.574	9.21
510.921	9.31
511.268	9.41
511.616	9.5
511.963	9.6
512.31	9.72
512.657	9.84
513.004	9.94
513.351	10.08
513.698	10.19
514.045	10.28
514.392	10.4
514.739	10.54
515.086	10.65
515.432	10.77
515.779	10.88
516.126	10.98
516.473	11.1
516.819	11.21
517.166	11.26
517.512	11.33
517.859	11.44
518.205	11.51
518.552	11.62
518.898	11.72
519.245	11.83
519.591	11.9
519.937	11.98
520.283	12.09
520.629	12.17
520.976	12.31
521.322	12.44
521.668	12.55
522.014	12.65
522.36	12.8
522.706	12.93
523.052	13.1
523.398	13.28
523.743	13.44
524.089	13.62
524.435	13.81
524.781	13.99
525.126	14.13
525.472	14.29
525.817	14.41
526.163	14.53
526.509	14.63
526.854	14.73
527.199	14.84
527.545	14.95
527.89	15.05
528.235	15.15
528.581	15.27
528.926	15.38
529.271	15.5
529.616	15.63
529.961	15.75
530.306	15.88
530.651	16.01
530.996	16.16
531.341	16.3
531.686	16.46
532.031	16.61
532.376	16.77
532.721	16.93
533.065	17.1
533.41	17.26
533.755	17.45
534.099	17.67
534.444	17.87
534.788	18.08
535.133	18.29
535.477	18.49
535.822	18.69
536.166	18.94
536.51	19.2
536.855	19.46
537.199	19.73
537.543	20
537.887	20.25
538.231	20.53
538.576	20.8
538.92	21.06
539.264	21.32
539.608	21.57
539.951	21.83
540.295	22.05
540.639	22.29
540.983	22.51
541.327	22.75
541.671	22.96
542.014	23.16
542.358	23.38
542.701	23.59
543.045	23.83
543.389	24.04
543.732	24.27
544.075	24.48
544.419	24.7
544.762	24.96
545.105	25.24
545.449	25.53
545.792	25.8
546.135	26.13
546.478	26.45
546.821	26.78
547.165	27.09
547.508	27.46
547.851	27.83
548.194	28.21
548.536	28.51
548.879	28.89
549.222	29.27
549.565	29.64
549.908	30
550.25	30.34
550.593	30.71
550.936	31.03
551.278	31.41
551.621	31.77
551.963	32.1
552.306	32.41
552.648	32.71
552.991	33.07
553.333	33.37
553.675	33.7
554.017	33.99
554.36	34.33
554.702	34.67
555.044	34.98
555.386	35.26
555.728	35.56
556.07	35.86
556.412	36.14
556.754	36.4
557.096	36.71
557.438	37.02
557.78	37.34
558.121	37.68
558.463	38.06
558.805	38.37
559.147	38.71
559.488	39.04
559.83	39.4
560.171	39.67
560.513	39.97
560.854	40.25
561.196	40.56
561.537	40.83
561.878	41
562.22	41.21
562.561	41.5
562.902	41.81
563.243	42.07
563.584	42.29
563.925	42.57
564.266	42.82
564.607	43.05
564.948	43.32
565.289	43.57
565.63	43.76
565.971	43.98
566.312	44.18
566.653	44.32
566.993	44.53
567.334	44.73
567.675	44.93
568.015	45.16
568.356	45.38
568.696	45.64
569.037	45.9
569.377	46.12
569.718	46.26
570.058	46.4
570.398	46.6
570.739	46.8
571.079	46.97
571.419	47.2
571.759	47.4
572.099	47.48
572.439	47.62
572.779	47.69
573.119	47.89
573.459	48.05
573.799	48.22
574.139	48.33
574.479	48.48
574.819	48.64
575.158	48.74
575.498	48.89
575.838	49.03
576.177	49.09
576.517	49.27
576.856	49.41
577.196	49.59
577.535	49.75
577.875	49.9
578.214	50.03
578.553	50.13
578.893	50.26
579.232	50.51
579.571	50.65
579.91	50.88
580.25	50.98
580.589	51.12
580.928	51.27
581.267	51.41
581.606	51.6
581.945	51.68
582.283	51.81
582.622	51.89
582.961	51.98
583.3	52.21
583.639	52.29
583.977	52.44
584.316	52.56
584.654	52.61
584.993	52.78
585.332	52.95
585.67	53
586.008	53.06
586.347	53.13
586.685	53.26
587.024	53.36
587.362	53.43
587.7	53.52
588.038	53.68
588.376	53.67
588.715	53.74
589.053	53.85
589.391	53.95
589.729	54.03
590.067	54.12
590.404	54.2
590.742	54.32
591.08	54.39
591.418	54.47
591.756	54.57
592.093	54.6
592.431	54.65
592.769	54.74
593.106	54.84
593.444	54.86
593.781	54.87
594.119	54.92
594.456	54.98
594.793	54.94
595.131	54.9
595.468	55.05
595.805	55.07
596.143	55.15
596.48	55.21
596.817	55.24
597.154	55.26
597.491	55.32
597.828	55.33
598.165	55.36
598.502	55.37
598.839	55.42
599.176	55.5
599.512	55.49
599.849	55.6
600.186	55.69
600.523	55.85
600.859	55.95
601.196	56
601.532	56.08
601.869	56.18
602.205	56.27
602.542	56.32
602.878	56.4
603.215	56.44
603.551	56.45
603.887	56.51
604.223	56.55
604.56	56.69
604.896	56.74
605.232	56.83
605.568	56.91
605.904	56.95
606.24	57.02
606.576	57.11
606.912	57.15
607.248	57.24
607.583	57.2
607.919	57.28
608.255	57.35
608.591	57.49
608.926	57.58
609.262	57.63
609.597	57.68
609.933	57.75
610.268	57.78
610.604	57.89
610.939	57.99
611.275	58.05
611.61	57.92
611.945	57.99
612.281	58.01
612.616	58.04
612.951	58.15
613.286	58.2
613.621	58.3
613.956	58.33
614.291	58.28
614.626	58.42
614.961	58.39
615.296	58.46
615.631	58.43
615.966	58.49
616.3	58.56
616.635	58.56
616.97	58.54
617.304	58.65
617.639	58.65
617.973	58.63
618.308	58.66
618.642	58.74
618.977	58.71
619.311	58.74
619.646	58.67
619.98	58.65
620.314	58.63
620.648	58.61
620.983	58.61
621.317	58.71
621.651	58.65
621.985	58.73
622.319	58.72
622.653	58.73
622.987	58.71
623.321	58.77
623.655	58.73
623.988	58.82
624.322	58.81
624.656	58.88
624.99	58.86
625.323	58.87
625.657	58.84
625.99	58.98
626.324	58.97
626.657	59.1
626.991	59.2
627.324	59.26
627.658	59.28
627.991	59.3
628.324	59.28
628.657	59.27
628.991	59.37
629.324	59.36
629.657	59.38
629.99	59.4
630.323	59.4
630.656	59.53
630.989	59.55
631.322	59.49
631.655	59.49
631.987	59.6
632.32	59.66
632.653	59.79
632.986	59.75
633.318	59.85
633.651	59.79
633.984	59.81
634.316	59.81
634.649	59.81
634.981	59.89
635.313	59.86
635.646	59.93
635.978	59.89
636.31	59.84
636.643	59.85
636.975	59.91
637.307	59.91
637.639	59.91
637.971	59.89
638.303	59.99
638.635	60.01
638.967	60.06
639.299	60.07
639.631	60.17
639.963	60.24
640.295	60.15
640.626	60.14
640.958	60.16
641.29	60.14
641.621	60.05
641.953	59.99
642.285	60.02
642.616	60.03
642.948	60.02
643.279	60.24
643.61	60.26
643.942	60.27
644.273	60.28
644.604	60.34
644.936	60.37
645.267	60.43
645.598	60.4
645.929	60.42
646.26	60.45
646.591	60.34
646.922	60.28
647.253	60.26
647.584	60.44
647.915	60.36
648.245	60.4
648.576	60.51
648.907	60.6
649.238	60.63
649.568	60.64
649.899	60.53
650.229	60.61
650.56	60.59
650.89	60.73
651.221	60.83
651.551	60.73
651.882	60.66
652.212	60.7
652.542	60.75
652.872	60.63
653.203	60.66
653.533	60.65
653.863	60.73
654.193	60.77
654.523	60.82
654.853	60.81
655.183	60.86
655.513	60.95
655.843	60.95
656.172	61.02
656.502	61.04
656.832	61.24
657.162	61.2
657.491	61.25
657.821	61.14
658.15	61.14
658.48	61.24
658.809	61.38
659.139	61.3
659.468	61.24
659.798	61.28
660.127	61.31
660.456	61.27
660.785	61.33
661.115	61.43
661.444	61.38
661.773	61.42
662.102	61.38
662.431	61.34
662.76	61.43
663.089	61.42
663.418	61.48
663.747	61.34
664.076	61.29
664.404	61.42
664.733	61.39
665.062	61.44
665.39	61.45
665.719	61.37
666.048	61.43
666.376	61.57
666.705	61.61
667.033	61.62
667.362	61.67
667.69	61.54
668.018	61.5
668.347	61.57
668.675	61.61
669.003	61.67
669.331	61.75
669.659	61.57
669.987	61.55
670.315	61.57
670.643	61.61
670.971	61.74
671.299	61.7
671.627	61.92
671.955	61.86
672.283	61.89
672.61	61.99
672.938	61.92
673.266	61.92
673.593	61.9
673.921	61.86
674.249	61.87
674.576	62.01
674.904	62.12
675.231	61.94
675.558	61.98
675.886	61.88
676.213	61.78
676.54	61.88
676.867	61.97
677.195	62
677.522	62.11
677.849	62.01
678.176	62.02
678.503	61.99
678.83	62.05
679.157	62.09
679.484	62.06
679.81	62.09
680.137	61.99
680.464	62
680.791	62.14
681.117	62.15
681.444	62.05
681.771	61.95
682.097	62.15
682.424	62.15
682.75	62.24
683.077	62.3
683.403	62.23
683.729	62.25
684.056	62.1
684.382	62.04
684.708	62.08
685.034	62.09
685.36	61.95
685.686	61.9
686.012	61.73
686.339	61.83
686.664	61.82
686.99	61.92
687.316	62
687.642	61.97
687.968	61.97
688.294	62.02
688.619	62.07
688.945	61.93
689.271	61.82
689.596	61.8
689.922	61.74
690.247	61.74
690.573	61.78
690.898	61.93
691.224	61.97
691.549	61.88
691.874	61.71
692.2	61.66
692.525	61.71
692.85	61.89
693.175	61.95
693.5	62.15
693.825	62.18
694.15	62.15
694.475	62.23
694.8	62.34
695.125	62.24
695.45	62.22
695.775	62.2
696.099	62.07
696.424	61.96
696.749	61.99
697.073	62.14
697.398	61.99
697.723	62.02
698.047	62.06
698.372	62.01
698.696	62.11
699.02	62.09
699.345	62.02
699.669	62.04
699.993	61.8
700.318	61.68
700.642	61.71
700.966	61.72
701.29	61.46
701.614	61.46
701.938	61.53
702.262	61.46
702.586	61.56
702.91	61.82
703.234	61.97
703.557	62.29
703.881	62.33
704.205	62.45
704.529	62.43
704.852	62.38
705.176	62.5
705.499	62.63
705.823	62.79
706.146	62.79
706.47	62.82
706.793	62.96
707.117	62.93
707.44	62.83
707.763	62.84
708.086	62.93
708.409	62.96
708.733	62.98
709.056	63.18
709.379	63.13
709.702	63.02
710.025	63.04
710.348	62.77
710.671	62.56
710.993	62.55
711.316	62.55
711.639	62.48
711.962	62.43
712.284	62.33
712.607	62.14
712.93	62.16
713.252	62.13
713.575	62.18
713.897	62.21
714.22	62.24
714.542	62.2
714.864	62.38
715.187	62.3
715.509	62.21
715.831	61.9
716.153	62.01
716.475	62.14
716.798	62.18
717.12	62.05
717.442	62.3
717.764	62.24
718.085	62.26
718.407	62.13
718.729	62.19
719.051	62.23
719.373	62.42
719.695	62.45
720.016	62.36
720.338	62.36
720.659	62.49
720.981	62.64
721.302	62.45
721.624	62.4
721.945	62.38
722.267	62.45
722.588	62.58
722.909	62.44
723.231	62.35
723.552	62.25
723.873	62.46
724.194	62.37
724.515	62.38
724.836	62.45
725.157	62.71
725.478	62.61
725.799	62.8
726.12	62.81
726.441	62.99
726.762	63.03
727.083	63.04
727.403	63.01
727.724	62.88
728.045	62.96
728.365	63.09
728.686	63.22
729.006	63.34
729.327	63.52
729.647	63.55
729.967	63.47
730.288	63.48
730.608	63.35
730.928	63.2
731.249	63.27
731.569	63.1
731.889	63.21
732.209	63.56
732.529	63.52
732.849	63.57
733.169	63.32
733.489	63.37
733.809	63.32
734.129	63.19
734.448	63.29
734.768	63.14
735.088	63.06
735.408	63.07
735.727	63.18
736.047	63.16
736.366	63.23
736.686	63.14
737.005	63.11
737.325	63.2
737.644	63.28
737.963	63.14
738.283	63.37
738.602	63.17
738.921	63.04
739.24	62.73
739.56	62.71
739.879	62.69
740.198	62.65
740.517	62.75
740.836	62.96
741.155	62.9
741.473	63.19
741.792	63.13
742.111	63.14
742.43	62.91
742.748	62.75
743.067	62.66
743.386	62.98
743.704	62.95
744.023	62.88
744.341	63.01
744.66	63.4
744.978	63.35
745.297	63.53
745.615	63.35
745.933	63.46
746.252	63.25
746.57	63.46
746.888	63.29
747.206	63.05
747.524	62.78
747.842	62.63
748.16	62.83
748.478	62.99
748.796	63.24
749.114	63.7
749.432	63.57
749.749	63.61
750.067	63.56
750.385	63.53
750.703	63.39
751.02	63.14
751.338	62.94
751.655	62.65
751.973	62.62
752.29	62.91
752.608	63.07
752.925	63.24
753.242	63.54
753.56	63.75
753.877	63.91
754.194	64.55
754.511	64.71
754.828	64.69
755.145	64.35
755.462	63.71
755.779	63.15
756.096	63.29
756.413	63.46
756.73	63.4
757.047	63.55
757.364	63.88
757.68	63.97
757.997	63.82
758.314	63.59
758.63	63.83
758.947	63.38
759.264	63.08
759.58	62.87
759.896	62.62
760.213	62.42
760.529	62.49
760.846	61.99
761.162	62.15
761.478	62.22
761.794	62.22
762.11	62.5
762.426	62.62
762.743	62.58
763.059	62.33
763.375	62.38
763.69	62.06
764.006	61.79
764.322	61.97
764.638	62.14
764.954	62.4
765.27	62.37
765.585	62.5
765.901	62.5
766.216	62.75
766.532	62.65
766.848	62.93
767.163	62.73
767.478	62.78
767.794	62.56
768.109	62.51
768.424	62.3
768.74	61.94
769.055	62.12
769.37	62.25
769.685	62.61
770	62.57
770.315	62.81
770.63	63.24
770.945	62.67
771.26	62.56
771.575	62.22
771.89	61.92
772.205	61.87
772.52	62.09
772.834	62.12
773.149	62.42
773.464	62.12
773.778	62.09
774.093	62.16
774.407	62.37
774.722	62.28
775.036	62.81
775.351	63.25
775.665	62.88
775.979	62.86
776.293	62.3
776.608	61.93
776.922	61.78
777.236	61.45
777.55	61.69
777.864	61.78
778.178	62.05
778.492	61.96
778.806	61.94
779.12	61.74
779.434	61.69
779.747	61.4
780.061	61.21
780.375	61.5
780.689	61.2
781.002	61.51
781.316	61.1
781.629	61.19
781.943	61.15
782.256	61.27
782.57	61.56
782.883	61.83
783.196	62.29
783.51	62.89
783.823	63.34
784.136	63.27
784.449	63.27
784.762	63.53
785.075	63.89
785.388	64.23
785.701	64.74
786.014	64.67
786.327	65.01
786.64	65.37
786.953	65.3
787.266	65.91
787.578	65.56
787.891	66.1
788.204	66.56
788.516	66.65
788.829	66.5
789.141	66.31
789.454	66.54
789.766	66.39
790.079	66.47
790.391	66.3
790.703	66.95
791.016	66.64
791.328	66.72
791.64	66.24
791.952	66.43
792.264	66.14
792.576	65.74
792.888	65.61
793.2	65.31
793.512	65.32
793.824	65.23
794.136	65.28
794.448	64.9
794.76	64.25
795.071	64.29
795.383	64.7
795.695	64.3
796.006	63.93
796.318	63.72
796.629	63.9
796.941	63.65
797.252	63.95
797.564	64.51
797.875	64.53
798.186	64.82
798.497	64.69
798.809	65.03
799.12	65.1
799.431	65.2
799.742	64.97
800.053	65.28
800.364	65.37
800.675	65.31
800.986	65.81
801.297	66.2
801.608	66.17
801.918	65.75
802.229	66.13
802.54	66.62
802.851	67.44
803.161	67.48
803.472	67.39
803.782	66.34
804.093	66.26
804.403	66.16
804.714	66.51
805.024	66.18
805.334	65.75
805.645	66.26
805.955	66.23
806.265	66.44
806.575	65.15
806.885	64.94
807.195	65.22
807.505	65.11
807.815	64.66
808.125	63.87
808.435	64.03
808.745	64.01
809.055	63.81
809.365	63.38
809.674	63.24
809.984	63.11
810.294	63.46
810.603	63.96
810.913	63.78
811.222	63.78
811.532	63.89
811.841	64.79
812.151	64.92
812.46	64.92
812.769	65.49
813.079	66.57
813.388	66.81
813.697	66.31
814.006	65.83
814.315	65.42
814.624	66.26
814.933	66.6
815.242	66.95
815.551	66.7
815.86	66.26
816.169	66.23
816.478	66.64
816.786	67.12
817.095	66.58
817.404	66.61
817.712	66.2
818.021	66.51
818.33	65.14
818.638	64.81
818.947	64.04
819.255	64.28
819.563	64.33
819.872	64.08
820.18	63.99
820.488	63.87
820.796	63.98
821.105	63.8
821.413	63.62
821.721	63.58
822.029	63.67
822.337	63.63
822.645	63.72
822.953	63.64
823.26	63.71
823.568	63.74
823.876	63.64
824.184	63.52
824.491	63.39
824.799	63.68
825.107	63.65
825.414	63.85
825.722	63.78
826.029	63.76
826.337	63.69
826.644	63.77
826.951	63.93
827.259	64.07
827.566	64.09
827.873	64.13
828.18	63.97
828.488	64.01
828.795	64.37
829.102	63.86
829.409	63.99
829.716	63.71
830.023	63.94
830.329	63.98
830.636	64.44
830.943	64.61
831.25	64.61
831.557	64.91
831.863	64.86
832.17	64.95
832.476	65
832.783	65.36
833.089	65.6
833.396	65.45
833.702	65.34
834.009	65.18
834.315	65.47
834.621	66.03
834.928	65.99
835.234	65.55
835.54	66.16
835.846	66.45
836.152	66.89
836.458	66.33
836.764	66.53
837.07	66.1
837.376	66.26
837.682	66
837.988	66.24
838.293	66.33
838.599	66.15
838.905	65.96
839.211	65.53
839.516	66.22
839.822	66.44
840.127	66.17
840.433	66.24
840.738	65.31
841.044	65.59
841.349	65.09
841.654	65.87
841.959	65.64
842.265	64.93
842.57	64.33
842.875	63.74
843.18	63.82
843.485	63.87
843.79	63.47
844.095	62.22
844.4	62.12
844.705	61.74
845.01	61.4
845.315	62.19
845.619	62.75
845.924	60.86
846.229	61.65
846.533	62.16
846.838	63.11
847.142	64.75
847.447	63.03
847.751	64.74
848.056	64.59
848.36	64.83
848.664	64.15
848.969	63.83
849.273	65.37
849.577	67.34
849.881	69.19
850.185	68.6
850.489	70.74
850.794	69.39
851.097	69.72
851.401	71.2
851.705	69.92
852.009	70.57
852.313	70.68
852.617	69.82
852.92	69.53
853.224	69.11
853.528	68.78
853.831	69.87
854.135	69.14
854.438	70.09
854.742	69.02
855.045	69.93
855.349	70.77
855.652	70.83
855.955	70.31
856.259	68.19
856.562	70.35
856.865	70.92
857.168	70.02
857.471	71.07
857.774	70.41
858.077	71.38
858.38	72.2
858.683	73.21
858.986	73.6
859.289	76.24
859.592	77.01
859.894	75.98
860.197	74.85
860.5	75.79
860.802	74.79
861.105	73.62
861.407	75.52
861.71	74.45
862.012	75.08
862.315	74.3
862.617	73.99
862.919	72.31
863.222	73.62
863.524	78.31
863.826	79.27
864.128	79.46
864.43	80.18
864.732	78.32
865.034	77.72
865.336	76.98
865.638	74.62
865.94	74.58
866.242	75.32
866.544	76.1
866.846	76.25
867.147	76.84
867.449	79.06
867.751	81.11
868.052	82.64
868.354	81.99
868.655	83.1
868.957	85.04
869.258	86.45
869.56	85.78
869.861	83.68
870.162	81.97
870.463	82.6
870.765	83.2
871.066	84.33
871.367	84.58
871.668	86.07
871.969	86.58
872.27	83.71
872.571	85.73
872.872	82.81
873.173	82.2
873.473	82.14
873.774	83.84
874.075	80.66
874.376	77.35
874.676	76.42
874.977	74.87
875.277	74.76
875.578	75.61
875.878	74.68
876.179	73.13
876.479	73.52
876.78	72.79
877.08	71.34
877.38	70.92
877.68	70.57
877.981	68.26
878.281	67.67
878.581	73.1
