Data from BA28474_Reflection_00004.txt Node
Date: Mon Nov 18 15:30:33 EST 2019
User: vgr7
Spectrometer: USB2G7710
Scans to average: 3
Trigger mode: 4
Integration Time (sec): 2.000000E-2
Electric dark correction enabled: true
Boxcar width: 10
XAxis mode: Wavelengths
Number of Pixels in Spectrum: 2048
>>>>>Begin Spectral Data<<<<<
177.721	61.99
178.105	29.24
178.488	-25.6
178.871	-69.57
179.254	-342.79
179.636	-74.3
180.019	282.39
180.402	73.33
180.785	42.9
181.168	-48.01
181.55	-18.93
181.933	260.36
182.316	86.67
182.698	116.87
183.081	90.26
183.463	173.31
183.846	262.33
184.228	29988.89
184.611	-633.33
184.993	-352.09
185.376	-77.87
185.758	-104.18
186.14	-102.81
186.522	-124.99
186.904	-165
187.287	-204.3
187.669	-171.84
188.051	-223.06
188.433	-184.73
188.815	-146.49
189.197	-183.55
189.579	-240.35
189.961	-155.39
190.342	-105.54
190.724	-76.44
191.106	-111.61
191.488	-99.86
191.869	-81.17
192.251	-92.8
192.633	-113.27
193.014	-104.55
193.396	-231.01
193.777	-162.78
194.159	-152.86
194.54	-125.69
194.922	-97.43
195.303	-112.9
195.684	-105.37
196.065	-91.33
196.447	-86.68
196.828	-100.24
197.209	-114.96
197.59	-106.28
197.971	-99
198.352	-88.22
198.733	-102.75
199.114	-87.48
199.495	-126.14
199.876	-112.71
200.257	-103.29
200.638	-84.6
201.018	-98.42
201.399	-110.33
201.78	-103.78
202.16	-140.14
202.541	-190.43
202.922	-300.13
203.302	-270.06
203.683	-349.63
204.063	-367.19
204.444	-340.19
204.824	-301.5
205.204	-227.07
205.585	-289.93
205.965	-355.2
206.345	-354.1
206.725	-394.39
207.106	-674.54
207.486	-595.91
207.866	-2041.14
208.246	-848.52
208.626	-920.56
209.006	-335.44
209.386	-361.77
209.766	-340.19
210.145	-220.3
210.525	-160.34
210.905	-123.16
211.285	-112.67
211.664	-119.69
212.044	-104.68
212.424	-100.7
212.803	-127
213.183	-133.25
213.562	-119.73
213.942	-110.36
214.321	-109.49
214.701	-111.69
215.08	-83.39
215.459	-61.7
215.838	-57.31
216.218	-67.98
216.597	-69.13
216.976	-103.02
217.355	-80.68
217.734	-80.29
218.113	-75.25
218.492	-92.95
218.871	-95.98
219.25	-101.99
219.629	-74.63
220.008	-83.18
220.387	-76.25
220.766	-72.81
221.144	-89.86
221.523	-80.28
221.902	-86.86
222.28	-75.51
222.659	-50.22
223.037	-35.11
223.416	-33.81
223.794	-39.76
224.173	-41.5
224.551	-36.4
224.929	-19.75
225.308	-16.52
225.686	-15.7
226.064	-15.09
226.442	-11.86
226.821	-14.99
227.199	-13.88
227.577	-11.41
227.955	-6.03
228.333	-8.14
228.711	-5.8
229.089	-2.5
229.467	-3.84
229.845	-3.51
230.222	-2.66
230.6	-6.2
230.978	-6.68
231.356	-7.84
231.733	-6.31
232.111	-4.35
232.488	-4.41
232.866	-5.46
233.243	-6.19
233.621	-6.46
233.998	-5.77
234.376	-7.21
234.753	-4.36
235.13	-3.14
235.508	-3.47
235.885	-5.97
236.262	-6.5
236.639	-6.28
237.016	-6.19
237.393	-4.99
237.77	-4.02
238.147	-3.53
238.524	-1.59
238.901	-0.6
239.278	-0.31
239.655	0.88
240.032	0.46
240.409	-0.07
240.785	0.28
241.162	0.91
241.539	1.28
241.915	1.41
242.292	1.53
242.668	1.46
243.045	1.72
243.421	1.65
243.798	2.07
244.174	2.4
244.551	2.82
244.927	2.25
245.303	2.52
245.679	2.56
246.056	2.44
246.432	2.34
246.808	2.33
247.184	2.28
247.56	2.2
247.936	2.28
248.312	2.44
248.688	2.4
249.064	2.25
249.44	2.16
249.815	2.04
250.191	2.08
250.567	1.93
250.943	1.65
251.318	1.86
251.694	1.74
252.069	1.78
252.445	1.75
252.82	2.24
253.196	2.33
253.571	2.45
253.947	2.67
254.322	3.05
254.697	3.03
255.073	2.83
255.448	2.79
255.823	2.97
256.198	3.19
256.573	3.21
256.948	3.34
257.323	3.44
257.698	3.34
258.073	3.55
258.448	3.67
258.823	3.64
259.198	3.38
259.573	3.33
259.948	3.33
260.322	3.35
260.697	3.13
261.072	2.95
261.446	2.79
261.821	2.69
262.195	2.64
262.57	2.52
262.944	2.71
263.319	2.55
263.693	2.38
264.067	2.27
264.442	2.41
264.816	2.31
265.19	2.2
265.564	2.24
265.938	1.93
266.313	1.62
266.687	1.59
267.061	1.74
267.435	1.94
267.809	1.77
268.183	1.71
268.556	1.69
268.93	1.6
269.304	1.89
269.678	2.06
270.051	1.97
270.425	2.16
270.799	2.16
271.172	2.37
271.546	2.48
271.919	2.55
272.293	2.38
272.666	2.42
273.04	2.58
273.413	2.5
273.787	2.61
274.16	2.59
274.533	2.78
274.906	2.89
275.279	2.91
275.653	3.13
276.026	3.08
276.399	3.23
276.772	3.5
277.145	3.46
277.518	3.5
277.891	3.52
278.263	3.39
278.636	3.41
279.009	3.24
279.382	3.44
279.755	3.3
280.127	3.46
280.5	3.49
280.872	3.45
281.245	3.56
281.617	3.51
281.99	3.7
282.362	3.54
282.735	3.38
283.107	3.3
283.479	3.35
283.852	3.19
284.224	3.26
284.596	3.13
284.968	3.04
285.34	2.91
285.713	2.93
286.085	3.07
286.457	3
286.829	3.01
287.201	2.96
287.572	2.99
287.944	2.89
288.316	2.89
288.688	2.85
289.06	2.73
289.431	2.74
289.803	2.72
290.175	2.72
290.546	2.84
290.918	2.9
291.289	2.8
291.661	2.97
292.032	3.12
292.403	3.21
292.775	3.36
293.146	3.36
293.517	3.39
293.889	3.24
294.26	3.33
294.631	3.41
295.002	3.29
295.373	3.24
295.744	3.35
296.115	3.37
296.486	3.32
296.857	3.44
297.228	3.51
297.599	3.45
297.97	3.5
298.34	3.42
298.711	3.5
299.082	3.41
299.452	3.42
299.823	3.38
300.194	3.34
300.564	3.28
300.935	3.37
301.305	3.35
301.676	3.47
302.046	3.47
302.416	3.62
302.787	3.71
303.157	3.69
303.527	3.62
303.897	3.65
304.267	3.76
304.637	3.79
305.008	3.74
305.378	3.75
305.748	3.88
306.117	3.88
306.487	3.81
306.857	3.87
307.227	3.74
307.597	3.55
307.967	3.53
308.336	3.44
308.706	3.39
309.076	3.36
309.445	3.24
309.815	3.06
310.184	2.87
310.554	2.87
310.923	3.01
311.293	2.97
311.662	2.93
312.031	2.85
312.401	2.72
312.77	2.81
313.139	2.88
313.508	2.73
313.877	2.74
314.246	2.6
314.616	2.58
314.985	2.73
315.353	2.73
315.722	2.79
316.091	2.83
316.46	2.71
316.829	2.85
317.198	2.86
317.567	3
317.935	2.98
318.304	2.99
318.672	2.84
319.041	2.89
319.41	2.84
319.778	2.89
320.147	2.94
320.515	2.76
320.883	2.66
321.252	2.81
321.62	2.79
321.988	2.84
322.357	2.89
322.725	2.78
323.093	2.86
323.461	2.9
323.829	2.95
324.197	3.1
324.565	3.01
324.933	3.07
325.301	3.01
325.669	2.92
326.037	2.83
326.405	2.95
326.772	3
327.14	2.99
327.508	2.89
327.875	2.92
328.243	2.92
328.61	3
328.978	2.88
329.346	2.91
329.713	2.91
330.08	2.84
330.448	2.8
330.815	2.67
331.182	2.68
331.55	2.71
331.917	2.71
332.284	2.82
332.651	2.8
333.018	2.82
333.385	2.93
333.752	3.08
334.119	3.05
334.486	2.91
334.853	3.01
335.22	3.13
335.587	3.08
335.954	3.26
336.32	3.21
336.687	3.33
337.054	3.3
337.42	3.31
337.787	3.26
338.153	3.31
338.52	3.35
338.886	3.22
339.253	3.01
339.619	3.01
339.986	2.94
340.352	3.08
340.718	3.07
341.084	3.15
341.451	3.12
341.817	3.22
342.183	3.29
342.549	3.25
342.915	3.24
343.281	3.3
343.647	3.2
344.013	3.21
344.379	3.14
344.745	3.15
345.11	3.19
345.476	3.24
345.842	3.12
346.208	3.24
346.573	3.31
346.939	3.47
347.304	3.48
347.67	3.45
348.035	3.33
348.401	3.29
348.766	3.24
349.132	3.16
349.497	3.08
349.862	3.1
350.228	3.14
350.593	3.14
350.958	3.19
351.323	3.25
351.688	3.28
352.053	3.36
352.418	3.42
352.783	3.42
353.148	3.39
353.513	3.55
353.878	3.43
354.243	3.42
354.608	3.38
354.972	3.32
355.337	3.35
355.702	3.42
356.066	3.52
356.431	3.47
356.795	3.54
357.16	3.5
357.524	3.49
357.889	3.38
358.253	3.41
358.618	3.39
358.982	3.3
359.346	3.27
359.71	3.25
360.075	3.2
360.439	3.19
360.803	3.16
361.167	3.07
361.531	3.12
361.895	3.12
362.259	3.08
362.623	3.14
362.987	3.07
363.351	3
363.714	3.02
364.078	3.04
364.442	3.03
364.806	3.01
365.169	3.01
365.533	3.07
365.896	3.09
366.26	3.04
366.623	3.07
366.987	3.07
367.35	3.08
367.714	3.11
368.077	3.12
368.44	3.17
368.803	3.25
369.167	3.22
369.53	3.17
369.893	3.24
370.256	3.27
370.619	3.25
370.982	3.24
371.345	3.2
371.708	3.2
372.071	3.18
372.434	3.26
372.797	3.27
373.159	3.27
373.522	3.28
373.885	3.32
374.247	3.33
374.61	3.38
374.973	3.33
375.335	3.32
375.698	3.33
376.06	3.34
376.423	3.31
376.785	3.38
377.147	3.45
377.51	3.43
377.872	3.42
378.234	3.48
378.596	3.53
378.958	3.47
379.321	3.49
379.683	3.48
380.045	3.43
380.407	3.44
380.769	3.39
381.13	3.36
381.492	3.41
381.854	3.44
382.216	3.45
382.578	3.45
382.939	3.46
383.301	3.44
383.663	3.42
384.024	3.48
384.386	3.47
384.747	3.48
385.109	3.44
385.47	3.37
385.832	3.4
386.193	3.38
386.554	3.44
386.916	3.42
387.277	3.48
387.638	3.51
387.999	3.5
388.36	3.55
388.721	3.54
389.082	3.49
389.443	3.44
389.804	3.39
390.165	3.38
390.526	3.4
390.887	3.4
391.248	3.44
391.609	3.4
391.969	3.41
392.33	3.34
392.691	3.37
393.051	3.4
393.412	3.37
393.772	3.39
394.133	3.4
394.493	3.42
394.854	3.32
395.214	3.33
395.574	3.3
395.935	3.26
396.295	3.31
396.655	3.31
397.015	3.36
397.376	3.39
397.736	3.4
398.096	3.39
398.456	3.42
398.816	3.43
399.176	3.42
399.535	3.4
399.895	3.43
400.255	3.45
400.615	3.44
400.975	3.44
401.334	3.42
401.694	3.43
402.054	3.4
402.413	3.48
402.773	3.44
403.132	3.47
403.492	3.5
403.851	3.49
404.211	3.51
404.57	3.49
404.929	3.47
405.288	3.5
405.648	3.51
406.007	3.52
406.366	3.49
406.725	3.51
407.084	3.52
407.443	3.54
407.802	3.54
408.161	3.54
408.52	3.56
408.879	3.57
409.238	3.59
409.596	3.64
409.955	3.62
410.314	3.62
410.673	3.62
411.031	3.6
411.39	3.58
411.748	3.56
412.107	3.6
412.465	3.62
412.824	3.6
413.182	3.57
413.54	3.56
413.899	3.56
414.257	3.54
414.615	3.55
414.974	3.58
415.332	3.58
415.69	3.59
416.048	3.56
416.406	3.56
416.764	3.54
417.122	3.53
417.48	3.54
417.838	3.55
418.195	3.55
418.553	3.56
418.911	3.58
419.269	3.6
419.626	3.59
419.984	3.59
420.342	3.58
420.699	3.6
421.057	3.61
421.414	3.59
421.772	3.58
422.129	3.59
422.486	3.58
422.844	3.57
423.201	3.57
423.558	3.58
423.915	3.58
424.273	3.6
424.63	3.6
424.987	3.6
425.344	3.6
425.701	3.6
426.058	3.61
426.415	3.61
426.772	3.59
427.128	3.57
427.485	3.55
427.842	3.56
428.199	3.55
428.555	3.55
428.912	3.58
429.269	3.6
429.625	3.59
429.982	3.56
430.338	3.57
430.695	3.56
431.051	3.56
431.407	3.54
431.764	3.53
432.12	3.52
432.476	3.53
432.832	3.53
433.189	3.52
433.545	3.51
433.901	3.5
434.257	3.52
434.613	3.51
434.969	3.53
435.325	3.54
435.681	3.55
436.036	3.54
436.392	3.53
436.748	3.53
437.104	3.54
437.459	3.54
437.815	3.54
438.171	3.58
438.526	3.59
438.882	3.61
439.237	3.62
439.593	3.63
439.948	3.64
440.304	3.64
440.659	3.65
441.014	3.65
441.369	3.63
441.725	3.61
442.08	3.62
442.435	3.61
442.79	3.61
443.145	3.6
443.5	3.61
443.855	3.6
444.21	3.6
444.565	3.6
444.92	3.61
445.275	3.6
445.629	3.57
445.984	3.56
446.339	3.55
446.693	3.54
447.048	3.53
447.403	3.51
447.757	3.49
448.112	3.48
448.466	3.47
448.82	3.48
449.175	3.49
449.529	3.51
449.883	3.49
450.238	3.47
450.592	3.48
450.946	3.47
451.3	3.48
451.654	3.48
452.008	3.47
452.362	3.46
452.716	3.46
453.07	3.46
453.424	3.46
453.778	3.45
454.132	3.45
454.486	3.47
454.839	3.48
455.193	3.51
455.547	3.51
455.9	3.53
456.254	3.53
456.607	3.54
456.961	3.54
457.314	3.56
457.668	3.59
458.021	3.58
458.375	3.59
458.728	3.59
459.081	3.59
459.434	3.59
459.787	3.6
460.141	3.6
460.494	3.61
460.847	3.63
461.2	3.63
461.553	3.63
461.906	3.62
462.259	3.62
462.611	3.62
462.964	3.63
463.317	3.62
463.67	3.62
464.022	3.62
464.375	3.61
464.728	3.61
465.08	3.59
465.433	3.59
465.785	3.55
466.138	3.56
466.49	3.55
466.843	3.53
467.195	3.52
467.547	3.54
467.899	3.53
468.252	3.52
468.604	3.55
468.956	3.56
469.308	3.56
469.66	3.56
470.012	3.56
470.364	3.54
470.716	3.54
471.068	3.56
471.42	3.57
471.772	3.57
472.123	3.58
472.475	3.6
472.827	3.59
473.178	3.62
473.53	3.61
473.882	3.6
474.233	3.61
474.585	3.61
474.936	3.62
475.288	3.63
475.639	3.61
475.99	3.6
476.342	3.6
476.693	3.6
477.044	3.62
477.395	3.6
477.746	3.62
478.097	3.62
478.448	3.62
478.8	3.62
479.15	3.61
479.501	3.62
479.852	3.65
480.203	3.66
480.554	3.67
480.905	3.68
481.255	3.69
481.606	3.71
481.957	3.72
482.307	3.72
482.658	3.73
483.009	3.73
483.359	3.74
483.709	3.74
484.06	3.74
484.41	3.75
484.761	3.76
485.111	3.76
485.461	3.77
485.811	3.77
486.162	3.77
486.512	3.78
486.862	3.78
487.212	3.77
487.562	3.78
487.912	3.78
488.262	3.77
488.612	3.78
488.961	3.78
489.311	3.78
489.661	3.78
490.011	3.77
490.36	3.77
490.71	3.77
491.06	3.76
491.409	3.76
491.759	3.75
492.108	3.73
492.458	3.73
492.807	3.72
493.157	3.72
493.506	3.73
493.855	3.72
494.204	3.73
494.554	3.73
494.903	3.71
495.252	3.7
495.601	3.69
495.95	3.68
496.299	3.68
496.648	3.69
496.997	3.69
497.346	3.71
497.695	3.72
498.043	3.73
498.392	3.72
498.741	3.72
499.09	3.73
499.438	3.76
499.787	3.76
500.135	3.79
500.484	3.79
500.832	3.79
501.181	3.79
501.529	3.79
501.878	3.81
502.226	3.83
502.574	3.86
502.923	3.87
503.271	3.87
503.619	3.86
503.967	3.84
504.315	3.81
504.663	3.82
505.011	3.81
505.359	3.79
505.707	3.82
506.055	3.81
506.403	3.82
506.751	3.81
507.098	3.82
507.446	3.81
507.794	3.81
508.141	3.81
508.489	3.82
508.837	3.86
509.184	3.84
509.531	3.84
509.879	3.85
510.226	3.86
510.574	3.84
510.921	3.87
511.268	3.87
511.616	3.9
511.963	3.89
512.31	3.89
512.657	3.93
513.004	3.92
513.351	3.94
513.698	3.94
514.045	3.93
514.392	3.93
514.739	3.95
515.086	3.94
515.432	3.96
515.779	3.94
516.126	3.92
516.473	3.91
516.819	3.93
517.166	3.92
517.512	3.92
517.859	3.94
518.205	3.93
518.552	3.93
518.898	3.92
519.245	3.94
519.591	3.94
519.937	3.91
520.283	3.92
520.629	3.91
520.976	3.91
521.322	3.94
521.668	3.94
522.014	3.94
522.36	3.95
522.706	3.95
523.052	3.96
523.398	3.98
523.743	4
524.089	3.99
524.435	3.99
524.781	4
525.126	4.02
525.472	4.03
525.817	4.04
526.163	4.04
526.509	4.03
526.854	4.04
527.199	4.06
527.545	4.06
527.89	4.08
528.235	4.08
528.581	4.1
528.926	4.1
529.271	4.11
529.616	4.1
529.961	4.1
530.306	4.1
530.651	4.1
530.996	4.11
531.341	4.11
531.686	4.12
532.031	4.12
532.376	4.11
532.721	4.12
533.065	4.11
533.41	4.12
533.755	4.13
534.099	4.13
534.444	4.14
534.788	4.15
535.133	4.15
535.477	4.14
535.822	4.13
536.166	4.12
536.51	4.1
536.855	4.11
537.199	4.13
537.543	4.14
537.887	4.15
538.231	4.14
538.576	4.15
538.92	4.13
539.264	4.13
539.608	4.14
539.951	4.13
540.295	4.13
540.639	4.14
540.983	4.15
541.327	4.14
541.671	4.13
542.014	4.12
542.358	4.11
542.701	4.11
543.045	4.13
543.389	4.13
543.732	4.14
544.075	4.15
544.419	4.13
544.762	4.12
545.105	4.11
545.449	4.12
545.792	4.1
546.135	4.12
546.478	4.13
546.821	4.11
547.165	4.13
547.508	4.14
547.851	4.14
548.194	4.14
548.536	4.12
548.879	4.13
549.222	4.13
549.565	4.13
549.908	4.15
550.25	4.13
550.593	4.13
550.936	4.12
551.278	4.13
551.621	4.13
551.963	4.13
552.306	4.12
552.648	4.13
552.991	4.15
553.333	4.12
553.675	4.13
554.017	4.16
554.36	4.14
554.702	4.13
555.044	4.1
555.386	4.1
555.728	4.11
556.07	4.1
556.412	4.1
556.754	4.1
557.096	4.07
557.438	4.13
557.78	4.13
558.121	4.14
558.463	4.12
558.805	4.16
559.147	4.15
559.488	4.14
559.83	4.14
560.171	4.15
560.513	4.18
560.854	4.14
561.196	4.14
561.537	4.16
561.878	4.14
562.22	4.18
562.561	4.18
562.902	4.2
563.243	4.21
563.584	4.21
563.925	4.23
564.266	4.24
564.607	4.21
564.948	4.22
565.289	4.22
565.63	4.23
565.971	4.19
566.312	4.2
566.653	4.2
566.993	4.17
567.334	4.17
567.675	4.16
568.015	4.17
568.356	4.17
568.696	4.17
569.037	4.18
569.377	4.19
569.718	4.18
570.058	4.16
570.398	4.17
570.739	4.17
571.079	4.15
571.419	4.17
571.759	4.15
572.099	4.14
572.439	4.14
572.779	4.16
573.119	4.19
573.459	4.21
573.799	4.24
574.139	4.27
574.479	4.25
574.819	4.26
575.158	4.27
575.498	4.28
575.838	4.27
576.177	4.26
576.517	4.24
576.856	4.23
577.196	4.23
577.535	4.25
577.875	4.22
578.214	4.25
578.553	4.26
578.893	4.27
579.232	4.26
579.571	4.28
579.91	4.24
580.25	4.23
580.589	4.21
580.928	4.19
581.267	4.16
581.606	4.18
581.945	4.17
582.283	4.14
582.622	4.12
582.961	4.16
583.3	4.16
583.639	4.21
583.977	4.24
584.316	4.26
584.654	4.24
584.993	4.27
585.332	4.26
585.67	4.27
586.008	4.28
586.347	4.28
586.685	4.26
587.024	4.25
587.362	4.26
587.7	4.23
588.038	4.25
588.376	4.26
588.715	4.25
589.053	4.29
589.391	4.31
589.729	4.3
590.067	4.24
590.404	4.27
590.742	4.26
591.08	4.25
591.418	4.28
591.756	4.28
592.093	4.29
592.431	4.3
592.769	4.31
593.106	4.27
593.444	4.25
593.781	4.27
594.119	4.3
594.456	4.29
594.793	4.35
595.131	4.31
595.468	4.32
595.805	4.34
596.143	4.3
596.48	4.32
596.817	4.31
597.154	4.35
597.491	4.35
597.828	4.33
598.165	4.32
598.502	4.28
598.839	4.3
599.176	4.31
599.512	4.28
599.849	4.26
600.186	4.31
600.523	4.39
600.859	4.41
601.196	4.4
601.532	4.4
601.869	4.35
602.205	4.37
602.542	4.38
602.878	4.36
603.215	4.36
603.551	4.36
603.887	4.38
604.223	4.35
604.56	4.36
604.896	4.36
605.232	4.4
605.568	4.39
605.904	4.39
606.24	4.37
606.576	4.38
606.912	4.38
607.248	4.35
607.583	4.32
607.919	4.26
608.255	4.27
608.591	4.27
608.926	4.3
609.262	4.32
609.597	4.31
609.933	4.35
610.268	4.39
610.604	4.41
610.939	4.38
611.275	4.42
611.61	4.41
611.945	4.41
612.281	4.37
612.616	4.41
612.951	4.41
613.286	4.41
613.621	4.44
613.956	4.41
614.291	4.43
614.626	4.42
614.961	4.43
615.296	4.39
615.631	4.41
615.966	4.39
616.3	4.4
616.635	4.41
616.97	4.36
617.304	4.34
617.639	4.34
617.973	4.36
618.308	4.37
618.642	4.37
618.977	4.38
619.311	4.34
619.646	4.33
619.98	4.36
620.314	4.4
620.648	4.38
620.983	4.44
621.317	4.44
621.651	4.43
621.985	4.44
622.319	4.46
622.653	4.47
622.987	4.48
623.321	4.44
623.655	4.43
623.988	4.48
624.322	4.44
624.656	4.44
624.99	4.43
625.323	4.41
625.657	4.43
625.99	4.45
626.324	4.51
626.657	4.52
626.991	4.48
627.324	4.45
627.658	4.5
627.991	4.52
628.324	4.54
628.657	4.54
628.991	4.59
629.324	4.58
629.657	4.57
629.99	4.6
630.323	4.68
630.656	4.71
630.989	4.69
631.322	4.73
631.655	4.71
631.987	4.72
632.32	4.74
632.653	4.69
632.986	4.69
633.318	4.68
633.651	4.67
633.984	4.62
634.316	4.64
634.649	4.61
634.981	4.59
635.313	4.53
635.646	4.57
635.978	4.55
636.31	4.53
636.643	4.57
636.975	4.58
637.307	4.51
637.639	4.46
637.971	4.45
638.303	4.38
638.635	4.33
638.967	4.31
639.299	4.36
639.631	4.41
639.963	4.37
640.295	4.35
640.626	4.36
640.958	4.42
641.29	4.39
641.621	4.35
641.953	4.33
642.285	4.35
642.616	4.37
642.948	4.34
643.279	4.41
643.61	4.36
643.942	4.26
644.273	4.31
644.604	4.32
644.936	4.34
645.267	4.4
645.598	4.46
645.929	4.5
646.26	4.5
646.591	4.56
646.922	4.55
647.253	4.54
647.584	4.49
647.915	4.5
648.245	4.48
648.576	4.57
648.907	4.56
649.238	4.53
649.568	4.54
649.899	4.54
650.229	4.59
650.56	4.58
650.89	4.6
651.221	4.57
651.551	4.5
651.882	4.53
652.212	4.54
652.542	4.54
652.872	4.54
653.203	4.48
653.533	4.39
653.863	4.37
654.193	4.41
654.523	4.46
654.853	4.5
655.183	4.54
655.513	4.51
655.843	4.49
656.172	4.53
656.502	4.5
656.832	4.49
657.162	4.47
657.491	4.51
657.821	4.56
658.15	4.58
658.48	4.7
658.809	4.65
659.139	4.65
659.468	4.63
659.798	4.65
660.127	4.68
660.456	4.76
660.785	4.78
661.115	4.79
661.444	4.78
661.773	4.79
662.102	4.8
662.431	4.78
662.76	4.85
663.089	4.81
663.418	4.84
663.747	4.85
664.076	4.81
664.404	4.77
664.733	4.71
665.062	4.78
665.39	4.73
665.719	4.75
666.048	4.75
666.376	4.78
666.705	4.71
667.033	4.69
667.362	4.64
667.69	4.66
668.018	4.62
668.347	4.6
668.675	4.57
669.003	4.59
669.331	4.62
669.659	4.59
669.987	4.57
670.315	4.51
670.643	4.52
670.971	4.54
671.299	4.6
671.627	4.6
671.955	4.6
672.283	4.61
672.61	4.62
672.938	4.66
673.266	4.7
673.593	4.8
673.921	4.86
674.249	4.93
674.576	4.99
674.904	5.04
675.231	5.05
675.558	5.03
675.886	5.01
676.213	5.04
676.54	5.06
676.867	5.18
677.195	5.21
677.522	5.25
677.849	5.33
678.176	5.3
678.503	5.29
678.83	5.17
679.157	5.11
679.484	5.08
679.81	5.01
680.137	5
680.464	4.97
680.791	4.94
681.117	4.89
681.444	4.87
681.771	4.89
682.097	4.86
682.424	4.91
682.75	4.87
683.077	4.83
683.403	4.87
683.729	4.81
684.056	4.79
684.382	4.8
684.708	4.67
685.034	4.69
685.36	4.75
685.686	4.84
686.012	4.85
686.339	4.88
686.664	4.92
686.99	4.91
687.316	4.87
687.642	4.92
687.968	4.89
688.294	4.89
688.619	4.91
688.945	4.91
689.271	4.94
689.596	4.96
689.922	5.03
690.247	4.95
690.573	4.98
690.898	5.03
691.224	5.1
691.549	5.21
691.874	5.22
692.2	5.35
692.525	5.34
692.85	5.56
693.175	5.54
693.5	5.49
693.825	5.5
694.15	5.58
694.475	5.59
694.8	5.7
695.125	5.61
695.45	5.55
695.775	5.59
696.099	5.53
696.424	5.54
696.749	5.55
697.073	5.51
697.398	5.48
697.723	5.44
698.047	5.35
698.372	5.38
698.696	5.43
699.02	5.36
699.345	5.28
699.669	5.14
699.993	5.12
700.318	5.19
700.642	5.16
700.966	5.14
701.29	5.08
701.614	4.98
701.938	5.12
702.262	5.15
702.586	5.25
702.91	5.31
703.234	5.29
703.557	5.19
703.881	5.28
704.205	5.23
704.529	5.28
704.852	5.3
705.176	5.22
705.499	5.1
705.823	4.94
706.146	5.05
706.47	5.1
706.793	5.09
707.117	5.14
707.44	5.11
707.763	5.01
708.086	4.97
708.409	5.01
708.733	4.87
709.056	4.8
709.379	4.78
709.702	4.75
710.025	4.66
710.348	4.67
710.671	4.59
710.993	4.71
711.316	4.75
711.639	4.81
711.962	4.78
712.284	4.89
712.607	5.06
712.93	5.16
713.252	5.21
713.575	5.36
713.897	5.33
714.22	5.47
714.542	5.6
714.864	5.62
715.187	5.64
715.509	5.64
715.831	5.61
716.153	5.52
716.475	5.51
716.798	5.63
717.12	5.87
717.442	6
717.764	5.87
718.085	5.76
718.407	5.74
718.729	5.67
719.051	5.67
719.373	5.6
719.695	5.36
720.016	5.36
720.338	5.17
720.659	5.12
720.981	5.05
721.302	5.02
721.624	5.02
721.945	4.95
722.267	5.05
722.588	5.11
722.909	5.13
723.231	5.08
723.552	5.07
723.873	4.89
724.194	4.8
724.515	4.94
724.836	5.08
725.157	5.21
725.478	5.24
725.799	5.11
726.12	5.01
726.441	5.12
726.762	5.08
727.083	5.21
727.403	5.08
727.724	5.28
728.045	5.25
728.365	5.28
728.686	5.26
729.006	5.28
729.327	5.19
729.647	5.14
729.967	5.13
730.288	5.21
730.608	5.19
730.928	5.12
731.249	5.12
731.569	5.05
731.889	4.88
732.209	4.95
732.529	5.03
732.849	5.19
733.169	5.27
733.489	5.29
733.809	5.37
734.129	5.54
734.448	5.43
734.768	5.41
735.088	5.41
735.408	5.46
735.727	5.5
736.047	5.59
736.366	5.64
736.686	5.69
737.005	5.52
737.325	5.52
737.644	5.6
737.963	5.58
738.283	5.59
738.602	5.77
738.921	5.99
739.24	6.18
739.56	6.09
739.879	6.24
740.198	6.26
740.517	6.01
740.836	6.01
741.155	5.77
741.473	5.81
741.792	5.8
742.111	5.94
742.43	5.9
742.748	5.76
743.067	5.79
743.386	5.78
743.704	6.03
744.023	6.04
744.341	5.99
744.66	6.17
744.978	6.12
745.297	5.99
745.615	5.75
745.933	5.63
746.252	5.68
746.57	5.41
746.888	5.32
747.206	5.4
747.524	5.41
747.842	5.66
748.16	5.73
748.478	5.75
748.796	5.8
749.114	5.91
749.432	6.25
749.749	6.16
750.067	6.16
750.385	5.99
750.703	5.88
751.02	5.98
751.338	5.85
751.655	6
751.973	6.1
752.29	5.92
752.608	5.98
752.925	5.82
753.242	5.97
753.56	5.88
753.877	6.04
754.194	5.64
754.511	5.69
754.828	5.39
755.145	5.38
755.462	5.44
755.779	5.25
756.096	5.2
756.413	5.37
756.73	5.71
757.047	5.82
757.364	5.92
757.68	5.96
757.997	6.01
758.314	5.83
758.63	5.67
758.947	5.78
759.264	5.5
759.58	5.73
759.896	5.74
760.213	6.08
760.529	5.99
760.846	6.42
761.162	6.35
761.478	6.63
761.794	6.64
762.11	6.64
762.426	6.74
762.743	6.75
763.059	6.71
763.375	6.57
763.69	6.43
764.006	6.62
764.322	6.68
764.638	6.64
764.954	6.85
765.27	6.91
765.585	7.02
765.901	7.21
766.216	7.14
766.532	7.07
766.848	6.9
767.163	6.99
767.478	6.67
767.794	6.77
768.109	6.7
768.424	6.54
768.74	6.35
769.055	6.23
769.37	6.13
769.685	5.82
770	5.82
770.315	5.85
770.63	5.59
770.945	5.24
771.26	5.26
771.575	5.08
771.89	4.95
772.205	4.72
772.52	4.8
772.834	4.68
773.149	4.85
773.464	4.68
773.778	4.79
774.093	4.9
774.407	4.43
774.722	4.49
775.036	4.44
775.351	4.54
775.665	4.64
775.979	4.73
776.293	4.73
776.608	4.55
776.922	4.71
777.236	4.74
777.55	5.06
777.864	5.07
778.178	5.44
778.492	5.55
778.806	5.73
779.12	5.58
779.434	5.24
779.747	5.07
780.061	5.3
780.375	5.23
780.689	5.51
781.002	6.12
781.316	6.12
781.629	6.96
781.943	7.33
782.256	7.38
782.57	7.1
782.883	7.26
783.196	7.28
783.51	6.97
783.823	7.08
784.136	6.96
784.449	6.76
784.762	6.69
785.075	6.5
785.388	6.37
785.701	6.44
786.014	6.97
786.327	6.81
786.64	6.97
786.953	6.91
787.266	6.93
787.578	7.05
787.891	6.71
788.204	6.03
788.516	6.16
788.829	5.99
789.141	6.71
789.454	7.35
789.766	7.51
790.079	7.75
790.391	7.45
790.703	7.42
791.016	7.62
791.328	7.63
791.64	7.95
791.952	7.91
792.264	7.48
792.576	7.21
792.888	7.23
793.2	7.22
793.512	7.03
793.824	6.91
794.136	6.56
794.448	6.96
794.76	6.67
795.071	6.08
795.383	6.34
795.695	5.41
796.006	4.94
796.318	4.85
796.629	4.61
796.941	4.35
797.252	4.53
797.564	4.61
797.875	4.55
798.186	4.69
798.497	5.01
798.809	5.5
799.12	5.95
799.431	5.7
799.742	5.57
800.053	5.73
800.364	5.6
800.675	5.17
800.986	5.25
801.297	5.82
801.608	6.02
801.918	6.05
802.229	6.66
802.54	6.51
802.851	6.6
803.161	7.12
803.472	7.51
803.782	7.67
804.093	7.49
804.403	7.35
804.714	7.31
805.024	6.44
805.334	6.24
805.645	6.37
805.955	7.13
806.265	6.93
806.575	6.93
806.885	6.99
807.195	7.18
807.505	6.98
807.815	6.91
808.125	6.94
808.435	6.74
808.745	6.93
809.055	7.52
809.365	7.26
809.674	6.92
809.984	6.79
810.294	6.72
810.603	7.06
810.913	7.04
811.222	6.96
811.532	7.61
811.841	8.05
812.151	8.35
812.46	7.71
812.769	8.01
813.079	8.04
813.388	8.17
813.697	8.22
814.006	8.49
814.315	8.51
814.624	8.09
814.933	8.61
815.242	7.88
815.551	8.05
815.86	8.92
816.169	9.12
816.478	9.25
816.786	9.12
817.095	8.77
817.404	9.16
817.712	8.52
818.021	8.4
818.33	8.11
818.638	7.9
818.947	8.58
819.255	8.69
819.563	8.72
819.872	8.75
820.18	9.15
820.488	9.07
820.796	9.25
821.105	9.28
821.413	9.16
821.721	9.23
822.029	9.11
822.337	9.1
822.645	9.19
822.953	9.2
823.26	9.25
823.568	9.19
823.876	9.08
824.184	9.23
824.491	9.34
824.799	9.34
825.107	9.29
825.414	9.27
825.722	9.38
826.029	9.55
826.337	9.66
826.644	9.6
826.951	9.51
827.259	9.48
827.566	9.43
827.873	9.58
828.18	9.55
828.488	9.43
828.795	9.17
829.102	9.03
829.409	9.12
829.716	8.89
830.023	9.08
830.329	9.1
830.636	8.95
830.943	8.81
831.25	8.72
831.557	8.54
831.863	8.31
832.17	7.61
832.476	7.59
832.783	7.66
833.089	7.56
833.396	7.72
833.702	7.53
834.009	7.95
834.315	7.42
834.621	7.82
834.928	8.14
835.234	8.4
835.54	8.46
835.846	8.28
836.152	8.49
836.458	8.6
836.764	8.69
837.07	8.54
837.376	8.19
837.682	8.18
837.988	8.03
838.293	8.1
838.599	8.69
838.905	7.81
839.211	7.19
839.516	7.51
839.822	7.47
840.127	7.63
840.433	7.24
840.738	8.03
841.044	7.24
841.349	6.98
841.654	5.95
841.959	6.21
842.265	6.33
842.57	6.71
842.875	6.92
843.18	7.44
843.485	8.94
843.79	10.43
844.095	10.31
844.4	10.96
844.705	10.94
845.01	9.53
845.315	9.78
845.619	9.06
845.924	9.36
846.229	8.62
846.533	8.63
846.838	8.04
847.142	7.07
847.447	5.43
847.751	5.07
848.056	4.6
848.36	5.16
848.664	4.08
848.969	4.16
849.273	2.12
849.577	0.11
849.881	-2.26
850.185	-2.11
850.489	-0.74
850.794	-1.9
851.097	-2.77
851.401	-1
851.705	-1.2
852.009	0.67
852.313	-0.92
852.617	-1.38
852.92	-1.14
853.224	-0.66
853.528	-0.75
853.831	1.09
854.135	2.21
854.438	4.99
854.742	3.69
855.045	4.28
855.349	2.73
855.652	2.8
855.955	4.25
856.259	5.11
856.562	3.83
856.865	2.91
857.168	4.07
857.471	6.04
857.774	6.64
858.077	7.78
858.38	8.43
858.683	7.89
858.986	9.86
859.289	8.3
859.592	8.51
859.894	8.23
860.197	7.49
860.5	7.46
860.802	5.94
861.105	6.32
861.407	6.09
861.71	5.8
862.012	5.39
862.315	3.88
862.617	1.75
862.919	0.15
863.222	-0.78
863.524	-0.54
863.826	-1.03
864.128	-2.96
864.43	-1.84
864.732	-1.56
865.034	-0.43
865.336	-0.56
865.638	0.12
865.94	-0.44
866.242	-0.8
866.544	-0.09
866.846	-0.83
867.147	-0.84
867.449	-1.08
867.751	-0.82
868.052	1.93
868.354	0.97
868.655	1.39
868.957	2.02
869.258	4.78
869.56	5.83
869.861	6.16
870.162	4.2
870.463	5.57
870.765	6.24
871.066	4.7
871.367	3.92
871.668	4.62
871.969	4.38
872.27	4.13
872.571	3.72
872.872	5.65
873.173	3.81
873.473	4.37
873.774	4.29
874.075	4.28
874.376	0.87
874.676	4.95
874.977	3.93
875.277	6.41
875.578	4.82
875.878	4.57
876.179	3.8
876.479	5.2
876.78	4.41
877.08	1.72
877.38	2.12
877.68	2.59
877.981	0.73
878.281	0.38
878.581	1.4
