Data from BA28302_Reflection_00003.txt Node
Date: Mon Nov 18 15:48:34 EST 2019
User: vgr7
Spectrometer: USB2G7710
Scans to average: 3
Trigger mode: 4
Integration Time (sec): 2.000000E-2
Electric dark correction enabled: true
Boxcar width: 10
XAxis mode: Wavelengths
Number of Pixels in Spectrum: 2048
>>>>>Begin Spectral Data<<<<<
177.721	288.15
178.105	-159.84
178.488	-446.64
178.871	-251.56
179.254	1930.51
179.636	-492.11
180.019	175.31
180.402	15.91
180.785	-321.55
181.168	611.36
181.55	-473.25
181.933	242.98
182.316	156.99
182.698	164.55
183.081	228.41
183.463	407.47
183.846	419.23
184.228	362.37
184.611	248.09
184.993	450.58
185.376	-43614.29
185.758	2476.24
186.14	-4621.31
186.522	666.24
186.904	1216.72
187.287	711.6
187.669	551.72
188.051	451.39
188.433	826.22
188.815	487.53
189.197	1799.12
189.579	-7580
189.961	2337.29
190.342	875.67
190.724	-424.52
191.106	1882.18
191.488	276.29
191.869	171.08
192.251	255.95
192.633	3395.77
193.014	575.92
193.396	362.09
193.777	7548.28
194.159	-3172.73
194.54	-98.07
194.922	-118.9
195.303	-186.38
195.684	-127.57
196.065	-98.99
196.447	-116.81
196.828	-149.81
197.209	-123.63
197.59	-719.19
197.971	-1555.17
198.352	-86.59
198.733	-313
199.114	-106.12
199.495	-68.63
199.876	-80.95
200.257	-80.86
200.638	-54.52
201.018	-92.33
201.399	-136.35
201.78	-152.14
202.16	-178.89
202.541	-302.72
202.922	-897.48
203.302	-653.53
203.683	-413.96
204.063	-583.35
204.444	-1066.28
204.824	-4647.25
205.204	-1285.92
205.585	-429.9
205.965	-290.09
206.345	-540.08
206.725	-640.12
207.106	8297.18
207.486	1359.59
207.866	1009.71
208.246	2996.55
208.626	3518.99
209.006	1300
209.386	1776.71
209.766	-2547.77
210.145	-1086.69
210.525	-496.24
210.905	-269.51
211.285	-272.41
211.664	-233.18
212.044	-226.49
212.424	-127.73
212.803	-127.13
213.183	-124.75
213.562	-106.34
213.942	-122.61
214.321	-78.65
214.701	-100.32
215.08	-78.84
215.459	-69.53
215.838	-58.08
216.218	-55.81
216.597	-46.19
216.976	-39.63
217.355	-27.42
217.734	-33.3
218.113	-45.48
218.492	-49.44
218.871	-50.61
219.25	-29.57
219.629	-29.39
220.008	-52.47
220.387	-76.97
220.766	-66.31
221.144	-87.77
221.523	-104.24
221.902	-62.2
222.28	-82.48
222.659	-56.92
223.037	-51.32
223.416	-40.81
223.794	-44.71
224.173	-44.4
224.551	-35.14
224.929	-35.29
225.308	-24.58
225.686	-24.87
226.064	-19.73
226.442	-17.1
226.821	-15.39
227.199	-17.11
227.577	-16.59
227.955	-12.31
228.333	-10.73
228.711	-8.85
229.089	-5.71
229.467	-5.99
229.845	-8.87
230.222	-10.97
230.6	-11.08
230.978	-11.63
231.356	-9.52
231.733	-6.45
232.111	-5.02
232.488	-5.12
232.866	-4.97
233.243	-4.38
233.621	-3.85
233.998	-3.4
234.376	-4.99
234.753	-3.71
235.13	-2.38
235.508	-0.82
235.885	-1.6
236.262	-3
236.639	-3.31
237.016	-2.46
237.393	-0.77
237.77	0.75
238.147	2.11
238.524	1.62
238.901	2.67
239.278	3.58
239.655	3.45
240.032	3.22
240.409	3.56
240.785	4.37
241.162	3.98
241.539	3.96
241.915	3.91
242.292	4.14
242.668	4.01
243.045	3.96
243.421	3.37
243.798	3.65
244.174	3.87
244.551	3.73
244.927	3.82
245.303	3.92
245.679	3.77
246.056	3.83
246.432	4.01
246.808	3.79
247.184	3.27
247.56	3.18
247.936	3.23
248.312	3.06
248.688	3.16
249.064	3.31
249.44	3.37
249.815	3.39
250.191	3.37
250.567	3.46
250.943	3.55
251.318	3.82
251.694	3.79
252.069	3.67
252.445	4.05
252.82	3.82
253.196	3.62
253.571	3.78
253.947	3.76
254.322	3.95
254.697	3.73
255.073	3.62
255.448	3.19
255.823	3.31
256.198	3.41
256.573	3.16
256.948	3
257.323	3.01
257.698	2.94
258.073	3.03
258.448	2.9
258.823	2.77
259.198	2.63
259.573	2.62
259.948	2.61
260.322	2.42
260.697	2.32
261.072	2.23
261.446	2.01
261.821	1.99
262.195	2
262.57	2.03
262.944	2.25
263.319	2.38
263.693	2.32
264.067	2.29
264.442	2.25
264.816	2.18
265.19	2.1
265.564	2.21
265.938	2.18
266.313	2
266.687	2.08
267.061	2.24
267.435	2.25
267.809	2.28
268.183	2.36
268.556	2.43
268.93	2.42
269.304	2.57
269.678	2.51
270.051	2.55
270.425	2.48
270.799	2.31
271.172	2.35
271.546	2.29
271.919	2.15
272.293	2.17
272.666	2.22
273.04	2.14
273.413	2.11
273.787	2.02
274.16	2.22
274.533	2.27
274.906	2.24
275.279	2.26
275.653	2.25
276.026	2.17
276.399	2.22
276.772	2.44
277.145	2.39
277.518	2.43
277.891	2.34
278.263	2.44
278.636	2.47
279.009	2.48
279.382	2.61
279.755	2.61
280.127	2.71
280.5	2.81
280.872	2.86
281.245	2.7
281.617	2.76
281.99	2.79
282.362	2.72
282.735	2.6
283.107	2.65
283.479	2.67
283.852	2.72
284.224	2.71
284.596	2.58
284.968	2.61
285.34	2.64
285.713	2.66
286.085	2.76
286.457	2.85
286.829	2.93
287.201	2.83
287.572	2.88
287.944	2.75
288.316	2.68
288.688	2.71
289.06	2.71
289.431	2.71
289.803	2.69
290.175	2.68
290.546	2.84
290.918	2.73
291.289	2.77
291.661	2.87
292.032	3.02
292.403	3.04
292.775	3.14
293.146	3.13
293.517	3.04
293.889	2.93
294.26	2.81
294.631	2.8
295.002	2.87
295.373	2.86
295.744	2.91
296.115	2.84
296.486	2.83
296.857	2.9
297.228	3
297.599	2.95
297.97	3
298.34	2.95
298.711	3.07
299.082	2.92
299.452	2.92
299.823	2.84
300.194	2.95
300.564	2.87
300.935	2.75
301.305	2.85
301.676	2.92
302.046	2.99
302.416	2.9
302.787	2.9
303.157	2.95
303.527	2.97
303.897	3.07
304.267	3.13
304.637	3.17
305.008	3.1
305.378	3.28
305.748	3.3
306.117	3.18
306.487	3.16
306.857	3.34
307.227	3.29
307.597	3.24
307.967	3.13
308.336	3.14
308.706	3.33
309.076	3.3
309.445	3.24
309.815	3.26
310.184	3.32
310.554	3.29
310.923	3.31
311.293	3.32
311.662	3.38
312.031	3.39
312.401	3.31
312.77	3.35
313.139	3.27
313.508	3.27
313.877	3.27
314.246	3.17
314.616	3.04
314.985	3.06
315.353	3.11
315.722	3.15
316.091	2.94
316.46	2.77
316.829	2.74
317.198	2.85
317.567	2.73
317.935	2.77
318.304	2.77
318.672	2.71
319.041	2.71
319.41	2.57
319.778	2.54
320.147	2.59
320.515	2.55
320.883	2.51
321.252	2.36
321.62	2.43
321.988	2.45
322.357	2.5
322.725	2.46
323.093	2.41
323.461	2.37
323.829	2.56
324.197	2.77
324.565	2.93
324.933	2.86
325.301	3
325.669	2.91
326.037	3.01
326.405	3
326.772	3.05
327.14	3.16
327.508	3.05
327.875	3.06
328.243	3.05
328.61	2.95
328.978	3.11
329.346	3.3
329.713	3.28
330.08	3.4
330.448	3.27
330.815	3.27
331.182	3.27
331.55	3.26
331.917	3.18
332.284	3.02
332.651	2.85
333.018	2.84
333.385	2.88
333.752	2.86
334.119	2.84
334.486	2.86
334.853	2.74
335.22	2.85
335.587	2.93
335.954	2.98
336.32	3.1
336.687	3.19
337.054	2.99
337.42	2.97
337.787	2.95
338.153	3.04
338.52	3.01
338.886	2.94
339.253	2.87
339.619	2.95
339.986	2.98
340.352	3.22
340.718	3.1
341.084	3.08
341.451	3.09
341.817	3.19
342.183	3.11
342.549	3.1
342.915	3.1
343.281	3.04
343.647	2.94
344.013	2.93
344.379	2.81
344.745	2.85
345.11	2.92
345.476	2.86
345.842	2.86
346.208	2.87
346.573	3.03
346.939	3.15
347.304	3.03
347.67	3.04
348.035	3.12
348.401	3.25
348.766	3.19
349.132	3.13
349.497	3.1
349.862	3.12
350.228	3.22
350.593	3.27
350.958	3.19
351.323	3.33
351.688	3.34
352.053	3.33
352.418	3.28
352.783	3.23
353.148	3.17
353.513	3.19
353.878	3.23
354.243	3.22
354.608	3.11
354.972	3.24
355.337	3.23
355.702	3.19
356.066	3.16
356.431	3.17
356.795	3.21
357.16	3.29
357.524	3.23
357.889	3.19
358.253	3.16
358.618	3.26
358.982	3.16
359.346	3.13
359.71	3.13
360.075	3.17
360.439	3.15
360.803	3.19
361.167	3.16
361.531	3.15
361.895	3.1
362.259	3.2
362.623	3.13
362.987	3.11
363.351	3.1
363.714	3.12
364.078	3.14
364.442	3.14
364.806	3.04
365.169	3.14
365.533	3.13
365.896	3.09
366.26	3.03
366.623	3.06
366.987	3.05
367.35	3.09
367.714	3.14
368.077	3.19
368.44	3.27
368.803	3.3
369.167	3.21
369.53	3.22
369.893	3.23
370.256	3.37
370.619	3.39
370.982	3.36
371.345	3.34
371.708	3.36
372.071	3.32
372.434	3.34
372.797	3.3
373.159	3.3
373.522	3.3
373.885	3.32
374.247	3.3
374.61	3.33
374.973	3.28
375.335	3.22
375.698	3.26
376.06	3.18
376.423	3.17
376.785	3.26
377.147	3.27
377.51	3.24
377.872	3.17
378.234	3.18
378.596	3.2
378.958	3.16
379.321	3.17
379.683	3.24
380.045	3.21
380.407	3.21
380.769	3.21
381.13	3.23
381.492	3.23
381.854	3.29
382.216	3.28
382.578	3.33
382.939	3.34
383.301	3.29
383.663	3.29
384.024	3.31
384.386	3.32
384.747	3.36
385.109	3.32
385.47	3.29
385.832	3.28
386.193	3.27
386.554	3.29
386.916	3.3
387.277	3.25
387.638	3.28
387.999	3.25
388.36	3.29
388.721	3.3
389.082	3.3
389.443	3.26
389.804	3.23
390.165	3.22
390.526	3.24
390.887	3.28
391.248	3.33
391.609	3.36
391.969	3.34
392.33	3.31
392.691	3.29
393.051	3.29
393.412	3.3
393.772	3.28
394.133	3.28
394.493	3.24
394.854	3.25
395.214	3.25
395.574	3.27
395.935	3.24
396.295	3.26
396.655	3.25
397.015	3.27
397.376	3.3
397.736	3.33
398.096	3.33
398.456	3.31
398.816	3.29
399.176	3.26
399.535	3.27
399.895	3.28
400.255	3.35
400.615	3.4
400.975	3.4
401.334	3.41
401.694	3.39
402.054	3.42
402.413	3.41
402.773	3.4
403.132	3.41
403.492	3.4
403.851	3.38
404.211	3.41
404.57	3.39
404.929	3.44
405.288	3.39
405.648	3.39
406.007	3.4
406.366	3.42
406.725	3.46
407.084	3.48
407.443	3.47
407.802	3.47
408.161	3.47
408.52	3.43
408.879	3.42
409.238	3.46
409.596	3.44
409.955	3.46
410.314	3.49
410.673	3.49
411.031	3.5
411.39	3.51
411.748	3.51
412.107	3.53
412.465	3.48
412.824	3.52
413.182	3.5
413.54	3.5
413.899	3.46
414.257	3.44
414.615	3.43
414.974	3.44
415.332	3.43
415.69	3.42
416.048	3.44
416.406	3.44
416.764	3.41
417.122	3.43
417.48	3.42
417.838	3.42
418.195	3.41
418.553	3.41
418.911	3.4
419.269	3.41
419.626	3.42
419.984	3.41
420.342	3.41
420.699	3.42
421.057	3.43
421.414	3.44
421.772	3.44
422.129	3.44
422.486	3.43
422.844	3.43
423.201	3.4
423.558	3.41
423.915	3.4
424.273	3.4
424.63	3.38
424.987	3.39
425.344	3.38
425.701	3.39
426.058	3.37
426.415	3.37
426.772	3.36
427.128	3.35
427.485	3.37
427.842	3.36
428.199	3.37
428.555	3.36
428.912	3.38
429.269	3.39
429.625	3.37
429.982	3.36
430.338	3.36
430.695	3.39
431.051	3.38
431.407	3.39
431.764	3.4
432.12	3.42
432.476	3.42
432.832	3.4
433.189	3.41
433.545	3.42
433.901	3.43
434.257	3.42
434.613	3.42
434.969	3.42
435.325	3.43
435.681	3.43
436.036	3.42
436.392	3.41
436.748	3.39
437.104	3.4
437.459	3.41
437.815	3.41
438.171	3.41
438.526	3.43
438.882	3.44
439.237	3.46
439.593	3.48
439.948	3.48
440.304	3.49
440.659	3.48
441.014	3.49
441.369	3.48
441.725	3.49
442.08	3.48
442.435	3.47
442.79	3.47
443.145	3.47
443.5	3.46
443.855	3.46
444.21	3.46
444.565	3.47
444.92	3.49
445.275	3.48
445.629	3.5
445.984	3.48
446.339	3.47
446.693	3.45
447.048	3.44
447.403	3.45
447.757	3.43
448.112	3.43
448.466	3.42
448.82	3.43
449.175	3.43
449.529	3.44
449.883	3.44
450.238	3.43
450.592	3.43
450.946	3.41
451.3	3.41
451.654	3.41
452.008	3.4
452.362	3.38
452.716	3.39
453.07	3.37
453.424	3.38
453.778	3.37
454.132	3.37
454.486	3.36
454.839	3.36
455.193	3.39
455.547	3.39
455.9	3.4
456.254	3.4
456.607	3.42
456.961	3.41
457.314	3.43
457.668	3.44
458.021	3.43
458.375	3.45
458.728	3.47
459.081	3.46
459.434	3.46
459.787	3.47
460.141	3.46
460.494	3.47
460.847	3.47
461.2	3.46
461.553	3.47
461.906	3.48
462.259	3.48
462.611	3.49
462.964	3.48
463.317	3.5
463.67	3.49
464.022	3.47
464.375	3.47
464.728	3.47
465.08	3.47
465.433	3.45
465.785	3.45
466.138	3.43
466.49	3.44
466.843	3.44
467.195	3.45
467.547	3.45
467.899	3.45
468.252	3.47
468.604	3.5
468.956	3.48
469.308	3.5
469.66	3.48
470.012	3.47
470.364	3.47
470.716	3.46
471.068	3.46
471.42	3.47
471.772	3.5
472.123	3.51
472.475	3.5
472.827	3.53
473.178	3.53
473.53	3.51
473.882	3.51
474.233	3.5
474.585	3.48
474.936	3.49
475.288	3.47
475.639	3.46
475.99	3.46
476.342	3.47
476.693	3.45
477.044	3.45
477.395	3.45
477.746	3.46
478.097	3.46
478.448	3.49
478.8	3.49
479.15	3.47
479.501	3.49
479.852	3.51
480.203	3.53
480.554	3.54
480.905	3.56
481.255	3.57
481.606	3.58
481.957	3.59
482.307	3.59
482.658	3.6
483.009	3.6
483.359	3.6
483.709	3.61
484.06	3.62
484.41	3.62
484.761	3.62
485.111	3.62
485.461	3.62
485.811	3.61
486.162	3.61
486.512	3.62
486.862	3.63
487.212	3.62
487.562	3.61
487.912	3.61
488.262	3.61
488.612	3.62
488.961	3.61
489.311	3.63
489.661	3.62
490.011	3.62
490.36	3.62
490.71	3.62
491.06	3.63
491.409	3.63
491.759	3.63
492.108	3.64
492.458	3.65
492.807	3.65
493.157	3.65
493.506	3.67
493.855	3.66
494.204	3.64
494.554	3.64
494.903	3.64
495.252	3.66
495.601	3.66
495.95	3.65
496.299	3.65
496.648	3.63
496.997	3.64
497.346	3.65
497.695	3.68
498.043	3.66
498.392	3.64
498.741	3.64
499.09	3.64
499.438	3.64
499.787	3.64
500.135	3.64
500.484	3.66
500.832	3.64
501.181	3.63
501.529	3.65
501.878	3.66
502.226	3.64
502.574	3.63
502.923	3.61
503.271	3.64
503.619	3.63
503.967	3.63
504.315	3.62
504.663	3.62
505.011	3.6
505.359	3.6
505.707	3.63
506.055	3.63
506.403	3.63
506.751	3.61
507.098	3.61
507.446	3.61
507.794	3.61
508.141	3.62
508.489	3.62
508.837	3.63
509.184	3.65
509.531	3.67
509.879	3.67
510.226	3.69
510.574	3.67
510.921	3.7
511.268	3.69
511.616	3.7
511.963	3.72
512.31	3.73
512.657	3.73
513.004	3.72
513.351	3.72
513.698	3.71
514.045	3.72
514.392	3.72
514.739	3.74
515.086	3.74
515.432	3.74
515.779	3.74
516.126	3.75
516.473	3.74
516.819	3.75
517.166	3.76
517.512	3.76
517.859	3.78
518.205	3.78
518.552	3.81
518.898	3.8
519.245	3.78
519.591	3.76
519.937	3.76
520.283	3.77
520.629	3.76
520.976	3.77
521.322	3.79
521.668	3.79
522.014	3.81
522.36	3.81
522.706	3.82
523.052	3.85
523.398	3.86
523.743	3.86
524.089	3.85
524.435	3.85
524.781	3.85
525.126	3.85
525.472	3.85
525.817	3.86
526.163	3.86
526.509	3.88
526.854	3.9
527.199	3.91
527.545	3.91
527.89	3.93
528.235	3.93
528.581	3.94
528.926	3.94
529.271	3.93
529.616	3.91
529.961	3.91
530.306	3.91
530.651	3.91
530.996	3.91
531.341	3.92
531.686	3.92
532.031	3.93
532.376	3.94
532.721	3.93
533.065	3.92
533.41	3.92
533.755	3.92
534.099	3.93
534.444	3.93
534.788	3.92
535.133	3.92
535.477	3.93
535.822	3.93
536.166	3.93
536.51	3.94
536.855	3.95
537.199	3.96
537.543	3.97
537.887	3.97
538.231	3.97
538.576	3.96
538.92	3.98
539.264	3.97
539.608	3.95
539.951	3.97
540.295	3.98
540.639	3.98
540.983	3.99
541.327	3.98
541.671	3.98
542.014	3.99
542.358	4
542.701	4
543.045	4
543.389	4
543.732	4.01
544.075	4.02
544.419	4
544.762	3.99
545.105	3.99
545.449	4.01
545.792	4.02
546.135	4.01
546.478	4.02
546.821	4.02
547.165	4.01
547.508	4.01
547.851	4.03
548.194	4.01
548.536	4.02
548.879	4.02
549.222	4.01
549.565	4.01
549.908	4.01
550.25	4.02
550.593	4.04
550.936	4.02
551.278	4
551.621	4.04
551.963	4.04
552.306	4.03
552.648	4.02
552.991	4.03
553.333	4.04
553.675	4.04
554.017	4.04
554.36	4.08
554.702	4.1
555.044	4.07
555.386	4.07
555.728	4.08
556.07	4.11
556.412	4.09
556.754	4.09
557.096	4.1
557.438	4.08
557.78	4.08
558.121	4.11
558.463	4.14
558.805	4.12
559.147	4.14
559.488	4.12
559.83	4.12
560.171	4.11
560.513	4.11
560.854	4.1
561.196	4.1
561.537	4.09
561.878	4.09
562.22	4.1
562.561	4.12
562.902	4.14
563.243	4.12
563.584	4.18
563.925	4.18
564.266	4.17
564.607	4.17
564.948	4.14
565.289	4.17
565.63	4.17
565.971	4.19
566.312	4.18
566.653	4.21
566.993	4.21
567.334	4.17
567.675	4.18
568.015	4.18
568.356	4.2
568.696	4.19
569.037	4.2
569.377	4.22
569.718	4.22
570.058	4.21
570.398	4.21
570.739	4.2
571.079	4.21
571.419	4.21
571.759	4.24
572.099	4.27
572.439	4.25
572.779	4.24
573.119	4.26
573.459	4.27
573.799	4.28
574.139	4.27
574.479	4.32
574.819	4.32
575.158	4.33
575.498	4.32
575.838	4.33
576.177	4.28
576.517	4.25
576.856	4.26
577.196	4.22
577.535	4.22
577.875	4.21
578.214	4.19
578.553	4.22
578.893	4.19
579.232	4.18
579.571	4.16
579.91	4.16
580.25	4.15
580.589	4.13
580.928	4.11
581.267	4.12
581.606	4.11
581.945	4.12
582.283	4.14
582.622	4.12
582.961	4.14
583.3	4.21
583.639	4.26
583.977	4.26
584.316	4.29
584.654	4.32
584.993	4.33
585.332	4.36
585.67	4.35
586.008	4.32
586.347	4.32
586.685	4.36
587.024	4.32
587.362	4.35
587.7	4.38
588.038	4.4
588.376	4.4
588.715	4.39
589.053	4.37
589.391	4.37
589.729	4.41
590.067	4.37
590.404	4.33
590.742	4.33
591.08	4.3
591.418	4.29
591.756	4.28
592.093	4.29
592.431	4.26
592.769	4.25
593.106	4.27
593.444	4.28
593.781	4.27
594.119	4.3
594.456	4.25
594.793	4.24
595.131	4.23
595.468	4.28
595.805	4.29
596.143	4.29
596.48	4.27
596.817	4.27
597.154	4.29
597.491	4.32
597.828	4.32
598.165	4.31
598.502	4.3
598.839	4.31
599.176	4.31
599.512	4.34
599.849	4.38
600.186	4.37
600.523	4.37
600.859	4.41
601.196	4.42
601.532	4.41
601.869	4.39
602.205	4.38
602.542	4.39
602.878	4.36
603.215	4.38
603.551	4.42
603.887	4.44
604.223	4.43
604.56	4.44
604.896	4.44
605.232	4.48
605.568	4.51
605.904	4.5
606.24	4.49
606.576	4.46
606.912	4.44
607.248	4.46
607.583	4.46
607.919	4.43
608.255	4.42
608.591	4.48
608.926	4.49
609.262	4.53
609.597	4.48
609.933	4.49
610.268	4.49
610.604	4.46
610.939	4.44
611.275	4.47
611.61	4.46
611.945	4.44
612.281	4.42
612.616	4.42
612.951	4.43
613.286	4.45
613.621	4.47
613.956	4.48
614.291	4.46
614.626	4.45
614.961	4.44
615.296	4.43
615.631	4.36
615.966	4.36
616.3	4.32
616.635	4.34
616.97	4.34
617.304	4.3
617.639	4.31
617.973	4.29
618.308	4.27
618.642	4.28
618.977	4.33
619.311	4.32
619.646	4.33
619.98	4.3
620.314	4.34
620.648	4.35
620.983	4.37
621.317	4.4
621.651	4.44
621.985	4.47
622.319	4.5
622.653	4.58
622.987	4.64
623.321	4.63
623.655	4.64
623.988	4.66
624.322	4.7
624.656	4.73
624.99	4.73
625.323	4.76
625.657	4.76
625.99	4.74
626.324	4.77
626.657	4.79
626.991	4.8
627.324	4.74
627.658	4.75
627.991	4.78
628.324	4.78
628.657	4.72
628.991	4.75
629.324	4.79
629.657	4.74
629.99	4.73
630.323	4.74
630.656	4.77
630.989	4.8
631.322	4.81
631.655	4.75
631.987	4.79
632.32	4.78
632.653	4.78
632.986	4.81
633.318	4.8
633.651	4.77
633.984	4.78
634.316	4.79
634.649	4.77
634.981	4.75
635.313	4.78
635.646	4.86
635.978	4.79
636.31	4.73
636.643	4.78
636.975	4.82
637.307	4.82
637.639	4.79
637.971	4.72
638.303	4.68
638.635	4.7
638.967	4.71
639.299	4.75
639.631	4.7
639.963	4.62
640.295	4.57
640.626	4.65
640.958	4.71
641.29	4.71
641.621	4.7
641.953	4.66
642.285	4.61
642.616	4.62
642.948	4.64
643.279	4.58
643.61	4.62
643.942	4.55
644.273	4.58
644.604	4.58
644.936	4.62
645.267	4.64
645.598	4.73
645.929	4.76
646.26	4.74
646.591	4.81
646.922	4.83
647.253	4.85
647.584	4.75
647.915	4.73
648.245	4.74
648.576	4.83
648.907	4.89
649.238	4.9
649.568	4.86
649.899	4.9
650.229	4.98
650.56	4.9
650.89	4.91
651.221	4.89
651.551	4.87
651.882	4.9
652.212	4.88
652.542	4.81
652.872	4.75
653.203	4.73
653.533	4.71
653.863	4.77
654.193	4.8
654.523	4.83
654.853	4.84
655.183	4.85
655.513	4.76
655.843	4.76
656.172	4.77
656.502	4.77
656.832	4.72
657.162	4.76
657.491	4.82
657.821	4.88
658.15	4.86
658.48	4.9
658.809	4.84
659.139	4.89
659.468	4.89
659.798	4.89
660.127	4.94
660.456	4.95
660.785	4.91
661.115	4.93
661.444	4.93
661.773	4.91
662.102	4.96
662.431	5.06
662.76	5.03
663.089	4.98
663.418	4.96
663.747	5.02
664.076	5
664.404	4.95
664.733	4.91
665.062	5.01
665.39	4.97
665.719	5
666.048	5
666.376	4.98
666.705	5.03
667.033	4.96
667.362	4.99
667.69	4.99
668.018	5.01
668.347	5.1
668.675	5.17
669.003	5.11
669.331	5.09
669.659	5.11
669.987	5.13
670.315	5.16
670.643	5.16
670.971	5.11
671.299	5.15
671.627	5.2
671.955	5.11
672.283	5.15
672.61	5.19
672.938	5.29
673.266	5.3
673.593	5.38
673.921	5.41
674.249	5.41
674.576	5.45
674.904	5.42
675.231	5.37
675.558	5.29
675.886	5.28
676.213	5.25
676.54	5.27
676.867	5.36
677.195	5.32
677.522	5.37
677.849	5.38
678.176	5.41
678.503	5.34
678.83	5.34
679.157	5.28
679.484	5.28
679.81	5.18
680.137	5.21
680.464	5.1
680.791	5.12
681.117	5.04
681.444	5.03
681.771	4.99
682.097	5.03
682.424	5.05
682.75	5.04
683.077	5.05
683.403	5.07
683.729	5.05
684.056	5.06
684.382	4.98
684.708	4.99
685.034	4.92
685.36	4.95
685.686	4.99
686.012	5.01
686.339	4.97
686.664	5
686.99	5.01
687.316	5.07
687.642	5.1
687.968	5.18
688.294	5.18
688.619	5.21
688.945	5.15
689.271	5.1
689.596	5.15
689.922	5.12
690.247	5.02
690.573	5
690.898	5.05
691.224	5.08
691.549	5.21
691.874	5.16
692.2	5.23
692.525	5.21
692.85	5.27
693.175	5.32
693.5	5.21
693.825	5.18
694.15	5.18
694.475	5.12
694.8	5.06
695.125	4.99
695.45	5.02
695.775	5.05
696.099	5.08
696.424	5.08
696.749	5.05
697.073	5.11
697.398	5.11
697.723	5.12
698.047	5.1
698.372	5.01
698.696	5.05
699.02	4.98
699.345	4.97
699.669	5.03
699.993	4.97
700.318	5
700.642	5
700.966	4.98
701.29	5.05
701.614	5.12
701.938	5.23
702.262	5.3
702.586	5.32
702.91	5.39
703.234	5.36
703.557	5.46
703.881	5.5
704.205	5.46
704.529	5.43
704.852	5.45
705.176	5.54
705.499	5.62
705.823	5.68
706.146	5.67
706.47	5.6
706.793	5.64
707.117	5.72
707.44	5.86
707.763	5.73
708.086	5.76
708.409	5.77
708.733	5.79
709.056	5.72
709.379	5.81
709.702	5.76
710.025	5.76
710.348	5.76
710.671	5.68
710.993	5.78
711.316	5.83
711.639	5.85
711.962	5.84
712.284	5.87
712.607	5.73
712.93	5.73
713.252	5.68
713.575	5.63
713.897	5.64
714.22	5.66
714.542	5.78
714.864	5.64
715.187	5.6
715.509	5.54
715.831	5.53
716.153	5.46
716.475	5.42
716.798	5.54
717.12	5.46
717.442	5.49
717.764	5.42
718.085	5.36
718.407	5.37
718.729	5.41
719.051	5.41
719.373	5.54
719.695	5.61
720.016	5.77
720.338	5.83
720.659	5.82
720.981	5.73
721.302	5.83
721.624	5.98
721.945	6
722.267	6.13
722.588	6.09
722.909	5.99
723.231	6.03
723.552	5.92
723.873	6.23
724.194	6.31
724.515	6.29
724.836	6.41
725.157	6.27
725.478	6.06
725.799	6.18
726.12	6.22
726.441	6.39
726.762	6.29
727.083	6.24
727.403	6.26
727.724	6.15
728.045	6.07
728.365	5.97
728.686	5.93
729.006	5.82
729.327	5.79
729.647	5.84
729.967	5.75
730.288	5.85
730.608	5.66
730.928	5.63
731.249	5.59
731.569	5.68
731.889	5.73
732.209	5.79
732.529	5.5
732.849	5.49
733.169	5.25
733.489	5.2
733.809	5.2
734.129	5.03
734.448	5.15
734.768	5.21
735.088	5.26
735.408	5.31
735.727	5.32
736.047	5.64
736.366	5.58
736.686	5.67
737.005	5.62
737.325	5.53
737.644	5.45
737.963	5.55
738.283	5.25
738.602	5.43
738.921	5.47
739.24	5.74
739.56	5.59
739.879	5.62
740.198	5.67
740.517	5.82
740.836	6
741.155	5.94
741.473	6
741.792	5.97
742.111	5.98
742.43	5.84
742.748	5.57
743.067	5.44
743.386	5.68
743.704	5.44
744.023	5.58
744.341	5.59
744.66	5.73
744.978	5.87
745.297	5.62
745.615	5.64
745.933	5.44
746.252	5.42
746.57	5.34
746.888	5.32
747.206	5.14
747.524	5.23
747.842	5.39
748.16	5.32
748.478	5.51
748.796	5.55
749.114	5.83
749.432	5.74
749.749	5.86
750.067	5.49
750.385	5.64
750.703	5.69
751.02	5.75
751.338	5.47
751.655	5.52
751.973	5.7
752.29	5.62
752.608	5.91
752.925	5.98
753.242	6
753.56	6.04
753.877	6.3
754.194	6.34
754.511	6.02
754.828	5.83
755.145	5.77
755.462	5.62
755.779	5.64
756.096	5.75
756.413	5.83
756.73	6.24
757.047	6.32
757.364	6.12
757.68	6.37
757.997	6.67
758.314	6.72
758.63	6.58
758.947	6.71
759.264	6.57
759.58	6.49
759.896	6.69
760.213	6.75
760.529	6.68
760.846	6.59
761.162	6.81
761.478	7.1
761.794	6.83
762.11	7.05
762.426	7.05
762.743	7.04
763.059	7.09
763.375	7.04
763.69	7.17
764.006	7.3
764.322	7.19
764.638	7.15
764.954	7.2
765.27	7.13
765.585	7.19
765.901	7.19
766.216	7.41
766.532	7.32
766.848	7.2
767.163	7.1
767.478	7.03
767.794	7.12
768.109	6.97
768.424	7.13
768.74	6.96
769.055	6.86
769.37	6.99
769.685	7.05
770	7.05
770.315	7.04
770.63	6.99
770.945	7.01
771.26	7.06
771.575	7.11
771.89	7.57
772.205	7.39
772.52	7.65
772.834	7.53
773.149	7.67
773.464	7.92
773.778	8
774.093	8
774.407	7.9
774.722	7.68
775.036	7.94
775.351	8.15
775.665	7.92
775.979	7.56
776.293	7.69
776.608	7.4
776.922	7
777.236	6.88
777.55	6.83
777.864	6.83
778.178	6.79
778.492	6.51
778.806	6.47
779.12	6.46
779.434	6.69
779.747	6.56
780.061	6.87
780.375	7.04
780.689	7.38
781.002	7.45
781.316	7.57
781.629	7.61
781.943	7.53
782.256	7.73
782.57	7.83
782.883	7.74
783.196	7.95
783.51	8.37
783.823	8.28
784.136	8.56
784.449	8.57
784.762	8.38
785.075	8.54
785.388	8.67
785.701	8.23
786.014	8.1
786.327	8.26
786.64	7.85
786.953	8.11
787.266	7.93
787.578	7.57
787.891	7.66
788.204	7.44
788.516	7.36
788.829	7.4
789.141	7.7
789.454	7.68
789.766	7.86
790.079	7.59
790.391	7.73
790.703	7.69
791.016	7.6
791.328	7.76
791.64	7.77
791.952	8.04
792.264	8
792.576	8.02
792.888	7.84
793.2	8.09
793.512	7.57
793.824	7.56
794.136	7.73
794.448	7.51
794.76	7.66
795.071	7.74
795.383	7.71
795.695	7.19
796.006	7.75
796.318	7.41
796.629	7.56
796.941	7.67
797.252	7.92
797.564	8.52
797.875	8.52
798.186	8.06
798.497	7.7
798.809	7.66
799.12	7.6
799.431	7.55
799.742	7.58
800.053	7.99
800.364	8.23
800.675	8.56
800.986	8.65
801.297	8.36
801.608	8.47
801.918	8.37
802.229	8.85
802.54	8.27
802.851	8.35
803.161	8.54
803.472	8.47
803.782	8.31
804.093	7.92
804.403	7.78
804.714	8.67
805.024	8.36
805.334	8.79
805.645	9.07
805.955	9.39
806.265	9.46
806.575	9.26
806.885	8.9
807.195	8.64
807.505	9.2
807.815	9.8
808.125	9.26
808.435	9.67
808.745	9.32
809.055	9.57
809.365	9.58
809.674	9.19
809.984	9.48
810.294	8.83
810.603	8.86
810.913	9.32
811.222	8.91
811.532	9.69
811.841	9.94
812.151	10.04
812.46	9.44
812.769	8.94
813.079	8.95
813.388	9.26
813.697	9.99
814.006	9.34
814.315	8.82
814.624	9.24
814.933	9.43
815.242	9.39
815.551	9.24
815.86	9.53
816.169	9.78
816.478	9.13
816.786	9.02
817.095	8.87
817.404	9.15
817.712	8.9
818.021	8.59
818.33	8.53
818.638	8.55
818.947	8.98
819.255	9.55
819.563	9.26
819.872	9.31
820.18	9.17
820.488	9.29
820.796	9.43
821.105	9.33
821.413	9.08
821.721	9.14
822.029	9.16
822.337	9.09
822.645	9.23
822.953	9.29
823.26	9.53
823.568	9.47
823.876	9.35
824.184	9.47
824.491	9.33
824.799	9.21
825.107	9.1
825.414	9.24
825.722	9.12
826.029	9.34
826.337	9.44
826.644	9.25
826.951	9.19
827.259	9.1
827.566	9.18
827.873	9.28
828.18	9.36
828.488	9.17
828.795	9.28
829.102	9.07
829.409	9.23
829.716	8.9
830.023	9
830.329	8.98
830.636	8.92
830.943	9.34
831.25	9.39
831.557	9.64
831.863	9.28
832.17	9.13
832.476	8.76
832.783	8.74
833.089	8.62
833.396	8.79
833.702	8.9
834.009	8.97
834.315	9.29
834.621	9.26
834.928	9.68
835.234	9.57
835.54	9.54
835.846	9.36
836.152	9.57
836.458	9.61
836.764	9.5
837.07	9.4
837.376	9.37
837.682	9.61
837.988	9.6
838.293	10.11
838.599	10.43
838.905	10.31
839.211	9.56
839.516	9.95
839.822	9.87
840.127	9.92
840.433	9.53
840.738	9.58
841.044	9.44
841.349	8.46
841.654	7.72
841.959	7.99
842.265	8.5
842.57	8.58
842.875	7.89
843.18	8.3
843.485	8.87
843.79	8.71
844.095	7.35
844.4	7.5
844.705	5.86
845.01	5.53
845.315	6.24
845.619	6.93
845.924	7.34
846.229	8.17
846.533	7.85
846.838	8.25
847.142	5.88
847.447	5.4
847.751	5.87
848.056	5.96
848.36	7.06
848.664	6.04
848.969	5.39
849.273	3.87
849.577	4.3
849.881	2.11
850.185	2.73
850.489	3.48
850.794	2.18
851.097	4.24
851.401	3.54
851.705	1.71
852.009	3.82
852.313	3.77
852.617	1.49
852.92	2.35
853.224	1.91
853.528	4.48
853.831	4.68
854.135	5.13
854.438	6.57
854.742	6.8
855.045	6.5
855.349	6.93
855.652	8.12
855.955	6.99
856.259	7.58
856.562	6.39
856.865	8.55
857.168	8.25
857.471	6.7
857.774	7.94
858.077	11.05
858.38	8.19
858.683	7.72
858.986	10.29
859.289	9.19
859.592	9.82
859.894	9.51
860.197	9.19
860.5	10.85
860.802	10.44
861.105	8.74
861.407	8.93
861.71	9.6
862.012	11.35
862.315	10.4
862.617	10.46
862.919	10.99
863.222	9.3
863.524	10.18
863.826	11.33
864.128	8.88
864.43	8.08
864.732	8.73
865.034	9.08
865.336	10.05
865.638	9.13
865.94	9.28
866.242	9.48
866.544	10.97
866.846	9.5
867.147	9.77
867.449	10.5
867.751	9.92
868.052	10.53
868.354	9.51
868.655	10.01
868.957	10.78
869.258	10.94
869.56	10.03
869.861	9.36
870.162	9.04
870.463	10.82
870.765	10.04
871.066	9.58
871.367	8.57
871.668	6.77
871.969	7.55
872.27	9.38
872.571	7.97
872.872	9.36
873.173	10.08
873.473	9.02
873.774	7.06
874.075	8.66
874.376	8.06
874.676	9.09
874.977	7.61
875.277	9.19
875.578	7.63
875.878	9.46
876.179	10.49
876.479	10.55
876.78	10.19
877.08	11.19
877.38	11.73
877.68	13.11
877.981	13.01
878.281	14.19
878.581	10.97
