Data from BA28302_Reflection_00007.txt Node
Date: Mon Nov 18 15:48:45 EST 2019
User: vgr7
Spectrometer: USB2G7710
Scans to average: 3
Trigger mode: 4
Integration Time (sec): 2.000000E-2
Electric dark correction enabled: true
Boxcar width: 10
XAxis mode: Wavelengths
Number of Pixels in Spectrum: 2048
>>>>>Begin Spectral Data<<<<<
177.721	-638.68
178.105	68.5
178.488	43.6
178.871	-155.86
179.254	1083.05
179.636	7.89
180.019	-360.25
180.402	106.82
180.785	-274.71
181.168	395.45
181.55	-269.43
181.933	169.79
182.316	117.94
182.698	127.97
183.081	142.8
183.463	307.91
183.846	351.51
184.228	401.5
184.611	261.7
184.993	427.21
185.376	-39900
185.758	3050.5
186.14	-6654.1
186.522	847.73
186.904	1778.23
187.287	1003.34
187.669	784.12
188.051	738.36
188.433	1477.52
188.815	1084.41
189.197	4170.8
189.579	-19500
189.961	8506.78
190.342	1940.3
190.724	-957.57
191.106	4832.67
191.488	425.29
191.869	340.87
192.251	409.17
192.633	4973.24
193.014	1012.18
193.396	555.54
193.777	13272.41
194.159	-5972.73
194.54	-367.68
194.922	-212.44
195.303	-302.79
195.684	-297.78
196.065	-179.74
196.447	-256.64
196.828	-189.17
197.209	-226.72
197.59	-1110.33
197.971	-2120.69
198.352	-193.02
198.733	-573.04
199.114	-185.29
199.495	-110.53
199.876	-100.1
200.257	-111.53
200.638	-76.44
201.018	-98.05
201.399	-110.09
201.78	-85.21
202.16	-111.75
202.541	-178.67
202.922	-559.95
203.302	-499.69
203.683	-336.96
204.063	-438.17
204.444	-738.41
204.824	-4295.6
205.204	-1111.27
205.585	-367.34
205.965	-240.56
206.345	-430.41
206.725	-573.05
207.106	7508.45
207.486	1300.9
207.866	1036.97
208.246	3045.81
208.626	3675.42
209.006	1387.91
209.386	1869.86
209.766	-2418.22
210.145	-1016.45
210.525	-446.11
210.905	-262.44
211.285	-233.16
211.664	-166.18
212.044	-191.17
212.424	-111.64
212.803	-101.71
213.183	-89.99
213.562	-75.51
213.942	-77.81
214.321	-63.61
214.701	-47.16
215.08	-46.05
215.459	-40.48
215.838	-27.11
216.218	-33.69
216.597	-26.8
216.976	-16.83
217.355	5.25
217.734	-11.08
218.113	-5.69
218.492	-0.77
218.871	8.38
219.25	15.76
219.629	15.51
220.008	22.61
220.387	14.03
220.766	26.7
221.144	6.69
221.523	-6.9
221.902	5.38
222.28	6.94
222.659	1.72
223.037	7.34
223.416	12.21
223.794	14.8
224.173	20.53
224.551	13.55
224.929	7.35
225.308	4.72
225.686	4.22
226.064	4.37
226.442	0.06
226.821	4.6
227.199	5.71
227.577	5.61
227.955	5.86
228.333	4.44
228.711	3.69
229.089	4.95
229.467	6.4
229.845	2.86
230.222	3.81
230.6	4.94
230.978	6.26
231.356	7.34
231.733	5.79
232.111	4.68
232.488	5.16
232.866	6.46
233.243	5.28
233.621	6.58
233.998	8.43
234.376	7.87
234.753	6.26
235.13	7.16
235.508	6.47
235.885	5.53
236.262	5.17
236.639	4.14
237.016	4.59
237.393	5.78
237.77	6.04
238.147	5.66
238.524	3.95
238.901	4.02
239.278	4.14
239.655	4.38
240.032	5.38
240.409	5.23
240.785	4.67
241.162	5.23
241.539	4.98
241.915	4.35
242.292	4.24
242.668	4.35
243.045	4.2
243.421	4.67
243.798	4.75
244.174	4.83
244.551	5.31
244.927	5.14
245.303	4.99
245.679	5.15
246.056	5.12
246.432	5.31
246.808	5.2
247.184	5.03
247.56	5.09
247.936	4.73
248.312	4.73
248.688	4.99
249.064	4.81
249.44	4.78
249.815	4.82
250.191	4.97
250.567	4.99
250.943	4.9
251.318	4.73
251.694	4.77
252.069	4.91
252.445	4.7
252.82	4.69
253.196	4.65
253.571	4.3
253.947	4.36
254.322	4.34
254.697	4.42
255.073	4.37
255.448	4.33
255.823	4.54
256.198	4.58
256.573	4.4
256.948	4.46
257.323	4.51
257.698	4.51
258.073	4.64
258.448	4.68
258.823	4.7
259.198	4.69
259.573	4.65
259.948	4.47
260.322	4.45
260.697	4.33
261.072	4.29
261.446	4.28
261.821	4.31
262.195	4.3
262.57	4.15
262.944	4.07
263.319	3.94
263.693	3.91
264.067	3.93
264.442	3.9
264.816	3.81
265.19	3.85
265.564	3.74
265.938	3.67
266.313	3.49
266.687	3.49
267.061	3.73
267.435	3.78
267.809	3.98
268.183	3.97
268.556	4.13
268.93	4.12
269.304	4.19
269.678	4.13
270.051	4.14
270.425	4.4
270.799	4.51
271.172	4.58
271.546	4.52
271.919	4.45
272.293	4.43
272.666	4.55
273.04	4.48
273.413	4.48
273.787	4.38
274.16	4.37
274.533	4.3
274.906	4.02
275.279	3.96
275.653	3.91
276.026	3.88
276.399	3.87
276.772	3.99
277.145	4.01
277.518	3.97
277.891	4.02
278.263	3.75
278.636	3.73
279.009	3.83
279.382	3.89
279.755	3.93
280.127	3.99
280.5	4.04
280.872	4.13
281.245	4.16
281.617	4.33
281.99	4.47
282.362	4.47
282.735	4.46
283.107	4.48
283.479	4.62
283.852	4.64
284.224	4.7
284.596	4.56
284.968	4.53
285.34	4.54
285.713	4.55
286.085	4.6
286.457	4.72
286.829	4.64
287.201	4.66
287.572	4.55
287.944	4.57
288.316	4.59
288.688	4.54
289.06	4.48
289.431	4.41
289.803	4.34
290.175	4.41
290.546	4.58
290.918	4.61
291.289	4.48
291.661	4.56
292.032	4.57
292.403	4.8
292.775	5.04
293.146	5.18
293.517	5.2
293.889	5.37
294.26	5.4
294.631	5.61
295.002	5.6
295.373	5.78
295.744	5.83
296.115	5.96
296.486	5.79
296.857	5.94
297.228	6.01
297.599	6.07
297.97	6.19
298.34	6.27
298.711	6.43
299.082	6.5
299.452	6.58
299.823	6.7
300.194	6.67
300.564	6.64
300.935	6.59
301.305	6.57
301.676	6.64
302.046	6.73
302.416	6.75
302.787	6.76
303.157	6.86
303.527	6.95
303.897	6.87
304.267	7.26
304.637	7.41
305.008	7.51
305.378	7.68
305.748	7.69
306.117	7.73
306.487	7.75
306.857	7.84
307.227	7.95
307.597	8.01
307.967	8.03
308.336	8.08
308.706	8.31
309.076	8.52
309.445	8.44
309.815	8.42
310.184	8.41
310.554	8.57
310.923	8.58
311.293	8.62
311.662	8.64
312.031	8.69
312.401	8.68
312.77	8.71
313.139	8.82
313.508	8.85
313.877	8.92
314.246	8.92
314.616	8.97
314.985	9.03
315.353	9.05
315.722	9.17
316.091	9.14
316.46	9.29
316.829	9.35
317.198	9.47
317.567	9.49
317.935	9.49
318.304	9.6
318.672	9.69
319.041	9.79
319.41	9.92
319.778	9.85
320.147	9.92
320.515	10
320.883	9.95
321.252	10.09
321.62	10.13
321.988	10.15
322.357	10.3
322.725	10.1
323.093	10.15
323.461	10.29
323.829	10.47
324.197	10.43
324.565	10.56
324.933	10.63
325.301	10.76
325.669	10.99
326.037	10.97
326.405	11.03
326.772	11.14
327.14	11.14
327.508	11.3
327.875	11.29
328.243	11.32
328.61	11.41
328.978	11.35
329.346	11.34
329.713	11.48
330.08	11.47
330.448	11.61
330.815	11.77
331.182	11.71
331.55	11.76
331.917	11.84
332.284	11.89
332.651	11.97
333.018	12.03
333.385	11.92
333.752	11.94
334.119	12.02
334.486	11.99
334.853	12.02
335.22	11.95
335.587	12.13
335.954	12.17
336.32	12.12
336.687	12.24
337.054	12.32
337.42	12.26
337.787	12.36
338.153	12.45
338.52	12.49
338.886	12.54
339.253	12.52
339.619	12.54
339.986	12.44
340.352	12.48
340.718	12.42
341.084	12.63
341.451	12.8
341.817	12.79
342.183	12.77
342.549	12.96
342.915	13.06
343.281	13.01
343.647	13.13
344.013	13.26
344.379	13.28
344.745	13.26
345.11	13.4
345.476	13.42
345.842	13.42
346.208	13.41
346.573	13.49
346.939	13.58
347.304	13.48
347.67	13.56
348.035	13.49
348.401	13.53
348.766	13.56
349.132	13.5
349.497	13.62
349.862	13.76
350.228	13.71
350.593	13.68
350.958	13.7
351.323	13.59
351.688	13.46
352.053	13.5
352.418	13.57
352.783	13.5
353.148	13.42
353.513	13.5
353.878	13.44
354.243	13.43
354.608	13.39
354.972	13.51
355.337	13.47
355.702	13.65
356.066	13.77
356.431	13.69
356.795	13.76
357.16	13.68
357.524	13.56
357.889	13.47
358.253	13.58
358.618	13.6
358.982	13.69
359.346	13.72
359.71	13.7
360.075	13.66
360.439	13.72
360.803	13.72
361.167	13.69
361.531	13.68
361.895	13.66
362.259	13.68
362.623	13.71
362.987	13.7
363.351	13.62
363.714	13.51
364.078	13.49
364.442	13.42
364.806	13.41
365.169	13.4
365.533	13.48
365.896	13.42
366.26	13.36
366.623	13.32
366.987	13.32
367.35	13.31
367.714	13.31
368.077	13.26
368.44	13.27
368.803	13.24
369.167	13.24
369.53	13.19
369.893	13.21
370.256	13.1
370.619	13.03
370.982	13.02
371.345	12.98
371.708	12.97
372.071	12.89
372.434	12.84
372.797	12.81
373.159	12.76
373.522	12.71
373.885	12.75
374.247	12.73
374.61	12.63
374.973	12.53
375.335	12.44
375.698	12.38
376.06	12.3
376.423	12.27
376.785	12.25
377.147	12.21
377.51	12.15
377.872	12.08
378.234	12.07
378.596	11.94
378.958	11.86
379.321	11.75
379.683	11.74
380.045	11.66
380.407	11.62
380.769	11.49
381.13	11.42
381.492	11.3
381.854	11.21
382.216	11.15
382.578	11.13
382.939	11.05
383.301	11
383.663	10.93
384.024	10.82
384.386	10.8
384.747	10.7
385.109	10.57
385.47	10.55
385.832	10.56
386.193	10.59
386.554	10.57
386.916	10.51
387.277	10.42
387.638	10.43
387.999	10.37
388.36	10.38
388.721	10.27
389.082	10.22
389.443	10.16
389.804	10.16
390.165	10.08
390.526	10.04
390.887	10.01
391.248	10.03
391.609	10.05
391.969	9.98
392.33	10.01
392.691	10.01
393.051	9.94
393.412	9.83
393.772	9.74
394.133	9.65
394.493	9.62
394.854	9.58
395.214	9.49
395.574	9.44
395.935	9.37
396.295	9.39
396.655	9.33
397.015	9.27
397.376	9.21
397.736	9.15
398.096	9.11
398.456	9.03
398.816	8.92
399.176	8.8
399.535	8.69
399.895	8.57
400.255	8.51
400.615	8.4
400.975	8.35
401.334	8.31
401.694	8.28
402.054	8.25
402.413	8.24
402.773	8.18
403.132	8.1
403.492	8.06
403.851	7.99
404.211	7.98
404.57	7.95
404.929	7.86
405.288	7.83
405.648	7.8
406.007	7.77
406.366	7.77
406.725	7.76
407.084	7.79
407.443	7.77
407.802	7.74
408.161	7.76
408.52	7.74
408.879	7.67
409.238	7.65
409.596	7.6
409.955	7.56
410.314	7.57
410.673	7.58
411.031	7.56
411.39	7.54
411.748	7.51
412.107	7.5
412.465	7.51
412.824	7.51
413.182	7.46
413.54	7.43
413.899	7.4
414.257	7.33
414.615	7.24
414.974	7.23
415.332	7.19
415.69	7.15
416.048	7.14
416.406	7.12
416.764	7.1
417.122	7.11
417.48	7.06
417.838	7.02
418.195	6.98
418.553	6.97
418.911	6.96
419.269	6.92
419.626	6.87
419.984	6.83
420.342	6.79
420.699	6.76
421.057	6.75
421.414	6.72
421.772	6.7
422.129	6.7
422.486	6.67
422.844	6.65
423.201	6.62
423.558	6.57
423.915	6.55
424.273	6.53
424.63	6.47
424.987	6.45
425.344	6.41
425.701	6.39
426.058	6.34
426.415	6.3
426.772	6.29
427.128	6.25
427.485	6.23
427.842	6.21
428.199	6.21
428.555	6.17
428.912	6.16
429.269	6.16
429.625	6.12
429.982	6.1
430.338	6.08
430.695	6.11
431.051	6.1
431.407	6.11
431.764	6.09
432.12	6.1
432.476	6.1
432.832	6.11
433.189	6.08
433.545	6.1
433.901	6.06
434.257	6.03
434.613	6.04
434.969	6.05
435.325	6.06
435.681	6.02
436.036	6.01
436.392	6.02
436.748	6
437.104	6.01
437.459	6
437.815	6.02
438.171	6
438.526	6
438.882	5.99
439.237	6
439.593	5.99
439.948	5.97
440.304	5.96
440.659	5.98
441.014	5.97
441.369	5.99
441.725	5.98
442.08	5.98
442.435	5.97
442.79	5.95
443.145	5.97
443.5	5.96
443.855	5.95
444.21	5.93
444.565	5.94
444.92	5.93
445.275	5.91
445.629	5.89
445.984	5.87
446.339	5.86
446.693	5.83
447.048	5.82
447.403	5.82
447.757	5.8
448.112	5.77
448.466	5.74
448.82	5.72
449.175	5.73
449.529	5.71
449.883	5.7
450.238	5.67
450.592	5.65
450.946	5.62
451.3	5.6
451.654	5.59
452.008	5.56
452.362	5.53
452.716	5.51
453.07	5.51
453.424	5.49
453.778	5.49
454.132	5.47
454.486	5.45
454.839	5.43
455.193	5.44
455.547	5.44
455.9	5.43
456.254	5.45
456.607	5.47
456.961	5.47
457.314	5.46
457.668	5.46
458.021	5.46
458.375	5.48
458.728	5.48
459.081	5.48
459.434	5.47
459.787	5.5
460.141	5.48
460.494	5.48
460.847	5.48
461.2	5.49
461.553	5.5
461.906	5.53
462.259	5.55
462.611	5.56
462.964	5.57
463.317	5.59
463.67	5.59
464.022	5.58
464.375	5.59
464.728	5.61
465.08	5.64
465.433	5.67
465.785	5.67
466.138	5.68
466.49	5.7
466.843	5.73
467.195	5.75
467.547	5.79
467.899	5.8
468.252	5.81
468.604	5.81
468.956	5.84
469.308	5.84
469.66	5.85
470.012	5.85
470.364	5.88
470.716	5.88
471.068	5.88
471.42	5.89
471.772	5.91
472.123	5.94
472.475	5.94
472.827	5.94
473.178	5.99
473.53	6.02
473.882	6.01
474.233	6.01
474.585	5.99
474.936	5.99
475.288	5.99
475.639	6.02
475.99	6.04
476.342	6.01
476.693	6.01
477.044	6.02
477.395	6.02
477.746	6.03
478.097	6.01
478.448	6.05
478.8	6.06
479.15	6.04
479.501	6.04
479.852	6.06
480.203	6.06
480.554	6.05
480.905	6.05
481.255	6.07
481.606	6.08
481.957	6.09
482.307	6.1
482.658	6.1
483.009	6.1
483.359	6.1
483.709	6.1
484.06	6.11
484.41	6.11
484.761	6.1
485.111	6.09
485.461	6.1
485.811	6.09
486.162	6.07
486.512	6.07
486.862	6.07
487.212	6.06
487.562	6.05
487.912	6.04
488.262	6.03
488.612	6.03
488.961	6.02
489.311	6.02
489.661	6.01
490.011	6.01
490.36	6
490.71	5.99
491.06	6.01
491.409	6.01
491.759	6.01
492.108	6.01
492.458	6.03
492.807	6.03
493.157	6.06
493.506	6.1
493.855	6.11
494.204	6.11
494.554	6.13
494.903	6.15
495.252	6.18
495.601	6.21
495.95	6.24
496.299	6.26
496.648	6.29
496.997	6.32
497.346	6.36
497.695	6.43
498.043	6.47
498.392	6.49
498.741	6.51
499.09	6.56
499.438	6.61
499.787	6.68
500.135	6.73
500.484	6.75
500.832	6.8
501.181	6.88
501.529	6.94
501.878	7.02
502.226	7.1
502.574	7.18
502.923	7.24
503.271	7.31
503.619	7.38
503.967	7.47
504.315	7.55
504.663	7.61
505.011	7.66
505.359	7.74
505.707	7.82
506.055	7.92
506.403	7.99
506.751	8.07
507.098	8.11
507.446	8.19
507.794	8.29
508.141	8.36
508.489	8.41
508.837	8.5
509.184	8.58
509.531	8.63
509.879	8.69
510.226	8.79
510.574	8.84
510.921	8.93
511.268	8.98
511.616	9.07
511.963	9.16
512.31	9.23
512.657	9.32
513.004	9.4
513.351	9.5
513.698	9.61
514.045	9.7
514.392	9.82
514.739	9.9
515.086	10
515.432	10.12
515.779	10.23
516.126	10.31
516.473	10.36
516.819	10.48
517.166	10.59
517.512	10.66
517.859	10.76
518.205	10.82
518.552	10.92
518.898	10.99
519.245	11.08
519.591	11.17
519.937	11.25
520.283	11.36
520.629	11.46
520.976	11.55
521.322	11.64
521.668	11.75
522.014	11.88
522.36	11.99
522.706	12.1
523.052	12.23
523.398	12.38
523.743	12.54
524.089	12.68
524.435	12.84
524.781	12.98
525.126	13.14
525.472	13.24
525.817	13.35
526.163	13.45
526.509	13.55
526.854	13.65
527.199	13.75
527.545	13.83
527.89	13.91
528.235	13.99
528.581	14.11
528.926	14.2
529.271	14.3
529.616	14.4
529.961	14.49
530.306	14.6
530.651	14.7
530.996	14.83
531.341	14.96
531.686	15.07
532.031	15.22
532.376	15.33
532.721	15.49
533.065	15.65
533.41	15.81
533.755	15.96
534.099	16.12
534.444	16.3
534.788	16.49
535.133	16.67
535.477	16.85
535.822	17.04
536.166	17.25
536.51	17.47
536.855	17.72
537.199	18.01
537.543	18.27
537.887	18.56
538.231	18.8
538.576	19.04
538.92	19.31
539.264	19.56
539.608	19.8
539.951	20.03
540.295	20.28
540.639	20.5
540.983	20.73
541.327	20.97
541.671	21.17
542.014	21.38
542.358	21.61
542.701	21.84
543.045	22.06
543.389	22.3
543.732	22.53
544.075	22.78
544.419	23.01
544.762	23.23
545.105	23.49
545.449	23.77
545.792	24.1
546.135	24.43
546.478	24.74
546.821	25.08
547.165	25.45
547.508	25.78
547.851	26.16
548.194	26.52
548.536	26.89
548.879	27.29
549.222	27.7
549.565	28.08
549.908	28.47
550.25	28.84
550.593	29.21
550.936	29.62
551.278	30.01
551.621	30.43
551.963	30.89
552.306	31.3
552.648	31.73
552.991	32.12
553.333	32.47
553.675	32.86
554.017	33.29
554.36	33.65
554.702	34
555.044	34.39
555.386	34.77
555.728	35.17
556.07	35.56
556.412	35.94
556.754	36.35
557.096	36.73
557.438	37.24
557.78	37.68
558.121	38.13
558.463	38.54
558.805	38.93
559.147	39.36
559.488	39.72
559.83	40.1
560.171	40.47
560.513	40.93
560.854	41.35
561.196	41.72
561.537	42.11
561.878	42.54
562.22	42.94
562.561	43.31
562.902	43.69
563.243	44.06
563.584	44.4
563.925	44.71
564.266	45.07
564.607	45.38
564.948	45.72
565.289	46.06
565.63	46.38
565.971	46.71
566.312	47
566.653	47.35
566.993	47.71
567.334	48.04
567.675	48.33
568.015	48.66
568.356	48.99
568.696	49.33
569.037	49.63
569.377	49.89
569.718	50.2
570.058	50.51
570.398	50.77
570.739	51.07
571.079	51.38
571.419	51.69
571.759	51.96
572.099	52.25
572.439	52.48
572.779	52.75
573.119	53.03
573.459	53.24
573.799	53.44
574.139	53.67
574.479	53.84
574.819	54.04
575.158	54.24
575.498	54.44
575.838	54.65
576.177	54.82
576.517	55.05
576.856	55.31
577.196	55.47
577.535	55.68
577.875	55.96
578.214	56.19
578.553	56.41
578.893	56.64
579.232	56.83
579.571	57.04
579.91	57.19
580.25	57.31
580.589	57.59
580.928	57.81
581.267	58
581.606	58.32
581.945	58.51
582.283	58.6
582.622	58.81
582.961	58.92
583.3	59.15
583.639	59.36
583.977	59.5
584.316	59.66
584.654	59.91
584.993	60.05
585.332	60.2
585.67	60.32
586.008	60.43
586.347	60.48
586.685	60.72
587.024	60.84
587.362	60.99
587.7	61.17
588.038	61.37
588.376	61.48
588.715	61.57
589.053	61.69
589.391	61.89
589.729	62.03
590.067	62.22
590.404	62.36
590.742	62.44
591.08	62.57
591.418	62.75
591.756	62.78
592.093	62.89
592.431	63
592.769	63.09
593.106	63.2
593.444	63.39
593.781	63.48
594.119	63.63
594.456	63.77
594.793	63.76
595.131	63.72
595.468	63.83
595.805	63.9
596.143	64.03
596.48	64.16
596.817	64.27
597.154	64.3
597.491	64.41
597.828	64.53
598.165	64.63
598.502	64.72
598.839	64.91
599.176	65.01
599.512	65.11
599.849	65.22
600.186	65.33
600.523	65.41
600.859	65.47
601.196	65.57
601.532	65.72
601.869	65.86
602.205	66.05
602.542	66.16
602.878	66.22
603.215	66.25
603.551	66.31
603.887	66.25
604.223	66.25
604.56	66.18
604.896	66.25
605.232	66.27
605.568	66.34
605.904	66.36
606.24	66.45
606.576	66.57
606.912	66.62
607.248	66.63
607.583	66.71
607.919	66.79
608.255	66.86
608.591	66.8
608.926	66.8
609.262	66.84
609.597	66.81
609.933	66.93
610.268	67.05
610.604	67.08
610.939	67.16
611.275	67.32
611.61	67.49
611.945	67.56
612.281	67.6
612.616	67.59
612.951	67.59
613.286	67.63
613.621	67.63
613.956	67.76
614.291	67.96
614.626	68.03
614.961	68.09
615.296	68.17
615.631	68.27
615.966	68.34
616.3	68.37
616.635	68.41
616.97	68.4
617.304	68.47
617.639	68.49
617.973	68.62
618.308	68.73
618.642	68.79
618.977	68.74
619.311	68.8
619.646	68.89
619.98	68.99
620.314	68.99
620.648	69.02
620.983	69
621.317	68.97
621.651	68.96
621.985	68.94
622.319	69.06
622.653	69.05
622.987	69.14
623.321	69.21
623.655	69.31
623.988	69.33
624.322	69.33
624.656	69.41
624.99	69.45
625.323	69.4
625.657	69.48
625.99	69.46
626.324	69.45
626.657	69.48
626.991	69.49
627.324	69.53
627.658	69.58
627.991	69.64
628.324	69.66
628.657	69.78
628.991	69.78
629.324	69.75
629.657	69.79
629.99	69.73
630.323	69.75
630.656	69.8
630.989	69.82
631.322	69.84
631.655	69.75
631.987	69.74
632.32	69.76
632.653	69.75
632.986	69.86
633.318	69.93
633.651	69.91
633.984	69.94
634.316	69.92
634.649	69.97
634.981	69.9
635.313	69.88
635.646	69.85
635.978	69.87
636.31	69.85
636.643	69.93
636.975	70.16
637.307	70.22
637.639	70.17
637.971	70.21
638.303	70.15
638.635	70.26
638.967	70.37
639.299	70.48
639.631	70.47
639.963	70.46
640.295	70.38
640.626	70.42
640.958	70.43
641.29	70.37
641.621	70.32
641.953	70.43
642.285	70.44
642.616	70.42
642.948	70.45
643.279	70.43
643.61	70.38
643.942	70.33
644.273	70.27
644.604	70.3
644.936	70.27
645.267	70.3
645.598	70.29
645.929	70.18
646.26	70.14
646.591	70.12
646.922	70.04
647.253	70.14
647.584	70.24
647.915	70.34
648.245	70.56
648.576	70.6
648.907	70.62
649.238	70.63
649.568	70.64
649.899	70.66
650.229	70.68
650.56	70.77
650.89	70.78
651.221	70.9
651.551	70.98
651.882	71.02
652.212	70.98
652.542	71.03
652.872	71.13
653.203	71.27
653.533	71.31
653.863	71.49
654.193	71.53
654.523	71.51
654.853	71.41
655.183	71.37
655.513	71.36
655.843	71.35
656.172	71.37
656.502	71.4
656.832	71.46
657.162	71.47
657.491	71.46
657.821	71.45
658.15	71.3
658.48	71.35
658.809	71.47
659.139	71.66
659.468	71.73
659.798	71.75
660.127	71.59
660.456	71.58
660.785	71.49
661.115	71.52
661.444	71.49
661.773	71.54
662.102	71.49
662.431	71.56
662.76	71.48
663.089	71.5
663.418	71.5
663.747	71.39
664.076	71.42
664.404	71.53
664.733	71.5
665.062	71.71
665.39	71.65
665.719	71.44
666.048	71.38
666.376	71.33
666.705	71.33
667.033	71.41
667.362	71.47
667.69	71.51
668.018	71.46
668.347	71.58
668.675	71.62
669.003	71.63
669.331	71.68
669.659	71.8
669.987	71.77
670.315	71.7
670.643	71.67
670.971	71.59
671.299	71.39
671.627	71.41
671.955	71.25
672.283	71.28
672.61	71.42
672.938	71.25
673.266	71.37
673.593	71.38
673.921	71.35
674.249	71.25
674.576	71.35
674.904	71.39
675.231	71.35
675.558	71.22
675.886	71.32
676.213	71.45
676.54	71.63
676.867	71.67
677.195	71.78
677.522	72.09
677.849	72.24
678.176	72.39
678.503	72.2
678.83	72.18
679.157	72.19
679.484	72.32
679.81	72.48
680.137	72.4
680.464	72.43
680.791	72.52
681.117	72.58
681.444	72.6
681.771	72.66
682.097	72.54
682.424	72.65
682.75	72.57
683.077	72.44
683.403	72.26
683.729	72.32
684.056	72.47
684.382	72.37
684.708	72.37
685.034	72.38
685.36	72.68
685.686	72.88
686.012	72.76
686.339	72.73
686.664	72.78
686.99	72.77
687.316	72.86
687.642	72.95
687.968	73.11
688.294	73.02
688.619	72.91
688.945	72.93
689.271	73.01
689.596	72.98
689.922	73
690.247	73.09
690.573	73.04
690.898	72.82
691.224	72.71
691.549	72.81
691.874	72.79
692.2	72.76
692.525	72.56
692.85	72.71
693.175	72.51
693.5	72.47
693.825	72.52
694.15	72.48
694.475	72.15
694.8	72.08
695.125	72.1
695.45	72.15
695.775	72.21
696.099	72.23
696.424	72.45
696.749	72.33
697.073	72.38
697.398	72.39
697.723	72.53
698.047	72.67
698.372	72.39
698.696	72.34
699.02	72.3
699.345	72.38
699.669	72.34
699.993	72.48
700.318	72.33
700.642	72.25
700.966	72.15
701.29	72.33
701.614	72.39
701.938	72.5
702.262	72.62
702.586	72.59
702.91	72.58
703.234	72.5
703.557	72.67
703.881	72.54
704.205	72.53
704.529	72.45
704.852	72.47
705.176	72.71
705.499	72.75
705.823	72.64
706.146	72.91
706.47	72.85
706.793	72.75
707.117	72.96
707.44	73.15
707.763	73.27
708.086	73.28
708.409	73.13
708.733	72.89
709.056	72.58
709.379	72.74
709.702	72.74
710.025	72.66
710.348	72.64
710.671	72.78
710.993	72.92
711.316	72.91
711.639	72.8
711.962	72.87
712.284	72.87
712.607	72.75
712.93	72.43
713.252	72.58
713.575	72.68
713.897	72.71
714.22	72.67
714.542	72.58
714.864	72.66
715.187	72.66
715.509	72.72
715.831	72.9
716.153	72.81
716.475	72.6
716.798	72.63
717.12	72.54
717.442	72.64
717.764	72.4
718.085	72.34
718.407	72.45
718.729	72.35
719.051	72.57
719.373	72.88
719.695	73.08
720.016	73.05
720.338	72.93
720.659	72.83
720.981	72.83
721.302	72.91
721.624	72.92
721.945	72.86
722.267	72.92
722.588	72.81
722.909	72.87
723.231	73.04
723.552	73.05
723.873	73.28
724.194	73.15
724.515	73.27
724.836	73.31
725.157	73.23
725.478	73
725.799	72.82
726.12	72.72
726.441	72.75
726.762	72.79
727.083	72.86
727.403	72.88
727.724	72.98
728.045	72.91
728.365	72.93
728.686	73.28
729.006	73.38
729.327	73.64
729.647	73.68
729.967	73.65
730.288	73.99
730.608	73.73
730.928	73.8
731.249	73.91
731.569	74.16
731.889	74.38
732.209	74.53
732.529	74.47
732.849	74.58
733.169	74.55
733.489	74.39
733.809	74.42
734.129	74.72
734.448	74.5
734.768	74.44
735.088	74.22
735.408	73.93
735.727	73.9
736.047	73.65
736.366	73.71
736.686	73.58
737.005	73.28
737.325	73.5
737.644	73.3
737.963	73.14
738.283	72.88
738.602	72.72
738.921	72.99
739.24	72.98
739.56	73.04
739.879	73
740.198	73.18
740.517	73.12
740.836	72.92
741.155	73.01
741.473	73.17
741.792	73.4
742.111	73.55
742.43	73.67
742.748	73.63
743.067	73.74
743.386	74.2
743.704	74.48
744.023	74.26
744.341	74.45
744.66	74.56
744.978	74.55
745.297	74.45
745.615	74.36
745.933	74.39
746.252	74.33
746.57	74.62
746.888	74.69
747.206	74.87
747.524	74.68
747.842	74.7
748.16	74.72
748.478	74.81
748.796	74.72
749.114	74.65
749.432	74.85
749.749	74.55
750.067	74.12
750.385	73.96
750.703	73.89
751.02	73.93
751.338	73.83
751.655	73.84
751.973	73.69
752.29	73.58
752.608	73.95
752.925	74.03
753.242	73.76
753.56	73.51
753.877	73.4
754.194	73.6
754.511	73.47
754.828	73.51
755.145	73.24
755.462	73.31
755.779	73.28
756.096	73.55
756.413	73.64
756.73	74.06
757.047	73.95
757.364	74.02
757.68	74.03
757.997	74.12
758.314	74.01
758.63	74.48
758.947	74.52
759.264	74.22
759.58	73.78
759.896	73.82
760.213	73.62
760.529	73.45
760.846	73.42
761.162	73.68
761.478	73.42
761.794	73.68
762.11	73.62
762.426	73.36
762.743	73.3
763.059	73.57
763.375	73.5
763.69	73.52
764.006	73.64
764.322	73.57
764.638	73.65
764.954	73.94
765.27	73.82
765.585	73.83
765.901	73.92
766.216	74.17
766.532	74.14
766.848	74.48
767.163	74.76
767.478	74.88
767.794	74.72
768.109	74.98
768.424	74.63
768.74	74.69
769.055	75.16
769.37	75.05
769.685	74.48
770	74.65
770.315	74.99
770.63	75.28
770.945	75.3
771.26	75.34
771.575	75.15
771.89	74.82
772.205	74.68
772.52	74.57
772.834	74.71
773.149	74.69
773.464	74.63
773.778	74.26
774.093	74.18
774.407	74.4
774.722	74.28
775.036	74.72
775.351	74.76
775.665	74.74
775.979	74.6
776.293	75.32
776.608	74.89
776.922	74.34
777.236	74.24
777.55	74.13
777.864	73.9
778.178	74.28
778.492	74.18
778.806	74.09
779.12	74.39
779.434	73.99
779.747	73.64
780.061	74.06
780.375	73.94
780.689	74.01
781.002	73.71
781.316	73.64
781.629	74.03
781.943	73.9
782.256	73.77
782.57	73.53
782.883	72.94
783.196	73.12
783.51	72.98
783.823	72.37
784.136	72.44
784.449	72.57
784.762	72.37
785.075	72.22
785.388	72.49
785.701	71.77
786.014	71.85
786.327	71.85
786.64	71.76
786.953	72.46
787.266	72
787.578	71.9
787.891	71.84
788.204	71.27
788.516	71.45
788.829	71.5
789.141	71.63
789.454	71.87
789.766	71.85
790.079	72.39
790.391	72.28
790.703	72.43
791.016	72.55
791.328	72.33
791.64	72.84
791.952	73.09
792.264	72.83
792.576	72.88
792.888	72.98
793.2	73.35
793.512	73.18
793.824	73.33
794.136	73.26
794.448	73.43
794.76	73.85
795.071	73.59
795.383	73.37
795.695	73.58
796.006	73.54
796.318	73.81
796.629	73.32
796.941	73.57
797.252	73.38
797.564	73.26
797.875	73.34
798.186	73.36
798.497	73.89
798.809	74.88
799.12	75.1
799.431	75.82
799.742	74.83
800.053	74.2
800.364	74.28
800.675	75.14
800.986	75.04
801.297	74.82
801.608	74.91
801.918	74.94
802.229	75.07
802.54	74.65
802.851	73.85
803.161	74.21
803.472	74.52
803.782	74.88
804.093	74.94
804.403	74.37
804.714	74.28
805.024	72.83
805.334	72.26
805.645	72.21
805.955	71.64
806.265	71.72
806.575	72.15
806.885	71.57
807.195	70.96
807.505	71.41
807.815	71.22
808.125	71.57
808.435	72.14
808.745	71.89
809.055	72.39
809.365	73.18
809.674	72.39
809.984	72.51
810.294	72.36
810.603	71.83
810.913	72.78
811.222	73.07
811.532	73.84
811.841	74.19
812.151	73.71
812.46	73.62
812.769	73.73
813.079	73.64
813.388	74.92
813.697	75.18
814.006	74.86
814.315	75.06
814.624	74.69
814.933	74.31
815.242	73.99
815.551	74
815.86	73.79
816.169	74.92
816.478	74.42
816.786	74.31
817.095	74.82
817.404	74.04
817.712	72.99
818.021	72.93
818.33	72.87
818.638	73.2
818.947	73.15
819.255	73.54
819.563	73.47
819.872	73.61
820.18	74.12
820.488	74.09
820.796	74.04
821.105	74.2
821.413	74.25
821.721	74.61
822.029	74.6
822.337	74.61
822.645	74.59
822.953	74.67
823.26	74.86
823.568	74.88
823.876	74.87
824.184	75.24
824.491	75.17
824.799	75.2
825.107	75.29
825.414	75.36
825.722	75.4
826.029	75.56
826.337	75.51
826.644	75.19
826.951	75.15
827.259	75.08
827.566	75.16
827.873	75.23
828.18	75.28
828.488	75.27
828.795	75.44
829.102	75.28
829.409	75.45
829.716	74.96
830.023	74.94
830.329	75.04
830.636	75.05
830.943	74.97
831.25	74.87
831.557	74.7
831.863	74.99
832.17	74.6
832.476	74.73
832.783	74.81
833.089	75.17
833.396	75.4
833.702	75.51
834.009	75.23
834.315	75.38
834.621	74.44
834.928	73.91
835.234	73.92
835.54	73.99
835.846	73.64
836.152	73.5
836.458	73.6
836.764	73.69
837.07	73.09
837.376	73.32
837.682	73.44
837.988	73.23
838.293	72.56
838.599	72.37
838.905	71.52
839.211	71.2
839.516	70.79
839.822	70.8
840.127	70.58
840.433	70.37
840.738	70.08
841.044	71.15
841.349	71.49
841.654	70.21
841.959	70.12
842.265	70.2
842.57	71.39
842.875	70.18
843.18	69.26
843.485	68.8
843.79	68.44
844.095	67.46
844.4	68.17
844.705	67.76
845.01	67.76
845.315	68.28
845.619	68.39
845.924	67.02
846.229	67.84
846.533	66.91
846.838	66.36
847.142	65.15
847.447	64.47
847.751	65.88
848.056	66.6
848.36	65.08
848.664	65.5
848.969	64.52
849.273	64.72
849.577	66.15
849.881	65.59
850.185	65.44
850.489	67
850.794	65.25
851.097	66.58
851.401	67.09
851.705	66.53
852.009	66.5
852.313	67.67
852.617	65.11
852.92	67.09
853.224	66.69
853.528	67.29
853.831	66.98
854.135	67.16
854.438	67.46
854.742	68.24
855.045	67.66
855.349	66.91
855.652	69.75
855.955	70.88
856.259	73.21
856.562	73.83
856.865	72.59
857.168	72.02
857.471	70.64
857.774	70.9
858.077	70.41
858.38	70.64
858.683	72.09
858.986	74.03
859.289	71.97
859.592	74.87
859.894	75.35
860.197	73.96
860.5	72.39
860.802	72.89
861.105	75.27
861.407	73.57
861.71	77.56
862.012	74.9
862.315	73.32
862.617	73.91
862.919	73.02
863.222	73.53
863.524	75.57
863.826	77.41
864.128	77.43
864.43	77.13
864.732	75.97
865.034	71.59
865.336	70.08
865.638	71.33
865.94	68.87
866.242	68.19
866.544	71.69
866.846	70.19
867.147	67.1
867.449	65.3
867.751	67.57
868.052	62.44
868.354	63.43
868.655	62.29
868.957	61.58
869.258	61.7
869.56	60.9
869.861	60.88
870.162	60.58
870.463	62.92
870.765	62.75
871.066	64.41
871.367	67.2
871.668	67.72
871.969	68.66
872.27	65.09
872.571	66.07
872.872	67.12
873.173	69.02
873.473	71.08
873.774	72
874.075	74
874.376	77.19
874.676	75.76
874.977	79.13
875.277	77.21
875.578	77.25
875.878	79
876.179	79.13
876.479	79.8
876.78	77.1
877.08	80.36
877.38	77.75
877.68	78.3
877.981	78.87
878.281	77.06
878.581	85.9
