Data from BA28306_Reflection_00006.txt Node
Date: Mon Nov 18 15:53:40 EST 2019
User: vgr7
Spectrometer: USB2G7710
Scans to average: 3
Trigger mode: 4
Integration Time (sec): 2.000000E-2
Electric dark correction enabled: true
Boxcar width: 10
XAxis mode: Wavelengths
Number of Pixels in Spectrum: 2048
>>>>>Begin Spectral Data<<<<<
177.721	-1773.79
178.105	-212.1
178.488	-487.56
178.871	-433.02
179.254	-702.2
179.636	110.2
180.019	-140.77
180.402	68.18
180.785	25.18
181.168	143.67
181.55	106.88
181.933	100.72
182.316	117.77
182.698	160.33
183.081	180.5
183.463	439.59
183.846	1384.26
184.228	-1297.79
184.611	-2726.09
184.993	-448.16
185.376	-310.89
185.758	-811.98
186.14	-500.58
186.522	-362.95
186.904	-307.55
187.287	-283.9
187.669	-220.75
188.051	-232.11
188.433	-181.35
188.815	-205.58
189.197	-189.53
189.579	-211.55
189.961	-161.73
190.342	-112.64
190.724	-59.04
191.106	-69.56
191.488	-42.37
191.869	-34.58
192.251	-102.76
192.633	-66.54
193.014	-161.61
193.396	-138.42
193.777	-106.09
194.159	-100.73
194.54	-110.46
194.922	-117.8
195.303	-150.31
195.684	-123.11
196.065	-113.92
196.447	-104.36
196.828	-159.42
197.209	-151.27
197.59	-170.82
197.971	-197.56
198.352	-137.32
198.733	-307.14
199.114	-184.6
199.495	-124.07
199.876	-106.13
200.257	-107.83
200.638	-59.41
201.018	-55.02
201.399	-58.99
201.78	-32.45
202.16	-2.28
202.541	-10.63
202.922	-33.37
203.302	-15.16
203.683	-78.54
204.063	-150.84
204.444	-169.47
204.824	-127.1
205.204	-120.16
205.585	-123.6
205.965	-93.4
206.345	-145.73
206.725	-98.35
207.106	-140.02
207.486	-282.17
207.866	-230.01
208.246	-168.46
208.626	-231.31
209.006	-108.57
209.386	-130.29
209.766	-136.77
210.145	-170.87
210.525	-145.06
210.905	-130.56
211.285	-97.58
211.664	-74.64
212.044	-50.63
212.424	-47.39
212.803	-44.43
213.183	-48.04
213.562	-43.43
213.942	-42.11
214.321	-35.35
214.701	-37.37
215.08	-37.46
215.459	-27.7
215.838	-31.75
216.218	-41.04
216.597	-37.85
216.976	-51.34
217.355	-31.77
217.734	-35.43
218.113	-23.78
218.492	-22.02
218.871	-23.9
219.25	-17.91
219.629	-28.56
220.008	-40.61
220.387	-20.28
220.766	-32.22
221.144	-62.52
221.523	-64.7
221.902	-62.23
222.28	-71.71
222.659	-62.54
223.037	-63.91
223.416	-69.09
223.794	-80.87
224.173	-69.8
224.551	-59.76
224.929	-66.33
225.308	-68.56
225.686	-45.83
226.064	-35.72
226.442	-28.77
226.821	-22.51
227.199	-20.07
227.577	-21.91
227.955	-19.55
228.333	-22.87
228.711	-15.83
229.089	-4.3
229.467	-6.55
229.845	-4.67
230.222	-2.35
230.6	-4.82
230.978	-3.73
231.356	-0.85
231.733	0.36
232.111	-0.55
232.488	2.38
232.866	4.21
233.243	3.81
233.621	1.79
233.998	1.72
234.376	-0.06
234.753	-1.18
235.13	-0.76
235.508	1.53
235.885	2.13
236.262	1.22
236.639	0.53
237.016	-0.5
237.393	1.95
237.77	2.02
238.147	2.46
238.524	3.73
238.901	3.64
239.278	4.38
239.655	4.66
240.032	5.06
240.409	4.52
240.785	4.25
241.162	4.26
241.539	4.52
241.915	4.56
242.292	4.49
242.668	4.43
243.045	4.21
243.421	4
243.798	3.86
244.174	3.99
244.551	4.11
244.927	3.93
245.303	3.89
245.679	4.09
246.056	4.18
246.432	4.08
246.808	4.26
247.184	4.01
247.56	3.99
247.936	3.95
248.312	3.96
248.688	3.82
249.064	3.74
249.44	3.59
249.815	3.55
250.191	3.75
250.567	3.8
250.943	3.72
251.318	3.85
251.694	3.83
252.069	3.66
252.445	3.76
252.82	3.94
253.196	3.64
253.571	3.39
253.947	3.16
254.322	3.04
254.697	3.11
255.073	2.75
255.448	2.62
255.823	2.67
256.198	2.78
256.573	2.97
256.948	3.38
257.323	3.75
257.698	3.78
258.073	3.73
258.448	3.69
258.823	3.74
259.198	3.73
259.573	3.84
259.948	3.98
260.322	4.05
260.697	3.94
261.072	3.81
261.446	3.73
261.821	3.73
262.195	3.83
262.57	3.75
262.944	3.88
263.319	3.9
263.693	3.75
264.067	3.65
264.442	3.58
264.816	3.2
265.19	2.95
265.564	2.89
265.938	2.65
266.313	2.6
266.687	2.61
267.061	2.69
267.435	2.7
267.809	2.76
268.183	2.53
268.556	2.64
268.93	2.93
269.304	2.99
269.678	3.17
270.051	3.13
270.425	3.17
270.799	3.09
271.172	3.24
271.546	3.33
271.919	3.39
272.293	3.46
272.666	3.62
273.04	3.75
273.413	3.83
273.787	4.04
274.16	4.05
274.533	4.1
274.906	4.06
275.279	4.07
275.653	3.97
276.026	3.93
276.399	3.96
276.772	3.96
277.145	3.93
277.518	3.6
277.891	3.68
278.263	3.53
278.636	3.74
279.009	3.53
279.382	3.72
279.755	3.71
280.127	3.73
280.5	3.92
280.872	4
281.245	3.91
281.617	3.96
281.99	4.1
282.362	3.99
282.735	3.84
283.107	3.78
283.479	3.75
283.852	3.81
284.224	3.93
284.596	4.03
284.968	4.08
285.34	4.29
285.713	4.24
286.085	4.42
286.457	4.47
286.829	4.66
287.201	4.58
287.572	4.53
287.944	4.45
288.316	4.26
288.688	4.22
289.06	4.22
289.431	4.21
289.803	4.28
290.175	4.49
290.546	4.63
290.918	4.58
291.289	4.69
291.661	4.75
292.032	4.76
292.403	4.74
292.775	4.84
293.146	4.79
293.517	4.8
293.889	4.79
294.26	4.72
294.631	4.54
295.002	4.51
295.373	4.59
295.744	4.74
296.115	4.73
296.486	4.57
296.857	4.48
297.228	4.5
297.599	4.38
297.97	4.26
298.34	4.26
298.711	4.44
299.082	4.35
299.452	4.4
299.823	4.37
300.194	4.19
300.564	4.12
300.935	4.19
301.305	4.11
301.676	4.09
302.046	4.06
302.416	4.26
302.787	4.31
303.157	4.23
303.527	4.16
303.897	4.3
304.267	4.55
304.637	4.77
305.008	4.74
305.378	4.76
305.748	4.8
306.117	4.75
306.487	4.58
306.857	4.61
307.227	4.56
307.597	4.38
307.967	4.39
308.336	4.48
308.706	4.49
309.076	4.65
309.445	4.55
309.815	4.52
310.184	4.32
310.554	4.37
310.923	4.35
311.293	4.29
311.662	4.18
312.031	3.98
312.401	3.86
312.77	3.86
313.139	4.01
313.508	3.94
313.877	3.87
314.246	3.9
314.616	3.93
314.985	3.86
315.353	3.86
315.722	3.83
316.091	3.78
316.46	3.57
316.829	3.48
317.198	3.52
317.567	3.38
317.935	3.44
318.304	3.42
318.672	3.33
319.041	3.39
319.41	3.43
319.778	3.48
320.147	3.53
320.515	3.42
320.883	3.17
321.252	3.23
321.62	3.28
321.988	3.34
322.357	3.26
322.725	3.37
323.093	3.44
323.461	3.48
323.829	3.41
324.197	3.55
324.565	3.58
324.933	3.6
325.301	3.77
325.669	3.8
326.037	3.75
326.405	3.79
326.772	3.88
327.14	3.94
327.508	3.94
327.875	3.69
328.243	3.8
328.61	3.92
328.978	3.97
329.346	4.08
329.713	3.99
330.08	4.05
330.448	3.94
330.815	3.95
331.182	3.89
331.55	3.83
331.917	3.87
332.284	3.95
332.651	3.84
333.018	3.77
333.385	3.78
333.752	3.75
334.119	3.87
334.486	3.84
334.853	3.78
335.22	3.79
335.587	4.08
335.954	4.04
336.32	4.04
336.687	3.96
337.054	3.87
337.42	3.86
337.787	3.91
338.153	3.99
338.52	4.02
338.886	3.98
339.253	4.03
339.619	3.97
339.986	3.86
340.352	4
340.718	4
341.084	4
341.451	4.08
341.817	4.12
342.183	4.03
342.549	4
342.915	4.08
343.281	4.1
343.647	4.08
344.013	3.99
344.379	3.93
344.745	3.95
345.11	4.02
345.476	3.99
345.842	3.92
346.208	3.87
346.573	3.94
346.939	3.95
347.304	3.89
347.67	3.9
348.035	3.76
348.401	3.78
348.766	3.78
349.132	3.82
349.497	3.69
349.862	3.78
350.228	3.85
350.593	3.73
350.958	3.73
351.323	3.79
351.688	3.82
352.053	3.9
352.418	3.97
352.783	3.94
353.148	3.94
353.513	3.94
353.878	4
354.243	4.08
354.608	4.09
354.972	4.11
355.337	4.18
355.702	4.27
356.066	4.29
356.431	4.21
356.795	4.25
357.16	4.25
357.524	4.21
357.889	4.18
358.253	4.25
358.618	4.27
358.982	4.24
359.346	4.24
359.71	4.17
360.075	4.1
360.439	4.15
360.803	4.13
361.167	4.16
361.531	4.14
361.895	4.11
362.259	4.09
362.623	4.11
362.987	4.1
363.351	4.12
363.714	4.12
364.078	4.08
364.442	3.94
364.806	4
365.169	3.98
365.533	3.99
365.896	3.94
366.26	3.93
366.623	3.9
366.987	3.93
367.35	3.94
367.714	3.93
368.077	3.85
368.44	3.87
368.803	3.81
369.167	3.82
369.53	3.75
369.893	3.81
370.256	3.82
370.619	3.78
370.982	3.77
371.345	3.75
371.708	3.85
372.071	3.83
372.434	3.82
372.797	3.84
373.159	3.85
373.522	3.88
373.885	3.88
374.247	3.88
374.61	3.84
374.973	3.91
375.335	3.92
375.698	3.96
376.06	3.93
376.423	3.98
376.785	4.01
377.147	4.1
377.51	4.1
377.872	4.12
378.234	4.13
378.596	4.13
378.958	4.12
379.321	4.07
379.683	4.11
380.045	4.1
380.407	4.09
380.769	4.04
381.13	4.02
381.492	3.97
381.854	3.98
382.216	3.98
382.578	3.92
382.939	3.88
383.301	3.89
383.663	3.88
384.024	3.89
384.386	3.85
384.747	3.81
385.109	3.76
385.47	3.71
385.832	3.69
386.193	3.66
386.554	3.66
386.916	3.64
387.277	3.68
387.638	3.69
387.999	3.63
388.36	3.69
388.721	3.69
389.082	3.68
389.443	3.65
389.804	3.65
390.165	3.68
390.526	3.72
390.887	3.72
391.248	3.74
391.609	3.74
391.969	3.75
392.33	3.73
392.691	3.75
393.051	3.74
393.412	3.74
393.772	3.74
394.133	3.74
394.493	3.8
394.854	3.76
395.214	3.76
395.574	3.81
395.935	3.77
396.295	3.77
396.655	3.82
397.015	3.86
397.376	3.87
397.736	3.86
398.096	3.83
398.456	3.81
398.816	3.78
399.176	3.77
399.535	3.78
399.895	3.81
400.255	3.79
400.615	3.8
400.975	3.82
401.334	3.82
401.694	3.81
402.054	3.79
402.413	3.79
402.773	3.78
403.132	3.73
403.492	3.73
403.851	3.74
404.211	3.71
404.57	3.69
404.929	3.7
405.288	3.69
405.648	3.69
406.007	3.69
406.366	3.7
406.725	3.73
407.084	3.71
407.443	3.69
407.802	3.72
408.161	3.74
408.52	3.72
408.879	3.73
409.238	3.73
409.596	3.72
409.955	3.74
410.314	3.73
410.673	3.71
411.031	3.71
411.39	3.69
411.748	3.69
412.107	3.74
412.465	3.71
412.824	3.72
413.182	3.7
413.54	3.7
413.899	3.73
414.257	3.7
414.615	3.69
414.974	3.71
415.332	3.69
415.69	3.67
416.048	3.67
416.406	3.66
416.764	3.67
417.122	3.67
417.48	3.67
417.838	3.67
418.195	3.68
418.553	3.69
418.911	3.68
419.269	3.69
419.626	3.66
419.984	3.66
420.342	3.67
420.699	3.68
421.057	3.68
421.414	3.67
421.772	3.66
422.129	3.66
422.486	3.66
422.844	3.66
423.201	3.65
423.558	3.65
423.915	3.65
424.273	3.65
424.63	3.65
424.987	3.66
425.344	3.66
425.701	3.67
426.058	3.67
426.415	3.68
426.772	3.67
427.128	3.68
427.485	3.7
427.842	3.68
428.199	3.69
428.555	3.72
428.912	3.72
429.269	3.75
429.625	3.77
429.982	3.76
430.338	3.76
430.695	3.77
431.051	3.78
431.407	3.8
431.764	3.79
432.12	3.81
432.476	3.8
432.832	3.81
433.189	3.82
433.545	3.82
433.901	3.82
434.257	3.81
434.613	3.81
434.969	3.81
435.325	3.84
435.681	3.83
436.036	3.8
436.392	3.8
436.748	3.78
437.104	3.74
437.459	3.75
437.815	3.77
438.171	3.77
438.526	3.77
438.882	3.77
439.237	3.77
439.593	3.76
439.948	3.77
440.304	3.77
440.659	3.75
441.014	3.75
441.369	3.74
441.725	3.75
442.08	3.74
442.435	3.73
442.79	3.72
443.145	3.71
443.5	3.71
443.855	3.71
444.21	3.7
444.565	3.74
444.92	3.74
445.275	3.72
445.629	3.72
445.984	3.73
446.339	3.71
446.693	3.71
447.048	3.72
447.403	3.7
447.757	3.7
448.112	3.69
448.466	3.69
448.82	3.69
449.175	3.67
449.529	3.67
449.883	3.68
450.238	3.68
450.592	3.69
450.946	3.67
451.3	3.68
451.654	3.69
452.008	3.67
452.362	3.65
452.716	3.67
453.07	3.67
453.424	3.66
453.778	3.67
454.132	3.67
454.486	3.64
454.839	3.64
455.193	3.61
455.547	3.6
455.9	3.63
456.254	3.63
456.607	3.65
456.961	3.65
457.314	3.64
457.668	3.65
458.021	3.64
458.375	3.64
458.728	3.64
459.081	3.64
459.434	3.65
459.787	3.65
460.141	3.64
460.494	3.66
460.847	3.67
461.2	3.66
461.553	3.65
461.906	3.68
462.259	3.68
462.611	3.72
462.964	3.76
463.317	3.73
463.67	3.73
464.022	3.73
464.375	3.72
464.728	3.73
465.08	3.73
465.433	3.75
465.785	3.75
466.138	3.75
466.49	3.77
466.843	3.77
467.195	3.77
467.547	3.78
467.899	3.77
468.252	3.76
468.604	3.78
468.956	3.77
469.308	3.76
469.66	3.76
470.012	3.74
470.364	3.75
470.716	3.75
471.068	3.76
471.42	3.75
471.772	3.76
472.123	3.75
472.475	3.75
472.827	3.76
473.178	3.76
473.53	3.75
473.882	3.72
474.233	3.73
474.585	3.73
474.936	3.72
475.288	3.72
475.639	3.72
475.99	3.72
476.342	3.74
476.693	3.72
477.044	3.75
477.395	3.75
477.746	3.73
478.097	3.72
478.448	3.71
478.8	3.71
479.15	3.71
479.501	3.72
479.852	3.73
480.203	3.73
480.554	3.74
480.905	3.75
481.255	3.76
481.606	3.76
481.957	3.76
482.307	3.76
482.658	3.76
483.009	3.77
483.359	3.76
483.709	3.77
484.06	3.77
484.41	3.77
484.761	3.77
485.111	3.79
485.461	3.8
485.811	3.79
486.162	3.8
486.512	3.81
486.862	3.81
487.212	3.81
487.562	3.8
487.912	3.8
488.262	3.79
488.612	3.79
488.961	3.8
489.311	3.81
489.661	3.82
490.011	3.81
490.36	3.8
490.71	3.8
491.06	3.8
491.409	3.8
491.759	3.8
492.108	3.8
492.458	3.8
492.807	3.8
493.157	3.8
493.506	3.81
493.855	3.8
494.204	3.8
494.554	3.82
494.903	3.82
495.252	3.83
495.601	3.84
495.95	3.84
496.299	3.83
496.648	3.82
496.997	3.81
497.346	3.82
497.695	3.84
498.043	3.86
498.392	3.85
498.741	3.86
499.09	3.84
499.438	3.86
499.787	3.86
500.135	3.87
500.484	3.87
500.832	3.87
501.181	3.87
501.529	3.87
501.878	3.86
502.226	3.87
502.574	3.88
502.923	3.86
503.271	3.89
503.619	3.9
503.967	3.9
504.315	3.9
504.663	3.92
505.011	3.92
505.359	3.91
505.707	3.92
506.055	3.93
506.403	3.95
506.751	3.95
507.098	3.93
507.446	3.95
507.794	3.94
508.141	3.96
508.489	3.95
508.837	3.98
509.184	3.99
509.531	4.02
509.879	4.03
510.226	4.06
510.574	4.03
510.921	4.04
511.268	4.03
511.616	4.03
511.963	4.03
512.31	4.04
512.657	4.05
513.004	4.07
513.351	4.08
513.698	4.09
514.045	4.09
514.392	4.09
514.739	4.09
515.086	4.1
515.432	4.09
515.779	4.1
516.126	4.11
516.473	4.1
516.819	4.08
517.166	4.09
517.512	4.08
517.859	4.09
518.205	4.09
518.552	4.09
518.898	4.1
519.245	4.09
519.591	4.1
519.937	4.07
520.283	4.07
520.629	4.07
520.976	4.07
521.322	4.08
521.668	4.09
522.014	4.1
522.36	4.1
522.706	4.12
523.052	4.13
523.398	4.13
523.743	4.14
524.089	4.16
524.435	4.13
524.781	4.15
525.126	4.17
525.472	4.18
525.817	4.21
526.163	4.21
526.509	4.22
526.854	4.22
527.199	4.24
527.545	4.24
527.89	4.25
528.235	4.26
528.581	4.26
528.926	4.26
529.271	4.26
529.616	4.27
529.961	4.28
530.306	4.28
530.651	4.28
530.996	4.29
531.341	4.28
531.686	4.29
532.031	4.29
532.376	4.28
532.721	4.29
533.065	4.28
533.41	4.29
533.755	4.29
534.099	4.28
534.444	4.29
534.788	4.29
535.133	4.28
535.477	4.27
535.822	4.28
536.166	4.29
536.51	4.29
536.855	4.29
537.199	4.28
537.543	4.29
537.887	4.29
538.231	4.3
538.576	4.3
538.92	4.31
539.264	4.32
539.608	4.32
539.951	4.32
540.295	4.32
540.639	4.31
540.983	4.32
541.327	4.32
541.671	4.32
542.014	4.32
542.358	4.33
542.701	4.33
543.045	4.34
543.389	4.34
543.732	4.34
544.075	4.36
544.419	4.36
544.762	4.36
545.105	4.36
545.449	4.36
545.792	4.36
546.135	4.36
546.478	4.37
546.821	4.38
547.165	4.37
547.508	4.38
547.851	4.38
548.194	4.38
548.536	4.39
548.879	4.41
549.222	4.41
549.565	4.4
549.908	4.41
550.25	4.4
550.593	4.39
550.936	4.38
551.278	4.37
551.621	4.36
551.963	4.36
552.306	4.36
552.648	4.36
552.991	4.36
553.333	4.35
553.675	4.36
554.017	4.37
554.36	4.36
554.702	4.4
555.044	4.4
555.386	4.39
555.728	4.38
556.07	4.38
556.412	4.36
556.754	4.37
557.096	4.36
557.438	4.33
557.78	4.36
558.121	4.35
558.463	4.37
558.805	4.36
559.147	4.33
559.488	4.32
559.83	4.33
560.171	4.31
560.513	4.36
560.854	4.35
561.196	4.34
561.537	4.37
561.878	4.32
562.22	4.34
562.561	4.36
562.902	4.34
563.243	4.35
563.584	4.35
563.925	4.37
564.266	4.34
564.607	4.35
564.948	4.36
565.289	4.4
565.63	4.39
565.971	4.42
566.312	4.42
566.653	4.43
566.993	4.42
567.334	4.43
567.675	4.42
568.015	4.46
568.356	4.45
568.696	4.45
569.037	4.47
569.377	4.47
569.718	4.48
570.058	4.48
570.398	4.46
570.739	4.48
571.079	4.48
571.419	4.51
571.759	4.54
572.099	4.52
572.439	4.49
572.779	4.46
573.119	4.44
573.459	4.46
573.799	4.48
574.139	4.48
574.479	4.49
574.819	4.46
575.158	4.43
575.498	4.45
575.838	4.45
576.177	4.45
576.517	4.46
576.856	4.47
577.196	4.46
577.535	4.47
577.875	4.49
578.214	4.5
578.553	4.49
578.893	4.48
579.232	4.5
579.571	4.53
579.91	4.54
580.25	4.56
580.589	4.56
580.928	4.55
581.267	4.55
581.606	4.53
581.945	4.56
582.283	4.54
582.622	4.52
582.961	4.52
583.3	4.53
583.639	4.55
583.977	4.56
584.316	4.6
584.654	4.59
584.993	4.57
585.332	4.55
585.67	4.52
586.008	4.5
586.347	4.48
586.685	4.44
587.024	4.49
587.362	4.49
587.7	4.5
588.038	4.52
588.376	4.51
588.715	4.53
589.053	4.53
589.391	4.56
589.729	4.54
590.067	4.54
590.404	4.53
590.742	4.48
591.08	4.48
591.418	4.48
591.756	4.49
592.093	4.49
592.431	4.51
592.769	4.57
593.106	4.6
593.444	4.62
593.781	4.64
594.119	4.62
594.456	4.64
594.793	4.62
595.131	4.62
595.468	4.64
595.805	4.61
596.143	4.59
596.48	4.6
596.817	4.62
597.154	4.62
597.491	4.63
597.828	4.64
598.165	4.61
598.502	4.61
598.839	4.6
599.176	4.59
599.512	4.61
599.849	4.63
600.186	4.61
600.523	4.63
600.859	4.65
601.196	4.65
601.532	4.69
601.869	4.68
602.205	4.69
602.542	4.7
602.878	4.71
603.215	4.72
603.551	4.71
603.887	4.73
604.223	4.71
604.56	4.75
604.896	4.75
605.232	4.77
605.568	4.76
605.904	4.77
606.24	4.78
606.576	4.76
606.912	4.75
607.248	4.77
607.583	4.76
607.919	4.74
608.255	4.74
608.591	4.7
608.926	4.69
609.262	4.69
609.597	4.66
609.933	4.67
610.268	4.7
610.604	4.72
610.939	4.71
611.275	4.74
611.61	4.71
611.945	4.71
612.281	4.7
612.616	4.71
612.951	4.69
613.286	4.7
613.621	4.7
613.956	4.68
614.291	4.66
614.626	4.68
614.961	4.62
615.296	4.61
615.631	4.61
615.966	4.64
616.3	4.63
616.635	4.64
616.97	4.65
617.304	4.63
617.639	4.6
617.973	4.59
618.308	4.63
618.642	4.62
618.977	4.63
619.311	4.64
619.646	4.68
619.98	4.69
620.314	4.72
620.648	4.77
620.983	4.73
621.317	4.74
621.651	4.71
621.985	4.74
622.319	4.73
622.653	4.71
622.987	4.75
623.321	4.75
623.655	4.78
623.988	4.78
624.322	4.77
624.656	4.81
624.99	4.81
625.323	4.8
625.657	4.8
625.99	4.85
626.324	4.85
626.657	4.84
626.991	4.87
627.324	4.82
627.658	4.77
627.991	4.82
628.324	4.82
628.657	4.84
628.991	4.9
629.324	4.98
629.657	4.99
629.99	4.96
630.323	5
630.656	5.01
630.989	5.05
631.322	5.04
631.655	5
631.987	5.04
632.32	5.02
632.653	5.06
632.986	5.06
633.318	5.03
633.651	5.02
633.984	5.02
634.316	5.03
634.649	5.01
634.981	5.02
635.313	5.06
635.646	5.06
635.978	4.99
636.31	4.92
636.643	4.95
636.975	4.95
637.307	4.89
637.639	4.89
637.971	4.9
638.303	4.87
638.635	4.87
638.967	4.85
639.299	4.87
639.631	4.87
639.963	4.82
640.295	4.87
640.626	4.91
640.958	4.92
641.29	4.96
641.621	4.97
641.953	4.97
642.285	4.97
642.616	4.96
642.948	4.96
643.279	5.01
643.61	4.99
643.942	4.99
644.273	4.97
644.604	4.97
644.936	4.91
645.267	5
645.598	4.99
645.929	5.04
646.26	4.99
646.591	4.93
646.922	5.01
647.253	5
647.584	4.96
647.915	4.93
648.245	4.87
648.576	4.93
648.907	4.95
649.238	4.92
649.568	4.98
649.899	4.98
650.229	4.97
650.56	4.96
650.89	4.98
651.221	5.03
651.551	5.01
651.882	5.02
652.212	5
652.542	5.03
652.872	4.92
653.203	4.97
653.533	5.05
653.863	4.99
654.193	4.98
654.523	4.98
654.853	5
655.183	5.09
655.513	5.04
655.843	5
656.172	5
656.502	4.96
656.832	4.99
657.162	5.02
657.491	5.04
657.821	5.05
658.15	5.06
658.48	5.1
658.809	5.08
659.139	5.09
659.468	5.05
659.798	5.1
660.127	5.08
660.456	5.04
660.785	5.06
661.115	5.1
661.444	5.09
661.773	5.18
662.102	5.14
662.431	5.22
662.76	5.26
663.089	5.28
663.418	5.29
663.747	5.28
664.076	5.28
664.404	5.31
664.733	5.29
665.062	5.27
665.39	5.27
665.719	5.31
666.048	5.31
666.376	5.38
666.705	5.4
667.033	5.37
667.362	5.36
667.69	5.29
668.018	5.38
668.347	5.39
668.675	5.3
669.003	5.3
669.331	5.33
669.659	5.3
669.987	5.32
670.315	5.38
670.643	5.39
670.971	5.35
671.299	5.38
671.627	5.4
671.955	5.42
672.283	5.39
672.61	5.38
672.938	5.42
673.266	5.44
673.593	5.54
673.921	5.61
674.249	5.65
674.576	5.74
674.904	5.63
675.231	5.68
675.558	5.64
675.886	5.62
676.213	5.6
676.54	5.64
676.867	5.67
677.195	5.6
677.522	5.6
677.849	5.65
678.176	5.63
678.503	5.59
678.83	5.64
679.157	5.57
679.484	5.54
679.81	5.51
680.137	5.49
680.464	5.43
680.791	5.44
681.117	5.4
681.444	5.45
681.771	5.41
682.097	5.39
682.424	5.46
682.75	5.42
683.077	5.37
683.403	5.37
683.729	5.34
684.056	5.36
684.382	5.45
684.708	5.38
685.034	5.32
685.36	5.36
685.686	5.23
686.012	5.29
686.339	5.36
686.664	5.38
686.99	5.44
687.316	5.46
687.642	5.44
687.968	5.53
688.294	5.51
688.619	5.67
688.945	5.69
689.271	5.73
689.596	5.87
689.922	5.9
690.247	5.91
690.573	5.84
690.898	5.87
691.224	5.85
691.549	6.01
691.874	6.07
692.2	6.06
692.525	6.17
692.85	6.22
693.175	6.17
693.5	6.19
693.825	6.14
694.15	6.09
694.475	6.13
694.8	6.13
695.125	6.02
695.45	5.9
695.775	5.89
696.099	5.83
696.424	5.88
696.749	5.83
697.073	5.82
697.398	5.88
697.723	5.89
698.047	5.79
698.372	5.78
698.696	5.76
699.02	5.84
699.345	5.82
699.669	5.8
699.993	5.79
700.318	5.76
700.642	5.75
700.966	5.75
701.29	5.79
701.614	5.71
701.938	5.78
702.262	5.84
702.586	5.82
702.91	5.83
703.234	5.72
703.557	5.8
703.881	5.84
704.205	5.8
704.529	5.81
704.852	5.94
705.176	5.78
705.499	5.87
705.823	5.73
706.146	5.71
706.47	5.87
706.793	5.95
707.117	6.02
707.44	6.09
707.763	6.29
708.086	6.14
708.409	6.22
708.733	6.26
709.056	6.26
709.379	6.39
709.702	6.35
710.025	6.39
710.348	6.35
710.671	6.26
710.993	6.27
711.316	6.16
711.639	6.16
711.962	6.26
712.284	6.2
712.607	6.26
712.93	6.36
713.252	6.26
713.575	6.26
713.897	6.16
714.22	6.03
714.542	5.95
714.864	5.94
715.187	6.02
715.509	5.92
715.831	5.87
716.153	5.79
716.475	5.87
716.798	5.99
717.12	6.04
717.442	6.01
717.764	6.13
718.085	6.25
718.407	6.32
718.729	6.27
719.051	6.31
719.373	6.3
719.695	6.24
720.016	6.27
720.338	6.15
720.659	6.34
720.981	6.5
721.302	6.47
721.624	6.63
721.945	6.61
722.267	6.76
722.588	6.75
722.909	6.7
723.231	6.61
723.552	6.34
723.873	6.2
724.194	6.2
724.515	6.11
724.836	6.11
725.157	6.12
725.478	6.22
725.799	6.12
726.12	6.03
726.441	6.08
726.762	6.08
727.083	6.22
727.403	6.16
727.724	6.2
728.045	6.27
728.365	6.22
728.686	6.19
729.006	6.09
729.327	6.24
729.647	6.33
729.967	6.31
730.288	6.38
730.608	6.56
730.928	6.67
731.249	6.73
731.569	6.7
731.889	6.7
732.209	6.6
732.529	6.68
732.849	6.83
733.169	6.76
733.489	6.77
733.809	6.73
734.129	6.62
734.448	6.56
734.768	6.38
735.088	6.38
735.408	6.39
735.727	6.48
736.047	6.4
736.366	6.38
736.686	6.44
737.005	6.55
737.325	6.53
737.644	6.55
737.963	6.47
738.283	6.31
738.602	6.23
738.921	6.44
739.24	6.43
739.56	6.37
739.879	6.53
740.198	6.6
740.517	6.8
740.836	6.9
741.155	6.89
741.473	7.08
741.792	7.04
742.111	6.85
742.43	6.99
742.748	6.88
743.067	6.85
743.386	6.94
743.704	6.91
744.023	6.87
744.341	6.82
744.66	6.95
744.978	7.04
745.297	7.15
745.615	7.1
745.933	7.07
746.252	7.25
746.57	7.19
746.888	6.94
747.206	6.68
747.524	6.51
747.842	6.64
748.16	6.76
748.478	6.7
748.796	6.98
749.114	7.16
749.432	7.27
749.749	7.42
750.067	7.28
750.385	7.51
750.703	7.34
751.02	7.26
751.338	7.31
751.655	7.46
751.973	7.21
752.29	7.15
752.608	7.3
752.925	7.21
753.242	7.33
753.56	7.43
753.877	7.5
754.194	7.54
754.511	7.5
754.828	7.27
755.145	7.49
755.462	7.36
755.779	7.03
756.096	7.1
756.413	7.29
756.73	7.46
757.047	7.59
757.364	7.59
757.68	7.71
757.997	7.67
758.314	7.34
758.63	7.39
758.947	7.44
759.264	7.15
759.58	7.12
759.896	7.26
760.213	7.35
760.529	7.6
760.846	7.92
761.162	7.93
761.478	7.81
761.794	7.6
762.11	7.56
762.426	7.55
762.743	7.76
763.059	7.63
763.375	7.7
763.69	7.74
764.006	8.05
764.322	8.13
764.638	8.11
764.954	8.47
765.27	8.53
765.585	8.58
765.901	8.77
766.216	8.72
766.532	8.58
766.848	8.7
767.163	8.65
767.478	8.53
767.794	8.31
768.109	8.34
768.424	8.3
768.74	8.42
769.055	8.61
769.37	8.64
769.685	8.53
770	8.19
770.315	7.77
770.63	7.54
770.945	7.43
771.26	7.44
771.575	7.21
771.89	7.16
772.205	7.11
772.52	7.1
772.834	6.99
773.149	6.78
773.464	6.52
773.778	6.59
774.093	6.6
774.407	6.94
774.722	7.28
775.036	7.57
775.351	7.67
775.665	7.35
775.979	6.79
776.293	6.73
776.608	6.81
776.922	7.08
777.236	7.16
777.55	7.17
777.864	7.2
778.178	7.18
778.492	7.38
778.806	7.07
779.12	7.15
779.434	7.52
779.747	7.48
780.061	7.65
780.375	7.49
780.689	7.24
781.002	7.42
781.316	7.71
781.629	7.95
781.943	7.91
782.256	7.87
782.57	8.04
782.883	8.12
783.196	8.22
783.51	8.11
783.823	7.6
784.136	7.6
784.449	7.64
784.762	8
785.075	8.19
785.388	8.46
785.701	8.23
786.014	8.36
786.327	8.53
786.64	8.66
786.953	8.76
787.266	8.79
787.578	8.72
787.891	8.36
788.204	8.26
788.516	8.12
788.829	8.54
789.141	9.13
789.454	9.03
789.766	9.35
790.079	9.19
790.391	9.46
790.703	9.51
791.016	9.58
791.328	9.09
791.64	8.86
791.952	9.19
792.264	9.25
792.576	8.79
792.888	8.97
793.2	9.16
793.512	8.82
793.824	8.99
794.136	8.92
794.448	9
794.76	8.76
795.071	8.67
795.383	8.4
795.695	7.72
796.006	8.15
796.318	8.13
796.629	8.37
796.941	8.62
797.252	9.07
797.564	9.06
797.875	9.39
798.186	9.36
798.497	8.75
798.809	8.88
799.12	9.28
799.431	9.5
799.742	9.01
800.053	9.63
800.364	9.66
800.675	9.38
800.986	8.9
801.297	8.76
801.608	9.14
801.918	9.59
802.229	9.73
802.54	9.57
802.851	9.46
803.161	9.47
803.472	9.53
803.782	9.16
804.093	9.32
804.403	9.36
804.714	9.5
805.024	9.77
805.334	9.79
805.645	9.69
805.955	9.59
806.265	9.93
806.575	9.14
806.885	9.35
807.195	9.29
807.505	9.64
807.815	9.96
808.125	9.75
808.435	9.44
808.745	9.44
809.055	9.91
809.365	9.78
809.674	9.47
809.984	9.49
810.294	9.66
810.603	9.34
810.913	9.89
811.222	10.39
811.532	10.59
811.841	11.11
812.151	11.56
812.46	11.14
812.769	10.93
813.079	11.99
813.388	11.57
813.697	11.9
814.006	12.04
814.315	12.04
814.624	12.02
814.933	11.84
815.242	11.66
815.551	10.8
815.86	11.27
816.169	11.09
816.478	10.91
816.786	10.68
817.095	11.26
817.404	11.34
817.712	10.32
818.021	10.38
818.33	9.75
818.638	9.02
818.947	9.59
819.255	9.93
819.563	9.85
819.872	9.88
820.18	10.05
820.488	10.05
820.796	10.14
821.105	10.3
821.413	10.32
821.721	10.63
822.029	10.9
822.337	10.84
822.645	11
822.953	11.03
823.26	11.03
823.568	10.92
823.876	10.84
824.184	10.99
824.491	11.01
824.799	11.08
825.107	11.14
825.414	11.06
825.722	11.03
826.029	10.92
826.337	11.2
826.644	11.24
826.951	11.12
827.259	11.28
827.566	11.13
827.873	11.36
828.18	11.26
828.488	11.13
828.795	10.94
829.102	11.07
829.409	11.15
829.716	11.15
830.023	11.13
830.329	10.87
830.636	11.21
830.943	11.06
831.25	11.18
831.557	11.37
831.863	11.47
832.17	11.32
832.476	11.49
832.783	11.29
833.089	10.78
833.396	11.08
833.702	10.84
834.009	11.32
834.315	10.81
834.621	10.76
834.928	10.6
835.234	11.01
835.54	10.62
835.846	10.32
836.152	10.43
836.458	10.35
836.764	10.44
837.07	10.14
837.376	10.02
837.682	9.79
837.988	9.84
838.293	9.47
838.599	9.29
838.905	8.91
839.211	8.22
839.516	8.38
839.822	8.86
840.127	8.75
840.433	8.56
840.738	8.9
841.044	8.82
841.349	9.51
841.654	9.13
841.959	9.59
842.265	9.88
842.57	10.26
842.875	11.03
843.18	11.51
843.485	11.71
843.79	11.81
844.095	11.29
844.4	11.68
844.705	11.44
845.01	12.39
845.315	12.54
845.619	12.43
845.924	13.18
846.229	12.82
846.533	14.23
846.838	14.06
847.142	13.44
847.447	13.17
847.751	12.58
848.056	12.68
848.36	12.43
848.664	12.96
848.969	11.87
849.273	11.64
849.577	12.07
849.881	10.68
850.185	11.25
850.489	13.11
850.794	13.71
851.097	14.71
851.401	13.66
851.705	13.94
852.009	14.91
852.313	14.26
852.617	13.92
852.92	12.82
853.224	10.7
853.528	11.75
853.831	10.96
854.135	10.5
854.438	11.04
854.742	11.04
855.045	11.6
855.349	11.56
855.652	9.5
855.955	9.02
856.259	9.04
856.562	9.89
856.865	9.81
857.168	6.99
857.471	6.79
857.774	9.14
858.077	11.48
858.38	13.05
858.683	12.94
858.986	14.14
859.289	13.37
859.592	17.44
859.894	16.96
860.197	18.9
860.5	19.15
860.802	18.34
861.105	19.75
861.407	17.69
861.71	18.66
862.012	19.94
862.315	19.07
862.617	19.8
862.919	18.93
863.222	18.81
863.524	20.46
863.826	21.35
864.128	19.73
864.43	17.53
864.732	16.62
865.034	18.24
865.336	17.06
865.638	16
865.94	13.45
866.242	13.44
866.544	11.91
866.846	13.1
867.147	12.15
867.449	10.14
867.751	10.87
868.052	11.19
868.354	11.43
868.655	11.23
868.957	10.86
869.258	12.66
869.56	12.46
869.861	12.09
870.162	11.98
870.463	12.9
870.765	13.43
871.066	13.63
871.367	11.21
871.668	10.29
871.969	10.49
872.27	9.94
872.571	10.83
872.872	13.62
873.173	12.96
873.473	14.31
873.774	15.79
874.075	17.11
874.376	15.46
874.676	15.33
874.977	15.46
875.277	15.71
875.578	13.75
875.878	13.29
876.179	13.84
876.479	14.26
876.78	12.73
877.08	12.08
877.38	10.78
877.68	12.73
877.981	14.57
878.281	16.05
878.581	18.21
