Data from BA28304_Reflection_00012.txt Node
Date: Mon Nov 18 15:36:21 EST 2019
User: vgr7
Spectrometer: USB2G7710
Scans to average: 3
Trigger mode: 4
Integration Time (sec): 2.000000E-2
Electric dark correction enabled: true
Boxcar width: 10
XAxis mode: Wavelengths
Number of Pixels in Spectrum: 2048
>>>>>Begin Spectral Data<<<<<
177.721	19.69
178.105	-8.11
178.488	-53.17
178.871	-484.16
179.254	-213.78
179.636	-33.84
180.019	89.15
180.402	80.65
180.785	678.95
181.168	8850
181.55	-5488.24
181.933	199.44
182.316	181.37
182.698	172.19
183.081	331.41
183.463	6774.42
183.846	-1022.87
184.228	-691.18
184.611	5100
184.993	3201.27
185.376	-2301.87
185.758	-268.95
186.14	-192.71
186.522	-299.26
186.904	-1225.12
187.287	-1186.85
187.669	-363.28
188.051	-415.26
188.433	-293.57
188.815	-168.94
189.197	-91.24
189.579	-53.89
189.961	-52.33
190.342	-47.36
190.724	-19.35
191.106	3.84
191.488	3.5
191.869	20.33
192.251	8.37
192.633	4.54
193.014	13.13
193.396	0.27
193.777	-4.8
194.159	-15.56
194.54	5.29
194.922	-6.26
195.303	-8.36
195.684	-9.66
196.065	8.53
196.447	-4.28
196.828	-3.38
197.209	-10.66
197.59	-22.57
197.971	-39.8
198.352	-32.87
198.733	-50.75
199.114	-73.12
199.495	-75.22
199.876	-87.28
200.257	-88.04
200.638	-58.15
201.018	-80.75
201.399	-34.45
201.78	-30.3
202.16	-55.21
202.541	-148.52
202.922	-479.89
203.302	-993.39
203.683	-390.96
204.063	407100
204.444	-835.76
204.824	-461.28
205.204	-197.27
205.585	-230.53
205.965	-272.44
206.345	-750.66
206.725	-611.23
207.106	-1147.54
207.486	2597.76
207.866	-3293.06
208.246	-505.88
208.626	-664.08
209.006	-468.38
209.386	-934.53
209.766	-976.38
210.145	-478.32
210.525	-245.02
210.905	-183.93
211.285	-121.57
211.664	-101.58
212.044	-95.2
212.424	-81.54
212.803	-76.66
213.183	-91.79
213.562	-91.34
213.942	-63.16
214.321	-21.83
214.701	-29.71
215.08	-24.51
215.459	-14.11
215.838	-16.48
216.218	-37.14
216.597	-23.39
216.976	-48.45
217.355	-3.88
217.734	-7.21
218.113	-51.01
218.492	-65.79
218.871	-62.01
219.25	-61.53
219.629	-91.05
220.008	-70.19
220.387	-96.13
220.766	-83.11
221.144	-112.63
221.523	-86.05
221.902	-78.77
222.28	-82.97
222.659	-66.89
223.037	-58.97
223.416	-57.5
223.794	-51.55
224.173	-42.86
224.551	-35.67
224.929	-34.87
225.308	-27.59
225.686	-16.91
226.064	-6.83
226.442	-5.01
226.821	-5.62
227.199	-4.81
227.577	-7.36
227.955	-3.87
228.333	-1.44
228.711	0.08
229.089	5.89
229.467	6.28
229.845	4.08
230.222	6.28
230.6	6.6
230.978	6.7
231.356	8.41
231.733	8.03
232.111	8.52
232.488	8.04
232.866	9.01
233.243	7.04
233.621	6.3
233.998	6.35
234.376	5.12
234.753	7.37
235.13	7.48
235.508	9.76
235.885	7.57
236.262	5.82
236.639	5.22
237.016	3.1
237.393	2.72
237.77	3.98
238.147	4.71
238.524	5
238.901	5.18
239.278	5.51
239.655	6.17
240.032	5.94
240.409	5.47
240.785	5.03
241.162	5.1
241.539	5.49
241.915	5.57
242.292	5.24
242.668	4.79
243.045	4.45
243.421	4.52
243.798	4.88
244.174	4.94
244.551	4.85
244.927	4.96
245.303	5.14
245.679	5
246.056	4.94
246.432	5.04
246.808	4.68
247.184	4.59
247.56	4.23
247.936	3.91
248.312	3.87
248.688	4.04
249.064	3.9
249.44	3.56
249.815	3.39
250.191	3.62
250.567	3.56
250.943	3.73
251.318	3.76
251.694	3.61
252.069	3.78
252.445	3.99
252.82	4.18
253.196	3.96
253.571	3.97
253.947	3.83
254.322	3.72
254.697	4.01
255.073	3.77
255.448	3.97
255.823	4.07
256.198	4.11
256.573	3.87
256.948	4.2
257.323	4.47
257.698	4.7
258.073	4.62
258.448	4.64
258.823	4.45
259.198	4.18
259.573	4.06
259.948	3.93
260.322	3.82
260.697	3.61
261.072	3.55
261.446	3.54
261.821	3.42
262.195	3.46
262.57	3.56
262.944	3.47
263.319	3.41
263.693	3.38
264.067	3.5
264.442	3.54
264.816	3.35
265.19	3.15
265.564	3.01
265.938	2.76
266.313	2.66
266.687	2.7
267.061	2.76
267.435	3.06
267.809	3.19
268.183	3.08
268.556	3.19
268.93	3.33
269.304	3.35
269.678	3.6
270.051	3.51
270.425	3.28
270.799	3.31
271.172	3.36
271.546	3.42
271.919	3.33
272.293	3.29
272.666	3.4
273.04	3.57
273.413	3.36
273.787	3.52
274.16	3.45
274.533	3.49
274.906	3.42
275.279	3.31
275.653	3.23
276.026	3.17
276.399	3.23
276.772	3.26
277.145	3.33
277.518	3.14
277.891	2.99
278.263	3.01
278.636	3.06
279.009	2.93
279.382	3.05
279.755	3
280.127	3.29
280.5	3.19
280.872	3.18
281.245	3.23
281.617	3.29
281.99	3.4
282.362	3.36
282.735	3.44
283.107	3.38
283.479	3.47
283.852	3.62
284.224	3.56
284.596	3.57
284.968	3.55
285.34	3.65
285.713	3.67
286.085	3.68
286.457	3.86
286.829	4
287.201	3.97
287.572	3.92
287.944	3.65
288.316	3.62
288.688	3.54
289.06	3.63
289.431	3.65
289.803	3.7
290.175	3.66
290.546	3.76
290.918	3.97
291.289	4.05
291.661	4.08
292.032	4.23
292.403	4.21
292.775	4.33
293.146	4.16
293.517	4.17
293.889	4.37
294.26	4.23
294.631	4.21
295.002	4.19
295.373	4.31
295.744	4.47
296.115	4.48
296.486	4.49
296.857	4.46
297.228	4.38
297.599	4.36
297.97	4.38
298.34	4.3
298.711	4.35
299.082	4.27
299.452	4.25
299.823	4.19
300.194	4.22
300.564	4.1
300.935	4.18
301.305	4.22
301.676	4.21
302.046	4.33
302.416	4.41
302.787	4.37
303.157	4.29
303.527	4.24
303.897	4.34
304.267	4.44
304.637	4.5
305.008	4.66
305.378	4.75
305.748	4.81
306.117	4.8
306.487	4.6
306.857	4.64
307.227	4.69
307.597	4.7
307.967	4.78
308.336	4.86
308.706	4.93
309.076	5.12
309.445	4.9
309.815	4.88
310.184	4.81
310.554	4.87
310.923	4.82
311.293	4.83
311.662	4.74
312.031	4.72
312.401	4.73
312.77	4.74
313.139	4.77
313.508	4.75
313.877	4.67
314.246	4.72
314.616	4.67
314.985	4.65
315.353	4.58
315.722	4.62
316.091	4.46
316.46	4.43
316.829	4.33
317.198	4.66
317.567	4.69
317.935	4.62
318.304	4.69
318.672	4.9
319.041	4.96
319.41	5.22
319.778	5.31
320.147	5.35
320.515	5.38
320.883	5.38
321.252	5.6
321.62	5.82
321.988	5.92
322.357	5.96
322.725	5.94
323.093	6.08
323.461	6.02
323.829	6.13
324.197	6.25
324.565	6.31
324.933	6.18
325.301	6.1
325.669	6.14
326.037	6.22
326.405	6.13
326.772	6.26
327.14	6.11
327.508	6.11
327.875	6.1
328.243	6.1
328.61	6.06
328.978	5.97
329.346	6.05
329.713	5.87
330.08	5.89
330.448	5.84
330.815	5.77
331.182	5.81
331.55	5.81
331.917	5.73
332.284	5.78
332.651	5.82
333.018	5.9
333.385	6.05
333.752	5.94
334.119	6.06
334.486	5.88
334.853	5.95
335.22	5.94
335.587	5.92
335.954	5.9
336.32	5.88
336.687	6.04
337.054	5.91
337.42	6.06
337.787	6.11
338.153	6.08
338.52	6.08
338.886	5.98
339.253	6.07
339.619	6.14
339.986	6.03
340.352	6.05
340.718	6.07
341.084	6.01
341.451	6.19
341.817	6.35
342.183	6.35
342.549	6.36
342.915	6.42
343.281	6.44
343.647	6.45
344.013	6.43
344.379	6.26
344.745	6.38
345.11	6.44
345.476	6.42
345.842	6.58
346.208	6.62
346.573	6.77
346.939	6.79
347.304	6.77
347.67	6.76
348.035	6.69
348.401	6.67
348.766	6.78
349.132	6.66
349.497	6.53
349.862	6.65
350.228	6.59
350.593	6.52
350.958	6.54
351.323	6.54
351.688	6.55
352.053	6.72
352.418	6.75
352.783	6.66
353.148	6.7
353.513	6.7
353.878	6.68
354.243	6.66
354.608	6.63
354.972	6.55
355.337	6.67
355.702	6.81
356.066	6.93
356.431	6.88
356.795	6.92
357.16	6.92
357.524	6.79
357.889	6.75
358.253	6.76
358.618	6.75
358.982	6.75
359.346	6.73
359.71	6.63
360.075	6.57
360.439	6.64
360.803	6.59
361.167	6.54
361.531	6.52
361.895	6.39
362.259	6.39
362.623	6.45
362.987	6.35
363.351	6.27
363.714	6.17
364.078	6.1
364.442	6.07
364.806	6.03
365.169	6.03
365.533	6.05
365.896	6.04
366.26	6.01
366.623	5.94
366.987	5.91
367.35	5.9
367.714	5.92
368.077	5.82
368.44	5.75
368.803	5.74
369.167	5.71
369.53	5.68
369.893	5.68
370.256	5.66
370.619	5.61
370.982	5.5
371.345	5.46
371.708	5.41
372.071	5.36
372.434	5.24
372.797	5.2
373.159	5.15
373.522	5.12
373.885	5.07
374.247	5.08
374.61	5.11
374.973	5.06
375.335	5
375.698	5.01
376.06	5.03
376.423	5.01
376.785	4.97
377.147	4.97
377.51	4.9
377.872	4.89
378.234	4.91
378.596	4.92
378.958	4.83
379.321	4.82
379.683	4.82
380.045	4.83
380.407	4.86
380.769	4.89
381.13	4.82
381.492	4.83
381.854	4.78
382.216	4.73
382.578	4.75
382.939	4.69
383.301	4.64
383.663	4.61
384.024	4.61
384.386	4.67
384.747	4.64
385.109	4.6
385.47	4.51
385.832	4.49
386.193	4.5
386.554	4.5
386.916	4.48
387.277	4.45
387.638	4.46
387.999	4.41
388.36	4.35
388.721	4.36
389.082	4.31
389.443	4.33
389.804	4.27
390.165	4.23
390.526	4.23
390.887	4.18
391.248	4.2
391.609	4.14
391.969	4.05
392.33	4.07
392.691	4.08
393.051	4.04
393.412	4.01
393.772	3.95
394.133	3.95
394.493	3.97
394.854	3.95
395.214	3.93
395.574	3.91
395.935	3.93
396.295	3.9
396.655	3.88
397.015	3.86
397.376	3.86
397.736	3.83
398.096	3.82
398.456	3.82
398.816	3.76
399.176	3.74
399.535	3.74
399.895	3.67
400.255	3.64
400.615	3.66
400.975	3.66
401.334	3.66
401.694	3.65
402.054	3.62
402.413	3.61
402.773	3.57
403.132	3.52
403.492	3.49
403.851	3.48
404.211	3.48
404.57	3.44
404.929	3.41
405.288	3.39
405.648	3.37
406.007	3.37
406.366	3.36
406.725	3.38
407.084	3.37
407.443	3.37
407.802	3.36
408.161	3.34
408.52	3.33
408.879	3.33
409.238	3.32
409.596	3.3
409.955	3.28
410.314	3.31
410.673	3.32
411.031	3.29
411.39	3.29
411.748	3.28
412.107	3.29
412.465	3.28
412.824	3.28
413.182	3.26
413.54	3.23
413.899	3.24
414.257	3.24
414.615	3.25
414.974	3.26
415.332	3.27
415.69	3.26
416.048	3.22
416.406	3.24
416.764	3.21
417.122	3.2
417.48	3.19
417.838	3.19
418.195	3.2
418.553	3.2
418.911	3.19
419.269	3.18
419.626	3.2
419.984	3.2
420.342	3.18
420.699	3.18
421.057	3.19
421.414	3.17
421.772	3.15
422.129	3.16
422.486	3.15
422.844	3.14
423.201	3.14
423.558	3.14
423.915	3.13
424.273	3.13
424.63	3.13
424.987	3.13
425.344	3.11
425.701	3.1
426.058	3.1
426.415	3.1
426.772	3.09
427.128	3.07
427.485	3.07
427.842	3.09
428.199	3.11
428.555	3.11
428.912	3.13
429.269	3.15
429.625	3.12
429.982	3.13
430.338	3.12
430.695	3.11
431.051	3.12
431.407	3.12
431.764	3.12
432.12	3.12
432.476	3.12
432.832	3.11
433.189	3.12
433.545	3.11
433.901	3.09
434.257	3.1
434.613	3.1
434.969	3.09
435.325	3.08
435.681	3.08
436.036	3.07
436.392	3.06
436.748	3.05
437.104	3.05
437.459	3.04
437.815	3.04
438.171	3.05
438.526	3.03
438.882	3.04
439.237	3.03
439.593	3.01
439.948	2.99
440.304	3
440.659	3
441.014	3.02
441.369	3.01
441.725	3
442.08	3
442.435	3
442.79	3.01
443.145	3
443.5	2.99
443.855	2.99
444.21	2.97
444.565	2.98
444.92	2.99
445.275	2.99
445.629	2.99
445.984	2.99
446.339	2.98
446.693	2.98
447.048	3
447.403	3
447.757	2.98
448.112	2.99
448.466	2.97
448.82	2.98
449.175	2.99
449.529	2.99
449.883	2.98
450.238	2.97
450.592	2.96
450.946	2.96
451.3	2.96
451.654	2.97
452.008	2.97
452.362	2.95
452.716	2.95
453.07	2.94
453.424	2.94
453.778	2.95
454.132	2.94
454.486	2.92
454.839	2.94
455.193	2.95
455.547	2.94
455.9	2.95
456.254	2.95
456.607	2.95
456.961	2.95
457.314	2.95
457.668	2.95
458.021	2.94
458.375	2.93
458.728	2.93
459.081	2.92
459.434	2.9
459.787	2.91
460.141	2.9
460.494	2.89
460.847	2.89
461.2	2.89
461.553	2.89
461.906	2.92
462.259	2.91
462.611	2.93
462.964	2.93
463.317	2.92
463.67	2.92
464.022	2.92
464.375	2.9
464.728	2.92
465.08	2.92
465.433	2.92
465.785	2.95
466.138	2.96
466.49	2.98
466.843	2.98
467.195	2.99
467.547	3
467.899	3.01
468.252	3.04
468.604	3.05
468.956	3.06
469.308	3.04
469.66	3.03
470.012	3.01
470.364	3.01
470.716	3.02
471.068	3.01
471.42	3
471.772	3.02
472.123	3.02
472.475	3.03
472.827	3.03
473.178	3.03
473.53	3.02
473.882	3.02
474.233	3.04
474.585	3.05
474.936	3.04
475.288	3.04
475.639	3.05
475.99	3.04
476.342	3.05
476.693	3.04
477.044	3.08
477.395	3.1
477.746	3.1
478.097	3.08
478.448	3.09
478.8	3.09
479.15	3.06
479.501	3.05
479.852	3.06
480.203	3.06
480.554	3.05
480.905	3.06
481.255	3.06
481.606	3.04
481.957	3.04
482.307	3.04
482.658	3.04
483.009	3.04
483.359	3.04
483.709	3.04
484.06	3.04
484.41	3.02
484.761	3.02
485.111	3.03
485.461	3.04
485.811	3.05
486.162	3.05
486.512	3.06
486.862	3.07
487.212	3.06
487.562	3.07
487.912	3.08
488.262	3.07
488.612	3.08
488.961	3.09
489.311	3.1
489.661	3.11
490.011	3.11
490.36	3.11
490.71	3.11
491.06	3.11
491.409	3.12
491.759	3.13
492.108	3.14
492.458	3.15
492.807	3.15
493.157	3.15
493.506	3.17
493.855	3.17
494.204	3.18
494.554	3.18
494.903	3.19
495.252	3.2
495.601	3.23
495.95	3.24
496.299	3.24
496.648	3.22
496.997	3.24
497.346	3.26
497.695	3.28
498.043	3.3
498.392	3.3
498.741	3.33
499.09	3.31
499.438	3.33
499.787	3.35
500.135	3.37
500.484	3.41
500.832	3.44
501.181	3.45
501.529	3.47
501.878	3.53
502.226	3.52
502.574	3.54
502.923	3.54
503.271	3.56
503.619	3.59
503.967	3.64
504.315	3.66
504.663	3.68
505.011	3.72
505.359	3.74
505.707	3.78
506.055	3.82
506.403	3.88
506.751	3.9
507.098	3.93
507.446	3.98
507.794	3.96
508.141	3.98
508.489	4.02
508.837	4.05
509.184	4.07
509.531	4.12
509.879	4.18
510.226	4.23
510.574	4.26
510.921	4.29
511.268	4.32
511.616	4.37
511.963	4.39
512.31	4.4
512.657	4.45
513.004	4.49
513.351	4.53
513.698	4.58
514.045	4.61
514.392	4.66
514.739	4.69
515.086	4.76
515.432	4.8
515.779	4.82
516.126	4.88
516.473	4.93
516.819	4.96
517.166	4.98
517.512	4.99
517.859	5.03
518.205	5.06
518.552	5.11
518.898	5.15
519.245	5.21
519.591	5.24
519.937	5.27
520.283	5.31
520.629	5.37
520.976	5.4
521.322	5.47
521.668	5.51
522.014	5.55
522.36	5.62
522.706	5.7
523.052	5.8
523.398	5.88
523.743	5.96
524.089	6.05
524.435	6.16
524.781	6.26
525.126	6.35
525.472	6.45
525.817	6.51
526.163	6.59
526.509	6.67
526.854	6.75
527.199	6.81
527.545	6.88
527.89	6.93
528.235	7
528.581	7.06
528.926	7.14
529.271	7.22
529.616	7.3
529.961	7.37
530.306	7.45
530.651	7.53
530.996	7.62
531.341	7.72
531.686	7.81
532.031	7.92
532.376	8.04
532.721	8.15
533.065	8.26
533.41	8.38
533.755	8.5
534.099	8.62
534.444	8.76
534.788	8.91
535.133	9.06
535.477	9.23
535.822	9.38
536.166	9.56
536.51	9.76
536.855	9.98
537.199	10.22
537.543	10.43
537.887	10.66
538.231	10.88
538.576	11.1
538.92	11.33
539.264	11.53
539.608	11.75
539.951	11.97
540.295	12.17
540.639	12.38
540.983	12.58
541.327	12.79
541.671	12.98
542.014	13.19
542.358	13.39
542.701	13.59
543.045	13.81
543.389	14.02
543.732	14.24
544.075	14.44
544.419	14.63
544.762	14.89
545.105	15.16
545.449	15.42
545.792	15.71
546.135	16
546.478	16.36
546.821	16.7
547.165	17.04
547.508	17.41
547.851	17.76
548.194	18.07
548.536	18.43
548.879	18.85
549.222	19.22
549.565	19.61
549.908	20
550.25	20.33
550.593	20.68
550.936	21.06
551.278	21.45
551.621	21.86
551.963	22.22
552.306	22.57
552.648	22.99
552.991	23.37
553.333	23.71
553.675	24.01
554.017	24.34
554.36	24.66
554.702	24.98
555.044	25.3
555.386	25.72
555.728	26.06
556.07	26.4
556.412	26.73
556.754	27.11
557.096	27.47
557.438	27.84
557.78	28.25
558.121	28.7
558.463	29.03
558.805	29.43
559.147	29.76
559.488	30.13
559.83	30.43
560.171	30.79
560.513	31.16
560.854	31.56
561.196	31.92
561.537	32.28
561.878	32.64
562.22	33.05
562.561	33.32
562.902	33.71
563.243	34.03
563.584	34.36
563.925	34.67
564.266	34.97
564.607	35.28
564.948	35.61
565.289	35.85
565.63	36.21
565.971	36.51
566.312	36.85
566.653	37.22
566.993	37.54
567.334	37.83
567.675	38.11
568.015	38.37
568.356	38.7
568.696	39.01
569.037	39.29
569.377	39.58
569.718	39.92
570.058	40.15
570.398	40.43
570.739	40.72
571.079	41
571.419	41.26
571.759	41.54
572.099	41.75
572.439	42
572.779	42.22
573.119	42.42
573.459	42.66
573.799	42.85
574.139	43.01
574.479	43.22
574.819	43.48
575.158	43.71
575.498	43.87
575.838	44.1
576.177	44.31
576.517	44.48
576.856	44.72
577.196	44.95
577.535	45.17
577.875	45.43
578.214	45.6
578.553	45.84
578.893	46.07
579.232	46.37
579.571	46.64
579.91	46.84
580.25	47.08
580.589	47.32
580.928	47.5
581.267	47.79
581.606	47.97
581.945	48.2
582.283	48.41
582.622	48.61
582.961	48.77
583.3	48.96
583.639	49.13
583.977	49.3
584.316	49.53
584.654	49.74
584.993	49.91
585.332	50.2
585.67	50.41
586.008	50.61
586.347	50.73
586.685	50.9
587.024	51.08
587.362	51.29
587.7	51.39
588.038	51.62
588.376	51.77
588.715	52
589.053	52.12
589.391	52.27
589.729	52.42
590.067	52.61
590.404	52.77
590.742	52.97
591.08	53.11
591.418	53.3
591.756	53.51
592.093	53.62
592.431	53.77
592.769	53.93
593.106	54.01
593.444	54.09
593.781	54.17
594.119	54.36
594.456	54.53
594.793	54.66
595.131	54.75
595.468	54.84
595.805	54.94
596.143	55.06
596.48	55.16
596.817	55.24
597.154	55.39
597.491	55.45
597.828	55.51
598.165	55.6
598.502	55.68
598.839	55.72
599.176	55.8
599.512	55.9
599.849	56.05
600.186	56.21
600.523	56.36
600.859	56.45
601.196	56.52
601.532	56.57
601.869	56.69
602.205	56.78
602.542	56.9
602.878	56.95
603.215	56.99
603.551	57.1
603.887	57.14
604.223	57.16
604.56	57.27
604.896	57.33
605.232	57.45
605.568	57.47
605.904	57.55
606.24	57.65
606.576	57.69
606.912	57.73
607.248	57.85
607.583	58
607.919	58.08
608.255	58.16
608.591	58.25
608.926	58.36
609.262	58.44
609.597	58.54
609.933	58.58
610.268	58.64
610.604	58.73
610.939	58.86
611.275	58.93
611.61	59.05
611.945	59.17
612.281	59.27
612.616	59.37
612.951	59.51
613.286	59.61
613.621	59.68
613.956	59.77
614.291	59.79
614.626	59.76
614.961	59.84
615.296	59.88
615.631	59.95
615.966	60.01
616.3	60.02
616.635	60.07
616.97	60.17
617.304	60.25
617.639	60.26
617.973	60.3
618.308	60.35
618.642	60.39
618.977	60.34
619.311	60.41
619.646	60.48
619.98	60.48
620.314	60.51
620.648	60.55
620.983	60.58
621.317	60.61
621.651	60.74
621.985	60.84
622.319	60.9
622.653	60.94
622.987	60.9
623.321	61.04
623.655	61.14
623.988	61.25
624.322	61.33
624.656	61.43
624.99	61.56
625.323	61.63
625.657	61.68
625.99	61.81
626.324	61.74
626.657	61.76
626.991	61.84
627.324	61.91
627.658	62.01
627.991	62.08
628.324	62.12
628.657	62.16
628.991	62.12
629.324	62.23
629.657	62.31
629.99	62.43
630.323	62.41
630.656	62.44
630.989	62.51
631.322	62.57
631.655	62.54
631.987	62.48
632.32	62.49
632.653	62.57
632.986	62.71
633.318	62.76
633.651	62.88
633.984	62.9
634.316	62.85
634.649	62.8
634.981	62.77
635.313	62.89
635.646	62.87
635.978	63.03
636.31	63.09
636.643	63.09
636.975	63.13
637.307	63.19
637.639	63.13
637.971	63.1
638.303	63.29
638.635	63.32
638.967	63.52
639.299	63.54
639.631	63.39
639.963	63.3
640.295	63.31
640.626	63.4
640.958	63.35
641.29	63.46
641.621	63.46
641.953	63.62
642.285	63.69
642.616	63.79
642.948	63.76
643.279	63.74
643.61	63.76
643.942	63.87
644.273	63.91
644.604	63.97
644.936	63.94
645.267	63.72
645.598	63.88
645.929	63.77
646.26	63.74
646.591	63.79
646.922	63.86
647.253	64.05
647.584	63.94
647.915	64.03
648.245	64
648.576	64.12
648.907	64.07
649.238	64.19
649.568	64.17
649.899	64.25
650.229	64.24
650.56	64.3
650.89	64.3
651.221	64.4
651.551	64.46
651.882	64.7
652.212	64.79
652.542	64.78
652.872	64.8
653.203	64.9
653.533	64.94
653.863	64.98
654.193	64.94
654.523	65.01
654.853	65.12
655.183	65.23
655.513	65.25
655.843	65.22
656.172	65.16
656.502	65.19
656.832	65.16
657.162	65.23
657.491	65.22
657.821	65.2
658.15	65.08
658.48	65.11
658.809	64.93
659.139	64.92
659.468	64.86
659.798	64.9
660.127	65.08
660.456	65.26
660.785	65.36
661.115	65.42
661.444	65.46
661.773	65.32
662.102	65.27
662.431	65.3
662.76	65.37
663.089	65.28
663.418	65.32
663.747	65.24
664.076	65.3
664.404	65.34
664.733	65.38
665.062	65.41
665.39	65.5
665.719	65.47
666.048	65.51
666.376	65.74
666.705	65.76
667.033	65.68
667.362	65.61
667.69	65.41
668.018	65.37
668.347	65.38
668.675	65.34
669.003	65.5
669.331	65.53
669.659	65.46
669.987	65.4
670.315	65.47
670.643	65.55
670.971	65.67
671.299	65.66
671.627	65.61
671.955	65.68
672.283	65.68
672.61	65.9
672.938	66.04
673.266	65.96
673.593	65.99
673.921	66.02
674.249	66.14
674.576	66.17
674.904	66.1
675.231	65.95
675.558	66.16
675.886	66.03
676.213	66.04
676.54	66.11
676.867	66.16
677.195	66.14
677.522	66.14
677.849	65.93
678.176	65.85
678.503	65.82
678.83	65.86
679.157	65.82
679.484	65.65
679.81	65.56
680.137	65.55
680.464	65.52
680.791	65.42
681.117	65.35
681.444	65.53
681.771	65.75
682.097	65.74
682.424	65.68
682.75	65.64
683.077	65.64
683.403	65.67
683.729	65.71
684.056	65.74
684.382	65.81
684.708	65.99
685.034	66.03
685.36	66.07
685.686	66.08
686.012	66.16
686.339	66.32
686.664	66.34
686.99	66.38
687.316	66.48
687.642	66.63
687.968	66.58
688.294	66.65
688.619	66.52
688.945	66.78
689.271	66.68
689.596	66.74
689.922	66.68
690.247	66.72
690.573	66.63
690.898	66.48
691.224	66.39
691.549	66.18
691.874	66.2
692.2	66.19
692.525	66.26
692.85	66.26
693.175	66.41
693.5	66.56
693.825	66.53
694.15	66.59
694.475	66.56
694.8	66.75
695.125	66.52
695.45	66.57
695.775	66.6
696.099	66.76
696.424	66.75
696.749	66.85
697.073	66.75
697.398	66.89
697.723	67.04
698.047	67.03
698.372	67.14
698.696	67.26
699.02	67.27
699.345	67.26
699.669	67.08
699.993	66.88
700.318	66.81
700.642	66.79
700.966	66.73
701.29	66.73
701.614	66.63
701.938	66.63
702.262	66.61
702.586	66.38
702.91	66.4
703.234	66.45
703.557	66.39
703.881	66.49
704.205	66.41
704.529	66.28
704.852	66.37
705.176	66.41
705.499	66.39
705.823	66.4
706.146	66.35
706.47	66.67
706.793	66.84
707.117	66.75
707.44	66.86
707.763	66.96
708.086	66.84
708.409	66.78
708.733	67.07
709.056	67.05
709.379	67.37
709.702	67.39
710.025	67.35
710.348	67.46
710.671	67.61
710.993	67.73
711.316	67.97
711.639	68.01
711.962	67.88
712.284	67.69
712.607	67.7
712.93	67.71
713.252	67.7
713.575	67.53
713.897	67.69
714.22	67.78
714.542	67.76
714.864	67.96
715.187	68.05
715.509	67.98
715.831	67.89
716.153	67.69
716.475	67.57
716.798	67.52
717.12	67.4
717.442	67.16
717.764	67.08
718.085	67.12
718.407	67.16
718.729	67.29
719.051	67.48
719.373	67.52
719.695	67.47
720.016	67.55
720.338	67.8
720.659	67.59
720.981	67.25
721.302	67.26
721.624	66.98
721.945	66.88
722.267	66.73
722.588	66.68
722.909	66.95
723.231	66.89
723.552	67.03
723.873	67.26
724.194	67.29
724.515	67.37
724.836	67.1
725.157	67.06
725.478	67.17
725.799	66.96
726.12	66.95
726.441	67.01
726.762	66.82
727.083	66.87
727.403	67.2
727.724	67.58
728.045	67.39
728.365	67.56
728.686	67.7
729.006	67.81
729.327	67.96
729.647	67.8
729.967	67.85
730.288	67.97
730.608	67.86
730.928	67.9
731.249	67.51
731.569	67.72
731.889	67.63
732.209	67.69
732.529	67.86
732.849	67.69
733.169	67.91
733.489	67.9
733.809	67.54
734.129	67.37
734.448	67.16
734.768	67.19
735.088	67.19
735.408	67.29
735.727	67.28
736.047	67.09
736.366	67.07
736.686	67.31
737.005	67.37
737.325	67.41
737.644	67.62
737.963	68.17
738.283	67.98
738.602	68.06
738.921	68.08
739.24	67.96
739.56	68.33
739.879	68.09
740.198	68.35
740.517	68.46
740.836	68.51
741.155	68.43
741.473	68.45
741.792	68.52
742.111	68.35
742.43	68.2
742.748	68.56
743.067	68.25
743.386	68.31
743.704	68.3
744.023	68.35
744.341	67.94
744.66	67.64
744.978	67.54
745.297	67.59
745.615	67.59
745.933	67.68
746.252	67.32
746.57	67.03
746.888	67
747.206	67.36
747.524	67.35
747.842	67.12
748.16	67.03
748.478	66.95
748.796	67.15
749.114	67.23
749.432	66.62
749.749	67.19
750.067	67.22
750.385	67.04
750.703	67.26
751.02	67.43
751.338	67.38
751.655	67.07
751.973	66.9
752.29	66.69
752.608	66.86
752.925	67.2
753.242	67.42
753.56	67.11
753.877	66.83
754.194	66.79
754.511	67.29
754.828	67.31
755.145	67.18
755.462	66.72
755.779	67.16
756.096	67.77
756.413	67.67
756.73	67.44
757.047	67.36
757.364	67.16
757.68	67.04
757.997	67.1
758.314	67.56
758.63	67.78
758.947	67.75
759.264	67.62
759.58	67.62
759.896	67.79
760.213	67.99
760.529	67.91
760.846	67.82
761.162	67.93
761.478	67.93
761.794	68.1
762.11	68.17
762.426	67.58
762.743	67.71
763.059	67.86
763.375	68.06
763.69	68.16
764.006	68.14
764.322	68.33
764.638	68.52
764.954	68.67
765.27	68.57
765.585	68.43
765.901	68.71
766.216	68.45
766.532	68.43
766.848	68.1
767.163	68.36
767.478	68.4
767.794	68.37
768.109	68.33
768.424	68.39
768.74	68.64
769.055	69.14
769.37	69.19
769.685	68.93
770	68.86
770.315	68.71
770.63	68.7
770.945	68.72
771.26	68.54
771.575	68.24
771.89	68.38
772.205	68.68
772.52	68.2
772.834	68.88
773.149	68.94
773.464	68.96
773.778	68.64
774.093	68.31
774.407	68.13
774.722	68.65
775.036	68.32
775.351	68.29
775.665	68.36
775.979	67.72
776.293	67.97
776.608	67.53
776.922	67.41
777.236	67.26
777.55	67.48
777.864	68.03
778.178	67.95
778.492	68.08
778.806	67.69
779.12	67.73
779.434	66.99
779.747	67.3
780.061	67.38
780.375	67.6
780.689	68.37
781.002	68.22
781.316	67.68
781.629	67.52
781.943	67.41
782.256	67.55
782.57	67.79
782.883	67.53
783.196	67.45
783.51	67.53
783.823	67.52
784.136	66.92
784.449	66.29
784.762	66.26
785.075	66.28
785.388	66.73
785.701	66.72
786.014	66.77
786.327	66.24
786.64	67.36
786.953	67.5
787.266	67.11
787.578	67.64
787.891	67.72
788.204	67.45
788.516	68
788.829	67.78
789.141	67.7
789.454	67.92
789.766	68.54
790.079	68.62
790.391	69.04
790.703	69.21
791.016	69.47
791.328	69.64
791.64	69.18
791.952	69.74
792.264	69.84
792.576	70.44
792.888	70.36
793.2	69.45
793.512	68.84
793.824	68.93
794.136	68.62
794.448	69.18
794.76	69.95
795.071	69.7
795.383	69.19
795.695	68.92
796.006	68.26
796.318	68.35
796.629	68.77
796.941	68.65
797.252	68.91
797.564	68.99
797.875	68.78
798.186	68.49
798.497	67.53
798.809	67.74
799.12	67.35
799.431	67.59
799.742	68.08
800.053	69.01
800.364	68.95
800.675	68.69
800.986	68.51
801.297	68.83
801.608	68.53
801.918	68.64
802.229	68.6
802.54	69
802.851	69.1
803.161	68.38
803.472	68.33
803.782	68.02
804.093	68.14
804.403	68.6
804.714	69.06
805.024	69.18
805.334	68.71
805.645	68.75
805.955	69.1
806.265	69.21
806.575	69.05
806.885	68.53
807.195	67.85
807.505	67.32
807.815	66.8
808.125	66.94
808.435	67.24
808.745	67.25
809.055	67.05
809.365	66.36
809.674	66.71
809.984	66.91
810.294	66.69
810.603	66.16
810.913	65.73
811.222	66.32
811.532	66.52
811.841	66.99
812.151	67.65
812.46	67.39
812.769	67.18
813.079	66.77
813.388	67.05
813.697	67.32
814.006	67.69
814.315	67.49
814.624	67.19
814.933	67.25
815.242	67.79
815.551	67.88
815.86	68.24
816.169	68.25
816.478	68.13
816.786	68.59
817.095	68.78
817.404	68.17
817.712	67.65
818.021	67.3
818.33	67.82
818.638	67.17
818.947	66.95
819.255	66.77
819.563	67.1
819.872	67.03
820.18	67.71
820.488	67.97
820.796	68.37
821.105	68.61
821.413	68.85
821.721	69.08
822.029	69.34
822.337	69.51
822.645	69.55
822.953	69.57
823.26	69.79
823.568	69.85
823.876	70.04
824.184	69.93
824.491	70.12
824.799	70.09
825.107	70.28
825.414	70.58
825.722	70.77
826.029	70.89
826.337	71.21
826.644	71.17
826.951	71.14
827.259	71.12
827.566	71.08
827.873	70.95
828.18	71.19
828.488	71.33
828.795	71.24
829.102	71.25
829.409	71.26
829.716	71.01
830.023	71
830.329	71.01
830.636	71.31
830.943	71.6
831.25	71.66
831.557	71.29
831.863	70.95
832.17	71.19
832.476	71.21
832.783	71.57
833.089	71.88
833.396	72.05
833.702	72.31
834.009	72.61
834.315	73.06
834.621	72.49
834.928	72.59
835.234	72.21
835.54	72.51
835.846	72.68
836.152	71.81
836.458	71.46
836.764	71.42
837.07	70.57
837.376	69.89
837.682	69.46
837.988	69.96
838.293	69.96
838.599	68.89
838.905	68.7
839.211	67.51
839.516	66.55
839.822	66.45
840.127	65.73
840.433	65.25
840.738	64.49
841.044	64.27
841.349	62.94
841.654	63.31
841.959	63.41
842.265	62.7
842.57	65.08
842.875	65.96
843.18	67.21
843.485	69.36
843.79	69.92
844.095	71.18
844.4	71.67
844.705	72.3
845.01	73.75
845.315	73.92
845.619	74.84
845.924	74.62
846.229	74.86
846.533	75.49
846.838	76.03
847.142	76.44
847.447	75.76
847.751	75.86
848.056	76.52
848.36	76.44
848.664	77.69
848.969	76.33
849.273	75.22
849.577	73.17
849.881	74.07
850.185	72.18
850.489	69.35
850.794	67.02
851.097	67.47
851.401	69.32
851.705	68.26
852.009	69.54
852.313	70.38
852.617	70.63
852.92	72.17
853.224	71.32
853.528	72.3
853.831	74.47
854.135	77.3
854.438	75.18
854.742	74.81
855.045	72.26
855.349	74.29
855.652	74.22
855.955	76.09
856.259	74.21
856.562	76.62
856.865	77.95
857.168	80.04
857.471	78.31
857.774	76.12
858.077	76.16
858.38	73.36
858.683	74.36
858.986	74.46
859.289	72
859.592	70.33
859.894	70.38
860.197	69.06
860.5	67.23
860.802	69.39
861.105	69.94
861.407	72.1
861.71	72.39
862.012	73.92
862.315	72.88
862.617	72.3
862.919	69.73
863.222	69.39
863.524	67.73
863.826	67.57
864.128	67.66
864.43	67.66
864.732	69.87
865.034	71.01
865.336	70.83
865.638	71.03
865.94	71.9
866.242	69.13
866.544	67.01
866.846	65.64
867.147	62.11
867.449	60.51
867.751	60.71
868.052	59.98
868.354	58.82
868.655	60.28
868.957	63.99
869.258	64.66
869.56	64.15
869.861	65.96
870.162	66.26
870.463	64.4
870.765	66.48
871.066	66.31
871.367	65.6
871.668	62.36
871.969	63.29
872.27	64.78
872.571	65.04
872.872	68.93
873.173	71.82
873.473	76.43
873.774	76.79
874.075	74.45
874.376	74.95
874.676	76.04
874.977	73.87
875.277	69.16
875.578	70.78
875.878	71.86
876.179	71.23
876.479	71.73
876.78	72.94
877.08	71.18
877.38	71.16
877.68	70.91
877.981	75.56
878.281	75.41
878.581	75.5
