Data from BA28473_Reflection_00012.txt Node
Date: Mon Nov 18 15:28:39 EST 2019
User: vgr7
Spectrometer: USB2G7710
Scans to average: 3
Trigger mode: 4
Integration Time (sec): 2.000000E-2
Electric dark correction enabled: true
Boxcar width: 10
XAxis mode: Wavelengths
Number of Pixels in Spectrum: 2048
>>>>>Begin Spectral Data<<<<<
177.721	21.67
178.105	-81.18
178.488	-101.28
178.871	-209.95
179.254	-240.84
179.636	-307.3
180.019	-1350.38
180.402	262.5
180.785	-1432.47
181.168	-428.85
181.55	-287.67
181.933	108.58
182.316	88.27
182.698	69.22
183.081	60.56
183.463	31.81
183.846	32.01
184.228	53.55
184.611	34.06
184.993	137.35
185.376	155.14
185.758	122.21
186.14	214.38
186.522	139.48
186.904	112.17
187.287	119.33
187.669	169.4
188.051	163.57
188.433	187.51
188.815	139.58
189.197	126.73
189.579	57.05
189.961	227.14
190.342	109.24
190.724	84.83
191.106	131.18
191.488	-69.76
191.869	-2.89
192.251	-11.42
192.633	-26.88
193.014	-12.63
193.396	18.96
193.777	-47.76
194.159	-61.7
194.54	-28.77
194.922	-43.45
195.303	-135.29
195.684	-128.11
196.065	3.37
196.447	58.22
196.828	59.18
197.209	-124.85
197.59	-135.29
197.971	-19.69
198.352	-33.16
198.733	-90.4
199.114	-49.88
199.495	-21.02
199.876	-24.48
200.257	-23.74
200.638	-0.14
201.018	-12.46
201.399	-8.37
201.78	-2.69
202.16	0.44
202.541	0.19
202.922	-6.44
203.302	-6.16
203.683	-6.85
204.063	-50.97
204.444	-40.9
204.824	-27.88
205.204	-34.53
205.585	-22.37
205.965	-15.32
206.345	-20.01
206.725	-24.56
207.106	-38.45
207.486	-100.51
207.866	-121.67
208.246	-76.76
208.626	-69.42
209.006	-33.96
209.386	-38.72
209.766	-63.14
210.145	-65.58
210.525	-46.61
210.905	-26.75
211.285	-27.3
211.664	-6.57
212.044	38.88
212.424	35.21
212.803	24.72
213.183	4.02
213.562	-20.02
213.942	17.09
214.321	35.87
214.701	22.02
215.08	28.22
215.459	39.37
215.838	71.1
216.218	54.56
216.597	26.47
216.976	44.68
217.355	61.99
217.734	64.54
218.113	56.23
218.492	26.19
218.871	23.57
219.25	46.17
219.629	22.24
220.008	14.44
220.387	6.21
220.766	7.3
221.144	-18.45
221.523	-25.89
221.902	-63.64
222.28	-88.36
222.659	-68.47
223.037	-49.51
223.416	-40.04
223.794	-53.67
224.173	-40.06
224.551	-28.16
224.929	-29.73
225.308	-25.6
225.686	-26.02
226.064	-28.87
226.442	-19.31
226.821	-14.06
227.199	-12.84
227.577	-14.05
227.955	-11.64
228.333	-9.45
228.711	-8.2
229.089	-2.94
229.467	-2.24
229.845	-1.76
230.222	0.51
230.6	-1.34
230.978	-4.01
231.356	-4.46
231.733	-3.75
232.111	-2.48
232.488	-1.87
232.866	-1.19
233.243	-1.95
233.621	-0.92
233.998	0.14
234.376	-0.82
234.753	-2.6
235.13	-1.38
235.508	-0.09
235.885	-0.98
236.262	-2
236.639	-0.97
237.016	-1.21
237.393	1.21
237.77	2
238.147	2.86
238.524	2.74
238.901	3.33
239.278	4.12
239.655	4.96
240.032	4.66
240.409	4.39
240.785	4.31
241.162	4.66
241.539	4.74
241.915	5.13
242.292	5.18
242.668	5.47
243.045	5.24
243.421	4.98
243.798	5
244.174	4.93
244.551	4.79
244.927	4.98
245.303	4.75
245.679	4.74
246.056	4.51
246.432	4.71
246.808	4.73
247.184	4.48
247.56	4.16
247.936	4.05
248.312	4.16
248.688	4.31
249.064	4.32
249.44	4.32
249.815	4.16
250.191	4.27
250.567	4.05
250.943	3.65
251.318	3.91
251.694	3.97
252.069	4.04
252.445	4.21
252.82	4.3
253.196	4.09
253.571	4.02
253.947	4.55
254.322	4.62
254.697	4.51
255.073	4.09
255.448	3.98
255.823	4.13
256.198	4.08
256.573	3.62
256.948	3.66
257.323	3.65
257.698	3.62
258.073	3.72
258.448	3.72
258.823	3.82
259.198	3.7
259.573	3.72
259.948	3.7
260.322	3.69
260.697	3.51
261.072	3.46
261.446	3.56
261.821	3.32
262.195	3.35
262.57	3.35
262.944	3.56
263.319	3.73
263.693	3.63
264.067	3.66
264.442	3.94
264.816	3.78
265.19	3.67
265.564	3.7
265.938	3.48
266.313	3.65
266.687	3.78
267.061	3.89
267.435	3.96
267.809	4.09
268.183	3.97
268.556	4.02
268.93	4.19
269.304	4.19
269.678	4.33
270.051	4.21
270.425	4.24
270.799	4.05
271.172	3.98
271.546	3.98
271.919	3.92
272.293	3.85
272.666	4.02
273.04	4.11
273.413	4.15
273.787	4.19
274.16	4.06
274.533	3.94
274.906	3.8
275.279	3.73
275.653	3.75
276.026	3.81
276.399	3.72
276.772	3.73
277.145	3.62
277.518	3.61
277.891	3.84
278.263	3.83
278.636	3.95
279.009	3.86
279.382	4.1
279.755	4.12
280.127	4.24
280.5	4.3
280.872	4.43
281.245	4.32
281.617	4.32
281.99	4.44
282.362	4.5
282.735	4.47
283.107	4.36
283.479	4.26
283.852	4.12
284.224	4.22
284.596	4.22
284.968	4.28
285.34	4.26
285.713	4.16
286.085	4.2
286.457	4.37
286.829	4.49
287.201	4.45
287.572	4.32
287.944	4.2
288.316	4.07
288.688	3.82
289.06	3.93
289.431	3.98
289.803	4.02
290.175	4.07
290.546	4.28
290.918	4.35
291.289	4.47
291.661	4.66
292.032	4.73
292.403	4.7
292.775	4.78
293.146	4.75
293.517	4.66
293.889	4.68
294.26	4.52
294.631	4.51
295.002	4.38
295.373	4.47
295.744	4.5
296.115	4.54
296.486	4.51
296.857	4.51
297.228	4.48
297.599	4.43
297.97	4.42
298.34	4.39
298.711	4.43
299.082	4.36
299.452	4.38
299.823	4.52
300.194	4.51
300.564	4.32
300.935	4.45
301.305	4.47
301.676	4.43
302.046	4.49
302.416	4.57
302.787	4.68
303.157	4.66
303.527	4.62
303.897	4.61
304.267	4.93
304.637	4.86
305.008	4.93
305.378	5.1
305.748	5.14
306.117	5.03
306.487	5.09
306.857	5.03
307.227	4.9
307.597	4.78
307.967	4.82
308.336	4.88
308.706	4.86
309.076	4.87
309.445	4.97
309.815	4.96
310.184	4.74
310.554	4.81
310.923	4.82
311.293	4.84
311.662	4.76
312.031	4.68
312.401	4.69
312.77	4.68
313.139	4.62
313.508	4.6
313.877	4.52
314.246	4.51
314.616	4.45
314.985	4.45
315.353	4.33
315.722	4.39
316.091	4.48
316.46	4.48
316.829	4.49
317.198	4.43
317.567	4.56
317.935	4.67
318.304	4.63
318.672	4.7
319.041	4.82
319.41	4.94
319.778	5.18
320.147	5.19
320.515	5.1
320.883	5.02
321.252	5.03
321.62	5.19
321.988	5.03
322.357	5.09
322.725	5.2
323.093	5.23
323.461	5.11
323.829	4.98
324.197	4.99
324.565	5.03
324.933	5
325.301	5.01
325.669	5.12
326.037	5.17
326.405	5.17
326.772	5.14
327.14	5.19
327.508	5.02
327.875	5.12
328.243	5.18
328.61	5.23
328.978	5.21
329.346	5.17
329.713	5.07
330.08	5.23
330.448	5.26
330.815	5.15
331.182	5.09
331.55	5.31
331.917	5.37
332.284	5.51
332.651	5.5
333.018	5.36
333.385	5.35
333.752	5.38
334.119	5.42
334.486	5.46
334.853	5.43
335.22	5.49
335.587	5.54
335.954	5.72
336.32	5.77
336.687	5.9
337.054	5.94
337.42	6.08
337.787	6.06
338.153	5.96
338.52	6.14
338.886	6.3
339.253	6.15
339.619	6.05
339.986	5.96
340.352	6.13
340.718	6.13
341.084	6.08
341.451	6.09
341.817	6.1
342.183	6.07
342.549	6.04
342.915	6.1
343.281	6.05
343.647	5.91
344.013	5.95
344.379	5.93
344.745	5.94
345.11	5.95
345.476	5.89
345.842	5.99
346.208	5.92
346.573	5.86
346.939	5.94
347.304	5.92
347.67	5.87
348.035	5.86
348.401	5.93
348.766	5.98
349.132	5.96
349.497	5.93
349.862	6.05
350.228	6.08
350.593	5.95
350.958	5.94
351.323	6.04
351.688	5.96
352.053	5.93
352.418	6
352.783	6.08
353.148	6.06
353.513	6.05
353.878	6.12
354.243	6.25
354.608	6.15
354.972	6.18
355.337	6.25
355.702	6.19
356.066	6.17
356.431	6.17
356.795	6.2
357.16	6.18
357.524	6.07
357.889	6.06
358.253	6.11
358.618	6.15
358.982	6.09
359.346	6.01
359.71	6.02
360.075	5.95
360.439	5.96
360.803	5.91
361.167	5.88
361.531	5.91
361.895	5.82
362.259	5.85
362.623	5.87
362.987	5.84
363.351	5.87
363.714	5.83
364.078	5.76
364.442	5.76
364.806	5.76
365.169	5.77
365.533	5.73
365.896	5.71
366.26	5.64
366.623	5.7
366.987	5.73
367.35	5.71
367.714	5.69
368.077	5.59
368.44	5.66
368.803	5.63
369.167	5.5
369.53	5.52
369.893	5.52
370.256	5.46
370.619	5.42
370.982	5.34
371.345	5.35
371.708	5.44
372.071	5.33
372.434	5.28
372.797	5.25
373.159	5.29
373.522	5.29
373.885	5.29
374.247	5.23
374.61	5.24
374.973	5.21
375.335	5.21
375.698	5.24
376.06	5.21
376.423	5.21
376.785	5.31
377.147	5.26
377.51	5.27
377.872	5.27
378.234	5.26
378.596	5.23
378.958	5.22
379.321	5.2
379.683	5.22
380.045	5.23
380.407	5.23
380.769	5.21
381.13	5.21
381.492	5.14
381.854	5.13
382.216	5.13
382.578	5.17
382.939	5.12
383.301	5.09
383.663	5.05
384.024	5.04
384.386	5
384.747	5.05
385.109	5
385.47	4.97
385.832	4.98
386.193	5.02
386.554	5.04
386.916	4.97
387.277	4.96
387.638	4.93
387.999	4.9
388.36	4.87
388.721	4.85
389.082	4.89
389.443	4.82
389.804	4.84
390.165	4.77
390.526	4.8
390.887	4.81
391.248	4.83
391.609	4.82
391.969	4.79
392.33	4.74
392.691	4.73
393.051	4.69
393.412	4.69
393.772	4.65
394.133	4.59
394.493	4.58
394.854	4.55
395.214	4.53
395.574	4.56
395.935	4.56
396.295	4.57
396.655	4.53
397.015	4.54
397.376	4.47
397.736	4.44
398.096	4.39
398.456	4.35
398.816	4.32
399.176	4.25
399.535	4.22
399.895	4.22
400.255	4.22
400.615	4.23
400.975	4.19
401.334	4.17
401.694	4.14
402.054	4.15
402.413	4.17
402.773	4.16
403.132	4.11
403.492	4.1
403.851	4.08
404.211	4.05
404.57	4.04
404.929	4.04
405.288	4.04
405.648	4.03
406.007	4.04
406.366	4.02
406.725	4.08
407.084	4.07
407.443	4.06
407.802	4.06
408.161	4.05
408.52	4.06
408.879	4.06
409.238	4.08
409.596	4.05
409.955	4.02
410.314	4.03
410.673	4
411.031	3.99
411.39	3.96
411.748	3.97
412.107	3.97
412.465	3.98
412.824	3.97
413.182	3.96
413.54	3.96
413.899	3.97
414.257	3.93
414.615	3.92
414.974	3.88
415.332	3.86
415.69	3.84
416.048	3.84
416.406	3.82
416.764	3.8
417.122	3.78
417.48	3.76
417.838	3.75
418.195	3.76
418.553	3.77
418.911	3.75
419.269	3.75
419.626	3.74
419.984	3.71
420.342	3.72
420.699	3.72
421.057	3.71
421.414	3.7
421.772	3.67
422.129	3.66
422.486	3.65
422.844	3.66
423.201	3.64
423.558	3.62
423.915	3.61
424.273	3.61
424.63	3.6
424.987	3.61
425.344	3.59
425.701	3.58
426.058	3.54
426.415	3.53
426.772	3.5
427.128	3.47
427.485	3.48
427.842	3.46
428.199	3.45
428.555	3.44
428.912	3.43
429.269	3.46
429.625	3.46
429.982	3.47
430.338	3.46
430.695	3.46
431.051	3.44
431.407	3.43
431.764	3.42
432.12	3.43
432.476	3.44
432.832	3.44
433.189	3.45
433.545	3.46
433.901	3.48
434.257	3.5
434.613	3.51
434.969	3.52
435.325	3.53
435.681	3.52
436.036	3.51
436.392	3.49
436.748	3.48
437.104	3.47
437.459	3.47
437.815	3.48
438.171	3.48
438.526	3.49
438.882	3.5
439.237	3.51
439.593	3.52
439.948	3.5
440.304	3.49
440.659	3.48
441.014	3.48
441.369	3.48
441.725	3.46
442.08	3.44
442.435	3.43
442.79	3.42
443.145	3.44
443.5	3.44
443.855	3.44
444.21	3.44
444.565	3.43
444.92	3.43
445.275	3.41
445.629	3.39
445.984	3.39
446.339	3.37
446.693	3.35
447.048	3.33
447.403	3.32
447.757	3.32
448.112	3.3
448.466	3.28
448.82	3.28
449.175	3.29
449.529	3.3
449.883	3.28
450.238	3.28
450.592	3.25
450.946	3.25
451.3	3.26
451.654	3.25
452.008	3.26
452.362	3.24
452.716	3.25
453.07	3.26
453.424	3.25
453.778	3.24
454.132	3.24
454.486	3.25
454.839	3.25
455.193	3.25
455.547	3.24
455.9	3.26
456.254	3.25
456.607	3.24
456.961	3.24
457.314	3.26
457.668	3.27
458.021	3.28
458.375	3.27
458.728	3.28
459.081	3.28
459.434	3.28
459.787	3.29
460.141	3.28
460.494	3.29
460.847	3.31
461.2	3.32
461.553	3.35
461.906	3.35
462.259	3.35
462.611	3.38
462.964	3.4
463.317	3.41
463.67	3.44
464.022	3.43
464.375	3.44
464.728	3.43
465.08	3.42
465.433	3.42
465.785	3.41
466.138	3.4
466.49	3.4
466.843	3.4
467.195	3.42
467.547	3.45
467.899	3.42
468.252	3.41
468.604	3.41
468.956	3.42
469.308	3.43
469.66	3.41
470.012	3.41
470.364	3.4
470.716	3.41
471.068	3.39
471.42	3.4
471.772	3.42
472.123	3.41
472.475	3.43
472.827	3.45
473.178	3.47
473.53	3.48
473.882	3.5
474.233	3.52
474.585	3.5
474.936	3.49
475.288	3.53
475.639	3.54
475.99	3.54
476.342	3.54
476.693	3.55
477.044	3.58
477.395	3.58
477.746	3.58
478.097	3.56
478.448	3.57
478.8	3.57
479.15	3.54
479.501	3.55
479.852	3.52
480.203	3.52
480.554	3.51
480.905	3.5
481.255	3.49
481.606	3.49
481.957	3.49
482.307	3.5
482.658	3.49
483.009	3.48
483.359	3.49
483.709	3.47
484.06	3.48
484.41	3.47
484.761	3.47
485.111	3.48
485.461	3.48
485.811	3.47
486.162	3.47
486.512	3.48
486.862	3.48
487.212	3.48
487.562	3.49
487.912	3.49
488.262	3.5
488.612	3.5
488.961	3.5
489.311	3.51
489.661	3.5
490.011	3.5
490.36	3.5
490.71	3.5
491.06	3.52
491.409	3.51
491.759	3.52
492.108	3.52
492.458	3.53
492.807	3.54
493.157	3.56
493.506	3.56
493.855	3.58
494.204	3.57
494.554	3.58
494.903	3.58
495.252	3.6
495.601	3.62
495.95	3.64
496.299	3.64
496.648	3.65
496.997	3.67
497.346	3.68
497.695	3.72
498.043	3.72
498.392	3.72
498.741	3.74
499.09	3.75
499.438	3.78
499.787	3.8
500.135	3.83
500.484	3.84
500.832	3.86
501.181	3.9
501.529	3.92
501.878	3.98
502.226	4
502.574	4.02
502.923	4.06
503.271	4.06
503.619	4.11
503.967	4.15
504.315	4.18
504.663	4.24
505.011	4.26
505.359	4.31
505.707	4.37
506.055	4.41
506.403	4.44
506.751	4.48
507.098	4.52
507.446	4.57
507.794	4.6
508.141	4.62
508.489	4.66
508.837	4.72
509.184	4.74
509.531	4.78
509.879	4.82
510.226	4.86
510.574	4.91
510.921	4.92
511.268	4.97
511.616	5.02
511.963	5.05
512.31	5.09
512.657	5.16
513.004	5.21
513.351	5.27
513.698	5.33
514.045	5.38
514.392	5.42
514.739	5.46
515.086	5.5
515.432	5.57
515.779	5.63
516.126	5.7
516.473	5.75
516.819	5.83
517.166	5.88
517.512	5.91
517.859	5.98
518.205	6.03
518.552	6.08
518.898	6.12
519.245	6.18
519.591	6.24
519.937	6.26
520.283	6.31
520.629	6.36
520.976	6.41
521.322	6.47
521.668	6.53
522.014	6.6
522.36	6.69
522.706	6.77
523.052	6.84
523.398	6.91
523.743	6.99
524.089	7.08
524.435	7.16
524.781	7.25
525.126	7.33
525.472	7.42
525.817	7.49
526.163	7.56
526.509	7.63
526.854	7.7
527.199	7.77
527.545	7.83
527.89	7.89
528.235	7.96
528.581	8.02
528.926	8.08
529.271	8.15
529.616	8.21
529.961	8.29
530.306	8.36
530.651	8.45
530.996	8.53
531.341	8.62
531.686	8.71
532.031	8.82
532.376	8.93
532.721	9.03
533.065	9.12
533.41	9.23
533.755	9.33
534.099	9.45
534.444	9.56
534.788	9.69
535.133	9.8
535.477	9.95
535.822	10.09
536.166	10.24
536.51	10.4
536.855	10.57
537.199	10.72
537.543	10.91
537.887	11.1
538.231	11.28
538.576	11.48
538.92	11.66
539.264	11.83
539.608	11.98
539.951	12.14
540.295	12.32
540.639	12.47
540.983	12.62
541.327	12.77
541.671	12.9
542.014	13.07
542.358	13.23
542.701	13.38
543.045	13.54
543.389	13.71
543.732	13.87
544.075	14.04
544.419	14.19
544.762	14.37
545.105	14.53
545.449	14.7
545.792	14.89
546.135	15.13
546.478	15.35
546.821	15.59
547.165	15.81
547.508	16.07
547.851	16.29
548.194	16.54
548.536	16.78
548.879	17.07
549.222	17.3
549.565	17.53
549.908	17.76
550.25	18.02
550.593	18.26
550.936	18.53
551.278	18.79
551.621	19.07
551.963	19.37
552.306	19.65
552.648	19.93
552.991	20.16
553.333	20.38
553.675	20.64
554.017	20.85
554.36	21.12
554.702	21.34
555.044	21.63
555.386	21.87
555.728	22.15
556.07	22.41
556.412	22.67
556.754	22.97
557.096	23.24
557.438	23.49
557.78	23.79
558.121	24.09
558.463	24.38
558.805	24.64
559.147	24.86
559.488	25.15
559.83	25.43
560.171	25.71
560.513	25.98
560.854	26.26
561.196	26.57
561.537	26.79
561.878	27.02
562.22	27.25
562.561	27.5
562.902	27.74
563.243	27.98
563.584	28.19
563.925	28.41
564.266	28.61
564.607	28.86
564.948	29.05
565.289	29.2
565.63	29.4
565.971	29.58
566.312	29.82
566.653	29.99
566.993	30.17
567.334	30.38
567.675	30.55
568.015	30.76
568.356	30.93
568.696	31.15
569.037	31.35
569.377	31.53
569.718	31.72
570.058	31.9
570.398	32.03
570.739	32.26
571.079	32.43
571.419	32.62
571.759	32.82
572.099	32.98
572.439	33.23
572.779	33.37
573.119	33.6
573.459	33.74
573.799	33.96
574.139	34.15
574.479	34.29
574.819	34.47
575.158	34.56
575.498	34.69
575.838	34.82
576.177	34.99
576.517	35.18
576.856	35.38
577.196	35.57
577.535	35.77
577.875	35.94
578.214	36.09
578.553	36.38
578.893	36.52
579.232	36.66
579.571	36.8
579.91	37.01
580.25	37.13
580.589	37.34
580.928	37.48
581.267	37.6
581.606	37.7
581.945	37.9
582.283	38.1
582.622	38.25
582.961	38.43
583.3	38.56
583.639	38.64
583.977	38.78
584.316	38.91
584.654	39.08
584.993	39.18
585.332	39.33
585.67	39.34
586.008	39.49
586.347	39.71
586.685	39.79
587.024	39.88
587.362	40.01
587.7	40.06
588.038	40.11
588.376	40.2
588.715	40.39
589.053	40.5
589.391	40.65
589.729	40.84
590.067	40.94
590.404	41.05
590.742	41.11
591.08	41.2
591.418	41.37
591.756	41.47
592.093	41.61
592.431	41.76
592.769	41.8
593.106	41.9
593.444	41.97
593.781	42.11
594.119	42.16
594.456	42.24
594.793	42.33
595.131	42.45
595.468	42.58
595.805	42.62
596.143	42.68
596.48	42.67
596.817	42.72
597.154	42.83
597.491	42.95
597.828	43.05
598.165	43.15
598.502	43.18
598.839	43.21
599.176	43.26
599.512	43.36
599.849	43.5
600.186	43.53
600.523	43.63
600.859	43.7
601.196	43.83
601.532	43.92
601.869	43.97
602.205	44.04
602.542	44.15
602.878	44.17
603.215	44.2
603.551	44.29
603.887	44.35
604.223	44.41
604.56	44.48
604.896	44.57
605.232	44.59
605.568	44.65
605.904	44.74
606.24	44.78
606.576	44.81
606.912	44.85
607.248	44.9
607.583	44.94
607.919	44.99
608.255	45.02
608.591	45.08
608.926	45.16
609.262	45.21
609.597	45.26
609.933	45.38
610.268	45.48
610.604	45.54
610.939	45.61
611.275	45.59
611.61	45.58
611.945	45.7
612.281	45.77
612.616	45.8
612.951	45.88
613.286	45.91
613.621	45.89
613.956	45.99
614.291	46.07
614.626	46.07
614.961	46.13
615.296	46.25
615.631	46.32
615.966	46.37
616.3	46.47
616.635	46.48
616.97	46.59
617.304	46.62
617.639	46.73
617.973	46.72
618.308	46.74
618.642	46.86
618.977	46.79
619.311	46.91
619.646	46.92
619.98	46.94
620.314	47.08
620.648	47.21
620.983	47.18
621.317	47.21
621.651	47.24
621.985	47.3
622.319	47.33
622.653	47.36
622.987	47.47
623.321	47.47
623.655	47.52
623.988	47.62
624.322	47.65
624.656	47.67
624.99	47.74
625.323	47.88
625.657	47.79
625.99	47.9
626.324	47.93
626.657	47.98
626.991	47.97
627.324	48
627.658	48.06
627.991	48.14
628.324	48.19
628.657	48.31
628.991	48.38
629.324	48.48
629.657	48.47
629.99	48.45
630.323	48.49
630.656	48.53
630.989	48.43
631.322	48.53
631.655	48.54
631.987	48.56
632.32	48.59
632.653	48.73
632.986	48.76
633.318	48.81
633.651	48.87
633.984	48.9
634.316	48.9
634.649	48.9
634.981	48.86
635.313	48.95
635.646	48.92
635.978	48.99
636.31	48.94
636.643	49.06
636.975	49.15
637.307	49.2
637.639	49.22
637.971	49.21
638.303	49.23
638.635	49.41
638.967	49.53
639.299	49.54
639.631	49.54
639.963	49.52
640.295	49.52
640.626	49.54
640.958	49.66
641.29	49.74
641.621	49.85
641.953	49.94
642.285	49.92
642.616	50.03
642.948	50
643.279	49.95
643.61	49.99
643.942	49.98
644.273	50.03
644.604	50.02
644.936	50.05
645.267	50.03
645.598	49.93
645.929	49.9
646.26	49.99
646.591	50.03
646.922	50.03
647.253	49.99
647.584	50.09
647.915	50.14
648.245	50.17
648.576	50.17
648.907	50.15
649.238	50.23
649.568	50.26
649.899	50.32
650.229	50.41
650.56	50.42
650.89	50.5
651.221	50.44
651.551	50.51
651.882	50.53
652.212	50.61
652.542	50.67
652.872	50.57
653.203	50.59
653.533	50.64
653.863	50.7
654.193	50.86
654.523	50.86
654.853	50.82
655.183	50.78
655.513	50.75
655.843	50.86
656.172	50.94
656.502	50.83
656.832	50.89
657.162	51.05
657.491	51.04
657.821	51
658.15	51.02
658.48	51.1
658.809	51.18
659.139	51.04
659.468	51.01
659.798	51.09
660.127	51.04
660.456	51.02
660.785	51.09
661.115	51.05
661.444	51.07
661.773	51.09
662.102	51.21
662.431	51.2
662.76	51.25
663.089	51.13
663.418	51.29
663.747	51.3
664.076	51.31
664.404	51.3
664.733	51.42
665.062	51.55
665.39	51.53
665.719	51.6
666.048	51.65
666.376	51.74
666.705	51.83
667.033	51.86
667.362	51.96
667.69	51.93
668.018	51.87
668.347	51.97
668.675	52.13
669.003	52.21
669.331	52.37
669.659	52.36
669.987	52.42
670.315	52.41
670.643	52.42
670.971	52.4
671.299	52.51
671.627	52.43
671.955	52.46
672.283	52.56
672.61	52.57
672.938	52.77
673.266	52.79
673.593	52.92
673.921	53.01
674.249	53.01
674.576	53.07
674.904	53.2
675.231	53.15
675.558	53.02
675.886	52.95
676.213	52.95
676.54	52.97
676.867	53.13
677.195	53.13
677.522	53.13
677.849	53.18
678.176	53.12
678.503	53.24
678.83	53.19
679.157	53.08
679.484	53.05
679.81	53.04
680.137	53.01
680.464	52.96
680.791	52.91
681.117	52.87
681.444	52.85
681.771	52.85
682.097	52.82
682.424	52.98
682.75	52.98
683.077	53.01
683.403	53.07
683.729	53.04
684.056	53.13
684.382	53.17
684.708	53.15
685.034	53.21
685.36	53.11
685.686	53.09
686.012	53.14
686.339	53.26
686.664	53.24
686.99	53.47
687.316	53.59
687.642	53.61
687.968	53.81
688.294	53.83
688.619	53.85
688.945	53.83
689.271	53.77
689.596	53.75
689.922	53.58
690.247	53.61
690.573	53.54
690.898	53.53
691.224	53.5
691.549	53.42
691.874	53.38
692.2	53.56
692.525	53.65
692.85	53.68
693.175	53.75
693.5	53.79
693.825	53.63
694.15	53.46
694.475	53.48
694.8	53.31
695.125	53.43
695.45	53.48
695.775	53.52
696.099	53.34
696.424	53.32
696.749	53.38
697.073	53.32
697.398	53.39
697.723	53.34
698.047	53.43
698.372	53.41
698.696	53.48
699.02	53.53
699.345	53.6
699.669	53.58
699.993	53.5
700.318	53.5
700.642	53.46
700.966	53.62
701.29	53.71
701.614	53.82
701.938	53.85
702.262	53.87
702.586	53.96
702.91	54.25
703.234	54.55
703.557	54.57
703.881	54.63
704.205	54.68
704.529	54.78
704.852	54.6
705.176	54.72
705.499	54.91
705.823	54.82
706.146	54.76
706.47	54.97
706.793	54.94
707.117	54.92
707.44	54.78
707.763	54.74
708.086	54.66
708.409	54.6
708.733	54.53
709.056	54.44
709.379	54.33
709.702	54.24
710.025	54.04
710.348	54.12
710.671	53.98
710.993	54.01
711.316	53.9
711.639	54.03
711.962	53.94
712.284	53.84
712.607	53.93
712.93	53.86
713.252	53.76
713.575	53.82
713.897	53.95
714.22	54.19
714.542	54.29
714.864	54.32
715.187	54.34
715.509	54.31
715.831	54.43
716.153	54.59
716.475	54.67
716.798	54.74
717.12	54.65
717.442	54.89
717.764	55
718.085	55.35
718.407	55.29
718.729	55.4
719.051	55.45
719.373	55.44
719.695	55.49
720.016	55.51
720.338	55.52
720.659	55.4
720.981	55.3
721.302	55.28
721.624	55.31
721.945	55.42
722.267	55.6
722.588	55.33
722.909	55.4
723.231	55.32
723.552	55.26
723.873	55.5
724.194	55.37
724.515	55.21
724.836	54.75
725.157	54.81
725.478	54.77
725.799	54.71
726.12	54.72
726.441	55.02
726.762	55.36
727.083	55.5
727.403	55.65
727.724	55.84
728.045	55.56
728.365	55.4
728.686	55.28
729.006	55.22
729.327	55.29
729.647	55.22
729.967	55.08
730.288	55.3
730.608	55.16
730.928	55.2
731.249	55.35
731.569	55.52
731.889	55.53
732.209	55.6
732.529	55.84
732.849	55.64
733.169	55.45
733.489	54.93
733.809	55.03
734.129	54.95
734.448	54.83
734.768	55.1
735.088	55.28
735.408	55.36
735.727	55.35
736.047	55.64
736.366	55.52
736.686	55.81
737.005	55.58
737.325	55.9
737.644	56.14
737.963	56.09
738.283	56.03
738.602	56.13
738.921	56.15
739.24	55.79
739.56	55.73
739.879	55.73
740.198	56.1
740.517	55.91
740.836	56.04
741.155	56.05
741.473	55.96
741.792	55.83
742.111	56.02
742.43	56.08
742.748	56.03
743.067	56.33
743.386	56
743.704	56.15
744.023	56.08
744.341	55.95
744.66	55.97
744.978	55.79
745.297	55.54
745.615	55.81
745.933	55.96
746.252	56.26
746.57	56.19
746.888	56.1
747.206	55.92
747.524	55.95
747.842	56.3
748.16	56.11
748.478	56.42
748.796	55.99
749.114	56.01
749.432	56.13
749.749	56.07
750.067	56.42
750.385	56.28
750.703	56.09
751.02	56.03
751.338	55.89
751.655	56.17
751.973	56.28
752.29	56.03
752.608	56.05
752.925	56.3
753.242	56.43
753.56	56.34
753.877	56.72
754.194	56.63
754.511	56.16
754.828	56.51
755.145	56.37
755.462	56.85
755.779	56.91
756.096	56.97
756.413	56.89
756.73	56.61
757.047	56.64
757.364	56.77
757.68	56.81
757.997	56.86
758.314	56.86
758.63	57.07
758.947	56.83
759.264	57.06
759.58	56.79
759.896	56.63
760.213	56.97
760.529	56.62
760.846	56.76
761.162	56.87
761.478	56.59
761.794	56.59
762.11	56.26
762.426	55.96
762.743	55.88
763.059	55.82
763.375	55.83
763.69	56.02
764.006	56.24
764.322	56.27
764.638	56.44
764.954	56.38
765.27	56.3
765.585	56.38
765.901	56.38
766.216	56.44
766.532	56.66
766.848	56.57
767.163	56.87
767.478	56.73
767.794	56.63
768.109	56.71
768.424	56.76
768.74	57.18
769.055	57.69
769.37	57.7
769.685	57.84
770	57.66
770.315	57.7
770.63	57.22
770.945	57.24
771.26	57
771.575	57.01
771.89	57.16
772.205	56.98
772.52	56.94
772.834	56.54
773.149	56.46
773.464	55.99
773.778	55.89
774.093	56.02
774.407	56.05
774.722	56.52
775.036	56.43
775.351	56.35
775.665	56.2
775.979	55.95
776.293	56.21
776.608	56.86
776.922	56.23
777.236	56.54
777.55	56.08
777.864	56.04
778.178	56.66
778.492	56.69
778.806	56.84
779.12	56.79
779.434	57.31
779.747	57.57
780.061	58.19
780.375	58.37
780.689	58.65
781.002	59.09
781.316	58.29
781.629	58.43
781.943	58.43
782.256	58
782.57	58.42
782.883	57.88
783.196	57.24
783.51	57.7
783.823	57.4
784.136	58.32
784.449	58.79
784.762	58.52
785.075	58.1
785.388	58.44
785.701	58.21
786.014	57.63
786.327	57.63
786.64	57.71
786.953	56.99
787.266	56.4
787.578	55.85
787.891	56.27
788.204	56.06
788.516	55.85
788.829	56.4
789.141	56.5
789.454	56.71
789.766	57.47
790.079	57.57
790.391	57.5
790.703	57.32
791.016	56.75
791.328	56.68
791.64	56.97
791.952	56.75
792.264	56.83
792.576	57.39
792.888	57.28
793.2	57.05
793.512	57.79
793.824	57.7
794.136	58.21
794.448	58.38
794.76	58.24
795.071	58.44
795.383	58.11
795.695	57.57
796.006	57.3
796.318	57.78
796.629	57.71
796.941	58
797.252	58.01
797.564	58.44
797.875	58.16
798.186	58.27
798.497	58.82
798.809	59.17
799.12	58.81
799.431	58.65
799.742	58.49
800.053	58.16
800.364	58.54
800.675	58.99
800.986	58.52
801.297	58.43
801.608	58.99
801.918	59.22
802.229	59.73
802.54	59.86
802.851	59.04
803.161	58.69
803.472	59.03
803.782	59.04
804.093	58.93
804.403	59.12
804.714	58.6
805.024	58.27
805.334	57.66
805.645	58.26
805.955	58.67
806.265	59.28
806.575	59.3
806.885	59.39
807.195	58.85
807.505	59.17
807.815	60.09
808.125	59.93
808.435	59.71
808.745	58.99
809.055	59.4
809.365	59.58
809.674	59.84
809.984	60.15
810.294	59.57
810.603	59.85
810.913	60.41
811.222	61.17
811.532	60.67
811.841	61.61
812.151	61.65
812.46	61.55
812.769	60.54
813.079	60.67
813.388	60.62
813.697	60.31
814.006	59.99
814.315	59.53
814.624	59.43
814.933	59.84
815.242	60.85
815.551	60.85
815.86	60.68
816.169	60.89
816.478	60.39
816.786	60.88
817.095	60.85
817.404	60.02
817.712	59.31
818.021	59.88
818.33	59.12
818.638	58.94
818.947	58.36
819.255	59.66
819.563	59.18
819.872	58.89
820.18	58.87
820.488	59.08
820.796	59.48
821.105	59.23
821.413	59.15
821.721	58.92
822.029	58.91
822.337	59.05
822.645	59.01
822.953	58.94
823.26	58.86
823.568	58.98
823.876	59.2
824.184	59.32
824.491	59.39
824.799	59.33
825.107	59.34
825.414	59.63
825.722	59.5
826.029	59.78
826.337	59.98
826.644	60.16
826.951	60.25
827.259	59.83
827.566	59.67
827.873	59.61
828.18	59.72
828.488	59.68
828.795	59.51
829.102	59.67
829.409	59.78
829.716	59.87
830.023	59.65
830.329	59.48
830.636	59.37
830.943	58.83
831.25	58.97
831.557	58.91
831.863	58.38
832.17	58.04
832.476	57.5
832.783	57.4
833.089	57.62
833.396	57.52
833.702	58.64
834.009	59.3
834.315	59.33
834.621	59.08
834.928	59.18
835.234	59.44
835.54	59.09
835.846	59
836.152	58.94
836.458	58.95
836.764	58.79
837.07	59.46
837.376	59.97
837.682	60.36
837.988	60.12
838.293	60.49
838.599	60.55
838.905	60.63
839.211	60.39
839.516	60.08
839.822	60.01
840.127	57.97
840.433	57.2
840.738	57.24
841.044	58.29
841.349	58.12
841.654	57.84
841.959	58.1
842.265	58.63
842.57	58.9
842.875	58.02
843.18	57.36
843.485	56.28
843.79	56.72
844.095	56.1
844.4	56.36
844.705	55.88
845.01	55.5
845.315	56.15
845.619	55.78
845.924	55.32
846.229	54.02
846.533	55.32
846.838	55.61
847.142	55.08
847.447	53.92
847.751	55.11
848.056	54.91
848.36	54.29
848.664	51.68
848.969	50.26
849.273	50.63
849.577	53.25
849.881	51.52
850.185	53.1
850.489	52.6
850.794	52.44
851.097	54.48
851.401	53.95
851.705	54.45
852.009	56.72
852.313	55.28
852.617	56.85
852.92	59.85
853.224	59.16
853.528	60.43
853.831	61.81
854.135	62.09
854.438	62.78
854.742	63.22
855.045	65.32
855.349	66.17
855.652	66.13
855.955	65.47
856.259	67.97
856.562	66.12
856.865	68.18
857.168	67.78
857.471	64.72
857.774	67.85
858.077	67.32
858.38	69.05
858.683	69.71
858.986	74.38
859.289	68.35
859.592	66.67
859.894	69.15
860.197	66.32
860.5	66.28
860.802	64.96
861.105	64.97
861.407	65.24
861.71	64.58
862.012	65.6
862.315	63.75
862.617	61.51
862.919	60.03
863.222	60.23
863.524	61.73
863.826	63.01
864.128	61.8
864.43	61.41
864.732	57.68
865.034	58.17
865.336	53.35
865.638	56.27
865.94	59.85
866.242	55.74
866.544	56.44
866.846	54.99
867.147	55.32
867.449	56.31
867.751	56.56
868.052	59.4
868.354	58.97
868.655	60.82
868.957	62.85
869.258	61.82
869.56	61.74
869.861	60.27
870.162	60.15
870.463	56.79
870.765	56.93
871.066	56.65
871.367	56.85
871.668	56.41
871.969	55.69
872.27	56.91
872.571	60.29
872.872	60.83
873.173	62.2
873.473	62.95
873.774	63.84
874.075	61.27
874.376	60.79
874.676	61.69
874.977	61.9
875.277	61.28
875.578	64.65
875.878	64.08
876.179	64.75
876.479	64.41
876.78	66.94
877.08	68.02
877.38	70.8
877.68	71.01
877.981	74.5
878.281	75.94
878.581	72.59
