Data from BA28306_Reflection_00005.txt Node
Date: Mon Nov 18 15:53:38 EST 2019
User: vgr7
Spectrometer: USB2G7710
Scans to average: 3
Trigger mode: 4
Integration Time (sec): 2.000000E-2
Electric dark correction enabled: true
Boxcar width: 10
XAxis mode: Wavelengths
Number of Pixels in Spectrum: 2048
>>>>>Begin Spectral Data<<<<<
177.721	-278.64
178.105	4.46
178.488	-71.85
178.871	-55.66
179.254	-328.57
179.636	176.53
180.019	-116.17
180.402	113.64
180.785	27.78
181.168	122.59
181.55	112.38
181.933	76.17
182.316	118.91
182.698	127.68
183.081	147.3
183.463	83.11
183.846	-37.06
184.228	17.13
184.611	439.13
184.993	147.29
185.376	19.96
185.758	-156.72
186.14	-95.37
186.522	-76.13
186.904	-94.58
187.287	-113.69
187.669	-25.51
188.051	-24.2
188.433	-10.42
188.815	-37.39
189.197	-73.72
189.579	-107.97
189.961	-110.06
190.342	-78.36
190.724	-40.16
191.106	-67.17
191.488	-97.52
191.869	-126.31
192.251	-140.72
192.633	-130.77
193.014	-154.24
193.396	-123.64
193.777	-49.93
194.159	-26.61
194.54	-18.3
194.922	-5.16
195.303	-28.62
195.684	-48.04
196.065	-34.92
196.447	-42.26
196.828	-42.55
197.209	-23.66
197.59	-31.4
197.971	-31.71
198.352	30.49
198.733	-1.56
199.114	33.49
199.495	25.91
199.876	21.34
200.257	6.29
200.638	16.53
201.018	11.47
201.399	-4.53
201.78	-17.27
202.16	-35.33
202.541	-77.09
202.922	-114.17
203.302	-160.98
203.683	-171.42
204.063	-335.32
204.444	-262.58
204.824	-134.87
205.204	-140.32
205.585	-124.59
205.965	-81.86
206.345	-134.35
206.725	-146.19
207.106	-173.98
207.486	-287.7
207.866	-257.45
208.246	-227.99
208.626	-279.77
209.006	-176.23
209.386	-187.31
209.766	-159.75
210.145	-148.14
210.525	-106.15
210.905	-88.83
211.285	-55.99
211.664	-39.39
212.044	-17.45
212.424	-12.66
212.803	-33.84
213.183	-30.32
213.562	-26.48
213.942	-30.72
214.321	-25.76
214.701	-11.77
215.08	-7.66
215.459	-4.38
215.838	0.14
216.218	-13.55
216.597	3.53
216.976	6.23
217.355	12.84
217.734	12.73
218.113	7.01
218.492	16.35
218.871	-3.71
219.25	1.92
219.629	-11.29
220.008	-17.43
220.387	-9.66
220.766	-5.51
221.144	-18.21
221.523	-17.59
221.902	-22.39
222.28	-32.59
222.659	-23.5
223.037	-26.39
223.416	-26.39
223.794	-12.92
224.173	0.13
224.551	-1.36
224.929	-9.69
225.308	0.4
225.686	2.74
226.064	2.41
226.442	-0.71
226.821	2.42
227.199	1.23
227.577	1.37
227.955	1.07
228.333	-5.52
228.711	-2.84
229.089	3.68
229.467	2.59
229.845	1.68
230.222	4.51
230.6	6.7
230.978	5.86
231.356	7.94
231.733	6.16
232.111	7.53
232.488	6.78
232.866	8.25
233.243	6.41
233.621	4.16
233.998	3.65
234.376	3.77
234.753	5.14
235.13	6.56
235.508	7.39
235.885	6.29
236.262	6.85
236.639	5.12
237.016	4.21
237.393	4.23
237.77	6.15
238.147	5.77
238.524	4.88
238.901	5.58
239.278	5.83
239.655	5.84
240.032	5.52
240.409	4.88
240.785	4.78
241.162	4.75
241.539	5.25
241.915	5.79
242.292	5.56
242.668	5.28
243.045	4.83
243.421	4.87
243.798	5.54
244.174	5.7
244.551	6.04
244.927	6.05
245.303	5.97
245.679	5.78
246.056	5.73
246.432	5.63
246.808	5.6
247.184	5.27
247.56	5.24
247.936	5.12
248.312	5.25
248.688	5.36
249.064	5.48
249.44	5.69
249.815	5.64
250.191	6.02
250.567	6.07
250.943	6.16
251.318	6.15
251.694	5.99
252.069	6.06
252.445	6.07
252.82	6.07
253.196	6.13
253.571	6.24
253.947	6.4
254.322	6.57
254.697	6.42
255.073	6.52
255.448	6.1
255.823	6.03
256.198	6.05
256.573	5.9
256.948	5.9
257.323	5.69
257.698	5.75
258.073	5.38
258.448	5.03
258.823	5
259.198	4.95
259.573	4.89
259.948	4.63
260.322	4.69
260.697	4.72
261.072	4.7
261.446	4.79
261.821	4.63
262.195	4.63
262.57	4.76
262.944	4.57
263.319	4.6
263.693	4.59
264.067	4.69
264.442	4.63
264.816	4.35
265.19	4.23
265.564	4.19
265.938	4.13
266.313	4.41
266.687	4.37
267.061	4.38
267.435	4.52
267.809	4.58
268.183	4.55
268.556	4.4
268.93	4.37
269.304	4.35
269.678	4.48
270.051	4.25
270.425	4.04
270.799	4.17
271.172	4.31
271.546	4.35
271.919	4.24
272.293	4.23
272.666	4.33
273.04	4.41
273.413	4.35
273.787	4.39
274.16	4.45
274.533	4.55
274.906	4.58
275.279	4.53
275.653	4.69
276.026	4.58
276.399	4.77
276.772	4.82
277.145	4.73
277.518	4.74
277.891	4.97
278.263	5.07
278.636	5.08
279.009	5.04
279.382	4.98
279.755	4.82
280.127	4.97
280.5	5.08
280.872	5.18
281.245	5.18
281.617	5.25
281.99	5.23
282.362	5.01
282.735	4.99
283.107	4.82
283.479	4.71
283.852	4.66
284.224	4.66
284.596	4.67
284.968	4.55
285.34	4.65
285.713	4.64
286.085	4.51
286.457	4.56
286.829	4.59
287.201	4.62
287.572	4.62
287.944	4.56
288.316	4.49
288.688	4.35
289.06	4.3
289.431	4.31
289.803	4.37
290.175	4.51
290.546	4.63
290.918	4.79
291.289	4.81
291.661	4.96
292.032	4.85
292.403	4.78
292.775	4.97
293.146	4.81
293.517	4.62
293.889	4.81
294.26	4.75
294.631	4.64
295.002	4.62
295.373	4.58
295.744	4.54
296.115	4.52
296.486	4.45
296.857	4.51
297.228	4.58
297.599	4.45
297.97	4.48
298.34	4.36
298.711	4.37
299.082	4.43
299.452	4.31
299.823	4.3
300.194	4.47
300.564	4.37
300.935	4.5
301.305	4.62
301.676	4.62
302.046	4.79
302.416	5.07
302.787	5.1
303.157	5.43
303.527	5.44
303.897	5.43
304.267	5.55
304.637	5.61
305.008	5.61
305.378	5.63
305.748	5.59
306.117	5.64
306.487	5.55
306.857	5.44
307.227	5.52
307.597	5.59
307.967	5.49
308.336	5.5
308.706	5.32
309.076	5.28
309.445	5.2
309.815	4.99
310.184	4.83
310.554	4.75
310.923	4.54
311.293	4.55
311.662	4.59
312.031	4.57
312.401	4.53
312.77	4.51
313.139	4.55
313.508	4.59
313.877	4.51
314.246	4.58
314.616	4.69
314.985	4.7
315.353	4.56
315.722	4.57
316.091	4.56
316.46	4.6
316.829	4.65
317.198	4.68
317.567	4.7
317.935	4.61
318.304	4.67
318.672	4.79
319.041	4.9
319.41	4.94
319.778	4.86
320.147	4.94
320.515	4.8
320.883	4.68
321.252	4.72
321.62	4.64
321.988	4.53
322.357	4.44
322.725	4.37
323.093	4.55
323.461	4.42
323.829	4.5
324.197	4.67
324.565	4.77
324.933	4.75
325.301	4.87
325.669	4.86
326.037	4.95
326.405	4.83
326.772	4.81
327.14	4.79
327.508	4.8
327.875	4.64
328.243	4.86
328.61	4.86
328.978	4.83
329.346	4.96
329.713	5.02
330.08	5.07
330.448	4.97
330.815	4.82
331.182	4.82
331.55	4.73
331.917	4.59
332.284	4.55
332.651	4.58
333.018	4.49
333.385	4.47
333.752	4.39
334.119	4.47
334.486	4.46
334.853	4.41
335.22	4.49
335.587	4.56
335.954	4.39
336.32	4.46
336.687	4.41
337.054	4.37
337.42	4.37
337.787	4.33
338.153	4.52
338.52	4.58
338.886	4.51
339.253	4.49
339.619	4.57
339.986	4.56
340.352	4.65
340.718	4.62
341.084	4.62
341.451	4.66
341.817	4.6
342.183	4.52
342.549	4.57
342.915	4.63
343.281	4.65
343.647	4.57
344.013	4.59
344.379	4.56
344.745	4.55
345.11	4.51
345.476	4.53
345.842	4.38
346.208	4.31
346.573	4.47
346.939	4.5
347.304	4.32
347.67	4.21
348.035	4.02
348.401	4.04
348.766	4
349.132	4.02
349.497	3.95
349.862	4.03
350.228	4
350.593	3.91
350.958	3.91
351.323	3.99
351.688	3.98
352.053	4.02
352.418	4.09
352.783	4.13
353.148	4.12
353.513	4.18
353.878	4.23
354.243	4.19
354.608	4.21
354.972	4.28
355.337	4.31
355.702	4.43
356.066	4.51
356.431	4.56
356.795	4.58
357.16	4.64
357.524	4.57
357.889	4.56
358.253	4.5
358.618	4.49
358.982	4.51
359.346	4.45
359.71	4.42
360.075	4.37
360.439	4.34
360.803	4.41
361.167	4.42
361.531	4.41
361.895	4.38
362.259	4.38
362.623	4.42
362.987	4.46
363.351	4.45
363.714	4.4
364.078	4.34
364.442	4.23
364.806	4.28
365.169	4.28
365.533	4.24
365.896	4.21
366.26	4.21
366.623	4.2
366.987	4.22
367.35	4.27
367.714	4.28
368.077	4.19
368.44	4.1
368.803	4.06
369.167	4.03
369.53	4.04
369.893	4.03
370.256	4.02
370.619	4
370.982	3.94
371.345	3.92
371.708	4
372.071	4.01
372.434	3.95
372.797	3.95
373.159	3.96
373.522	4.04
373.885	4.05
374.247	4.02
374.61	4.02
374.973	3.99
375.335	4.03
375.698	4.12
376.06	4.08
376.423	4.09
376.785	4.13
377.147	4.16
377.51	4.15
377.872	4.19
378.234	4.23
378.596	4.27
378.958	4.2
379.321	4.21
379.683	4.25
380.045	4.24
380.407	4.23
380.769	4.23
381.13	4.22
381.492	4.19
381.854	4.23
382.216	4.23
382.578	4.23
382.939	4.2
383.301	4.18
383.663	4.2
384.024	4.19
384.386	4.16
384.747	4.17
385.109	4.18
385.47	4.18
385.832	4.14
386.193	4.16
386.554	4.18
386.916	4.12
387.277	4.13
387.638	4.19
387.999	4.21
388.36	4.23
388.721	4.22
389.082	4.24
389.443	4.2
389.804	4.21
390.165	4.2
390.526	4.18
390.887	4.17
391.248	4.18
391.609	4.19
391.969	4.23
392.33	4.21
392.691	4.17
393.051	4.13
393.412	4.13
393.772	4.07
394.133	4.09
394.493	4.1
394.854	4.06
395.214	4.03
395.574	4.03
395.935	4.02
396.295	4.06
396.655	4.02
397.015	4.04
397.376	4.03
397.736	4.04
398.096	4.03
398.456	4.02
398.816	4.04
399.176	4.02
399.535	3.98
399.895	3.94
400.255	3.97
400.615	4
400.975	4.02
401.334	4.03
401.694	4.03
402.054	4.04
402.413	4.08
402.773	4.07
403.132	4.07
403.492	4.05
403.851	4.05
404.211	4.06
404.57	4.05
404.929	4.05
405.288	4.03
405.648	4.02
406.007	4.05
406.366	4.03
406.725	4.05
407.084	4.09
407.443	4.09
407.802	4.08
408.161	4.06
408.52	4.05
408.879	4.06
409.238	4.07
409.596	4.07
409.955	4.08
410.314	4.08
410.673	4.09
411.031	4.11
411.39	4.11
411.748	4.11
412.107	4.12
412.465	4.11
412.824	4.14
413.182	4.16
413.54	4.14
413.899	4.17
414.257	4.17
414.615	4.14
414.974	4.16
415.332	4.14
415.69	4.1
416.048	4.08
416.406	4.06
416.764	4.04
417.122	4.04
417.48	3.99
417.838	3.99
418.195	3.99
418.553	3.99
418.911	3.95
419.269	3.95
419.626	3.94
419.984	3.93
420.342	3.92
420.699	3.91
421.057	3.91
421.414	3.9
421.772	3.9
422.129	3.89
422.486	3.87
422.844	3.88
423.201	3.9
423.558	3.89
423.915	3.91
424.273	3.9
424.63	3.89
424.987	3.9
425.344	3.9
425.701	3.88
426.058	3.87
426.415	3.88
426.772	3.89
427.128	3.88
427.485	3.88
427.842	3.88
428.199	3.9
428.555	3.89
428.912	3.9
429.269	3.9
429.625	3.92
429.982	3.93
430.338	3.91
430.695	3.89
431.051	3.88
431.407	3.87
431.764	3.87
432.12	3.86
432.476	3.86
432.832	3.86
433.189	3.85
433.545	3.85
433.901	3.85
434.257	3.83
434.613	3.84
434.969	3.84
435.325	3.84
435.681	3.84
436.036	3.87
436.392	3.86
436.748	3.85
437.104	3.83
437.459	3.83
437.815	3.86
438.171	3.87
438.526	3.89
438.882	3.89
439.237	3.9
439.593	3.9
439.948	3.9
440.304	3.89
440.659	3.91
441.014	3.94
441.369	3.93
441.725	3.93
442.08	3.94
442.435	3.94
442.79	3.94
443.145	3.91
443.5	3.9
443.855	3.88
444.21	3.89
444.565	3.9
444.92	3.89
445.275	3.88
445.629	3.87
445.984	3.88
446.339	3.85
446.693	3.84
447.048	3.84
447.403	3.84
447.757	3.83
448.112	3.82
448.466	3.8
448.82	3.81
449.175	3.83
449.529	3.81
449.883	3.81
450.238	3.81
450.592	3.84
450.946	3.82
451.3	3.82
451.654	3.83
452.008	3.83
452.362	3.83
452.716	3.83
453.07	3.85
453.424	3.81
453.778	3.84
454.132	3.84
454.486	3.84
454.839	3.84
455.193	3.83
455.547	3.84
455.9	3.85
456.254	3.84
456.607	3.83
456.961	3.82
457.314	3.81
457.668	3.82
458.021	3.79
458.375	3.81
458.728	3.82
459.081	3.81
459.434	3.78
459.787	3.78
460.141	3.77
460.494	3.76
460.847	3.78
461.2	3.77
461.553	3.78
461.906	3.79
462.259	3.79
462.611	3.82
462.964	3.81
463.317	3.82
463.67	3.82
464.022	3.82
464.375	3.82
464.728	3.83
465.08	3.82
465.433	3.85
465.785	3.86
466.138	3.86
466.49	3.85
466.843	3.88
467.195	3.88
467.547	3.91
467.899	3.93
468.252	3.92
468.604	3.94
468.956	3.93
469.308	3.93
469.66	3.93
470.012	3.91
470.364	3.92
470.716	3.91
471.068	3.93
471.42	3.92
471.772	3.94
472.123	3.93
472.475	3.93
472.827	3.91
473.178	3.89
473.53	3.89
473.882	3.91
474.233	3.92
474.585	3.92
474.936	3.9
475.288	3.9
475.639	3.91
475.99	3.89
476.342	3.91
476.693	3.91
477.044	3.91
477.395	3.91
477.746	3.93
478.097	3.93
478.448	3.91
478.8	3.91
479.15	3.9
479.501	3.89
479.852	3.9
480.203	3.91
480.554	3.92
480.905	3.92
481.255	3.93
481.606	3.93
481.957	3.93
482.307	3.94
482.658	3.94
483.009	3.94
483.359	3.95
483.709	3.95
484.06	3.95
484.41	3.96
484.761	3.96
485.111	3.97
485.461	3.96
485.811	3.97
486.162	3.97
486.512	3.98
486.862	3.99
487.212	3.99
487.562	3.99
487.912	4
488.262	3.99
488.612	3.99
488.961	3.98
489.311	3.99
489.661	3.98
490.011	3.99
490.36	3.99
490.71	3.99
491.06	4
491.409	4
491.759	3.99
492.108	3.99
492.458	3.99
492.807	4
493.157	4.01
493.506	4.01
493.855	4.01
494.204	4.01
494.554	4.01
494.903	4
495.252	4.01
495.601	4.03
495.95	4.03
496.299	4.05
496.648	4.04
496.997	4.04
497.346	4.04
497.695	4.05
498.043	4.05
498.392	4.05
498.741	4.05
499.09	4.04
499.438	4.07
499.787	4.07
500.135	4.07
500.484	4.07
500.832	4.08
501.181	4.09
501.529	4.1
501.878	4.11
502.226	4.12
502.574	4.12
502.923	4.1
503.271	4.09
503.619	4.11
503.967	4.14
504.315	4.17
504.663	4.15
505.011	4.13
505.359	4.14
505.707	4.15
506.055	4.15
506.403	4.17
506.751	4.14
507.098	4.14
507.446	4.14
507.794	4.15
508.141	4.16
508.489	4.15
508.837	4.16
509.184	4.17
509.531	4.17
509.879	4.21
510.226	4.25
510.574	4.25
510.921	4.24
511.268	4.24
511.616	4.25
511.963	4.28
512.31	4.31
512.657	4.33
513.004	4.34
513.351	4.34
513.698	4.35
514.045	4.36
514.392	4.37
514.739	4.38
515.086	4.4
515.432	4.41
515.779	4.41
516.126	4.42
516.473	4.43
516.819	4.47
517.166	4.44
517.512	4.42
517.859	4.44
518.205	4.46
518.552	4.46
518.898	4.44
519.245	4.43
519.591	4.43
519.937	4.42
520.283	4.42
520.629	4.43
520.976	4.43
521.322	4.44
521.668	4.45
522.014	4.45
522.36	4.45
522.706	4.44
523.052	4.44
523.398	4.46
523.743	4.44
524.089	4.42
524.435	4.42
524.781	4.43
525.126	4.43
525.472	4.42
525.817	4.42
526.163	4.44
526.509	4.44
526.854	4.45
527.199	4.45
527.545	4.45
527.89	4.46
528.235	4.46
528.581	4.46
528.926	4.46
529.271	4.47
529.616	4.47
529.961	4.48
530.306	4.48
530.651	4.48
530.996	4.48
531.341	4.49
531.686	4.47
532.031	4.47
532.376	4.48
532.721	4.48
533.065	4.49
533.41	4.5
533.755	4.49
534.099	4.49
534.444	4.49
534.788	4.5
535.133	4.51
535.477	4.5
535.822	4.5
536.166	4.5
536.51	4.48
536.855	4.48
537.199	4.5
537.543	4.5
537.887	4.5
538.231	4.5
538.576	4.5
538.92	4.53
539.264	4.53
539.608	4.53
539.951	4.53
540.295	4.53
540.639	4.52
540.983	4.55
541.327	4.55
541.671	4.55
542.014	4.54
542.358	4.52
542.701	4.53
543.045	4.53
543.389	4.54
543.732	4.54
544.075	4.55
544.419	4.55
544.762	4.54
545.105	4.54
545.449	4.54
545.792	4.55
546.135	4.56
546.478	4.56
546.821	4.55
547.165	4.56
547.508	4.57
547.851	4.54
548.194	4.52
548.536	4.52
548.879	4.54
549.222	4.53
549.565	4.56
549.908	4.58
550.25	4.58
550.593	4.58
550.936	4.6
551.278	4.6
551.621	4.6
551.963	4.6
552.306	4.6
552.648	4.61
552.991	4.6
553.333	4.6
553.675	4.6
554.017	4.63
554.36	4.63
554.702	4.64
555.044	4.67
555.386	4.66
555.728	4.68
556.07	4.7
556.412	4.69
556.754	4.68
557.096	4.65
557.438	4.68
557.78	4.69
558.121	4.66
558.463	4.67
558.805	4.68
559.147	4.7
559.488	4.72
559.83	4.73
560.171	4.72
560.513	4.75
560.854	4.74
561.196	4.7
561.537	4.7
561.878	4.68
562.22	4.7
562.561	4.71
562.902	4.72
563.243	4.67
563.584	4.7
563.925	4.7
564.266	4.69
564.607	4.68
564.948	4.69
565.289	4.72
565.63	4.71
565.971	4.7
566.312	4.73
566.653	4.74
566.993	4.72
567.334	4.73
567.675	4.71
568.015	4.72
568.356	4.74
568.696	4.76
569.037	4.79
569.377	4.78
569.718	4.79
570.058	4.76
570.398	4.78
570.739	4.78
571.079	4.79
571.419	4.81
571.759	4.82
572.099	4.8
572.439	4.81
572.779	4.81
573.119	4.81
573.459	4.8
573.799	4.79
574.139	4.8
574.479	4.8
574.819	4.78
575.158	4.79
575.498	4.8
575.838	4.79
576.177	4.78
576.517	4.77
576.856	4.77
577.196	4.79
577.535	4.76
577.875	4.77
578.214	4.78
578.553	4.78
578.893	4.75
579.232	4.76
579.571	4.77
579.91	4.78
580.25	4.77
580.589	4.77
580.928	4.78
581.267	4.77
581.606	4.78
581.945	4.79
582.283	4.76
582.622	4.78
582.961	4.78
583.3	4.79
583.639	4.82
583.977	4.86
584.316	4.88
584.654	4.9
584.993	4.89
585.332	4.85
585.67	4.86
586.008	4.85
586.347	4.87
586.685	4.85
587.024	4.84
587.362	4.84
587.7	4.84
588.038	4.85
588.376	4.87
588.715	4.92
589.053	4.93
589.391	4.95
589.729	4.93
590.067	4.93
590.404	4.9
590.742	4.9
591.08	4.85
591.418	4.86
591.756	4.86
592.093	4.85
592.431	4.89
592.769	4.85
593.106	4.88
593.444	4.87
593.781	4.87
594.119	4.91
594.456	4.92
594.793	4.92
595.131	4.9
595.468	4.91
595.805	4.9
596.143	4.92
596.48	4.95
596.817	4.95
597.154	5
597.491	5.01
597.828	5.01
598.165	5
598.502	4.96
598.839	4.97
599.176	4.97
599.512	4.97
599.849	5
600.186	5.02
600.523	5.03
600.859	5.06
601.196	5.05
601.532	5.06
601.869	5.03
602.205	5.07
602.542	5.07
602.878	5.02
603.215	5
603.551	4.97
603.887	4.99
604.223	4.95
604.56	4.97
604.896	4.94
605.232	4.98
605.568	4.99
605.904	5.01
606.24	5.05
606.576	5.05
606.912	5.05
607.248	5.05
607.583	5.06
607.919	5.06
608.255	5.01
608.591	4.99
608.926	5.03
609.262	5.04
609.597	5.06
609.933	5.1
610.268	5.14
610.604	5.12
610.939	5.13
611.275	5.13
611.61	5.13
611.945	5.15
612.281	5.17
612.616	5.17
612.951	5.14
613.286	5.13
613.621	5.14
613.956	5.13
614.291	5.1
614.626	5.08
614.961	5.09
615.296	5.12
615.631	5.12
615.966	5.12
616.3	5.06
616.635	5.01
616.97	4.99
617.304	4.94
617.639	5.02
617.973	4.99
618.308	5.02
618.642	5.01
618.977	5.02
619.311	4.96
619.646	4.95
619.98	4.96
620.314	4.97
620.648	4.97
620.983	4.97
621.317	5.04
621.651	5.06
621.985	5.04
622.319	5.06
622.653	5.07
622.987	5.05
623.321	5.12
623.655	5.12
623.988	5.17
624.322	5.18
624.656	5.15
624.99	5.19
625.323	5.17
625.657	5.2
625.99	5.2
626.324	5.22
626.657	5.23
626.991	5.28
627.324	5.28
627.658	5.28
627.991	5.31
628.324	5.27
628.657	5.26
628.991	5.25
629.324	5.26
629.657	5.32
629.99	5.35
630.323	5.27
630.656	5.33
630.989	5.31
631.322	5.37
631.655	5.4
631.987	5.34
632.32	5.3
632.653	5.28
632.986	5.31
633.318	5.34
633.651	5.36
633.984	5.3
634.316	5.26
634.649	5.28
634.981	5.26
635.313	5.29
635.646	5.24
635.978	5.23
636.31	5.24
636.643	5.19
636.975	5.18
637.307	5.24
637.639	5.19
637.971	5.22
638.303	5.13
638.635	5.08
638.967	5.11
639.299	5.23
639.631	5.23
639.963	5.18
640.295	5.19
640.626	5.17
640.958	5.25
641.29	5.27
641.621	5.25
641.953	5.26
642.285	5.3
642.616	5.37
642.948	5.37
643.279	5.36
643.61	5.38
643.942	5.38
644.273	5.38
644.604	5.39
644.936	5.32
645.267	5.34
645.598	5.37
645.929	5.35
646.26	5.27
646.591	5.29
646.922	5.31
647.253	5.27
647.584	5.23
647.915	5.16
648.245	5.19
648.576	5.22
648.907	5.25
649.238	5.17
649.568	5.14
649.899	5.22
650.229	5.24
650.56	5.22
650.89	5.28
651.221	5.26
651.551	5.28
651.882	5.32
652.212	5.35
652.542	5.39
652.872	5.43
653.203	5.49
653.533	5.5
653.863	5.54
654.193	5.55
654.523	5.66
654.853	5.71
655.183	5.71
655.513	5.68
655.843	5.71
656.172	5.76
656.502	5.8
656.832	5.72
657.162	5.78
657.491	5.78
657.821	5.73
658.15	5.75
658.48	5.8
658.809	5.78
659.139	5.76
659.468	5.76
659.798	5.78
660.127	5.76
660.456	5.75
660.785	5.74
661.115	5.75
661.444	5.64
661.773	5.67
662.102	5.72
662.431	5.73
662.76	5.65
663.089	5.6
663.418	5.59
663.747	5.57
664.076	5.54
664.404	5.55
664.733	5.52
665.062	5.5
665.39	5.42
665.719	5.38
666.048	5.52
666.376	5.53
666.705	5.5
667.033	5.43
667.362	5.5
667.69	5.47
668.018	5.46
668.347	5.57
668.675	5.56
669.003	5.5
669.331	5.56
669.659	5.67
669.987	5.72
670.315	5.71
670.643	5.72
670.971	5.68
671.299	5.75
671.627	5.78
671.955	5.75
672.283	5.8
672.61	5.84
672.938	5.73
673.266	5.64
673.593	5.76
673.921	5.76
674.249	5.71
674.576	5.72
674.904	5.69
675.231	5.62
675.558	5.61
675.886	5.73
676.213	5.63
676.54	5.67
676.867	5.69
677.195	5.69
677.522	5.66
677.849	5.72
678.176	5.69
678.503	5.75
678.83	5.72
679.157	5.72
679.484	5.73
679.81	5.74
680.137	5.8
680.464	5.69
680.791	5.74
681.117	5.72
681.444	5.68
681.771	5.77
682.097	5.77
682.424	5.8
682.75	5.69
683.077	5.77
683.403	5.76
683.729	5.76
684.056	5.8
684.382	5.86
684.708	5.87
685.034	5.8
685.36	5.74
685.686	5.85
686.012	5.79
686.339	5.85
686.664	5.94
686.99	5.93
687.316	5.93
687.642	6.06
687.968	6.08
688.294	6.16
688.619	6.17
688.945	6.19
689.271	6.09
689.596	6.09
689.922	6.08
690.247	6.01
690.573	5.98
690.898	5.99
691.224	6.09
691.549	6.06
691.874	6.1
692.2	6.15
692.525	6.22
692.85	6.27
693.175	6.2
693.5	6.14
693.825	6.1
694.15	6.2
694.475	6.08
694.8	6.08
695.125	6.18
695.45	6.28
695.775	6.31
696.099	6.36
696.424	6.43
696.749	6.4
697.073	6.42
697.398	6.48
697.723	6.49
698.047	6.46
698.372	6.49
698.696	6.55
699.02	6.54
699.345	6.44
699.669	6.49
699.993	6.5
700.318	6.5
700.642	6.56
700.966	6.51
701.29	6.64
701.614	6.66
701.938	6.65
702.262	6.63
702.586	6.72
702.91	6.76
703.234	6.8
703.557	6.84
703.881	6.91
704.205	6.92
704.529	6.93
704.852	7
705.176	7.01
705.499	7.01
705.823	7.08
706.146	7.18
706.47	7.14
706.793	7.16
707.117	7.11
707.44	7.1
707.763	7.1
708.086	6.91
708.409	6.84
708.733	6.9
709.056	6.85
709.379	6.88
709.702	6.87
710.025	6.92
710.348	7.02
710.671	6.87
710.993	6.84
711.316	6.87
711.639	6.79
711.962	6.78
712.284	6.78
712.607	6.92
712.93	6.92
713.252	6.95
713.575	6.92
713.897	6.94
714.22	7.04
714.542	7.12
714.864	7.03
715.187	7.23
715.509	7.15
715.831	7.07
716.153	7.01
716.475	6.98
716.798	6.99
717.12	6.88
717.442	6.99
717.764	7.04
718.085	7.08
718.407	7.15
718.729	7.13
719.051	7.13
719.373	6.82
719.695	6.77
720.016	6.77
720.338	6.97
720.659	7.04
720.981	6.96
721.302	6.91
721.624	7
721.945	6.79
722.267	6.85
722.588	6.91
722.909	6.94
723.231	6.8
723.552	6.56
723.873	6.65
724.194	6.59
724.515	6.43
724.836	6.47
725.157	6.42
725.478	6.4
725.799	6.43
726.12	6.63
726.441	6.75
726.762	6.84
727.083	6.77
727.403	6.8
727.724	6.86
728.045	7.05
728.365	7.02
728.686	7.04
729.006	7.08
729.327	7.06
729.647	7
729.967	7.21
730.288	7.32
730.608	7.28
730.928	7.33
731.249	7.33
731.569	7.22
731.889	7.25
732.209	7.33
732.529	7.28
732.849	7.32
733.169	7.42
733.489	7.35
733.809	7.33
734.129	7.39
734.448	7.47
734.768	7.17
735.088	7.33
735.408	7.49
735.727	7.54
736.047	7.58
736.366	7.68
736.686	7.51
737.005	7.66
737.325	7.72
737.644	7.78
737.963	7.89
738.283	7.87
738.602	7.89
738.921	8
739.24	7.98
739.56	7.89
739.879	7.87
740.198	7.99
740.517	8.05
740.836	8.09
741.155	8.04
741.473	8.42
741.792	8.35
742.111	8.45
742.43	8.33
742.748	8.3
743.067	8.23
743.386	8.31
743.704	8.32
744.023	8.52
744.341	8.43
744.66	8.44
744.978	8.36
745.297	8.52
745.615	8.57
745.933	8.73
746.252	8.86
746.57	8.79
746.888	8.61
747.206	8.53
747.524	8.61
747.842	8.57
748.16	8.46
748.478	8.61
748.796	8.57
749.114	8.78
749.432	8.81
749.749	9.03
750.067	9.3
750.385	9.02
750.703	8.76
751.02	8.9
751.338	8.91
751.655	9.08
751.973	8.92
752.29	8.79
752.608	8.71
752.925	8.79
753.242	8.84
753.56	8.77
753.877	8.96
754.194	8.97
754.511	8.99
754.828	8.92
755.145	8.67
755.462	8.74
755.779	8.59
756.096	8.79
756.413	8.62
756.73	8.52
757.047	8.81
757.364	8.79
757.68	8.71
757.997	8.77
758.314	8.81
758.63	8.9
758.947	8.89
759.264	8.98
759.58	8.81
759.896	8.46
760.213	8.51
760.529	8.36
760.846	8.22
761.162	8.02
761.478	8.03
761.794	8.08
762.11	7.95
762.426	7.9
762.743	7.89
763.059	8.02
763.375	7.92
763.69	8
764.006	8.15
764.322	8.16
764.638	8.11
764.954	8.15
765.27	8.06
765.585	8.15
765.901	8.22
766.216	8.28
766.532	8.61
766.848	8.49
767.163	8.46
767.478	8.47
767.794	8.59
768.109	8.61
768.424	8.81
768.74	8.82
769.055	8.91
769.37	8.81
769.685	8.64
770	8.91
770.315	8.7
770.63	8.83
770.945	8.91
771.26	9.15
771.575	9.04
771.89	9.29
772.205	9.17
772.52	8.95
772.834	8.41
773.149	8.08
773.464	8.36
773.778	8.49
774.093	8.25
774.407	8.44
774.722	8.52
775.036	8.44
775.351	8.61
775.665	8.69
775.979	8.79
776.293	8.63
776.608	8.6
776.922	8.75
777.236	8.56
777.55	8.55
777.864	8.52
778.178	8.63
778.492	8.64
778.806	8.38
779.12	8.37
779.434	8.78
779.747	9.05
780.061	9.1
780.375	9.1
780.689	9.51
781.002	9.44
781.316	9.71
781.629	9.73
781.943	9.57
782.256	9.41
782.57	9.33
782.883	9.42
783.196	9.01
783.51	9.05
783.823	8.71
784.136	8.94
784.449	8.87
784.762	9.17
785.075	9.12
785.388	9.05
785.701	9.29
786.014	9.53
786.327	9.52
786.64	9.61
786.953	9.81
787.266	9.5
787.578	9.6
787.891	9.21
788.204	9.22
788.516	9.89
788.829	10.16
789.141	10.53
789.454	10.79
789.766	11.18
790.079	10.91
790.391	11.27
790.703	11.46
791.016	11.41
791.328	11.17
791.64	11.14
791.952	11.66
792.264	11.15
792.576	11.05
792.888	11.13
793.2	11.12
793.512	10.9
793.824	10.96
794.136	10.6
794.448	10.79
794.76	10.73
795.071	10.1
795.383	9.87
795.695	9.13
796.006	8.69
796.318	8.32
796.629	9
796.941	9.05
797.252	8.9
797.564	9.25
797.875	9.45
798.186	9.07
798.497	8.98
798.809	8.91
799.12	8.49
799.431	8.79
799.742	8.95
800.053	8.83
800.364	8.98
800.675	9.24
800.986	9.1
801.297	8.95
801.608	8.79
801.918	9.14
802.229	9.8
802.54	10.17
802.851	10.37
803.161	10.21
803.472	9.83
803.782	9.86
804.093	9.66
804.403	9.12
804.714	9.62
805.024	9.43
805.334	10.15
805.645	10.57
805.955	10.05
806.265	10.25
806.575	10.46
806.885	10.72
807.195	10.98
807.505	11.39
807.815	11.46
808.125	11.36
808.435	11.45
808.745	11.26
809.055	11.61
809.365	11.74
809.674	11.14
809.984	11.22
810.294	10.92
810.603	10.72
810.913	11.58
811.222	11.83
811.532	12.41
811.841	12.4
812.151	12.86
812.46	12.87
812.769	12.58
813.079	13
813.388	12.91
813.697	12.58
814.006	11.92
814.315	11.81
814.624	12.22
814.933	12.04
815.242	11.8
815.551	11.69
815.86	11.63
816.169	11.45
816.478	11.96
816.786	12.21
817.095	12.86
817.404	12.72
817.712	11.72
818.021	11.83
818.33	11.55
818.638	11.23
818.947	11.6
819.255	11.72
819.563	11.37
819.872	11.19
820.18	11.25
820.488	11.46
820.796	11.37
821.105	11.34
821.413	11.25
821.721	11.15
822.029	11.22
822.337	11.36
822.645	11.41
822.953	11.35
823.26	11.39
823.568	11.3
823.876	11.32
824.184	11.49
824.491	11.4
824.799	11.39
825.107	11.38
825.414	11.25
825.722	11.22
826.029	11.34
826.337	11.52
826.644	11.57
826.951	11.43
827.259	11.58
827.566	11.63
827.873	11.73
828.18	11.96
828.488	12.1
828.795	12.1
829.102	12.5
829.409	12.7
829.716	12.69
830.023	12.67
830.329	12.17
830.636	12.42
830.943	12.29
831.25	12.43
831.557	12.8
831.863	12.73
832.17	12.77
832.476	12.84
832.783	12.68
833.089	12.66
833.396	13.07
833.702	13.35
834.009	12.98
834.315	12.7
834.621	12.63
834.928	12.34
835.234	11.92
835.54	11.57
835.846	11.78
836.152	11.59
836.458	11.49
836.764	11.87
837.07	11.41
837.376	11.42
837.682	11.56
837.988	11.37
838.293	11.42
838.599	11.66
838.905	11.11
839.211	11.17
839.516	11.17
839.822	11.24
840.127	11.32
840.433	11.65
840.738	12.26
841.044	12.44
841.349	12.68
841.654	12.89
841.959	12.64
842.265	11.55
842.57	11.49
842.875	11.49
843.18	12.22
843.485	13.02
843.79	13.6
844.095	12.7
844.4	12.93
844.705	12.92
845.01	12.36
845.315	13.29
845.619	12.4
845.924	12.54
846.229	12.67
846.533	11.58
846.838	12.66
847.142	12.47
847.447	12.04
847.751	11.29
848.056	12.64
848.36	13.47
848.664	15.65
848.969	15.92
849.273	15.38
849.577	15.57
849.881	14.4
850.185	14.6
850.489	15.56
850.794	14.12
851.097	15.89
851.401	15.91
851.705	15.72
852.009	16.71
852.313	18
852.617	19.04
852.92	20.86
853.224	20.74
853.528	20.98
853.831	20.05
854.135	20.84
854.438	19.43
854.742	19.83
855.045	17.92
855.349	18.03
855.652	18.77
855.955	19.4
856.259	20.41
856.562	19.86
856.865	18.79
857.168	19.95
857.471	19.02
857.774	19.03
858.077	18.67
858.38	19.76
858.683	19.45
858.986	17.96
859.289	18.17
859.592	17.73
859.894	17.76
860.197	19.88
860.5	20.29
860.802	20.52
861.105	17.99
861.407	16.27
861.71	17.22
862.012	18.29
862.315	16.86
862.617	16.14
862.919	15.98
863.222	18.93
863.524	17.84
863.826	19.42
864.128	19.85
864.43	20.23
864.732	18.58
865.034	18.55
865.336	17.57
865.638	14.98
865.94	13.95
866.242	13.96
866.544	13.63
866.846	11.09
867.147	10.5
867.449	12.49
867.751	16.89
868.052	17.21
868.354	16.22
868.655	15.81
868.957	14.1
869.258	14.15
869.56	12.59
869.861	10.87
870.162	8.69
870.463	8.42
870.765	7.08
871.066	7.53
871.367	6.34
871.668	7.37
871.969	7.21
872.27	7.42
872.571	7.68
872.872	7.17
873.173	7.48
873.473	7.5
873.774	9.1
874.075	7.91
874.376	7.18
874.676	8.89
874.977	10.77
875.277	13.5
875.578	15.79
875.878	15.59
876.179	18.54
876.479	19.9
876.78	19.68
877.08	21.81
877.38	22
877.68	22.87
877.981	23.49
878.281	26.66
878.581	28.4
