Data from BA28417_Reflection_00005.txt Node
Date: Mon Nov 18 16:11:05 EST 2019
User: vgr7
Spectrometer: USB2G7710
Scans to average: 3
Trigger mode: 4
Integration Time (sec): 2.000000E-2
Electric dark correction enabled: true
Boxcar width: 10
XAxis mode: Wavelengths
Number of Pixels in Spectrum: 2048
>>>>>Begin Spectral Data<<<<<
177.721	45.98
178.105	40.51
178.488	33.73
178.871	34.09
179.254	116.02
179.636	466.14
180.019	267.92
180.402	95.24
180.785	-35.44
181.168	-782.35
181.55	-35.52
181.933	236.24
182.316	224.63
182.698	208.26
183.081	220.42
183.463	328.44
183.846	194.49
184.228	252.77
184.611	271.43
184.993	630.45
185.376	1240.68
185.758	1319.12
186.14	2475.84
186.522	587.87
186.904	1258.5
187.287	1177.24
187.669	-7418.99
188.051	-1205.95
188.433	-444.97
188.815	-192.18
189.197	-184.45
189.579	-203.8
189.961	-172.33
190.342	-149.15
190.724	-150.54
191.106	-214.76
191.488	-235.27
191.869	-164.48
192.251	-183.96
192.633	-200.13
193.014	-328.89
193.396	-763.19
193.777	-527.2
194.159	-399.61
194.54	-183.58
194.922	-137.49
195.303	-98.55
195.684	-62.83
196.065	-43.1
196.447	-44.58
196.828	-97.32
197.209	-125.25
197.59	-141.81
197.971	-137.71
198.352	-101.61
198.733	-70.44
199.114	-35
199.495	-22.56
199.876	-30.39
200.257	-11.73
200.638	6.76
201.018	-8.6
201.399	12.39
201.78	31.26
202.16	15.03
202.541	-13.34
202.922	-36.07
203.302	-38.15
203.683	-57.83
204.063	-122.12
204.444	-126.08
204.824	-142.74
205.204	-93.62
205.585	-118.66
205.965	-68.04
206.345	-77.11
206.725	-105.95
207.106	-127.78
207.486	-206.57
207.866	-175.1
208.246	-120.93
208.626	-128.06
209.006	-67.7
209.386	-112.85
209.766	-170.12
210.145	-121.82
210.525	-93.28
210.905	-82.47
211.285	-98.39
211.664	-98.96
212.044	-60.55
212.424	-65.69
212.803	-56.57
213.183	-60.84
213.562	-50.69
213.942	-60.38
214.321	-66.91
214.701	-85.47
215.08	-100.37
215.459	-76.13
215.838	-91.64
216.218	-122.95
216.597	-114.03
216.976	-149.15
217.355	-116.7
217.734	-94.43
218.113	-68.14
218.492	-47.35
218.871	-68.51
219.25	-58.11
219.629	-37.4
220.008	-334.32
220.387	-398.19
220.766	-1446.39
221.144	1139.11
221.523	698.24
221.902	586.87
222.28	445.92
222.659	244.46
223.037	7158.82
223.416	2653.19
223.794	-194.19
224.173	-75.79
224.551	-42.04
224.929	-25.18
225.308	-19.87
225.686	-31.58
226.064	-28.68
226.442	-34.45
226.821	-19.85
227.199	-15.97
227.577	-17.07
227.955	-10.31
228.333	-9.68
228.711	-4.9
229.089	2.56
229.467	2.24
229.845	0.39
230.222	-0.39
230.6	-2.19
230.978	-2.84
231.356	0.65
231.733	0.7
232.111	-1.28
232.488	-2.27
232.866	-1.4
233.243	-3.35
233.621	-1.52
233.998	-1.07
234.376	-0.04
234.753	-1.25
235.13	-1.16
235.508	-0.08
235.885	-1.13
236.262	-1.13
236.639	-0.64
237.016	-1.18
237.393	1.83
237.77	2.44
238.147	3.61
238.524	3.77
238.901	4.76
239.278	3.93
239.655	4.89
240.032	5.72
240.409	5.13
240.785	4.7
241.162	5.08
241.539	5.23
241.915	5.39
242.292	5.16
242.668	5.24
243.045	5.26
243.421	5.34
243.798	5.07
244.174	4.94
244.551	4.95
244.927	4.93
245.303	4.77
245.679	4.91
246.056	4.96
246.432	5.07
246.808	4.7
247.184	4.45
247.56	4.22
247.936	4.18
248.312	4.1
248.688	4.33
249.064	4.11
249.44	4.1
249.815	4.16
250.191	4.41
250.567	4.35
250.943	4.51
251.318	4.6
251.694	4.9
252.069	4.98
252.445	5.06
252.82	5.13
253.196	5.12
253.571	5.17
253.947	5.36
254.322	5.31
254.697	5.29
255.073	5.78
255.448	5.89
255.823	6.1
256.198	6.42
256.573	6.46
256.948	6.79
257.323	6.64
257.698	6.5
258.073	6.35
258.448	6.28
258.823	6.11
259.198	5.96
259.573	5.89
259.948	5.84
260.322	5.76
260.697	5.56
261.072	5.53
261.446	5.52
261.821	5.44
262.195	5.57
262.57	5.47
262.944	5.36
263.319	5.25
263.693	5
264.067	4.84
264.442	4.58
264.816	4.4
265.19	4.38
265.564	4.43
265.938	4.26
266.313	4.06
266.687	4.04
267.061	4.16
267.435	4.19
267.809	4.28
268.183	4.21
268.556	4.29
268.93	4.42
269.304	4.49
269.678	4.37
270.051	4.18
270.425	4.42
270.799	4.47
271.172	4.62
271.546	4.68
271.919	4.65
272.293	4.9
272.666	4.99
273.04	5.03
273.413	4.92
273.787	5.07
274.16	5.23
274.533	5.14
274.906	5
275.279	4.93
275.653	4.88
276.026	4.93
276.399	4.91
276.772	4.85
277.145	4.76
277.518	4.88
277.891	5.05
278.263	4.86
278.636	4.82
279.009	4.66
279.382	4.72
279.755	4.65
280.127	4.65
280.5	4.6
280.872	4.58
281.245	4.53
281.617	4.66
281.99	4.66
282.362	4.79
282.735	4.81
283.107	4.79
283.479	4.78
283.852	4.81
284.224	4.81
284.596	4.95
284.968	4.96
285.34	4.96
285.713	4.95
286.085	5.15
286.457	5.27
286.829	5.25
287.201	5.21
287.572	5.31
287.944	5.18
288.316	5.14
288.688	5.18
289.06	5.23
289.431	5.32
289.803	5.35
290.175	5.31
290.546	5.39
290.918	5.5
291.289	5.61
291.661	5.73
292.032	5.86
292.403	5.77
292.775	5.78
293.146	5.67
293.517	5.66
293.889	5.71
294.26	5.6
294.631	5.72
295.002	5.76
295.373	5.77
295.744	5.93
296.115	5.92
296.486	5.77
296.857	5.77
297.228	5.71
297.599	5.7
297.97	5.72
298.34	5.76
298.711	5.81
299.082	5.78
299.452	5.7
299.823	5.8
300.194	5.8
300.564	5.88
300.935	6.05
301.305	6.03
301.676	6.02
302.046	6.11
302.416	6.09
302.787	6.02
303.157	6.1
303.527	5.92
303.897	5.97
304.267	6.23
304.637	6.32
305.008	6.29
305.378	6.29
305.748	6.32
306.117	6.18
306.487	6
306.857	6.14
307.227	6.14
307.597	6.14
307.967	6.13
308.336	6.05
308.706	5.95
309.076	5.89
309.445	5.87
309.815	5.83
310.184	5.85
310.554	6
310.923	5.93
311.293	5.95
311.662	5.95
312.031	5.82
312.401	5.73
312.77	5.68
313.139	5.67
313.508	5.6
313.877	5.6
314.246	5.72
314.616	5.56
314.985	5.55
315.353	5.28
315.722	5.32
316.091	5.25
316.46	5.26
316.829	5.39
317.198	5.4
317.567	5.4
317.935	5.37
318.304	5.19
318.672	5.3
319.041	5.4
319.41	5.38
319.778	5.34
320.147	5.45
320.515	5.42
320.883	5.36
321.252	5.39
321.62	5.43
321.988	5.39
322.357	5.39
322.725	5.41
323.093	5.62
323.461	5.5
323.829	5.6
324.197	5.64
324.565	5.6
324.933	5.53
325.301	5.52
325.669	5.49
326.037	5.51
326.405	5.49
326.772	5.49
327.14	5.55
327.508	5.61
327.875	5.54
328.243	5.64
328.61	5.7
328.978	5.76
329.346	5.76
329.713	5.8
330.08	5.87
330.448	5.74
330.815	5.66
331.182	5.8
331.55	5.88
331.917	5.95
332.284	6.04
332.651	5.95
333.018	5.91
333.385	5.82
333.752	5.85
334.119	5.81
334.486	5.73
334.853	5.67
335.22	5.66
335.587	5.75
335.954	5.67
336.32	5.55
336.687	5.52
337.054	5.62
337.42	5.54
337.787	5.41
338.153	5.47
338.52	5.46
338.886	5.24
339.253	5.09
339.619	5.07
339.986	5.03
340.352	5.12
340.718	5.12
341.084	5.09
341.451	5.13
341.817	5.19
342.183	5.15
342.549	5.12
342.915	5.1
343.281	5.04
343.647	4.98
344.013	5.02
344.379	5
344.745	5
345.11	5.04
345.476	5.16
345.842	5.13
346.208	5.06
346.573	5.23
346.939	5.37
347.304	5.3
347.67	5.18
348.035	5.15
348.401	5.12
348.766	5.13
349.132	5.07
349.497	5
349.862	5.15
350.228	5.27
350.593	5.33
350.958	5.34
351.323	5.45
351.688	5.54
352.053	5.61
352.418	5.66
352.783	5.62
353.148	5.57
353.513	5.54
353.878	5.6
354.243	5.65
354.608	5.53
354.972	5.49
355.337	5.55
355.702	5.65
356.066	5.71
356.431	5.8
356.795	5.83
357.16	5.86
357.524	5.72
357.889	5.65
358.253	5.64
358.618	5.59
358.982	5.58
359.346	5.49
359.71	5.44
360.075	5.44
360.439	5.49
360.803	5.49
361.167	5.52
361.531	5.52
361.895	5.48
362.259	5.54
362.623	5.59
362.987	5.57
363.351	5.53
363.714	5.58
364.078	5.48
364.442	5.43
364.806	5.38
365.169	5.39
365.533	5.43
365.896	5.44
366.26	5.47
366.623	5.46
366.987	5.49
367.35	5.51
367.714	5.51
368.077	5.45
368.44	5.48
368.803	5.47
369.167	5.47
369.53	5.43
369.893	5.43
370.256	5.42
370.619	5.46
370.982	5.48
371.345	5.43
371.708	5.56
372.071	5.6
372.434	5.64
372.797	5.67
373.159	5.68
373.522	5.7
373.885	5.72
374.247	5.72
374.61	5.72
374.973	5.72
375.335	5.69
375.698	5.73
376.06	5.72
376.423	5.77
376.785	5.81
377.147	5.87
377.51	5.9
377.872	5.89
378.234	5.84
378.596	5.83
378.958	5.78
379.321	5.73
379.683	5.73
380.045	5.71
380.407	5.74
380.769	5.68
381.13	5.66
381.492	5.69
381.854	5.71
382.216	5.74
382.578	5.75
382.939	5.74
383.301	5.77
383.663	5.75
384.024	5.69
384.386	5.65
384.747	5.64
385.109	5.59
385.47	5.57
385.832	5.61
386.193	5.6
386.554	5.59
386.916	5.54
387.277	5.52
387.638	5.51
387.999	5.5
388.36	5.51
388.721	5.54
389.082	5.5
389.443	5.46
389.804	5.43
390.165	5.45
390.526	5.38
390.887	5.35
391.248	5.38
391.609	5.39
391.969	5.41
392.33	5.38
392.691	5.43
393.051	5.46
393.412	5.46
393.772	5.41
394.133	5.44
394.493	5.5
394.854	5.52
395.214	5.57
395.574	5.56
395.935	5.57
396.295	5.58
396.655	5.57
397.015	5.58
397.376	5.58
397.736	5.57
398.096	5.64
398.456	5.64
398.816	5.61
399.176	5.62
399.535	5.59
399.895	5.58
400.255	5.54
400.615	5.52
400.975	5.49
401.334	5.57
401.694	5.59
402.054	5.54
402.413	5.51
402.773	5.46
403.132	5.46
403.492	5.43
403.851	5.38
404.211	5.39
404.57	5.4
404.929	5.4
405.288	5.39
405.648	5.38
406.007	5.36
406.366	5.32
406.725	5.32
407.084	5.35
407.443	5.34
407.802	5.36
408.161	5.37
408.52	5.36
408.879	5.33
409.238	5.31
409.596	5.33
409.955	5.32
410.314	5.32
410.673	5.31
411.031	5.35
411.39	5.37
411.748	5.37
412.107	5.38
412.465	5.4
412.824	5.4
413.182	5.37
413.54	5.39
413.899	5.45
414.257	5.41
414.615	5.39
414.974	5.41
415.332	5.41
415.69	5.38
416.048	5.41
416.406	5.38
416.764	5.37
417.122	5.37
417.48	5.38
417.838	5.4
418.195	5.39
418.553	5.35
418.911	5.34
419.269	5.33
419.626	5.3
419.984	5.29
420.342	5.29
420.699	5.29
421.057	5.28
421.414	5.26
421.772	5.27
422.129	5.27
422.486	5.26
422.844	5.26
423.201	5.26
423.558	5.23
423.915	5.22
424.273	5.23
424.63	5.22
424.987	5.19
425.344	5.17
425.701	5.17
426.058	5.18
426.415	5.18
426.772	5.18
427.128	5.17
427.485	5.16
427.842	5.13
428.199	5.13
428.555	5.13
428.912	5.15
429.269	5.14
429.625	5.14
429.982	5.12
430.338	5.1
430.695	5.1
431.051	5.12
431.407	5.14
431.764	5.15
432.12	5.16
432.476	5.17
432.832	5.17
433.189	5.16
433.545	5.16
433.901	5.16
434.257	5.16
434.613	5.16
434.969	5.16
435.325	5.19
435.681	5.2
436.036	5.19
436.392	5.17
436.748	5.17
437.104	5.15
437.459	5.15
437.815	5.15
438.171	5.16
438.526	5.15
438.882	5.13
439.237	5.13
439.593	5.13
439.948	5.12
440.304	5.11
440.659	5.11
441.014	5.11
441.369	5.11
441.725	5.1
442.08	5.1
442.435	5.11
442.79	5.1
443.145	5.11
443.5	5.11
443.855	5.11
444.21	5.09
444.565	5.11
444.92	5.1
445.275	5.1
445.629	5.09
445.984	5.07
446.339	5.05
446.693	5.03
447.048	5.02
447.403	5
447.757	4.99
448.112	5
448.466	4.98
448.82	4.97
449.175	4.96
449.529	4.96
449.883	4.95
450.238	4.94
450.592	4.91
450.946	4.9
451.3	4.89
451.654	4.89
452.008	4.88
452.362	4.89
452.716	4.88
453.07	4.88
453.424	4.9
453.778	4.92
454.132	4.91
454.486	4.91
454.839	4.95
455.193	4.93
455.547	4.92
455.9	4.93
456.254	4.94
456.607	4.95
456.961	4.94
457.314	4.94
457.668	4.95
458.021	4.93
458.375	4.91
458.728	4.93
459.081	4.94
459.434	4.92
459.787	4.93
460.141	4.93
460.494	4.94
460.847	4.94
461.2	4.94
461.553	4.96
461.906	4.96
462.259	4.95
462.611	4.97
462.964	4.98
463.317	4.99
463.67	4.99
464.022	4.99
464.375	5
464.728	5.01
465.08	5.02
465.433	5.05
465.785	5.06
466.138	5.06
466.49	5.05
466.843	5.05
467.195	5.06
467.547	5.08
467.899	5.08
468.252	5.09
468.604	5.11
468.956	5.09
469.308	5.11
469.66	5.13
470.012	5.13
470.364	5.14
470.716	5.15
471.068	5.17
471.42	5.18
471.772	5.21
472.123	5.23
472.475	5.24
472.827	5.26
473.178	5.26
473.53	5.28
473.882	5.31
474.233	5.32
474.585	5.31
474.936	5.32
475.288	5.33
475.639	5.32
475.99	5.31
476.342	5.33
476.693	5.34
477.044	5.32
477.395	5.32
477.746	5.32
478.097	5.32
478.448	5.31
478.8	5.3
479.15	5.29
479.501	5.28
479.852	5.25
480.203	5.25
480.554	5.26
480.905	5.25
481.255	5.25
481.606	5.27
481.957	5.28
482.307	5.27
482.658	5.27
483.009	5.27
483.359	5.26
483.709	5.27
484.06	5.27
484.41	5.29
484.761	5.28
485.111	5.3
485.461	5.29
485.811	5.3
486.162	5.31
486.512	5.31
486.862	5.31
487.212	5.32
487.562	5.32
487.912	5.32
488.262	5.32
488.612	5.32
488.961	5.33
489.311	5.32
489.661	5.33
490.011	5.33
490.36	5.33
490.71	5.34
491.06	5.35
491.409	5.35
491.759	5.32
492.108	5.33
492.458	5.32
492.807	5.32
493.157	5.33
493.506	5.34
493.855	5.33
494.204	5.33
494.554	5.34
494.903	5.34
495.252	5.37
495.601	5.4
495.95	5.4
496.299	5.4
496.648	5.41
496.997	5.42
497.346	5.44
497.695	5.46
498.043	5.46
498.392	5.47
498.741	5.48
499.09	5.48
499.438	5.51
499.787	5.52
500.135	5.55
500.484	5.56
500.832	5.57
501.181	5.6
501.529	5.62
501.878	5.65
502.226	5.68
502.574	5.67
502.923	5.64
503.271	5.66
503.619	5.69
503.967	5.7
504.315	5.72
504.663	5.73
505.011	5.72
505.359	5.77
505.707	5.79
506.055	5.82
506.403	5.86
506.751	5.85
507.098	5.87
507.446	5.88
507.794	5.88
508.141	5.89
508.489	5.91
508.837	5.91
509.184	5.91
509.531	5.92
509.879	5.95
510.226	5.99
510.574	6
510.921	6
511.268	6.02
511.616	6.04
511.963	6.06
512.31	6.08
512.657	6.09
513.004	6.11
513.351	6.12
513.698	6.14
514.045	6.17
514.392	6.18
514.739	6.2
515.086	6.22
515.432	6.24
515.779	6.24
516.126	6.26
516.473	6.28
516.819	6.31
517.166	6.31
517.512	6.32
517.859	6.34
518.205	6.35
518.552	6.35
518.898	6.35
519.245	6.34
519.591	6.33
519.937	6.31
520.283	6.31
520.629	6.3
520.976	6.3
521.322	6.29
521.668	6.28
522.014	6.29
522.36	6.31
522.706	6.32
523.052	6.33
523.398	6.36
523.743	6.36
524.089	6.35
524.435	6.35
524.781	6.35
525.126	6.36
525.472	6.38
525.817	6.4
526.163	6.4
526.509	6.41
526.854	6.43
527.199	6.44
527.545	6.44
527.89	6.46
528.235	6.46
528.581	6.47
528.926	6.48
529.271	6.49
529.616	6.5
529.961	6.51
530.306	6.52
530.651	6.53
530.996	6.54
531.341	6.56
531.686	6.57
532.031	6.59
532.376	6.6
532.721	6.61
533.065	6.61
533.41	6.63
533.755	6.65
534.099	6.66
534.444	6.69
534.788	6.72
535.133	6.72
535.477	6.73
535.822	6.74
536.166	6.75
536.51	6.74
536.855	6.73
537.199	6.72
537.543	6.72
537.887	6.7
538.231	6.69
538.576	6.7
538.92	6.69
539.264	6.67
539.608	6.68
539.951	6.68
540.295	6.69
540.639	6.7
540.983	6.69
541.327	6.7
541.671	6.68
542.014	6.67
542.358	6.67
542.701	6.69
543.045	6.69
543.389	6.69
543.732	6.69
544.075	6.71
544.419	6.72
544.762	6.72
545.105	6.73
545.449	6.74
545.792	6.73
546.135	6.73
546.478	6.73
546.821	6.7
547.165	6.7
547.508	6.7
547.851	6.7
548.194	6.68
548.536	6.68
548.879	6.71
549.222	6.72
549.565	6.73
549.908	6.69
550.25	6.69
550.593	6.68
550.936	6.68
551.278	6.68
551.621	6.72
551.963	6.73
552.306	6.75
552.648	6.75
552.991	6.78
553.333	6.82
553.675	6.85
554.017	6.87
554.36	6.88
554.702	6.85
555.044	6.85
555.386	6.87
555.728	6.87
556.07	6.89
556.412	6.88
556.754	6.88
557.096	6.89
557.438	6.91
557.78	6.94
558.121	6.98
558.463	7
558.805	6.95
559.147	6.94
559.488	6.92
559.83	6.93
560.171	6.9
560.513	6.89
560.854	6.89
561.196	6.92
561.537	6.92
561.878	6.96
562.22	6.96
562.561	6.99
562.902	7
563.243	6.98
563.584	6.96
563.925	6.97
564.266	6.97
564.607	6.99
564.948	6.99
565.289	6.99
565.63	6.98
565.971	6.98
566.312	6.97
566.653	6.98
566.993	6.99
567.334	7.02
567.675	7.02
568.015	7.02
568.356	7.01
568.696	7.01
569.037	6.99
569.377	6.98
569.718	6.96
570.058	6.95
570.398	6.94
570.739	6.93
571.079	6.95
571.419	6.96
571.759	6.97
572.099	6.93
572.439	6.93
572.779	6.92
573.119	6.96
573.459	6.97
573.799	6.99
574.139	6.97
574.479	6.95
574.819	6.96
575.158	6.94
575.498	6.95
575.838	6.95
576.177	6.94
576.517	6.94
576.856	6.96
577.196	6.96
577.535	6.99
577.875	7.04
578.214	7.01
578.553	7.04
578.893	7.02
579.232	7.02
579.571	6.97
579.91	6.96
580.25	6.92
580.589	6.91
580.928	6.91
581.267	6.91
581.606	6.92
581.945	6.89
582.283	6.95
582.622	6.91
582.961	6.89
583.3	6.93
583.639	6.96
583.977	6.95
584.316	6.96
584.654	6.96
584.993	6.92
585.332	6.92
585.67	6.87
586.008	6.88
586.347	6.94
586.685	6.98
587.024	6.97
587.362	6.97
587.7	6.98
588.038	6.99
588.376	7.02
588.715	7.01
589.053	7.04
589.391	7.04
589.729	7.03
590.067	7.07
590.404	7.07
590.742	7.09
591.08	7.1
591.418	7.13
591.756	7.14
592.093	7.16
592.431	7.2
592.769	7.25
593.106	7.26
593.444	7.22
593.781	7.25
594.119	7.29
594.456	7.29
594.793	7.28
595.131	7.26
595.468	7.24
595.805	7.2
596.143	7.19
596.48	7.18
596.817	7.22
597.154	7.24
597.491	7.26
597.828	7.22
598.165	7.2
598.502	7.14
598.839	7.15
599.176	7.16
599.512	7.12
599.849	7.07
600.186	7.08
600.523	7.11
600.859	7.14
601.196	7.14
601.532	7.14
601.869	7.16
602.205	7.2
602.542	7.23
602.878	7.28
603.215	7.29
603.551	7.3
603.887	7.31
604.223	7.31
604.56	7.29
604.896	7.29
605.232	7.28
605.568	7.33
605.904	7.33
606.24	7.35
606.576	7.39
606.912	7.42
607.248	7.43
607.583	7.46
607.919	7.42
608.255	7.44
608.591	7.44
608.926	7.44
609.262	7.43
609.597	7.41
609.933	7.41
610.268	7.39
610.604	7.37
610.939	7.36
611.275	7.34
611.61	7.34
611.945	7.36
612.281	7.41
612.616	7.36
612.951	7.38
613.286	7.35
613.621	7.35
613.956	7.35
614.291	7.33
614.626	7.32
614.961	7.32
615.296	7.26
615.631	7.28
615.966	7.28
616.3	7.29
616.635	7.3
616.97	7.29
617.304	7.32
617.639	7.33
617.973	7.37
618.308	7.38
618.642	7.44
618.977	7.44
619.311	7.46
619.646	7.51
619.98	7.53
620.314	7.55
620.648	7.55
620.983	7.58
621.317	7.58
621.651	7.59
621.985	7.6
622.319	7.64
622.653	7.7
622.987	7.7
623.321	7.7
623.655	7.72
623.988	7.79
624.322	7.75
624.656	7.79
624.99	7.77
625.323	7.79
625.657	7.71
625.99	7.7
626.324	7.69
626.657	7.7
626.991	7.68
627.324	7.65
627.658	7.64
627.991	7.63
628.324	7.66
628.657	7.65
628.991	7.61
629.324	7.64
629.657	7.61
629.99	7.63
630.323	7.64
630.656	7.63
630.989	7.59
631.322	7.65
631.655	7.62
631.987	7.61
632.32	7.57
632.653	7.64
632.986	7.64
633.318	7.67
633.651	7.65
633.984	7.67
634.316	7.72
634.649	7.75
634.981	7.71
635.313	7.71
635.646	7.68
635.978	7.71
636.31	7.67
636.643	7.65
636.975	7.64
637.307	7.67
637.639	7.61
637.971	7.58
638.303	7.55
638.635	7.56
638.967	7.56
639.299	7.59
639.631	7.53
639.963	7.51
640.295	7.5
640.626	7.58
640.958	7.59
641.29	7.59
641.621	7.57
641.953	7.59
642.285	7.61
642.616	7.67
642.948	7.64
643.279	7.65
643.61	7.67
643.942	7.7
644.273	7.66
644.604	7.69
644.936	7.69
645.267	7.68
645.598	7.7
645.929	7.72
646.26	7.74
646.591	7.81
646.922	7.81
647.253	7.77
647.584	7.71
647.915	7.67
648.245	7.67
648.576	7.66
648.907	7.7
649.238	7.63
649.568	7.61
649.899	7.66
650.229	7.68
650.56	7.61
650.89	7.55
651.221	7.54
651.551	7.52
651.882	7.5
652.212	7.48
652.542	7.51
652.872	7.5
653.203	7.52
653.533	7.51
653.863	7.56
654.193	7.54
654.523	7.54
654.853	7.57
655.183	7.58
655.513	7.58
655.843	7.5
656.172	7.55
656.502	7.64
656.832	7.64
657.162	7.72
657.491	7.73
657.821	7.75
658.15	7.79
658.48	7.86
658.809	7.89
659.139	7.9
659.468	7.88
659.798	7.88
660.127	7.87
660.456	7.85
660.785	7.78
661.115	7.82
661.444	7.79
661.773	7.78
662.102	7.76
662.431	7.82
662.76	7.85
663.089	7.88
663.418	7.87
663.747	7.9
664.076	7.89
664.404	7.96
664.733	8.05
665.062	8.03
665.39	8.04
665.719	8.06
666.048	8.1
666.376	8.07
666.705	8.07
667.033	7.99
667.362	7.99
667.69	8.1
668.018	8.19
668.347	8.25
668.675	8.29
669.003	8.33
669.331	8.31
669.659	8.36
669.987	8.34
670.315	8.32
670.643	8.25
670.971	8.18
671.299	8.21
671.627	8.17
671.955	8.15
672.283	8.12
672.61	8.09
672.938	8.1
673.266	8.15
673.593	8.18
673.921	8.25
674.249	8.29
674.576	8.24
674.904	8.22
675.231	8.19
675.558	8.07
675.886	8.06
676.213	8.07
676.54	8.06
676.867	8.05
677.195	8.07
677.522	8.12
677.849	8.22
678.176	8.2
678.503	8.23
678.83	8.21
679.157	8.19
679.484	8.19
679.81	8.25
680.137	8.18
680.464	8.13
680.791	8.1
681.117	8.02
681.444	8.01
681.771	7.97
682.097	7.99
682.424	8.1
682.75	8.05
683.077	8.06
683.403	8.07
683.729	8.06
684.056	8.04
684.382	8.07
684.708	7.99
685.034	7.95
685.36	7.87
685.686	7.84
686.012	7.78
686.339	7.93
686.664	7.9
686.99	7.91
687.316	7.92
687.642	8.06
687.968	8.05
688.294	8.12
688.619	8.23
688.945	8.18
689.271	8.09
689.596	8.09
689.922	8.03
690.247	8.05
690.573	8.06
690.898	8.03
691.224	8.07
691.549	8.13
691.874	8.1
692.2	8.11
692.525	8.16
692.85	8.38
693.175	8.32
693.5	8.32
693.825	8.36
694.15	8.34
694.475	8.29
694.8	8.37
695.125	8.31
695.45	8.19
695.775	8.26
696.099	8.28
696.424	8.3
696.749	8.34
697.073	8.28
697.398	8.26
697.723	8.26
698.047	8.19
698.372	8.16
698.696	8.22
699.02	8.25
699.345	8.33
699.669	8.27
699.993	8.26
700.318	8.23
700.642	8.28
700.966	8.27
701.29	8.26
701.614	8.33
701.938	8.39
702.262	8.51
702.586	8.59
702.91	8.64
703.234	8.68
703.557	8.7
703.881	8.91
704.205	8.95
704.529	9.04
704.852	9.1
705.176	9.1
705.499	9.13
705.823	9.12
706.146	9.08
706.47	8.99
706.793	8.93
707.117	8.98
707.44	9.1
707.763	9.1
708.086	9.02
708.409	8.92
708.733	8.9
709.056	8.85
709.379	8.91
709.702	8.89
710.025	8.91
710.348	8.92
710.671	8.7
710.993	8.9
711.316	8.86
711.639	8.97
711.962	8.99
712.284	9.02
712.607	9.06
712.93	9.12
713.252	9.2
713.575	9.22
713.897	9.33
714.22	9.15
714.542	9.23
714.864	9.21
715.187	9.34
715.509	9.27
715.831	9.2
716.153	9.04
716.475	9.08
716.798	9.19
717.12	9.25
717.442	9.31
717.764	9.09
718.085	9.1
718.407	8.97
718.729	9.04
719.051	9.13
719.373	9.23
719.695	9.36
720.016	9.52
720.338	9.56
720.659	9.51
720.981	9.64
721.302	9.76
721.624	9.84
721.945	9.82
722.267	10.12
722.588	10.16
722.909	10.22
723.231	10.13
723.552	9.92
723.873	9.88
724.194	9.86
724.515	10
724.836	10.02
725.157	10.17
725.478	10.03
725.799	10.09
726.12	9.95
726.441	9.85
726.762	10.02
727.083	10.11
727.403	10
727.724	10.02
728.045	9.99
728.365	10.11
728.686	10.03
729.006	9.87
729.327	9.96
729.647	9.92
729.967	9.96
730.288	10.12
730.608	10.05
730.928	9.88
731.249	9.92
731.569	10.01
731.889	10.05
732.209	10.17
732.529	10.1
732.849	10.18
733.169	10.21
733.489	9.96
733.809	10
734.129	9.96
734.448	9.92
734.768	9.9
735.088	9.8
735.408	9.86
735.727	9.96
736.047	10.03
736.366	10.24
736.686	10.3
737.005	10.29
737.325	10.33
737.644	10.5
737.963	10.48
738.283	10.3
738.602	10.23
738.921	10.2
739.24	10.05
739.56	10.06
739.879	9.92
740.198	9.92
740.517	9.73
740.836	9.8
741.155	9.87
741.473	9.9
741.792	9.85
742.111	9.87
742.43	9.78
742.748	9.55
743.067	9.39
743.386	9.49
743.704	9.48
744.023	9.43
744.341	9.52
744.66	9.62
744.978	9.81
745.297	9.74
745.615	9.82
745.933	9.99
746.252	9.94
746.57	9.98
746.888	9.87
747.206	9.87
747.524	10.07
747.842	9.99
748.16	9.97
748.478	10.09
748.796	10.1
749.114	10.31
749.432	10.34
749.749	10.32
750.067	10.13
750.385	9.96
750.703	10.31
751.02	10.42
751.338	10.38
751.655	10.25
751.973	10.14
752.29	9.87
752.608	9.93
752.925	9.91
753.242	9.96
753.56	9.87
753.877	9.79
754.194	9.58
754.511	9.76
754.828	9.84
755.145	9.88
755.462	9.86
755.779	9.99
756.096	10.07
756.413	10.16
756.73	10.19
757.047	10.43
757.364	10.31
757.68	10.13
757.997	10.17
758.314	10.4
758.63	10.51
758.947	10.83
759.264	10.59
759.58	10.53
759.896	10.42
760.213	10.52
760.529	10.69
760.846	10.82
761.162	10.79
761.478	10.82
761.794	10.73
762.11	10.68
762.426	10.47
762.743	10.58
763.059	10.67
763.375	10.64
763.69	10.71
764.006	10.67
764.322	10.76
764.638	10.81
764.954	10.78
765.27	10.81
765.585	10.69
765.901	10.85
766.216	10.85
766.532	10.98
766.848	11.01
767.163	11.14
767.478	11.14
767.794	11.1
768.109	10.94
768.424	11.08
768.74	11.19
769.055	11.38
769.37	11.45
769.685	11.19
770	11.38
770.315	11.37
770.63	11.14
770.945	10.96
771.26	10.9
771.575	10.7
771.89	10.73
772.205	10.71
772.52	10.54
772.834	10.69
773.149	11.06
773.464	11.22
773.778	11.1
774.093	10.97
774.407	10.93
774.722	11.07
775.036	11
775.351	10.95
775.665	10.9
775.979	10.38
776.293	10.48
776.608	10.51
776.922	10.16
777.236	10.31
777.55	10.39
777.864	10.46
778.178	10.51
778.492	10.7
778.806	10.76
779.12	11.1
779.434	11.3
779.747	10.81
780.061	10.53
780.375	10.58
780.689	10.72
781.002	10.75
781.316	10.7
781.629	10.9
781.943	11.33
782.256	11.12
782.57	11.38
782.883	11.38
783.196	11.01
783.51	11.02
783.823	11.06
784.136	11.57
784.449	11.54
784.762	11.7
785.075	11.26
785.388	11.03
785.701	10.82
786.014	10.67
786.327	10.52
786.64	10.97
786.953	11.06
787.266	10.59
787.578	10.26
787.891	10.65
788.204	10.43
788.516	10.16
788.829	10.17
789.141	10.31
789.454	10.58
789.766	11.05
790.079	11.18
790.391	11.22
790.703	11.34
791.016	11.31
791.328	11.63
791.64	11.83
791.952	12
792.264	11.54
792.576	11.32
792.888	11.83
793.2	11.45
793.512	11.78
793.824	12.29
794.136	12.6
794.448	12.35
794.76	12.37
795.071	12.4
795.383	12.26
795.695	12.24
796.006	12.44
796.318	12.37
796.629	12.5
796.941	12.29
797.252	11.82
797.564	11.61
797.875	11.54
798.186	11.62
798.497	11.8
798.809	12.27
799.12	12.86
799.431	12.82
799.742	12.84
800.053	12.7
800.364	12.7
800.675	12.43
800.986	12.3
801.297	12.2
801.608	11.76
801.918	11.92
802.229	12.32
802.54	12.16
802.851	11.97
803.161	12.28
803.472	12.91
803.782	13.58
804.093	13.81
804.403	13.17
804.714	13.17
805.024	13.05
805.334	13.5
805.645	13.27
805.955	13.06
806.265	13.72
806.575	13.16
806.885	13.29
807.195	14.42
807.505	14.74
807.815	15.2
808.125	15.84
808.435	16.12
808.745	15.75
809.055	15.75
809.365	15.76
809.674	15.05
809.984	14.77
810.294	13.79
810.603	14.37
810.913	15.19
811.222	15.07
811.532	15.73
811.841	15.81
812.151	15.93
812.46	16.35
812.769	15.59
813.079	15.57
813.388	15.34
813.697	14.42
814.006	13.71
814.315	13.04
814.624	12.83
814.933	12.97
815.242	12.67
815.551	12
815.86	12.45
816.169	13.11
816.478	12.72
816.786	13.34
817.095	13.4
817.404	12.86
817.712	13.39
818.021	12.79
818.33	12.42
818.638	12.33
818.947	12.82
819.255	13.26
819.563	13.2
819.872	12.9
820.18	13.38
820.488	13.61
820.796	13.8
821.105	13.93
821.413	13.74
821.721	13.92
822.029	14
822.337	14
822.645	13.85
822.953	13.98
823.26	14.02
823.568	13.91
823.876	13.97
824.184	13.82
824.491	13.87
824.799	13.92
825.107	13.82
825.414	13.73
825.722	13.8
826.029	13.91
826.337	14.22
826.644	14.16
826.951	14.26
827.259	14.27
827.566	14.25
827.873	14.36
828.18	14.41
828.488	14.61
828.795	14.61
829.102	14.71
829.409	14.77
829.716	14.51
830.023	14.55
830.329	14.48
830.636	14.8
830.943	14.98
831.25	14.93
831.557	15.21
831.863	15.23
832.17	15.05
832.476	15.21
832.783	15.09
833.089	14.86
833.396	14.94
833.702	15.29
834.009	15.11
834.315	15.33
834.621	15.3
834.928	15.07
835.234	15.04
835.54	15.18
835.846	15.35
836.152	15.67
836.458	15.93
836.764	15.86
837.07	15.31
837.376	14.95
837.682	14.79
837.988	14.38
838.293	13.79
838.599	14.11
838.905	13.41
839.211	13
839.516	13.45
839.822	13.17
840.127	12.37
840.433	12.72
840.738	12.47
841.044	12.06
841.349	11.82
841.654	12.35
841.959	12.29
842.265	12.04
842.57	11.41
842.875	10.62
843.18	11.06
843.485	12.17
843.79	13.29
844.095	13.34
844.4	15.81
844.705	16.71
845.01	16.66
845.315	17.58
845.619	16.99
845.924	16.36
846.229	16.64
846.533	17.75
846.838	18.42
847.142	17.89
847.447	17.02
847.751	18.56
848.056	16.73
848.36	18.29
848.664	18.06
848.969	17.53
849.273	16.35
849.577	17.43
849.881	15.84
850.185	15.31
850.489	15.52
850.794	12.29
851.097	12.41
851.401	13.25
851.705	14.27
852.009	15.59
852.313	14.15
852.617	14.07
852.92	13.89
853.224	12.21
853.528	12.61
853.831	14.05
854.135	14.51
854.438	13.43
854.742	12.68
855.045	12.77
855.349	12.9
855.652	15.13
855.955	14.42
856.259	15.58
856.562	16.89
856.865	15.49
857.168	16.79
857.471	17.87
857.774	17.45
858.077	17.9
858.38	19.91
858.683	22.14
858.986	22.59
859.289	23.05
859.592	23.52
859.894	24.34
860.197	23.98
860.5	22.09
860.802	22.9
861.105	22.28
861.407	21.57
861.71	23.26
862.012	23.24
862.315	23.83
862.617	23.06
862.919	21.05
863.222	23.17
863.524	21.32
863.826	20.04
864.128	19.25
864.43	20.14
864.732	19.09
865.034	18.67
865.336	17.28
865.638	16.38
865.94	16.75
866.242	15.48
866.544	14.89
866.846	15.93
867.147	19.78
867.449	18.86
867.751	19.5
868.052	20.06
868.354	18.88
868.655	17.94
868.957	17.29
869.258	15.41
869.56	15.92
869.861	17.01
870.162	17.06
870.463	16.11
870.765	14.4
871.066	13.17
871.367	13.54
871.668	12.98
871.969	12.39
872.27	13.97
872.571	12.86
872.872	13.7
873.173	12.23
873.473	9.95
873.774	10.96
874.075	8.9
874.376	9.74
874.676	9.67
874.977	7.83
875.277	9.48
875.578	13.28
875.878	12.28
876.179	12.37
876.479	12.18
876.78	12.17
877.08	11.81
877.38	12.43
877.68	11.94
877.981	13.13
878.281	13.31
878.581	9.51
