Data from BA28300_Reflection_00007.txt Node
Date: Mon Nov 18 15:58:13 EST 2019
User: vgr7
Spectrometer: USB2G7710
Scans to average: 3
Trigger mode: 4
Integration Time (sec): 2.000000E-2
Electric dark correction enabled: true
Boxcar width: 10
XAxis mode: Wavelengths
Number of Pixels in Spectrum: 2048
>>>>>Begin Spectral Data<<<<<
177.721	81.72
178.105	570.59
178.488	-5.07
178.871	45.43
179.254	144.98
179.636	-40.46
180.019	-59.17
180.402	111.11
180.785	52.8
181.168	24.89
181.55	287.97
181.933	166.21
182.316	180.13
182.698	109.36
183.081	69.97
183.463	46.41
183.846	66.86
184.228	78.34
184.611	125.5
184.993	-1012.68
185.376	-1723.53
185.758	302.95
186.14	248.79
186.522	239.29
186.904	385.42
187.287	775.68
187.669	-283.92
188.051	-1759.81
188.433	5478.38
188.815	-327.07
189.197	-580.43
189.579	-505.76
189.961	-1002.89
190.342	-1543.17
190.724	-575.27
191.106	-750.56
191.488	-780.6
191.869	-1000.54
192.251	-1624.23
192.633	-1829.77
193.014	1537.32
193.396	787.41
193.777	-1803.91
194.159	3020
194.54	-29958.82
194.922	2658.01
195.303	-5506.74
195.684	-6928.17
196.065	-828.19
196.447	-611.98
196.828	-1350.16
197.209	-554.25
197.59	-835.48
197.971	-548.35
198.352	-137.47
198.733	-96.82
199.114	-86.97
199.495	-39.31
199.876	-52.56
200.257	-36.55
200.638	-44.41
201.018	-70.22
201.399	-55.43
201.78	-79.27
202.16	-105.5
202.541	-166.95
202.922	-381.4
203.302	-762.96
203.683	-744.1
204.063	-391.37
204.444	-206.49
204.824	-218.68
205.204	-359.87
205.585	-273.22
205.965	-238.02
206.345	-385.83
206.725	-1017.65
207.106	-3034.45
207.486	-1182.42
207.866	-4972.29
208.246	-917.13
208.626	-664.71
209.006	-294.83
209.386	-442.86
209.766	-556.21
210.145	-287.88
210.525	-210.92
210.905	-120.43
211.285	-124.05
211.664	-104.54
212.044	-121.7
212.424	-162.73
212.803	-151.01
213.183	-90.98
213.562	-81.64
213.942	-118.44
214.321	-132.12
214.701	-135.1
215.08	-132.64
215.459	-117.1
215.838	-85.59
216.218	-78.84
216.597	-57.71
216.976	-66.43
217.355	-51.29
217.734	-52.2
218.113	-56.04
218.492	-37.37
218.871	-41.48
219.25	-29.26
219.629	-41.68
220.008	-47.12
220.387	-48.03
220.766	-44.42
221.144	-51.87
221.523	-54.94
221.902	-42.63
222.28	-35.37
222.659	-24.61
223.037	-22.82
223.416	-33.6
223.794	-35.11
224.173	-35.03
224.551	-29.67
224.929	-29.61
225.308	-20.98
225.686	-14.94
226.064	-14.12
226.442	-17.99
226.821	-16.73
227.199	-17.73
227.577	-16.83
227.955	-17.9
228.333	-17.85
228.711	-14.95
229.089	-14.4
229.467	-16.46
229.845	-19.08
230.222	-18.61
230.6	-20
230.978	-19.49
231.356	-14.79
231.733	-14.75
232.111	-10.76
232.488	-10.5
232.866	-11.3
233.243	-11.75
233.621	-12.58
233.998	-10.19
234.376	-9.22
234.753	-7.57
235.13	-5.07
235.508	-3.88
235.885	-2.84
236.262	-2.49
236.639	-2.56
237.016	-1.88
237.393	0.77
237.77	2.32
238.147	3.3
238.524	5.25
238.901	6.42
239.278	6.56
239.655	6.85
240.032	5.81
240.409	5.15
240.785	5.23
241.162	5.07
241.539	4.98
241.915	4.69
242.292	3.93
242.668	4.41
243.045	4.33
243.421	4.67
243.798	4.99
244.174	5.14
244.551	5.21
244.927	5.04
245.303	5.05
245.679	5.12
246.056	5.07
246.432	4.98
246.808	4.73
247.184	4.58
247.56	4.48
247.936	4.53
248.312	4.88
248.688	5.01
249.064	4.92
249.44	5.04
249.815	5.18
250.191	5.45
250.567	5.47
250.943	5.29
251.318	5.21
251.694	5.15
252.069	5.14
252.445	5.3
252.82	5.47
253.196	5.39
253.571	5.12
253.947	5.29
254.322	5.5
254.697	5.58
255.073	5.47
255.448	5.46
255.823	5.56
256.198	5.61
256.573	5.54
256.948	5.6
257.323	5.67
257.698	5.86
258.073	6.27
258.448	6.26
258.823	6.22
259.198	6.2
259.573	6.35
259.948	6.23
260.322	6.3
260.697	6.2
261.072	6.1
261.446	6.12
261.821	5.97
262.195	5.79
262.57	5.62
262.944	5.61
263.319	5.62
263.693	5.56
264.067	5.44
264.442	5.82
264.816	5.94
265.19	5.87
265.564	5.59
265.938	5.08
266.313	4.97
266.687	5.03
267.061	4.91
267.435	4.6
267.809	4.58
268.183	4.46
268.556	4.52
268.93	4.62
269.304	4.67
269.678	4.78
270.051	4.62
270.425	4.73
270.799	4.74
271.172	4.76
271.546	4.84
271.919	4.7
272.293	4.43
272.666	4.34
273.04	4.21
273.413	4.17
273.787	4.25
274.16	4.07
274.533	4.09
274.906	4.18
275.279	4.37
275.653	4.44
276.026	4.37
276.399	4.28
276.772	4.32
277.145	4.18
277.518	4.24
277.891	4.4
278.263	4.39
278.636	4.22
279.009	4.21
279.382	4.2
279.755	4.25
280.127	4.29
280.5	4.34
280.872	4.43
281.245	4.35
281.617	4.51
281.99	4.76
282.362	4.74
282.735	4.69
283.107	4.61
283.479	4.63
283.852	4.71
284.224	4.75
284.596	4.78
284.968	4.91
285.34	4.85
285.713	4.91
286.085	4.84
286.457	5.1
286.829	5.14
287.201	5.25
287.572	5.38
287.944	5.41
288.316	5.49
288.688	5.69
289.06	5.88
289.431	5.89
289.803	5.92
290.175	6.03
290.546	6.31
290.918	6.4
291.289	6.38
291.661	6.34
292.032	6.47
292.403	6.6
292.775	6.74
293.146	6.72
293.517	6.81
293.889	6.99
294.26	6.98
294.631	7.06
295.002	7.02
295.373	7
295.744	7.15
296.115	7.08
296.486	6.88
296.857	6.92
297.228	7
297.599	6.88
297.97	6.94
298.34	6.8
298.711	6.91
299.082	7.06
299.452	7.15
299.823	7.31
300.194	7.26
300.564	7.34
300.935	7.45
301.305	7.58
301.676	7.68
302.046	7.81
302.416	7.99
302.787	8.1
303.157	8.2
303.527	8.12
303.897	8.27
304.267	8.64
304.637	8.63
305.008	8.72
305.378	8.92
305.748	8.97
306.117	9.04
306.487	9.06
306.857	9.1
307.227	9.13
307.597	9
307.967	9.02
308.336	9.01
308.706	9.1
309.076	9.09
309.445	9.05
309.815	9.18
310.184	9
310.554	9.01
310.923	9.12
311.293	9.07
311.662	9.14
312.031	9.08
312.401	9.23
312.77	9.25
313.139	9.38
313.508	9.37
313.877	9.37
314.246	9.4
314.616	9.49
314.985	9.65
315.353	9.67
315.722	9.88
316.091	9.96
316.46	9.96
316.829	9.99
317.198	10.19
317.567	10.13
317.935	10.34
318.304	10.45
318.672	10.52
319.041	10.54
319.41	10.55
319.778	10.58
320.147	10.64
320.515	10.57
320.883	10.5
321.252	10.69
321.62	10.85
321.988	10.96
322.357	10.94
322.725	11.03
323.093	11.26
323.461	11.26
323.829	11.38
324.197	11.62
324.565	11.65
324.933	11.52
325.301	11.61
325.669	11.73
326.037	11.84
326.405	11.81
326.772	12
327.14	12.22
327.508	12.4
327.875	12.4
328.243	12.64
328.61	12.71
328.978	12.77
329.346	12.85
329.713	12.91
330.08	13.02
330.448	13.08
330.815	13.09
331.182	13.12
331.55	13.06
331.917	13
332.284	13.11
332.651	13.25
333.018	13.33
333.385	13.28
333.752	13.19
334.119	13.31
334.486	13.31
334.853	13.2
335.22	13.1
335.587	13.15
335.954	13.1
336.32	13.14
336.687	13.02
337.054	13.01
337.42	13.02
337.787	13.07
338.153	13.01
338.52	12.98
338.886	13.01
339.253	13.03
339.619	13.09
339.986	13.19
340.352	13.3
340.718	13.44
341.084	13.45
341.451	13.54
341.817	13.57
342.183	13.78
342.549	13.83
342.915	13.83
343.281	13.84
343.647	13.96
344.013	14.05
344.379	14.15
344.745	14.14
345.11	14.23
345.476	14.3
345.842	14.34
346.208	14.38
346.573	14.41
346.939	14.5
347.304	14.47
347.67	14.49
348.035	14.45
348.401	14.29
348.766	14.34
349.132	14.3
349.497	14.24
349.862	14.14
350.228	14.19
350.593	14.23
350.958	14.25
351.323	14.2
351.688	14.28
352.053	14.33
352.418	14.39
352.783	14.36
353.148	14.38
353.513	14.43
353.878	14.43
354.243	14.46
354.608	14.41
354.972	14.42
355.337	14.37
355.702	14.39
356.066	14.5
356.431	14.41
356.795	14.55
357.16	14.6
357.524	14.61
357.889	14.59
358.253	14.68
358.618	14.67
358.982	14.67
359.346	14.54
359.71	14.58
360.075	14.66
360.439	14.68
360.803	14.64
361.167	14.61
361.531	14.65
361.895	14.63
362.259	14.7
362.623	14.72
362.987	14.75
363.351	14.76
363.714	14.7
364.078	14.68
364.442	14.61
364.806	14.55
365.169	14.54
365.533	14.54
365.896	14.49
366.26	14.46
366.623	14.43
366.987	14.47
367.35	14.41
367.714	14.31
368.077	14.23
368.44	14.21
368.803	14.12
369.167	14.1
369.53	14.05
369.893	13.99
370.256	13.97
370.619	13.88
370.982	13.73
371.345	13.71
371.708	13.8
372.071	13.83
372.434	13.81
372.797	13.73
373.159	13.64
373.522	13.61
373.885	13.58
374.247	13.55
374.61	13.49
374.973	13.42
375.335	13.37
375.698	13.26
376.06	13.18
376.423	13.15
376.785	13.11
377.147	13.07
377.51	12.98
377.872	12.83
378.234	12.77
378.596	12.79
378.958	12.72
379.321	12.64
379.683	12.55
380.045	12.49
380.407	12.44
380.769	12.43
381.13	12.28
381.492	12.24
381.854	12.13
382.216	12.06
382.578	11.98
382.939	11.88
383.301	11.88
383.663	11.83
384.024	11.75
384.386	11.67
384.747	11.6
385.109	11.51
385.47	11.48
385.832	11.41
386.193	11.39
386.554	11.35
386.916	11.27
387.277	11.21
387.638	11.17
387.999	11.07
388.36	10.98
388.721	10.98
389.082	10.91
389.443	10.86
389.804	10.78
390.165	10.72
390.526	10.63
390.887	10.57
391.248	10.54
391.609	10.5
391.969	10.45
392.33	10.36
392.691	10.34
393.051	10.26
393.412	10.22
393.772	10.09
394.133	10.02
394.493	9.97
394.854	9.88
395.214	9.8
395.574	9.8
395.935	9.76
396.295	9.68
396.655	9.58
397.015	9.52
397.376	9.43
397.736	9.36
398.096	9.35
398.456	9.25
398.816	9.21
399.176	9.14
399.535	9.06
399.895	9
400.255	8.92
400.615	8.89
400.975	8.84
401.334	8.82
401.694	8.75
402.054	8.67
402.413	8.62
402.773	8.56
403.132	8.48
403.492	8.41
403.851	8.39
404.211	8.42
404.57	8.35
404.929	8.37
405.288	8.36
405.648	8.3
406.007	8.31
406.366	8.24
406.725	8.22
407.084	8.2
407.443	8.16
407.802	8.16
408.161	8.12
408.52	8.07
408.879	8.03
409.238	8
409.596	7.97
409.955	7.94
410.314	7.92
410.673	7.88
411.031	7.86
411.39	7.81
411.748	7.76
412.107	7.74
412.465	7.72
412.824	7.68
413.182	7.64
413.54	7.59
413.899	7.58
414.257	7.55
414.615	7.5
414.974	7.47
415.332	7.39
415.69	7.36
416.048	7.32
416.406	7.3
416.764	7.23
417.122	7.21
417.48	7.17
417.838	7.11
418.195	7.07
418.553	7.02
418.911	6.98
419.269	6.96
419.626	6.91
419.984	6.86
420.342	6.83
420.699	6.78
421.057	6.75
421.414	6.69
421.772	6.66
422.129	6.63
422.486	6.59
422.844	6.57
423.201	6.53
423.558	6.5
423.915	6.46
424.273	6.46
424.63	6.42
424.987	6.39
425.344	6.37
425.701	6.36
426.058	6.33
426.415	6.3
426.772	6.25
427.128	6.23
427.485	6.22
427.842	6.17
428.199	6.16
428.555	6.14
428.912	6.14
429.269	6.14
429.625	6.13
429.982	6.11
430.338	6.09
430.695	6.09
431.051	6.05
431.407	6.05
431.764	6.05
432.12	6.05
432.476	6.06
432.832	6.06
433.189	6.04
433.545	6.05
433.901	6.05
434.257	6.08
434.613	6.09
434.969	6.09
435.325	6.12
435.681	6.12
436.036	6.12
436.392	6.11
436.748	6.08
437.104	6.09
437.459	6.09
437.815	6.09
438.171	6.09
438.526	6.12
438.882	6.12
439.237	6.11
439.593	6.1
439.948	6.07
440.304	6.06
440.659	6.07
441.014	6.06
441.369	6.04
441.725	6.01
442.08	5.99
442.435	5.97
442.79	5.95
443.145	5.93
443.5	5.9
443.855	5.87
444.21	5.85
444.565	5.83
444.92	5.8
445.275	5.76
445.629	5.75
445.984	5.72
446.339	5.68
446.693	5.65
447.048	5.61
447.403	5.6
447.757	5.57
448.112	5.54
448.466	5.5
448.82	5.48
449.175	5.48
449.529	5.46
449.883	5.46
450.238	5.42
450.592	5.4
450.946	5.39
451.3	5.37
451.654	5.36
452.008	5.34
452.362	5.34
452.716	5.35
453.07	5.33
453.424	5.34
453.778	5.33
454.132	5.32
454.486	5.32
454.839	5.32
455.193	5.31
455.547	5.32
455.9	5.37
456.254	5.39
456.607	5.37
456.961	5.36
457.314	5.33
457.668	5.35
458.021	5.34
458.375	5.35
458.728	5.38
459.081	5.38
459.434	5.37
459.787	5.38
460.141	5.4
460.494	5.41
460.847	5.41
461.2	5.42
461.553	5.44
461.906	5.47
462.259	5.51
462.611	5.53
462.964	5.55
463.317	5.56
463.67	5.55
464.022	5.59
464.375	5.62
464.728	5.65
465.08	5.65
465.433	5.7
465.785	5.73
466.138	5.75
466.49	5.76
466.843	5.81
467.195	5.84
467.547	5.86
467.899	5.88
468.252	5.89
468.604	5.93
468.956	5.94
469.308	5.95
469.66	5.95
470.012	5.97
470.364	6.01
470.716	6.01
471.068	6.02
471.42	6.03
471.772	6.06
472.123	6.12
472.475	6.15
472.827	6.15
473.178	6.17
473.53	6.19
473.882	6.2
474.233	6.19
474.585	6.17
474.936	6.14
475.288	6.15
475.639	6.18
475.99	6.18
476.342	6.18
476.693	6.18
477.044	6.19
477.395	6.18
477.746	6.14
478.097	6.15
478.448	6.16
478.8	6.14
479.15	6.11
479.501	6.07
479.852	6.07
480.203	6.07
480.554	6.07
480.905	6.04
481.255	6.04
481.606	6.05
481.957	6.06
482.307	6.05
482.658	6.04
483.009	6.02
483.359	6.01
483.709	6.02
484.06	6.01
484.41	6.01
484.761	6
485.111	6.01
485.461	6
485.811	6
486.162	6.01
486.512	6.03
486.862	6.04
487.212	6.03
487.562	6.04
487.912	6.05
488.262	6.06
488.612	6.08
488.961	6.09
489.311	6.1
489.661	6.11
490.011	6.13
490.36	6.17
490.71	6.19
491.06	6.21
491.409	6.23
491.759	6.25
492.108	6.3
492.458	6.32
492.807	6.38
493.157	6.42
493.506	6.47
493.855	6.5
494.204	6.53
494.554	6.59
494.903	6.62
495.252	6.67
495.601	6.72
495.95	6.77
496.299	6.81
496.648	6.89
496.997	6.97
497.346	7.06
497.695	7.12
498.043	7.19
498.392	7.25
498.741	7.35
499.09	7.42
499.438	7.51
499.787	7.6
500.135	7.68
500.484	7.77
500.832	7.85
501.181	7.94
501.529	8.06
501.878	8.16
502.226	8.31
502.574	8.43
502.923	8.53
503.271	8.69
503.619	8.85
503.967	8.95
504.315	9.07
504.663	9.17
505.011	9.33
505.359	9.47
505.707	9.63
506.055	9.75
506.403	9.86
506.751	9.95
507.098	10.08
507.446	10.18
507.794	10.31
508.141	10.45
508.489	10.6
508.837	10.73
509.184	10.84
509.531	10.95
509.879	11.09
510.226	11.25
510.574	11.34
510.921	11.44
511.268	11.58
511.616	11.7
511.963	11.84
512.31	11.95
512.657	12.1
513.004	12.23
513.351	12.36
513.698	12.54
514.045	12.7
514.392	12.84
514.739	13
515.086	13.14
515.432	13.27
515.779	13.39
516.126	13.52
516.473	13.67
516.819	13.79
517.166	13.89
517.512	14
517.859	14.14
518.205	14.27
518.552	14.38
518.898	14.5
519.245	14.61
519.591	14.74
519.937	14.84
520.283	14.96
520.629	15.12
520.976	15.25
521.322	15.41
521.668	15.56
522.014	15.75
522.36	15.93
522.706	16.09
523.052	16.3
523.398	16.55
523.743	16.75
524.089	16.95
524.435	17.15
524.781	17.38
525.126	17.57
525.472	17.75
525.817	17.9
526.163	18.02
526.509	18.18
526.854	18.29
527.199	18.4
527.545	18.52
527.89	18.63
528.235	18.75
528.581	18.9
528.926	19.03
529.271	19.15
529.616	19.28
529.961	19.43
530.306	19.56
530.651	19.69
530.996	19.87
531.341	20.06
531.686	20.22
532.031	20.38
532.376	20.57
532.721	20.74
533.065	20.95
533.41	21.16
533.755	21.35
534.099	21.59
534.444	21.83
534.788	22.05
535.133	22.27
535.477	22.49
535.822	22.7
536.166	22.97
536.51	23.24
536.855	23.53
537.199	23.83
537.543	24.14
537.887	24.45
538.231	24.74
538.576	25.05
538.92	25.36
539.264	25.68
539.608	25.94
539.951	26.2
540.295	26.42
540.639	26.71
540.983	26.95
541.327	27.19
541.671	27.44
542.014	27.72
542.358	27.94
542.701	28.18
543.045	28.41
543.389	28.65
543.732	28.89
544.075	29.15
544.419	29.4
544.762	29.63
545.105	29.91
545.449	30.2
545.792	30.47
546.135	30.79
546.478	31.09
546.821	31.4
547.165	31.78
547.508	32.17
547.851	32.48
548.194	32.86
548.536	33.18
548.879	33.53
549.222	33.87
549.565	34.24
549.908	34.62
550.25	34.99
550.593	35.33
550.936	35.66
551.278	36
551.621	36.31
551.963	36.69
552.306	37.01
552.648	37.3
552.991	37.65
553.333	37.95
553.675	38.22
554.017	38.53
554.36	38.77
554.702	39.05
555.044	39.37
555.386	39.62
555.728	39.93
556.07	40.23
556.412	40.45
556.754	40.75
557.096	41.02
557.438	41.31
557.78	41.64
558.121	41.97
558.463	42.28
558.805	42.58
559.147	42.85
559.488	43.17
559.83	43.48
560.171	43.79
560.513	44.09
560.854	44.33
561.196	44.6
561.537	44.9
561.878	45.12
562.22	45.38
562.561	45.7
562.902	45.97
563.243	46.21
563.584	46.45
563.925	46.68
564.266	46.91
564.607	47.1
564.948	47.29
565.289	47.48
565.63	47.61
565.971	47.77
566.312	48.02
566.653	48.16
566.993	48.37
567.334	48.47
567.675	48.65
568.015	48.94
568.356	49.13
568.696	49.35
569.037	49.58
569.377	49.71
569.718	49.8
570.058	49.96
570.398	50.12
570.739	50.25
571.079	50.37
571.419	50.55
571.759	50.77
572.099	50.88
572.439	51.04
572.779	51.23
573.119	51.41
573.459	51.49
573.799	51.65
574.139	51.69
574.479	51.85
574.819	51.96
575.158	52.02
575.498	52.13
575.838	52.25
576.177	52.35
576.517	52.48
576.856	52.64
577.196	52.8
577.535	52.93
577.875	53.1
578.214	53.28
578.553	53.49
578.893	53.61
579.232	53.78
579.571	53.88
579.91	54.01
580.25	54.12
580.589	54.26
580.928	54.33
581.267	54.5
581.606	54.64
581.945	54.81
582.283	54.85
582.622	54.93
582.961	55.01
583.3	55.17
583.639	55.3
583.977	55.36
584.316	55.49
584.654	55.56
584.993	55.63
585.332	55.7
585.67	55.6
586.008	55.61
586.347	55.7
586.685	55.81
587.024	55.79
587.362	55.88
587.7	55.98
588.038	56.2
588.376	56.21
588.715	56.25
589.053	56.26
589.391	56.36
589.729	56.4
590.067	56.39
590.404	56.42
590.742	56.49
591.08	56.59
591.418	56.62
591.756	56.77
592.093	56.84
592.431	56.92
592.769	57.09
593.106	57.18
593.444	57.24
593.781	57.34
594.119	57.47
594.456	57.53
594.793	57.58
595.131	57.51
595.468	57.63
595.805	57.73
596.143	57.84
596.48	57.96
596.817	58.05
597.154	58.17
597.491	58.23
597.828	58.3
598.165	58.35
598.502	58.32
598.839	58.33
599.176	58.35
599.512	58.41
599.849	58.41
600.186	58.42
600.523	58.47
600.859	58.49
601.196	58.51
601.532	58.59
601.869	58.63
602.205	58.74
602.542	58.8
602.878	58.85
603.215	58.85
603.551	58.85
603.887	58.86
604.223	58.85
604.56	58.94
604.896	58.9
605.232	58.99
605.568	59.08
605.904	59.11
606.24	59.19
606.576	59.24
606.912	59.29
607.248	59.43
607.583	59.5
607.919	59.55
608.255	59.67
608.591	59.76
608.926	59.8
609.262	59.81
609.597	59.83
609.933	59.86
610.268	59.88
610.604	59.97
610.939	60.06
611.275	60.17
611.61	60.15
611.945	60.22
612.281	60.22
612.616	60.33
612.951	60.39
613.286	60.5
613.621	60.46
613.956	60.49
614.291	60.4
614.626	60.43
614.961	60.44
615.296	60.43
615.631	60.4
615.966	60.46
616.3	60.56
616.635	60.64
616.97	60.62
617.304	60.74
617.639	60.72
617.973	60.7
618.308	60.79
618.642	60.81
618.977	60.9
619.311	60.88
619.646	60.82
619.98	60.89
620.314	60.9
620.648	60.96
620.983	60.98
621.317	61.05
621.651	61.06
621.985	61.11
622.319	61.1
622.653	61.15
622.987	61.04
623.321	61.07
623.655	61.07
623.988	61.11
624.322	61.05
624.656	61.1
624.99	61.13
625.323	60.98
625.657	61.01
625.99	61.02
626.324	60.99
626.657	61
626.991	61
627.324	60.94
627.658	60.94
627.991	60.96
628.324	60.95
628.657	60.9
628.991	60.94
629.324	60.99
629.657	61.01
629.99	61.09
630.323	61.08
630.656	61.11
630.989	61.12
631.322	61.14
631.655	61.11
631.987	61.15
632.32	61.22
632.653	61.25
632.986	61.32
633.318	61.43
633.651	61.45
633.984	61.51
634.316	61.53
634.649	61.6
634.981	61.6
635.313	61.75
635.646	61.92
635.978	61.88
636.31	61.85
636.643	61.85
636.975	61.91
637.307	61.94
637.639	61.9
637.971	61.9
638.303	61.86
638.635	61.96
638.967	62.08
639.299	62.06
639.631	62.07
639.963	62.08
640.295	61.98
640.626	62
640.958	61.98
641.29	62.02
641.621	61.99
641.953	62.15
642.285	62
642.616	61.97
642.948	61.97
643.279	61.98
643.61	61.98
643.942	61.95
644.273	61.88
644.604	61.94
644.936	62.12
645.267	62.18
645.598	62.09
645.929	62.06
646.26	62.13
646.591	62.13
646.922	62.07
647.253	62.15
647.584	62.26
647.915	62.23
648.245	62.21
648.576	62.23
648.907	62.21
649.238	62.33
649.568	62.33
649.899	62.36
650.229	62.47
650.56	62.38
650.89	62.42
651.221	62.5
651.551	62.33
651.882	62.23
652.212	62.29
652.542	62.23
652.872	62.19
653.203	62.24
653.533	62.32
653.863	62.32
654.193	62.34
654.523	62.32
654.853	62.27
655.183	62.41
655.513	62.44
655.843	62.36
656.172	62.49
656.502	62.46
656.832	62.54
657.162	62.57
657.491	62.68
657.821	62.59
658.15	62.65
658.48	62.76
658.809	62.8
659.139	62.72
659.468	62.7
659.798	62.72
660.127	62.73
660.456	62.62
660.785	62.66
661.115	62.74
661.444	62.64
661.773	62.75
662.102	62.67
662.431	62.71
662.76	62.77
663.089	62.62
663.418	62.67
663.747	62.6
664.076	62.56
664.404	62.51
664.733	62.52
665.062	62.5
665.39	62.6
665.719	62.55
666.048	62.76
666.376	62.92
666.705	62.85
667.033	62.9
667.362	63.01
667.69	62.9
668.018	62.9
668.347	63.01
668.675	62.91
669.003	62.98
669.331	62.85
669.659	62.81
669.987	62.98
670.315	63.02
670.643	63.07
670.971	63.01
671.299	63.08
671.627	63.24
671.955	63.32
672.283	63.36
672.61	63.39
672.938	63.3
673.266	63.36
673.593	63.47
673.921	63.54
674.249	63.51
674.576	63.69
674.904	63.62
675.231	63.63
675.558	63.66
675.886	63.54
676.213	63.73
676.54	63.76
676.867	63.6
677.195	63.67
677.522	63.68
677.849	63.65
678.176	63.7
678.503	63.64
678.83	63.51
679.157	63.28
679.484	63.24
679.81	63.24
680.137	63.15
680.464	63.06
680.791	62.98
681.117	63
681.444	62.92
681.771	62.98
682.097	62.96
682.424	63
682.75	63.1
683.077	63.09
683.403	63.09
683.729	63.1
684.056	62.9
684.382	62.87
684.708	62.93
685.034	62.92
685.36	62.98
685.686	63.04
686.012	63.19
686.339	63.27
686.664	63.32
686.99	63.49
687.316	63.61
687.642	63.66
687.968	63.43
688.294	63.49
688.619	63.42
688.945	63.39
689.271	63.38
689.596	63.25
689.922	63.19
690.247	63.17
690.573	63.2
690.898	63.53
691.224	63.46
691.549	63.4
691.874	63.28
692.2	63.18
692.525	63.12
692.85	63.27
693.175	63.22
693.5	63.02
693.825	62.98
694.15	62.99
694.475	63.02
694.8	63.23
695.125	63.22
695.45	63.25
695.775	63.27
696.099	63.12
696.424	63.2
696.749	63.16
697.073	63.37
697.398	63.42
697.723	63.32
698.047	63.49
698.372	63.6
698.696	63.63
699.02	63.6
699.345	63.55
699.669	63.56
699.993	63.48
700.318	63.65
700.642	63.61
700.966	63.59
701.29	63.51
701.614	63.71
701.938	63.59
702.262	63.7
702.586	63.9
702.91	64.17
703.234	64.1
703.557	64.21
703.881	64.08
704.205	64.01
704.529	63.91
704.852	63.72
705.176	63.62
705.499	63.66
705.823	63.88
706.146	63.98
706.47	63.83
706.793	64.01
707.117	63.96
707.44	63.91
707.763	63.83
708.086	63.82
708.409	63.46
708.733	63.49
709.056	63.29
709.379	63.02
709.702	62.89
710.025	63.2
710.348	63.2
710.671	63.17
710.993	63.14
711.316	63.2
711.639	63.21
711.962	63.32
712.284	63.45
712.607	63.47
712.93	63.4
713.252	63.48
713.575	63.4
713.897	63.67
714.22	63.74
714.542	63.9
714.864	64
715.187	63.91
715.509	63.91
715.831	64.02
716.153	64.1
716.475	64.15
716.798	64.02
717.12	63.83
717.442	63.84
717.764	63.86
718.085	63.97
718.407	64.09
718.729	64.02
719.051	63.88
719.373	63.72
719.695	63.69
720.016	63.73
720.338	63.9
720.659	63.5
720.981	63.35
721.302	63.3
721.624	63.32
721.945	63.62
722.267	63.72
722.588	63.63
722.909	63.68
723.231	63.61
723.552	63.58
723.873	63.63
724.194	63.72
724.515	64.02
724.836	63.81
725.157	63.83
725.478	63.76
725.799	63.88
726.12	64.12
726.441	64.46
726.762	64.49
727.083	64.25
727.403	64.29
727.724	64.31
728.045	64.05
728.365	64.04
728.686	63.92
729.006	63.82
729.327	64.06
729.647	64.09
729.967	64.04
730.288	64.06
730.608	64.2
730.928	64.15
731.249	63.79
731.569	63.64
731.889	63.56
732.209	63.81
732.529	63.95
732.849	63.84
733.169	63.79
733.489	63.77
733.809	63.73
734.129	63.72
734.448	63.84
734.768	63.88
735.088	63.9
735.408	64.02
735.727	64.46
736.047	64.26
736.366	64.16
736.686	64.4
737.005	64.46
737.325	64.08
737.644	63.95
737.963	63.87
738.283	64.36
738.602	63.97
738.921	63.9
739.24	63.78
739.56	63.6
739.879	63.37
740.198	63.03
740.517	63.19
740.836	63.5
741.155	63.33
741.473	63.51
741.792	63.32
742.111	63.45
742.43	63.04
742.748	63.03
743.067	63.06
743.386	63.13
743.704	62.94
744.023	63.22
744.341	63.63
744.66	64
744.978	63.77
745.297	64.28
745.615	64.28
745.933	64.11
746.252	64.11
746.57	64.18
746.888	64.36
747.206	64.36
747.524	63.67
747.842	63.87
748.16	63.78
748.478	64.06
748.796	63.85
749.114	63.95
749.432	64.01
749.749	63.56
750.067	63.23
750.385	63.26
750.703	63.29
751.02	62.94
751.338	62.92
751.655	63.02
751.973	63.38
752.29	63.36
752.608	63.33
752.925	63.51
753.242	63.59
753.56	63.67
753.877	63.72
754.194	64.1
754.511	63.88
754.828	64.08
755.145	64.18
755.462	63.81
755.779	63.87
756.096	63.79
756.413	64.2
756.73	64.28
757.047	64.11
757.364	64.46
757.68	64.33
757.997	64.53
758.314	64.13
758.63	63.73
758.947	63.62
759.264	63.41
759.58	63.32
759.896	63.27
760.213	63.4
760.529	63.74
760.846	63.94
761.162	63.95
761.478	64.04
761.794	63.56
762.11	64.07
762.426	64.2
762.743	64.23
763.059	64.03
763.375	64.06
763.69	63.96
764.006	64.07
764.322	64.39
764.638	64.26
764.954	64.36
765.27	64.28
765.585	64.38
765.901	64.46
766.216	64.49
766.532	64.6
766.848	64.37
767.163	64.03
767.478	64.12
767.794	64.25
768.109	64.11
768.424	64.35
768.74	63.97
769.055	63.73
769.37	63.86
769.685	64.32
770	64.78
770.315	64.98
770.63	64.64
770.945	64.29
771.26	63.92
771.575	63.82
771.89	63.65
772.205	63.45
772.52	63.46
772.834	63.59
773.149	63.62
773.464	63.65
773.778	63.69
774.093	63
774.407	62.98
774.722	62.84
775.036	62.88
775.351	63.02
775.665	63.16
775.979	63.08
776.293	63.1
776.608	62.58
776.922	62.49
777.236	62.1
777.55	62.22
777.864	62.47
778.178	62.37
778.492	62.6
778.806	62.39
779.12	62.87
779.434	62.94
779.747	62.85
780.061	62.77
780.375	63.01
780.689	63.2
781.002	63.56
781.316	63.57
781.629	63.64
781.943	63.82
782.256	63.83
782.57	63.63
782.883	63.29
783.196	63.04
783.51	63.82
783.823	64.11
784.136	63.71
784.449	63.78
784.762	64.19
785.075	64.27
785.388	64.57
785.701	64.53
786.014	64.17
786.327	64.33
786.64	64.87
786.953	65.03
787.266	65.38
787.578	64.85
787.891	65.56
788.204	66.02
788.516	65.86
788.829	65.85
789.141	66.24
789.454	66.59
789.766	66.59
790.079	66.22
790.391	66.05
790.703	66.81
791.016	66.61
791.328	66.73
791.64	66.74
791.952	66.74
792.264	66.23
792.576	66.37
792.888	66.28
793.2	66.38
793.512	66
793.824	65.92
794.136	66.01
794.448	65.27
794.76	64.74
795.071	65.18
795.383	64.75
795.695	64.76
796.006	64.59
796.318	64.84
796.629	64.81
796.941	65.01
797.252	64.9
797.564	64.94
797.875	64.55
798.186	64.34
798.497	64.25
798.809	64.42
799.12	64.61
799.431	64.5
799.742	64.1
800.053	64.08
800.364	63.86
800.675	63.87
800.986	63.79
801.297	63.89
801.608	63.53
801.918	63.66
802.229	63.62
802.54	63.38
802.851	64.17
803.161	64.12
803.472	63.64
803.782	63.42
804.093	63.88
804.403	64.01
804.714	63.87
805.024	63.85
805.334	64.32
805.645	63.91
805.955	63.54
806.265	63.49
806.575	62.93
806.885	62.85
807.195	63.07
807.505	63.49
807.815	63.23
808.125	63.29
808.435	63.59
808.745	63.47
809.055	63.16
809.365	62.01
809.674	62.32
809.984	61.98
810.294	61.53
810.603	61.8
810.913	62.15
811.222	62.51
811.532	62.77
811.841	63.23
812.151	63.73
812.46	64.05
812.769	64.88
813.079	65.45
813.388	65.91
813.697	65.46
814.006	64.81
814.315	64.69
814.624	64.83
814.933	64.84
815.242	64.68
815.551	65.17
815.86	65.31
816.169	64.9
816.478	66.38
816.786	66.2
817.095	65.67
817.404	65.4
817.712	64.97
818.021	65.17
818.33	64.25
818.638	64.07
818.947	63.98
819.255	63.74
819.563	64.18
819.872	64.33
820.18	64.65
820.488	64.93
820.796	65.26
821.105	65.2
821.413	65.38
821.721	65.39
822.029	65.55
822.337	65.52
822.645	65.57
822.953	65.32
823.26	65.64
823.568	65.63
823.876	65.52
824.184	65.63
824.491	65.63
824.799	65.75
825.107	65.74
825.414	65.96
825.722	66.09
826.029	65.83
826.337	65.72
826.644	65.79
826.951	65.92
827.259	65.79
827.566	65.51
827.873	65.23
828.18	65.17
828.488	64.98
828.795	65.19
829.102	65.02
829.409	65.05
829.716	64.41
830.023	64.5
830.329	64.61
830.636	64.64
830.943	64.45
831.25	64.45
831.557	64.23
831.863	63.79
832.17	63.24
832.476	63.67
832.783	63.3
833.089	63.12
833.396	62.66
833.702	62.83
834.009	63.77
834.315	63.93
834.621	63.85
834.928	63.58
835.234	63.35
835.54	63.77
835.846	63.93
836.152	64.29
836.458	63.36
836.764	63.06
837.07	62.59
837.376	62.43
837.682	62.06
837.988	62.34
838.293	62.6
838.599	63.29
838.905	63.16
839.211	63.65
839.516	63.22
839.822	63.27
840.127	62.54
840.433	61.22
840.738	60.78
841.044	60.86
841.349	60.5
841.654	60.85
841.959	60.79
842.265	60.82
842.57	61.02
842.875	62.09
843.18	62.56
843.485	63.63
843.79	63.5
844.095	61.71
844.4	61.6
844.705	61.29
845.01	60.05
845.315	58.57
845.619	57.85
845.924	58.19
846.229	59
846.533	60.93
846.838	60.86
847.142	60.06
847.447	60.62
847.751	60.85
848.056	61.1
848.36	59.9
848.664	58.42
848.969	57.94
849.273	58.18
849.577	59.12
849.881	57.72
850.185	57.47
850.489	58.15
850.794	57.67
851.097	57.31
851.401	57.83
851.705	59.69
852.009	60.96
852.313	59.27
852.617	56.33
852.92	53.24
853.224	53.18
853.528	53.02
853.831	52.28
854.135	52
854.438	51.87
854.742	51.13
855.045	51.16
855.349	51.63
855.652	52.63
855.955	52.11
856.259	54.17
856.562	55.63
856.865	59.32
857.168	60.44
857.471	60.25
857.774	57.49
858.077	57.65
858.38	58.96
858.683	60.02
858.986	61.96
859.289	62.78
859.592	66.43
859.894	68.01
860.197	65.01
860.5	67.63
860.802	64.5
861.105	65.17
861.407	67.84
861.71	66.28
862.012	65.79
862.315	66.54
862.617	63.88
862.919	62.67
863.222	60.54
863.524	60.37
863.826	60.78
864.128	63.66
864.43	62.84
864.732	61.67
865.034	61.97
865.336	60.34
865.638	59.91
865.94	56.48
866.242	56.31
866.544	57.92
866.846	57.59
867.147	60.16
867.449	60.51
867.751	59.8
868.052	61.32
868.354	58.89
868.655	59.22
868.957	61.73
869.258	63.23
869.56	63.76
869.861	63.63
870.162	62.04
870.463	63.68
870.765	64.87
871.066	63.45
871.367	64.31
871.668	65.52
871.969	67.24
872.27	66.51
872.571	65.76
872.872	64.51
873.173	64.36
873.473	62.3
873.774	62.15
874.075	61.06
874.376	60.57
874.676	63.24
874.977	61.46
875.277	59.19
875.578	59.85
875.878	60.04
876.179	59.63
876.479	61.12
876.78	58.26
877.08	57.18
877.38	58.75
877.68	58.15
877.981	57.98
878.281	55.4
878.581	58.38
