Data from BA28467_Reflection_00004.txt Node
Date: Mon Nov 18 15:33:00 EST 2019
User: vgr7
Spectrometer: USB2G7710
Scans to average: 3
Trigger mode: 4
Integration Time (sec): 2.000000E-2
Electric dark correction enabled: true
Boxcar width: 10
XAxis mode: Wavelengths
Number of Pixels in Spectrum: 2048
>>>>>Begin Spectral Data<<<<<
177.721	146.36
178.105	267.51
178.488	109.99
178.871	4.66
179.254	-141.21
179.636	206.72
180.019	-1494.94
180.402	-6.67
180.785	-665.96
181.168	-994.59
181.55	-679.22
181.933	301.53
182.316	193.85
182.698	114.07
183.081	94.98
183.463	134.42
183.846	361.58
184.228	245.33
184.611	100
184.993	-85.33
185.376	205.73
185.758	125.1
186.14	-34.66
186.522	-82
186.904	-213.82
187.287	-861.83
187.669	-265.42
188.051	624.78
188.433	-395.78
188.815	-167.55
189.197	-298.96
189.579	-245.37
189.961	-205.69
190.342	-135.89
190.724	-64.77
191.106	-87.88
191.488	-103.7
191.869	-50.63
192.251	-69.69
192.633	-157.28
193.014	-229.67
193.396	-355.38
193.777	-400.48
194.159	-337.91
194.54	-353.21
194.922	-193.55
195.303	-320.47
195.684	-144.43
196.065	-34.08
196.447	-71
196.828	-647.33
197.209	-137.51
197.59	-331.55
197.971	1665.22
198.352	-3985.11
198.733	280.77
199.114	343.99
199.495	340.92
199.876	183.78
200.257	-784.46
200.638	-78.17
201.018	-51.02
201.399	-22.06
201.78	-9.09
202.16	-34.4
202.541	-82.21
202.922	-195.08
203.302	-205.16
203.683	-265.3
204.063	-931.03
204.444	-966.38
204.824	-394.96
205.204	-797.09
205.585	-320.59
205.965	-188.13
206.345	-278.8
206.725	-289.19
207.106	-545.24
207.486	-575.71
207.866	-464.39
208.246	-1464.2
208.626	1878.89
209.006	928.17
209.386	238.29
209.766	356.3
210.145	3213.92
210.525	-1345.26
210.905	-364.72
211.285	-121.89
211.664	-117.86
212.044	-79.84
212.424	-24.19
212.803	-3.28
213.183	3.44
213.562	-11.93
213.942	-3.71
214.321	-11.36
214.701	-19.27
215.08	9.63
215.459	-21.38
215.838	-9.03
216.218	-16.98
216.597	-15.69
216.976	-5.87
217.355	-18.03
217.734	-16.46
218.113	-19.72
218.492	-8.25
218.871	17.78
219.25	38.36
219.629	26.12
220.008	58.51
220.387	33.03
220.766	33.69
221.144	32.95
221.523	30.5
221.902	20.32
222.28	25.89
222.659	25.16
223.037	28.94
223.416	29.27
223.794	21.28
224.173	23.55
224.551	17.12
224.929	-5.73
225.308	16.26
225.686	12.46
226.064	8.39
226.442	0.96
226.821	-0.86
227.199	1.09
227.577	-6.22
227.955	-4.68
228.333	-0.09
228.711	0.78
229.089	0.53
229.467	-0.39
229.845	2.02
230.222	-0.04
230.6	-0.15
230.978	-1.19
231.356	0.7
231.733	0.72
232.111	1.3
232.488	2
232.866	3.53
233.243	0.08
233.621	0.38
233.998	1.52
234.376	2.59
234.753	2.14
235.13	1.75
235.508	4.98
235.885	3.74
236.262	3.55
236.639	3.54
237.016	3.22
237.393	5.32
237.77	6.5
238.147	7.73
238.524	7.41
238.901	7.77
239.278	8.1
239.655	8.25
240.032	8.07
240.409	7.63
240.785	7.49
241.162	7.4
241.539	7.6
241.915	7.01
242.292	6.27
242.668	6
243.045	5.65
243.421	5.13
243.798	5.03
244.174	4.86
244.551	4.7
244.927	4.88
245.303	4.85
245.679	4.56
246.056	4.4
246.432	4.41
246.808	4.49
247.184	4.2
247.56	4.09
247.936	4.08
248.312	4.18
248.688	4.25
249.064	4.06
249.44	3.86
249.815	3.83
250.191	4.22
250.567	4.44
250.943	4.4
251.318	4.59
251.694	4.55
252.069	4.52
252.445	4.61
252.82	4.69
253.196	4.46
253.571	4.38
253.947	4.52
254.322	4.52
254.697	4.15
255.073	3.91
255.448	3.85
255.823	3.74
256.198	3.65
256.573	3.68
256.948	4.08
257.323	4.19
257.698	4.52
258.073	4.33
258.448	4.27
258.823	4.24
259.198	4.25
259.573	4.32
259.948	4.23
260.322	4.28
260.697	4.12
261.072	4.02
261.446	4.1
261.821	4.02
262.195	3.96
262.57	3.95
262.944	3.99
263.319	3.88
263.693	3.93
264.067	4.15
264.442	4.09
264.816	4.11
265.19	4
265.564	3.85
265.938	3.84
266.313	3.63
266.687	3.78
267.061	3.73
267.435	3.59
267.809	3.75
268.183	3.58
268.556	3.56
268.93	3.9
269.304	3.95
269.678	3.98
270.051	4.03
270.425	4.11
270.799	4.25
271.172	4.33
271.546	4.22
271.919	3.93
272.293	3.94
272.666	3.91
273.04	3.92
273.413	3.88
273.787	4.04
274.16	4.14
274.533	4.02
274.906	4.02
275.279	4.32
275.653	4.34
276.026	4.33
276.399	4.32
276.772	4.24
277.145	4.18
277.518	4.29
277.891	4.28
278.263	4.2
278.636	4.14
279.009	4.12
279.382	4.33
279.755	4.3
280.127	4.48
280.5	4.32
280.872	4.45
281.245	4.43
281.617	4.32
281.99	4.48
282.362	4.51
282.735	4.34
283.107	4.17
283.479	4.03
283.852	4.13
284.224	4.22
284.596	4.09
284.968	4.15
285.34	4.09
285.713	4.09
286.085	4.14
286.457	4.26
286.829	4.32
287.201	4.28
287.572	4.31
287.944	4.2
288.316	4.25
288.688	4.09
289.06	4.06
289.431	4.1
289.803	4.1
290.175	4.02
290.546	4.2
290.918	4.18
291.289	4.31
291.661	4.28
292.032	4.32
292.403	4.47
292.775	4.46
293.146	4.52
293.517	4.45
293.889	4.52
294.26	4.36
294.631	4.26
295.002	4.21
295.373	4.28
295.744	4.28
296.115	4.24
296.486	4.28
296.857	4.37
297.228	4.35
297.599	4.18
297.97	4.25
298.34	4.2
298.711	4.16
299.082	4.05
299.452	3.99
299.823	3.95
300.194	3.82
300.564	3.68
300.935	3.68
301.305	3.6
301.676	3.6
302.046	3.66
302.416	3.82
302.787	3.72
303.157	3.69
303.527	3.63
303.897	3.69
304.267	3.74
304.637	3.7
305.008	3.77
305.378	3.88
305.748	3.9
306.117	3.86
306.487	3.93
306.857	4.12
307.227	4.31
307.597	4.25
307.967	4.34
308.336	4.55
308.706	4.6
309.076	4.8
309.445	4.6
309.815	4.5
310.184	4.41
310.554	4.51
310.923	4.49
311.293	4.43
311.662	4.38
312.031	4.36
312.401	4.28
312.77	4.28
313.139	4.37
313.508	4.44
313.877	4.5
314.246	4.5
314.616	4.45
314.985	4.32
315.353	4.31
315.722	4.35
316.091	4.26
316.46	4.11
316.829	3.99
317.198	4.14
317.567	4.3
317.935	4.37
318.304	4.25
318.672	4.24
319.041	4.45
319.41	4.53
319.778	4.37
320.147	4.33
320.515	4.12
320.883	3.95
321.252	3.82
321.62	3.9
321.988	3.8
322.357	3.65
322.725	3.8
323.093	3.88
323.461	3.77
323.829	3.79
324.197	3.85
324.565	3.92
324.933	3.96
325.301	3.8
325.669	3.74
326.037	3.84
326.405	3.85
326.772	3.84
327.14	3.82
327.508	4.04
327.875	4.14
328.243	4.36
328.61	4.37
328.978	4.48
329.346	4.49
329.713	4.5
330.08	4.68
330.448	4.48
330.815	4.39
331.182	4.51
331.55	4.55
331.917	4.5
332.284	4.47
332.651	4.4
333.018	4.46
333.385	4.49
333.752	4.4
334.119	4.5
334.486	4.37
334.853	4.38
335.22	4.38
335.587	4.46
335.954	4.38
336.32	4.38
336.687	4.41
337.054	4.27
337.42	4.42
337.787	4.45
338.153	4.48
338.52	4.63
338.886	4.46
339.253	4.3
339.619	4.35
339.986	4.42
340.352	4.45
340.718	4.32
341.084	4.3
341.451	4.36
341.817	4.31
342.183	4.4
342.549	4.43
342.915	4.44
343.281	4.37
343.647	4.3
344.013	4.37
344.379	4.31
344.745	4.4
345.11	4.39
345.476	4.25
345.842	4.24
346.208	4.06
346.573	4.1
346.939	4.22
347.304	4.11
347.67	3.93
348.035	3.9
348.401	4.02
348.766	4.01
349.132	4.03
349.497	3.97
349.862	4.05
350.228	4.03
350.593	3.88
350.958	3.83
351.323	3.95
351.688	3.87
352.053	3.91
352.418	3.9
352.783	3.91
353.148	3.93
353.513	3.93
353.878	3.98
354.243	4.03
354.608	3.93
354.972	4.04
355.337	4.11
355.702	4.16
356.066	4.21
356.431	4.2
356.795	4.24
357.16	4.23
357.524	4.11
357.889	4.05
358.253	4.11
358.618	4.15
358.982	4.07
359.346	4.02
359.71	3.94
360.075	3.96
360.439	3.95
360.803	3.94
361.167	3.99
361.531	4.02
361.895	3.94
362.259	3.97
362.623	3.98
362.987	3.98
363.351	3.96
363.714	3.95
364.078	3.98
364.442	3.95
364.806	3.98
365.169	4.04
365.533	4.08
365.896	4.05
366.26	4.04
366.623	4.08
366.987	4.15
367.35	4.18
367.714	4.16
368.077	4.12
368.44	4.12
368.803	4.05
369.167	4.02
369.53	4.05
369.893	4.09
370.256	4.07
370.619	4.05
370.982	4
371.345	3.97
371.708	3.99
372.071	3.94
372.434	3.9
372.797	3.93
373.159	3.87
373.522	3.95
373.885	3.96
374.247	3.95
374.61	3.92
374.973	3.87
375.335	3.86
375.698	3.87
376.06	3.83
376.423	3.82
376.785	3.87
377.147	3.92
377.51	3.85
377.872	3.83
378.234	3.86
378.596	3.88
378.958	3.89
379.321	3.87
379.683	3.94
380.045	3.99
380.407	3.95
380.769	3.97
381.13	3.89
381.492	3.9
381.854	3.93
382.216	3.95
382.578	3.98
382.939	3.98
383.301	3.96
383.663	3.98
384.024	4.02
384.386	4.06
384.747	4.08
385.109	4.11
385.47	4.09
385.832	4.09
386.193	4.1
386.554	4.1
386.916	4.05
387.277	4.02
387.638	4.03
387.999	3.99
388.36	3.99
388.721	4.04
389.082	4.01
389.443	4.01
389.804	4.01
390.165	4.04
390.526	4.07
390.887	4.1
391.248	4.14
391.609	4.14
391.969	4.07
392.33	4.09
392.691	4.12
393.051	4.13
393.412	4.15
393.772	4.12
394.133	4.15
394.493	4.2
394.854	4.21
395.214	4.2
395.574	4.27
395.935	4.28
396.295	4.29
396.655	4.28
397.015	4.26
397.376	4.29
397.736	4.29
398.096	4.27
398.456	4.24
398.816	4.24
399.176	4.22
399.535	4.24
399.895	4.21
400.255	4.2
400.615	4.19
400.975	4.17
401.334	4.17
401.694	4.14
402.054	4.1
402.413	4.09
402.773	4.04
403.132	4.02
403.492	4.03
403.851	4.03
404.211	4.03
404.57	4
404.929	3.99
405.288	3.97
405.648	3.96
406.007	3.96
406.366	3.95
406.725	3.98
407.084	4
407.443	4
407.802	4.02
408.161	4.02
408.52	4
408.879	4.01
409.238	4.04
409.596	4.06
409.955	4.07
410.314	4.12
410.673	4.1
411.031	4.05
411.39	4.03
411.748	4.06
412.107	4.09
412.465	4.08
412.824	4.09
413.182	4.1
413.54	4.11
413.899	4.11
414.257	4.11
414.615	4.08
414.974	4.1
415.332	4.06
415.69	4.07
416.048	4.08
416.406	4.07
416.764	4.05
417.122	4.07
417.48	4.02
417.838	4.03
418.195	4.03
418.553	4.05
418.911	4.06
419.269	4.06
419.626	4.06
419.984	4.06
420.342	4.07
420.699	4.05
421.057	4.05
421.414	4.04
421.772	4.03
422.129	4.04
422.486	4.04
422.844	4.05
423.201	4.04
423.558	4.05
423.915	4.06
424.273	4.07
424.63	4.05
424.987	4.07
425.344	4.06
425.701	4.05
426.058	4.05
426.415	4.05
426.772	4.05
427.128	4.05
427.485	4.05
427.842	4.04
428.199	4.06
428.555	4.05
428.912	4.06
429.269	4.07
429.625	4.06
429.982	4.06
430.338	4.05
430.695	4.06
431.051	4.04
431.407	4.03
431.764	4.02
432.12	4.02
432.476	4.04
432.832	4.04
433.189	4.05
433.545	4.04
433.901	4.04
434.257	4.03
434.613	4.03
434.969	4.03
435.325	4.01
435.681	4.01
436.036	4.02
436.392	4.01
436.748	3.98
437.104	3.99
437.459	3.98
437.815	4
438.171	4
438.526	3.99
438.882	3.99
439.237	4
439.593	4.02
439.948	4.01
440.304	4.01
440.659	4
441.014	4
441.369	3.97
441.725	3.97
442.08	3.97
442.435	3.96
442.79	3.97
443.145	3.97
443.5	3.97
443.855	3.97
444.21	3.99
444.565	3.99
444.92	4.01
445.275	4
445.629	4
445.984	4.01
446.339	4
446.693	3.98
447.048	3.96
447.403	3.96
447.757	3.96
448.112	3.95
448.466	3.95
448.82	3.97
449.175	3.96
449.529	3.97
449.883	3.97
450.238	3.96
450.592	3.95
450.946	3.95
451.3	3.94
451.654	3.94
452.008	3.92
452.362	3.9
452.716	3.9
453.07	3.9
453.424	3.92
453.778	3.92
454.132	3.93
454.486	3.93
454.839	3.93
455.193	3.92
455.547	3.92
455.9	3.94
456.254	3.95
456.607	3.94
456.961	3.93
457.314	3.93
457.668	3.91
458.021	3.91
458.375	3.92
458.728	3.92
459.081	3.92
459.434	3.91
459.787	3.93
460.141	3.92
460.494	3.92
460.847	3.91
461.2	3.91
461.553	3.92
461.906	3.92
462.259	3.94
462.611	3.97
462.964	3.98
463.317	3.97
463.67	3.96
464.022	3.97
464.375	3.97
464.728	3.99
465.08	4.01
465.433	4.03
465.785	4.04
466.138	4.04
466.49	4.05
466.843	4.06
467.195	4.04
467.547	4.05
467.899	4.04
468.252	4.04
468.604	4.04
468.956	4.03
469.308	4.03
469.66	4.02
470.012	4.01
470.364	4.02
470.716	4.03
471.068	4.04
471.42	4.03
471.772	4.04
472.123	4.03
472.475	4.03
472.827	4.02
473.178	4.02
473.53	4.03
473.882	4.03
474.233	4.04
474.585	4.05
474.936	4.05
475.288	4.05
475.639	4.05
475.99	4.07
476.342	4.08
476.693	4.07
477.044	4.09
477.395	4.09
477.746	4.1
478.097	4.09
478.448	4.09
478.8	4.1
479.15	4.1
479.501	4.11
479.852	4.11
480.203	4.1
480.554	4.11
480.905	4.12
481.255	4.13
481.606	4.13
481.957	4.15
482.307	4.15
482.658	4.17
483.009	4.17
483.359	4.17
483.709	4.17
484.06	4.18
484.41	4.18
484.761	4.17
485.111	4.17
485.461	4.18
485.811	4.18
486.162	4.18
486.512	4.19
486.862	4.19
487.212	4.19
487.562	4.2
487.912	4.2
488.262	4.2
488.612	4.19
488.961	4.19
489.311	4.18
489.661	4.17
490.011	4.16
490.36	4.16
490.71	4.15
491.06	4.15
491.409	4.15
491.759	4.14
492.108	4.15
492.458	4.15
492.807	4.15
493.157	4.15
493.506	4.16
493.855	4.15
494.204	4.15
494.554	4.15
494.903	4.15
495.252	4.13
495.601	4.14
495.95	4.16
496.299	4.14
496.648	4.14
496.997	4.15
497.346	4.18
497.695	4.17
498.043	4.2
498.392	4.18
498.741	4.18
499.09	4.18
499.438	4.2
499.787	4.2
500.135	4.21
500.484	4.2
500.832	4.2
501.181	4.22
501.529	4.23
501.878	4.25
502.226	4.27
502.574	4.28
502.923	4.28
503.271	4.29
503.619	4.31
503.967	4.33
504.315	4.33
504.663	4.33
505.011	4.36
505.359	4.35
505.707	4.37
506.055	4.4
506.403	4.41
506.751	4.4
507.098	4.42
507.446	4.42
507.794	4.45
508.141	4.46
508.489	4.47
508.837	4.46
509.184	4.46
509.531	4.45
509.879	4.45
510.226	4.47
510.574	4.48
510.921	4.48
511.268	4.5
511.616	4.51
511.963	4.52
512.31	4.5
512.657	4.52
513.004	4.52
513.351	4.53
513.698	4.53
514.045	4.55
514.392	4.53
514.739	4.54
515.086	4.54
515.432	4.54
515.779	4.52
516.126	4.53
516.473	4.53
516.819	4.55
517.166	4.57
517.512	4.58
517.859	4.58
518.205	4.59
518.552	4.57
518.898	4.59
519.245	4.58
519.591	4.58
519.937	4.56
520.283	4.58
520.629	4.58
520.976	4.58
521.322	4.59
521.668	4.6
522.014	4.61
522.36	4.6
522.706	4.61
523.052	4.62
523.398	4.64
523.743	4.66
524.089	4.65
524.435	4.65
524.781	4.65
525.126	4.66
525.472	4.67
525.817	4.69
526.163	4.69
526.509	4.71
526.854	4.73
527.199	4.74
527.545	4.75
527.89	4.76
528.235	4.76
528.581	4.76
528.926	4.77
529.271	4.78
529.616	4.78
529.961	4.79
530.306	4.8
530.651	4.81
530.996	4.8
531.341	4.8
531.686	4.8
532.031	4.81
532.376	4.81
532.721	4.83
533.065	4.82
533.41	4.81
533.755	4.81
534.099	4.8
534.444	4.79
534.788	4.79
535.133	4.79
535.477	4.81
535.822	4.8
536.166	4.79
536.51	4.8
536.855	4.8
537.199	4.79
537.543	4.79
537.887	4.78
538.231	4.79
538.576	4.8
538.92	4.82
539.264	4.82
539.608	4.82
539.951	4.82
540.295	4.81
540.639	4.84
540.983	4.84
541.327	4.85
541.671	4.84
542.014	4.85
542.358	4.86
542.701	4.85
543.045	4.85
543.389	4.86
543.732	4.85
544.075	4.87
544.419	4.87
544.762	4.88
545.105	4.89
545.449	4.9
545.792	4.9
546.135	4.9
546.478	4.91
546.821	4.9
547.165	4.89
547.508	4.91
547.851	4.89
548.194	4.91
548.536	4.9
548.879	4.93
549.222	4.93
549.565	4.93
549.908	4.93
550.25	4.97
550.593	4.98
550.936	4.96
551.278	4.97
551.621	4.98
551.963	5
552.306	5
552.648	4.97
552.991	4.98
553.333	4.97
553.675	4.98
554.017	5.01
554.36	5.02
554.702	5.01
555.044	5.03
555.386	5.03
555.728	5.02
556.07	5.02
556.412	5.02
556.754	5.02
557.096	5.01
557.438	5.03
557.78	5.03
558.121	5.06
558.463	5.06
558.805	5.06
559.147	5.05
559.488	5.06
559.83	5.1
560.171	5.1
560.513	5.11
560.854	5.1
561.196	5.09
561.537	5.11
561.878	5.11
562.22	5.12
562.561	5.12
562.902	5.14
563.243	5.14
563.584	5.15
563.925	5.17
564.266	5.16
564.607	5.13
564.948	5.09
565.289	5.07
565.63	5.08
565.971	5.09
566.312	5.11
566.653	5.1
566.993	5.06
567.334	5.06
567.675	5.07
568.015	5.07
568.356	5.06
568.696	5.07
569.037	5.11
569.377	5.1
569.718	5.11
570.058	5.09
570.398	5.09
570.739	5.04
571.079	5.03
571.419	5.05
571.759	5.07
572.099	5.08
572.439	5.1
572.779	5.1
573.119	5.09
573.459	5.09
573.799	5.12
574.139	5.13
574.479	5.12
574.819	5.09
575.158	5.08
575.498	5.07
575.838	5.08
576.177	5.06
576.517	5.05
576.856	5.06
577.196	5.1
577.535	5.12
577.875	5.15
578.214	5.19
578.553	5.18
578.893	5.19
579.232	5.19
579.571	5.19
579.91	5.19
580.25	5.23
580.589	5.22
580.928	5.18
581.267	5.2
581.606	5.22
581.945	5.26
582.283	5.27
582.622	5.25
582.961	5.25
583.3	5.24
583.639	5.27
583.977	5.31
584.316	5.28
584.654	5.25
584.993	5.24
585.332	5.21
585.67	5.25
586.008	5.21
586.347	5.21
586.685	5.23
587.024	5.22
587.362	5.21
587.7	5.2
588.038	5.22
588.376	5.24
588.715	5.2
589.053	5.21
589.391	5.22
589.729	5.27
590.067	5.26
590.404	5.27
590.742	5.27
591.08	5.2
591.418	5.18
591.756	5.22
592.093	5.23
592.431	5.24
592.769	5.26
593.106	5.28
593.444	5.3
593.781	5.28
594.119	5.28
594.456	5.28
594.793	5.28
595.131	5.25
595.468	5.27
595.805	5.28
596.143	5.29
596.48	5.26
596.817	5.26
597.154	5.28
597.491	5.29
597.828	5.24
598.165	5.26
598.502	5.25
598.839	5.24
599.176	5.27
599.512	5.28
599.849	5.22
600.186	5.22
600.523	5.24
600.859	5.25
601.196	5.25
601.532	5.24
601.869	5.27
602.205	5.27
602.542	5.28
602.878	5.31
603.215	5.3
603.551	5.34
603.887	5.32
604.223	5.33
604.56	5.36
604.896	5.38
605.232	5.39
605.568	5.43
605.904	5.41
606.24	5.43
606.576	5.42
606.912	5.43
607.248	5.43
607.583	5.44
607.919	5.44
608.255	5.45
608.591	5.48
608.926	5.46
609.262	5.48
609.597	5.5
609.933	5.45
610.268	5.48
610.604	5.48
610.939	5.52
611.275	5.5
611.61	5.44
611.945	5.49
612.281	5.49
612.616	5.49
612.951	5.51
613.286	5.54
613.621	5.56
613.956	5.57
614.291	5.6
614.626	5.53
614.961	5.5
615.296	5.45
615.631	5.43
615.966	5.45
616.3	5.43
616.635	5.38
616.97	5.45
617.304	5.44
617.639	5.46
617.973	5.46
618.308	5.46
618.642	5.53
618.977	5.51
619.311	5.5
619.646	5.51
619.98	5.48
620.314	5.42
620.648	5.42
620.983	5.47
621.317	5.45
621.651	5.51
621.985	5.59
622.319	5.69
622.653	5.67
622.987	5.66
623.321	5.71
623.655	5.78
623.988	5.8
624.322	5.78
624.656	5.81
624.99	5.79
625.323	5.78
625.657	5.77
625.99	5.76
626.324	5.78
626.657	5.78
626.991	5.8
627.324	5.8
627.658	5.85
627.991	5.83
628.324	5.83
628.657	5.84
628.991	5.8
629.324	5.79
629.657	5.83
629.99	5.88
630.323	5.84
630.656	5.83
630.989	5.84
631.322	5.87
631.655	5.83
631.987	5.82
632.32	5.85
632.653	5.79
632.986	5.82
633.318	5.82
633.651	5.78
633.984	5.76
634.316	5.79
634.649	5.73
634.981	5.78
635.313	5.82
635.646	5.79
635.978	5.84
636.31	5.79
636.643	5.7
636.975	5.66
637.307	5.69
637.639	5.66
637.971	5.6
638.303	5.56
638.635	5.5
638.967	5.53
639.299	5.56
639.631	5.59
639.963	5.56
640.295	5.61
640.626	5.69
640.958	5.72
641.29	5.71
641.621	5.71
641.953	5.61
642.285	5.63
642.616	5.69
642.948	5.68
643.279	5.75
643.61	5.85
643.942	5.93
644.273	5.92
644.604	5.9
644.936	5.94
645.267	6.02
645.598	6.05
645.929	6.07
646.26	6.09
646.591	6.1
646.922	6.09
647.253	6.05
647.584	6.01
647.915	5.95
648.245	5.94
648.576	5.98
648.907	6.02
649.238	5.98
649.568	5.93
649.899	5.93
650.229	5.93
650.56	5.9
650.89	5.84
651.221	5.86
651.551	5.89
651.882	5.94
652.212	5.93
652.542	5.97
652.872	5.88
653.203	5.75
653.533	5.8
653.863	5.85
654.193	5.82
654.523	5.82
654.853	5.9
655.183	5.88
655.513	5.93
655.843	5.99
656.172	6.02
656.502	6.07
656.832	6.01
657.162	6.01
657.491	6.01
657.821	6.05
658.15	6.06
658.48	6.04
658.809	6.01
659.139	5.99
659.468	5.95
659.798	6
660.127	6.08
660.456	6.03
660.785	5.99
661.115	6
661.444	6.01
661.773	6.04
662.102	6.04
662.431	5.95
662.76	5.88
663.089	5.85
663.418	5.84
663.747	5.9
664.076	5.88
664.404	5.88
664.733	5.92
665.062	5.85
665.39	5.87
665.719	5.84
666.048	5.93
666.376	5.94
666.705	5.93
667.033	5.93
667.362	5.99
667.69	6
668.018	6.05
668.347	6.08
668.675	6.04
669.003	6.11
669.331	6.2
669.659	6.3
669.987	6.3
670.315	6.29
670.643	6.33
670.971	6.34
671.299	6.45
671.627	6.39
671.955	6.44
672.283	6.47
672.61	6.48
672.938	6.47
673.266	6.55
673.593	6.69
673.921	6.6
674.249	6.61
674.576	6.67
674.904	6.71
675.231	6.69
675.558	6.72
675.886	6.67
676.213	6.64
676.54	6.51
676.867	6.52
677.195	6.54
677.522	6.5
677.849	6.52
678.176	6.47
678.503	6.48
678.83	6.56
679.157	6.48
679.484	6.48
679.81	6.46
680.137	6.4
680.464	6.28
680.791	6.27
681.117	6.21
681.444	6.2
681.771	6.16
682.097	6.16
682.424	6.13
682.75	6.1
683.077	6.07
683.403	6.15
683.729	6.14
684.056	6.09
684.382	6.08
684.708	6.02
685.034	6
685.36	6.02
685.686	5.88
686.012	5.88
686.339	5.91
686.664	5.85
686.99	5.98
687.316	6.06
687.642	6.13
687.968	6.19
688.294	6.28
688.619	6.35
688.945	6.32
689.271	6.31
689.596	6.36
689.922	6.46
690.247	6.45
690.573	6.47
690.898	6.5
691.224	6.44
691.549	6.52
691.874	6.43
692.2	6.4
692.525	6.54
692.85	6.67
693.175	6.71
693.5	6.71
693.825	6.63
694.15	6.65
694.475	6.65
694.8	6.51
695.125	6.41
695.45	6.38
695.775	6.53
696.099	6.59
696.424	6.67
696.749	6.62
697.073	6.65
697.398	6.6
697.723	6.62
698.047	6.69
698.372	6.76
698.696	6.86
699.02	6.87
699.345	6.82
699.669	6.88
699.993	6.88
700.318	6.86
700.642	6.79
700.966	6.78
701.29	6.79
701.614	6.87
701.938	6.98
702.262	6.95
702.586	6.94
702.91	6.92
703.234	6.89
703.557	6.9
703.881	6.92
704.205	7.1
704.529	7.06
704.852	7.06
705.176	6.94
705.499	6.96
705.823	6.96
706.146	6.86
706.47	6.92
706.793	6.8
707.117	6.93
707.44	7.06
707.763	7
708.086	6.93
708.409	7.07
708.733	6.9
709.056	7.01
709.379	6.94
709.702	6.98
710.025	7.01
710.348	7.03
710.671	7.01
710.993	6.91
711.316	6.95
711.639	6.82
711.962	6.83
712.284	6.93
712.607	6.9
712.93	7.09
713.252	7
713.575	7.14
713.897	7.08
714.22	7.08
714.542	7.23
714.864	7.35
715.187	7.28
715.509	7.29
715.831	7.29
716.153	7.33
716.475	7.36
716.798	7.36
717.12	7.36
717.442	7.36
717.764	7.47
718.085	7.4
718.407	7.59
718.729	7.52
719.051	7.45
719.373	7.42
719.695	7.34
720.016	7.32
720.338	7.2
720.659	7.21
720.981	7.2
721.302	7.12
721.624	7.12
721.945	7.17
722.267	7.11
722.588	7.03
722.909	6.98
723.231	6.92
723.552	6.85
723.873	6.74
724.194	6.66
724.515	6.61
724.836	6.66
725.157	6.69
725.478	6.76
725.799	6.71
726.12	6.7
726.441	6.71
726.762	6.86
727.083	6.95
727.403	6.86
727.724	6.94
728.045	6.83
728.365	6.84
728.686	6.88
729.006	7.16
729.327	7.15
729.647	7.25
729.967	7.33
730.288	7.46
730.608	7.65
730.928	7.81
731.249	7.86
731.569	8
731.889	8.04
732.209	8.08
732.529	8.17
732.849	8.34
733.169	8.32
733.489	8.11
733.809	8.04
734.129	8.23
734.448	8.24
734.768	8.35
735.088	8.53
735.408	8.7
735.727	8.62
736.047	8.66
736.366	8.57
736.686	8.52
737.005	8.33
737.325	8.26
737.644	8.17
737.963	8.13
738.283	8.05
738.602	7.97
738.921	7.95
739.24	8
739.56	7.86
739.879	8.03
740.198	8.18
740.517	8.25
740.836	8.31
741.155	8.36
741.473	8.37
741.792	8.31
742.111	8.15
742.43	8.08
742.748	8.1
743.067	8.17
743.386	8.35
743.704	8.6
744.023	8.63
744.341	8.67
744.66	8.77
744.978	8.49
745.297	8.53
745.615	8.77
745.933	8.63
746.252	8.7
746.57	8.72
746.888	8.67
747.206	8.6
747.524	8.65
747.842	8.47
748.16	8.49
748.478	8.62
748.796	8.57
749.114	8.74
749.432	8.53
749.749	8.7
750.067	8.4
750.385	8.32
750.703	8.25
751.02	8.24
751.338	8.17
751.655	8.68
751.973	8.82
752.29	8.81
752.608	8.83
752.925	8.93
753.242	8.79
753.56	8.73
753.877	8.73
754.194	8.76
754.511	8.96
754.828	9.01
755.145	8.59
755.462	8.59
755.779	8.63
756.096	8.85
756.413	8.8
756.73	9
757.047	9.03
757.364	9.07
757.68	9.13
757.997	9.2
758.314	9.06
758.63	8.89
758.947	8.73
759.264	8.66
759.58	8.61
759.896	8.74
760.213	8.98
760.529	9.04
760.846	8.96
761.162	8.81
761.478	8.94
761.794	8.97
762.11	8.88
762.426	8.86
762.743	8.83
763.059	8.82
763.375	8.73
763.69	9.02
764.006	9.14
764.322	9.17
764.638	9.26
764.954	9.2
765.27	9.23
765.585	9.26
765.901	9.45
766.216	9.57
766.532	9.52
766.848	9.34
767.163	9.42
767.478	9.57
767.794	9.8
768.109	9.66
768.424	10.1
768.74	10.4
769.055	10.48
769.37	10.71
769.685	10.53
770	10.78
770.315	10.24
770.63	10.18
770.945	10.12
771.26	10.09
771.575	10.32
771.89	10.5
772.205	10.42
772.52	10.21
772.834	10
773.149	9.99
773.464	10.02
773.778	10.15
774.093	9.89
774.407	9.5
774.722	9.64
775.036	9.4
775.351	9.32
775.665	9.24
775.979	9.02
776.293	9.24
776.608	9.15
776.922	9.26
777.236	9.25
777.55	9.03
777.864	9
778.178	9.16
778.492	9.3
778.806	9.45
779.12	9.45
779.434	9.26
779.747	9.17
780.061	9.16
780.375	9.06
780.689	9.29
781.002	9.9
781.316	9.83
781.629	9.56
781.943	9.57
782.256	9.81
782.57	10.15
782.883	10.41
783.196	10
783.51	10.43
783.823	10.53
784.136	11.19
784.449	11.56
784.762	11.55
785.075	11.74
785.388	11.67
785.701	11.87
786.014	11.89
786.327	12.12
786.64	12.69
786.953	12.87
787.266	12.39
787.578	12.16
787.891	12.09
788.204	12.3
788.516	12.41
788.829	12.28
789.141	12.16
789.454	11.97
789.766	12.45
790.079	12.48
790.391	12.28
790.703	12.08
791.016	11.61
791.328	11.58
791.64	11.34
791.952	11.47
792.264	11.49
792.576	11.42
792.888	11.64
793.2	11.19
793.512	11.06
793.824	11.37
794.136	11.12
794.448	11.08
794.76	11.09
795.071	11.08
795.383	10.91
795.695	10.72
796.006	10.56
796.318	10.61
796.629	10.56
796.941	10.83
797.252	10.88
797.564	10.97
797.875	10.85
798.186	10.56
798.497	10.1
798.809	10.1
799.12	10.6
799.431	10.55
799.742	10.8
800.053	11.14
800.364	10.98
800.675	10.84
800.986	10.89
801.297	10.8
801.608	10.69
801.918	10.69
802.229	10.83
802.54	10.61
802.851	10.77
803.161	10.4
803.472	10.24
803.782	10.49
804.093	10.81
804.403	10.46
804.714	10.8
805.024	11.17
805.334	11.23
805.645	11.26
805.955	10.89
806.265	10.9
806.575	10.5
806.885	10.93
807.195	11
807.505	11.25
807.815	11.61
808.125	11.29
808.435	11.24
808.745	11.5
809.055	11.92
809.365	11.45
809.674	12.04
809.984	12.21
810.294	11.98
810.603	11.74
810.913	12.62
811.222	12.46
811.532	12.53
811.841	12.91
812.151	13.36
812.46	13.77
812.769	13.35
813.079	13.17
813.388	13.07
813.697	13.3
814.006	12.97
814.315	12.72
814.624	13.07
814.933	13.43
815.242	12.68
815.551	12.74
815.86	12.82
816.169	12.12
816.478	11.96
816.786	11.76
817.095	12.05
817.404	11.66
817.712	11.53
818.021	11.99
818.33	11.07
818.638	10.43
818.947	10.86
819.255	10.75
819.563	10.86
819.872	10.77
820.18	10.72
820.488	11.08
820.796	11.12
821.105	11.01
821.413	11.02
821.721	11.2
822.029	11.22
822.337	11.4
822.645	11.62
822.953	11.53
823.26	11.52
823.568	11.47
823.876	11.47
824.184	11.35
824.491	11.26
824.799	11.57
825.107	11.82
825.414	11.66
825.722	12
826.029	12.14
826.337	12.26
826.644	12.38
826.951	12.43
827.259	12.31
827.566	12.45
827.873	12.56
828.18	12.61
828.488	12.74
828.795	12.85
829.102	12.82
829.409	13.02
829.716	13.2
830.023	13.28
830.329	13.32
830.636	13.5
830.943	13.6
831.25	13.13
831.557	12.8
831.863	13.2
832.17	12.33
832.476	12.29
832.783	12.36
833.089	12.31
833.396	12.12
833.702	12.75
834.009	13.01
834.315	12.84
834.621	12.95
834.928	12.89
835.234	12.75
835.54	12.66
835.846	12.74
836.152	12.48
836.458	12.37
836.764	11.79
837.07	11.96
837.376	12.07
837.682	12.73
837.988	13.24
838.293	13.55
838.599	14.29
838.905	14.35
839.211	14.32
839.516	14.58
839.822	14.92
840.127	14.2
840.433	13.88
840.738	14.29
841.044	13.91
841.349	13.9
841.654	13.39
841.959	13.88
842.265	13.77
842.57	14.91
842.875	15.67
843.18	17.14
843.485	17.44
843.79	17.35
844.095	16.48
844.4	15.87
844.705	14.09
845.01	13.71
845.315	13.53
845.619	13.95
845.924	13.78
846.229	14.11
846.533	15.12
846.838	14.88
847.142	12.78
847.447	13.41
847.751	13.3
848.056	13.87
848.36	12.84
848.664	13.61
848.969	12.89
849.273	10.7
849.577	11.22
849.881	10.39
850.185	11.05
850.489	12.28
850.794	11.4
851.097	12.46
851.401	12.87
851.705	12.19
852.009	11.69
852.313	11.52
852.617	12.39
852.92	11.64
853.224	10.55
853.528	13.74
853.831	12.27
854.135	10.72
854.438	10.78
854.742	9.96
855.045	11.56
855.349	11.02
855.652	12.69
855.955	12.73
856.259	14.62
856.562	12.8
856.865	12.66
857.168	12.39
857.471	13.47
857.774	14.3
858.077	16.53
858.38	17.65
858.683	17.61
858.986	17.84
859.289	18.47
859.592	20.72
859.894	19.58
860.197	20.99
860.5	24.95
860.802	25.16
861.105	27.29
861.407	24.49
861.71	25.29
862.012	26.64
862.315	27.1
862.617	26.66
862.919	26.43
863.222	26.26
863.524	25.61
863.826	23.52
864.128	22.9
864.43	21.85
864.732	22.2
865.034	22.23
865.336	17.19
865.638	17.5
865.94	17.68
866.242	18.52
866.544	18.99
866.846	17.46
867.147	15.63
867.449	14.56
867.751	16.37
868.052	16.45
868.354	13.21
868.655	13.33
868.957	11.14
869.258	11.44
869.56	9.46
869.861	9.88
870.162	11.96
870.463	14.61
870.765	14.1
871.066	11.04
871.367	12.26
871.668	15.41
871.969	13.45
872.27	11.73
872.571	10.71
872.872	13.64
873.173	11.18
873.473	13.07
873.774	14.33
874.075	12.95
874.376	10.33
874.676	11
874.977	9.32
875.277	11.81
875.578	14.57
875.878	15.94
876.179	16.95
876.479	15.57
876.78	13.19
877.08	12.23
877.38	13.56
877.68	12.74
877.981	12.01
878.281	15.29
878.581	17.99
