Data from BA28471_Reflection_00012.txt Node
Date: Mon Nov 18 15:21:25 EST 2019
User: vgr7
Spectrometer: USB2G7710
Scans to average: 3
Trigger mode: 4
Integration Time (sec): 2.000000E-2
Electric dark correction enabled: true
Boxcar width: 10
XAxis mode: Wavelengths
Number of Pixels in Spectrum: 2048
>>>>>Begin Spectral Data<<<<<
177.721	359.18
178.105	-38.73
178.488	56.17
178.871	37.37
179.254	53.81
179.636	-36.81
180.019	115.42
180.402	123.08
180.785	172.29
181.168	34.18
181.55	61.95
181.933	84.66
182.316	87
182.698	141.89
183.081	100
183.463	137.78
183.846	197.24
184.228	144.53
184.611	491.84
184.993	2375.86
185.376	-121.2
185.758	69.44
186.14	139.74
186.522	731.58
186.904	-124.78
187.287	-0.19
187.669	115.83
188.051	-41.68
188.433	-25.42
188.815	-13.73
189.197	-26.52
189.579	-23.96
189.961	17.68
190.342	-8.8
190.724	11
191.106	-4.13
191.488	-8.13
191.869	4.3
192.251	-18.15
192.633	-20.99
193.014	-60.13
193.396	-274.29
193.777	-224.32
194.159	-472.31
194.54	-143.33
194.922	-97.16
195.303	-153.88
195.684	-114.55
196.065	6.85
196.447	22.23
196.828	42.95
197.209	30.29
197.59	22.29
197.971	-21.59
198.352	62.4
198.733	67.83
199.114	112.79
199.495	41.58
199.876	55.7
200.257	37.17
200.638	36.63
201.018	18.28
201.399	1
201.78	-10.51
202.16	-18.28
202.541	-34.86
202.922	-66.37
203.302	-82.48
203.683	-79.16
204.063	-118.26
204.444	-95.83
204.824	-111.05
205.204	-93.55
205.585	-91.07
205.965	-84.62
206.345	-89.56
206.725	-85.44
207.106	-99.1
207.486	-91.24
207.866	-77.85
208.246	-95.81
208.626	-122.5
209.006	-97.41
209.386	-136.03
209.766	-176.47
210.145	-123.58
210.525	-113.78
210.905	-81.93
211.285	-72.81
211.664	-81.78
212.044	-90.82
212.424	-105.15
212.803	-99.02
213.183	-101.23
213.562	-96.18
213.942	-97.68
214.321	-129.79
214.701	-177.52
215.08	-154.41
215.459	-145.52
215.838	-138.6
216.218	-102.49
216.597	-59.73
216.976	-65.98
217.355	-43.82
217.734	-54.57
218.113	-62.87
218.492	-61.06
218.871	-60.98
219.25	-48.69
219.629	-39.89
220.008	-33.4
220.387	-39.63
220.766	-33.13
221.144	-45.55
221.523	-46.78
221.902	-76.31
222.28	-47.34
222.659	-29.86
223.037	-28.49
223.416	-33.85
223.794	-40.44
224.173	-36.84
224.551	-30.09
224.929	-30.68
225.308	-9.89
225.686	4.56
226.064	5.1
226.442	6.29
226.821	4.59
227.199	-6.44
227.577	-4.16
227.955	-6.69
228.333	-0.14
228.711	0.65
229.089	3.25
229.467	-0.12
229.845	3.92
230.222	0.7
230.6	-0.42
230.978	1.08
231.356	2.84
231.733	0.61
232.111	1.17
232.488	1.45
232.866	2.31
233.243	-0.91
233.621	-2.66
233.998	-0.58
234.376	-1.6
234.753	-0.25
235.13	2.58
235.508	1.81
235.885	3.86
236.262	1.48
236.639	1.1
237.016	1.02
237.393	1.89
237.77	1.95
238.147	3.44
238.524	3.31
238.901	3.75
239.278	3.38
239.655	4.35
240.032	3.52
240.409	2.9
240.785	3.05
241.162	3.43
241.539	4.28
241.915	3.97
242.292	3.75
242.668	3.53
243.045	3.15
243.421	3.61
243.798	3.36
244.174	3.64
244.551	3.64
244.927	3.68
245.303	3.87
245.679	3.88
246.056	3.88
246.432	3.92
246.808	3.88
247.184	3.78
247.56	3.6
247.936	3.77
248.312	4.03
248.688	4.01
249.064	3.84
249.44	3.48
249.815	3.58
250.191	3.67
250.567	3.76
250.943	3.75
251.318	3.69
251.694	3.71
252.069	3.67
252.445	3.74
252.82	3.88
253.196	4
253.571	3.83
253.947	3.81
254.322	4.32
254.697	4.16
255.073	4.22
255.448	4.15
255.823	4.11
256.198	3.99
256.573	4.02
256.948	4.26
257.323	4.45
257.698	4.3
258.073	4.33
258.448	4.25
258.823	4.45
259.198	4.22
259.573	4.22
259.948	4.23
260.322	4.27
260.697	4.01
261.072	3.81
261.446	3.91
261.821	3.66
262.195	3.62
262.57	3.62
262.944	3.45
263.319	3.5
263.693	3.54
264.067	3.39
264.442	3.42
264.816	3.31
265.19	3.18
265.564	3.19
265.938	3.11
266.313	3.29
266.687	3.19
267.061	3.42
267.435	3.6
267.809	3.57
268.183	3.68
268.556	3.82
268.93	4.07
269.304	3.92
269.678	4.12
270.051	4.01
270.425	4.05
270.799	4.2
271.172	4.24
271.546	4.21
271.919	4.38
272.293	4.34
272.666	4.31
273.04	4.38
273.413	4.41
273.787	4.48
274.16	4.34
274.533	4.19
274.906	4.08
275.279	3.97
275.653	4.02
276.026	3.82
276.399	3.85
276.772	3.86
277.145	4.01
277.518	4.23
277.891	4.14
278.263	4.05
278.636	4.08
279.009	4.17
279.382	4.27
279.755	4.09
280.127	4.24
280.5	4.24
280.872	4.32
281.245	4.27
281.617	4.35
281.99	4.45
282.362	4.54
282.735	4.48
283.107	4.5
283.479	4.52
283.852	4.59
284.224	4.53
284.596	4.32
284.968	4.31
285.34	4.19
285.713	4.21
286.085	4.32
286.457	4.4
286.829	4.44
287.201	4.51
287.572	4.58
287.944	4.49
288.316	4.51
288.688	4.51
289.06	4.45
289.431	4.39
289.803	4.35
290.175	4.53
290.546	4.67
290.918	4.71
291.289	4.71
291.661	4.74
292.032	4.87
292.403	5.02
292.775	4.97
293.146	4.99
293.517	5
293.889	4.97
294.26	5.02
294.631	4.95
295.002	4.8
295.373	4.99
295.744	4.99
296.115	5.04
296.486	5
296.857	5.16
297.228	5.14
297.599	5.18
297.97	5.11
298.34	5.17
298.711	5.13
299.082	5.15
299.452	5.09
299.823	5.05
300.194	5.02
300.564	4.97
300.935	5.12
301.305	5.13
301.676	5.14
302.046	5.07
302.416	5.14
302.787	5.2
303.157	5.05
303.527	5.14
303.897	5.11
304.267	5.21
304.637	5.23
305.008	5.3
305.378	5.39
305.748	5.44
306.117	5.28
306.487	5.4
306.857	5.45
307.227	5.55
307.597	5.65
307.967	5.74
308.336	5.89
308.706	5.78
309.076	5.85
309.445	5.82
309.815	5.75
310.184	5.66
310.554	5.64
310.923	5.65
311.293	5.61
311.662	5.64
312.031	5.49
312.401	5.46
312.77	5.52
313.139	5.57
313.508	5.63
313.877	5.7
314.246	5.75
314.616	5.67
314.985	5.77
315.353	5.68
315.722	5.7
316.091	5.5
316.46	5.43
316.829	5.41
317.198	5.53
317.567	5.66
317.935	5.71
318.304	5.87
318.672	5.92
319.041	5.95
319.41	5.95
319.778	6.12
320.147	6.24
320.515	6.33
320.883	6.18
321.252	6.21
321.62	6.29
321.988	6.22
322.357	6.19
322.725	6.17
323.093	6.27
323.461	6.28
323.829	6.47
324.197	6.53
324.565	6.64
324.933	6.64
325.301	6.61
325.669	6.62
326.037	6.54
326.405	6.6
326.772	6.73
327.14	6.86
327.508	6.98
327.875	6.97
328.243	6.96
328.61	6.97
328.978	6.85
329.346	6.87
329.713	6.81
330.08	6.87
330.448	6.82
330.815	6.85
331.182	6.96
331.55	7.08
331.917	7.14
332.284	7.1
332.651	7.13
333.018	7.32
333.385	7.44
333.752	7.54
334.119	7.58
334.486	7.45
334.853	7.32
335.22	7.13
335.587	7.15
335.954	7.02
336.32	7.11
336.687	7.09
337.054	7.08
337.42	7.15
337.787	7.27
338.153	7.3
338.52	7.31
338.886	7.19
339.253	7.15
339.619	7.18
339.986	7.26
340.352	7.2
340.718	7.12
341.084	7.03
341.451	7.07
341.817	7.12
342.183	7.16
342.549	7.24
342.915	7.31
343.281	7.33
343.647	7.41
344.013	7.48
344.379	7.6
344.745	7.64
345.11	7.65
345.476	7.7
345.842	7.67
346.208	7.68
346.573	7.7
346.939	7.72
347.304	7.67
347.67	7.53
348.035	7.48
348.401	7.44
348.766	7.49
349.132	7.47
349.497	7.35
349.862	7.48
350.228	7.51
350.593	7.55
350.958	7.5
351.323	7.5
351.688	7.37
352.053	7.4
352.418	7.4
352.783	7.44
353.148	7.34
353.513	7.44
353.878	7.43
354.243	7.43
354.608	7.37
354.972	7.43
355.337	7.55
355.702	7.71
356.066	7.78
356.431	7.78
356.795	7.75
357.16	7.67
357.524	7.55
357.889	7.54
358.253	7.53
358.618	7.59
358.982	7.54
359.346	7.55
359.71	7.47
360.075	7.45
360.439	7.43
360.803	7.44
361.167	7.36
361.531	7.25
361.895	7.2
362.259	7.17
362.623	7.11
362.987	7.06
363.351	7.03
363.714	6.96
364.078	6.9
364.442	6.83
364.806	6.89
365.169	6.92
365.533	6.86
365.896	6.79
366.26	6.67
366.623	6.68
366.987	6.68
367.35	6.71
367.714	6.66
368.077	6.57
368.44	6.53
368.803	6.47
369.167	6.51
369.53	6.52
369.893	6.56
370.256	6.56
370.619	6.51
370.982	6.37
371.345	6.38
371.708	6.39
372.071	6.31
372.434	6.22
372.797	6.15
373.159	6.12
373.522	6.14
373.885	6.14
374.247	6.1
374.61	6.05
374.973	5.94
375.335	5.85
375.698	5.87
376.06	5.84
376.423	5.87
376.785	5.91
377.147	5.91
377.51	5.86
377.872	5.83
378.234	5.79
378.596	5.84
378.958	5.78
379.321	5.71
379.683	5.73
380.045	5.71
380.407	5.64
380.769	5.63
381.13	5.55
381.492	5.47
381.854	5.42
382.216	5.4
382.578	5.42
382.939	5.42
383.301	5.34
383.663	5.32
384.024	5.28
384.386	5.21
384.747	5.18
385.109	5.15
385.47	5.09
385.832	5.07
386.193	5
386.554	4.95
386.916	4.9
387.277	4.93
387.638	4.94
387.999	4.9
388.36	4.89
388.721	4.92
389.082	4.96
389.443	4.91
389.804	4.86
390.165	4.82
390.526	4.82
390.887	4.83
391.248	4.8
391.609	4.75
391.969	4.68
392.33	4.65
392.691	4.65
393.051	4.66
393.412	4.65
393.772	4.62
394.133	4.62
394.493	4.64
394.854	4.58
395.214	4.58
395.574	4.58
395.935	4.57
396.295	4.53
396.655	4.48
397.015	4.46
397.376	4.47
397.736	4.43
398.096	4.43
398.456	4.38
398.816	4.37
399.176	4.37
399.535	4.41
399.895	4.4
400.255	4.35
400.615	4.31
400.975	4.27
401.334	4.3
401.694	4.25
402.054	4.21
402.413	4.19
402.773	4.13
403.132	4.08
403.492	4.08
403.851	4.07
404.211	4.08
404.57	4.1
404.929	4.07
405.288	4.04
405.648	4.02
406.007	4.01
406.366	3.99
406.725	3.99
407.084	3.97
407.443	3.92
407.802	3.94
408.161	3.89
408.52	3.86
408.879	3.81
409.238	3.84
409.596	3.85
409.955	3.84
410.314	3.87
410.673	3.89
411.031	3.88
411.39	3.86
411.748	3.82
412.107	3.79
412.465	3.78
412.824	3.81
413.182	3.79
413.54	3.81
413.899	3.8
414.257	3.77
414.615	3.76
414.974	3.8
415.332	3.76
415.69	3.75
416.048	3.76
416.406	3.76
416.764	3.76
417.122	3.75
417.48	3.74
417.838	3.73
418.195	3.7
418.553	3.69
418.911	3.68
419.269	3.69
419.626	3.69
419.984	3.68
420.342	3.66
420.699	3.66
421.057	3.64
421.414	3.64
421.772	3.64
422.129	3.65
422.486	3.65
422.844	3.65
423.201	3.66
423.558	3.67
423.915	3.65
424.273	3.63
424.63	3.6
424.987	3.6
425.344	3.59
425.701	3.6
426.058	3.58
426.415	3.57
426.772	3.55
427.128	3.54
427.485	3.53
427.842	3.53
428.199	3.52
428.555	3.52
428.912	3.53
429.269	3.53
429.625	3.5
429.982	3.48
430.338	3.47
430.695	3.49
431.051	3.48
431.407	3.5
431.764	3.5
432.12	3.53
432.476	3.54
432.832	3.53
433.189	3.52
433.545	3.52
433.901	3.53
434.257	3.52
434.613	3.52
434.969	3.55
435.325	3.54
435.681	3.53
436.036	3.53
436.392	3.52
436.748	3.5
437.104	3.49
437.459	3.48
437.815	3.47
438.171	3.45
438.526	3.46
438.882	3.44
439.237	3.45
439.593	3.44
439.948	3.43
440.304	3.43
440.659	3.42
441.014	3.44
441.369	3.43
441.725	3.42
442.08	3.42
442.435	3.41
442.79	3.41
443.145	3.41
443.5	3.41
443.855	3.41
444.21	3.41
444.565	3.42
444.92	3.43
445.275	3.43
445.629	3.43
445.984	3.42
446.339	3.42
446.693	3.41
447.048	3.41
447.403	3.4
447.757	3.41
448.112	3.4
448.466	3.38
448.82	3.39
449.175	3.4
449.529	3.41
449.883	3.37
450.238	3.35
450.592	3.35
450.946	3.35
451.3	3.34
451.654	3.33
452.008	3.35
452.362	3.32
452.716	3.31
453.07	3.29
453.424	3.28
453.778	3.28
454.132	3.29
454.486	3.29
454.839	3.28
455.193	3.27
455.547	3.28
455.9	3.31
456.254	3.31
456.607	3.31
456.961	3.31
457.314	3.33
457.668	3.35
458.021	3.34
458.375	3.34
458.728	3.34
459.081	3.34
459.434	3.32
459.787	3.32
460.141	3.34
460.494	3.36
460.847	3.38
461.2	3.38
461.553	3.38
461.906	3.39
462.259	3.39
462.611	3.41
462.964	3.41
463.317	3.41
463.67	3.41
464.022	3.42
464.375	3.42
464.728	3.43
465.08	3.43
465.433	3.44
465.785	3.46
466.138	3.47
466.49	3.45
466.843	3.48
467.195	3.51
467.547	3.51
467.899	3.49
468.252	3.48
468.604	3.49
468.956	3.48
469.308	3.51
469.66	3.51
470.012	3.51
470.364	3.51
470.716	3.51
471.068	3.5
471.42	3.5
471.772	3.53
472.123	3.53
472.475	3.54
472.827	3.53
473.178	3.52
473.53	3.51
473.882	3.5
474.233	3.51
474.585	3.48
474.936	3.47
475.288	3.49
475.639	3.49
475.99	3.5
476.342	3.5
476.693	3.47
477.044	3.48
477.395	3.49
477.746	3.48
478.097	3.47
478.448	3.48
478.8	3.48
479.15	3.45
479.501	3.46
479.852	3.45
480.203	3.46
480.554	3.47
480.905	3.47
481.255	3.49
481.606	3.49
481.957	3.5
482.307	3.51
482.658	3.51
483.009	3.52
483.359	3.5
483.709	3.52
484.06	3.52
484.41	3.53
484.761	3.53
485.111	3.53
485.461	3.54
485.811	3.55
486.162	3.55
486.512	3.56
486.862	3.56
487.212	3.57
487.562	3.57
487.912	3.58
488.262	3.59
488.612	3.6
488.961	3.61
489.311	3.6
489.661	3.61
490.011	3.61
490.36	3.62
490.71	3.63
491.06	3.63
491.409	3.65
491.759	3.63
492.108	3.63
492.458	3.65
492.807	3.66
493.157	3.67
493.506	3.69
493.855	3.69
494.204	3.72
494.554	3.73
494.903	3.72
495.252	3.73
495.601	3.74
495.95	3.75
496.299	3.77
496.648	3.79
496.997	3.81
497.346	3.83
497.695	3.85
498.043	3.87
498.392	3.88
498.741	3.9
499.09	3.93
499.438	3.97
499.787	3.99
500.135	4.01
500.484	4.03
500.832	4.06
501.181	4.09
501.529	4.12
501.878	4.14
502.226	4.18
502.574	4.22
502.923	4.25
503.271	4.28
503.619	4.31
503.967	4.37
504.315	4.4
504.663	4.43
505.011	4.49
505.359	4.52
505.707	4.59
506.055	4.63
506.403	4.68
506.751	4.72
507.098	4.78
507.446	4.84
507.794	4.89
508.141	4.94
508.489	5
508.837	5.04
509.184	5.1
509.531	5.18
509.879	5.25
510.226	5.32
510.574	5.37
510.921	5.45
511.268	5.5
511.616	5.55
511.963	5.62
512.31	5.69
512.657	5.77
513.004	5.84
513.351	5.91
513.698	6
514.045	6.08
514.392	6.13
514.739	6.2
515.086	6.29
515.432	6.38
515.779	6.45
516.126	6.55
516.473	6.65
516.819	6.72
517.166	6.78
517.512	6.86
517.859	6.94
518.205	7.01
518.552	7.11
518.898	7.19
519.245	7.28
519.591	7.36
519.937	7.42
520.283	7.49
520.629	7.58
520.976	7.67
521.322	7.78
521.668	7.89
522.014	8.01
522.36	8.1
522.706	8.21
523.052	8.36
523.398	8.53
523.743	8.65
524.089	8.8
524.435	8.95
524.781	9.09
525.126	9.22
525.472	9.35
525.817	9.45
526.163	9.54
526.509	9.64
526.854	9.74
527.199	9.85
527.545	9.95
527.89	10.03
528.235	10.13
528.581	10.24
528.926	10.35
529.271	10.45
529.616	10.56
529.961	10.65
530.306	10.74
530.651	10.82
530.996	10.94
531.341	11.06
531.686	11.17
532.031	11.29
532.376	11.41
532.721	11.56
533.065	11.7
533.41	11.84
533.755	12.01
534.099	12.17
534.444	12.33
534.788	12.49
535.133	12.65
535.477	12.81
535.822	12.97
536.166	13.15
536.51	13.34
536.855	13.57
537.199	13.81
537.543	14.05
537.887	14.33
538.231	14.53
538.576	14.8
538.92	15.04
539.264	15.28
539.608	15.52
539.951	15.74
540.295	15.92
540.639	16.14
540.983	16.3
541.327	16.51
541.671	16.71
542.014	16.91
542.358	17.12
542.701	17.34
543.045	17.52
543.389	17.72
543.732	17.93
544.075	18.13
544.419	18.36
544.762	18.59
545.105	18.81
545.449	19.07
545.792	19.31
546.135	19.56
546.478	19.84
546.821	20.09
547.165	20.34
547.508	20.64
547.851	20.95
548.194	21.24
548.536	21.52
548.879	21.81
549.222	22.08
549.565	22.38
549.908	22.66
550.25	22.98
550.593	23.26
550.936	23.54
551.278	23.88
551.621	24.14
551.963	24.47
552.306	24.73
552.648	25.05
552.991	25.33
553.333	25.64
553.675	25.93
554.017	26.25
554.36	26.58
554.702	26.87
555.044	27.18
555.386	27.48
555.728	27.75
556.07	28.05
556.412	28.42
556.754	28.67
557.096	28.96
557.438	29.26
557.78	29.63
558.121	29.97
558.463	30.26
558.805	30.59
559.147	30.89
559.488	31.2
559.83	31.48
560.171	31.8
560.513	32.08
560.854	32.32
561.196	32.54
561.537	32.8
561.878	33.14
562.22	33.44
562.561	33.75
562.902	34.02
563.243	34.23
563.584	34.44
563.925	34.73
564.266	35.01
564.607	35.22
564.948	35.44
565.289	35.64
565.63	35.85
565.971	36.06
566.312	36.25
566.653	36.44
566.993	36.68
567.334	36.85
567.675	37.11
568.015	37.4
568.356	37.63
568.696	37.83
569.037	37.99
569.377	38.13
569.718	38.35
570.058	38.58
570.398	38.82
570.739	39.03
571.079	39.24
571.419	39.44
571.759	39.63
572.099	39.82
572.439	40
572.779	40.17
573.119	40.37
573.459	40.54
573.799	40.76
574.139	40.95
574.479	41.12
574.819	41.24
575.158	41.33
575.498	41.49
575.838	41.69
576.177	41.83
576.517	42.08
576.856	42.22
577.196	42.38
577.535	42.52
577.875	42.63
578.214	42.77
578.553	42.95
578.893	43.11
579.232	43.32
579.571	43.52
579.91	43.71
580.25	43.82
580.589	43.96
580.928	44.03
581.267	44.17
581.606	44.34
581.945	44.5
582.283	44.66
582.622	44.85
582.961	44.94
583.3	45.05
583.639	45.11
583.977	45.22
584.316	45.31
584.654	45.52
584.993	45.68
585.332	45.83
585.67	45.86
586.008	46
586.347	46.03
586.685	46.09
587.024	46.28
587.362	46.46
587.7	46.64
588.038	46.83
588.376	46.87
588.715	46.98
589.053	47.16
589.391	47.29
589.729	47.48
590.067	47.6
590.404	47.76
590.742	47.92
591.08	48.02
591.418	48.16
591.756	48.22
592.093	48.33
592.431	48.48
592.769	48.61
593.106	48.73
593.444	48.81
593.781	48.93
594.119	48.95
594.456	49
594.793	49.08
595.131	49.2
595.468	49.3
595.805	49.36
596.143	49.37
596.48	49.42
596.817	49.45
597.154	49.53
597.491	49.63
597.828	49.7
598.165	49.76
598.502	49.88
598.839	49.98
599.176	50.1
599.512	50.11
599.849	50.22
600.186	50.28
600.523	50.43
600.859	50.54
601.196	50.64
601.532	50.68
601.869	50.78
602.205	50.85
602.542	50.91
602.878	51
603.215	51.12
603.551	51.15
603.887	51.16
604.223	51.19
604.56	51.18
604.896	51.27
605.232	51.36
605.568	51.35
605.904	51.33
606.24	51.44
606.576	51.52
606.912	51.52
607.248	51.61
607.583	51.61
607.919	51.71
608.255	51.72
608.591	51.88
608.926	51.84
609.262	51.83
609.597	51.92
609.933	51.96
610.268	51.9
610.604	51.98
610.939	52
611.275	52.06
611.61	52.12
611.945	52.1
612.281	52.17
612.616	52.27
612.951	52.38
613.286	52.32
613.621	52.35
613.956	52.46
614.291	52.55
614.626	52.59
614.961	52.53
615.296	52.56
615.631	52.57
615.966	52.64
616.3	52.69
616.635	52.77
616.97	52.73
617.304	52.89
617.639	52.95
617.973	52.98
618.308	53.03
618.642	53.1
618.977	53.17
619.311	53.24
619.646	53.21
619.98	53.26
620.314	53.37
620.648	53.41
620.983	53.44
621.317	53.42
621.651	53.52
621.985	53.64
622.319	53.71
622.653	53.75
622.987	53.85
623.321	53.86
623.655	53.88
623.988	54.01
624.322	54.04
624.656	54.14
624.99	54.26
625.323	54.41
625.657	54.44
625.99	54.44
626.324	54.45
626.657	54.51
626.991	54.51
627.324	54.54
627.658	54.57
627.991	54.57
628.324	54.59
628.657	54.64
628.991	54.68
629.324	54.67
629.657	54.66
629.99	54.73
630.323	54.84
630.656	54.78
630.989	54.85
631.322	54.88
631.655	54.91
631.987	54.92
632.32	54.85
632.653	54.83
632.986	54.94
633.318	54.98
633.651	54.98
633.984	55.06
634.316	55.08
634.649	55.19
634.981	55.21
635.313	55.23
635.646	55.28
635.978	55.28
636.31	55.38
636.643	55.48
636.975	55.44
637.307	55.5
637.639	55.59
637.971	55.59
638.303	55.6
638.635	55.57
638.967	55.62
639.299	55.69
639.631	55.77
639.963	55.7
640.295	55.71
640.626	55.78
640.958	55.75
641.29	55.73
641.621	55.72
641.953	55.84
642.285	56.03
642.616	55.95
642.948	55.98
643.279	55.92
643.61	55.89
643.942	55.92
644.273	55.93
644.604	55.83
644.936	55.83
645.267	55.87
645.598	55.84
645.929	55.84
646.26	55.84
646.591	55.92
646.922	56
647.253	56.01
647.584	55.98
647.915	56.08
648.245	56.15
648.576	56.14
648.907	56.13
649.238	56.05
649.568	56.08
649.899	56.1
650.229	56.12
650.56	56.2
650.89	56.31
651.221	56.19
651.551	56.26
651.882	56.33
652.212	56.39
652.542	56.45
652.872	56.49
653.203	56.53
653.533	56.54
653.863	56.46
654.193	56.39
654.523	56.47
654.853	56.48
655.183	56.46
655.513	56.48
655.843	56.63
656.172	56.68
656.502	56.81
656.832	56.89
657.162	56.96
657.491	56.96
657.821	56.86
658.15	56.97
658.48	57.07
658.809	57.01
659.139	56.98
659.468	57.03
659.798	57.12
660.127	57.11
660.456	57.16
660.785	57.29
661.115	57.36
661.444	57.36
661.773	57.49
662.102	57.51
662.431	57.63
662.76	57.57
663.089	57.64
663.418	57.59
663.747	57.41
664.076	57.39
664.404	57.43
664.733	57.49
665.062	57.55
665.39	57.55
665.719	57.56
666.048	57.56
666.376	57.52
666.705	57.45
667.033	57.47
667.362	57.45
667.69	57.35
668.018	57.38
668.347	57.42
668.675	57.26
669.003	57.27
669.331	57.19
669.659	57.21
669.987	57.08
670.315	57.09
670.643	57.2
670.971	57.2
671.299	57.14
671.627	57.16
671.955	57.15
672.283	57.23
672.61	57.18
672.938	57.27
673.266	57.38
673.593	57.39
673.921	57.4
674.249	57.48
674.576	57.64
674.904	57.68
675.231	57.7
675.558	57.79
675.886	57.89
676.213	57.91
676.54	57.81
676.867	57.87
677.195	57.96
677.522	58.07
677.849	58.15
678.176	58.15
678.503	58.24
678.83	58.23
679.157	58.21
679.484	58.33
679.81	58.33
680.137	58.25
680.464	58.29
680.791	58.26
681.117	58.16
681.444	58.03
681.771	57.96
682.097	57.99
682.424	57.97
682.75	57.94
683.077	58.02
683.403	58.08
683.729	58.02
684.056	57.84
684.382	57.79
684.708	57.81
685.034	57.77
685.36	57.75
685.686	57.73
686.012	57.56
686.339	57.58
686.664	57.61
686.99	57.72
687.316	57.63
687.642	57.78
687.968	57.81
688.294	57.98
688.619	58.19
688.945	58.14
689.271	58.15
689.596	58.08
689.922	57.96
690.247	58.02
690.573	58.11
690.898	58.15
691.224	58.18
691.549	58.16
691.874	58.22
692.2	58.11
692.525	58.09
692.85	58.19
693.175	58.19
693.5	58.2
693.825	57.98
694.15	58.1
694.475	57.92
694.8	58.12
695.125	58.07
695.45	58.07
695.775	58.15
696.099	58.27
696.424	58.37
696.749	58.26
697.073	58.24
697.398	58.33
697.723	58.4
698.047	58.42
698.372	58.44
698.696	58.49
699.02	58.6
699.345	58.69
699.669	58.89
699.993	58.83
700.318	58.86
700.642	59
700.966	58.98
701.29	59.17
701.614	59.03
701.938	59.1
702.262	59.13
702.586	59.12
702.91	59
703.234	59.06
703.557	59.2
703.881	59.21
704.205	59.22
704.529	59.17
704.852	59.14
705.176	59.17
705.499	59.11
705.823	58.82
706.146	58.86
706.47	58.73
706.793	59.07
707.117	58.94
707.44	58.87
707.763	58.86
708.086	58.9
708.409	58.93
708.733	58.94
709.056	58.72
709.379	58.88
709.702	59.03
710.025	58.88
710.348	59.1
710.671	59.23
710.993	59.36
711.316	59.53
711.639	59.59
711.962	59.61
712.284	59.6
712.607	59.78
712.93	59.78
713.252	59.71
713.575	59.53
713.897	59.58
714.22	59.75
714.542	59.79
714.864	59.66
715.187	59.59
715.509	59.67
715.831	59.75
716.153	59.61
716.475	59.5
716.798	59.59
717.12	59.47
717.442	59.32
717.764	59.25
718.085	59.04
718.407	58.9
718.729	58.89
719.051	58.88
719.373	58.88
719.695	58.87
720.016	59.1
720.338	59.04
720.659	59
720.981	58.96
721.302	59.08
721.624	59.13
721.945	59.2
722.267	59.2
722.588	59.19
722.909	59.16
723.231	59.06
723.552	59.28
723.873	59.38
724.194	59.38
724.515	59.2
724.836	59.46
725.157	59.56
725.478	59.61
725.799	59.79
726.12	59.91
726.441	59.91
726.762	59.74
727.083	59.55
727.403	59.51
727.724	59.65
728.045	59.51
728.365	59.36
728.686	59.42
729.006	59.3
729.327	59.33
729.647	59.31
729.967	59.5
730.288	59.11
730.608	59.04
730.928	59.22
731.249	59.38
731.569	59.21
731.889	59.27
732.209	59.12
732.529	59.11
732.849	59.17
733.169	59.01
733.489	59.11
733.809	59.46
734.129	59.47
734.448	59.51
734.768	59.41
735.088	59.63
735.408	59.71
735.727	59.72
736.047	59.66
736.366	59.72
736.686	59.72
737.005	59.93
737.325	59.99
737.644	59.77
737.963	59.61
738.283	59.8
738.602	59.78
738.921	59.97
739.24	59.92
739.56	59.9
739.879	59.91
740.198	59.75
740.517	59.54
740.836	59.76
741.155	59.34
741.473	59.5
741.792	59.51
742.111	59.41
742.43	59.28
742.748	59.21
743.067	59.17
743.386	59.01
743.704	59.06
744.023	58.96
744.341	58.8
744.66	58.87
744.978	58.7
745.297	58.41
745.615	58.55
745.933	58.74
746.252	58.59
746.57	58.91
746.888	59
747.206	58.77
747.524	58.65
747.842	58.83
748.16	58.8
748.478	58.74
748.796	58.88
749.114	59
749.432	59.02
749.749	59.08
750.067	59.3
750.385	59.32
750.703	59.38
751.02	59.49
751.338	59.81
751.655	60
751.973	60.29
752.29	60.04
752.608	59.82
752.925	60.1
753.242	59.98
753.56	59.9
753.877	59.85
754.194	59.79
754.511	59.71
754.828	59.81
755.145	59.47
755.462	59.19
755.779	59.18
756.096	59.28
756.413	59.21
756.73	59.21
757.047	59.16
757.364	59.1
757.68	59.27
757.997	59
758.314	59.05
758.63	58.95
758.947	59.06
759.264	59.05
759.58	58.67
759.896	58.81
760.213	58.95
760.529	59.26
760.846	59.33
761.162	59.41
761.478	59.14
761.794	59.48
762.11	59.58
762.426	59.58
762.743	59.5
763.059	59.48
763.375	59.33
763.69	59.36
764.006	59.54
764.322	59.79
764.638	59.79
764.954	59.73
765.27	59.64
765.585	59.7
765.901	59.83
766.216	59.86
766.532	59.68
766.848	59.45
767.163	59.41
767.478	59.46
767.794	59.16
768.109	59.45
768.424	59.34
768.74	59.4
769.055	59.32
769.37	59.72
769.685	60.13
770	60.44
770.315	60.43
770.63	60.4
770.945	60.11
771.26	60.02
771.575	59.74
771.89	60.15
772.205	59.88
772.52	59.54
772.834	59.82
773.149	60.03
773.464	60.12
773.778	60.22
774.093	60.26
774.407	60.64
774.722	60.49
775.036	60.47
775.351	60.39
775.665	60.37
775.979	59.61
776.293	58.72
776.608	58.91
776.922	59.01
777.236	58.95
777.55	58.71
777.864	58.4
778.178	58.86
778.492	58.77
778.806	58.88
779.12	59.32
779.434	59.2
779.747	59.39
780.061	59.5
780.375	59.19
780.689	58.96
781.002	58.89
781.316	58.85
781.629	59
781.943	59.21
782.256	59.62
782.57	59.66
782.883	59.96
783.196	59.4
783.51	58.98
783.823	58.9
784.136	59.14
784.449	59.6
784.762	59.05
785.075	59.21
785.388	59.31
785.701	59.52
786.014	59.92
786.327	59.28
786.64	59.52
786.953	59.84
787.266	60.23
787.578	60.07
787.891	60.37
788.204	60.07
788.516	60.53
788.829	59.97
789.141	60.29
789.454	60.5
789.766	60.48
790.079	60.8
790.391	60.53
790.703	60.45
791.016	60.16
791.328	60.45
791.64	60.34
791.952	59.96
792.264	59.53
792.576	59.11
792.888	59.64
793.2	59.58
793.512	59.79
793.824	59.25
794.136	59.62
794.448	59.37
794.76	59.52
795.071	58.7
795.383	58.82
795.695	58.62
796.006	59.05
796.318	59.32
796.629	58.96
796.941	59.15
797.252	59.23
797.564	59.79
797.875	59.46
798.186	59.18
798.497	59.84
798.809	59.86
799.12	59.87
799.431	59.4
799.742	59.23
800.053	59.03
800.364	59.59
800.675	59.2
800.986	59.47
801.297	59.53
801.608	59.43
801.918	59.73
802.229	59.97
802.54	59.5
802.851	59.15
803.161	59.95
803.472	59.76
803.782	60.06
804.093	59.92
804.403	60.14
804.714	60.39
805.024	60.42
805.334	60.88
805.645	60.9
805.955	61.51
806.265	61.45
806.575	61.45
806.885	60.95
807.195	61.23
807.505	61.43
807.815	61.23
808.125	61.3
808.435	61.35
808.745	61.35
809.055	61.78
809.365	61.53
809.674	60.64
809.984	60.99
810.294	60.6
810.603	59.89
810.913	60.79
811.222	61.26
811.532	60.57
811.841	60.69
812.151	60.84
812.46	61.19
812.769	61.71
813.079	61.54
813.388	62.16
813.697	61.76
814.006	60.61
814.315	61.32
814.624	61.75
814.933	61.47
815.242	61.24
815.551	60.58
815.86	61.38
816.169	62.21
816.478	61.99
816.786	62.07
817.095	62.94
817.404	61.84
817.712	61.47
818.021	61.5
818.33	60.92
818.638	60.89
818.947	60.53
819.255	60.6
819.563	60.38
819.872	60.75
820.18	61.09
820.488	61.59
820.796	61.49
821.105	61.21
821.413	61.35
821.721	61.41
822.029	61.4
822.337	61.46
822.645	61.57
822.953	61.78
823.26	61.91
823.568	61.77
823.876	61.92
824.184	61.89
824.491	61.93
824.799	61.97
825.107	61.91
825.414	61.94
825.722	61.84
826.029	62.16
826.337	61.93
826.644	61.86
826.951	61.82
827.259	61.77
827.566	61.92
827.873	61.99
828.18	61.97
828.488	62.07
828.795	62.14
829.102	61.93
829.409	61.62
829.716	61.47
830.023	61.38
830.329	61.41
830.636	61.62
830.943	61.57
831.25	61.43
831.557	61.49
831.863	61.27
832.17	61.86
832.476	61.23
832.783	61.74
833.089	61.79
833.396	61.99
833.702	62.72
834.009	62.92
834.315	62.72
834.621	62.89
834.928	62.88
835.234	62.5
835.54	62.35
835.846	62.64
836.152	62.75
836.458	62.7
836.764	62.82
837.07	62.78
837.376	63.31
837.682	63.42
837.988	63.9
838.293	64.27
838.599	63.87
838.905	64.11
839.211	63.8
839.516	64.11
839.822	63.82
840.127	62.36
840.433	62.35
840.738	62.39
841.044	62.11
841.349	62.21
841.654	61.5
841.959	61.62
842.265	62.14
842.57	62.13
842.875	62.37
843.18	61.16
843.485	60.72
843.79	59.49
844.095	60.16
844.4	60.49
844.705	59.83
845.01	59.68
845.315	59.6
845.619	58.48
845.924	59.54
846.229	59.08
846.533	59.93
846.838	59.29
847.142	57.05
847.447	57.5
847.751	57.91
848.056	57.77
848.36	57.23
848.664	56.2
848.969	56.47
849.273	56.77
849.577	58.21
849.881	58.4
850.185	58.11
850.489	57.3
850.794	56.96
851.097	56.34
851.401	55.09
851.705	55.52
852.009	56.14
852.313	54.36
852.617	53.92
852.92	54.47
853.224	53.9
853.528	55.24
853.831	56.81
854.135	57.25
854.438	59.66
854.742	61.8
855.045	60.97
855.349	58.82
855.652	58.75
855.955	58.82
856.259	58.14
856.562	57.95
856.865	58.45
857.168	58.65
857.471	59.42
857.774	61.04
858.077	60.35
858.38	60.87
858.683	59.64
858.986	61.27
859.289	60.91
859.592	61.47
859.894	62.64
860.197	62.77
860.5	62.28
860.802	60.26
861.105	58.36
861.407	57.71
861.71	58.58
862.012	58.32
862.315	56.62
862.617	57.42
862.919	60.53
863.222	60.47
863.524	59.44
863.826	60.44
864.128	58.48
864.43	59.51
864.732	60.43
865.034	64.29
865.336	61.7
865.638	61.37
865.94	62.23
866.242	62.07
866.544	58.78
866.846	58.93
867.147	60.4
867.449	57.45
867.751	60.67
868.052	61.19
868.354	61.4
868.655	62.78
868.957	61.68
869.258	59.91
869.56	60.14
869.861	60.81
870.162	59.49
870.463	58.18
870.765	60.92
871.066	60.26
871.367	57.45
871.668	56.44
871.969	56.8
872.27	54.02
872.571	52.95
872.872	53.32
873.173	50.76
873.473	52.47
873.774	58.15
874.075	56.1
874.376	55.92
874.676	56.12
874.977	53.69
875.277	53.23
875.578	52.74
875.878	51.38
876.179	50.34
876.479	50.58
876.78	52.54
877.08	49.03
877.38	47.97
877.68	47.31
877.981	49.68
878.281	47.69
878.581	50.53
