Data from BA28469_Reflection_00002.txt Node
Date: Mon Nov 18 15:17:43 EST 2019
User: vgr7
Spectrometer: USB2G7710
Scans to average: 3
Trigger mode: 4
Integration Time (sec): 2.000000E-2
Electric dark correction enabled: true
Boxcar width: 10
XAxis mode: Wavelengths
Number of Pixels in Spectrum: 2048
>>>>>Begin Spectral Data<<<<<
177.721	66.75
178.105	-5566.67
178.488	-23.7
178.871	-51.12
179.254	-21.01
179.636	18433.33
180.019	59.1
180.402	184.21
180.785	-27.25
181.168	-58.81
181.55	-191.08
181.933	37
182.316	13.8
182.698	6.45
183.081	58.17
183.463	1.6
183.846	44.26
184.228	41
184.611	53.94
184.993	5877.78
185.376	-372.57
185.758	-105.13
186.14	20.12
186.522	225.79
186.904	183.89
187.287	-47.49
187.669	134.54
188.051	10.51
188.433	19.02
188.815	29.04
189.197	18.03
189.579	30.02
189.961	35.07
190.342	24.46
190.724	35.87
191.106	50.7
191.488	55.34
191.869	46.63
192.251	48.72
192.633	39.63
193.014	47.88
193.396	47.52
193.777	50.77
194.159	46.23
194.54	43.92
194.922	48.72
195.303	53.34
195.684	59.03
196.065	68.93
196.447	79.92
196.828	71.65
197.209	78.06
197.59	91.41
197.971	79.19
198.352	82.08
198.733	98.01
199.114	78.3
199.495	60.23
199.876	80.13
200.257	109.15
200.638	112.12
201.018	89.3
201.399	106.3
201.78	114.04
202.16	146.04
202.541	150.44
202.922	88.63
203.302	92.58
203.683	43.91
204.063	23.03
204.444	7.62
204.824	9.81
205.204	-13.62
205.585	-14.68
205.965	-4.59
206.345	-11.23
206.725	0.15
207.106	-22.18
207.486	-21.71
207.866	-7.06
208.246	-30.97
208.626	-37.86
209.006	-21.65
209.386	-48.68
209.766	-52.89
210.145	-36.45
210.525	-13.46
210.905	-1.19
211.285	11.41
211.664	9.45
212.044	12.04
212.424	11.52
212.803	6.29
213.183	2.89
213.562	-5.85
213.942	-4.12
214.321	-0.43
214.701	-8.31
215.08	3.19
215.459	8.05
215.838	0.26
216.218	-2.37
216.597	6.46
216.976	7.29
217.355	10.67
217.734	14.8
218.113	14.41
218.492	22.99
218.871	27.21
219.25	13.5
219.629	19.01
220.008	17.74
220.387	14.93
220.766	12.11
221.144	18.56
221.523	22.15
221.902	27.19
222.28	21.79
222.659	26.72
223.037	25.54
223.416	15.21
223.794	20.66
224.173	18.8
224.551	20.45
224.929	24.19
225.308	24.2
225.686	18.61
226.064	15.26
226.442	7
226.821	8.79
227.199	12.17
227.577	11.31
227.955	7.9
228.333	11.13
228.711	11.79
229.089	11.7
229.467	10.07
229.845	6.81
230.222	6.99
230.6	7.19
230.978	4.39
231.356	6.69
231.733	5.23
232.111	5.77
232.488	5.98
232.866	5.19
233.243	4.33
233.621	2.48
233.998	4.06
234.376	2.8
234.753	1.53
235.13	0.06
235.508	1.28
235.885	2.63
236.262	1.82
236.639	2.25
237.016	1.39
237.393	2.83
237.77	4.52
238.147	5.3
238.524	4.1
238.901	5.08
239.278	4.76
239.655	5.89
240.032	5.53
240.409	4.87
240.785	4.81
241.162	5.24
241.539	5.42
241.915	5.09
242.292	5.03
242.668	5
243.045	5.28
243.421	4.97
243.798	4.77
244.174	4.38
244.551	4.44
244.927	4.59
245.303	4.69
245.679	4.62
246.056	4.52
246.432	4.73
246.808	4.86
247.184	4.63
247.56	4.25
247.936	4.18
248.312	4.13
248.688	4.04
249.064	3.95
249.44	3.98
249.815	4.09
250.191	4.3
250.567	4.34
250.943	4.21
251.318	4.34
251.694	4.34
252.069	4.5
252.445	4.63
252.82	4.65
253.196	4.79
253.571	4.99
253.947	4.98
254.322	5.05
254.697	4.47
255.073	4.56
255.448	4.37
255.823	4.29
256.198	4.27
256.573	4.22
256.948	4.32
257.323	4.3
257.698	4.34
258.073	4.13
258.448	4.2
258.823	4.23
259.198	4.06
259.573	4.08
259.948	4.04
260.322	4
260.697	3.9
261.072	3.75
261.446	3.69
261.821	3.68
262.195	3.7
262.57	3.83
262.944	3.81
263.319	3.92
263.693	3.84
264.067	4
264.442	4.04
264.816	3.99
265.19	4.11
265.564	3.89
265.938	4
266.313	3.82
266.687	3.78
267.061	4.03
267.435	3.85
267.809	3.95
268.183	3.88
268.556	3.81
268.93	3.82
269.304	3.83
269.678	3.88
270.051	3.69
270.425	3.77
270.799	3.7
271.172	3.49
271.546	3.69
271.919	3.66
272.293	3.79
272.666	3.77
273.04	3.62
273.413	3.73
273.787	3.75
274.16	3.77
274.533	3.77
274.906	3.59
275.279	3.67
275.653	3.71
276.026	3.72
276.399	3.76
276.772	3.84
277.145	3.79
277.518	3.87
277.891	4.09
278.263	4.01
278.636	3.97
279.009	4.24
279.382	4.17
279.755	4.15
280.127	4.08
280.5	4.17
280.872	4.27
281.245	4.34
281.617	4.37
281.99	4.42
282.362	4.47
282.735	4.38
283.107	4.48
283.479	4.41
283.852	4.4
284.224	4.32
284.596	4.29
284.968	4.28
285.34	4.08
285.713	3.98
286.085	4
286.457	4.12
286.829	4.06
287.201	4.1
287.572	3.98
287.944	3.84
288.316	3.7
288.688	3.57
289.06	3.46
289.431	3.46
289.803	3.42
290.175	3.44
290.546	3.54
290.918	3.5
291.289	3.53
291.661	3.58
292.032	3.75
292.403	3.68
292.775	3.74
293.146	3.72
293.517	3.68
293.889	3.66
294.26	3.61
294.631	3.54
295.002	3.48
295.373	3.59
295.744	3.65
296.115	3.73
296.486	3.73
296.857	3.79
297.228	3.74
297.599	3.77
297.97	3.65
298.34	3.66
298.711	3.82
299.082	3.82
299.452	3.77
299.823	3.82
300.194	3.82
300.564	3.73
300.935	3.92
301.305	3.97
301.676	4
302.046	4.16
302.416	4.34
302.787	4.32
303.157	4.3
303.527	4.26
303.897	4.31
304.267	4.37
304.637	4.41
305.008	4.35
305.378	4.34
305.748	4.61
306.117	4.48
306.487	4.18
306.857	4.14
307.227	4.15
307.597	4.06
307.967	4.03
308.336	4.09
308.706	3.87
309.076	3.92
309.445	3.95
309.815	3.93
310.184	3.71
310.554	3.69
310.923	3.66
311.293	3.66
311.662	3.56
312.031	3.67
312.401	3.51
312.77	3.69
313.139	3.63
313.508	3.47
313.877	3.52
314.246	3.55
314.616	3.57
314.985	3.51
315.353	3.44
315.722	3.44
316.091	3.24
316.46	3.25
316.829	3.22
317.198	3.19
317.567	3.04
317.935	3.15
318.304	3.25
318.672	3.19
319.041	3.27
319.41	3.27
319.778	3.08
320.147	3.21
320.515	3.06
320.883	3.07
321.252	3.16
321.62	3.3
321.988	3.32
322.357	3.38
322.725	3.35
323.093	3.5
323.461	3.59
323.829	3.75
324.197	3.81
324.565	3.85
324.933	3.87
325.301	3.92
325.669	4
326.037	3.94
326.405	4.11
326.772	4.12
327.14	4.27
327.508	4.32
327.875	4.26
328.243	4.37
328.61	4.38
328.978	4.37
329.346	4.45
329.713	4.36
330.08	4.35
330.448	4.32
330.815	4.16
331.182	4.27
331.55	4.12
331.917	4.1
332.284	4.12
332.651	4
333.018	4
333.385	3.89
333.752	3.98
334.119	3.87
334.486	3.81
334.853	3.76
335.22	3.7
335.587	3.78
335.954	3.66
336.32	3.58
336.687	3.48
337.054	3.31
337.42	3.43
337.787	3.36
338.153	3.36
338.52	3.43
338.886	3.27
339.253	3.36
339.619	3.36
339.986	3.3
340.352	3.38
340.718	3.34
341.084	3.38
341.451	3.28
341.817	3.36
342.183	3.34
342.549	3.24
342.915	3.37
343.281	3.29
343.647	3.32
344.013	3.51
344.379	3.49
344.745	3.57
345.11	3.52
345.476	3.57
345.842	3.64
346.208	3.62
346.573	3.66
346.939	3.69
347.304	3.74
347.67	3.68
348.035	3.63
348.401	3.62
348.766	3.58
349.132	3.65
349.497	3.53
349.862	3.64
350.228	3.6
350.593	3.52
350.958	3.56
351.323	3.52
351.688	3.46
352.053	3.56
352.418	3.52
352.783	3.51
353.148	3.42
353.513	3.43
353.878	3.4
354.243	3.41
354.608	3.43
354.972	3.35
355.337	3.39
355.702	3.43
356.066	3.49
356.431	3.56
356.795	3.53
357.16	3.58
357.524	3.52
357.889	3.5
358.253	3.58
358.618	3.57
358.982	3.56
359.346	3.53
359.71	3.49
360.075	3.51
360.439	3.51
360.803	3.54
361.167	3.49
361.531	3.48
361.895	3.48
362.259	3.47
362.623	3.54
362.987	3.52
363.351	3.5
363.714	3.5
364.078	3.48
364.442	3.49
364.806	3.53
365.169	3.47
365.533	3.57
365.896	3.51
366.26	3.51
366.623	3.54
366.987	3.53
367.35	3.51
367.714	3.47
368.077	3.43
368.44	3.42
368.803	3.43
369.167	3.39
369.53	3.33
369.893	3.37
370.256	3.35
370.619	3.36
370.982	3.37
371.345	3.33
371.708	3.26
372.071	3.21
372.434	3.11
372.797	3.16
373.159	3.09
373.522	3.13
373.885	3.17
374.247	3.2
374.61	3.21
374.973	3.21
375.335	3.2
375.698	3.29
376.06	3.29
376.423	3.28
376.785	3.35
377.147	3.4
377.51	3.36
377.872	3.36
378.234	3.36
378.596	3.39
378.958	3.36
379.321	3.45
379.683	3.53
380.045	3.57
380.407	3.6
380.769	3.63
381.13	3.59
381.492	3.53
381.854	3.54
382.216	3.52
382.578	3.51
382.939	3.53
383.301	3.51
383.663	3.53
384.024	3.57
384.386	3.56
384.747	3.53
385.109	3.56
385.47	3.53
385.832	3.51
386.193	3.5
386.554	3.53
386.916	3.46
387.277	3.46
387.638	3.45
387.999	3.39
388.36	3.41
388.721	3.42
389.082	3.45
389.443	3.42
389.804	3.4
390.165	3.42
390.526	3.4
390.887	3.42
391.248	3.45
391.609	3.44
391.969	3.43
392.33	3.42
392.691	3.38
393.051	3.4
393.412	3.46
393.772	3.43
394.133	3.45
394.493	3.51
394.854	3.46
395.214	3.47
395.574	3.52
395.935	3.52
396.295	3.54
396.655	3.54
397.015	3.52
397.376	3.57
397.736	3.54
398.096	3.56
398.456	3.55
398.816	3.53
399.176	3.51
399.535	3.49
399.895	3.51
400.255	3.51
400.615	3.52
400.975	3.48
401.334	3.48
401.694	3.46
402.054	3.42
402.413	3.44
402.773	3.45
403.132	3.43
403.492	3.41
403.851	3.4
404.211	3.4
404.57	3.42
404.929	3.42
405.288	3.42
405.648	3.43
406.007	3.43
406.366	3.37
406.725	3.4
407.084	3.45
407.443	3.46
407.802	3.47
408.161	3.44
408.52	3.44
408.879	3.43
409.238	3.45
409.596	3.46
409.955	3.47
410.314	3.48
410.673	3.48
411.031	3.51
411.39	3.55
411.748	3.55
412.107	3.56
412.465	3.57
412.824	3.6
413.182	3.59
413.54	3.58
413.899	3.63
414.257	3.65
414.615	3.6
414.974	3.6
415.332	3.59
415.69	3.6
416.048	3.59
416.406	3.61
416.764	3.6
417.122	3.59
417.48	3.57
417.838	3.56
418.195	3.57
418.553	3.55
418.911	3.52
419.269	3.52
419.626	3.5
419.984	3.48
420.342	3.48
420.699	3.49
421.057	3.47
421.414	3.47
421.772	3.45
422.129	3.45
422.486	3.45
422.844	3.46
423.201	3.47
423.558	3.48
423.915	3.47
424.273	3.47
424.63	3.46
424.987	3.46
425.344	3.45
425.701	3.44
426.058	3.44
426.415	3.44
426.772	3.44
427.128	3.43
427.485	3.44
427.842	3.42
428.199	3.42
428.555	3.44
428.912	3.44
429.269	3.45
429.625	3.46
429.982	3.44
430.338	3.44
430.695	3.44
431.051	3.4
431.407	3.4
431.764	3.39
432.12	3.39
432.476	3.42
432.832	3.41
433.189	3.42
433.545	3.41
433.901	3.41
434.257	3.41
434.613	3.44
434.969	3.43
435.325	3.45
435.681	3.47
436.036	3.47
436.392	3.46
436.748	3.44
437.104	3.44
437.459	3.46
437.815	3.47
438.171	3.49
438.526	3.5
438.882	3.51
439.237	3.52
439.593	3.52
439.948	3.5
440.304	3.5
440.659	3.52
441.014	3.53
441.369	3.53
441.725	3.53
442.08	3.53
442.435	3.53
442.79	3.52
443.145	3.51
443.5	3.51
443.855	3.51
444.21	3.52
444.565	3.53
444.92	3.54
445.275	3.51
445.629	3.5
445.984	3.51
446.339	3.51
446.693	3.51
447.048	3.52
447.403	3.52
447.757	3.52
448.112	3.51
448.466	3.51
448.82	3.52
449.175	3.52
449.529	3.52
449.883	3.52
450.238	3.52
450.592	3.52
450.946	3.52
451.3	3.53
451.654	3.53
452.008	3.52
452.362	3.48
452.716	3.5
453.07	3.5
453.424	3.51
453.778	3.51
454.132	3.5
454.486	3.48
454.839	3.48
455.193	3.48
455.547	3.47
455.9	3.48
456.254	3.47
456.607	3.46
456.961	3.45
457.314	3.46
457.668	3.46
458.021	3.46
458.375	3.46
458.728	3.46
459.081	3.45
459.434	3.46
459.787	3.49
460.141	3.48
460.494	3.48
460.847	3.46
461.2	3.46
461.553	3.47
461.906	3.49
462.259	3.49
462.611	3.5
462.964	3.52
463.317	3.5
463.67	3.49
464.022	3.49
464.375	3.49
464.728	3.5
465.08	3.49
465.433	3.49
465.785	3.49
466.138	3.49
466.49	3.51
466.843	3.51
467.195	3.51
467.547	3.51
467.899	3.53
468.252	3.53
468.604	3.53
468.956	3.5
469.308	3.5
469.66	3.49
470.012	3.5
470.364	3.49
470.716	3.51
471.068	3.55
471.42	3.55
471.772	3.56
472.123	3.56
472.475	3.58
472.827	3.58
473.178	3.58
473.53	3.57
473.882	3.55
474.233	3.56
474.585	3.53
474.936	3.52
475.288	3.51
475.639	3.52
475.99	3.51
476.342	3.54
476.693	3.54
477.044	3.56
477.395	3.56
477.746	3.56
478.097	3.54
478.448	3.54
478.8	3.54
479.15	3.53
479.501	3.55
479.852	3.56
480.203	3.56
480.554	3.58
480.905	3.58
481.255	3.58
481.606	3.59
481.957	3.6
482.307	3.61
482.658	3.61
483.009	3.62
483.359	3.63
483.709	3.63
484.06	3.64
484.41	3.65
484.761	3.65
485.111	3.65
485.461	3.67
485.811	3.66
486.162	3.67
486.512	3.68
486.862	3.67
487.212	3.67
487.562	3.67
487.912	3.67
488.262	3.67
488.612	3.69
488.961	3.69
489.311	3.69
489.661	3.69
490.011	3.69
490.36	3.69
490.71	3.69
491.06	3.68
491.409	3.68
491.759	3.66
492.108	3.66
492.458	3.66
492.807	3.65
493.157	3.65
493.506	3.65
493.855	3.63
494.204	3.64
494.554	3.63
494.903	3.63
495.252	3.62
495.601	3.62
495.95	3.6
496.299	3.59
496.648	3.59
496.997	3.6
497.346	3.61
497.695	3.62
498.043	3.64
498.392	3.63
498.741	3.63
499.09	3.63
499.438	3.64
499.787	3.65
500.135	3.67
500.484	3.68
500.832	3.68
501.181	3.7
501.529	3.7
501.878	3.71
502.226	3.7
502.574	3.72
502.923	3.72
503.271	3.71
503.619	3.72
503.967	3.72
504.315	3.71
504.663	3.68
505.011	3.67
505.359	3.66
505.707	3.68
506.055	3.7
506.403	3.7
506.751	3.68
507.098	3.69
507.446	3.69
507.794	3.68
508.141	3.69
508.489	3.69
508.837	3.7
509.184	3.71
509.531	3.73
509.879	3.75
510.226	3.78
510.574	3.79
510.921	3.8
511.268	3.81
511.616	3.82
511.963	3.83
512.31	3.85
512.657	3.85
513.004	3.85
513.351	3.85
513.698	3.87
514.045	3.85
514.392	3.85
514.739	3.85
515.086	3.86
515.432	3.87
515.779	3.85
516.126	3.83
516.473	3.84
516.819	3.85
517.166	3.85
517.512	3.83
517.859	3.83
518.205	3.82
518.552	3.83
518.898	3.82
519.245	3.82
519.591	3.81
519.937	3.81
520.283	3.82
520.629	3.83
520.976	3.81
521.322	3.82
521.668	3.81
522.014	3.82
522.36	3.83
522.706	3.84
523.052	3.87
523.398	3.89
523.743	3.9
524.089	3.88
524.435	3.87
524.781	3.88
525.126	3.9
525.472	3.91
525.817	3.91
526.163	3.92
526.509	3.92
526.854	3.94
527.199	3.93
527.545	3.93
527.89	3.93
528.235	3.93
528.581	3.95
528.926	3.96
529.271	3.97
529.616	3.96
529.961	3.96
530.306	3.96
530.651	3.95
530.996	3.95
531.341	3.96
531.686	3.97
532.031	3.98
532.376	3.97
532.721	3.97
533.065	3.98
533.41	3.98
533.755	3.99
534.099	3.98
534.444	3.99
534.788	3.99
535.133	4
535.477	4.01
535.822	3.99
536.166	3.99
536.51	4
536.855	4
537.199	4.01
537.543	4.01
537.887	4.01
538.231	4.01
538.576	4.01
538.92	4.02
539.264	4.01
539.608	4.01
539.951	4
540.295	4.01
540.639	4.01
540.983	4.01
541.327	4.01
541.671	4.01
542.014	4.02
542.358	4.03
542.701	4.04
543.045	4.05
543.389	4.06
543.732	4.05
544.075	4.07
544.419	4.07
544.762	4.06
545.105	4.07
545.449	4.08
545.792	4.08
546.135	4.09
546.478	4.1
546.821	4.1
547.165	4.1
547.508	4.11
547.851	4.13
548.194	4.11
548.536	4.11
548.879	4.13
549.222	4.14
549.565	4.13
549.908	4.12
550.25	4.12
550.593	4.13
550.936	4.1
551.278	4.09
551.621	4.1
551.963	4.12
552.306	4.13
552.648	4.15
552.991	4.16
553.333	4.12
553.675	4.12
554.017	4.13
554.36	4.14
554.702	4.14
555.044	4.12
555.386	4.13
555.728	4.13
556.07	4.12
556.412	4.11
556.754	4.11
557.096	4.11
557.438	4.13
557.78	4.14
558.121	4.17
558.463	4.18
558.805	4.19
559.147	4.19
559.488	4.19
559.83	4.17
560.171	4.15
560.513	4.19
560.854	4.19
561.196	4.22
561.537	4.24
561.878	4.23
562.22	4.24
562.561	4.24
562.902	4.26
563.243	4.25
563.584	4.25
563.925	4.25
564.266	4.25
564.607	4.21
564.948	4.23
565.289	4.22
565.63	4.23
565.971	4.23
566.312	4.24
566.653	4.25
566.993	4.25
567.334	4.24
567.675	4.25
568.015	4.26
568.356	4.25
568.696	4.25
569.037	4.26
569.377	4.27
569.718	4.27
570.058	4.28
570.398	4.31
570.739	4.3
571.079	4.3
571.419	4.3
571.759	4.33
572.099	4.3
572.439	4.3
572.779	4.27
573.119	4.26
573.459	4.26
573.799	4.28
574.139	4.29
574.479	4.32
574.819	4.28
575.158	4.28
575.498	4.28
575.838	4.26
576.177	4.25
576.517	4.25
576.856	4.27
577.196	4.25
577.535	4.25
577.875	4.25
578.214	4.24
578.553	4.25
578.893	4.23
579.232	4.25
579.571	4.25
579.91	4.28
580.25	4.28
580.589	4.26
580.928	4.23
581.267	4.23
581.606	4.21
581.945	4.25
582.283	4.23
582.622	4.23
582.961	4.25
583.3	4.28
583.639	4.3
583.977	4.3
584.316	4.29
584.654	4.28
584.993	4.27
585.332	4.29
585.67	4.29
586.008	4.29
586.347	4.3
586.685	4.28
587.024	4.25
587.362	4.24
587.7	4.25
588.038	4.24
588.376	4.21
588.715	4.24
589.053	4.24
589.391	4.29
589.729	4.28
590.067	4.24
590.404	4.25
590.742	4.26
591.08	4.2
591.418	4.23
591.756	4.23
592.093	4.26
592.431	4.23
592.769	4.24
593.106	4.25
593.444	4.24
593.781	4.27
594.119	4.3
594.456	4.3
594.793	4.3
595.131	4.31
595.468	4.32
595.805	4.31
596.143	4.28
596.48	4.26
596.817	4.24
597.154	4.29
597.491	4.27
597.828	4.25
598.165	4.27
598.502	4.28
598.839	4.25
599.176	4.24
599.512	4.27
599.849	4.26
600.186	4.25
600.523	4.3
600.859	4.32
601.196	4.3
601.532	4.3
601.869	4.3
602.205	4.28
602.542	4.31
602.878	4.32
603.215	4.38
603.551	4.39
603.887	4.39
604.223	4.39
604.56	4.42
604.896	4.45
605.232	4.47
605.568	4.47
605.904	4.49
606.24	4.51
606.576	4.5
606.912	4.5
607.248	4.49
607.583	4.47
607.919	4.47
608.255	4.44
608.591	4.48
608.926	4.51
609.262	4.54
609.597	4.54
609.933	4.55
610.268	4.54
610.604	4.55
610.939	4.58
611.275	4.58
611.61	4.54
611.945	4.56
612.281	4.59
612.616	4.61
612.951	4.62
613.286	4.63
613.621	4.64
613.956	4.63
614.291	4.69
614.626	4.67
614.961	4.65
615.296	4.67
615.631	4.63
615.966	4.62
616.3	4.64
616.635	4.64
616.97	4.64
617.304	4.63
617.639	4.66
617.973	4.63
618.308	4.63
618.642	4.66
618.977	4.62
619.311	4.54
619.646	4.54
619.98	4.51
620.314	4.48
620.648	4.5
620.983	4.52
621.317	4.47
621.651	4.48
621.985	4.53
622.319	4.5
622.653	4.52
622.987	4.54
623.321	4.53
623.655	4.51
623.988	4.51
624.322	4.47
624.656	4.44
624.99	4.48
625.323	4.47
625.657	4.46
625.99	4.53
626.324	4.57
626.657	4.58
626.991	4.63
627.324	4.62
627.658	4.63
627.991	4.65
628.324	4.64
628.657	4.66
628.991	4.61
629.324	4.67
629.657	4.73
629.99	4.74
630.323	4.72
630.656	4.76
630.989	4.77
631.322	4.79
631.655	4.83
631.987	4.82
632.32	4.89
632.653	4.92
632.986	4.88
633.318	4.87
633.651	4.91
633.984	4.9
634.316	4.96
634.649	4.95
634.981	4.95
635.313	4.95
635.646	4.93
635.978	4.97
636.31	4.98
636.643	4.95
636.975	4.93
637.307	4.98
637.639	4.96
637.971	5
638.303	5
638.635	4.94
638.967	4.96
639.299	4.96
639.631	4.9
639.963	4.83
640.295	4.82
640.626	4.76
640.958	4.82
641.29	4.78
641.621	4.77
641.953	4.77
642.285	4.77
642.616	4.8
642.948	4.75
643.279	4.74
643.61	4.67
643.942	4.65
644.273	4.64
644.604	4.66
644.936	4.59
645.267	4.58
645.598	4.51
645.929	4.57
646.26	4.57
646.591	4.61
646.922	4.64
647.253	4.68
647.584	4.64
647.915	4.59
648.245	4.56
648.576	4.57
648.907	4.6
649.238	4.56
649.568	4.52
649.899	4.61
650.229	4.58
650.56	4.69
650.89	4.73
651.221	4.73
651.551	4.73
651.882	4.72
652.212	4.82
652.542	4.97
652.872	4.86
653.203	4.79
653.533	4.79
653.863	4.84
654.193	4.85
654.523	4.9
654.853	4.9
655.183	4.93
655.513	4.94
655.843	4.92
656.172	5.02
656.502	5.09
656.832	5.08
657.162	5.16
657.491	5.1
657.821	5.04
658.15	5.02
658.48	5.02
658.809	5.08
659.139	5.03
659.468	4.97
659.798	5.04
660.127	5.13
660.456	5.17
660.785	5.22
661.115	5.27
661.444	5.33
661.773	5.34
662.102	5.38
662.431	5.41
662.76	5.44
663.089	5.37
663.418	5.35
663.747	5.32
664.076	5.29
664.404	5.31
664.733	5.38
665.062	5.47
665.39	5.49
665.719	5.47
666.048	5.47
666.376	5.48
666.705	5.4
667.033	5.33
667.362	5.35
667.69	5.3
668.018	5.23
668.347	5.13
668.675	5.15
669.003	5.17
669.331	5.16
669.659	5.1
669.987	5.16
670.315	5.13
670.643	5.16
670.971	5.19
671.299	5.22
671.627	5.14
671.955	5.08
672.283	5.1
672.61	5.09
672.938	5.17
673.266	5.2
673.593	5.28
673.921	5.25
674.249	5.22
674.576	5.28
674.904	5.3
675.231	5.27
675.558	5.22
675.886	5.26
676.213	5.2
676.54	5.3
676.867	5.27
677.195	5.26
677.522	5.23
677.849	5.23
678.176	5.15
678.503	5.22
678.83	5.18
679.157	5.11
679.484	5.08
679.81	5.01
680.137	4.94
680.464	4.87
680.791	4.9
681.117	4.93
681.444	4.86
681.771	4.85
682.097	4.88
682.424	5.01
682.75	4.95
683.077	4.99
683.403	5.03
683.729	5.05
684.056	5.09
684.382	5.13
684.708	5.17
685.034	5.3
685.36	5.28
685.686	5.31
686.012	5.29
686.339	5.41
686.664	5.45
686.99	5.5
687.316	5.52
687.642	5.61
687.968	5.56
688.294	5.53
688.619	5.64
688.945	5.63
689.271	5.56
689.596	5.51
689.922	5.56
690.247	5.45
690.573	5.47
690.898	5.44
691.224	5.46
691.549	5.47
691.874	5.37
692.2	5.41
692.525	5.38
692.85	5.5
693.175	5.56
693.5	5.46
693.825	5.49
694.15	5.56
694.475	5.54
694.8	5.54
695.125	5.58
695.45	5.39
695.775	5.56
696.099	5.57
696.424	5.6
696.749	5.5
697.073	5.61
697.398	5.64
697.723	5.77
698.047	5.71
698.372	5.62
698.696	5.67
699.02	5.67
699.345	5.69
699.669	5.7
699.993	5.57
700.318	5.6
700.642	5.66
700.966	5.62
701.29	5.64
701.614	5.64
701.938	5.71
702.262	5.96
702.586	5.9
702.91	5.82
703.234	5.85
703.557	6
703.881	5.86
704.205	5.88
704.529	5.75
704.852	5.82
705.176	5.82
705.499	5.8
705.823	5.79
706.146	5.86
706.47	5.85
706.793	5.86
707.117	5.9
707.44	5.79
707.763	5.84
708.086	5.69
708.409	5.77
708.733	5.72
709.056	5.59
709.379	5.69
709.702	5.7
710.025	5.66
710.348	5.54
710.671	5.54
710.993	5.59
711.316	5.61
711.639	5.63
711.962	5.82
712.284	5.83
712.607	5.88
712.93	5.91
713.252	5.86
713.575	5.84
713.897	5.98
714.22	5.97
714.542	6.07
714.864	6.15
715.187	6.13
715.509	6.1
715.831	6.02
716.153	5.86
716.475	5.88
716.798	6.04
717.12	6.08
717.442	6.11
717.764	6.07
718.085	5.98
718.407	5.99
718.729	5.94
719.051	6.01
719.373	5.88
719.695	5.88
720.016	6.05
720.338	6.18
720.659	6.14
720.981	6.23
721.302	6.17
721.624	6.04
721.945	5.95
722.267	5.98
722.588	6.13
722.909	6.2
723.231	6.17
723.552	6.13
723.873	6.29
724.194	6.17
724.515	6.17
724.836	6.25
725.157	6.3
725.478	6.06
725.799	5.99
726.12	6.05
726.441	6.03
726.762	5.95
727.083	5.86
727.403	5.7
727.724	5.72
728.045	5.62
728.365	5.76
728.686	5.8
729.006	5.72
729.327	5.64
729.647	5.69
729.967	5.82
730.288	5.94
730.608	5.82
730.928	6.03
731.249	5.85
731.569	5.98
731.889	5.96
732.209	6.13
732.529	6.13
732.849	6.23
733.169	6.17
733.489	6.25
733.809	6.39
734.129	6.5
734.448	6.64
734.768	6.63
735.088	6.69
735.408	6.81
735.727	6.96
736.047	7.13
736.366	7.08
736.686	6.99
737.005	6.87
737.325	6.8
737.644	6.63
737.963	6.92
738.283	6.77
738.602	6.75
738.921	6.89
739.24	6.97
739.56	6.88
739.879	6.95
740.198	6.83
740.517	6.81
740.836	6.81
741.155	6.68
741.473	6.87
741.792	6.79
742.111	6.71
742.43	6.68
742.748	6.42
743.067	6.46
743.386	6.45
743.704	6.5
744.023	6.85
744.341	6.91
744.66	6.98
744.978	7.09
745.297	7.08
745.615	7.02
745.933	6.95
746.252	7.06
746.57	7.11
746.888	7.2
747.206	6.92
747.524	6.87
747.842	7.01
748.16	7.12
748.478	7.27
748.796	7.41
749.114	7.59
749.432	7.76
749.749	7.68
750.067	7.81
750.385	7.78
750.703	7.68
751.02	7.66
751.338	7.55
751.655	7.57
751.973	7.73
752.29	7.71
752.608	7.59
752.925	7.75
753.242	7.62
753.56	7.47
753.877	7.78
754.194	7.75
754.511	7.66
754.828	7.39
755.145	7.26
755.462	7.02
755.779	6.85
756.096	6.89
756.413	7.12
756.73	7.05
757.047	6.96
757.364	6.8
757.68	6.81
757.997	6.8
758.314	6.82
758.63	6.71
758.947	6.65
759.264	6.87
759.58	6.6
759.896	6.8
760.213	6.88
760.529	6.72
760.846	6.8
761.162	6.68
761.478	6.69
761.794	6.44
762.11	6.42
762.426	6.35
762.743	6.51
763.059	6.45
763.375	6.62
763.69	6.69
764.006	6.92
764.322	7.13
764.638	7.18
764.954	7.22
765.27	7.12
765.585	7
765.901	6.81
766.216	6.98
766.532	6.7
766.848	6.83
767.163	7.08
767.478	7.08
767.794	7.24
768.109	7.24
768.424	7.67
768.74	7.89
769.055	8.14
769.37	8
769.685	8.06
770	8.18
770.315	8.18
770.63	7.78
770.945	7.67
771.26	7.79
771.575	7.76
771.89	7.92
772.205	8.06
772.52	8.17
772.834	7.9
773.149	8.4
773.464	8.29
773.778	8.3
774.093	7.69
774.407	7.73
774.722	7.83
775.036	7.73
775.351	7.63
775.665	7.63
775.979	7.6
776.293	7.35
776.608	6.99
776.922	7.22
777.236	7.59
777.55	7.38
777.864	7.04
778.178	7.19
778.492	7
778.806	6.95
779.12	7.41
779.434	7.71
779.747	7.41
780.061	7.5
780.375	7.26
780.689	8.08
781.002	7.83
781.316	7.89
781.629	8.1
781.943	8.62
782.256	8.71
782.57	8.82
782.883	8.71
783.196	8.5
783.51	8.06
783.823	8.12
784.136	8.6
784.449	9.05
784.762	8.77
785.075	9.46
785.388	9.8
785.701	9.59
786.014	9.72
786.327	9.7
786.64	9.77
786.953	10.14
787.266	9.57
787.578	10.06
787.891	10.41
788.204	10
788.516	9.89
788.829	9.81
789.141	9.99
789.454	10.45
789.766	10.73
790.079	10.99
790.391	10.56
790.703	10.44
791.016	10.04
791.328	10.19
791.64	9.73
791.952	9.61
792.264	9.36
792.576	9.13
792.888	9.26
793.2	9.14
793.512	8.83
793.824	9.24
794.136	9.02
794.448	8.36
794.76	8.74
795.071	8.88
795.383	8.54
795.695	7.98
796.006	7.96
796.318	7.77
796.629	7.7
796.941	8.14
797.252	8.47
797.564	8.96
797.875	9.22
798.186	9.34
798.497	9.42
798.809	9.61
799.12	9.71
799.431	9.65
799.742	9.88
800.053	9.99
800.364	10.14
800.675	9.81
800.986	10.13
801.297	9.74
801.608	9.35
801.918	9.64
802.229	9.6
802.54	9.4
802.851	10.03
803.161	9.95
803.472	10.18
803.782	9.99
804.093	9.45
804.403	9.05
804.714	8.67
805.024	8.35
805.334	8.87
805.645	8.8
805.955	9.16
806.265	8.81
806.575	8.24
806.885	8.03
807.195	8.87
807.505	8.9
807.815	9.2
808.125	9.07
808.435	9.31
808.745	9.68
809.055	10.09
809.365	9.79
809.674	9.86
809.984	9.81
810.294	9.47
810.603	10.06
810.913	10.69
811.222	11.27
811.532	11.68
811.841	11.35
812.151	11.83
812.46	11.35
812.769	11.58
813.079	11.97
813.388	12.6
813.697	12.35
814.006	11.85
814.315	12.38
814.624	12.15
814.933	12.3
815.242	12.28
815.551	12.73
815.86	12.99
816.169	12.8
816.478	12.43
816.786	13.02
817.095	12.61
817.404	13.25
817.712	13.01
818.021	12.68
818.33	12.28
818.638	11.71
818.947	11.79
819.255	11.62
819.563	11.61
819.872	11.36
820.18	11.2
820.488	11.32
820.796	11.33
821.105	11.41
821.413	11.24
821.721	11.14
822.029	10.8
822.337	10.63
822.645	10.6
822.953	10.63
823.26	10.44
823.568	10.56
823.876	10.27
824.184	10.31
824.491	10.33
824.799	10.45
825.107	10.5
825.414	10.48
825.722	10.56
826.029	10.62
826.337	10.64
826.644	10.58
826.951	10.71
827.259	10.34
827.566	10.4
827.873	10.13
828.18	10.21
828.488	10.28
828.795	10.31
829.102	10.45
829.409	10.62
829.716	10.79
830.023	10.96
830.329	11.04
830.636	11.16
830.943	11.31
831.25	11.02
831.557	10.84
831.863	11.02
832.17	10.72
832.476	10.55
832.783	10.78
833.089	10.83
833.396	10.29
833.702	10.78
834.009	10.83
834.315	11.25
834.621	11.19
834.928	10.76
835.234	11.07
835.54	10.95
835.846	10.64
836.152	10.58
836.458	10.39
836.764	10.44
837.07	10.1
837.376	9.4
837.682	9.48
837.988	9.6
838.293	9.27
838.599	9.34
838.905	9.4
839.211	8.75
839.516	9.16
839.822	9.57
840.127	9.86
840.433	9.62
840.738	9.98
841.044	10.39
841.349	11.47
841.654	12.25
841.959	13
842.265	13.34
842.57	13.65
842.875	13.92
843.18	14.27
843.485	14.66
843.79	15.98
844.095	15.99
844.4	17.47
844.705	17.84
845.01	19.07
845.315	18.63
845.619	19.43
845.924	18.76
846.229	19.73
846.533	19.8
846.838	19.45
847.142	19.63
847.447	18.12
847.751	18.12
848.056	16.4
848.36	15.52
848.664	15.5
848.969	14.16
849.273	11.9
849.577	11.92
849.881	12.42
850.185	12.51
850.489	13
850.794	11.88
851.097	12.94
851.401	12.66
851.705	12.94
852.009	13.15
852.313	12.15
852.617	12.66
852.92	12.51
853.224	12.87
853.528	12.81
853.831	16.01
854.135	16
854.438	14.69
854.742	16.23
855.045	16.42
855.349	16.77
855.652	17.57
855.955	19.25
856.259	19.13
856.562	19.62
856.865	20.06
857.168	19.01
857.471	17.31
857.774	16.72
858.077	18.06
858.38	18.22
858.683	19.94
858.986	19.83
859.289	19.6
859.592	19.44
859.894	19.41
860.197	17.56
860.5	18.34
860.802	20.7
861.105	20.56
861.407	20.52
861.71	21.36
862.012	22.23
862.315	19.36
862.617	18.02
862.919	16.98
863.222	15.09
863.524	16.59
863.826	18.23
864.128	18.5
864.43	17.2
864.732	18.29
865.034	15.84
865.336	14.97
865.638	15.27
865.94	14.3
866.242	15.27
866.544	15.22
866.846	15.02
867.147	13.95
867.449	13.66
867.751	14.06
868.052	15.39
868.354	11.67
868.655	12.12
868.957	14.65
869.258	16.02
869.56	18.81
869.861	17.38
870.162	18.25
870.463	20.96
870.765	21.4
871.066	18.44
871.367	20.2
871.668	17.92
871.969	16.95
872.27	16.28
872.571	15.43
872.872	15.18
873.173	13.8
873.473	12.59
873.774	12.62
874.075	10.93
874.376	9.11
874.676	13.06
874.977	12.02
875.277	11.69
875.578	12.07
875.878	11.05
876.179	11.25
876.479	9.57
876.78	5.98
877.08	5.47
877.38	5.79
877.68	5.86
877.981	8.4
878.281	9.08
878.581	12.71
