Data from BA28299_Reflection_00004.txt Node
Date: Mon Nov 18 15:42:13 EST 2019
User: vgr7
Spectrometer: USB2G7710
Scans to average: 3
Trigger mode: 4
Integration Time (sec): 2.000000E-2
Electric dark correction enabled: true
Boxcar width: 10
XAxis mode: Wavelengths
Number of Pixels in Spectrum: 2048
>>>>>Begin Spectral Data<<<<<
177.721	211.6
178.105	318.39
178.488	-744.75
178.871	456.06
179.254	-41.55
179.636	131.35
180.019	-95.28
180.402	48.08
180.785	106.8
181.168	370.83
181.55	57.26
181.933	85.79
182.316	67.47
182.698	54.93
183.081	18.65
183.463	-63.03
183.846	-73.27
184.228	-508.47
184.611	-7966.67
184.993	315.69
185.376	237.88
185.758	494.34
186.14	239
186.522	233.06
186.904	152.78
187.287	168.92
187.669	79.99
188.051	36.24
188.433	47.77
188.815	64.56
189.197	72.37
189.579	48.07
189.961	42.71
190.342	25.69
190.724	29.47
191.106	29.48
191.488	18.16
191.869	7.65
192.251	17.37
192.633	16.85
193.014	9.26
193.396	-10.54
193.777	-17.25
194.159	-23.81
194.54	-10.37
194.922	-13.91
195.303	2.98
195.684	0.62
196.065	12.31
196.447	4.89
196.828	-8.37
197.209	-7.55
197.59	-10.48
197.971	-20.72
198.352	-19.19
198.733	-22.22
199.114	-22.25
199.495	-19.45
199.876	-16.53
200.257	-14.07
200.638	-14.94
201.018	-18.64
201.399	-6.79
201.78	-0.91
202.16	-2.29
202.541	-5.77
202.922	-16.73
203.302	-23.66
203.683	-26.61
204.063	-43.93
204.444	-39.76
204.824	-30.3
205.204	-20.17
205.585	-17.74
205.965	-11.51
206.345	-20.22
206.725	-17.66
207.106	-31.49
207.486	-44.23
207.866	-26
208.246	-44.71
208.626	-45.22
209.006	-31.41
209.386	-48.04
209.766	-55.59
210.145	-48.68
210.525	-41.04
210.905	-39.63
211.285	-24.49
211.664	-12.95
212.044	-2.08
212.424	-2.3
212.803	-10.94
213.183	-17.91
213.562	-0.34
213.942	5.09
214.321	21.01
214.701	22.5
215.08	7.6
215.459	-0.59
215.838	6.52
216.218	13.33
216.597	23.16
216.976	28.13
217.355	27.38
217.734	32.96
218.113	41.86
218.492	52.87
218.871	50.59
219.25	35.71
219.629	22.63
220.008	13.09
220.387	10.98
220.766	20.16
221.144	1.41
221.523	-14.86
221.902	-15.8
222.28	-16.83
222.659	-15.47
223.037	3.39
223.416	7.14
223.794	2.12
224.173	1.86
224.551	3.81
224.929	1.83
225.308	1.02
225.686	3.7
226.064	-1.63
226.442	-4.89
226.821	-0.27
227.199	1.66
227.577	3.61
227.955	5.04
228.333	7.07
228.711	6.18
229.089	9.36
229.467	7.41
229.845	6.44
230.222	6.47
230.6	5.56
230.978	3.14
231.356	4.52
231.733	4.68
232.111	4.06
232.488	3.56
232.866	5.71
233.243	5.95
233.621	4.58
233.998	5.05
234.376	5.47
234.753	5.68
235.13	5.1
235.508	5.01
235.885	5.08
236.262	4.41
236.639	4.12
237.016	4.27
237.393	6.35
237.77	6.42
238.147	6.13
238.524	6.27
238.901	7.13
239.278	6.39
239.655	6.09
240.032	6.72
240.409	6.49
240.785	5.4
241.162	5.21
241.539	5.55
241.915	6.28
242.292	5.62
242.668	5.26
243.045	5.26
243.421	5.27
243.798	5.1
244.174	4.9
244.551	4.82
244.927	4.58
245.303	4.55
245.679	4.52
246.056	4.44
246.432	4.41
246.808	4.27
247.184	4.2
247.56	4.25
247.936	4.13
248.312	4.03
248.688	4.19
249.064	4.18
249.44	4.11
249.815	3.88
250.191	4.04
250.567	3.99
250.943	3.71
251.318	3.64
251.694	3.66
252.069	3.78
252.445	3.97
252.82	4.16
253.196	3.94
253.571	4.33
253.947	4.35
254.322	4.35
254.697	4.43
255.073	4.3
255.448	4.12
255.823	4.36
256.198	4.37
256.573	4.35
256.948	4.45
257.323	4.57
257.698	4.79
258.073	4.88
258.448	4.71
258.823	4.86
259.198	4.58
259.573	4.54
259.948	4.45
260.322	4.3
260.697	4.22
261.072	4.08
261.446	3.93
261.821	3.86
262.195	3.89
262.57	3.81
262.944	3.7
263.319	3.84
263.693	3.71
264.067	3.9
264.442	3.88
264.816	3.76
265.19	3.63
265.564	3.48
265.938	3.37
266.313	3.46
266.687	3.47
267.061	3.87
267.435	3.84
267.809	4.01
268.183	4.07
268.556	4.04
268.93	4.22
269.304	4.22
269.678	4.46
270.051	4.36
270.425	4.34
270.799	4.57
271.172	4.47
271.546	4.58
271.919	4.43
272.293	4.35
272.666	4.66
273.04	4.77
273.413	4.71
273.787	4.72
274.16	4.59
274.533	4.54
274.906	4.38
275.279	4.36
275.653	4.41
276.026	4.36
276.399	4.4
276.772	4.4
277.145	4.41
277.518	4.29
277.891	4.5
278.263	4.5
278.636	4.41
279.009	4.45
279.382	4.44
279.755	4.54
280.127	4.78
280.5	4.68
280.872	4.52
281.245	4.51
281.617	4.64
281.99	5.02
282.362	4.93
282.735	4.87
283.107	4.89
283.479	4.76
283.852	4.82
284.224	4.79
284.596	4.86
284.968	4.78
285.34	4.8
285.713	4.68
286.085	4.8
286.457	4.92
286.829	4.91
287.201	4.87
287.572	4.78
287.944	4.75
288.316	4.74
288.688	4.78
289.06	4.87
289.431	4.74
289.803	4.57
290.175	4.73
290.546	4.95
290.918	4.88
291.289	4.91
291.661	5
292.032	5.03
292.403	5.05
292.775	5.23
293.146	5.22
293.517	5.29
293.889	5.27
294.26	5.11
294.631	5.13
295.002	5.12
295.373	5.22
295.744	5.16
296.115	5.12
296.486	5.09
296.857	5.04
297.228	5.19
297.599	5.19
297.97	5.1
298.34	4.93
298.711	5.02
299.082	5.02
299.452	4.98
299.823	5.1
300.194	5.04
300.564	5
300.935	5.02
301.305	4.96
301.676	5.08
302.046	5.23
302.416	5.26
302.787	5.28
303.157	5.3
303.527	5.34
303.897	5.32
304.267	5.38
304.637	5.28
305.008	5.11
305.378	5.18
305.748	5.25
306.117	5.33
306.487	5.39
306.857	5.39
307.227	5.41
307.597	5.29
307.967	5.31
308.336	5.43
308.706	5.34
309.076	5.43
309.445	5.3
309.815	5.33
310.184	5.36
310.554	5.28
310.923	5.16
311.293	4.98
311.662	4.99
312.031	4.94
312.401	4.91
312.77	4.99
313.139	4.98
313.508	5.04
313.877	4.89
314.246	4.78
314.616	4.72
314.985	4.69
315.353	4.65
315.722	4.61
316.091	4.43
316.46	4.43
316.829	4.31
317.198	4.26
317.567	4.11
317.935	4.01
318.304	4.18
318.672	4.2
319.041	4.44
319.41	4.43
319.778	4.5
320.147	4.71
320.515	4.69
320.883	4.73
321.252	4.71
321.62	4.9
321.988	4.96
322.357	5.05
322.725	5.07
323.093	5.18
323.461	5.2
323.829	5.19
324.197	5.3
324.565	5.38
324.933	5.43
325.301	5.54
325.669	5.52
326.037	5.43
326.405	5.43
326.772	5.51
327.14	5.54
327.508	5.52
327.875	5.38
328.243	5.32
328.61	5.29
328.978	5.31
329.346	5.41
329.713	5.43
330.08	5.43
330.448	5.36
330.815	5.2
331.182	5.26
331.55	5.23
331.917	5.25
332.284	5.25
332.651	5.25
333.018	5.13
333.385	5.11
333.752	5.02
334.119	5.02
334.486	4.85
334.853	4.91
335.22	4.95
335.587	5.04
335.954	5.05
336.32	5.01
336.687	4.85
337.054	4.71
337.42	4.68
337.787	4.61
338.153	4.61
338.52	4.72
338.886	4.64
339.253	4.51
339.619	4.48
339.986	4.49
340.352	4.53
340.718	4.51
341.084	4.6
341.451	4.79
341.817	4.8
342.183	4.84
342.549	4.85
342.915	4.9
343.281	4.88
343.647	4.99
344.013	4.99
344.379	5.02
344.745	5.07
345.11	5.01
345.476	5.06
345.842	5.14
346.208	5.05
346.573	5.09
346.939	5.31
347.304	5.34
347.67	5.3
348.035	5.25
348.401	5.36
348.766	5.37
349.132	5.28
349.497	5.24
349.862	5.26
350.228	5.22
350.593	5.17
350.958	5.18
351.323	5.11
351.688	5.06
352.053	5.16
352.418	5.2
352.783	5.29
353.148	5.27
353.513	5.22
353.878	5.32
354.243	5.37
354.608	5.31
354.972	5.25
355.337	5.35
355.702	5.38
356.066	5.37
356.431	5.28
356.795	5.32
357.16	5.32
357.524	5.26
357.889	5.25
358.253	5.25
358.618	5.24
358.982	5.19
359.346	5.23
359.71	5.23
360.075	5.21
360.439	5.22
360.803	5.24
361.167	5.21
361.531	5.14
361.895	5.07
362.259	5.02
362.623	5.02
362.987	4.9
363.351	4.86
363.714	4.88
364.078	4.88
364.442	4.81
364.806	4.82
365.169	4.87
365.533	4.86
365.896	4.85
366.26	4.86
366.623	4.93
366.987	4.95
367.35	4.94
367.714	4.95
368.077	4.96
368.44	4.97
368.803	4.99
369.167	5.03
369.53	5.05
369.893	5.15
370.256	5.22
370.619	5.27
370.982	5.27
371.345	5.25
371.708	5.31
372.071	5.34
372.434	5.35
372.797	5.3
373.159	5.24
373.522	5.28
373.885	5.35
374.247	5.35
374.61	5.35
374.973	5.28
375.335	5.31
375.698	5.3
376.06	5.29
376.423	5.31
376.785	5.27
377.147	5.31
377.51	5.3
377.872	5.28
378.234	5.22
378.596	5.23
378.958	5.19
379.321	5.2
379.683	5.22
380.045	5.23
380.407	5.23
380.769	5.28
381.13	5.29
381.492	5.24
381.854	5.21
382.216	5.21
382.578	5.25
382.939	5.21
383.301	5.18
383.663	5.14
384.024	5.14
384.386	5.22
384.747	5.21
385.109	5.17
385.47	5.18
385.832	5.25
386.193	5.25
386.554	5.24
386.916	5.22
387.277	5.21
387.638	5.22
387.999	5.22
388.36	5.25
388.721	5.23
389.082	5.21
389.443	5.23
389.804	5.23
390.165	5.22
390.526	5.22
390.887	5.2
391.248	5.27
391.609	5.26
391.969	5.23
392.33	5.22
392.691	5.25
393.051	5.22
393.412	5.22
393.772	5.24
394.133	5.26
394.493	5.21
394.854	5.2
395.214	5.15
395.574	5.14
395.935	5.11
396.295	5.13
396.655	5.12
397.015	5.11
397.376	5.1
397.736	5.09
398.096	5.08
398.456	5.09
398.816	5.06
399.176	5.08
399.535	5.06
399.895	5.07
400.255	5.06
400.615	5.11
400.975	5.13
401.334	5.13
401.694	5.12
402.054	5.16
402.413	5.2
402.773	5.2
403.132	5.23
403.492	5.22
403.851	5.19
404.211	5.21
404.57	5.21
404.929	5.21
405.288	5.21
405.648	5.21
406.007	5.22
406.366	5.2
406.725	5.21
407.084	5.22
407.443	5.23
407.802	5.24
408.161	5.2
408.52	5.14
408.879	5.14
409.238	5.18
409.596	5.18
409.955	5.17
410.314	5.2
410.673	5.16
411.031	5.17
411.39	5.2
411.748	5.19
412.107	5.2
412.465	5.21
412.824	5.21
413.182	5.23
413.54	5.25
413.899	5.29
414.257	5.29
414.615	5.3
414.974	5.31
415.332	5.3
415.69	5.28
416.048	5.3
416.406	5.3
416.764	5.27
417.122	5.27
417.48	5.25
417.838	5.24
418.195	5.23
418.553	5.23
418.911	5.22
419.269	5.23
419.626	5.22
419.984	5.2
420.342	5.2
420.699	5.19
421.057	5.18
421.414	5.14
421.772	5.12
422.129	5.12
422.486	5.11
422.844	5.12
423.201	5.13
423.558	5.12
423.915	5.11
424.273	5.12
424.63	5.11
424.987	5.12
425.344	5.11
425.701	5.12
426.058	5.12
426.415	5.12
426.772	5.11
427.128	5.1
427.485	5.11
427.842	5.1
428.199	5.12
428.555	5.12
428.912	5.15
429.269	5.17
429.625	5.16
429.982	5.16
430.338	5.13
430.695	5.13
431.051	5.12
431.407	5.12
431.764	5.11
432.12	5.1
432.476	5.1
432.832	5.08
433.189	5.1
433.545	5.08
433.901	5.06
434.257	5.05
434.613	5.06
434.969	5.06
435.325	5.08
435.681	5.08
436.036	5.09
436.392	5.09
436.748	5.07
437.104	5.08
437.459	5.06
437.815	5.07
438.171	5.1
438.526	5.12
438.882	5.13
439.237	5.14
439.593	5.16
439.948	5.14
440.304	5.15
440.659	5.14
441.014	5.16
441.369	5.17
441.725	5.17
442.08	5.17
442.435	5.17
442.79	5.15
443.145	5.13
443.5	5.12
443.855	5.1
444.21	5.1
444.565	5.1
444.92	5.12
445.275	5.1
445.629	5.09
445.984	5.08
446.339	5.07
446.693	5.04
447.048	5.01
447.403	5
447.757	5.01
448.112	4.99
448.466	4.97
448.82	4.96
449.175	4.97
449.529	4.95
449.883	4.95
450.238	4.95
450.592	4.96
450.946	4.96
451.3	4.96
451.654	4.96
452.008	4.95
452.362	4.94
452.716	4.93
453.07	4.92
453.424	4.93
453.778	4.94
454.132	4.94
454.486	4.94
454.839	4.95
455.193	4.95
455.547	4.98
455.9	5
456.254	5.02
456.607	5
456.961	5.01
457.314	5
457.668	5
458.021	4.99
458.375	5
458.728	5
459.081	5.01
459.434	5
459.787	5
460.141	5
460.494	5.01
460.847	5.01
461.2	5
461.553	5.02
461.906	5.05
462.259	5.05
462.611	5.07
462.964	5.06
463.317	5.05
463.67	5.05
464.022	5.06
464.375	5.06
464.728	5.06
465.08	5.06
465.433	5.06
465.785	5.08
466.138	5.06
466.49	5.09
466.843	5.1
467.195	5.12
467.547	5.12
467.899	5.13
468.252	5.13
468.604	5.15
468.956	5.14
469.308	5.14
469.66	5.13
470.012	5.13
470.364	5.11
470.716	5.12
471.068	5.14
471.42	5.14
471.772	5.17
472.123	5.2
472.475	5.22
472.827	5.24
473.178	5.23
473.53	5.23
473.882	5.23
474.233	5.24
474.585	5.21
474.936	5.22
475.288	5.2
475.639	5.21
475.99	5.21
476.342	5.2
476.693	5.2
477.044	5.21
477.395	5.2
477.746	5.2
478.097	5.2
478.448	5.19
478.8	5.19
479.15	5.16
479.501	5.16
479.852	5.15
480.203	5.17
480.554	5.18
480.905	5.2
481.255	5.21
481.606	5.21
481.957	5.23
482.307	5.23
482.658	5.25
483.009	5.25
483.359	5.26
483.709	5.26
484.06	5.27
484.41	5.27
484.761	5.27
485.111	5.28
485.461	5.3
485.811	5.3
486.162	5.31
486.512	5.32
486.862	5.33
487.212	5.32
487.562	5.31
487.912	5.32
488.262	5.33
488.612	5.32
488.961	5.33
489.311	5.32
489.661	5.32
490.011	5.33
490.36	5.33
490.71	5.33
491.06	5.34
491.409	5.33
491.759	5.34
492.108	5.35
492.458	5.34
492.807	5.32
493.157	5.34
493.506	5.32
493.855	5.33
494.204	5.32
494.554	5.34
494.903	5.34
495.252	5.35
495.601	5.35
495.95	5.38
496.299	5.38
496.648	5.39
496.997	5.4
497.346	5.42
497.695	5.44
498.043	5.41
498.392	5.41
498.741	5.42
499.09	5.4
499.438	5.4
499.787	5.42
500.135	5.43
500.484	5.43
500.832	5.45
501.181	5.45
501.529	5.46
501.878	5.47
502.226	5.48
502.574	5.47
502.923	5.46
503.271	5.45
503.619	5.47
503.967	5.46
504.315	5.46
504.663	5.46
505.011	5.48
505.359	5.51
505.707	5.53
506.055	5.54
506.403	5.57
506.751	5.6
507.098	5.61
507.446	5.65
507.794	5.65
508.141	5.67
508.489	5.69
508.837	5.71
509.184	5.72
509.531	5.74
509.879	5.76
510.226	5.77
510.574	5.79
510.921	5.81
511.268	5.82
511.616	5.82
511.963	5.82
512.31	5.83
512.657	5.85
513.004	5.87
513.351	5.91
513.698	5.93
514.045	5.91
514.392	5.91
514.739	5.9
515.086	5.92
515.432	5.92
515.779	5.92
516.126	5.94
516.473	5.96
516.819	5.97
517.166	5.96
517.512	5.97
517.859	5.97
518.205	5.96
518.552	5.97
518.898	5.98
519.245	5.96
519.591	5.95
519.937	5.94
520.283	5.95
520.629	5.94
520.976	5.95
521.322	5.97
521.668	6
522.014	6
522.36	6.01
522.706	6.01
523.052	6.01
523.398	6.02
523.743	6.01
524.089	6.02
524.435	6.04
524.781	6.06
525.126	6.07
525.472	6.09
525.817	6.11
526.163	6.12
526.509	6.14
526.854	6.15
527.199	6.17
527.545	6.17
527.89	6.18
528.235	6.16
528.581	6.17
528.926	6.17
529.271	6.18
529.616	6.19
529.961	6.2
530.306	6.21
530.651	6.21
530.996	6.21
531.341	6.22
531.686	6.22
532.031	6.22
532.376	6.22
532.721	6.23
533.065	6.22
533.41	6.22
533.755	6.23
534.099	6.24
534.444	6.22
534.788	6.22
535.133	6.24
535.477	6.25
535.822	6.25
536.166	6.23
536.51	6.23
536.855	6.23
537.199	6.22
537.543	6.23
537.887	6.23
538.231	6.23
538.576	6.24
538.92	6.25
539.264	6.25
539.608	6.26
539.951	6.24
540.295	6.27
540.639	6.29
540.983	6.27
541.327	6.27
541.671	6.29
542.014	6.29
542.358	6.28
542.701	6.29
543.045	6.3
543.389	6.32
543.732	6.32
544.075	6.33
544.419	6.35
544.762	6.34
545.105	6.35
545.449	6.37
545.792	6.37
546.135	6.38
546.478	6.38
546.821	6.38
547.165	6.39
547.508	6.36
547.851	6.34
548.194	6.35
548.536	6.36
548.879	6.35
549.222	6.36
549.565	6.36
549.908	6.38
550.25	6.38
550.593	6.36
550.936	6.36
551.278	6.36
551.621	6.37
551.963	6.41
552.306	6.41
552.648	6.41
552.991	6.42
553.333	6.41
553.675	6.42
554.017	6.44
554.36	6.48
554.702	6.48
555.044	6.51
555.386	6.52
555.728	6.51
556.07	6.54
556.412	6.53
556.754	6.56
557.096	6.56
557.438	6.57
557.78	6.58
558.121	6.59
558.463	6.6
558.805	6.58
559.147	6.58
559.488	6.57
559.83	6.53
560.171	6.5
560.513	6.54
560.854	6.6
561.196	6.58
561.537	6.53
561.878	6.52
562.22	6.49
562.561	6.46
562.902	6.48
563.243	6.43
563.584	6.45
563.925	6.45
564.266	6.44
564.607	6.45
564.948	6.48
565.289	6.5
565.63	6.51
565.971	6.51
566.312	6.5
566.653	6.5
566.993	6.53
567.334	6.53
567.675	6.5
568.015	6.47
568.356	6.48
568.696	6.52
569.037	6.56
569.377	6.58
569.718	6.61
570.058	6.61
570.398	6.63
570.739	6.61
571.079	6.59
571.419	6.59
571.759	6.6
572.099	6.57
572.439	6.57
572.779	6.55
573.119	6.55
573.459	6.59
573.799	6.61
574.139	6.62
574.479	6.65
574.819	6.65
575.158	6.65
575.498	6.64
575.838	6.65
576.177	6.61
576.517	6.59
576.856	6.61
577.196	6.6
577.535	6.62
577.875	6.6
578.214	6.6
578.553	6.63
578.893	6.63
579.232	6.63
579.571	6.61
579.91	6.6
580.25	6.62
580.589	6.59
580.928	6.57
581.267	6.58
581.606	6.55
581.945	6.55
582.283	6.58
582.622	6.57
582.961	6.54
583.3	6.57
583.639	6.59
583.977	6.61
584.316	6.62
584.654	6.55
584.993	6.59
585.332	6.61
585.67	6.61
586.008	6.62
586.347	6.62
586.685	6.62
587.024	6.64
587.362	6.65
587.7	6.66
588.038	6.67
588.376	6.65
588.715	6.69
589.053	6.73
589.391	6.71
589.729	6.72
590.067	6.7
590.404	6.69
590.742	6.73
591.08	6.7
591.418	6.69
591.756	6.77
592.093	6.74
592.431	6.74
592.769	6.7
593.106	6.66
593.444	6.65
593.781	6.68
594.119	6.66
594.456	6.65
594.793	6.64
595.131	6.61
595.468	6.65
595.805	6.62
596.143	6.62
596.48	6.62
596.817	6.64
597.154	6.67
597.491	6.66
597.828	6.65
598.165	6.66
598.502	6.69
598.839	6.67
599.176	6.71
599.512	6.7
599.849	6.73
600.186	6.78
600.523	6.85
600.859	6.84
601.196	6.87
601.532	6.85
601.869	6.86
602.205	6.87
602.542	6.86
602.878	6.88
603.215	6.85
603.551	6.87
603.887	6.86
604.223	6.83
604.56	6.86
604.896	6.85
605.232	6.86
605.568	6.86
605.904	6.87
606.24	6.9
606.576	6.9
606.912	6.93
607.248	6.93
607.583	6.92
607.919	6.9
608.255	6.9
608.591	7
608.926	7
609.262	7.01
609.597	7.03
609.933	7.05
610.268	7.06
610.604	7.08
610.939	7.09
611.275	7.11
611.61	7.12
611.945	7.18
612.281	7.17
612.616	7.2
612.951	7.21
613.286	7.18
613.621	7.16
613.956	7.14
614.291	7.13
614.626	7.15
614.961	7.17
615.296	7.17
615.631	7.12
615.966	7.1
616.3	7.15
616.635	7.11
616.97	7.13
617.304	7.11
617.639	7.09
617.973	7.03
618.308	7.04
618.642	7.05
618.977	7.01
619.311	6.97
619.646	6.94
619.98	6.93
620.314	6.98
620.648	7.04
620.983	7.09
621.317	7.07
621.651	7.02
621.985	7.04
622.319	7.02
622.653	7.01
622.987	7.06
623.321	7.08
623.655	7.09
623.988	7.11
624.322	7.12
624.656	7.17
624.99	7.21
625.323	7.22
625.657	7.21
625.99	7.19
626.324	7.21
626.657	7.23
626.991	7.24
627.324	7.28
627.658	7.3
627.991	7.29
628.324	7.33
628.657	7.36
628.991	7.38
629.324	7.44
629.657	7.48
629.99	7.49
630.323	7.49
630.656	7.48
630.989	7.48
631.322	7.5
631.655	7.47
631.987	7.48
632.32	7.47
632.653	7.47
632.986	7.54
633.318	7.49
633.651	7.44
633.984	7.46
634.316	7.42
634.649	7.39
634.981	7.37
635.313	7.35
635.646	7.34
635.978	7.37
636.31	7.38
636.643	7.33
636.975	7.33
637.307	7.33
637.639	7.36
637.971	7.31
638.303	7.35
638.635	7.34
638.967	7.36
639.299	7.35
639.631	7.35
639.963	7.34
640.295	7.43
640.626	7.5
640.958	7.54
641.29	7.54
641.621	7.56
641.953	7.61
642.285	7.6
642.616	7.69
642.948	7.63
643.279	7.59
643.61	7.53
643.942	7.46
644.273	7.44
644.604	7.44
644.936	7.51
645.267	7.49
645.598	7.47
645.929	7.46
646.26	7.53
646.591	7.59
646.922	7.55
647.253	7.58
647.584	7.57
647.915	7.51
648.245	7.51
648.576	7.51
648.907	7.51
649.238	7.58
649.568	7.55
649.899	7.59
650.229	7.62
650.56	7.69
650.89	7.77
651.221	7.75
651.551	7.76
651.882	7.77
652.212	7.83
652.542	7.86
652.872	7.88
653.203	7.84
653.533	7.86
653.863	7.9
654.193	7.84
654.523	7.79
654.853	7.76
655.183	7.75
655.513	7.7
655.843	7.66
656.172	7.62
656.502	7.61
656.832	7.61
657.162	7.62
657.491	7.68
657.821	7.64
658.15	7.67
658.48	7.68
658.809	7.66
659.139	7.61
659.468	7.59
659.798	7.61
660.127	7.63
660.456	7.62
660.785	7.61
661.115	7.64
661.444	7.64
661.773	7.78
662.102	7.79
662.431	7.82
662.76	7.87
663.089	7.87
663.418	7.88
663.747	7.84
664.076	7.81
664.404	7.79
664.733	7.83
665.062	7.87
665.39	7.82
665.719	7.81
666.048	7.86
666.376	7.9
666.705	7.87
667.033	7.87
667.362	7.87
667.69	7.85
668.018	7.92
668.347	7.94
668.675	7.92
669.003	7.9
669.331	8.04
669.659	8.03
669.987	8.06
670.315	8.16
670.643	8.13
670.971	8.11
671.299	8.12
671.627	8.16
671.955	8.19
672.283	8.28
672.61	8.25
672.938	8.18
673.266	8.18
673.593	8.31
673.921	8.28
674.249	8.28
674.576	8.36
674.904	8.32
675.231	8.37
675.558	8.34
675.886	8.39
676.213	8.34
676.54	8.33
676.867	8.36
677.195	8.28
677.522	8.41
677.849	8.46
678.176	8.43
678.503	8.35
678.83	8.39
679.157	8.28
679.484	8.36
679.81	8.4
680.137	8.36
680.464	8.33
680.791	8.39
681.117	8.37
681.444	8.31
681.771	8.31
682.097	8.31
682.424	8.31
682.75	8.33
683.077	8.26
683.403	8.35
683.729	8.35
684.056	8.33
684.382	8.27
684.708	8.29
685.034	8.26
685.36	8.31
685.686	8.26
686.012	8.35
686.339	8.38
686.664	8.45
686.99	8.46
687.316	8.35
687.642	8.35
687.968	8.38
688.294	8.39
688.619	8.48
688.945	8.47
689.271	8.44
689.596	8.42
689.922	8.41
690.247	8.32
690.573	8.37
690.898	8.45
691.224	8.46
691.549	8.52
691.874	8.58
692.2	8.62
692.525	8.61
692.85	8.69
693.175	8.55
693.5	8.48
693.825	8.57
694.15	8.53
694.475	8.46
694.8	8.48
695.125	8.55
695.45	8.49
695.775	8.6
696.099	8.65
696.424	8.7
696.749	8.66
697.073	8.7
697.398	8.72
697.723	8.73
698.047	8.72
698.372	8.65
698.696	8.63
699.02	8.57
699.345	8.63
699.669	8.66
699.993	8.72
700.318	8.83
700.642	8.78
700.966	8.85
701.29	9
701.614	8.97
701.938	9.05
702.262	9.12
702.586	9.02
702.91	8.93
703.234	8.91
703.557	9.05
703.881	9.1
704.205	9.16
704.529	9.04
704.852	9.06
705.176	9.07
705.499	9.12
705.823	9.08
706.146	8.97
706.47	8.93
706.793	8.91
707.117	8.89
707.44	8.92
707.763	8.99
708.086	8.75
708.409	8.7
708.733	8.59
709.056	8.53
709.379	8.7
709.702	8.79
710.025	8.76
710.348	8.78
710.671	8.66
710.993	8.51
711.316	8.51
711.639	8.54
711.962	8.56
712.284	8.6
712.607	8.78
712.93	8.82
713.252	8.84
713.575	9.01
713.897	8.91
714.22	8.87
714.542	8.96
714.864	9.05
715.187	9.15
715.509	9.1
715.831	9.11
716.153	9.12
716.475	9.18
716.798	9.33
717.12	9.33
717.442	9.34
717.764	9.46
718.085	9.49
718.407	9.59
718.729	9.65
719.051	9.59
719.373	9.6
719.695	9.74
720.016	9.75
720.338	9.76
720.659	9.79
720.981	9.94
721.302	9.87
721.624	10.07
721.945	10.05
722.267	10.31
722.588	10.35
722.909	10.24
723.231	10.18
723.552	10.09
723.873	10.05
724.194	10.14
724.515	10.13
724.836	10.28
725.157	10.1
725.478	9.98
725.799	9.97
726.12	9.89
726.441	9.82
726.762	9.81
727.083	9.68
727.403	9.69
727.724	9.62
728.045	9.68
728.365	9.54
728.686	9.44
729.006	9.44
729.327	9.45
729.647	9.32
729.967	9.38
730.288	9.35
730.608	9.37
730.928	9.44
731.249	9.42
731.569	9.31
731.889	9.48
732.209	9.6
732.529	9.65
732.849	9.7
733.169	9.77
733.489	9.8
733.809	9.84
734.129	9.71
734.448	9.98
734.768	9.91
735.088	9.86
735.408	9.85
735.727	9.89
736.047	9.89
736.366	10.11
736.686	10.05
737.005	10.06
737.325	10.19
737.644	10.08
737.963	10.2
738.283	10.21
738.602	10.23
738.921	10.09
739.24	10.28
739.56	10.04
739.879	9.87
740.198	9.96
740.517	10.09
740.836	10.28
741.155	10.02
741.473	10.1
741.792	10.4
742.111	10.66
742.43	10.46
742.748	10.4
743.067	10.45
743.386	10.47
743.704	10.53
744.023	10.4
744.341	10.61
744.66	10.48
744.978	10.6
745.297	10.56
745.615	10.92
745.933	10.76
746.252	11.12
746.57	11.31
746.888	11.27
747.206	10.97
747.524	11.1
747.842	11.05
748.16	11.21
748.478	10.92
748.796	11.01
749.114	11.1
749.432	11.15
749.749	11
750.067	10.83
750.385	10.71
750.703	10.82
751.02	10.54
751.338	10.78
751.655	10.68
751.973	10.77
752.29	10.61
752.608	10.66
752.925	10.58
753.242	10.59
753.56	10.38
753.877	10.27
754.194	10.31
754.511	10.48
754.828	10.23
755.145	10.49
755.462	10.4
755.779	10.5
756.096	10.38
756.413	10.67
756.73	10.95
757.047	11.28
757.364	11.13
757.68	11.29
757.997	11.05
758.314	11.27
758.63	11.01
758.947	11.02
759.264	11.02
759.58	11
759.896	11.19
760.213	11.43
760.529	11.69
760.846	11.39
761.162	11.19
761.478	11.33
761.794	11.04
762.11	10.92
762.426	11.05
762.743	11.16
763.059	11.06
763.375	11.1
763.69	11.13
764.006	11.1
764.322	11.15
764.638	11.25
764.954	11.4
765.27	11.64
765.585	11.72
765.901	11.75
766.216	11.84
766.532	11.63
766.848	11.38
767.163	11.39
767.478	11.42
767.794	11.61
768.109	11.63
768.424	12.11
768.74	12.25
769.055	12.23
769.37	12.32
769.685	12.38
770	12.41
770.315	11.99
770.63	12.26
770.945	12.22
771.26	12.07
771.575	11.89
771.89	11.71
772.205	11.48
772.52	11.18
772.834	10.77
773.149	10.85
773.464	10.97
773.778	11.09
774.093	11.15
774.407	11.42
774.722	11.47
775.036	11.48
775.351	11.85
775.665	11.74
775.979	11.57
776.293	11.61
776.608	11.67
776.922	11.81
777.236	11.96
777.55	11.91
777.864	11.88
778.178	11.89
778.492	11.99
778.806	12.08
779.12	12.85
779.434	13.17
779.747	13.34
780.061	13.36
780.375	13.48
780.689	13.73
781.002	13.42
781.316	13.17
781.629	12.69
781.943	12.36
782.256	12.34
782.57	12.61
782.883	12.39
783.196	12.31
783.51	12.58
783.823	12.14
784.136	12.08
784.449	12.1
784.762	11.96
785.075	11.74
785.388	11.46
785.701	11.1
786.014	11.36
786.327	11.02
786.64	11.45
786.953	11.44
787.266	11.51
787.578	11.59
787.891	11.89
788.204	11.76
788.516	12.26
788.829	12.12
789.141	12.45
789.454	12.46
789.766	12.8
790.079	12.65
790.391	13.02
790.703	13.17
791.016	13.32
791.328	13.57
791.64	13.84
791.952	14.1
792.264	13.81
792.576	13.68
792.888	13.96
793.2	13.88
793.512	13.5
793.824	13.71
794.136	13.82
794.448	13.37
794.76	13.55
795.071	12.84
795.383	12.75
795.695	12.33
796.006	12.34
796.318	12.17
796.629	12.18
796.941	12.38
797.252	12.86
797.564	12.95
797.875	12.71
798.186	12.79
798.497	12.83
798.809	13.13
799.12	12.97
799.431	12.89
799.742	12.8
800.053	13.29
800.364	13.08
800.675	13.08
800.986	13.66
801.297	13.76
801.608	13.87
801.918	14.15
802.229	14.39
802.54	14.3
802.851	14.37
803.161	14.94
803.472	14.79
803.782	14.37
804.093	14.27
804.403	13.86
804.714	13.89
805.024	14.51
805.334	14.25
805.645	14.5
805.955	14.6
806.265	14.93
806.575	15.01
806.885	14.8
807.195	14.91
807.505	14.53
807.815	14.62
808.125	14.75
808.435	15.03
808.745	14.98
809.055	15.26
809.365	15.01
809.674	14.42
809.984	13.97
810.294	14.51
810.603	14.3
810.913	14.88
811.222	15.01
811.532	14.48
811.841	14.9
812.151	14.97
812.46	14.73
812.769	13.67
813.079	13.41
813.388	13.65
813.697	13.79
814.006	14.01
814.315	13.81
814.624	13.42
814.933	13.67
815.242	13.46
815.551	14.11
815.86	14.26
816.169	14.2
816.478	14.14
816.786	13.12
817.095	13.37
817.404	13.37
817.712	13.22
818.021	13.76
818.33	13.56
818.638	13.82
818.947	14.16
819.255	14.65
819.563	14.55
819.872	14.31
820.18	14.51
820.488	14.56
820.796	14.59
821.105	14.9
821.413	14.77
821.721	14.67
822.029	14.6
822.337	14.71
822.645	14.73
822.953	14.8
823.26	15.06
823.568	15.08
823.876	15.13
824.184	14.96
824.491	14.81
824.799	14.91
825.107	15
825.414	15.11
825.722	15.2
826.029	15.31
826.337	15.55
826.644	15.53
826.951	15.55
827.259	15.63
827.566	15.65
827.873	15.6
828.18	15.74
828.488	15.8
828.795	15.75
829.102	15.96
829.409	16.13
829.716	15.97
830.023	15.99
830.329	15.85
830.636	16.22
830.943	16.2
831.25	16.01
831.557	15.52
831.863	15.49
832.17	15.33
832.476	15.33
832.783	15.32
833.089	15.08
833.396	15.16
833.702	15.2
834.009	15.33
834.315	15.52
834.621	15.62
834.928	15.51
835.234	15.2
835.54	14.93
835.846	14.86
836.152	14.79
836.458	14.65
836.764	14.79
837.07	14.51
837.376	14.91
837.682	15.38
837.988	15.63
838.293	15.4
838.599	15.58
838.905	14.99
839.211	14.63
839.516	14.9
839.822	15.02
840.127	14.64
840.433	14.19
840.738	13.23
841.044	13.71
841.349	13.26
841.654	14.39
841.959	14.5
842.265	14.92
842.57	15.31
842.875	15.97
843.18	17.06
843.485	17.6
843.79	17.16
844.095	15.53
844.4	16.24
844.705	15.67
845.01	15.52
845.315	15.78
845.619	16.36
845.924	15.46
846.229	14.87
846.533	14.81
846.838	14.19
847.142	15.75
847.447	14.42
847.751	14.81
848.056	12.59
848.36	13.93
848.664	13.63
848.969	13.37
849.273	10.66
849.577	9.37
849.881	8.15
850.185	9.63
850.489	11.6
850.794	11.01
851.097	11.65
851.401	10.63
851.705	10.86
852.009	11.57
852.313	12.32
852.617	13.24
852.92	15.41
853.224	16.89
853.528	16.91
853.831	16.69
854.135	17.22
854.438	18.2
854.742	16.73
855.045	15.47
855.349	16.67
855.652	19.82
855.955	21.18
856.259	22.75
856.562	21.71
856.865	22.69
857.168	22.77
857.471	23.35
857.774	25.19
858.077	25.1
858.38	23.8
858.683	23.97
858.986	22.99
859.289	21.68
859.592	22.4
859.894	22.53
860.197	21.99
860.5	22.65
860.802	22.06
861.105	23.35
861.407	24.75
861.71	24.98
862.012	24.36
862.315	21.84
862.617	23.26
862.919	23.26
863.222	22.12
863.524	21.82
863.826	23.36
864.128	23.01
864.43	24.54
864.732	25.41
865.034	25.49
865.336	25.7
865.638	25.75
865.94	22.4
866.242	21.66
866.544	21.16
866.846	19.74
867.147	20.33
867.449	20.16
867.751	20.9
868.052	20.9
868.354	23.09
868.655	24.56
868.957	22.45
869.258	22.98
869.56	23.62
869.861	23.12
870.162	21.61
870.463	22.63
870.765	22.86
871.066	23.24
871.367	21.84
871.668	23.21
871.969	23.07
872.27	22.81
872.571	22.84
872.872	25.94
873.173	26.85
873.473	26.2
873.774	25.57
874.075	25.15
874.376	24.4
874.676	23.67
874.977	22.75
875.277	25.66
875.578	25.73
875.878	25.21
876.179	25.83
876.479	25.71
876.78	24.67
877.08	24.5
877.38	22.99
877.68	24.5
877.981	22.83
878.281	23.77
878.581	28.63
