Data from BA28420_Reflection_00002.txt Node
Date: Mon Nov 18 16:08:14 EST 2019
User: vgr7
Spectrometer: USB2G7710
Scans to average: 3
Trigger mode: 4
Integration Time (sec): 2.000000E-2
Electric dark correction enabled: true
Boxcar width: 10
XAxis mode: Wavelengths
Number of Pixels in Spectrum: 2048
>>>>>Begin Spectral Data<<<<<
177.721	27.38
178.105	226.98
178.488	866.08
178.871	17.14
179.254	12.95
179.636	94.23
180.019	33.71
180.402	391.67
180.785	-502.69
181.168	-203.42
181.55	-854.02
181.933	140.5
182.316	175.94
182.698	198.63
183.081	355.72
183.463	238.44
183.846	181.01
184.228	153.19
184.611	175.09
184.993	176.22
185.376	228.99
185.758	-24455.56
186.14	873.46
186.522	841.29
186.904	-753.48
187.287	1376.73
187.669	-1647.47
188.051	422.86
188.433	455.68
188.815	228.56
189.197	329.49
189.579	518.8
189.961	485.46
190.342	271.61
190.724	315.98
191.106	259.25
191.488	480.36
191.869	679.2
192.251	1521.46
192.633	686.45
193.014	294.73
193.396	287.05
193.777	218.59
194.159	208.1
194.54	217.83
194.922	260.23
195.303	243.9
195.684	282.92
196.065	538.45
196.447	329.74
196.828	322.5
197.209	336
197.59	307.8
197.971	397.18
198.352	-546.18
198.733	-542.97
199.114	-528.9
199.495	-174.28
199.876	-163.41
200.257	-110.68
200.638	-92.84
201.018	-78.89
201.399	-58.51
201.78	-33.02
202.16	-44.25
202.541	-78.78
202.922	-114.31
203.302	-132.07
203.683	-129.57
204.063	-148.88
204.444	-140.27
204.824	-115.18
205.204	-110.37
205.585	-120.55
205.965	-114.64
206.345	-166.06
206.725	-238
207.106	-258.58
207.486	-715.46
207.866	-497.41
208.246	-526.75
208.626	-638
209.006	-373.25
209.386	-525.87
209.766	-550.99
210.145	-955.2
210.525	-353.95
210.905	-178.91
211.285	-158.15
211.664	-213.45
212.044	-353.11
212.424	-229.33
212.803	-411.84
213.183	-209.02
213.562	-162.28
213.942	-95.97
214.321	-56.27
214.701	-53.28
215.08	-49.11
215.459	-19.73
215.838	-58.09
216.218	-69.13
216.597	-84.45
216.976	-80.48
217.355	-66.19
217.734	-68.09
218.113	-48.81
218.492	-61.75
218.871	-82.32
219.25	-78.68
219.629	-76.54
220.008	-72.3
220.387	-88.13
220.766	-80.17
221.144	-95.25
221.523	-99.26
221.902	-145.24
222.28	-162.44
222.659	-140.51
223.037	-136.35
223.416	-121.86
223.794	-112.56
224.173	-99.93
224.551	-81.57
224.929	-88.98
225.308	-72.76
225.686	-67
226.064	-68.89
226.442	-57.67
226.821	-47.3
227.199	-42.53
227.577	-38.58
227.955	-38.38
228.333	-38.61
228.711	-34.13
229.089	-24.13
229.467	-22.55
229.845	-21.37
230.222	-18.31
230.6	-15.48
230.978	-9.61
231.356	-7.63
231.733	-7.15
232.111	-4.7
232.488	-6.77
232.866	-5.98
233.243	-5.44
233.621	-6.57
233.998	-4.3
234.376	-3.09
234.753	-3.5
235.13	-2.98
235.508	-1.8
235.885	-2.47
236.262	-0.59
236.639	-0.6
237.016	-4.27
237.393	-1.89
237.77	-0.88
238.147	-0.38
238.524	0.45
238.901	0.19
239.278	0.31
239.655	1.06
240.032	0.93
240.409	1.42
240.785	1.71
241.162	2.17
241.539	2.34
241.915	2.34
242.292	1.47
242.668	1.63
243.045	1.43
243.421	1.72
243.798	2.03
244.174	1.86
244.551	2.01
244.927	2.31
245.303	2.11
245.679	2.24
246.056	2.13
246.432	2
246.808	1.99
247.184	1.5
247.56	1.45
247.936	1.38
248.312	1.34
248.688	1.1
249.064	0.99
249.44	0.93
249.815	0.88
250.191	1.19
250.567	1.11
250.943	1.11
251.318	0.89
251.694	0.95
252.069	0.92
252.445	0.79
252.82	0.7
253.196	0.7
253.571	0.73
253.947	0.73
254.322	0.98
254.697	0.71
255.073	0.84
255.448	0.83
255.823	1.02
256.198	1.57
256.573	1.83
256.948	2.13
257.323	2.37
257.698	2.44
258.073	2.47
258.448	2.44
258.823	2.55
259.198	2.53
259.573	2.38
259.948	2.38
260.322	2.32
260.697	2.27
261.072	2.17
261.446	2.07
261.821	2.12
262.195	1.91
262.57	1.86
262.944	1.95
263.319	1.79
263.693	1.74
264.067	1.45
264.442	1.53
264.816	1.29
265.19	1.17
265.564	1.11
265.938	1.07
266.313	1.17
266.687	1.08
267.061	1.17
267.435	1.35
267.809	1.4
268.183	1.54
268.556	1.5
268.93	1.65
269.304	1.61
269.678	1.54
270.051	1.61
270.425	1.81
270.799	1.91
271.172	2.12
271.546	2.09
271.919	2.18
272.293	2.21
272.666	2.28
273.04	2.21
273.413	2.19
273.787	2.15
274.16	2.21
274.533	2.16
274.906	2.18
275.279	2.06
275.653	2.03
276.026	1.89
276.399	1.97
276.772	2.06
277.145	2.05
277.518	2.19
277.891	2.14
278.263	2.07
278.636	2.08
279.009	2
279.382	2.08
279.755	1.99
280.127	2.11
280.5	2.31
280.872	2.52
281.245	2.5
281.617	2.54
281.99	2.56
282.362	2.58
282.735	2.4
283.107	2.53
283.479	2.63
283.852	2.65
284.224	2.65
284.596	2.65
284.968	2.73
285.34	2.75
285.713	2.72
286.085	2.57
286.457	2.61
286.829	2.73
287.201	2.8
287.572	2.81
287.944	2.57
288.316	2.46
288.688	2.34
289.06	2.35
289.431	2.31
289.803	2.25
290.175	2.27
290.546	2.47
290.918	2.47
291.289	2.38
291.661	2.4
292.032	2.31
292.403	2.19
292.775	2.27
293.146	2
293.517	2.12
293.889	2.36
294.26	2.38
294.631	2.18
295.002	2.06
295.373	2.03
295.744	2.14
296.115	2.09
296.486	2.02
296.857	2.12
297.228	2.18
297.599	2.2
297.97	2.23
298.34	2.15
298.711	2.21
299.082	2.17
299.452	2.18
299.823	2.4
300.194	2.38
300.564	2.28
300.935	2.5
301.305	2.4
301.676	2.35
302.046	2.28
302.416	2.46
302.787	2.5
303.157	2.55
303.527	2.45
303.897	2.46
304.267	2.69
304.637	2.72
305.008	2.7
305.378	2.69
305.748	2.79
306.117	2.73
306.487	2.7
306.857	2.85
307.227	2.89
307.597	2.85
307.967	2.87
308.336	2.99
308.706	2.96
309.076	2.97
309.445	2.93
309.815	2.92
310.184	2.9
310.554	2.99
310.923	2.94
311.293	3.03
311.662	2.99
312.031	2.91
312.401	2.85
312.77	2.99
313.139	3.1
313.508	3.08
313.877	3.13
314.246	3.12
314.616	3.19
314.985	3.11
315.353	3.04
315.722	3.17
316.091	3.15
316.46	3.18
316.829	3.11
317.198	3.18
317.567	3.16
317.935	3.24
318.304	3.1
318.672	3.19
319.041	3.35
319.41	3.42
319.778	3.32
320.147	3.21
320.515	3.02
320.883	2.9
321.252	2.76
321.62	2.87
321.988	2.72
322.357	2.6
322.725	2.62
323.093	2.69
323.461	2.6
323.829	2.56
324.197	2.57
324.565	2.77
324.933	2.72
325.301	2.73
325.669	2.61
326.037	2.63
326.405	2.7
326.772	2.6
327.14	2.65
327.508	2.75
327.875	2.87
328.243	2.88
328.61	3.02
328.978	3.08
329.346	3.01
329.713	3.02
330.08	3.05
330.448	2.99
330.815	2.84
331.182	2.81
331.55	2.8
331.917	2.76
332.284	2.75
332.651	2.81
333.018	2.85
333.385	2.84
333.752	2.92
334.119	2.93
334.486	2.91
334.853	2.9
335.22	2.97
335.587	2.95
335.954	2.93
336.32	2.73
336.687	2.82
337.054	2.81
337.42	2.94
337.787	3.04
338.153	3.08
338.52	3.11
338.886	3.13
339.253	3.14
339.619	3.25
339.986	3.23
340.352	3.28
340.718	3.26
341.084	3.25
341.451	3.27
341.817	3.21
342.183	3.23
342.549	3.2
342.915	3.13
343.281	3.04
343.647	3.06
344.013	3.1
344.379	2.94
344.745	2.96
345.11	2.97
345.476	2.93
345.842	2.97
346.208	3.03
346.573	3
346.939	3.09
347.304	2.96
347.67	2.91
348.035	2.89
348.401	2.92
348.766	2.97
349.132	2.99
349.497	3.02
349.862	3.08
350.228	3.13
350.593	3.07
350.958	3.16
351.323	3.21
351.688	3.27
352.053	3.42
352.418	3.44
352.783	3.45
353.148	3.39
353.513	3.35
353.878	3.3
354.243	3.38
354.608	3.35
354.972	3.4
355.337	3.47
355.702	3.41
356.066	3.45
356.431	3.39
356.795	3.45
357.16	3.4
357.524	3.37
357.889	3.25
358.253	3.25
358.618	3.2
358.982	3.19
359.346	3.12
359.71	3.01
360.075	3
360.439	3
360.803	3.04
361.167	3.07
361.531	3.13
361.895	3.1
362.259	3.07
362.623	3.11
362.987	3.03
363.351	3.07
363.714	3.09
364.078	3.14
364.442	3.04
364.806	3.08
365.169	3.02
365.533	3.11
365.896	3.13
366.26	3.17
366.623	3.15
366.987	3.21
367.35	3.31
367.714	3.35
368.077	3.24
368.44	3.22
368.803	3.25
369.167	3.2
369.53	3.17
369.893	3.24
370.256	3.24
370.619	3.32
370.982	3.33
371.345	3.23
371.708	3.23
372.071	3.21
372.434	3.17
372.797	3.2
373.159	3.17
373.522	3.26
373.885	3.27
374.247	3.33
374.61	3.31
374.973	3.27
375.335	3.22
375.698	3.33
376.06	3.31
376.423	3.27
376.785	3.3
377.147	3.38
377.51	3.37
377.872	3.36
378.234	3.34
378.596	3.35
378.958	3.41
379.321	3.41
379.683	3.44
380.045	3.49
380.407	3.52
380.769	3.55
381.13	3.53
381.492	3.52
381.854	3.52
382.216	3.5
382.578	3.57
382.939	3.56
383.301	3.54
383.663	3.54
384.024	3.55
384.386	3.53
384.747	3.53
385.109	3.52
385.47	3.51
385.832	3.52
386.193	3.51
386.554	3.49
386.916	3.52
387.277	3.54
387.638	3.58
387.999	3.55
388.36	3.54
388.721	3.5
389.082	3.49
389.443	3.49
389.804	3.51
390.165	3.48
390.526	3.53
390.887	3.56
391.248	3.62
391.609	3.61
391.969	3.62
392.33	3.61
392.691	3.61
393.051	3.58
393.412	3.63
393.772	3.62
394.133	3.67
394.493	3.67
394.854	3.68
395.214	3.65
395.574	3.69
395.935	3.69
396.295	3.72
396.655	3.74
397.015	3.74
397.376	3.78
397.736	3.75
398.096	3.75
398.456	3.74
398.816	3.74
399.176	3.74
399.535	3.75
399.895	3.73
400.255	3.74
400.615	3.77
400.975	3.73
401.334	3.73
401.694	3.68
402.054	3.63
402.413	3.64
402.773	3.64
403.132	3.61
403.492	3.58
403.851	3.56
404.211	3.55
404.57	3.52
404.929	3.52
405.288	3.54
405.648	3.54
406.007	3.55
406.366	3.5
406.725	3.53
407.084	3.56
407.443	3.56
407.802	3.56
408.161	3.56
408.52	3.58
408.879	3.59
409.238	3.6
409.596	3.63
409.955	3.6
410.314	3.6
410.673	3.61
411.031	3.63
411.39	3.66
411.748	3.67
412.107	3.69
412.465	3.69
412.824	3.69
413.182	3.68
413.54	3.7
413.899	3.73
414.257	3.72
414.615	3.68
414.974	3.71
415.332	3.72
415.69	3.73
416.048	3.74
416.406	3.76
416.764	3.75
417.122	3.76
417.48	3.77
417.838	3.79
418.195	3.79
418.553	3.78
418.911	3.78
419.269	3.8
419.626	3.79
419.984	3.8
420.342	3.8
420.699	3.81
421.057	3.81
421.414	3.79
421.772	3.79
422.129	3.82
422.486	3.8
422.844	3.81
423.201	3.8
423.558	3.81
423.915	3.8
424.273	3.83
424.63	3.82
424.987	3.83
425.344	3.83
425.701	3.84
426.058	3.86
426.415	3.86
426.772	3.85
427.128	3.87
427.485	3.89
427.842	3.88
428.199	3.9
428.555	3.9
428.912	3.95
429.269	3.97
429.625	3.97
429.982	3.98
430.338	3.98
430.695	4.01
431.051	3.99
431.407	3.98
431.764	3.96
432.12	3.97
432.476	3.97
432.832	3.96
433.189	3.95
433.545	3.93
433.901	3.95
434.257	3.95
434.613	3.93
434.969	3.89
435.325	3.89
435.681	3.9
436.036	3.9
436.392	3.89
436.748	3.89
437.104	3.87
437.459	3.87
437.815	3.85
438.171	3.84
438.526	3.87
438.882	3.89
439.237	3.89
439.593	3.89
439.948	3.88
440.304	3.88
440.659	3.88
441.014	3.91
441.369	3.88
441.725	3.87
442.08	3.88
442.435	3.9
442.79	3.92
443.145	3.9
443.5	3.88
443.855	3.88
444.21	3.87
444.565	3.9
444.92	3.92
445.275	3.92
445.629	3.92
445.984	3.91
446.339	3.89
446.693	3.88
447.048	3.88
447.403	3.89
447.757	3.89
448.112	3.89
448.466	3.88
448.82	3.89
449.175	3.91
449.529	3.9
449.883	3.91
450.238	3.89
450.592	3.91
450.946	3.9
451.3	3.89
451.654	3.89
452.008	3.89
452.362	3.86
452.716	3.87
453.07	3.88
453.424	3.87
453.778	3.9
454.132	3.91
454.486	3.92
454.839	3.92
455.193	3.93
455.547	3.95
455.9	3.96
456.254	3.99
456.607	3.98
456.961	3.98
457.314	3.97
457.668	3.98
458.021	3.97
458.375	3.98
458.728	3.99
459.081	4
459.434	4.01
459.787	4.02
460.141	4.02
460.494	4.02
460.847	4.02
461.2	4
461.553	4.01
461.906	4.02
462.259	4.02
462.611	4.02
462.964	4.02
463.317	4.01
463.67	4.01
464.022	4.01
464.375	4.01
464.728	4
465.08	3.99
465.433	4
465.785	3.99
466.138	3.99
466.49	4
466.843	3.97
467.195	3.97
467.547	3.98
467.899	3.99
468.252	3.97
468.604	3.99
468.956	3.97
469.308	3.96
469.66	3.95
470.012	3.95
470.364	3.93
470.716	3.94
471.068	3.93
471.42	3.94
471.772	3.95
472.123	4
472.475	4.01
472.827	4.02
473.178	4.02
473.53	4.01
473.882	3.98
474.233	3.98
474.585	3.97
474.936	3.95
475.288	3.95
475.639	3.97
475.99	3.98
476.342	4
476.693	3.98
477.044	4.01
477.395	4.02
477.746	4.02
478.097	4.01
478.448	4.01
478.8	4.02
479.15	4.01
479.501	4.01
479.852	4.02
480.203	4.04
480.554	4.07
480.905	4.1
481.255	4.13
481.606	4.15
481.957	4.17
482.307	4.19
482.658	4.2
483.009	4.2
483.359	4.2
483.709	4.22
484.06	4.23
484.41	4.24
484.761	4.25
485.111	4.26
485.461	4.27
485.811	4.28
486.162	4.28
486.512	4.3
486.862	4.3
487.212	4.3
487.562	4.3
487.912	4.3
488.262	4.29
488.612	4.29
488.961	4.29
489.311	4.3
489.661	4.29
490.011	4.3
490.36	4.31
490.71	4.31
491.06	4.31
491.409	4.31
491.759	4.3
492.108	4.28
492.458	4.29
492.807	4.27
493.157	4.28
493.506	4.27
493.855	4.27
494.204	4.28
494.554	4.29
494.903	4.27
495.252	4.27
495.601	4.29
495.95	4.3
496.299	4.28
496.648	4.27
496.997	4.26
497.346	4.25
497.695	4.24
498.043	4.25
498.392	4.22
498.741	4.22
499.09	4.2
499.438	4.21
499.787	4.23
500.135	4.25
500.484	4.26
500.832	4.3
501.181	4.3
501.529	4.28
501.878	4.29
502.226	4.29
502.574	4.29
502.923	4.28
503.271	4.27
503.619	4.29
503.967	4.29
504.315	4.29
504.663	4.28
505.011	4.29
505.359	4.27
505.707	4.29
506.055	4.3
506.403	4.31
506.751	4.3
507.098	4.29
507.446	4.3
507.794	4.3
508.141	4.29
508.489	4.3
508.837	4.33
509.184	4.34
509.531	4.34
509.879	4.34
510.226	4.36
510.574	4.37
510.921	4.38
511.268	4.38
511.616	4.39
511.963	4.42
512.31	4.43
512.657	4.43
513.004	4.45
513.351	4.47
513.698	4.46
514.045	4.48
514.392	4.5
514.739	4.49
515.086	4.5
515.432	4.48
515.779	4.48
516.126	4.48
516.473	4.47
516.819	4.48
517.166	4.49
517.512	4.48
517.859	4.48
518.205	4.49
518.552	4.52
518.898	4.54
519.245	4.51
519.591	4.51
519.937	4.52
520.283	4.52
520.629	4.51
520.976	4.54
521.322	4.56
521.668	4.55
522.014	4.57
522.36	4.57
522.706	4.58
523.052	4.58
523.398	4.57
523.743	4.58
524.089	4.58
524.435	4.59
524.781	4.59
525.126	4.6
525.472	4.59
525.817	4.57
526.163	4.57
526.509	4.6
526.854	4.6
527.199	4.6
527.545	4.6
527.89	4.6
528.235	4.58
528.581	4.57
528.926	4.58
529.271	4.57
529.616	4.57
529.961	4.57
530.306	4.57
530.651	4.57
530.996	4.57
531.341	4.57
531.686	4.57
532.031	4.58
532.376	4.59
532.721	4.6
533.065	4.6
533.41	4.6
533.755	4.6
534.099	4.6
534.444	4.61
534.788	4.61
535.133	4.61
535.477	4.61
535.822	4.61
536.166	4.6
536.51	4.59
536.855	4.6
537.199	4.6
537.543	4.62
537.887	4.64
538.231	4.65
538.576	4.66
538.92	4.66
539.264	4.65
539.608	4.65
539.951	4.65
540.295	4.66
540.639	4.66
540.983	4.66
541.327	4.67
541.671	4.67
542.014	4.66
542.358	4.67
542.701	4.69
543.045	4.71
543.389	4.72
543.732	4.73
544.075	4.74
544.419	4.73
544.762	4.72
545.105	4.72
545.449	4.71
545.792	4.71
546.135	4.71
546.478	4.71
546.821	4.73
547.165	4.74
547.508	4.74
547.851	4.75
548.194	4.75
548.536	4.73
548.879	4.73
549.222	4.74
549.565	4.73
549.908	4.73
550.25	4.73
550.593	4.73
550.936	4.73
551.278	4.73
551.621	4.77
551.963	4.78
552.306	4.78
552.648	4.79
552.991	4.8
553.333	4.81
553.675	4.83
554.017	4.82
554.36	4.82
554.702	4.84
555.044	4.8
555.386	4.81
555.728	4.83
556.07	4.86
556.412	4.86
556.754	4.85
557.096	4.83
557.438	4.85
557.78	4.84
558.121	4.85
558.463	4.85
558.805	4.82
559.147	4.82
559.488	4.85
559.83	4.84
560.171	4.82
560.513	4.82
560.854	4.83
561.196	4.81
561.537	4.79
561.878	4.79
562.22	4.82
562.561	4.82
562.902	4.85
563.243	4.84
563.584	4.85
563.925	4.84
564.266	4.86
564.607	4.84
564.948	4.87
565.289	4.91
565.63	4.91
565.971	4.9
566.312	4.9
566.653	4.88
566.993	4.92
567.334	4.92
567.675	4.93
568.015	4.93
568.356	4.9
568.696	4.94
569.037	4.95
569.377	4.95
569.718	4.96
570.058	4.93
570.398	4.92
570.739	4.95
571.079	4.97
571.419	4.96
571.759	4.97
572.099	4.96
572.439	4.94
572.779	4.96
573.119	5
573.459	5.03
573.799	5.05
574.139	5.03
574.479	5.05
574.819	5.05
575.158	5.05
575.498	5.09
575.838	5.08
576.177	5.05
576.517	5.06
576.856	5.06
577.196	5.07
577.535	5.07
577.875	5.08
578.214	5.09
578.553	5.1
578.893	5.11
579.232	5.11
579.571	5.11
579.91	5.1
580.25	5.08
580.589	5.07
580.928	5.07
581.267	5.07
581.606	5.07
581.945	5.08
582.283	5.09
582.622	5.07
582.961	5.09
583.3	5.11
583.639	5.18
583.977	5.17
584.316	5.14
584.654	5.15
584.993	5.12
585.332	5.11
585.67	5.14
586.008	5.12
586.347	5.13
586.685	5.14
587.024	5.14
587.362	5.1
587.7	5.08
588.038	5.09
588.376	5.1
588.715	5.08
589.053	5.08
589.391	5.09
589.729	5.11
590.067	5.07
590.404	5.06
590.742	5.03
591.08	5.05
591.418	5.08
591.756	5.08
592.093	5.09
592.431	5.15
592.769	5.13
593.106	5.18
593.444	5.16
593.781	5.15
594.119	5.16
594.456	5.18
594.793	5.22
595.131	5.2
595.468	5.17
595.805	5.18
596.143	5.17
596.48	5.16
596.817	5.13
597.154	5.15
597.491	5.17
597.828	5.14
598.165	5.14
598.502	5.16
598.839	5.19
599.176	5.18
599.512	5.15
599.849	5.19
600.186	5.17
600.523	5.23
600.859	5.3
601.196	5.32
601.532	5.27
601.869	5.25
602.205	5.28
602.542	5.33
602.878	5.3
603.215	5.31
603.551	5.31
603.887	5.35
604.223	5.35
604.56	5.36
604.896	5.37
605.232	5.38
605.568	5.35
605.904	5.34
606.24	5.35
606.576	5.35
606.912	5.34
607.248	5.34
607.583	5.32
607.919	5.27
608.255	5.25
608.591	5.32
608.926	5.33
609.262	5.35
609.597	5.31
609.933	5.37
610.268	5.36
610.604	5.39
610.939	5.38
611.275	5.38
611.61	5.36
611.945	5.38
612.281	5.38
612.616	5.39
612.951	5.43
613.286	5.41
613.621	5.38
613.956	5.36
614.291	5.33
614.626	5.34
614.961	5.32
615.296	5.32
615.631	5.31
615.966	5.28
616.3	5.3
616.635	5.35
616.97	5.32
617.304	5.34
617.639	5.3
617.973	5.29
618.308	5.27
618.642	5.29
618.977	5.25
619.311	5.26
619.646	5.29
619.98	5.28
620.314	5.31
620.648	5.31
620.983	5.35
621.317	5.39
621.651	5.37
621.985	5.48
622.319	5.49
622.653	5.48
622.987	5.53
623.321	5.53
623.655	5.49
623.988	5.57
624.322	5.54
624.656	5.6
624.99	5.61
625.323	5.65
625.657	5.66
625.99	5.71
626.324	5.75
626.657	5.75
626.991	5.73
627.324	5.71
627.658	5.75
627.991	5.72
628.324	5.72
628.657	5.73
628.991	5.65
629.324	5.68
629.657	5.72
629.99	5.74
630.323	5.7
630.656	5.74
630.989	5.72
631.322	5.74
631.655	5.71
631.987	5.75
632.32	5.73
632.653	5.73
632.986	5.68
633.318	5.65
633.651	5.67
633.984	5.69
634.316	5.71
634.649	5.72
634.981	5.72
635.313	5.73
635.646	5.73
635.978	5.78
636.31	5.79
636.643	5.76
636.975	5.68
637.307	5.72
637.639	5.75
637.971	5.69
638.303	5.69
638.635	5.65
638.967	5.62
639.299	5.59
639.631	5.56
639.963	5.56
640.295	5.56
640.626	5.49
640.958	5.56
641.29	5.56
641.621	5.56
641.953	5.55
642.285	5.52
642.616	5.55
642.948	5.56
643.279	5.57
643.61	5.58
643.942	5.63
644.273	5.63
644.604	5.62
644.936	5.69
645.267	5.73
645.598	5.78
645.929	5.78
646.26	5.87
646.591	5.88
646.922	5.85
647.253	5.87
647.584	5.85
647.915	5.78
648.245	5.79
648.576	5.78
648.907	5.87
649.238	5.87
649.568	5.83
649.899	5.81
650.229	5.73
650.56	5.78
650.89	5.73
651.221	5.77
651.551	5.69
651.882	5.63
652.212	5.57
652.542	5.6
652.872	5.55
653.203	5.5
653.533	5.52
653.863	5.62
654.193	5.58
654.523	5.64
654.853	5.61
655.183	5.65
655.513	5.58
655.843	5.53
656.172	5.57
656.502	5.63
656.832	5.62
657.162	5.65
657.491	5.62
657.821	5.73
658.15	5.68
658.48	5.68
658.809	5.69
659.139	5.78
659.468	5.72
659.798	5.82
660.127	5.94
660.456	6.01
660.785	5.96
661.115	5.97
661.444	5.97
661.773	6.02
662.102	5.97
662.431	6.03
662.76	6.06
663.089	6.02
663.418	5.96
663.747	5.95
664.076	6.01
664.404	5.95
664.733	5.85
665.062	5.89
665.39	5.96
665.719	6
666.048	5.95
666.376	6.01
666.705	5.98
667.033	5.83
667.362	5.8
667.69	5.87
668.018	5.86
668.347	5.8
668.675	5.82
669.003	5.9
669.331	5.96
669.659	5.94
669.987	5.96
670.315	6.03
670.643	6.07
670.971	6.05
671.299	6.17
671.627	6.21
671.955	6.18
672.283	6.25
672.61	6.28
672.938	6.36
673.266	6.39
673.593	6.46
673.921	6.46
674.249	6.44
674.576	6.47
674.904	6.45
675.231	6.54
675.558	6.48
675.886	6.4
676.213	6.32
676.54	6.28
676.867	6.3
677.195	6.28
677.522	6.24
677.849	6.25
678.176	6.21
678.503	6.18
678.83	6.22
679.157	6.09
679.484	6
679.81	5.93
680.137	5.91
680.464	5.85
680.791	5.87
681.117	5.85
681.444	5.83
681.771	5.84
682.097	5.85
682.424	5.86
682.75	5.9
683.077	5.9
683.403	6.02
683.729	6
684.056	5.98
684.382	6.03
684.708	5.98
685.034	5.93
685.36	5.98
685.686	5.97
686.012	5.93
686.339	6.01
686.664	6
686.99	5.99
687.316	5.98
687.642	6.02
687.968	6.11
688.294	6.18
688.619	6.24
688.945	6.14
689.271	6.19
689.596	6.24
689.922	6.27
690.247	6.17
690.573	6.16
690.898	6.24
691.224	6.23
691.549	6.28
691.874	6.33
692.2	6.32
692.525	6.3
692.85	6.44
693.175	6.42
693.5	6.48
693.825	6.58
694.15	6.65
694.475	6.67
694.8	6.66
695.125	6.55
695.45	6.54
695.775	6.64
696.099	6.56
696.424	6.59
696.749	6.57
697.073	6.57
697.398	6.61
697.723	6.6
698.047	6.6
698.372	6.6
698.696	6.6
699.02	6.56
699.345	6.6
699.669	6.63
699.993	6.57
700.318	6.56
700.642	6.5
700.966	6.43
701.29	6.43
701.614	6.47
701.938	6.5
702.262	6.6
702.586	6.65
702.91	6.68
703.234	6.71
703.557	6.81
703.881	6.88
704.205	7.01
704.529	6.9
704.852	6.94
705.176	6.92
705.499	6.93
705.823	7.02
706.146	6.96
706.47	7.04
706.793	7.04
707.117	7.07
707.44	7.08
707.763	7.1
708.086	6.97
708.409	6.85
708.733	6.86
709.056	6.8
709.379	6.81
709.702	6.92
710.025	6.92
710.348	6.8
710.671	6.77
710.993	6.77
711.316	7
711.639	7.01
711.962	7.15
712.284	7.23
712.607	7.2
712.93	7.23
713.252	7.06
713.575	7.24
713.897	7.18
714.22	7.12
714.542	7.24
714.864	7.28
715.187	7.33
715.509	7.36
715.831	7.41
716.153	7.33
716.475	7.4
716.798	7.48
717.12	7.59
717.442	7.62
717.764	7.52
718.085	7.44
718.407	7.45
718.729	7.41
719.051	7.35
719.373	7.3
719.695	7.15
720.016	7.28
720.338	6.98
720.659	7.05
720.981	7.14
721.302	7.11
721.624	7.38
721.945	7.34
722.267	7.45
722.588	7.28
722.909	7.32
723.231	7.05
723.552	6.86
723.873	6.88
724.194	6.92
724.515	6.9
724.836	6.74
725.157	6.73
725.478	6.65
725.799	6.75
726.12	6.91
726.441	7
726.762	6.96
727.083	7.12
727.403	7.22
727.724	7.25
728.045	7.17
728.365	6.93
728.686	6.99
729.006	6.88
729.327	6.91
729.647	7
729.967	7.2
730.288	7.35
730.608	7.34
730.928	7.25
731.249	7.33
731.569	7.53
731.889	7.45
732.209	7.43
732.529	7.53
732.849	7.69
733.169	7.77
733.489	7.74
733.809	7.95
734.129	7.98
734.448	7.99
734.768	8.03
735.088	8.13
735.408	8.2
735.727	8.32
736.047	8.43
736.366	8.32
736.686	8.25
737.005	8.15
737.325	8.07
737.644	8.15
737.963	8.13
738.283	7.96
738.602	8.03
738.921	8.24
739.24	8.03
739.56	7.75
739.879	7.8
740.198	8.06
740.517	8.06
740.836	7.99
741.155	7.83
741.473	7.94
741.792	7.73
742.111	7.76
742.43	7.62
742.748	7.52
743.067	7.66
743.386	7.75
743.704	7.56
744.023	7.72
744.341	7.65
744.66	7.95
744.978	7.99
745.297	8.11
745.615	8.21
745.933	8.13
746.252	8.14
746.57	8.1
746.888	7.79
747.206	7.49
747.524	7.5
747.842	7.63
748.16	7.45
748.478	7.71
748.796	7.7
749.114	7.87
749.432	7.95
749.749	7.85
750.067	7.83
750.385	7.91
750.703	7.98
751.02	7.97
751.338	7.58
751.655	7.51
751.973	7.36
752.29	6.99
752.608	7.27
752.925	7.46
753.242	7.33
753.56	7.37
753.877	7.46
754.194	7.45
754.511	7.54
754.828	7.81
755.145	7.74
755.462	7.62
755.779	7.55
756.096	7.48
756.413	7.49
756.73	7.5
757.047	7.43
757.364	7.23
757.68	7.32
757.997	7.43
758.314	7.6
758.63	7.59
758.947	7.67
759.264	7.49
759.58	7.37
759.896	7.76
760.213	7.98
760.529	8.07
760.846	8.14
761.162	7.94
761.478	7.74
761.794	7.81
762.11	7.87
762.426	7.93
762.743	8.03
763.059	8.05
763.375	8.2
763.69	8.56
764.006	8.66
764.322	8.76
764.638	8.82
764.954	8.95
765.27	9.12
765.585	9.13
765.901	9.26
766.216	9.41
766.532	9.16
766.848	8.99
767.163	8.92
767.478	8.94
767.794	9.06
768.109	9.27
768.424	9.42
768.74	9.5
769.055	9.62
769.37	9.65
769.685	9.77
770	9.56
770.315	9.27
770.63	8.98
770.945	8.87
771.26	8.95
771.575	8.47
771.89	8.52
772.205	8.48
772.52	8.47
772.834	8.13
773.149	8.54
773.464	8.91
773.778	9.24
774.093	9.06
774.407	9.29
774.722	9.16
775.036	8.67
775.351	8.59
775.665	8.39
775.979	8.36
776.293	8.21
776.608	8.3
776.922	8.28
777.236	8.72
777.55	8.58
777.864	8.6
778.178	8.97
778.492	8.8
778.806	8.61
779.12	8.45
779.434	8.36
779.747	8.3
780.061	7.8
780.375	7.7
780.689	7.88
781.002	7.89
781.316	8.16
781.629	9.03
781.943	9.14
782.256	8.78
782.57	8.62
782.883	8.81
783.196	8.62
783.51	8.96
783.823	8.5
784.136	8.99
784.449	8.63
784.762	8.52
785.075	8.71
785.388	9.02
785.701	9.33
786.014	9.83
786.327	9.72
786.64	10.14
786.953	10.18
787.266	10.05
787.578	9.54
787.891	9.18
788.204	8.69
788.516	8.65
788.829	9.07
789.141	9.45
789.454	9.47
789.766	9.71
790.079	9.78
790.391	10.21
790.703	10.22
791.016	10.1
791.328	10.32
791.64	10.17
791.952	10.72
792.264	9.93
792.576	9.8
792.888	9.82
793.2	10.04
793.512	9.57
793.824	9.44
794.136	10.16
794.448	10.49
794.76	10.29
795.071	10.54
795.383	10.54
795.695	10.49
796.006	10.29
796.318	10.15
796.629	10.29
796.941	10.01
797.252	9.89
797.564	10.32
797.875	10.06
798.186	9.72
798.497	9.53
798.809	9.79
799.12	9.96
799.431	9.59
799.742	9.27
800.053	9.58
800.364	9.38
800.675	8.87
800.986	8.75
801.297	8.54
801.608	8.18
801.918	7.82
802.229	7.77
802.54	7.65
802.851	7.61
803.161	7.01
803.472	6.68
803.782	6.31
804.093	6.33
804.403	6.5
804.714	7.2
805.024	6.48
805.334	7.03
805.645	6.68
805.955	6.93
806.265	7.07
806.575	7.04
806.885	7.73
807.195	8.27
807.505	7.37
807.815	7.67
808.125	7.55
808.435	8.02
808.745	8.2
809.055	8.88
809.365	8.94
809.674	9.18
809.984	9.86
810.294	9.95
810.603	9.86
810.913	10.03
811.222	9.37
811.532	9.94
811.841	10.42
812.151	11.5
812.46	11.46
812.769	11.21
813.079	11.14
813.388	10.91
813.697	10.87
814.006	11.83
814.315	12.06
814.624	12.59
814.933	12.66
815.242	12.39
815.551	12.63
815.86	13.02
816.169	12.56
816.478	12.25
816.786	12.44
817.095	12.4
817.404	12.63
817.712	13.41
818.021	13.59
818.33	12.93
818.638	12.04
818.947	12.68
819.255	12.72
819.563	12.56
819.872	12.51
820.18	12.45
820.488	12.23
820.796	12.55
821.105	12.42
821.413	12.66
821.721	12.67
822.029	12.52
822.337	12.5
822.645	12.7
822.953	12.79
823.26	12.77
823.568	12.69
823.876	12.77
824.184	12.68
824.491	12.6
824.799	12.79
825.107	12.86
825.414	12.82
825.722	12.79
826.029	12.96
826.337	13.05
826.644	12.88
826.951	12.98
827.259	12.77
827.566	12.79
827.873	12.49
828.18	12.58
828.488	12.58
828.795	12.68
829.102	12.54
829.409	12.49
829.716	12.31
830.023	12.25
830.329	11.77
830.636	11.82
830.943	11.84
831.25	11.55
831.557	11.58
831.863	11.36
832.17	11.17
832.476	11.14
832.783	11.27
833.089	11.66
833.396	11.77
833.702	12.01
834.009	12.04
834.315	11.98
834.621	11.85
834.928	12.4
835.234	12.24
835.54	12.79
835.846	12.55
836.152	12.57
836.458	12.55
836.764	12.97
837.07	12.36
837.376	12.17
837.682	12.49
837.988	12.19
838.293	11.6
838.599	11.97
838.905	11.6
839.211	11.21
839.516	11.51
839.822	12.11
840.127	11.36
840.433	11.66
840.738	11.66
841.044	11.94
841.349	10.17
841.654	9.94
841.959	8.98
842.265	9.14
842.57	10.11
842.875	10.72
843.18	10.91
843.485	11.6
843.79	11.39
844.095	10.73
844.4	11.55
844.705	12.19
845.01	12.53
845.315	12
845.619	11.25
845.924	11.06
846.229	9.21
846.533	9.93
846.838	7.9
847.142	7.66
847.447	6.63
847.751	7.7
848.056	6.96
848.36	6.36
848.664	8.94
848.969	9
849.273	8.28
849.577	5.68
849.881	5.64
850.185	6.88
850.489	6.87
850.794	5.27
851.097	5.62
851.401	5.4
851.705	6.25
852.009	8.32
852.313	8.62
852.617	9.53
852.92	9.39
853.224	10.27
853.528	11.33
853.831	11.53
854.135	10.42
854.438	11.45
854.742	9.58
855.045	7
855.349	6.11
855.652	7.95
855.955	9.89
856.259	8.53
856.562	8.19
856.865	8.06
857.168	9.39
857.471	10
857.774	8.56
858.077	9.66
858.38	9.08
858.683	6.79
858.986	8.15
859.289	8.54
859.592	9.06
859.894	9.49
860.197	9.62
860.5	10.85
860.802	10.79
861.105	12.85
861.407	11.28
861.71	12.14
862.012	11.18
862.315	11.36
862.617	11.32
862.919	11.06
863.222	11.08
863.524	9.53
863.826	6.85
864.128	7.46
864.43	6.74
864.732	6.63
865.034	8.9
865.336	5.9
865.638	5.08
865.94	2.96
866.242	2.39
866.544	1.58
866.846	0.82
867.147	-1.75
867.449	-1.79
867.751	0.24
868.052	-0.66
868.354	-1.65
868.655	-1.79
868.957	1.09
869.258	1.52
869.56	0.52
869.861	0.97
870.162	2.07
870.463	1.13
870.765	1.73
871.066	1.83
871.367	0.19
871.668	0.87
871.969	0.79
872.27	2.09
872.571	2.66
872.872	4.79
873.173	4.19
873.473	5.99
873.774	6.14
874.075	4.77
874.376	3.13
874.676	5.17
874.977	5.16
875.277	4.44
875.578	3.52
875.878	3.87
876.179	4.54
876.479	6.11
876.78	7.11
877.08	6.32
877.38	5.22
877.68	5.84
877.981	7.19
878.281	7.89
878.581	10.79
