Data from BA28300_Reflection_00005.txt Node
Date: Mon Nov 18 15:58:08 EST 2019
User: vgr7
Spectrometer: USB2G7710
Scans to average: 3
Trigger mode: 4
Integration Time (sec): 2.000000E-2
Electric dark correction enabled: true
Boxcar width: 10
XAxis mode: Wavelengths
Number of Pixels in Spectrum: 2048
>>>>>Begin Spectral Data<<<<<
177.721	37.34
178.105	452.94
178.488	-63.16
178.871	-33.25
179.254	79.24
179.636	80.67
180.019	14.38
180.402	75
180.785	9.17
181.168	-80.26
181.55	54.89
181.933	145.05
182.316	115.14
182.698	108.87
183.081	127.2
183.463	179.14
183.846	221.26
184.228	198.58
184.611	389.93
184.993	-2688.73
185.376	-11900
185.758	830.63
186.14	702.08
186.522	424.32
186.904	371.05
187.287	818.15
187.669	-264.19
188.051	-2815.89
188.433	6748.65
188.815	-365.18
189.197	-729.44
189.579	-556.12
189.961	-1115.43
190.342	-1644.49
190.724	-528.22
191.106	-558.19
191.488	-510.58
191.869	-514
192.251	-1003.06
192.633	-1124.08
193.014	1184.55
193.396	629.67
193.777	-1586.83
194.159	2808.57
194.54	-27429.41
194.922	2320.99
195.303	-5023.6
195.684	-5730.99
196.065	-524.78
196.447	-554.1
196.828	-1424.12
197.209	-472.28
197.59	-832.55
197.971	-757.14
198.352	-250.04
198.733	-313.06
199.114	-258.42
199.495	-309.94
199.876	-248.36
200.257	-192.85
200.638	-164.85
201.018	-124.64
201.399	-125.27
201.78	-94.38
202.16	-75.07
202.541	-137.55
202.922	-332.92
203.302	-529.55
203.683	-594.88
204.063	-341.89
204.444	-240.18
204.824	-205.69
205.204	-289.81
205.585	-191.7
205.965	-133.87
206.345	-265.16
206.725	-648.24
207.106	-2824.37
207.486	-868.3
207.866	-3369.88
208.246	-593.79
208.626	-392.48
209.006	-209.96
209.386	-270.51
209.766	-457.09
210.145	-329.58
210.525	-210.28
210.905	-151.42
211.285	-157.31
211.664	-147.51
212.044	-158.23
212.424	-156.87
212.803	-119.86
213.183	-94.74
213.562	-98.15
213.942	-73.27
214.321	-30.78
214.701	-20.66
215.08	-19.04
215.459	-27.28
215.838	-21.82
216.218	-27.31
216.597	-17.31
216.976	-9.03
217.355	-13.67
217.734	-2.88
218.113	11.74
218.492	-10.46
218.871	-4.69
219.25	-6.35
219.629	-1.76
220.008	5.19
220.387	-0.8
220.766	9.71
221.144	-3.78
221.523	-14.76
221.902	-27.48
222.28	-42.88
222.659	-33.29
223.037	-15.01
223.416	-18
223.794	-10.74
224.173	-12.54
224.551	-7.18
224.929	-8.74
225.308	-4.96
225.686	-5.64
226.064	1.89
226.442	6.31
226.821	8.01
227.199	6.59
227.577	6.18
227.955	2.57
228.333	4.21
228.711	1.57
229.089	1.94
229.467	3.26
229.845	3.13
230.222	8.12
230.6	6.55
230.978	3.62
231.356	6.54
231.733	3.76
232.111	3.87
232.488	2.61
232.866	1.39
233.243	2.36
233.621	1.37
233.998	-0.32
234.376	-0.69
234.753	-1.29
235.13	0.8
235.508	2.32
235.885	3.63
236.262	3.29
236.639	1.43
237.016	1.94
237.393	3.33
237.77	3.76
238.147	3.53
238.524	4.48
238.901	4.83
239.278	5.18
239.655	4.97
240.032	5.12
240.409	5.09
240.785	5.18
241.162	4.79
241.539	4.99
241.915	4.44
242.292	3.94
242.668	3.98
243.045	3.72
243.421	3.34
243.798	3.18
244.174	3.26
244.551	3.46
244.927	3.23
245.303	3.26
245.679	3.39
246.056	3.41
246.432	3.2
246.808	3.3
247.184	2.96
247.56	2.9
247.936	2.81
248.312	2.59
248.688	2.69
249.064	2.59
249.44	2.65
249.815	2.77
250.191	2.95
250.567	2.82
250.943	2.57
251.318	2.73
251.694	2.77
252.069	2.61
252.445	2.64
252.82	2.63
253.196	2.38
253.571	2.47
253.947	2.62
254.322	2.88
254.697	2.82
255.073	2.73
255.448	2.84
255.823	2.98
256.198	3.2
256.573	3.11
256.948	3.44
257.323	3.42
257.698	3.46
258.073	3.35
258.448	3.27
258.823	3.46
259.198	3.32
259.573	3.2
259.948	3.06
260.322	2.91
260.697	2.85
261.072	2.79
261.446	2.64
261.821	2.42
262.195	2.4
262.57	2.35
262.944	2.35
263.319	2.28
263.693	2.26
264.067	2.36
264.442	2.31
264.816	2.14
265.19	2.01
265.564	1.98
265.938	1.94
266.313	1.99
266.687	1.96
267.061	2.13
267.435	2.39
267.809	2.7
268.183	2.78
268.556	2.91
268.93	2.89
269.304	2.83
269.678	2.83
270.051	2.74
270.425	2.72
270.799	2.78
271.172	2.81
271.546	2.72
271.919	2.56
272.293	2.52
272.666	2.73
273.04	2.68
273.413	2.68
273.787	2.63
274.16	2.63
274.533	2.67
274.906	2.67
275.279	2.58
275.653	2.24
276.026	2.28
276.399	2.25
276.772	2.41
277.145	2.4
277.518	2.41
277.891	2.37
278.263	2.25
278.636	2.17
279.009	2.15
279.382	2.32
279.755	2.36
280.127	2.6
280.5	2.5
280.872	2.7
281.245	2.67
281.617	2.93
281.99	2.96
282.362	2.85
282.735	2.66
283.107	2.67
283.479	2.91
283.852	2.92
284.224	2.96
284.596	3.05
284.968	3.16
285.34	3.31
285.713	3.38
286.085	3.5
286.457	3.66
286.829	3.7
287.201	3.6
287.572	3.56
287.944	3.44
288.316	3.52
288.688	3.37
289.06	3.31
289.431	3.2
289.803	3.25
290.175	3.35
290.546	3.53
290.918	3.44
291.289	3.42
291.661	3.28
292.032	3.28
292.403	3.04
292.775	3.1
293.146	2.91
293.517	2.85
293.889	2.83
294.26	2.76
294.631	2.79
295.002	2.8
295.373	2.88
295.744	2.89
296.115	2.79
296.486	2.74
296.857	2.75
297.228	2.77
297.599	2.72
297.97	2.73
298.34	2.72
298.711	2.92
299.082	2.93
299.452	3.07
299.823	3.14
300.194	3.23
300.564	3.09
300.935	3.14
301.305	3.25
301.676	3.34
302.046	3.36
302.416	3.42
302.787	3.57
303.157	3.49
303.527	3.52
303.897	3.56
304.267	3.85
304.637	3.79
305.008	3.78
305.378	3.83
305.748	3.91
306.117	3.67
306.487	3.52
306.857	3.4
307.227	3.29
307.597	3.18
307.967	3.17
308.336	3.29
308.706	3.32
309.076	3.31
309.445	3.22
309.815	3.19
310.184	3.09
310.554	2.89
310.923	2.86
311.293	2.72
311.662	2.72
312.031	2.53
312.401	2.69
312.77	2.82
313.139	2.8
313.508	2.77
313.877	2.96
314.246	2.99
314.616	3.11
314.985	3.19
315.353	3.21
315.722	3.3
316.091	3.22
316.46	3.07
316.829	2.98
317.198	3.05
317.567	3.08
317.935	3.17
318.304	3.24
318.672	3.37
319.041	3.61
319.41	3.64
319.778	3.71
320.147	3.7
320.515	3.53
320.883	3.41
321.252	3.39
321.62	3.36
321.988	3.33
322.357	3.28
322.725	3.19
323.093	3.28
323.461	3.25
323.829	3.13
324.197	3.35
324.565	3.39
324.933	3.34
325.301	3.35
325.669	3.18
326.037	3.18
326.405	3.04
326.772	2.91
327.14	3.01
327.508	3.02
327.875	2.93
328.243	2.95
328.61	3.12
328.978	3.06
329.346	3.15
329.713	2.99
330.08	2.95
330.448	2.84
330.815	2.81
331.182	2.75
331.55	2.84
331.917	2.72
332.284	2.78
332.651	2.7
333.018	2.69
333.385	2.77
333.752	2.89
334.119	3.09
334.486	3.11
334.853	3.02
335.22	3.08
335.587	3.05
335.954	3.09
336.32	2.96
336.687	2.9
337.054	2.81
337.42	2.96
337.787	3.07
338.153	3.12
338.52	3.08
338.886	3.09
339.253	3.09
339.619	3.05
339.986	3.01
340.352	3.11
340.718	3.07
341.084	3.03
341.451	3.01
341.817	2.96
342.183	2.98
342.549	2.8
342.915	2.76
343.281	2.77
343.647	2.76
344.013	2.78
344.379	2.76
344.745	2.73
345.11	2.74
345.476	2.71
345.842	2.84
346.208	2.75
346.573	2.77
346.939	2.84
347.304	2.91
347.67	2.87
348.035	2.84
348.401	2.86
348.766	2.97
349.132	2.91
349.497	2.82
349.862	2.82
350.228	2.96
350.593	2.86
350.958	2.87
351.323	2.83
351.688	2.94
352.053	3.03
352.418	3.05
352.783	3.06
353.148	3.07
353.513	3.04
353.878	3.07
354.243	3.12
354.608	3.07
354.972	3.1
355.337	3.14
355.702	3.18
356.066	3.27
356.431	3.18
356.795	3.26
357.16	3.32
357.524	3.37
357.889	3.34
358.253	3.42
358.618	3.46
358.982	3.43
359.346	3.31
359.71	3.24
360.075	3.25
360.439	3.28
360.803	3.26
361.167	3.19
361.531	3.23
361.895	3.2
362.259	3.22
362.623	3.16
362.987	3.13
363.351	3.07
363.714	3.01
364.078	3.04
364.442	2.98
364.806	2.93
365.169	2.88
365.533	2.88
365.896	2.88
366.26	2.86
366.623	2.89
366.987	2.91
367.35	2.93
367.714	2.89
368.077	2.81
368.44	2.84
368.803	2.92
369.167	2.89
369.53	2.88
369.893	2.91
370.256	2.94
370.619	2.93
370.982	2.96
371.345	2.97
371.708	2.95
372.071	2.95
372.434	2.94
372.797	3.03
373.159	3
373.522	3.03
373.885	3.04
374.247	3.02
374.61	3.09
374.973	3.11
375.335	3.16
375.698	3.21
376.06	3.2
376.423	3.16
376.785	3.18
377.147	3.26
377.51	3.21
377.872	3.25
378.234	3.27
378.596	3.29
378.958	3.26
379.321	3.29
379.683	3.3
380.045	3.37
380.407	3.35
380.769	3.39
381.13	3.38
381.492	3.37
381.854	3.43
382.216	3.38
382.578	3.36
382.939	3.37
383.301	3.35
383.663	3.32
384.024	3.32
384.386	3.4
384.747	3.34
385.109	3.34
385.47	3.33
385.832	3.34
386.193	3.34
386.554	3.38
386.916	3.37
387.277	3.36
387.638	3.31
387.999	3.26
388.36	3.29
388.721	3.3
389.082	3.27
389.443	3.19
389.804	3.25
390.165	3.27
390.526	3.21
390.887	3.21
391.248	3.24
391.609	3.27
391.969	3.21
392.33	3.19
392.691	3.23
393.051	3.2
393.412	3.23
393.772	3.22
394.133	3.23
394.493	3.23
394.854	3.25
395.214	3.28
395.574	3.29
395.935	3.26
396.295	3.25
396.655	3.27
397.015	3.3
397.376	3.26
397.736	3.23
398.096	3.3
398.456	3.33
398.816	3.3
399.176	3.3
399.535	3.31
399.895	3.31
400.255	3.31
400.615	3.34
400.975	3.32
401.334	3.29
401.694	3.31
402.054	3.29
402.413	3.3
402.773	3.27
403.132	3.28
403.492	3.3
403.851	3.3
404.211	3.29
404.57	3.27
404.929	3.29
405.288	3.32
405.648	3.3
406.007	3.26
406.366	3.29
406.725	3.3
407.084	3.29
407.443	3.31
407.802	3.28
408.161	3.25
408.52	3.23
408.879	3.22
409.238	3.2
409.596	3.22
409.955	3.2
410.314	3.23
410.673	3.21
411.031	3.21
411.39	3.2
411.748	3.22
412.107	3.23
412.465	3.19
412.824	3.2
413.182	3.21
413.54	3.2
413.899	3.18
414.257	3.17
414.615	3.15
414.974	3.14
415.332	3.15
415.69	3.14
416.048	3.15
416.406	3.16
416.764	3.13
417.122	3.13
417.48	3.12
417.838	3.1
418.195	3.13
418.553	3.13
418.911	3.12
419.269	3.12
419.626	3.11
419.984	3.12
420.342	3.11
420.699	3.09
421.057	3.1
421.414	3.1
421.772	3.11
422.129	3.13
422.486	3.12
422.844	3.12
423.201	3.13
423.558	3.13
423.915	3.13
424.273	3.15
424.63	3.15
424.987	3.14
425.344	3.14
425.701	3.12
426.058	3.11
426.415	3.1
426.772	3.11
427.128	3.13
427.485	3.12
427.842	3.14
428.199	3.14
428.555	3.15
428.912	3.14
429.269	3.13
429.625	3.13
429.982	3.14
430.338	3.13
430.695	3.12
431.051	3.14
431.407	3.14
431.764	3.12
432.12	3.13
432.476	3.15
432.832	3.17
433.189	3.16
433.545	3.16
433.901	3.18
434.257	3.16
434.613	3.15
434.969	3.15
435.325	3.13
435.681	3.14
436.036	3.14
436.392	3.15
436.748	3.13
437.104	3.12
437.459	3.11
437.815	3.12
438.171	3.11
438.526	3.11
438.882	3.12
439.237	3.12
439.593	3.12
439.948	3.11
440.304	3.1
440.659	3.12
441.014	3.13
441.369	3.11
441.725	3.11
442.08	3.1
442.435	3.11
442.79	3.11
443.145	3.1
443.5	3.1
443.855	3.1
444.21	3.1
444.565	3.1
444.92	3.12
445.275	3.11
445.629	3.12
445.984	3.12
446.339	3.11
446.693	3.1
447.048	3.08
447.403	3.08
447.757	3.07
448.112	3.06
448.466	3.05
448.82	3.06
449.175	3.06
449.529	3.07
449.883	3.06
450.238	3.07
450.592	3.07
450.946	3.05
451.3	3.05
451.654	3.04
452.008	3.06
452.362	3.02
452.716	3.03
453.07	3.03
453.424	3.04
453.778	3.04
454.132	3.05
454.486	3.06
454.839	3.04
455.193	3.04
455.547	3.04
455.9	3.06
456.254	3.06
456.607	3.06
456.961	3.06
457.314	3.07
457.668	3.06
458.021	3.06
458.375	3.06
458.728	3.08
459.081	3.07
459.434	3.07
459.787	3.08
460.141	3.09
460.494	3.07
460.847	3.07
461.2	3.07
461.553	3.07
461.906	3.08
462.259	3.1
462.611	3.11
462.964	3.12
463.317	3.1
463.67	3.1
464.022	3.08
464.375	3.08
464.728	3.07
465.08	3.06
465.433	3.07
465.785	3.06
466.138	3.06
466.49	3.08
466.843	3.08
467.195	3.07
467.547	3.06
467.899	3.05
468.252	3.04
468.604	3.02
468.956	3.02
469.308	3.03
469.66	3
470.012	3
470.364	3
470.716	3.01
471.068	3
471.42	3.02
471.772	3.04
472.123	3.05
472.475	3.05
472.827	3.06
473.178	3.08
473.53	3.08
473.882	3.07
474.233	3.07
474.585	3.08
474.936	3.06
475.288	3.09
475.639	3.12
475.99	3.12
476.342	3.14
476.693	3.14
477.044	3.16
477.395	3.16
477.746	3.17
478.097	3.16
478.448	3.18
478.8	3.17
479.15	3.15
479.501	3.16
479.852	3.16
480.203	3.14
480.554	3.15
480.905	3.14
481.255	3.15
481.606	3.15
481.957	3.15
482.307	3.17
482.658	3.16
483.009	3.16
483.359	3.16
483.709	3.16
484.06	3.16
484.41	3.16
484.761	3.17
485.111	3.17
485.461	3.18
485.811	3.19
486.162	3.19
486.512	3.2
486.862	3.2
487.212	3.2
487.562	3.21
487.912	3.21
488.262	3.22
488.612	3.23
488.961	3.23
489.311	3.24
489.661	3.23
490.011	3.24
490.36	3.25
490.71	3.25
491.06	3.26
491.409	3.26
491.759	3.27
492.108	3.26
492.458	3.26
492.807	3.25
493.157	3.24
493.506	3.24
493.855	3.24
494.204	3.25
494.554	3.25
494.903	3.25
495.252	3.23
495.601	3.24
495.95	3.24
496.299	3.25
496.648	3.25
496.997	3.24
497.346	3.27
497.695	3.26
498.043	3.26
498.392	3.25
498.741	3.27
499.09	3.26
499.438	3.28
499.787	3.27
500.135	3.29
500.484	3.3
500.832	3.31
501.181	3.29
501.529	3.29
501.878	3.31
502.226	3.34
502.574	3.35
502.923	3.34
503.271	3.34
503.619	3.34
503.967	3.34
504.315	3.35
504.663	3.35
505.011	3.35
505.359	3.39
505.707	3.39
506.055	3.38
506.403	3.4
506.751	3.4
507.098	3.4
507.446	3.41
507.794	3.42
508.141	3.45
508.489	3.47
508.837	3.49
509.184	3.5
509.531	3.49
509.879	3.51
510.226	3.53
510.574	3.53
510.921	3.52
511.268	3.54
511.616	3.55
511.963	3.55
512.31	3.57
512.657	3.56
513.004	3.57
513.351	3.58
513.698	3.59
514.045	3.61
514.392	3.63
514.739	3.63
515.086	3.62
515.432	3.6
515.779	3.6
516.126	3.6
516.473	3.6
516.819	3.63
517.166	3.63
517.512	3.61
517.859	3.6
518.205	3.61
518.552	3.63
518.898	3.63
519.245	3.61
519.591	3.6
519.937	3.6
520.283	3.6
520.629	3.63
520.976	3.61
521.322	3.61
521.668	3.61
522.014	3.62
522.36	3.63
522.706	3.65
523.052	3.66
523.398	3.66
523.743	3.65
524.089	3.63
524.435	3.64
524.781	3.67
525.126	3.69
525.472	3.7
525.817	3.68
526.163	3.68
526.509	3.71
526.854	3.71
527.199	3.72
527.545	3.72
527.89	3.72
528.235	3.73
528.581	3.74
528.926	3.73
529.271	3.73
529.616	3.73
529.961	3.72
530.306	3.72
530.651	3.73
530.996	3.73
531.341	3.73
531.686	3.73
532.031	3.73
532.376	3.74
532.721	3.74
533.065	3.73
533.41	3.74
533.755	3.74
534.099	3.75
534.444	3.75
534.788	3.76
535.133	3.75
535.477	3.75
535.822	3.76
536.166	3.78
536.51	3.79
536.855	3.79
537.199	3.79
537.543	3.79
537.887	3.78
538.231	3.78
538.576	3.8
538.92	3.79
539.264	3.79
539.608	3.78
539.951	3.77
540.295	3.78
540.639	3.79
540.983	3.78
541.327	3.77
541.671	3.76
542.014	3.75
542.358	3.76
542.701	3.76
543.045	3.76
543.389	3.75
543.732	3.75
544.075	3.76
544.419	3.77
544.762	3.76
545.105	3.75
545.449	3.77
545.792	3.77
546.135	3.78
546.478	3.78
546.821	3.76
547.165	3.77
547.508	3.8
547.851	3.79
548.194	3.81
548.536	3.79
548.879	3.82
549.222	3.81
549.565	3.82
549.908	3.81
550.25	3.8
550.593	3.8
550.936	3.8
551.278	3.8
551.621	3.8
551.963	3.81
552.306	3.83
552.648	3.83
552.991	3.84
553.333	3.82
553.675	3.79
554.017	3.83
554.36	3.84
554.702	3.82
555.044	3.83
555.386	3.83
555.728	3.85
556.07	3.83
556.412	3.84
556.754	3.86
557.096	3.84
557.438	3.82
557.78	3.81
558.121	3.82
558.463	3.81
558.805	3.81
559.147	3.81
559.488	3.83
559.83	3.82
560.171	3.81
560.513	3.84
560.854	3.86
561.196	3.85
561.537	3.83
561.878	3.8
562.22	3.79
562.561	3.8
562.902	3.84
563.243	3.85
563.584	3.87
563.925	3.86
564.266	3.85
564.607	3.86
564.948	3.89
565.289	3.88
565.63	3.9
565.971	3.88
566.312	3.86
566.653	3.84
566.993	3.85
567.334	3.86
567.675	3.86
568.015	3.85
568.356	3.86
568.696	3.86
569.037	3.9
569.377	3.93
569.718	3.93
570.058	3.9
570.398	3.9
570.739	3.89
571.079	3.86
571.419	3.88
571.759	3.9
572.099	3.85
572.439	3.87
572.779	3.86
573.119	3.89
573.459	3.92
573.799	3.97
574.139	3.98
574.479	3.95
574.819	3.95
575.158	4
575.498	3.98
575.838	3.99
576.177	3.94
576.517	3.92
576.856	3.93
577.196	3.93
577.535	3.92
577.875	3.94
578.214	3.97
578.553	3.97
578.893	3.94
579.232	3.96
579.571	3.93
579.91	3.92
580.25	3.89
580.589	3.89
580.928	3.87
581.267	3.84
581.606	3.84
581.945	3.78
582.283	3.73
582.622	3.74
582.961	3.77
583.3	3.79
583.639	3.81
583.977	3.79
584.316	3.79
584.654	3.8
584.993	3.79
585.332	3.82
585.67	3.85
586.008	3.88
586.347	3.86
586.685	3.86
587.024	3.87
587.362	3.89
587.7	3.91
588.038	3.93
588.376	3.95
588.715	3.98
589.053	4.03
589.391	4.05
589.729	4.07
590.067	4.01
590.404	4.02
590.742	4.01
591.08	4.04
591.418	4.01
591.756	4
592.093	4
592.431	3.98
592.769	3.96
593.106	3.95
593.444	3.96
593.781	3.97
594.119	3.99
594.456	3.93
594.793	3.92
595.131	3.9
595.468	3.9
595.805	3.91
596.143	3.92
596.48	3.89
596.817	3.88
597.154	3.91
597.491	3.88
597.828	3.87
598.165	3.84
598.502	3.84
598.839	3.86
599.176	3.85
599.512	3.82
599.849	3.82
600.186	3.81
600.523	3.87
600.859	3.89
601.196	3.91
601.532	3.93
601.869	3.93
602.205	3.91
602.542	3.92
602.878	3.89
603.215	3.91
603.551	3.95
603.887	3.94
604.223	3.92
604.56	3.96
604.896	3.96
605.232	4.02
605.568	4.06
605.904	4.06
606.24	4.06
606.576	4.1
606.912	4.12
607.248	4.15
607.583	4.13
607.919	4.13
608.255	4.1
608.591	4.15
608.926	4.14
609.262	4.16
609.597	4.14
609.933	4.17
610.268	4.16
610.604	4.16
610.939	4.18
611.275	4.23
611.61	4.2
611.945	4.24
612.281	4.17
612.616	4.15
612.951	4.17
613.286	4.2
613.621	4.19
613.956	4.17
614.291	4.18
614.626	4.18
614.961	4.17
615.296	4.13
615.631	4.15
615.966	4.14
616.3	4.11
616.635	4.14
616.97	4.09
617.304	4.03
617.639	4.04
617.973	4.04
618.308	4.01
618.642	4.03
618.977	3.98
619.311	3.95
619.646	3.98
619.98	3.95
620.314	3.93
620.648	3.91
620.983	3.92
621.317	3.91
621.651	3.94
621.985	3.93
622.319	3.99
622.653	3.98
622.987	3.99
623.321	4.04
623.655	4.01
623.988	4.05
624.322	4.05
624.656	4.04
624.99	4.04
625.323	4.06
625.657	4.05
625.99	4.07
626.324	4.16
626.657	4.16
626.991	4.13
627.324	4.11
627.658	4.13
627.991	4.17
628.324	4.15
628.657	4.09
628.991	4.09
629.324	4.09
629.657	4.06
629.99	4.1
630.323	4.07
630.656	4.16
630.989	4.19
631.322	4.21
631.655	4.28
631.987	4.29
632.32	4.3
632.653	4.28
632.986	4.32
633.318	4.31
633.651	4.29
633.984	4.34
634.316	4.4
634.649	4.42
634.981	4.42
635.313	4.47
635.646	4.49
635.978	4.55
636.31	4.49
636.643	4.47
636.975	4.44
637.307	4.47
637.639	4.36
637.971	4.29
638.303	4.28
638.635	4.17
638.967	4.17
639.299	4.17
639.631	4.16
639.963	4.07
640.295	4.06
640.626	4.08
640.958	4.12
641.29	4.1
641.621	4.03
641.953	4.02
642.285	4.01
642.616	4.08
642.948	4.02
643.279	4.12
643.61	4.17
643.942	4.18
644.273	4.14
644.604	4.19
644.936	4.26
645.267	4.28
645.598	4.3
645.929	4.29
646.26	4.23
646.591	4.3
646.922	4.3
647.253	4.37
647.584	4.36
647.915	4.26
648.245	4.28
648.576	4.37
648.907	4.35
649.238	4.31
649.568	4.33
649.899	4.37
650.229	4.37
650.56	4.38
650.89	4.44
651.221	4.46
651.551	4.45
651.882	4.4
652.212	4.44
652.542	4.56
652.872	4.55
653.203	4.61
653.533	4.6
653.863	4.67
654.193	4.59
654.523	4.6
654.853	4.63
655.183	4.62
655.513	4.57
655.843	4.51
656.172	4.56
656.502	4.5
656.832	4.57
657.162	4.57
657.491	4.57
657.821	4.52
658.15	4.56
658.48	4.59
658.809	4.62
659.139	4.58
659.468	4.5
659.798	4.59
660.127	4.6
660.456	4.59
660.785	4.53
661.115	4.54
661.444	4.51
661.773	4.66
662.102	4.67
662.431	4.72
662.76	4.73
663.089	4.73
663.418	4.67
663.747	4.53
664.076	4.59
664.404	4.58
664.733	4.6
665.062	4.56
665.39	4.61
665.719	4.57
666.048	4.54
666.376	4.52
666.705	4.45
667.033	4.41
667.362	4.47
667.69	4.47
668.018	4.49
668.347	4.52
668.675	4.41
669.003	4.39
669.331	4.45
669.659	4.49
669.987	4.43
670.315	4.51
670.643	4.6
670.971	4.52
671.299	4.59
671.627	4.53
671.955	4.53
672.283	4.54
672.61	4.53
672.938	4.6
673.266	4.67
673.593	4.77
673.921	4.83
674.249	4.75
674.576	4.8
674.904	4.8
675.231	4.68
675.558	4.7
675.886	4.79
676.213	4.7
676.54	4.67
676.867	4.75
677.195	4.77
677.522	4.71
677.849	4.66
678.176	4.6
678.503	4.61
678.83	4.63
679.157	4.54
679.484	4.54
679.81	4.59
680.137	4.62
680.464	4.52
680.791	4.51
681.117	4.51
681.444	4.53
681.771	4.57
682.097	4.66
682.424	4.66
682.75	4.52
683.077	4.53
683.403	4.61
683.729	4.58
684.056	4.63
684.382	4.63
684.708	4.74
685.034	4.73
685.36	4.73
685.686	4.69
686.012	4.71
686.339	4.8
686.664	4.72
686.99	4.68
687.316	4.71
687.642	4.72
687.968	4.73
688.294	4.75
688.619	4.68
688.945	4.69
689.271	4.64
689.596	4.69
689.922	4.74
690.247	4.69
690.573	4.67
690.898	4.57
691.224	4.69
691.549	4.62
691.874	4.55
692.2	4.62
692.525	4.7
692.85	4.87
693.175	4.89
693.5	4.88
693.825	4.87
694.15	4.88
694.475	4.81
694.8	4.88
695.125	4.8
695.45	4.85
695.775	4.9
696.099	4.93
696.424	4.85
696.749	4.77
697.073	4.79
697.398	4.8
697.723	4.92
698.047	4.79
698.372	4.78
698.696	4.89
699.02	4.91
699.345	4.85
699.669	4.75
699.993	4.61
700.318	4.65
700.642	4.64
700.966	4.6
701.29	4.66
701.614	4.69
701.938	4.72
702.262	4.79
702.586	4.74
702.91	4.71
703.234	4.77
703.557	4.84
703.881	4.84
704.205	4.86
704.529	4.69
704.852	4.72
705.176	4.75
705.499	4.74
705.823	4.62
706.146	4.66
706.47	4.84
706.793	4.94
707.117	5.04
707.44	5.12
707.763	5.16
708.086	5.11
708.409	5.02
708.733	5.02
709.056	4.93
709.379	5.13
709.702	5.13
710.025	5.19
710.348	5.13
710.671	5.05
710.993	5.1
711.316	5.14
711.639	5.24
711.962	5.38
712.284	5.32
712.607	5.39
712.93	5.48
713.252	5.34
713.575	5.36
713.897	5.34
714.22	5.36
714.542	5.41
714.864	5.43
715.187	5.48
715.509	5.49
715.831	5.55
716.153	5.42
716.475	5.45
716.798	5.48
717.12	5.52
717.442	5.56
717.764	5.44
718.085	5.59
718.407	5.43
718.729	5.36
719.051	5.36
719.373	5.18
719.695	5.23
720.016	5.46
720.338	5.63
720.659	5.69
720.981	5.68
721.302	5.82
721.624	5.92
721.945	5.93
722.267	5.85
722.588	5.68
722.909	5.71
723.231	5.67
723.552	5.66
723.873	5.82
724.194	5.91
724.515	6.1
724.836	5.92
725.157	6.17
725.478	6.01
725.799	6.13
726.12	6.25
726.441	6.16
726.762	5.87
727.083	5.63
727.403	5.58
727.724	5.64
728.045	5.56
728.365	5.5
728.686	5.36
729.006	5.62
729.327	5.62
729.647	5.65
729.967	5.67
730.288	5.62
730.608	5.46
730.928	5.46
731.249	5.37
731.569	5.51
731.889	5.46
732.209	5.62
732.529	5.57
732.849	5.57
733.169	5.47
733.489	5.49
733.809	5.51
734.129	5.4
734.448	5.23
734.768	5.23
735.088	5.26
735.408	5.45
735.727	5.46
736.047	5.6
736.366	5.46
736.686	5.52
737.005	5.7
737.325	5.67
737.644	5.71
737.963	5.75
738.283	5.33
738.602	5.4
738.921	5.43
739.24	5.35
739.56	5.45
739.879	5.62
740.198	5.88
740.517	5.95
740.836	6.02
741.155	6.02
741.473	6.09
741.792	6.03
742.111	6.18
742.43	5.82
742.748	5.9
743.067	6
743.386	6
743.704	5.8
744.023	5.98
744.341	5.89
744.66	6.05
744.978	6.22
745.297	5.99
745.615	5.79
745.933	5.92
746.252	6.04
746.57	5.92
746.888	5.84
747.206	5.68
747.524	5.55
747.842	5.75
748.16	5.78
748.478	5.95
748.796	5.72
749.114	6.22
749.432	6.14
749.749	6.25
750.067	6.14
750.385	6.26
750.703	6.08
751.02	6.13
751.338	6.01
751.655	6.05
751.973	6.05
752.29	6.24
752.608	6.3
752.925	6.2
753.242	6.18
753.56	6.18
753.877	6.34
754.194	6.61
754.511	6.6
754.828	6.35
755.145	6.06
755.462	6.11
755.779	5.91
756.096	5.92
756.413	5.97
756.73	6.27
757.047	6.25
757.364	6.3
757.68	6.51
757.997	6.55
758.314	6.75
758.63	6.8
758.947	6.82
759.264	6.83
759.58	6.83
759.896	6.95
760.213	6.9
760.529	6.98
760.846	6.86
761.162	6.8
761.478	6.84
761.794	6.9
762.11	6.83
762.426	6.83
762.743	6.79
763.059	6.73
763.375	6.6
763.69	6.61
764.006	6.77
764.322	6.63
764.638	6.71
764.954	6.82
765.27	6.84
765.585	6.63
765.901	6.8
766.216	6.78
766.532	6.66
766.848	6.6
767.163	6.5
767.478	6.47
767.794	6.49
768.109	6.39
768.424	6.42
768.74	6.31
769.055	6.23
769.37	6.43
769.685	6.33
770	6.46
770.315	6.56
770.63	6.31
770.945	6.38
771.26	6.3
771.575	6.16
771.89	6.07
772.205	6.24
772.52	5.62
772.834	5.44
773.149	5.72
773.464	5.77
773.778	5.98
774.093	6.03
774.407	6.07
774.722	6.2
775.036	6.39
775.351	6.7
775.665	6.57
775.979	6.32
776.293	6.31
776.608	5.9
776.922	5.94
777.236	5.88
777.55	6.04
777.864	6.16
778.178	6.11
778.492	6.34
778.806	6.12
779.12	6.49
779.434	6.78
779.747	6.68
780.061	6.53
780.375	6.45
780.689	6.47
781.002	6.31
781.316	6.44
781.629	6.48
781.943	6.62
782.256	6.91
782.57	6.91
782.883	7.24
783.196	7.45
783.51	7.04
783.823	7.43
784.136	7.3
784.449	7.4
784.762	7.72
785.075	8.07
785.388	8.4
785.701	8.27
786.014	8.12
786.327	8
786.64	8.42
786.953	8.31
787.266	7.88
787.578	8.28
787.891	8.69
788.204	8.68
788.516	8.29
788.829	8.03
789.141	8.19
789.454	8.05
789.766	8.39
790.079	8.81
790.391	8.81
790.703	8.4
791.016	7.8
791.328	7.78
791.64	7.33
791.952	7.6
792.264	7.64
792.576	7.76
792.888	7.83
793.2	7.71
793.512	7.95
793.824	8.52
794.136	8.57
794.448	8.01
794.76	7.99
795.071	8.28
795.383	8.31
795.695	8.04
796.006	7.98
796.318	8.01
796.629	7.94
796.941	7.35
797.252	8.15
797.564	8.84
797.875	8.38
798.186	8.31
798.497	8.14
798.809	7.95
799.12	7.78
799.431	7.85
799.742	7.78
800.053	7.59
800.364	7.73
800.675	7.59
800.986	7.64
801.297	7.21
801.608	6.65
801.918	6.74
802.229	7.09
802.54	7.24
802.851	7.43
803.161	7.51
803.472	8.05
803.782	7.75
804.093	7.38
804.403	7.85
804.714	8.05
805.024	7.34
805.334	7.68
805.645	7.77
805.955	7.6
806.265	7.56
806.575	7.51
806.885	7.51
807.195	7.34
807.505	7.86
807.815	8.16
808.125	8.82
808.435	8.79
808.745	8.64
809.055	8.74
809.365	8.62
809.674	8.2
809.984	8.62
810.294	8.75
810.603	8.72
810.913	8.91
811.222	9.5
811.532	10.4
811.841	10.6
812.151	11.3
812.46	11.29
812.769	11.78
813.079	11.61
813.388	11.43
813.697	11.5
814.006	10.83
814.315	10.81
814.624	10.35
814.933	10.67
815.242	10.76
815.551	11.13
815.86	10.66
816.169	10.71
816.478	10.3
816.786	10.22
817.095	10.76
817.404	10.49
817.712	9.74
818.021	9.63
818.33	9.64
818.638	9.05
818.947	9.59
819.255	9.23
819.563	9.68
819.872	9.51
820.18	9.32
820.488	9.59
820.796	9.74
821.105	9.66
821.413	9.66
821.721	9.68
822.029	9.39
822.337	9.45
822.645	9.56
822.953	9.44
823.26	9.43
823.568	9.31
823.876	9.32
824.184	9.41
824.491	9.36
824.799	9.38
825.107	9.39
825.414	9.22
825.722	9.2
826.029	9.15
826.337	9.23
826.644	9.35
826.951	9.18
827.259	8.96
827.566	9.12
827.873	9.14
828.18	9.14
828.488	9.35
828.795	9.3
829.102	9.29
829.409	9.45
829.716	9.23
830.023	9.17
830.329	9.15
830.636	9.46
830.943	9.43
831.25	9.36
831.557	9.43
831.863	9.66
832.17	9.37
832.476	9.55
832.783	9.53
833.089	9.32
833.396	9.61
833.702	10.06
834.009	9.94
834.315	9.91
834.621	9.72
834.928	9.34
835.234	9.38
835.54	9.41
835.846	9.31
836.152	9.45
836.458	9.61
836.764	9
837.07	8.5
837.376	8.04
837.682	8.05
837.988	8.01
838.293	7.72
838.599	8.47
838.905	8.05
839.211	8.05
839.516	8.32
839.822	7.72
840.127	6.82
840.433	6.78
840.738	6.44
841.044	6.1
841.349	7.04
841.654	7.05
841.959	6.85
842.265	6.89
842.57	7.59
842.875	7.4
843.18	9
843.485	8.95
843.79	9.95
844.095	9.74
844.4	10.31
844.705	9.46
845.01	9.65
845.315	9.98
845.619	9.43
845.924	9.3
846.229	9.85
846.533	11.04
846.838	11.13
847.142	10.47
847.447	9.92
847.751	7.17
848.056	5.79
848.36	6.87
848.664	7.73
848.969	8.25
849.273	7.5
849.577	7.23
849.881	7.49
850.185	9.73
850.489	10.52
850.794	9.09
851.097	9.25
851.401	7.65
851.705	5.63
852.009	8.63
852.313	7.47
852.617	8.04
852.92	8.68
853.224	9.59
853.528	9.62
853.831	9.2
854.135	10.25
854.438	12.25
854.742	10.09
855.045	9.71
855.349	8.3
855.652	8.69
855.955	7.82
856.259	7.7
856.562	4.56
856.865	5.53
857.168	6.37
857.471	8.15
857.774	9.66
858.077	11.82
858.38	8.07
858.683	9.73
858.986	9.77
859.289	9.32
859.592	8.83
859.894	8.34
860.197	10.66
860.5	11.01
860.802	10.08
861.105	12.44
861.407	11.74
861.71	11
862.012	11.78
862.315	11.65
862.617	10.55
862.919	13.41
863.222	11.38
863.524	10.95
863.826	11.21
864.128	9.99
864.43	9.11
864.732	10.96
865.034	11.26
865.336	11.03
865.638	11.53
865.94	9.93
866.242	11.11
866.544	10.15
866.846	10.92
867.147	11.51
867.449	10.96
867.751	12.47
868.052	13.3
868.354	12.2
868.655	13.67
868.957	14.42
869.258	12.26
869.56	14.09
869.861	13.17
870.162	11.65
870.463	13.52
870.765	14.4
871.066	13.35
871.367	14.48
871.668	14.01
871.969	10.99
872.27	11.3
872.571	12.2
872.872	11.15
873.173	11.11
873.473	10.6
873.774	8.99
874.075	7.5
874.376	8.07
874.676	8.73
874.977	6.46
875.277	7.26
875.578	7.3
875.878	4.92
876.179	6.29
876.479	7.92
876.78	5.94
877.08	5.53
877.38	5.31
877.68	2.58
877.981	2.6
878.281	5.07
878.581	5.68
