Data from BA28468_Reflection_00015.txt Node
Date: Mon Nov 18 15:15:17 EST 2019
User: vgr7
Spectrometer: USB2G7710
Scans to average: 3
Trigger mode: 4
Integration Time (sec): 2.000000E-2
Electric dark correction enabled: true
Boxcar width: 10
XAxis mode: Wavelengths
Number of Pixels in Spectrum: 2048
>>>>>Begin Spectral Data<<<<<
177.721	79.74
178.105	3528.57
178.488	-107.37
178.871	-69.46
179.254	-61.41
179.636	1402.63
180.019	-119.51
180.402	58.18
180.785	114.83
181.168	50.28
181.55	74
181.933	-76.47
182.316	-157.14
182.698	-6.03
183.081	16.79
183.463	85.87
183.846	3561.54
184.228	1033.77
184.611	402.65
184.993	226.35
185.376	177.64
185.758	101.34
186.14	106.75
186.522	135.22
186.904	111.93
187.287	109.09
187.669	84.49
188.051	75.28
188.433	62.26
188.815	58.83
189.197	71.79
189.579	71.69
189.961	65.8
190.342	57.22
190.724	51.02
191.106	55.16
191.488	43.68
191.869	47.96
192.251	42.97
192.633	44.74
193.014	30.81
193.396	37.58
193.777	40.4
194.159	38.37
194.54	36.57
194.922	36.29
195.303	43.42
195.684	37.39
196.065	33.83
196.447	26.72
196.828	9.06
197.209	1.38
197.59	-2.65
197.971	9.73
198.352	15.9
198.733	11.56
199.114	3.8
199.495	5.58
199.876	6.79
200.257	11.18
200.638	0.85
201.018	8.69
201.399	3.65
201.78	4.19
202.16	6.52
202.541	3.33
202.922	-6.35
203.302	-11.15
203.683	-3.69
204.063	-2.68
204.444	7.28
204.824	17.98
205.204	19.56
205.585	23.24
205.965	15.26
206.345	-3.07
206.725	-15.67
207.106	-18.17
207.486	-23.49
207.866	-22.4
208.246	-36.14
208.626	-16.64
209.006	-2.73
209.386	-15.89
209.766	-16.71
210.145	-14.59
210.525	-9.89
210.905	-13.17
211.285	-3.88
211.664	-3.78
212.044	-0.86
212.424	5.21
212.803	20.43
213.183	25.28
213.562	18.12
213.942	20.5
214.321	45.69
214.701	30.63
215.08	28
215.459	25.36
215.838	12.61
216.218	15.38
216.597	11.58
216.976	1.09
217.355	8
217.734	2.23
218.113	3.56
218.492	2.26
218.871	1.37
219.25	6.6
219.629	9.81
220.008	4.61
220.387	5.29
220.766	-1.98
221.144	-14.8
221.523	-17.41
221.902	-19.73
222.28	-26.35
222.659	-18.74
223.037	-9.97
223.416	-8.62
223.794	-8.48
224.173	-12.59
224.551	-8.74
224.929	-1.15
225.308	4.71
225.686	5.24
226.064	3.89
226.442	5.55
226.821	7.12
227.199	1.81
227.577	-2.55
227.955	-1.3
228.333	-4.03
228.711	-3.33
229.089	2.11
229.467	3.57
229.845	4.44
230.222	4.35
230.6	4.06
230.978	4.11
231.356	5.42
231.733	5.18
232.111	7.18
232.488	5.37
232.866	5.42
233.243	3.75
233.621	2.96
233.998	3.33
234.376	2.49
234.753	1.4
235.13	1.37
235.508	1.3
235.885	0.71
236.262	1.65
236.639	1.19
237.016	0.88
237.393	1.63
237.77	1.69
238.147	2.16
238.524	2.26
238.901	2.49
239.278	3.25
239.655	4.18
240.032	3.66
240.409	3.97
240.785	3.89
241.162	4.37
241.539	5.38
241.915	5.36
242.292	4.99
242.668	5.36
243.045	5.52
243.421	5.5
243.798	5.38
244.174	5.09
244.551	5.31
244.927	5.41
245.303	5.23
245.679	5.28
246.056	5.33
246.432	5.15
246.808	5.28
247.184	4.7
247.56	4.45
247.936	4.52
248.312	4.57
248.688	4.5
249.064	4.42
249.44	4.03
249.815	3.96
250.191	4.23
250.567	4.36
250.943	4.25
251.318	4.32
251.694	4.33
252.069	4.51
252.445	4.38
252.82	4.25
253.196	4.23
253.571	3.91
253.947	3.69
254.322	3.67
254.697	3.32
255.073	3.66
255.448	3.58
255.823	3.48
256.198	3.38
256.573	3.32
256.948	3.34
257.323	3.67
257.698	3.86
258.073	3.75
258.448	3.63
258.823	3.67
259.198	3.83
259.573	3.82
259.948	3.65
260.322	3.66
260.697	3.7
261.072	3.57
261.446	3.7
261.821	3.84
262.195	3.94
262.57	3.96
262.944	3.81
263.319	3.92
263.693	3.86
264.067	3.99
264.442	4.02
264.816	3.98
265.19	3.86
265.564	3.8
265.938	3.83
266.313	3.57
266.687	3.6
267.061	3.46
267.435	3.6
267.809	3.65
268.183	3.74
268.556	3.7
268.93	3.92
269.304	3.9
269.678	3.79
270.051	3.79
270.425	3.87
270.799	3.97
271.172	3.93
271.546	3.95
271.919	3.72
272.293	3.73
272.666	3.83
273.04	3.91
273.413	3.81
273.787	3.83
274.16	4.05
274.533	4.12
274.906	4.05
275.279	4.06
275.653	4
276.026	3.98
276.399	4.01
276.772	3.99
277.145	3.91
277.518	3.98
277.891	3.97
278.263	3.74
278.636	3.8
279.009	3.92
279.382	4.13
279.755	4.23
280.127	4.38
280.5	4.42
280.872	4.4
281.245	4.53
281.617	4.62
281.99	4.79
282.362	4.72
282.735	4.71
283.107	4.5
283.479	4.63
283.852	4.55
284.224	4.53
284.596	4.53
284.968	4.68
285.34	4.62
285.713	4.66
286.085	4.81
286.457	4.9
286.829	4.85
287.201	4.8
287.572	4.75
287.944	4.63
288.316	4.52
288.688	4.41
289.06	4.34
289.431	4.37
289.803	4.31
290.175	4.28
290.546	4.44
290.918	4.61
291.289	4.62
291.661	4.69
292.032	4.77
292.403	4.81
292.775	4.71
293.146	4.66
293.517	4.62
293.889	4.61
294.26	4.54
294.631	4.56
295.002	4.55
295.373	4.65
295.744	4.63
296.115	4.56
296.486	4.61
296.857	4.68
297.228	4.77
297.599	4.63
297.97	4.73
298.34	4.74
298.711	4.79
299.082	4.89
299.452	4.89
299.823	4.98
300.194	4.98
300.564	5.1
300.935	5.22
301.305	5.26
301.676	5.42
302.046	5.47
302.416	5.59
302.787	5.66
303.157	5.78
303.527	5.83
303.897	6.05
304.267	6.14
304.637	6.15
305.008	6.08
305.378	6.3
305.748	6.35
306.117	6.32
306.487	6.32
306.857	6.29
307.227	6.38
307.597	6.32
307.967	6.38
308.336	6.28
308.706	6.35
309.076	6.32
309.445	6.14
309.815	6.15
310.184	6.06
310.554	6.18
310.923	6.12
311.293	6.16
311.662	6.24
312.031	6.29
312.401	6.36
312.77	6.41
313.139	6.36
313.508	6.39
313.877	6.55
314.246	6.56
314.616	6.54
314.985	6.64
315.353	6.62
315.722	6.78
316.091	6.98
316.46	7.03
316.829	7.22
317.198	7.36
317.567	7.62
317.935	7.81
318.304	7.73
318.672	7.73
319.041	7.95
319.41	8
319.778	8
320.147	8.19
320.515	8.15
320.883	8.3
321.252	8.44
321.62	8.35
321.988	8.37
322.357	8.4
322.725	8.34
323.093	8.38
323.461	8.26
323.829	8.19
324.197	8.18
324.565	8.19
324.933	8.24
325.301	8.11
325.669	8.08
326.037	8.1
326.405	8.24
326.772	8.31
327.14	8.32
327.508	8.36
327.875	8.18
328.243	8.35
328.61	8.37
328.978	8.33
329.346	8.46
329.713	8.43
330.08	8.44
330.448	8.43
330.815	8.52
331.182	8.56
331.55	8.7
331.917	8.76
332.284	8.92
332.651	8.98
333.018	9.08
333.385	9.18
333.752	9.38
334.119	9.35
334.486	9.32
334.853	9.36
335.22	9.36
335.587	9.47
335.954	9.44
336.32	9.51
336.687	9.6
337.054	9.59
337.42	9.8
337.787	9.99
338.153	10.17
338.52	10.21
338.886	10.16
339.253	10.15
339.619	10.2
339.986	10.23
340.352	10.29
340.718	10.36
341.084	10.3
341.451	10.22
341.817	10.3
342.183	10.32
342.549	10.34
342.915	10.36
343.281	10.43
343.647	10.39
344.013	10.35
344.379	10.21
344.745	10.23
345.11	10.21
345.476	10.21
345.842	10.14
346.208	10.12
346.573	10.27
346.939	10.35
347.304	10.36
347.67	10.21
348.035	10.26
348.401	10.25
348.766	10.28
349.132	10.26
349.497	10.26
349.862	10.32
350.228	10.29
350.593	10.32
350.958	10.33
351.323	10.36
351.688	10.37
352.053	10.51
352.418	10.55
352.783	10.52
353.148	10.47
353.513	10.5
353.878	10.46
354.243	10.43
354.608	10.35
354.972	10.28
355.337	10.4
355.702	10.39
356.066	10.39
356.431	10.39
356.795	10.41
357.16	10.37
357.524	10.25
357.889	10.28
358.253	10.3
358.618	10.3
358.982	10.3
359.346	10.23
359.71	10.15
360.075	10.11
360.439	10.08
360.803	9.99
361.167	9.99
361.531	10.04
361.895	9.95
362.259	9.93
362.623	9.95
362.987	9.89
363.351	9.88
363.714	9.85
364.078	9.81
364.442	9.78
364.806	9.72
365.169	9.78
365.533	9.72
365.896	9.74
366.26	9.64
366.623	9.59
366.987	9.57
367.35	9.59
367.714	9.61
368.077	9.66
368.44	9.64
368.803	9.57
369.167	9.45
369.53	9.47
369.893	9.43
370.256	9.43
370.619	9.31
370.982	9.21
371.345	9.11
371.708	9.07
372.071	9.05
372.434	9.03
372.797	8.86
373.159	8.77
373.522	8.73
373.885	8.72
374.247	8.63
374.61	8.62
374.973	8.55
375.335	8.42
375.698	8.33
376.06	8.3
376.423	8.26
376.785	8.27
377.147	8.22
377.51	8.18
377.872	8.13
378.234	8.13
378.596	8.11
378.958	8.05
379.321	8.03
379.683	7.97
380.045	7.95
380.407	7.96
380.769	7.9
381.13	7.82
381.492	7.75
381.854	7.73
382.216	7.63
382.578	7.61
382.939	7.59
383.301	7.53
383.663	7.5
384.024	7.42
384.386	7.37
384.747	7.34
385.109	7.29
385.47	7.19
385.832	7.16
386.193	7.14
386.554	7.12
386.916	7.04
387.277	7
387.638	6.93
387.999	6.92
388.36	6.91
388.721	6.83
389.082	6.79
389.443	6.73
389.804	6.71
390.165	6.59
390.526	6.53
390.887	6.47
391.248	6.41
391.609	6.4
391.969	6.37
392.33	6.28
392.691	6.25
393.051	6.25
393.412	6.2
393.772	6.12
394.133	6.12
394.493	6.09
394.854	6.05
395.214	6.02
395.574	5.94
395.935	5.91
396.295	5.9
396.655	5.85
397.015	5.85
397.376	5.8
397.736	5.78
398.096	5.74
398.456	5.7
398.816	5.67
399.176	5.62
399.535	5.54
399.895	5.5
400.255	5.47
400.615	5.43
400.975	5.42
401.334	5.37
401.694	5.3
402.054	5.25
402.413	5.23
402.773	5.14
403.132	5.11
403.492	5.1
403.851	5.03
404.211	5.01
404.57	4.95
404.929	4.93
405.288	4.9
405.648	4.86
406.007	4.83
406.366	4.8
406.725	4.8
407.084	4.81
407.443	4.81
407.802	4.79
408.161	4.78
408.52	4.73
408.879	4.72
409.238	4.7
409.596	4.69
409.955	4.63
410.314	4.66
410.673	4.66
411.031	4.61
411.39	4.6
411.748	4.58
412.107	4.58
412.465	4.57
412.824	4.56
413.182	4.55
413.54	4.55
413.899	4.55
414.257	4.49
414.615	4.47
414.974	4.45
415.332	4.4
415.69	4.35
416.048	4.31
416.406	4.29
416.764	4.25
417.122	4.26
417.48	4.25
417.838	4.25
418.195	4.24
418.553	4.24
418.911	4.23
419.269	4.22
419.626	4.19
419.984	4.16
420.342	4.15
420.699	4.12
421.057	4.1
421.414	4.07
421.772	4.06
422.129	4.04
422.486	4.03
422.844	4.03
423.201	4.01
423.558	4.01
423.915	4
424.273	4.02
424.63	4.01
424.987	3.99
425.344	3.97
425.701	3.93
426.058	3.92
426.415	3.89
426.772	3.89
427.128	3.89
427.485	3.9
427.842	3.87
428.199	3.89
428.555	3.91
428.912	3.91
429.269	3.91
429.625	3.89
429.982	3.86
430.338	3.87
430.695	3.88
431.051	3.86
431.407	3.85
431.764	3.83
432.12	3.8
432.476	3.79
432.832	3.77
433.189	3.79
433.545	3.77
433.901	3.77
434.257	3.76
434.613	3.75
434.969	3.75
435.325	3.75
435.681	3.74
436.036	3.73
436.392	3.72
436.748	3.7
437.104	3.7
437.459	3.7
437.815	3.7
438.171	3.7
438.526	3.72
438.882	3.72
439.237	3.72
439.593	3.73
439.948	3.74
440.304	3.75
440.659	3.74
441.014	3.75
441.369	3.74
441.725	3.73
442.08	3.71
442.435	3.71
442.79	3.71
443.145	3.69
443.5	3.68
443.855	3.65
444.21	3.65
444.565	3.65
444.92	3.64
445.275	3.62
445.629	3.6
445.984	3.59
446.339	3.57
446.693	3.56
447.048	3.55
447.403	3.53
447.757	3.51
448.112	3.5
448.466	3.46
448.82	3.46
449.175	3.46
449.529	3.46
449.883	3.43
450.238	3.42
450.592	3.43
450.946	3.41
451.3	3.42
451.654	3.4
452.008	3.39
452.362	3.38
452.716	3.37
453.07	3.36
453.424	3.35
453.778	3.33
454.132	3.32
454.486	3.32
454.839	3.31
455.193	3.3
455.547	3.32
455.9	3.36
456.254	3.35
456.607	3.36
456.961	3.37
457.314	3.39
457.668	3.37
458.021	3.38
458.375	3.38
458.728	3.39
459.081	3.41
459.434	3.43
459.787	3.45
460.141	3.45
460.494	3.47
460.847	3.49
461.2	3.51
461.553	3.53
461.906	3.54
462.259	3.57
462.611	3.59
462.964	3.59
463.317	3.57
463.67	3.59
464.022	3.61
464.375	3.62
464.728	3.61
465.08	3.67
465.433	3.66
465.785	3.68
466.138	3.68
466.49	3.68
466.843	3.69
467.195	3.67
467.547	3.7
467.899	3.7
468.252	3.68
468.604	3.69
468.956	3.7
469.308	3.7
469.66	3.69
470.012	3.7
470.364	3.71
470.716	3.73
471.068	3.73
471.42	3.72
471.772	3.73
472.123	3.75
472.475	3.74
472.827	3.76
473.178	3.78
473.53	3.78
473.882	3.77
474.233	3.78
474.585	3.78
474.936	3.77
475.288	3.78
475.639	3.8
475.99	3.8
476.342	3.79
476.693	3.79
477.044	3.81
477.395	3.79
477.746	3.78
478.097	3.78
478.448	3.76
478.8	3.75
479.15	3.73
479.501	3.73
479.852	3.7
480.203	3.69
480.554	3.68
480.905	3.67
481.255	3.67
481.606	3.68
481.957	3.68
482.307	3.68
482.658	3.67
483.009	3.66
483.359	3.66
483.709	3.66
484.06	3.65
484.41	3.65
484.761	3.65
485.111	3.65
485.461	3.65
485.811	3.65
486.162	3.65
486.512	3.66
486.862	3.66
487.212	3.67
487.562	3.68
487.912	3.69
488.262	3.69
488.612	3.7
488.961	3.7
489.311	3.71
489.661	3.71
490.011	3.72
490.36	3.74
490.71	3.76
491.06	3.77
491.409	3.78
491.759	3.79
492.108	3.81
492.458	3.84
492.807	3.85
493.157	3.86
493.506	3.89
493.855	3.92
494.204	3.93
494.554	3.96
494.903	3.98
495.252	4
495.601	4.04
495.95	4.08
496.299	4.1
496.648	4.13
496.997	4.18
497.346	4.21
497.695	4.24
498.043	4.25
498.392	4.27
498.741	4.32
499.09	4.36
499.438	4.41
499.787	4.43
500.135	4.49
500.484	4.55
500.832	4.6
501.181	4.66
501.529	4.71
501.878	4.75
502.226	4.8
502.574	4.84
502.923	4.87
503.271	4.93
503.619	5.01
503.967	5.07
504.315	5.11
504.663	5.17
505.011	5.25
505.359	5.29
505.707	5.37
506.055	5.43
506.403	5.48
506.751	5.54
507.098	5.61
507.446	5.66
507.794	5.71
508.141	5.78
508.489	5.83
508.837	5.91
509.184	5.98
509.531	6.03
509.879	6.13
510.226	6.22
510.574	6.29
510.921	6.34
511.268	6.41
511.616	6.5
511.963	6.59
512.31	6.65
512.657	6.74
513.004	6.81
513.351	6.91
513.698	7
514.045	7.06
514.392	7.14
514.739	7.22
515.086	7.32
515.432	7.4
515.779	7.47
516.126	7.53
516.473	7.62
516.819	7.69
517.166	7.75
517.512	7.82
517.859	7.88
518.205	7.93
518.552	8.01
518.898	8.09
519.245	8.14
519.591	8.24
519.937	8.31
520.283	8.41
520.629	8.49
520.976	8.59
521.322	8.69
521.668	8.8
522.014	8.89
522.36	8.99
522.706	9.09
523.052	9.22
523.398	9.37
523.743	9.49
524.089	9.65
524.435	9.81
524.781	9.96
525.126	10.11
525.472	10.25
525.817	10.36
526.163	10.46
526.509	10.57
526.854	10.67
527.199	10.78
527.545	10.88
527.89	10.97
528.235	11.06
528.581	11.16
528.926	11.27
529.271	11.39
529.616	11.5
529.961	11.62
530.306	11.74
530.651	11.84
530.996	11.98
531.341	12.12
531.686	12.25
532.031	12.39
532.376	12.52
532.721	12.68
533.065	12.84
533.41	13.01
533.755	13.18
534.099	13.34
534.444	13.5
534.788	13.67
535.133	13.86
535.477	14.07
535.822	14.27
536.166	14.45
536.51	14.67
536.855	14.93
537.199	15.18
537.543	15.44
537.887	15.74
538.231	15.99
538.576	16.24
538.92	16.47
539.264	16.71
539.608	16.98
539.951	17.21
540.295	17.43
540.639	17.65
540.983	17.86
541.327	18.09
541.671	18.31
542.014	18.52
542.358	18.74
542.701	18.95
543.045	19.16
543.389	19.39
543.732	19.61
544.075	19.83
544.419	20.03
544.762	20.27
545.105	20.51
545.449	20.79
545.792	21.1
546.135	21.42
546.478	21.72
546.821	22.03
547.165	22.36
547.508	22.7
547.851	23.07
548.194	23.39
548.536	23.7
548.879	24.05
549.222	24.36
549.565	24.68
549.908	24.99
550.25	25.34
550.593	25.7
550.936	26.03
551.278	26.36
551.621	26.69
551.963	27.06
552.306	27.42
552.648	27.73
552.991	28.04
553.333	28.31
553.675	28.64
554.017	28.92
554.36	29.24
554.702	29.53
555.044	29.78
555.386	30.11
555.728	30.44
556.07	30.82
556.412	31.21
556.754	31.54
557.096	31.86
557.438	32.21
557.78	32.56
558.121	32.9
558.463	33.25
558.805	33.62
559.147	33.93
559.488	34.25
559.83	34.54
560.171	34.83
560.513	35.12
560.854	35.44
561.196	35.76
561.537	36.05
561.878	36.28
562.22	36.6
562.561	36.87
562.902	37.12
563.243	37.36
563.584	37.58
563.925	37.85
564.266	38.13
564.607	38.38
564.948	38.56
565.289	38.81
565.63	39
565.971	39.25
566.312	39.46
566.653	39.67
566.993	39.94
567.334	40.13
567.675	40.43
568.015	40.66
568.356	40.84
568.696	41.02
569.037	41.23
569.377	41.39
569.718	41.56
570.058	41.76
570.398	42
570.739	42.19
571.079	42.37
571.419	42.58
571.759	42.79
572.099	43.02
572.439	43.24
572.779	43.48
573.119	43.66
573.459	43.86
573.799	44.04
574.139	44.2
574.479	44.43
574.819	44.53
575.158	44.69
575.498	44.89
575.838	45.12
576.177	45.32
576.517	45.54
576.856	45.81
577.196	46
577.535	46.12
577.875	46.34
578.214	46.53
578.553	46.7
578.893	46.87
579.232	47.01
579.571	47.13
579.91	47.17
580.25	47.31
580.589	47.48
580.928	47.58
581.267	47.74
581.606	47.84
581.945	48.09
582.283	48.2
582.622	48.31
582.961	48.42
583.3	48.53
583.639	48.62
583.977	48.71
584.316	48.82
584.654	48.91
584.993	48.99
585.332	49.05
585.67	49.1
586.008	49.25
586.347	49.42
586.685	49.57
587.024	49.71
587.362	49.84
587.7	49.91
588.038	50.04
588.376	50.08
588.715	50.21
589.053	50.3
589.391	50.37
589.729	50.47
590.067	50.46
590.404	50.57
590.742	50.69
591.08	50.71
591.418	50.76
591.756	50.9
592.093	50.94
592.431	51.1
592.769	51.18
593.106	51.12
593.444	51.18
593.781	51.19
594.119	51.3
594.456	51.29
594.793	51.34
595.131	51.35
595.468	51.45
595.805	51.5
596.143	51.46
596.48	51.5
596.817	51.6
597.154	51.74
597.491	51.82
597.828	51.89
598.165	51.97
598.502	51.99
598.839	51.96
599.176	52.04
599.512	52.02
599.849	52.09
600.186	52.14
600.523	52.16
600.859	52.22
601.196	52.27
601.532	52.35
601.869	52.47
602.205	52.53
602.542	52.5
602.878	52.54
603.215	52.56
603.551	52.56
603.887	52.55
604.223	52.49
604.56	52.49
604.896	52.51
605.232	52.58
605.568	52.59
605.904	52.63
606.24	52.72
606.576	52.8
606.912	52.83
607.248	52.92
607.583	52.93
607.919	53
608.255	53.02
608.591	53.03
608.926	52.98
609.262	53.03
609.597	53.18
609.933	53.22
610.268	53.3
610.604	53.42
610.939	53.47
611.275	53.57
611.61	53.59
611.945	53.62
612.281	53.67
612.616	53.8
612.951	53.92
613.286	53.93
613.621	53.98
613.956	54.05
614.291	54.11
614.626	54.25
614.961	54.25
615.296	54.39
615.631	54.45
615.966	54.45
616.3	54.44
616.635	54.32
616.97	54.33
617.304	54.34
617.639	54.34
617.973	54.41
618.308	54.46
618.642	54.54
618.977	54.62
619.311	54.63
619.646	54.67
619.98	54.66
620.314	54.84
620.648	54.76
620.983	54.8
621.317	54.89
621.651	54.85
621.985	54.84
622.319	54.81
622.653	54.89
622.987	54.98
623.321	55.04
623.655	55.14
623.988	55.16
624.322	55.15
624.656	55.15
624.99	55.15
625.323	55.11
625.657	55.14
625.99	55.1
626.324	55.11
626.657	55.11
626.991	55.12
627.324	54.99
627.658	55.04
627.991	55.13
628.324	55.24
628.657	55.28
628.991	55.37
629.324	55.38
629.657	55.4
629.99	55.41
630.323	55.4
630.656	55.44
630.989	55.46
631.322	55.51
631.655	55.54
631.987	55.52
632.32	55.58
632.653	55.61
632.986	55.66
633.318	55.62
633.651	55.6
633.984	55.62
634.316	55.61
634.649	55.6
634.981	55.52
635.313	55.41
635.646	55.34
635.978	55.33
636.31	55.34
636.643	55.35
636.975	55.38
637.307	55.41
637.639	55.41
637.971	55.48
638.303	55.54
638.635	55.6
638.967	55.63
639.299	55.69
639.631	55.69
639.963	55.71
640.295	55.83
640.626	55.91
640.958	55.96
641.29	55.94
641.621	56.07
641.953	56.13
642.285	56.04
642.616	56.16
642.948	56.26
643.279	56.29
643.61	56.25
643.942	56.31
644.273	56.39
644.604	56.4
644.936	56.35
645.267	56.33
645.598	56.25
645.929	56.29
646.26	56.3
646.591	56.28
646.922	56.3
647.253	56.2
647.584	56.12
647.915	56.11
648.245	56.17
648.576	56.12
648.907	56.05
649.238	56.19
649.568	56.2
649.899	56.13
650.229	56.15
650.56	56.19
650.89	56.18
651.221	56.18
651.551	56.18
651.882	56.15
652.212	56.07
652.542	56.11
652.872	56.09
653.203	56.03
653.533	56.18
653.863	56.21
654.193	56.21
654.523	56.3
654.853	56.39
655.183	56.44
655.513	56.42
655.843	56.42
656.172	56.4
656.502	56.47
656.832	56.6
657.162	56.64
657.491	56.74
657.821	56.82
658.15	56.8
658.48	56.69
658.809	56.75
659.139	56.87
659.468	56.94
659.798	56.98
660.127	57.05
660.456	56.94
660.785	56.88
661.115	56.96
661.444	56.93
661.773	56.82
662.102	56.79
662.431	56.83
662.76	56.9
663.089	56.92
663.418	56.83
663.747	56.72
664.076	56.71
664.404	56.67
664.733	56.53
665.062	56.66
665.39	56.77
665.719	56.71
666.048	56.73
666.376	56.69
666.705	56.61
667.033	56.6
667.362	56.6
667.69	56.63
668.018	56.52
668.347	56.63
668.675	56.72
669.003	56.87
669.331	56.92
669.659	56.97
669.987	56.92
670.315	57.02
670.643	56.95
670.971	57
671.299	56.86
671.627	56.9
671.955	56.74
672.283	56.82
672.61	56.94
672.938	56.83
673.266	56.8
673.593	56.97
673.921	56.99
674.249	56.95
674.576	56.97
674.904	57.09
675.231	56.97
675.558	57.1
675.886	57
676.213	56.95
676.54	56.88
676.867	56.86
677.195	56.79
677.522	56.81
677.849	56.93
678.176	57
678.503	56.96
678.83	57.07
679.157	57.08
679.484	57.02
679.81	56.92
680.137	56.99
680.464	56.9
680.791	56.85
681.117	56.78
681.444	56.79
681.771	56.76
682.097	56.82
682.424	56.67
682.75	56.63
683.077	56.71
683.403	56.69
683.729	56.72
684.056	56.76
684.382	56.79
684.708	56.55
685.034	56.51
685.36	56.5
685.686	56.42
686.012	56.34
686.339	56.26
686.664	56.36
686.99	56.28
687.316	56.18
687.642	56.18
687.968	56.29
688.294	56.22
688.619	56.33
688.945	56.22
689.271	56.41
689.596	56.38
689.922	56.28
690.247	56.25
690.573	56.29
690.898	56.34
691.224	56.28
691.549	56.4
691.874	56.35
692.2	56.44
692.525	56.45
692.85	56.46
693.175	56.65
693.5	56.83
693.825	56.95
694.15	57.09
694.475	57.19
694.8	57.22
695.125	57.16
695.45	57.16
695.775	57.53
696.099	57.24
696.424	57.27
696.749	57.27
697.073	57.3
697.398	57.13
697.723	57.01
698.047	57.05
698.372	56.99
698.696	57.16
699.02	57.19
699.345	57.23
699.669	57.36
699.993	57.24
700.318	57.17
700.642	57.1
700.966	57.07
701.29	57.04
701.614	56.88
701.938	56.98
702.262	56.78
702.586	56.51
702.91	56.69
703.234	56.63
703.557	56.77
703.881	56.93
704.205	57.08
704.529	57.03
704.852	57.07
705.176	57.27
705.499	57.19
705.823	56.95
706.146	56.78
706.47	56.64
706.793	56.68
707.117	56.62
707.44	56.44
707.763	56.55
708.086	56.32
708.409	56.47
708.733	56.53
709.056	56.65
709.379	56.73
709.702	56.62
710.025	56.84
710.348	56.49
710.671	56.22
710.993	56.26
711.316	56.39
711.639	56.3
711.962	56.2
712.284	56.24
712.607	56.49
712.93	56.57
713.252	56.5
713.575	56.58
713.897	56.6
714.22	56.67
714.542	56.53
714.864	56.69
715.187	56.5
715.509	56.42
715.831	56.49
716.153	56.38
716.475	56.51
716.798	56.57
717.12	56.88
717.442	56.92
717.764	56.84
718.085	56.61
718.407	56.74
718.729	56.67
719.051	56.49
719.373	56.49
719.695	56.53
720.016	56.52
720.338	56.38
720.659	56.25
720.981	56.36
721.302	56.39
721.624	56.51
721.945	56.69
722.267	56.75
722.588	56.75
722.909	56.74
723.231	56.55
723.552	56.48
723.873	56.29
724.194	56.39
724.515	56.58
724.836	56.69
725.157	56.55
725.478	56.59
725.799	56.55
726.12	56.44
726.441	56.54
726.762	56.38
727.083	56.58
727.403	56.85
727.724	56.91
728.045	57.04
728.365	56.86
728.686	56.84
729.006	56.96
729.327	57.04
729.647	57.03
729.967	57.09
730.288	57.07
730.608	57.05
730.928	57.13
731.249	57.02
731.569	57.16
731.889	56.9
732.209	56.77
732.529	56.98
732.849	56.9
733.169	56.74
733.489	56.94
733.809	56.93
734.129	56.94
734.448	57
734.768	56.75
735.088	56.71
735.408	56.85
735.727	56.8
736.047	56.66
736.366	56.54
736.686	56.41
737.005	56.3
737.325	56.33
737.644	56.06
737.963	56.25
738.283	55.94
738.602	56.2
738.921	56.21
739.24	55.99
739.56	56.06
739.879	56.22
740.198	56.11
740.517	55.96
740.836	55.64
741.155	55.64
741.473	55.95
741.792	56.11
742.111	56.02
742.43	55.82
742.748	56.04
743.067	56.29
743.386	56.38
743.704	56.49
744.023	56.51
744.341	56.7
744.66	56.46
744.978	56.87
745.297	57.17
745.615	57.23
745.933	57.29
746.252	57.53
746.57	57.36
746.888	57.54
747.206	57.8
747.524	58.14
747.842	57.77
748.16	57.64
748.478	57.64
748.796	57.94
749.114	57.83
749.432	57.34
749.749	57.05
750.067	57.17
750.385	57.29
750.703	57.17
751.02	57.2
751.338	57.32
751.655	56.99
751.973	56.48
752.29	56.63
752.608	56.72
752.925	56.58
753.242	56.6
753.56	56.38
753.877	56.28
754.194	56.05
754.511	56.23
754.828	56.51
755.145	56.58
755.462	56.18
755.779	56.07
756.096	56.2
756.413	56.22
756.73	56.4
757.047	56.18
757.364	56.42
757.68	56.31
757.997	56.11
758.314	56.34
758.63	56.81
758.947	56.52
759.264	56.48
759.58	56.36
759.896	56.28
760.213	56.3
760.529	56.31
760.846	56.54
761.162	56.42
761.478	56.31
761.794	56.36
762.11	56.5
762.426	56.73
762.743	56.9
763.059	56.9
763.375	56.46
763.69	56.47
764.006	56.48
764.322	56.64
764.638	56.71
764.954	56.72
765.27	56.52
765.585	56.69
765.901	56.58
766.216	56.51
766.532	56.5
766.848	56.66
767.163	56.53
767.478	56.14
767.794	56.32
768.109	56.09
768.424	56.04
768.74	55.81
769.055	55.68
769.37	55.69
769.685	55.4
770	55.9
770.315	55.86
770.63	55.64
770.945	55.5
771.26	55.58
771.575	55.6
771.89	55.52
772.205	55.57
772.52	55.78
772.834	56.29
773.149	56.49
773.464	56.44
773.778	56.71
774.093	56.88
774.407	56.67
774.722	56.77
775.036	56.79
775.351	57.3
775.665	58.17
775.979	57.74
776.293	58.48
776.608	58.2
776.922	58.52
777.236	58.5
777.55	58.36
777.864	58.29
778.178	58.2
778.492	58.69
778.806	58.64
779.12	58.6
779.434	58.21
779.747	57.84
780.061	57.6
780.375	57.48
780.689	57.7
781.002	57.96
781.316	57.99
781.629	57.41
781.943	57.03
782.256	56.39
782.57	56.71
782.883	56.65
783.196	56.84
783.51	56.47
783.823	56.68
784.136	56.67
784.449	56.17
784.762	56.22
785.075	55.62
785.388	55.54
785.701	55.15
786.014	55.36
786.327	55.84
786.64	55.99
786.953	56.08
787.266	55.94
787.578	55.95
787.891	55.9
788.204	56.4
788.516	56.27
788.829	56.01
789.141	55.75
789.454	55.63
789.766	55.69
790.079	55.9
790.391	55.63
790.703	55.76
791.016	56.64
791.328	56.33
791.64	56.93
791.952	56.51
792.264	56.79
792.576	56.12
792.888	55.71
793.2	55.76
793.512	55.72
793.824	55.71
794.136	55.24
794.448	55.11
794.76	54.76
795.071	55.22
795.383	55.2
795.695	55.22
796.006	55.27
796.318	54.78
796.629	54.71
796.941	54.87
797.252	54.49
797.564	54.2
797.875	54.6
798.186	54.56
798.497	55.23
798.809	54.58
799.12	54.56
799.431	54.68
799.742	54.58
800.053	54.67
800.364	54.93
800.675	55.27
800.986	55.54
801.297	55.85
801.608	55.62
801.918	55.49
802.229	55.81
802.54	55.35
802.851	55.81
803.161	56.06
803.472	55.85
803.782	55.78
804.093	55.44
804.403	54.81
804.714	54.6
805.024	54.74
805.334	55.92
805.645	56.29
805.955	56.41
806.265	56.77
806.575	56.28
806.885	55.96
807.195	56.03
807.505	56.21
807.815	55.94
808.125	55.71
808.435	56.11
808.745	55.56
809.055	56.65
809.365	56.45
809.674	56.15
809.984	56.85
810.294	57.9
810.603	58.55
810.913	59.2
811.222	59.11
811.532	58.47
811.841	58.51
812.151	58.23
812.46	58.18
812.769	58.01
813.079	59.15
813.388	59.13
813.697	59.23
814.006	59.24
814.315	59.38
814.624	59.95
814.933	59.81
815.242	60.57
815.551	60.12
815.86	60.23
816.169	59.64
816.478	59.35
816.786	59.27
817.095	58.45
817.404	57.99
817.712	58
818.021	58.23
818.33	57.71
818.638	58.24
818.947	58.4
819.255	58.18
819.563	57.2
819.872	57.28
820.18	57.28
820.488	56.8
820.796	56.52
821.105	56.35
821.413	56.45
821.721	56.18
822.029	55.92
822.337	55.91
822.645	56.15
822.953	56.19
823.26	56.12
823.568	56.18
823.876	56.26
824.184	56.28
824.491	56.28
824.799	56.47
825.107	56.47
825.414	56.32
825.722	56.32
826.029	56.37
826.337	56.32
826.644	56.27
826.951	56.22
827.259	56.2
827.566	56.07
827.873	55.99
828.18	56.12
828.488	56.23
828.795	56.47
829.102	56.34
829.409	56.43
829.716	56.4
830.023	56.34
830.329	56.29
830.636	56.17
830.943	56.09
831.25	55.54
831.557	55.2
831.863	55.07
832.17	55.03
832.476	55
832.783	55.27
833.089	55.22
833.396	56.04
833.702	56.56
834.009	56.93
834.315	56.81
834.621	56.61
834.928	56.68
835.234	56.64
835.54	56.36
835.846	56.25
836.152	56.29
836.458	56.51
836.764	57.03
837.07	57.02
837.376	56.73
837.682	57.14
837.988	57.13
838.293	57.47
838.599	57.26
838.905	57.44
839.211	56.8
839.516	56.86
839.822	56.77
840.127	55.7
840.433	55.7
840.738	56.4
841.044	57.03
841.349	56.93
841.654	55.61
841.959	56.01
842.265	55.95
842.57	55.79
842.875	55.71
843.18	55.01
843.485	55.18
843.79	55.08
844.095	54.8
844.4	54.42
844.705	54.27
845.01	54.17
845.315	54.25
845.619	54.75
845.924	54.61
846.229	53.9
846.533	56.3
846.838	54.38
847.142	52.7
847.447	52.04
847.751	53.01
848.056	53.42
848.36	53.52
848.664	53.85
848.969	53.93
849.273	54.81
849.577	54.35
849.881	54.19
850.185	55.99
850.489	56.81
850.794	59.78
851.097	59.34
851.401	59.95
851.705	59.35
852.009	60.67
852.313	59.85
852.617	59.13
852.92	58.48
853.224	61.61
853.528	63.89
853.831	63.93
854.135	64.1
854.438	64.07
854.742	64.42
855.045	63.45
855.349	62.93
855.652	61.27
855.955	61.25
856.259	60.72
856.562	60.46
856.865	61.13
857.168	58.55
857.471	59.02
857.774	59.17
858.077	58.16
858.38	57.54
858.683	56.84
858.986	58.07
859.289	58.92
859.592	59.09
859.894	57.72
860.197	57.85
860.5	56.01
860.802	56.38
861.105	57.27
861.407	56.95
861.71	59.24
862.012	58.71
862.315	60.57
862.617	61.63
862.919	60.18
863.222	58.92
863.524	59.13
863.826	60.16
864.128	60.24
864.43	62.96
864.732	63.54
865.034	66.05
865.336	66.12
865.638	65.58
865.94	63.2
866.242	61.86
866.544	59.61
866.846	59.47
867.147	58.72
867.449	58.68
867.751	60.22
868.052	57.26
868.354	60.24
868.655	57.15
868.957	56.56
869.258	58.4
869.56	58.56
869.861	57.58
870.162	58.17
870.463	55.85
870.765	55.68
871.066	55
871.367	55.22
871.668	55.03
871.969	54.44
872.27	55.62
872.571	56.4
872.872	59.39
873.173	59.18
873.473	61.4
873.774	61.02
874.075	62.11
874.376	63.39
874.676	61.2
874.977	63.84
875.277	65.18
875.578	64.23
875.878	64.27
876.179	66.83
876.479	65.69
876.78	69.19
877.08	68.75
877.38	69.27
877.68	68.59
877.981	68.41
878.281	69.16
878.581	69.98
