Data from BA28299_Reflection_00001.txt Node
Date: Mon Nov 18 15:42:05 EST 2019
User: vgr7
Spectrometer: USB2G7710
Scans to average: 3
Trigger mode: 4
Integration Time (sec): 2.000000E-2
Electric dark correction enabled: true
Boxcar width: 10
XAxis mode: Wavelengths
Number of Pixels in Spectrum: 2048
>>>>>Begin Spectral Data<<<<<
177.721	143.61
178.105	467.82
178.488	-562.1
178.871	266.67
179.254	77.17
179.636	-60.07
180.019	-69.85
180.402	65.38
180.785	297.28
181.168	79.17
181.55	91.45
181.933	114.21
182.316	81.33
182.698	67.81
183.081	63.91
183.463	69.89
183.846	30.85
184.228	-53.44
184.611	-233.33
184.993	55.44
185.376	82.6
185.758	71.68
186.14	-6.61
186.522	-24.83
186.904	-4.84
187.287	-11.11
187.669	2.51
188.051	4.58
188.433	11.32
188.815	15.97
189.197	15.68
189.579	11.22
189.961	5.04
190.342	12.34
190.724	4.8
191.106	-2.83
191.488	-2.94
191.869	4.47
192.251	-24.58
192.633	-28.32
193.014	-27.6
193.396	-26.42
193.777	-14.18
194.159	6.18
194.54	-4.11
194.922	-4.41
195.303	-20.62
195.684	-34.57
196.065	-19.25
196.447	-15.14
196.828	-17.48
197.209	-19.42
197.59	-23.19
197.971	-29.89
198.352	-28.46
198.733	-23.37
199.114	-27.25
199.495	-21.27
199.876	-16.02
200.257	-13.54
200.638	-8.15
201.018	-10.14
201.399	-11.92
201.78	-7.09
202.16	-23.92
202.541	-28.66
202.922	-42.36
203.302	-32.9
203.683	-24.85
204.063	-34.87
204.444	-37.71
204.824	-42.61
205.204	-24.49
205.585	-18.18
205.965	-9.51
206.345	-23.21
206.725	-43.39
207.106	-23.18
207.486	-40.53
207.866	-64.77
208.246	-59.69
208.626	-51.14
209.006	-40.19
209.386	-63.69
209.766	-63.27
210.145	-64.6
210.525	-38.58
210.905	-21.37
211.285	-16.37
211.664	-17.19
212.044	-16.94
212.424	-15.06
212.803	-26.68
213.183	-22.54
213.562	-18.69
213.942	-12.62
214.321	3.41
214.701	6.48
215.08	-11.11
215.459	-7.21
215.838	-3.1
216.218	14.46
216.597	6.21
216.976	7.04
217.355	20.05
217.734	10.07
218.113	17.77
218.492	21.29
218.871	10.96
219.25	13.29
219.629	18.17
220.008	12.66
220.387	5.46
220.766	17.15
221.144	-3.22
221.523	-4.63
221.902	-13.6
222.28	-18.39
222.659	-15.8
223.037	-16.99
223.416	-18.35
223.794	-9.74
224.173	-9.05
224.551	1.07
224.929	-0.13
225.308	3.49
225.686	3.55
226.064	5.18
226.442	0.77
226.821	3.07
227.199	-0.43
227.577	-5.67
227.955	-6.31
228.333	-6.82
228.711	-4.5
229.089	-1.2
229.467	-3.69
229.845	-3.91
230.222	-3.18
230.6	-3.6
230.978	-3.4
231.356	-2.46
231.733	-2.92
232.111	-1.05
232.488	-1.69
232.866	-3.25
233.243	-3.23
233.621	-3.4
233.998	-3.06
234.376	-2.02
234.753	-1.89
235.13	-0.72
235.508	0.33
235.885	0.89
236.262	0.94
236.639	0.59
237.016	-1.24
237.393	0.82
237.77	1.15
238.147	1.42
238.524	1.41
238.901	2.47
239.278	2.3
239.655	2.22
240.032	1.33
240.409	0.98
240.785	1.78
241.162	1.84
241.539	2.22
241.915	1.94
242.292	1.89
242.668	1.72
243.045	2
243.421	2.44
243.798	2.58
244.174	2.55
244.551	2.56
244.927	2.65
245.303	2.71
245.679	2.9
246.056	2.86
246.432	2.92
246.808	2.91
247.184	2.8
247.56	2.77
247.936	2.81
248.312	2.81
248.688	2.87
249.064	2.56
249.44	2.58
249.815	2.88
250.191	2.99
250.567	3.28
250.943	3.1
251.318	3.15
251.694	3.13
252.069	3.32
252.445	3.4
252.82	3.28
253.196	2.99
253.571	2.91
253.947	2.87
254.322	3.12
254.697	3.02
255.073	2.93
255.448	2.75
255.823	2.97
256.198	2.98
256.573	3.03
256.948	3.3
257.323	3.5
257.698	3.42
258.073	3.36
258.448	3.15
258.823	3.17
259.198	2.97
259.573	2.9
259.948	2.95
260.322	2.82
260.697	2.92
261.072	2.89
261.446	2.92
261.821	3
262.195	2.96
262.57	2.96
262.944	3.12
263.319	3.2
263.693	2.89
264.067	2.84
264.442	2.84
264.816	2.72
265.19	2.53
265.564	2.48
265.938	2.32
266.313	2.42
266.687	2.44
267.061	2.53
267.435	2.76
267.809	2.72
268.183	2.84
268.556	2.85
268.93	2.91
269.304	2.86
269.678	2.91
270.051	3
270.425	3.03
270.799	2.9
271.172	3.01
271.546	3.2
271.919	3.18
272.293	3.14
272.666	3.27
273.04	3.31
273.413	3.09
273.787	3.15
274.16	3
274.533	3.05
274.906	3.01
275.279	2.94
275.653	2.85
276.026	2.87
276.399	2.87
276.772	2.93
277.145	2.98
277.518	2.84
277.891	2.88
278.263	2.83
278.636	2.95
279.009	2.88
279.382	2.97
279.755	3.11
280.127	3.14
280.5	3.04
280.872	3.03
281.245	3.18
281.617	3.35
281.99	3.44
282.362	3.45
282.735	3.48
283.107	3.55
283.479	3.58
283.852	3.54
284.224	3.58
284.596	3.48
284.968	3.45
285.34	3.54
285.713	3.55
286.085	3.55
286.457	3.58
286.829	3.63
287.201	3.55
287.572	3.47
287.944	3.38
288.316	3.38
288.688	3.33
289.06	3.31
289.431	3.16
289.803	3.2
290.175	3.19
290.546	3.27
290.918	3.21
291.289	3.27
291.661	3.29
292.032	3.42
292.403	3.59
292.775	3.68
293.146	3.67
293.517	3.53
293.889	3.65
294.26	3.61
294.631	3.64
295.002	3.6
295.373	3.6
295.744	3.62
296.115	3.6
296.486	3.65
296.857	3.73
297.228	3.89
297.599	3.77
297.97	3.79
298.34	3.74
298.711	3.78
299.082	3.75
299.452	3.73
299.823	3.73
300.194	3.67
300.564	3.53
300.935	3.57
301.305	3.71
301.676	3.68
302.046	3.83
302.416	3.85
302.787	3.92
303.157	3.95
303.527	4.01
303.897	4.21
304.267	4.36
304.637	4.41
305.008	4.44
305.378	4.62
305.748	4.63
306.117	4.56
306.487	4.42
306.857	4.42
307.227	4.44
307.597	4.33
307.967	4.43
308.336	4.54
308.706	4.46
309.076	4.33
309.445	4.36
309.815	4.17
310.184	4.1
310.554	4.13
310.923	4.12
311.293	4.11
311.662	4.02
312.031	3.92
312.401	3.94
312.77	3.78
313.139	3.74
313.508	3.77
313.877	3.84
314.246	3.92
314.616	3.87
314.985	3.95
315.353	3.98
315.722	3.8
316.091	3.76
316.46	3.76
316.829	3.87
317.198	3.77
317.567	3.97
317.935	3.96
318.304	4.01
318.672	4.13
319.041	4.2
319.41	4.15
319.778	4.17
320.147	4.07
320.515	4.21
320.883	4.03
321.252	4.04
321.62	3.99
321.988	3.85
322.357	3.9
322.725	3.79
323.093	3.8
323.461	3.85
323.829	3.91
324.197	3.91
324.565	3.92
324.933	4.17
325.301	3.97
325.669	4
326.037	3.87
326.405	3.79
326.772	3.76
327.14	3.8
327.508	3.84
327.875	3.73
328.243	3.77
328.61	3.92
328.978	3.89
329.346	4.01
329.713	4.11
330.08	4.29
330.448	4.32
330.815	4.33
331.182	4.35
331.55	4.29
331.917	4.43
332.284	4.45
332.651	4.18
333.018	4.18
333.385	4.15
333.752	4.24
334.119	4.28
334.486	4.23
334.853	4.28
335.22	4.22
335.587	4.24
335.954	4.06
336.32	3.98
336.687	3.95
337.054	3.92
337.42	3.95
337.787	3.9
338.153	3.95
338.52	3.92
338.886	3.94
339.253	3.91
339.619	3.84
339.986	3.79
340.352	3.86
340.718	4.01
341.084	4.04
341.451	4.15
341.817	4.17
342.183	4.15
342.549	4.06
342.915	4.08
343.281	4.17
343.647	4.23
344.013	4.21
344.379	4.2
344.745	4.22
345.11	4.21
345.476	4.17
345.842	4.17
346.208	4.12
346.573	4.15
346.939	4.29
347.304	4.19
347.67	4.17
348.035	4.1
348.401	4.06
348.766	4.02
349.132	3.98
349.497	3.96
349.862	3.96
350.228	4.07
350.593	3.97
350.958	4.02
351.323	4.08
351.688	4.15
352.053	4.14
352.418	4.13
352.783	4.15
353.148	4.11
353.513	4.09
353.878	4.09
354.243	4.04
354.608	3.98
354.972	4.09
355.337	4.16
355.702	4.24
356.066	4.26
356.431	4.36
356.795	4.34
357.16	4.34
357.524	4.34
357.889	4.3
358.253	4.43
358.618	4.46
358.982	4.41
359.346	4.4
359.71	4.46
360.075	4.47
360.439	4.44
360.803	4.5
361.167	4.48
361.531	4.54
361.895	4.55
362.259	4.51
362.623	4.49
362.987	4.48
363.351	4.52
363.714	4.55
364.078	4.43
364.442	4.4
364.806	4.35
365.169	4.39
365.533	4.41
365.896	4.34
366.26	4.24
366.623	4.28
366.987	4.31
367.35	4.25
367.714	4.19
368.077	4.19
368.44	4.16
368.803	4.19
369.167	4.11
369.53	4.11
369.893	4.18
370.256	4.24
370.619	4.17
370.982	4.08
371.345	4
371.708	4.11
372.071	4.1
372.434	4.14
372.797	4.17
373.159	4.16
373.522	4.19
373.885	4.23
374.247	4.27
374.61	4.27
374.973	4.25
375.335	4.22
375.698	4.27
376.06	4.29
376.423	4.27
376.785	4.35
377.147	4.36
377.51	4.37
377.872	4.37
378.234	4.36
378.596	4.38
378.958	4.38
379.321	4.39
379.683	4.4
380.045	4.43
380.407	4.37
380.769	4.39
381.13	4.31
381.492	4.35
381.854	4.32
382.216	4.3
382.578	4.36
382.939	4.34
383.301	4.35
383.663	4.33
384.024	4.35
384.386	4.36
384.747	4.36
385.109	4.42
385.47	4.35
385.832	4.39
386.193	4.44
386.554	4.45
386.916	4.44
387.277	4.46
387.638	4.44
387.999	4.43
388.36	4.42
388.721	4.49
389.082	4.46
389.443	4.45
389.804	4.46
390.165	4.46
390.526	4.5
390.887	4.49
391.248	4.51
391.609	4.49
391.969	4.48
392.33	4.51
392.691	4.47
393.051	4.48
393.412	4.48
393.772	4.4
394.133	4.4
394.493	4.42
394.854	4.42
395.214	4.39
395.574	4.44
395.935	4.45
396.295	4.44
396.655	4.44
397.015	4.45
397.376	4.47
397.736	4.47
398.096	4.51
398.456	4.52
398.816	4.49
399.176	4.45
399.535	4.42
399.895	4.41
400.255	4.37
400.615	4.4
400.975	4.38
401.334	4.42
401.694	4.45
402.054	4.44
402.413	4.45
402.773	4.46
403.132	4.4
403.492	4.39
403.851	4.39
404.211	4.41
404.57	4.39
404.929	4.41
405.288	4.38
405.648	4.36
406.007	4.35
406.366	4.37
406.725	4.42
407.084	4.44
407.443	4.42
407.802	4.45
408.161	4.44
408.52	4.45
408.879	4.44
409.238	4.44
409.596	4.45
409.955	4.42
410.314	4.43
410.673	4.47
411.031	4.47
411.39	4.43
411.748	4.44
412.107	4.46
412.465	4.42
412.824	4.43
413.182	4.39
413.54	4.4
413.899	4.4
414.257	4.42
414.615	4.42
414.974	4.45
415.332	4.44
415.69	4.45
416.048	4.47
416.406	4.5
416.764	4.49
417.122	4.51
417.48	4.52
417.838	4.54
418.195	4.55
418.553	4.54
418.911	4.55
419.269	4.56
419.626	4.56
419.984	4.56
420.342	4.56
420.699	4.57
421.057	4.57
421.414	4.57
421.772	4.55
422.129	4.53
422.486	4.51
422.844	4.52
423.201	4.5
423.558	4.51
423.915	4.49
424.273	4.5
424.63	4.46
424.987	4.47
425.344	4.45
425.701	4.43
426.058	4.43
426.415	4.43
426.772	4.43
427.128	4.41
427.485	4.42
427.842	4.43
428.199	4.44
428.555	4.44
428.912	4.43
429.269	4.46
429.625	4.46
429.982	4.48
430.338	4.48
430.695	4.51
431.051	4.52
431.407	4.52
431.764	4.5
432.12	4.52
432.476	4.51
432.832	4.52
433.189	4.54
433.545	4.56
433.901	4.57
434.257	4.56
434.613	4.58
434.969	4.56
435.325	4.56
435.681	4.57
436.036	4.57
436.392	4.57
436.748	4.56
437.104	4.57
437.459	4.56
437.815	4.54
438.171	4.54
438.526	4.53
438.882	4.53
439.237	4.55
439.593	4.56
439.948	4.56
440.304	4.58
440.659	4.57
441.014	4.58
441.369	4.57
441.725	4.57
442.08	4.56
442.435	4.57
442.79	4.55
443.145	4.54
443.5	4.54
443.855	4.54
444.21	4.55
444.565	4.57
444.92	4.59
445.275	4.59
445.629	4.6
445.984	4.61
446.339	4.6
446.693	4.6
447.048	4.58
447.403	4.58
447.757	4.56
448.112	4.55
448.466	4.54
448.82	4.55
449.175	4.57
449.529	4.57
449.883	4.56
450.238	4.57
450.592	4.59
450.946	4.6
451.3	4.6
451.654	4.59
452.008	4.57
452.362	4.55
452.716	4.56
453.07	4.56
453.424	4.55
453.778	4.57
454.132	4.57
454.486	4.58
454.839	4.58
455.193	4.58
455.547	4.57
455.9	4.59
456.254	4.58
456.607	4.58
456.961	4.58
457.314	4.59
457.668	4.61
458.021	4.6
458.375	4.59
458.728	4.61
459.081	4.62
459.434	4.61
459.787	4.65
460.141	4.65
460.494	4.64
460.847	4.62
461.2	4.62
461.553	4.64
461.906	4.65
462.259	4.66
462.611	4.68
462.964	4.71
463.317	4.71
463.67	4.71
464.022	4.69
464.375	4.69
464.728	4.68
465.08	4.69
465.433	4.7
465.785	4.72
466.138	4.72
466.49	4.72
466.843	4.72
467.195	4.7
467.547	4.73
467.899	4.74
468.252	4.76
468.604	4.79
468.956	4.77
469.308	4.77
469.66	4.77
470.012	4.78
470.364	4.77
470.716	4.76
471.068	4.79
471.42	4.81
471.772	4.84
472.123	4.85
472.475	4.85
472.827	4.85
473.178	4.86
473.53	4.83
473.882	4.84
474.233	4.87
474.585	4.86
474.936	4.86
475.288	4.85
475.639	4.84
475.99	4.83
476.342	4.83
476.693	4.83
477.044	4.84
477.395	4.85
477.746	4.83
478.097	4.82
478.448	4.81
478.8	4.81
479.15	4.81
479.501	4.8
479.852	4.81
480.203	4.82
480.554	4.83
480.905	4.85
481.255	4.85
481.606	4.86
481.957	4.86
482.307	4.87
482.658	4.88
483.009	4.89
483.359	4.89
483.709	4.89
484.06	4.89
484.41	4.91
484.761	4.91
485.111	4.92
485.461	4.93
485.811	4.94
486.162	4.95
486.512	4.94
486.862	4.96
487.212	4.95
487.562	4.96
487.912	4.95
488.262	4.96
488.612	4.97
488.961	4.97
489.311	4.97
489.661	4.98
490.011	4.97
490.36	4.98
490.71	4.98
491.06	4.99
491.409	4.99
491.759	4.97
492.108	4.97
492.458	4.97
492.807	4.96
493.157	4.97
493.506	4.97
493.855	4.97
494.204	4.98
494.554	4.98
494.903	4.97
495.252	4.95
495.601	4.96
495.95	4.96
496.299	4.96
496.648	4.96
496.997	4.97
497.346	4.98
497.695	4.99
498.043	4.98
498.392	4.98
498.741	4.99
499.09	4.98
499.438	4.98
499.787	5.01
500.135	5.03
500.484	5.02
500.832	5.02
501.181	5.03
501.529	5.02
501.878	5.01
502.226	5.03
502.574	5.06
502.923	5.05
503.271	5.03
503.619	5.05
503.967	5.04
504.315	5
504.663	5
505.011	4.98
505.359	4.98
505.707	4.99
506.055	4.99
506.403	5.01
506.751	5.02
507.098	5
507.446	5.03
507.794	5.03
508.141	5.05
508.489	5.06
508.837	5.07
509.184	5.08
509.531	5.09
509.879	5.09
510.226	5.1
510.574	5.11
510.921	5.1
511.268	5.09
511.616	5.12
511.963	5.13
512.31	5.15
512.657	5.18
513.004	5.19
513.351	5.19
513.698	5.2
514.045	5.18
514.392	5.19
514.739	5.19
515.086	5.2
515.432	5.19
515.779	5.2
516.126	5.21
516.473	5.21
516.819	5.22
517.166	5.24
517.512	5.23
517.859	5.26
518.205	5.27
518.552	5.28
518.898	5.28
519.245	5.29
519.591	5.3
519.937	5.3
520.283	5.32
520.629	5.33
520.976	5.33
521.322	5.33
521.668	5.35
522.014	5.34
522.36	5.34
522.706	5.33
523.052	5.34
523.398	5.33
523.743	5.35
524.089	5.34
524.435	5.33
524.781	5.35
525.126	5.35
525.472	5.37
525.817	5.38
526.163	5.39
526.509	5.4
526.854	5.42
527.199	5.42
527.545	5.41
527.89	5.42
528.235	5.42
528.581	5.43
528.926	5.43
529.271	5.45
529.616	5.45
529.961	5.45
530.306	5.46
530.651	5.47
530.996	5.47
531.341	5.47
531.686	5.48
532.031	5.48
532.376	5.49
532.721	5.5
533.065	5.5
533.41	5.5
533.755	5.5
534.099	5.5
534.444	5.49
534.788	5.5
535.133	5.5
535.477	5.51
535.822	5.51
536.166	5.5
536.51	5.49
536.855	5.49
537.199	5.5
537.543	5.49
537.887	5.49
538.231	5.49
538.576	5.5
538.92	5.48
539.264	5.48
539.608	5.48
539.951	5.48
540.295	5.48
540.639	5.5
540.983	5.49
541.327	5.48
541.671	5.5
542.014	5.49
542.358	5.49
542.701	5.49
543.045	5.48
543.389	5.49
543.732	5.49
544.075	5.51
544.419	5.51
544.762	5.51
545.105	5.52
545.449	5.53
545.792	5.53
546.135	5.55
546.478	5.57
546.821	5.56
547.165	5.55
547.508	5.55
547.851	5.55
548.194	5.55
548.536	5.54
548.879	5.57
549.222	5.58
549.565	5.59
549.908	5.62
550.25	5.64
550.593	5.67
550.936	5.65
551.278	5.67
551.621	5.69
551.963	5.67
552.306	5.67
552.648	5.68
552.991	5.71
553.333	5.69
553.675	5.66
554.017	5.66
554.36	5.67
554.702	5.69
555.044	5.67
555.386	5.69
555.728	5.68
556.07	5.67
556.412	5.65
556.754	5.65
557.096	5.65
557.438	5.65
557.78	5.63
558.121	5.65
558.463	5.64
558.805	5.65
559.147	5.66
559.488	5.67
559.83	5.66
560.171	5.64
560.513	5.71
560.854	5.7
561.196	5.69
561.537	5.72
561.878	5.71
562.22	5.73
562.561	5.72
562.902	5.73
563.243	5.72
563.584	5.76
563.925	5.77
564.266	5.75
564.607	5.73
564.948	5.74
565.289	5.76
565.63	5.76
565.971	5.76
566.312	5.77
566.653	5.75
566.993	5.77
567.334	5.77
567.675	5.73
568.015	5.77
568.356	5.8
568.696	5.77
569.037	5.74
569.377	5.74
569.718	5.76
570.058	5.76
570.398	5.76
570.739	5.77
571.079	5.76
571.419	5.79
571.759	5.81
572.099	5.82
572.439	5.81
572.779	5.82
573.119	5.81
573.459	5.82
573.799	5.84
574.139	5.84
574.479	5.84
574.819	5.84
575.158	5.83
575.498	5.84
575.838	5.84
576.177	5.86
576.517	5.88
576.856	5.87
577.196	5.88
577.535	5.86
577.875	5.84
578.214	5.86
578.553	5.88
578.893	5.87
579.232	5.86
579.571	5.83
579.91	5.84
580.25	5.84
580.589	5.89
580.928	5.92
581.267	5.91
581.606	5.91
581.945	5.89
582.283	5.87
582.622	5.84
582.961	5.85
583.3	5.89
583.639	5.88
583.977	5.88
584.316	5.9
584.654	5.91
584.993	5.96
585.332	5.96
585.67	5.92
586.008	5.9
586.347	5.9
586.685	5.93
587.024	5.93
587.362	5.96
587.7	5.92
588.038	5.92
588.376	5.95
588.715	5.97
589.053	6.01
589.391	6.03
589.729	6.1
590.067	6.1
590.404	6.1
590.742	6.09
591.08	6.08
591.418	6.08
591.756	6.1
592.093	6.06
592.431	6.07
592.769	6.09
593.106	6.12
593.444	6.1
593.781	6.14
594.119	6.15
594.456	6.17
594.793	6.16
595.131	6.12
595.468	6.12
595.805	6.11
596.143	6.14
596.48	6.14
596.817	6.1
597.154	6.11
597.491	6.12
597.828	6.14
598.165	6.2
598.502	6.18
598.839	6.18
599.176	6.2
599.512	6.21
599.849	6.21
600.186	6.25
600.523	6.27
600.859	6.27
601.196	6.28
601.532	6.26
601.869	6.24
602.205	6.26
602.542	6.25
602.878	6.25
603.215	6.22
603.551	6.23
603.887	6.25
604.223	6.26
604.56	6.25
604.896	6.23
605.232	6.21
605.568	6.24
605.904	6.24
606.24	6.24
606.576	6.21
606.912	6.2
607.248	6.19
607.583	6.18
607.919	6.19
608.255	6.16
608.591	6.21
608.926	6.23
609.262	6.24
609.597	6.26
609.933	6.28
610.268	6.31
610.604	6.33
610.939	6.3
611.275	6.3
611.61	6.31
611.945	6.35
612.281	6.36
612.616	6.34
612.951	6.35
613.286	6.36
613.621	6.4
613.956	6.4
614.291	6.37
614.626	6.45
614.961	6.42
615.296	6.42
615.631	6.36
615.966	6.37
616.3	6.36
616.635	6.35
616.97	6.33
617.304	6.26
617.639	6.22
617.973	6.25
618.308	6.25
618.642	6.25
618.977	6.21
619.311	6.18
619.646	6.26
619.98	6.23
620.314	6.21
620.648	6.26
620.983	6.32
621.317	6.37
621.651	6.33
621.985	6.35
622.319	6.37
622.653	6.37
622.987	6.4
623.321	6.43
623.655	6.48
623.988	6.52
624.322	6.55
624.656	6.62
624.99	6.65
625.323	6.69
625.657	6.71
625.99	6.76
626.324	6.81
626.657	6.75
626.991	6.78
627.324	6.82
627.658	6.83
627.991	6.81
628.324	6.79
628.657	6.78
628.991	6.78
629.324	6.81
629.657	6.88
629.99	6.9
630.323	6.91
630.656	6.89
630.989	6.95
631.322	6.97
631.655	6.96
631.987	6.91
632.32	6.86
632.653	6.82
632.986	6.79
633.318	6.79
633.651	6.83
633.984	6.83
634.316	6.78
634.649	6.74
634.981	6.75
635.313	6.74
635.646	6.76
635.978	6.81
636.31	6.79
636.643	6.71
636.975	6.73
637.307	6.7
637.639	6.71
637.971	6.64
638.303	6.61
638.635	6.58
638.967	6.65
639.299	6.71
639.631	6.68
639.963	6.67
640.295	6.62
640.626	6.56
640.958	6.6
641.29	6.66
641.621	6.7
641.953	6.64
642.285	6.69
642.616	6.73
642.948	6.68
643.279	6.72
643.61	6.74
643.942	6.7
644.273	6.76
644.604	6.71
644.936	6.7
645.267	6.67
645.598	6.68
645.929	6.63
646.26	6.6
646.591	6.68
646.922	6.6
647.253	6.65
647.584	6.73
647.915	6.66
648.245	6.66
648.576	6.65
648.907	6.66
649.238	6.69
649.568	6.62
649.899	6.64
650.229	6.63
650.56	6.67
650.89	6.67
651.221	6.57
651.551	6.62
651.882	6.64
652.212	6.71
652.542	6.72
652.872	6.73
653.203	6.76
653.533	6.79
653.863	6.88
654.193	6.82
654.523	6.8
654.853	6.81
655.183	6.73
655.513	6.66
655.843	6.7
656.172	6.73
656.502	6.78
656.832	6.75
657.162	6.81
657.491	6.79
657.821	6.79
658.15	6.81
658.48	6.82
658.809	6.86
659.139	6.85
659.468	6.85
659.798	6.86
660.127	6.84
660.456	6.78
660.785	6.81
661.115	6.9
661.444	6.91
661.773	6.98
662.102	7.03
662.431	7.09
662.76	7.09
663.089	7.04
663.418	7.06
663.747	7.03
664.076	7.04
664.404	7.06
664.733	7.08
665.062	7.12
665.39	7.16
665.719	7.15
666.048	7.18
666.376	7.22
666.705	7.2
667.033	7.18
667.362	7.27
667.69	7.24
668.018	7.19
668.347	7.19
668.675	7.18
669.003	7.22
669.331	7.24
669.659	7.27
669.987	7.26
670.315	7.22
670.643	7.23
670.971	7.23
671.299	7.27
671.627	7.31
671.955	7.32
672.283	7.32
672.61	7.33
672.938	7.39
673.266	7.37
673.593	7.36
673.921	7.35
674.249	7.37
674.576	7.39
674.904	7.43
675.231	7.41
675.558	7.4
675.886	7.36
676.213	7.32
676.54	7.33
676.867	7.41
677.195	7.4
677.522	7.44
677.849	7.44
678.176	7.46
678.503	7.44
678.83	7.46
679.157	7.37
679.484	7.4
679.81	7.3
680.137	7.26
680.464	7.28
680.791	7.32
681.117	7.23
681.444	7.2
681.771	7.24
682.097	7.31
682.424	7.33
682.75	7.36
683.077	7.28
683.403	7.32
683.729	7.27
684.056	7.34
684.382	7.37
684.708	7.3
685.034	7.24
685.36	7.25
685.686	7.24
686.012	7.33
686.339	7.38
686.664	7.4
686.99	7.5
687.316	7.46
687.642	7.52
687.968	7.6
688.294	7.64
688.619	7.6
688.945	7.55
689.271	7.49
689.596	7.54
689.922	7.67
690.247	7.6
690.573	7.65
690.898	7.53
691.224	7.53
691.549	7.61
691.874	7.68
692.2	7.74
692.525	7.77
692.85	7.81
693.175	7.78
693.5	7.83
693.825	7.85
694.15	7.99
694.475	7.97
694.8	7.94
695.125	7.95
695.45	7.96
695.775	8.01
696.099	8.09
696.424	8.05
696.749	8.02
697.073	7.98
697.398	7.98
697.723	8.04
698.047	8.03
698.372	8.03
698.696	7.93
699.02	7.86
699.345	7.81
699.669	7.8
699.993	7.78
700.318	7.81
700.642	7.79
700.966	7.82
701.29	7.83
701.614	7.88
701.938	7.9
702.262	7.95
702.586	7.83
702.91	7.71
703.234	7.64
703.557	7.64
703.881	7.72
704.205	7.66
704.529	7.67
704.852	7.71
705.176	7.59
705.499	7.67
705.823	7.69
706.146	7.77
706.47	7.77
706.793	7.68
707.117	7.7
707.44	7.8
707.763	7.7
708.086	7.61
708.409	7.62
708.733	7.56
709.056	7.54
709.379	7.74
709.702	7.8
710.025	7.85
710.348	7.9
710.671	7.9
710.993	8
711.316	8.1
711.639	8.01
711.962	8.12
712.284	8.07
712.607	8.01
712.93	8.01
713.252	7.94
713.575	8.06
713.897	8.06
714.22	7.91
714.542	7.92
714.864	8.07
715.187	8.06
715.509	8.12
715.831	8.12
716.153	8.1
716.475	8.18
716.798	8.3
717.12	8.33
717.442	8.28
717.764	8.22
718.085	8.13
718.407	8.2
718.729	8.27
719.051	8.18
719.373	8.18
719.695	8.2
720.016	8.42
720.338	8.51
720.659	8.46
720.981	8.47
721.302	8.49
721.624	8.35
721.945	8.34
722.267	8.23
722.588	8.19
722.909	8.16
723.231	8.23
723.552	8.27
723.873	8.21
724.194	8.21
724.515	8.24
724.836	8.2
725.157	8.28
725.478	8.34
725.799	8.65
726.12	8.75
726.441	8.65
726.762	8.58
727.083	8.42
727.403	8.5
727.724	8.57
728.045	8.64
728.365	8.79
728.686	8.72
729.006	8.9
729.327	8.94
729.647	9
729.967	8.91
730.288	8.8
730.608	8.8
730.928	8.94
731.249	8.95
731.569	8.92
731.889	8.9
732.209	8.87
732.529	8.79
732.849	8.83
733.169	8.9
733.489	8.95
733.809	8.94
734.129	9.01
734.448	9.11
734.768	9.04
735.088	9.02
735.408	9
735.727	9
736.047	9.02
736.366	8.92
736.686	8.92
737.005	9.05
737.325	9.08
737.644	9.12
737.963	9.17
738.283	9.15
738.602	9.2
738.921	8.99
739.24	9.02
739.56	8.84
739.879	8.88
740.198	8.76
740.517	8.88
740.836	8.55
741.155	8.56
741.473	8.57
741.792	8.44
742.111	8.45
742.43	8.47
742.748	8.39
743.067	8.3
743.386	8.45
743.704	8.36
744.023	8.44
744.341	8.43
744.66	8.6
744.978	8.53
745.297	8.5
745.615	8.69
745.933	8.81
746.252	8.92
746.57	8.95
746.888	8.91
747.206	8.75
747.524	8.91
747.842	8.87
748.16	8.96
748.478	9.1
748.796	9.3
749.114	9.41
749.432	9.47
749.749	9.81
750.067	9.6
750.385	9.47
750.703	9.41
751.02	9.13
751.338	8.86
751.655	8.86
751.973	8.96
752.29	8.96
752.608	8.88
752.925	9.13
753.242	9.1
753.56	8.99
753.877	9.1
754.194	9.13
754.511	9.12
754.828	9.24
755.145	9.09
755.462	8.96
755.779	8.74
756.096	8.96
756.413	8.82
756.73	8.81
757.047	8.88
757.364	9.16
757.68	9.69
757.997	9.85
758.314	10.03
758.63	9.89
758.947	10.12
759.264	9.85
759.58	9.57
759.896	9.76
760.213	9.8
760.529	9.92
760.846	9.92
761.162	9.78
761.478	9.66
761.794	9.66
762.11	9.69
762.426	9.68
762.743	9.5
763.059	9.51
763.375	9.64
763.69	9.75
764.006	9.68
764.322	9.54
764.638	9.55
764.954	9.6
765.27	9.4
765.585	9.23
765.901	9.49
766.216	9.55
766.532	9.26
766.848	9.27
767.163	9.25
767.478	9.19
767.794	9.32
768.109	9.3
768.424	9.29
768.74	9.49
769.055	9.69
769.37	9.7
769.685	9.6
770	9.65
770.315	9.55
770.63	9.36
770.945	9.25
771.26	9.07
771.575	9.36
771.89	9.82
772.205	9.57
772.52	9.46
772.834	9.68
773.149	10.05
773.464	10.19
773.778	10.04
774.093	10.09
774.407	10.01
774.722	10.07
775.036	10.25
775.351	10.31
775.665	10.02
775.979	10.04
776.293	9.98
776.608	10.03
776.922	9.91
777.236	9.92
777.55	9.68
777.864	10.06
778.178	9.78
778.492	9.99
778.806	10.14
779.12	10.25
779.434	9.94
779.747	9.74
780.061	9.66
780.375	9.77
780.689	9.69
781.002	9.6
781.316	9.59
781.629	9.82
781.943	9.28
782.256	9.3
782.57	9.16
782.883	9.27
783.196	9.32
783.51	9.25
783.823	9.45
784.136	9.45
784.449	9.35
784.762	9.56
785.075	9.33
785.388	9.51
785.701	9.29
786.014	9.4
786.327	9.38
786.64	9.69
786.953	9.69
787.266	9.74
787.578	9.96
787.891	10.05
788.204	9.89
788.516	10.39
788.829	10.82
789.141	11.22
789.454	11.46
789.766	11.7
790.079	12.04
790.391	11.98
790.703	12.84
791.016	12.84
791.328	12.8
791.64	12.99
791.952	12.95
792.264	12.75
792.576	12.32
792.888	12.68
793.2	12.86
793.512	13.14
793.824	13.28
794.136	13.5
794.448	13.4
794.76	12.84
795.071	12.87
795.383	12.42
795.695	12.16
796.006	12.13
796.318	11.85
796.629	12.13
796.941	12.29
797.252	11.87
797.564	11.96
797.875	11.99
798.186	11.4
798.497	11.84
798.809	11.85
799.12	12.17
799.431	12
799.742	11.59
800.053	11.55
800.364	11.37
800.675	11.19
800.986	11.18
801.297	11.79
801.608	11.45
801.918	11.47
802.229	11.68
802.54	11.24
802.851	11
803.161	10.53
803.472	10.25
803.782	9.81
804.093	9.83
804.403	10.07
804.714	10.15
805.024	9.49
805.334	9.61
805.645	10.23
805.955	10.49
806.265	11.3
806.575	10.83
806.885	11.27
807.195	11.15
807.505	11.38
807.815	11.54
808.125	11.55
808.435	11.57
808.745	11.3
809.055	12.05
809.365	12.09
809.674	11.77
809.984	11.89
810.294	12.22
810.603	12.3
810.913	12.35
811.222	13.03
811.532	13.74
811.841	14.62
812.151	14.43
812.46	13.81
812.769	13.11
813.079	13.13
813.388	12.83
813.697	13.13
814.006	13.13
814.315	12.82
814.624	13.02
814.933	13.55
815.242	13.49
815.551	13.99
815.86	14.68
816.169	14.94
816.478	15.09
816.786	14.8
817.095	14.61
817.404	14.64
817.712	14.01
818.021	13.89
818.33	12.98
818.638	12.75
818.947	12.91
819.255	12.86
819.563	13.06
819.872	13.01
820.18	12.94
820.488	12.9
820.796	12.84
821.105	12.83
821.413	12.81
821.721	12.74
822.029	12.49
822.337	12.42
822.645	12.63
822.953	12.5
823.26	12.52
823.568	12.27
823.876	12.06
824.184	12.22
824.491	12.2
824.799	12.13
825.107	12.13
825.414	12.25
825.722	12.36
826.029	12.43
826.337	12.63
826.644	12.72
826.951	12.55
827.259	12.57
827.566	12.49
827.873	12.46
828.18	12.58
828.488	12.76
828.795	12.9
829.102	12.91
829.409	13.14
829.716	13.25
830.023	13.54
830.329	13.58
830.636	13.53
830.943	13.32
831.25	13.85
831.557	13.66
831.863	13.36
832.17	13.19
832.476	13.14
832.783	13.2
833.089	13.09
833.396	13.76
833.702	14.1
834.009	14.18
834.315	14.11
834.621	14.27
834.928	14.01
835.234	13.48
835.54	13.08
835.846	13.29
836.152	12.83
836.458	12.95
836.764	12.94
837.07	12.39
837.376	12.31
837.682	12.48
837.988	12.64
838.293	12.51
838.599	12.07
838.905	11.9
839.211	10.92
839.516	10.77
839.822	10.03
840.127	9.51
840.433	9.01
840.738	8.89
841.044	8.29
841.349	7.53
841.654	8.06
841.959	8.02
842.265	7.32
842.57	7.53
842.875	7.56
843.18	8.53
843.485	9.94
843.79	10.6
844.095	9.99
844.4	10.71
844.705	9.97
845.01	10.02
845.315	9.82
845.619	9.99
845.924	9.83
846.229	9.89
846.533	9.5
846.838	9.75
847.142	9.51
847.447	8.65
847.751	9.02
848.056	6.7
848.36	6.53
848.664	6.19
848.969	8.2
849.273	7.88
849.577	7.66
849.881	6.98
850.185	7.91
850.489	7.55
850.794	6.42
851.097	9.53
851.401	10.28
851.705	9.17
852.009	10.34
852.313	9.09
852.617	9.25
852.92	11.7
853.224	11.05
853.528	9.65
853.831	9.81
854.135	11.53
854.438	13.81
854.742	14.3
855.045	15.09
855.349	13.87
855.652	13.01
855.955	12.38
856.259	11.87
856.562	10.91
856.865	11.09
857.168	12.02
857.471	9.49
857.774	10.41
858.077	11.17
858.38	10.48
858.683	11.85
858.986	12.56
859.289	10.38
859.592	12.96
859.894	14.55
860.197	14.61
860.5	12.18
860.802	12
861.105	12.49
861.407	11.88
861.71	12.42
862.012	12.47
862.315	11.48
862.617	12.32
862.919	11.56
863.222	10.73
863.524	12.27
863.826	13.6
864.128	13.23
864.43	14.52
864.732	14.99
865.034	13.54
865.336	11.72
865.638	10.16
865.94	6.43
866.242	5.33
866.544	6
866.846	7.1
867.147	7.78
867.449	8.66
867.751	9.43
868.052	10.03
868.354	12.51
868.655	14.09
868.957	13.04
869.258	13.83
869.56	14.13
869.861	12.5
870.162	10.96
870.463	9.39
870.765	8.03
871.066	8.49
871.367	9.81
871.668	9.28
871.969	10.84
872.27	12.51
872.571	13.3
872.872	13.85
873.173	12.83
873.473	12.57
873.774	11.49
874.075	13.28
874.376	11.96
874.676	10.78
874.977	8.21
875.277	9.69
875.578	10.88
875.878	11.04
876.179	10.94
876.479	12.35
876.78	13.54
877.08	14.45
877.38	13.64
877.68	14.05
877.981	16.32
878.281	16.67
878.581	17.93
