Data from BA28416_Reflection_00003.txt Node
Date: Mon Nov 18 16:05:17 EST 2019
User: vgr7
Spectrometer: USB2G7710
Scans to average: 3
Trigger mode: 4
Integration Time (sec): 2.000000E-2
Electric dark correction enabled: true
Boxcar width: 10
XAxis mode: Wavelengths
Number of Pixels in Spectrum: 2048
>>>>>Begin Spectral Data<<<<<
177.721	-73.48
178.105	35.96
178.488	267.57
178.871	1565.52
179.254	-610.74
179.636	94.68
180.019	-227.87
180.402	51.11
180.785	59.38
181.168	11.1
181.55	86.54
181.933	81.4
182.316	61.31
182.698	48.07
183.081	44.04
183.463	31.19
183.846	47.75
184.228	62.28
184.611	58.06
184.993	63.08
185.376	68.39
185.758	61.09
186.14	59.88
186.522	86.11
186.904	75.72
187.287	93.27
187.669	67.44
188.051	78.15
188.433	80.17
188.815	80.58
189.197	103.34
189.579	65.63
189.961	89.52
190.342	98.22
190.724	156.15
191.106	160.52
191.488	170.61
191.869	167.23
192.251	70.72
192.633	55.06
193.014	85.26
193.396	78.76
193.777	89.93
194.159	258.58
194.54	313.18
194.922	-269.31
195.303	-715.05
195.684	-686.7
196.065	-185.71
196.447	-212.74
196.828	-121.19
197.209	-89.73
197.59	-118.25
197.971	-185.17
198.352	-125.22
198.733	-164.58
199.114	-130.02
199.495	-97.67
199.876	-96.82
200.257	-78.14
200.638	-61.61
201.018	-72.47
201.399	-65.59
201.78	-65.29
202.16	-74.79
202.541	-100.25
202.922	-287.89
203.302	-210.52
203.683	-710.93
204.063	-1335.74
204.444	-532.68
204.824	-963.94
205.204	-1287.23
205.585	-605.67
205.965	-589.08
206.345	-560.03
206.725	-7463.64
207.106	953.83
207.486	439.08
207.866	465.44
208.246	242.1
208.626	230.18
209.006	316.17
209.386	383.87
209.766	444.9
210.145	344.07
210.525	223.44
210.905	160.45
211.285	146.87
211.664	293.41
212.044	214.72
212.424	220.45
212.803	164.57
213.183	158.02
213.562	133.48
213.942	166.9
214.321	224.38
214.701	192.13
215.08	178.28
215.459	210.71
215.838	309.86
216.218	2497.52
216.597	711.01
216.976	1183.59
217.355	10442.86
217.734	1190.3
218.113	-4064.95
218.492	-1520.55
218.871	-484.34
219.25	-424.17
219.629	-551.09
220.008	-462.99
220.387	-311.58
220.766	-203.92
221.144	-368.21
221.523	-270.06
221.902	-375.96
222.28	6816.98
222.659	-605.67
223.037	-277.58
223.416	-297.43
223.794	-240.43
224.173	-207.05
224.551	-106.53
224.929	-110.97
225.308	-75.14
225.686	-51.74
226.064	-43.72
226.442	-36.09
226.821	-25.37
227.199	-27.68
227.577	-27.7
227.955	-24.87
228.333	-21.47
228.711	-16.28
229.089	-7.82
229.467	-13.04
229.845	-11.73
230.222	-6.74
230.6	-7.08
230.978	-4.38
231.356	-1.69
231.733	-0.23
232.111	1.39
232.488	3.04
232.866	4.67
233.243	3.33
233.621	3.75
233.998	6.45
234.376	6.57
234.753	6.6
235.13	7.85
235.508	9.43
235.885	7.15
236.262	7.05
236.639	7.7
237.016	6.2
237.393	8.91
237.77	8.04
238.147	6.93
238.524	7.06
238.901	6.99
239.278	6.66
239.655	6.1
240.032	5.28
240.409	4.85
240.785	4.4
241.162	4.33
241.539	3.52
241.915	3.42
242.292	3.13
242.668	3.41
243.045	3.6
243.421	3.62
243.798	3.63
244.174	3.48
244.551	3.6
244.927	3.36
245.303	3.41
245.679	3.55
246.056	3.22
246.432	3.1
246.808	2.97
247.184	2.87
247.56	2.65
247.936	2.66
248.312	2.73
248.688	2.86
249.064	2.9
249.44	2.91
249.815	3
250.191	3.08
250.567	3.08
250.943	2.96
251.318	2.94
251.694	2.83
252.069	2.96
252.445	2.75
252.82	2.7
253.196	2.27
253.571	2.22
253.947	2.62
254.322	2.6
254.697	2.43
255.073	2.28
255.448	2.3
255.823	2.32
256.198	2.37
256.573	2.43
256.948	2.75
257.323	2.72
257.698	2.59
258.073	2.65
258.448	2.62
258.823	2.6
259.198	2.49
259.573	2.68
259.948	2.54
260.322	2.59
260.697	2.7
261.072	2.68
261.446	2.6
261.821	2.51
262.195	2.64
262.57	2.6
262.944	2.72
263.319	2.85
263.693	2.83
264.067	2.78
264.442	2.67
264.816	2.5
265.19	2.68
265.564	2.72
265.938	2.55
266.313	2.39
266.687	2.35
267.061	2.68
267.435	2.63
267.809	2.6
268.183	2.66
268.556	2.62
268.93	2.74
269.304	2.58
269.678	2.7
270.051	2.67
270.425	2.72
270.799	2.58
271.172	2.62
271.546	2.52
271.919	2.53
272.293	2.48
272.666	2.48
273.04	2.44
273.413	2.38
273.787	2.49
274.16	2.62
274.533	2.7
274.906	2.37
275.279	2.39
275.653	2.35
276.026	2.27
276.399	2.19
276.772	2.29
277.145	2.37
277.518	2.19
277.891	2.05
278.263	1.84
278.636	1.9
279.009	1.85
279.382	1.96
279.755	1.97
280.127	2.23
280.5	2.23
280.872	2.14
281.245	2.15
281.617	2.31
281.99	2.41
282.362	2.42
282.735	2.4
283.107	2.39
283.479	2.57
283.852	2.75
284.224	2.75
284.596	2.76
284.968	2.97
285.34	3.1
285.713	3.11
286.085	3.25
286.457	3.38
286.829	3.46
287.201	3.63
287.572	3.71
287.944	3.56
288.316	3.56
288.688	3.55
289.06	3.56
289.431	3.5
289.803	3.41
290.175	3.39
290.546	3.58
290.918	3.61
291.289	3.44
291.661	3.3
292.032	3.49
292.403	3.41
292.775	3.32
293.146	3.23
293.517	3.32
293.889	3.31
294.26	3.13
294.631	3.15
295.002	2.99
295.373	2.95
295.744	2.96
296.115	3.02
296.486	3.07
296.857	3.11
297.228	3.15
297.599	3.06
297.97	3.13
298.34	3.06
298.711	3.19
299.082	3.35
299.452	3.3
299.823	3.31
300.194	3.37
300.564	3.39
300.935	3.56
301.305	3.46
301.676	3.51
302.046	3.58
302.416	3.57
302.787	3.64
303.157	3.58
303.527	3.55
303.897	3.34
304.267	3.29
304.637	3.23
305.008	3.32
305.378	3.53
305.748	3.6
306.117	3.66
306.487	3.53
306.857	3.53
307.227	3.77
307.597	3.67
307.967	3.73
308.336	3.63
308.706	3.55
309.076	3.72
309.445	3.67
309.815	3.67
310.184	3.59
310.554	3.53
310.923	3.46
311.293	3.65
311.662	3.77
312.031	3.87
312.401	3.96
312.77	3.91
313.139	3.86
313.508	3.8
313.877	3.75
314.246	3.8
314.616	3.78
314.985	3.58
315.353	3.54
315.722	3.42
316.091	3.5
316.46	3.41
316.829	3.34
317.198	3.42
317.567	3.36
317.935	3.41
318.304	3.65
318.672	3.66
319.041	3.45
319.41	3.56
319.778	3.58
320.147	3.59
320.515	3.46
320.883	3.35
321.252	3.44
321.62	3.41
321.988	3.36
322.357	3.38
322.725	3.26
323.093	3.35
323.461	3.44
323.829	3.42
324.197	3.53
324.565	3.5
324.933	3.52
325.301	3.59
325.669	3.58
326.037	3.56
326.405	3.58
326.772	3.62
327.14	3.63
327.508	3.57
327.875	3.44
328.243	3.5
328.61	3.54
328.978	3.44
329.346	3.5
329.713	3.55
330.08	3.59
330.448	3.67
330.815	3.64
331.182	3.62
331.55	3.63
331.917	3.7
332.284	3.79
332.651	3.75
333.018	3.77
333.385	3.71
333.752	3.74
334.119	3.82
334.486	3.79
334.853	3.69
335.22	3.8
335.587	3.83
335.954	3.8
336.32	3.74
336.687	3.78
337.054	3.8
337.42	3.68
337.787	3.57
338.153	3.59
338.52	3.6
338.886	3.46
339.253	3.47
339.619	3.44
339.986	3.42
340.352	3.44
340.718	3.4
341.084	3.45
341.451	3.39
341.817	3.37
342.183	3.47
342.549	3.53
342.915	3.43
343.281	3.53
343.647	3.52
344.013	3.57
344.379	3.52
344.745	3.54
345.11	3.57
345.476	3.59
345.842	3.7
346.208	3.73
346.573	3.85
346.939	3.95
347.304	3.88
347.67	3.78
348.035	3.77
348.401	3.78
348.766	3.75
349.132	3.69
349.497	3.7
349.862	3.66
350.228	3.71
350.593	3.72
350.958	3.69
351.323	3.73
351.688	3.73
352.053	3.78
352.418	3.69
352.783	3.76
353.148	3.78
353.513	3.68
353.878	3.64
354.243	3.67
354.608	3.61
354.972	3.62
355.337	3.69
355.702	3.77
356.066	3.81
356.431	3.86
356.795	3.92
357.16	3.86
357.524	3.82
357.889	3.76
358.253	3.75
358.618	3.77
358.982	3.72
359.346	3.7
359.71	3.66
360.075	3.67
360.439	3.7
360.803	3.72
361.167	3.74
361.531	3.71
361.895	3.67
362.259	3.67
362.623	3.71
362.987	3.69
363.351	3.65
363.714	3.67
364.078	3.6
364.442	3.57
364.806	3.63
365.169	3.66
365.533	3.66
365.896	3.65
366.26	3.64
366.623	3.67
366.987	3.75
367.35	3.8
367.714	3.86
368.077	3.82
368.44	3.77
368.803	3.76
369.167	3.74
369.53	3.73
369.893	3.76
370.256	3.81
370.619	3.88
370.982	3.87
371.345	3.81
371.708	3.86
372.071	3.84
372.434	3.82
372.797	3.84
373.159	3.81
373.522	3.83
373.885	3.84
374.247	3.85
374.61	3.75
374.973	3.69
375.335	3.63
375.698	3.65
376.06	3.61
376.423	3.59
376.785	3.68
377.147	3.71
377.51	3.67
377.872	3.61
378.234	3.52
378.596	3.55
378.958	3.54
379.321	3.55
379.683	3.58
380.045	3.56
380.407	3.58
380.769	3.6
381.13	3.64
381.492	3.61
381.854	3.64
382.216	3.74
382.578	3.77
382.939	3.77
383.301	3.76
383.663	3.79
384.024	3.8
384.386	3.81
384.747	3.83
385.109	3.85
385.47	3.83
385.832	3.86
386.193	3.85
386.554	3.85
386.916	3.82
387.277	3.82
387.638	3.87
387.999	3.83
388.36	3.82
388.721	3.8
389.082	3.79
389.443	3.73
389.804	3.7
390.165	3.72
390.526	3.77
390.887	3.76
391.248	3.78
391.609	3.79
391.969	3.77
392.33	3.72
392.691	3.69
393.051	3.67
393.412	3.67
393.772	3.65
394.133	3.68
394.493	3.7
394.854	3.71
395.214	3.7
395.574	3.7
395.935	3.68
396.295	3.69
396.655	3.71
397.015	3.77
397.376	3.8
397.736	3.77
398.096	3.75
398.456	3.81
398.816	3.81
399.176	3.82
399.535	3.8
399.895	3.82
400.255	3.84
400.615	3.89
400.975	3.9
401.334	3.91
401.694	3.92
402.054	3.93
402.413	3.92
402.773	3.88
403.132	3.88
403.492	3.88
403.851	3.88
404.211	3.89
404.57	3.9
404.929	3.9
405.288	3.9
405.648	3.91
406.007	3.91
406.366	3.89
406.725	3.9
407.084	3.97
407.443	3.98
407.802	4
408.161	4.01
408.52	4.01
408.879	4.03
409.238	4.02
409.596	4.03
409.955	4.05
410.314	4.09
410.673	4.11
411.031	4.14
411.39	4.14
411.748	4.12
412.107	4.11
412.465	4.09
412.824	4.1
413.182	4.06
413.54	4.06
413.899	4.07
414.257	4.06
414.615	4.01
414.974	3.99
415.332	3.95
415.69	3.96
416.048	3.93
416.406	3.93
416.764	3.92
417.122	3.91
417.48	3.9
417.838	3.9
418.195	3.9
418.553	3.91
418.911	3.92
419.269	3.94
419.626	3.93
419.984	3.93
420.342	3.95
420.699	3.95
421.057	3.94
421.414	3.95
421.772	3.96
422.129	3.96
422.486	3.98
422.844	3.99
423.201	3.97
423.558	3.98
423.915	3.98
424.273	3.99
424.63	3.99
424.987	4.01
425.344	4
425.701	3.99
426.058	3.98
426.415	3.97
426.772	3.95
427.128	3.96
427.485	3.96
427.842	3.95
428.199	3.97
428.555	3.96
428.912	3.95
429.269	3.96
429.625	3.96
429.982	3.95
430.338	3.94
430.695	3.95
431.051	3.95
431.407	3.96
431.764	3.95
432.12	3.95
432.476	3.91
432.832	3.91
433.189	3.92
433.545	3.92
433.901	3.92
434.257	3.91
434.613	3.91
434.969	3.92
435.325	3.9
435.681	3.91
436.036	3.93
436.392	3.95
436.748	3.94
437.104	3.95
437.459	3.94
437.815	3.95
438.171	3.96
438.526	3.98
438.882	3.97
439.237	3.98
439.593	3.98
439.948	4
440.304	4.01
440.659	4.01
441.014	4.02
441.369	4.02
441.725	4.03
442.08	4.03
442.435	4.02
442.79	4.04
443.145	4.04
443.5	4.03
443.855	4.01
444.21	4.02
444.565	4.04
444.92	4.05
445.275	4.04
445.629	4.05
445.984	4.05
446.339	4.06
446.693	4.06
447.048	4.07
447.403	4.04
447.757	4.04
448.112	4.03
448.466	4.03
448.82	4.02
449.175	4.03
449.529	4.04
449.883	4.04
450.238	4.04
450.592	4.04
450.946	4.05
451.3	4.04
451.654	4.03
452.008	4.01
452.362	4
452.716	4
453.07	4.02
453.424	4.01
453.778	4.02
454.132	4.02
454.486	4.01
454.839	4.03
455.193	4.01
455.547	4.02
455.9	4.02
456.254	4.04
456.607	4.03
456.961	4.03
457.314	4.02
457.668	4.02
458.021	4.01
458.375	4
458.728	4.02
459.081	4.03
459.434	4.03
459.787	4.03
460.141	4.02
460.494	4.03
460.847	4.03
461.2	4
461.553	4
461.906	4.01
462.259	4.05
462.611	4.07
462.964	4.07
463.317	4.08
463.67	4.06
464.022	4.07
464.375	4.06
464.728	4.08
465.08	4.08
465.433	4.08
465.785	4.08
466.138	4.06
466.49	4.06
466.843	4.06
467.195	4.09
467.547	4.1
467.899	4.07
468.252	4.07
468.604	4.09
468.956	4.1
469.308	4.1
469.66	4.07
470.012	4.04
470.364	4.05
470.716	4.04
471.068	4.06
471.42	4.06
471.772	4.07
472.123	4.1
472.475	4.12
472.827	4.13
473.178	4.15
473.53	4.16
473.882	4.15
474.233	4.16
474.585	4.12
474.936	4.11
475.288	4.13
475.639	4.14
475.99	4.16
476.342	4.17
476.693	4.18
477.044	4.18
477.395	4.2
477.746	4.19
478.097	4.19
478.448	4.19
478.8	4.19
479.15	4.18
479.501	4.17
479.852	4.15
480.203	4.18
480.554	4.2
480.905	4.2
481.255	4.21
481.606	4.21
481.957	4.24
482.307	4.26
482.658	4.26
483.009	4.26
483.359	4.26
483.709	4.27
484.06	4.27
484.41	4.27
484.761	4.27
485.111	4.28
485.461	4.28
485.811	4.29
486.162	4.3
486.512	4.3
486.862	4.31
487.212	4.32
487.562	4.31
487.912	4.31
488.262	4.31
488.612	4.32
488.961	4.32
489.311	4.32
489.661	4.31
490.011	4.31
490.36	4.31
490.71	4.31
491.06	4.3
491.409	4.3
491.759	4.3
492.108	4.3
492.458	4.3
492.807	4.3
493.157	4.28
493.506	4.27
493.855	4.28
494.204	4.27
494.554	4.27
494.903	4.26
495.252	4.25
495.601	4.25
495.95	4.25
496.299	4.24
496.648	4.25
496.997	4.24
497.346	4.27
497.695	4.26
498.043	4.27
498.392	4.26
498.741	4.27
499.09	4.27
499.438	4.26
499.787	4.28
500.135	4.3
500.484	4.31
500.832	4.32
501.181	4.33
501.529	4.34
501.878	4.33
502.226	4.35
502.574	4.38
502.923	4.38
503.271	4.39
503.619	4.39
503.967	4.4
504.315	4.41
504.663	4.39
505.011	4.41
505.359	4.4
505.707	4.42
506.055	4.42
506.403	4.43
506.751	4.46
507.098	4.46
507.446	4.47
507.794	4.48
508.141	4.47
508.489	4.48
508.837	4.48
509.184	4.47
509.531	4.46
509.879	4.45
510.226	4.45
510.574	4.44
510.921	4.44
511.268	4.43
511.616	4.44
511.963	4.45
512.31	4.44
512.657	4.46
513.004	4.49
513.351	4.48
513.698	4.49
514.045	4.47
514.392	4.47
514.739	4.47
515.086	4.47
515.432	4.48
515.779	4.48
516.126	4.48
516.473	4.53
516.819	4.56
517.166	4.56
517.512	4.56
517.859	4.58
518.205	4.58
518.552	4.59
518.898	4.59
519.245	4.6
519.591	4.59
519.937	4.56
520.283	4.55
520.629	4.55
520.976	4.55
521.322	4.56
521.668	4.55
522.014	4.55
522.36	4.55
522.706	4.55
523.052	4.54
523.398	4.55
523.743	4.53
524.089	4.52
524.435	4.52
524.781	4.53
525.126	4.53
525.472	4.52
525.817	4.52
526.163	4.52
526.509	4.52
526.854	4.52
527.199	4.54
527.545	4.54
527.89	4.55
528.235	4.55
528.581	4.56
528.926	4.56
529.271	4.56
529.616	4.55
529.961	4.55
530.306	4.56
530.651	4.56
530.996	4.56
531.341	4.57
531.686	4.58
532.031	4.58
532.376	4.57
532.721	4.58
533.065	4.58
533.41	4.58
533.755	4.57
534.099	4.58
534.444	4.58
534.788	4.59
535.133	4.6
535.477	4.6
535.822	4.59
536.166	4.6
536.51	4.6
536.855	4.62
537.199	4.62
537.543	4.62
537.887	4.62
538.231	4.62
538.576	4.63
538.92	4.61
539.264	4.61
539.608	4.62
539.951	4.61
540.295	4.64
540.639	4.65
540.983	4.66
541.327	4.65
541.671	4.66
542.014	4.67
542.358	4.65
542.701	4.66
543.045	4.66
543.389	4.66
543.732	4.66
544.075	4.67
544.419	4.68
544.762	4.68
545.105	4.68
545.449	4.68
545.792	4.66
546.135	4.67
546.478	4.67
546.821	4.67
547.165	4.66
547.508	4.65
547.851	4.65
548.194	4.67
548.536	4.68
548.879	4.67
549.222	4.66
549.565	4.65
549.908	4.65
550.25	4.68
550.593	4.68
550.936	4.69
551.278	4.68
551.621	4.66
551.963	4.67
552.306	4.67
552.648	4.67
552.991	4.7
553.333	4.72
553.675	4.72
554.017	4.72
554.36	4.76
554.702	4.79
555.044	4.78
555.386	4.77
555.728	4.76
556.07	4.77
556.412	4.77
556.754	4.78
557.096	4.78
557.438	4.77
557.78	4.8
558.121	4.82
558.463	4.85
558.805	4.89
559.147	4.85
559.488	4.85
559.83	4.86
560.171	4.85
560.513	4.86
560.854	4.87
561.196	4.87
561.537	4.87
561.878	4.83
562.22	4.84
562.561	4.83
562.902	4.83
563.243	4.81
563.584	4.82
563.925	4.82
564.266	4.79
564.607	4.81
564.948	4.8
565.289	4.78
565.63	4.78
565.971	4.75
566.312	4.79
566.653	4.78
566.993	4.79
567.334	4.77
567.675	4.76
568.015	4.79
568.356	4.79
568.696	4.8
569.037	4.79
569.377	4.79
569.718	4.8
570.058	4.81
570.398	4.79
570.739	4.77
571.079	4.77
571.419	4.79
571.759	4.79
572.099	4.8
572.439	4.8
572.779	4.8
573.119	4.81
573.459	4.81
573.799	4.83
574.139	4.82
574.479	4.82
574.819	4.82
575.158	4.81
575.498	4.81
575.838	4.78
576.177	4.78
576.517	4.77
576.856	4.79
577.196	4.78
577.535	4.84
577.875	4.86
578.214	4.87
578.553	4.89
578.893	4.86
579.232	4.83
579.571	4.85
579.91	4.83
580.25	4.84
580.589	4.85
580.928	4.82
581.267	4.84
581.606	4.83
581.945	4.83
582.283	4.82
582.622	4.81
582.961	4.82
583.3	4.86
583.639	4.88
583.977	4.89
584.316	4.91
584.654	4.84
584.993	4.83
585.332	4.85
585.67	4.85
586.008	4.83
586.347	4.84
586.685	4.84
587.024	4.85
587.362	4.87
587.7	4.86
588.038	4.9
588.376	4.88
588.715	4.91
589.053	4.94
589.391	4.97
589.729	4.98
590.067	4.99
590.404	4.98
590.742	4.97
591.08	4.97
591.418	4.96
591.756	5.02
592.093	5.04
592.431	5.01
592.769	5
593.106	5.01
593.444	5.02
593.781	5
594.119	5.01
594.456	5
594.793	4.98
595.131	4.98
595.468	4.99
595.805	5
596.143	4.96
596.48	4.95
596.817	4.95
597.154	4.97
597.491	4.98
597.828	4.99
598.165	4.99
598.502	5
598.839	4.97
599.176	4.94
599.512	4.97
599.849	4.99
600.186	5.04
600.523	5.04
600.859	5.08
601.196	5.11
601.532	5.09
601.869	5.14
602.205	5.15
602.542	5.17
602.878	5.17
603.215	5.21
603.551	5.2
603.887	5.18
604.223	5.16
604.56	5.16
604.896	5.18
605.232	5.17
605.568	5.16
605.904	5.19
606.24	5.24
606.576	5.26
606.912	5.26
607.248	5.24
607.583	5.24
607.919	5.21
608.255	5.18
608.591	5.24
608.926	5.2
609.262	5.2
609.597	5.2
609.933	5.19
610.268	5.13
610.604	5.1
610.939	5.12
611.275	5.13
611.61	5.14
611.945	5.16
612.281	5.17
612.616	5.19
612.951	5.17
613.286	5.17
613.621	5.13
613.956	5.12
614.291	5.09
614.626	5.12
614.961	5.13
615.296	5.1
615.631	5.1
615.966	5.1
616.3	5.09
616.635	5.12
616.97	5.12
617.304	5.16
617.639	5.22
617.973	5.26
618.308	5.26
618.642	5.24
618.977	5.16
619.311	5.17
619.646	5.17
619.98	5.19
620.314	5.17
620.648	5.18
620.983	5.25
621.317	5.25
621.651	5.26
621.985	5.26
622.319	5.27
622.653	5.24
622.987	5.26
623.321	5.24
623.655	5.22
623.988	5.26
624.322	5.24
624.656	5.23
624.99	5.21
625.323	5.24
625.657	5.28
625.99	5.37
626.324	5.35
626.657	5.34
626.991	5.33
627.324	5.3
627.658	5.34
627.991	5.28
628.324	5.33
628.657	5.31
628.991	5.27
629.324	5.3
629.657	5.32
629.99	5.27
630.323	5.31
630.656	5.3
630.989	5.31
631.322	5.33
631.655	5.37
631.987	5.4
632.32	5.34
632.653	5.3
632.986	5.26
633.318	5.26
633.651	5.29
633.984	5.32
634.316	5.31
634.649	5.31
634.981	5.33
635.313	5.32
635.646	5.3
635.978	5.35
636.31	5.38
636.643	5.31
636.975	5.37
637.307	5.36
637.639	5.32
637.971	5.31
638.303	5.33
638.635	5.26
638.967	5.27
639.299	5.31
639.631	5.31
639.963	5.3
640.295	5.28
640.626	5.24
640.958	5.25
641.29	5.26
641.621	5.18
641.953	5.19
642.285	5.21
642.616	5.27
642.948	5.21
643.279	5.19
643.61	5.23
643.942	5.23
644.273	5.2
644.604	5.19
644.936	5.14
645.267	5.09
645.598	5.12
645.929	5.12
646.26	5.13
646.591	5.09
646.922	5.1
647.253	5.13
647.584	5.14
647.915	5.11
648.245	5.15
648.576	5.16
648.907	5.15
649.238	5.16
649.568	5.14
649.899	5.19
650.229	5.15
650.56	5.19
650.89	5.13
651.221	5.11
651.551	5.18
651.882	5.24
652.212	5.3
652.542	5.35
652.872	5.33
653.203	5.29
653.533	5.33
653.863	5.37
654.193	5.37
654.523	5.38
654.853	5.41
655.183	5.43
655.513	5.42
655.843	5.38
656.172	5.33
656.502	5.37
656.832	5.36
657.162	5.41
657.491	5.37
657.821	5.42
658.15	5.48
658.48	5.52
658.809	5.51
659.139	5.55
659.468	5.48
659.798	5.49
660.127	5.52
660.456	5.46
660.785	5.46
661.115	5.46
661.444	5.47
661.773	5.46
662.102	5.47
662.431	5.53
662.76	5.61
663.089	5.69
663.418	5.7
663.747	5.74
664.076	5.73
664.404	5.76
664.733	5.74
665.062	5.69
665.39	5.65
665.719	5.62
666.048	5.65
666.376	5.67
666.705	5.65
667.033	5.69
667.362	5.79
667.69	5.74
668.018	5.71
668.347	5.7
668.675	5.64
669.003	5.54
669.331	5.57
669.659	5.52
669.987	5.45
670.315	5.36
670.643	5.36
670.971	5.44
671.299	5.48
671.627	5.41
671.955	5.39
672.283	5.43
672.61	5.41
672.938	5.35
673.266	5.37
673.593	5.47
673.921	5.46
674.249	5.47
674.576	5.45
674.904	5.54
675.231	5.52
675.558	5.59
675.886	5.7
676.213	5.64
676.54	5.64
676.867	5.72
677.195	5.74
677.522	5.73
677.849	5.66
678.176	5.74
678.503	5.85
678.83	5.92
679.157	5.87
679.484	5.93
679.81	5.92
680.137	5.86
680.464	5.75
680.791	5.81
681.117	5.78
681.444	5.78
681.771	5.71
682.097	5.73
682.424	5.79
682.75	5.74
683.077	5.81
683.403	5.89
683.729	5.82
684.056	5.97
684.382	5.94
684.708	5.96
685.034	5.86
685.36	5.79
685.686	5.79
686.012	5.84
686.339	5.93
686.664	5.88
686.99	5.95
687.316	6
687.642	5.92
687.968	5.98
688.294	6.11
688.619	6.19
688.945	6.16
689.271	6.07
689.596	6.08
689.922	6.02
690.247	5.99
690.573	5.97
690.898	5.84
691.224	5.9
691.549	5.91
691.874	5.91
692.2	5.97
692.525	5.96
692.85	6.04
693.175	5.95
693.5	6.01
693.825	6.07
694.15	6.05
694.475	6.09
694.8	6.02
695.125	5.91
695.45	5.86
695.775	5.91
696.099	5.96
696.424	5.88
696.749	5.86
697.073	5.85
697.398	5.92
697.723	5.94
698.047	5.88
698.372	5.78
698.696	5.82
699.02	5.79
699.345	5.74
699.669	5.69
699.993	5.67
700.318	5.66
700.642	5.66
700.966	5.67
701.29	5.59
701.614	5.61
701.938	5.63
702.262	5.71
702.586	5.73
702.91	5.74
703.234	5.85
703.557	5.91
703.881	5.89
704.205	5.91
704.529	5.75
704.852	5.83
705.176	5.95
705.499	5.92
705.823	5.94
706.146	6.05
706.47	6.06
706.793	6.06
707.117	6.05
707.44	5.96
707.763	5.93
708.086	5.91
708.409	5.83
708.733	5.86
709.056	5.78
709.379	5.79
709.702	5.77
710.025	5.68
710.348	5.69
710.671	5.67
710.993	5.72
711.316	5.85
711.639	5.83
711.962	5.91
712.284	5.89
712.607	5.91
712.93	5.95
713.252	5.78
713.575	5.89
713.897	5.91
714.22	5.89
714.542	5.92
714.864	6
715.187	6
715.509	5.96
715.831	5.9
716.153	5.93
716.475	5.92
716.798	6.13
717.12	6.1
717.442	6.18
717.764	6.03
718.085	6
718.407	6.12
718.729	6.06
719.051	6.13
719.373	5.97
719.695	5.87
720.016	5.98
720.338	5.84
720.659	5.9
720.981	5.96
721.302	6.17
721.624	6.15
721.945	6.23
722.267	6.41
722.588	6.39
722.909	6.27
723.231	6.21
723.552	5.95
723.873	5.85
724.194	5.81
724.515	6.13
724.836	6.14
725.157	6.08
725.478	6.03
725.799	6.13
726.12	6.25
726.441	6.3
726.762	6.39
727.083	6.47
727.403	6.4
727.724	6.49
728.045	6.43
728.365	6.31
728.686	6.31
729.006	6.29
729.327	6.43
729.647	6.54
729.967	6.53
730.288	6.63
730.608	6.64
730.928	6.54
731.249	6.34
731.569	6.52
731.889	6.4
732.209	6.44
732.529	6.35
732.849	6.55
733.169	6.53
733.489	6.43
733.809	6.4
734.129	6.37
734.448	6.46
734.768	6.3
735.088	6.51
735.408	6.52
735.727	6.43
736.047	6.49
736.366	6.36
736.686	6.44
737.005	6.42
737.325	6.58
737.644	6.58
737.963	6.62
738.283	6.44
738.602	6.6
738.921	6.59
739.24	6.72
739.56	6.32
739.879	6.4
740.198	6.35
740.517	6.47
740.836	6.64
741.155	6.53
741.473	6.68
741.792	6.63
742.111	6.61
742.43	6.75
742.748	6.62
743.067	6.85
743.386	6.87
743.704	6.91
744.023	6.97
744.341	7.04
744.66	7.31
744.978	7.28
745.297	7.27
745.615	7.42
745.933	7.4
746.252	7.78
746.57	7.59
746.888	7.85
747.206	7.6
747.524	7.42
747.842	7.55
748.16	7.68
748.478	7.7
748.796	7.81
749.114	7.7
749.432	7.53
749.749	7.28
750.067	7.19
750.385	7.31
750.703	6.79
751.02	7.07
751.338	6.82
751.655	6.8
751.973	6.87
752.29	6.69
752.608	6.49
752.925	6.29
753.242	6.33
753.56	5.97
753.877	6.15
754.194	6.24
754.511	6.14
754.828	5.99
755.145	6.04
755.462	6.1
755.779	6.3
756.096	6.68
756.413	7.01
756.73	7.07
757.047	6.77
757.364	7.18
757.68	6.81
757.997	6.87
758.314	6.97
758.63	6.71
758.947	6.9
759.264	6.81
759.58	6.81
759.896	6.91
760.213	7.35
760.529	7.27
760.846	7.35
761.162	7.29
761.478	7.24
761.794	7.17
762.11	7.02
762.426	6.88
762.743	6.7
763.059	6.51
763.375	6.38
763.69	6.83
764.006	6.78
764.322	6.94
764.638	6.82
764.954	6.85
765.27	6.94
765.585	6.74
765.901	6.92
766.216	7.12
766.532	7.09
766.848	7.02
767.163	7.17
767.478	7.11
767.794	7.06
768.109	7.04
768.424	7.04
768.74	7.08
769.055	7.08
769.37	7.23
769.685	7.12
770	7.33
770.315	6.92
770.63	6.87
770.945	6.87
771.26	6.89
771.575	6.96
771.89	7.05
772.205	7.23
772.52	7.12
772.834	6.94
773.149	7.17
773.464	7.07
773.778	6.84
774.093	6.75
774.407	6.75
774.722	6.82
775.036	6.91
775.351	6.99
775.665	7.12
775.979	6.89
776.293	7.3
776.608	7.27
776.922	7.38
777.236	7.84
777.55	7.79
777.864	8.34
778.178	8.57
778.492	9
778.806	9.02
779.12	8.96
779.434	8.86
779.747	8.73
780.061	8.63
780.375	8.7
780.689	8.94
781.002	9.15
781.316	8.95
781.629	9.04
781.943	9.01
782.256	9.04
782.57	9.11
782.883	8.75
783.196	8.65
783.51	8.62
783.823	8.25
784.136	8.41
784.449	7.9
784.762	7.76
785.075	7.33
785.388	7.37
785.701	7.76
786.014	7.58
786.327	7.69
786.64	8.11
786.953	8.23
787.266	7.77
787.578	7.83
787.891	8.38
788.204	8.12
788.516	8.55
788.829	8.52
789.141	8.5
789.454	8.79
789.766	9.26
790.079	9.24
790.391	9.25
790.703	9.12
791.016	9.01
791.328	8.92
791.64	8.61
791.952	8.62
792.264	8.29
792.576	8.35
792.888	8.3
793.2	8.03
793.512	7.93
793.824	7.97
794.136	8.03
794.448	7.59
794.76	7.57
795.071	7.34
795.383	7.04
795.695	7.42
796.006	6.98
796.318	6.76
796.629	6.72
796.941	6.88
797.252	7.58
797.564	8.13
797.875	7.96
798.186	8.16
798.497	8.2
798.809	8.57
799.12	8.82
799.431	9.27
799.742	9.02
800.053	9.54
800.364	10.24
800.675	9.53
800.986	9.35
801.297	9.57
801.608	9.5
801.918	9.39
802.229	9.61
802.54	9.98
802.851	10.05
803.161	10.39
803.472	10.39
803.782	9.58
804.093	9.5
804.403	9.51
804.714	9.39
805.024	9.38
805.334	9.48
805.645	9.72
805.955	8.73
806.265	9
806.575	7.78
806.885	6.66
807.195	7.77
807.505	8.47
807.815	8.7
808.125	9.11
808.435	9.29
808.745	8.74
809.055	9.24
809.365	9.11
809.674	8.85
809.984	8.69
810.294	8.87
810.603	8.54
810.913	9.07
811.222	9.57
811.532	8.88
811.841	8.7
812.151	9.32
812.46	9.45
812.769	9.78
813.079	10.3
813.388	10.74
813.697	10.28
814.006	9.4
814.315	9.18
814.624	8.4
814.933	8.85
815.242	9.18
815.551	9.21
815.86	9.01
816.169	8.58
816.478	8.44
816.786	8.23
817.095	8.49
817.404	8.54
817.712	8.3
818.021	8.72
818.33	8.49
818.638	8.23
818.947	8.74
819.255	8.87
819.563	8.87
819.872	9.22
820.18	8.92
820.488	8.92
820.796	8.96
821.105	8.85
821.413	8.74
821.721	8.63
822.029	8.36
822.337	8.52
822.645	8.8
822.953	8.79
823.26	8.88
823.568	8.83
823.876	8.81
824.184	8.86
824.491	8.96
824.799	8.99
825.107	8.95
825.414	8.83
825.722	8.69
826.029	8.72
826.337	8.74
826.644	9.03
826.951	9.17
827.259	9.22
827.566	9.34
827.873	9.55
828.18	9.58
828.488	9.98
828.795	10
829.102	9.9
829.409	10.35
829.716	10.34
830.023	10.54
830.329	10.43
830.636	10.51
830.943	10.39
831.25	10.49
831.557	10.54
831.863	10.66
832.17	10.77
832.476	10.76
832.783	11.04
833.089	10.26
833.396	10.45
833.702	10.32
834.009	10.62
834.315	10.19
834.621	10.67
834.928	10.48
835.234	10.22
835.54	10.25
835.846	9.67
836.152	9.78
836.458	9.09
836.764	9.02
837.07	8.8
837.376	8.53
837.682	8.21
837.988	7.71
838.293	7.96
838.599	8.15
838.905	8.02
839.211	7.31
839.516	7.81
839.822	7.85
840.127	7.68
840.433	7.13
840.738	7.19
841.044	6.1
841.349	6.4
841.654	6.99
841.959	6.57
842.265	6.84
842.57	6.98
842.875	7.6
843.18	8.19
843.485	8.8
843.79	9.76
844.095	9.64
844.4	11.84
844.705	10.54
845.01	10
845.315	9.57
845.619	8.69
845.924	8.78
846.229	7.97
846.533	9.3
846.838	7.88
847.142	6.91
847.447	5.25
847.751	3.73
848.056	2.36
848.36	3.51
848.664	2.1
848.969	1.4
849.273	0.18
849.577	-1.28
849.881	-3.02
850.185	-2.54
850.489	-2.55
850.794	-5.89
851.097	-3.93
851.401	-4.95
851.705	-4.84
852.009	-2.25
852.313	-1.71
852.617	-1.39
852.92	-0.81
853.224	0.68
853.528	2.06
853.831	2.91
854.135	3.94
854.438	3.71
854.742	3.36
855.045	5.46
855.349	5.46
855.652	7.47
855.955	7.84
856.259	6.86
856.562	6.09
856.865	6.45
857.168	6.83
857.471	7.26
857.774	8.47
858.077	9.9
858.38	8.65
858.683	8.19
858.986	7.43
859.289	6.3
859.592	7.47
859.894	7.3
860.197	8.68
860.5	6.71
860.802	5.2
861.105	4.25
861.407	3.5
861.71	4.38
862.012	4.09
862.315	2
862.617	2.6
862.919	0.53
863.222	1.85
863.524	2.08
863.826	1.23
864.128	1.78
864.43	2.18
864.732	1.1
865.034	0.54
865.336	0.06
865.638	-0.24
865.94	-1.22
866.242	-1.22
866.544	-2.32
866.846	0.18
867.147	3.11
867.449	4.19
867.751	3.18
868.052	3.88
868.354	3.94
868.655	5.35
868.957	4.86
869.258	8.08
869.56	8.29
869.861	6.88
870.162	8.14
870.463	6.31
870.765	6.5
871.066	6.6
871.367	6.45
871.668	5.89
871.969	3.92
872.27	3.23
872.571	3.83
872.872	4.72
873.173	2.75
873.473	3.76
873.774	5.95
874.075	6.69
874.376	3.11
874.676	4.21
874.977	4.37
875.277	6.83
875.578	5.37
875.878	3.62
876.179	4.89
876.479	3.46
876.78	4.13
877.08	2.94
877.38	4.43
877.68	5.43
877.981	7.1
878.281	9.12
878.581	11.28
