Data from BA28468_Reflection_00007.txt Node
Date: Mon Nov 18 15:14:55 EST 2019
User: vgr7
Spectrometer: USB2G7710
Scans to average: 3
Trigger mode: 4
Integration Time (sec): 2.000000E-2
Electric dark correction enabled: true
Boxcar width: 10
XAxis mode: Wavelengths
Number of Pixels in Spectrum: 2048
>>>>>Begin Spectral Data<<<<<
177.721	139.76
178.105	3385.71
178.488	24.29
178.871	97.91
179.254	68.46
179.636	-307.89
180.019	70.47
180.402	52.73
180.785	167.55
181.168	119.34
181.55	-5.72
181.933	-1252.94
182.316	-338.96
182.698	-176.51
183.081	-146.72
183.463	-108.79
183.846	-5053.85
184.228	-145.03
184.611	-61.06
184.993	-12.63
185.376	7.76
185.758	-7.64
186.14	-11.21
186.522	-71.6
186.904	-54.22
187.287	-64
187.669	-48.07
188.051	-66.92
188.433	-42.65
188.815	-45.28
189.197	-66.63
189.579	-43.84
189.961	-63.4
190.342	-53.37
190.724	-26.29
191.106	-39.69
191.488	-46.51
191.869	-48.41
192.251	-56.87
192.633	-58.2
193.014	-60.4
193.396	-66.25
193.777	-52.85
194.159	-64.53
194.54	-60.98
194.922	-58.7
195.303	-67.33
195.684	-57.42
196.065	-39.32
196.447	-44.91
196.828	-58.23
197.209	-49.22
197.59	-58.35
197.971	-40.64
198.352	-46.15
198.733	-72.32
199.114	-80.59
199.495	-57.06
199.876	-53.19
200.257	-48.04
200.638	-35.74
201.018	-48.48
201.399	-51.5
201.78	-57.54
202.16	-54.07
202.541	-42.25
202.922	-52.42
203.302	-38.47
203.683	-55.44
204.063	-62.53
204.444	-62.31
204.824	-54.66
205.204	-51.54
205.585	-53.73
205.965	-48.06
206.345	-55.61
206.725	-62.57
207.106	-72.12
207.486	-107.3
207.866	-102.54
208.246	-108.28
208.626	-117.58
209.006	-96.51
209.386	-118.29
209.766	-129.26
210.145	-123.28
210.525	-121.45
210.905	-122.4
211.285	-111.75
211.664	-89.96
212.044	-109.33
212.424	-92.19
212.803	-89.71
213.183	-98.59
213.562	-93.52
213.942	-94.83
214.321	-93.89
214.701	-71.76
215.08	-52.34
215.459	-44.08
215.838	-45.65
216.218	-48.64
216.597	-38.76
216.976	-38.54
217.355	-41.06
217.734	-35.53
218.113	-40.26
218.492	-42.38
218.871	-42.37
219.25	-44.97
219.629	-52.51
220.008	-47.84
220.387	-51.99
220.766	-52.49
221.144	-66.37
221.523	-65.1
221.902	-75.23
222.28	-65.52
222.659	-61.38
223.037	-55.15
223.416	-54.46
223.794	-57.4
224.173	-48.55
224.551	-41.51
224.929	-32.12
225.308	-19.93
225.686	-16.19
226.064	-17.13
226.442	-16.83
226.821	-8.69
227.199	-8.52
227.577	-8.14
227.955	-9.32
228.333	-8.75
228.711	-7.11
229.089	-1.07
229.467	-0.5
229.845	0.13
230.222	-1.31
230.6	-3.23
230.978	-4.04
231.356	-2.12
231.733	0.03
232.111	-0.2
232.488	-0.46
232.866	-0.99
233.243	-0.4
233.621	-2.83
233.998	-0.45
234.376	0.32
234.753	-0.17
235.13	-0.7
235.508	0.8
235.885	0.09
236.262	0.8
236.639	0.5
237.016	-0.24
237.393	-0.25
237.77	0.24
238.147	0.29
238.524	0.7
238.901	1.91
239.278	1.52
239.655	1.44
240.032	2.01
240.409	1.53
240.785	1.45
241.162	1.72
241.539	2.5
241.915	2.77
242.292	2.42
242.668	2.22
243.045	2.43
243.421	2.44
243.798	2.95
244.174	3.09
244.551	3.38
244.927	3.36
245.303	3.61
245.679	3.78
246.056	3.98
246.432	3.99
246.808	3.65
247.184	3.83
247.56	3.9
247.936	3.73
248.312	3.79
248.688	3.88
249.064	3.72
249.44	3.84
249.815	3.69
250.191	3.88
250.567	4.09
250.943	4.08
251.318	4.04
251.694	4
252.069	3.93
252.445	3.84
252.82	4.05
253.196	3.85
253.571	3.66
253.947	3.59
254.322	3.5
254.697	3.82
255.073	3.8
255.448	3.59
255.823	3.63
256.198	3.79
256.573	3.75
256.948	3.96
257.323	3.92
257.698	3.92
258.073	3.8
258.448	3.7
258.823	3.77
259.198	3.72
259.573	3.72
259.948	3.74
260.322	3.61
260.697	3.59
261.072	3.55
261.446	3.62
261.821	3.58
262.195	3.72
262.57	3.65
262.944	3.42
263.319	3.4
263.693	3.23
264.067	3.26
264.442	3.19
264.816	3.03
265.19	2.92
265.564	2.73
265.938	2.75
266.313	2.71
266.687	2.69
267.061	2.68
267.435	2.65
267.809	2.46
268.183	2.55
268.556	2.5
268.93	2.79
269.304	2.67
269.678	2.78
270.051	2.71
270.425	2.72
270.799	2.87
271.172	2.94
271.546	3.09
271.919	2.86
272.293	2.88
272.666	2.87
273.04	2.88
273.413	2.99
273.787	2.99
274.16	2.9
274.533	2.88
274.906	3.02
275.279	3.06
275.653	3.16
276.026	3.15
276.399	3.08
276.772	3
277.145	3.04
277.518	2.94
277.891	2.82
278.263	2.81
278.636	2.78
279.009	2.82
279.382	2.89
279.755	3.06
280.127	3.36
280.5	3.56
280.872	3.57
281.245	3.52
281.617	3.56
281.99	3.68
282.362	3.88
282.735	3.69
283.107	3.62
283.479	3.66
283.852	3.65
284.224	3.81
284.596	3.77
284.968	3.75
285.34	3.77
285.713	3.81
286.085	3.87
286.457	4.04
286.829	4.02
287.201	4.01
287.572	4.02
287.944	3.88
288.316	3.81
288.688	3.77
289.06	3.8
289.431	3.95
289.803	3.9
290.175	3.77
290.546	3.97
290.918	4
291.289	4.02
291.661	4.2
292.032	4.07
292.403	4.2
292.775	4.27
293.146	4.26
293.517	4.34
293.889	4.36
294.26	4.15
294.631	4.24
295.002	4.23
295.373	4.14
295.744	4.07
296.115	4.04
296.486	4
296.857	4.08
297.228	3.97
297.599	4.03
297.97	4.07
298.34	4.09
298.711	4.25
299.082	4.23
299.452	4.14
299.823	4.32
300.194	4.24
300.564	4.18
300.935	4.27
301.305	4.31
301.676	4.31
302.046	4.6
302.416	4.7
302.787	4.76
303.157	4.87
303.527	4.98
303.897	5.1
304.267	5.36
304.637	5.44
305.008	5.61
305.378	5.73
305.748	5.84
306.117	5.67
306.487	5.69
306.857	5.83
307.227	5.92
307.597	5.85
307.967	5.96
308.336	5.99
308.706	6.03
309.076	6.06
309.445	6.08
309.815	6
310.184	5.92
310.554	5.93
310.923	5.95
311.293	6.04
311.662	6.1
312.031	5.97
312.401	5.94
312.77	5.94
313.139	5.99
313.508	5.95
313.877	6.12
314.246	6.09
314.616	6.15
314.985	6.15
315.353	6.19
315.722	6.14
316.091	6.2
316.46	6.18
316.829	6.25
317.198	6.28
317.567	6.26
317.935	6.31
318.304	6.61
318.672	6.64
319.041	6.65
319.41	6.63
319.778	6.73
320.147	6.86
320.515	6.86
320.883	6.75
321.252	6.89
321.62	6.98
321.988	6.9
322.357	6.8
322.725	6.91
323.093	6.98
323.461	7.16
323.829	7.31
324.197	7.37
324.565	7.32
324.933	7.36
325.301	7.53
325.669	7.65
326.037	7.43
326.405	7.44
326.772	7.55
327.14	7.62
327.508	7.71
327.875	7.7
328.243	7.8
328.61	7.73
328.978	7.71
329.346	7.81
329.713	7.91
330.08	8.09
330.448	8.1
330.815	8.09
331.182	8.14
331.55	8.22
331.917	8.41
332.284	8.56
332.651	8.67
333.018	8.75
333.385	8.73
333.752	8.86
334.119	9.03
334.486	8.9
334.853	8.94
335.22	8.92
335.587	8.99
335.954	8.88
336.32	9.03
336.687	9.12
337.054	9.1
337.42	9.15
337.787	9
338.153	9.01
338.52	9.11
338.886	9.09
339.253	9.03
339.619	8.91
339.986	8.86
340.352	8.95
340.718	8.94
341.084	8.99
341.451	9.13
341.817	9.11
342.183	9.15
342.549	9.28
342.915	9.36
343.281	9.35
343.647	9.44
344.013	9.51
344.379	9.46
344.745	9.47
345.11	9.51
345.476	9.69
345.842	9.71
346.208	9.83
346.573	9.93
346.939	10.08
347.304	10.12
347.67	10.21
348.035	10.14
348.401	10.16
348.766	10.12
349.132	10.07
349.497	10.08
349.862	10.1
350.228	10.03
350.593	9.92
350.958	10.01
351.323	10.04
351.688	9.98
352.053	10.02
352.418	10.03
352.783	10.11
353.148	10.05
353.513	10.08
353.878	9.97
354.243	9.99
354.608	9.97
354.972	9.94
355.337	9.99
355.702	10.04
356.066	10.02
356.431	9.98
356.795	9.96
357.16	10.02
357.524	9.99
357.889	10.04
358.253	10.08
358.618	10.07
358.982	10.03
359.346	9.99
359.71	10
360.075	9.99
360.439	9.86
360.803	9.84
361.167	9.82
361.531	9.79
361.895	9.7
362.259	9.67
362.623	9.7
362.987	9.65
363.351	9.57
363.714	9.55
364.078	9.57
364.442	9.51
364.806	9.4
365.169	9.39
365.533	9.28
365.896	9.27
366.26	9.2
366.623	9.16
366.987	9.14
367.35	9.07
367.714	8.96
368.077	9.03
368.44	9.04
368.803	8.99
369.167	8.93
369.53	8.81
369.893	8.81
370.256	8.76
370.619	8.66
370.982	8.61
371.345	8.52
371.708	8.42
372.071	8.35
372.434	8.28
372.797	8.28
373.159	8.24
373.522	8.14
373.885	8.1
374.247	8.1
374.61	8.1
374.973	7.97
375.335	7.92
375.698	7.9
376.06	7.73
376.423	7.65
376.785	7.67
377.147	7.72
377.51	7.6
377.872	7.6
378.234	7.6
378.596	7.59
378.958	7.51
379.321	7.49
379.683	7.44
380.045	7.44
380.407	7.36
380.769	7.32
381.13	7.28
381.492	7.25
381.854	7.14
382.216	7.05
382.578	7.07
382.939	7.07
383.301	6.96
383.663	6.92
384.024	6.87
384.386	6.85
384.747	6.8
385.109	6.75
385.47	6.67
385.832	6.63
386.193	6.58
386.554	6.56
386.916	6.52
387.277	6.53
387.638	6.53
387.999	6.51
388.36	6.49
388.721	6.48
389.082	6.36
389.443	6.32
389.804	6.28
390.165	6.26
390.526	6.19
390.887	6.17
391.248	6.18
391.609	6.17
391.969	6.12
392.33	6.03
392.691	6
393.051	5.92
393.412	5.85
393.772	5.81
394.133	5.79
394.493	5.73
394.854	5.67
395.214	5.58
395.574	5.56
395.935	5.5
396.295	5.5
396.655	5.47
397.015	5.43
397.376	5.42
397.736	5.38
398.096	5.37
398.456	5.31
398.816	5.29
399.176	5.23
399.535	5.14
399.895	5.1
400.255	5.07
400.615	5.07
400.975	5.04
401.334	4.98
401.694	4.95
402.054	4.9
402.413	4.9
402.773	4.87
403.132	4.79
403.492	4.75
403.851	4.65
404.211	4.64
404.57	4.63
404.929	4.6
405.288	4.58
405.648	4.57
406.007	4.55
406.366	4.5
406.725	4.5
407.084	4.52
407.443	4.53
407.802	4.54
408.161	4.54
408.52	4.54
408.879	4.51
409.238	4.47
409.596	4.48
409.955	4.44
410.314	4.43
410.673	4.44
411.031	4.41
411.39	4.43
411.748	4.42
412.107	4.39
412.465	4.37
412.824	4.34
413.182	4.29
413.54	4.29
413.899	4.31
414.257	4.28
414.615	4.24
414.974	4.22
415.332	4.16
415.69	4.11
416.048	4.1
416.406	4.1
416.764	4.09
417.122	4.08
417.48	4.05
417.838	4.05
418.195	4.03
418.553	4.01
418.911	4
419.269	3.98
419.626	3.98
419.984	3.98
420.342	3.96
420.699	3.95
421.057	3.94
421.414	3.91
421.772	3.9
422.129	3.89
422.486	3.89
422.844	3.88
423.201	3.87
423.558	3.85
423.915	3.84
424.273	3.85
424.63	3.82
424.987	3.82
425.344	3.8
425.701	3.79
426.058	3.79
426.415	3.79
426.772	3.79
427.128	3.77
427.485	3.75
427.842	3.74
428.199	3.75
428.555	3.72
428.912	3.73
429.269	3.74
429.625	3.73
429.982	3.71
430.338	3.73
430.695	3.74
431.051	3.72
431.407	3.72
431.764	3.71
432.12	3.73
432.476	3.72
432.832	3.72
433.189	3.74
433.545	3.74
433.901	3.74
434.257	3.72
434.613	3.72
434.969	3.72
435.325	3.73
435.681	3.73
436.036	3.72
436.392	3.71
436.748	3.69
437.104	3.69
437.459	3.67
437.815	3.65
438.171	3.64
438.526	3.66
438.882	3.65
439.237	3.65
439.593	3.63
439.948	3.65
440.304	3.63
440.659	3.61
441.014	3.6
441.369	3.59
441.725	3.58
442.08	3.59
442.435	3.59
442.79	3.56
443.145	3.55
443.5	3.54
443.855	3.53
444.21	3.53
444.565	3.53
444.92	3.53
445.275	3.52
445.629	3.52
445.984	3.5
446.339	3.49
446.693	3.48
447.048	3.48
447.403	3.45
447.757	3.45
448.112	3.45
448.466	3.43
448.82	3.42
449.175	3.43
449.529	3.4
449.883	3.39
450.238	3.38
450.592	3.38
450.946	3.36
451.3	3.36
451.654	3.35
452.008	3.35
452.362	3.33
452.716	3.33
453.07	3.33
453.424	3.31
453.778	3.32
454.132	3.31
454.486	3.31
454.839	3.29
455.193	3.27
455.547	3.25
455.9	3.27
456.254	3.28
456.607	3.28
456.961	3.3
457.314	3.31
457.668	3.32
458.021	3.33
458.375	3.35
458.728	3.36
459.081	3.38
459.434	3.38
459.787	3.4
460.141	3.41
460.494	3.41
460.847	3.42
461.2	3.42
461.553	3.43
461.906	3.43
462.259	3.44
462.611	3.47
462.964	3.51
463.317	3.51
463.67	3.52
464.022	3.52
464.375	3.52
464.728	3.52
465.08	3.53
465.433	3.54
465.785	3.56
466.138	3.56
466.49	3.54
466.843	3.56
467.195	3.55
467.547	3.57
467.899	3.58
468.252	3.59
468.604	3.62
468.956	3.63
469.308	3.63
469.66	3.65
470.012	3.65
470.364	3.66
470.716	3.69
471.068	3.71
471.42	3.73
471.772	3.74
472.123	3.76
472.475	3.77
472.827	3.77
473.178	3.78
473.53	3.76
473.882	3.76
474.233	3.77
474.585	3.76
474.936	3.76
475.288	3.77
475.639	3.75
475.99	3.74
476.342	3.73
476.693	3.73
477.044	3.74
477.395	3.75
477.746	3.73
478.097	3.7
478.448	3.67
478.8	3.66
479.15	3.65
479.501	3.64
479.852	3.62
480.203	3.61
480.554	3.6
480.905	3.61
481.255	3.62
481.606	3.62
481.957	3.63
482.307	3.63
482.658	3.63
483.009	3.64
483.359	3.65
483.709	3.66
484.06	3.66
484.41	3.67
484.761	3.66
485.111	3.67
485.461	3.68
485.811	3.69
486.162	3.69
486.512	3.72
486.862	3.73
487.212	3.74
487.562	3.76
487.912	3.76
488.262	3.77
488.612	3.76
488.961	3.77
489.311	3.77
489.661	3.78
490.011	3.78
490.36	3.78
490.71	3.8
491.06	3.82
491.409	3.83
491.759	3.83
492.108	3.85
492.458	3.86
492.807	3.87
493.157	3.88
493.506	3.9
493.855	3.89
494.204	3.9
494.554	3.92
494.903	3.92
495.252	3.93
495.601	3.96
495.95	3.98
496.299	4.01
496.648	4.04
496.997	4.06
497.346	4.09
497.695	4.13
498.043	4.14
498.392	4.14
498.741	4.16
499.09	4.19
499.438	4.23
499.787	4.26
500.135	4.3
500.484	4.33
500.832	4.37
501.181	4.42
501.529	4.44
501.878	4.5
502.226	4.59
502.574	4.67
502.923	4.69
503.271	4.73
503.619	4.8
503.967	4.88
504.315	4.95
504.663	5.02
505.011	5.08
505.359	5.15
505.707	5.24
506.055	5.3
506.403	5.37
506.751	5.43
507.098	5.49
507.446	5.57
507.794	5.62
508.141	5.68
508.489	5.73
508.837	5.82
509.184	5.87
509.531	5.91
509.879	5.99
510.226	6.09
510.574	6.17
510.921	6.24
511.268	6.3
511.616	6.37
511.963	6.45
512.31	6.52
512.657	6.59
513.004	6.64
513.351	6.75
513.698	6.85
514.045	6.94
514.392	7.06
514.739	7.12
515.086	7.24
515.432	7.34
515.779	7.45
516.126	7.55
516.473	7.65
516.819	7.75
517.166	7.82
517.512	7.89
517.859	8.01
518.205	8.06
518.552	8.15
518.898	8.23
519.245	8.32
519.591	8.42
519.937	8.51
520.283	8.62
520.629	8.72
520.976	8.81
521.322	8.92
521.668	9.04
522.014	9.19
522.36	9.33
522.706	9.44
523.052	9.58
523.398	9.75
523.743	9.92
524.089	10.06
524.435	10.22
524.781	10.37
525.126	10.51
525.472	10.67
525.817	10.8
526.163	10.92
526.509	11.04
526.854	11.13
527.199	11.25
527.545	11.37
527.89	11.48
528.235	11.6
528.581	11.72
528.926	11.83
529.271	11.95
529.616	12.07
529.961	12.2
530.306	12.34
530.651	12.45
530.996	12.6
531.341	12.76
531.686	12.91
532.031	13.08
532.376	13.24
532.721	13.41
533.065	13.58
533.41	13.76
533.755	13.94
534.099	14.15
534.444	14.35
534.788	14.54
535.133	14.72
535.477	14.93
535.822	15.14
536.166	15.35
536.51	15.57
536.855	15.82
537.199	16.1
537.543	16.37
537.887	16.69
538.231	16.95
538.576	17.22
538.92	17.51
539.264	17.77
539.608	18.02
539.951	18.28
540.295	18.5
540.639	18.73
540.983	18.98
541.327	19.21
541.671	19.44
542.014	19.66
542.358	19.91
542.701	20.14
543.045	20.37
543.389	20.62
543.732	20.89
544.075	21.13
544.419	21.35
544.762	21.6
545.105	21.85
545.449	22.16
545.792	22.48
546.135	22.8
546.478	23.14
546.821	23.46
547.165	23.78
547.508	24.14
547.851	24.49
548.194	24.79
548.536	25.12
548.879	25.48
549.222	25.83
549.565	26.19
549.908	26.53
550.25	26.89
550.593	27.25
550.936	27.6
551.278	27.94
551.621	28.34
551.963	28.72
552.306	29.08
552.648	29.42
552.991	29.77
553.333	30.09
553.675	30.37
554.017	30.74
554.36	31.08
554.702	31.44
555.044	31.79
555.386	32.14
555.728	32.5
556.07	32.88
556.412	33.23
556.754	33.53
557.096	33.88
557.438	34.22
557.78	34.59
558.121	34.92
558.463	35.27
558.805	35.59
559.147	35.91
559.488	36.27
559.83	36.59
560.171	36.85
560.513	37.15
560.854	37.51
561.196	37.79
561.537	38.13
561.878	38.42
562.22	38.68
562.561	38.98
562.902	39.27
563.243	39.5
563.584	39.77
563.925	40.08
564.266	40.35
564.607	40.62
564.948	40.88
565.289	41.11
565.63	41.39
565.971	41.6
566.312	41.84
566.653	42.1
566.993	42.34
567.334	42.58
567.675	42.86
568.015	43.1
568.356	43.34
568.696	43.55
569.037	43.77
569.377	44.02
569.718	44.24
570.058	44.49
570.398	44.73
570.739	44.94
571.079	45.11
571.419	45.32
571.759	45.51
572.099	45.72
572.439	45.96
572.779	46.1
573.119	46.34
573.459	46.54
573.799	46.69
574.139	46.85
574.479	47.05
574.819	47.19
575.158	47.37
575.498	47.49
575.838	47.65
576.177	47.87
576.517	48.07
576.856	48.3
577.196	48.38
577.535	48.59
577.875	48.78
578.214	48.97
578.553	49.11
578.893	49.24
579.232	49.32
579.571	49.45
579.91	49.63
580.25	49.76
580.589	49.89
580.928	50.02
581.267	50.15
581.606	50.23
581.945	50.37
582.283	50.44
582.622	50.64
582.961	50.85
583.3	50.95
583.639	51.05
583.977	51.09
584.316	51.21
584.654	51.22
584.993	51.33
585.332	51.49
585.67	51.7
586.008	51.81
586.347	52
586.685	52.2
587.024	52.3
587.362	52.38
587.7	52.51
588.038	52.65
588.376	52.79
588.715	52.96
589.053	53.08
589.391	53.19
589.729	53.3
590.067	53.3
590.404	53.4
590.742	53.46
591.08	53.54
591.418	53.72
591.756	53.91
592.093	53.95
592.431	54.09
592.769	54.2
593.106	54.31
593.444	54.36
593.781	54.44
594.119	54.53
594.456	54.61
594.793	54.69
595.131	54.68
595.468	54.76
595.805	54.78
596.143	54.82
596.48	54.9
596.817	55.03
597.154	55.17
597.491	55.24
597.828	55.33
598.165	55.48
598.502	55.55
598.839	55.54
599.176	55.68
599.512	55.7
599.849	55.7
600.186	55.73
600.523	55.81
600.859	55.82
601.196	55.88
601.532	56.02
601.869	56.07
602.205	56.21
602.542	56.24
602.878	56.25
603.215	56.32
603.551	56.37
603.887	56.37
604.223	56.36
604.56	56.33
604.896	56.41
605.232	56.38
605.568	56.36
605.904	56.45
606.24	56.5
606.576	56.51
606.912	56.51
607.248	56.61
607.583	56.59
607.919	56.64
608.255	56.67
608.591	56.64
608.926	56.61
609.262	56.63
609.597	56.63
609.933	56.74
610.268	56.72
610.604	56.77
610.939	56.78
611.275	56.83
611.61	56.87
611.945	56.91
612.281	56.98
612.616	57.04
612.951	57.03
613.286	56.99
613.621	57.05
613.956	57.14
614.291	57.21
614.626	57.31
614.961	57.3
615.296	57.34
615.631	57.37
615.966	57.51
616.3	57.5
616.635	57.5
616.97	57.51
617.304	57.64
617.639	57.64
617.973	57.61
618.308	57.61
618.642	57.79
618.977	57.76
619.311	57.76
619.646	57.8
619.98	57.86
620.314	57.98
620.648	57.99
620.983	58.01
621.317	57.98
621.651	57.93
621.985	58.02
622.319	58.08
622.653	58.1
622.987	58.07
623.321	58.13
623.655	58.2
623.988	58.3
624.322	58.27
624.656	58.34
624.99	58.42
625.323	58.49
625.657	58.46
625.99	58.53
626.324	58.6
626.657	58.58
626.991	58.59
627.324	58.55
627.658	58.54
627.991	58.61
628.324	58.71
628.657	58.83
628.991	58.91
629.324	58.89
629.657	58.94
629.99	58.93
630.323	58.9
630.656	58.97
630.989	58.92
631.322	58.94
631.655	58.93
631.987	58.96
632.32	58.99
632.653	59.08
632.986	59.04
633.318	59.06
633.651	59.19
633.984	59.22
634.316	59.2
634.649	59.31
634.981	59.24
635.313	59.26
635.646	59.29
635.978	59.3
636.31	59.34
636.643	59.32
636.975	59.38
637.307	59.41
637.639	59.39
637.971	59.47
638.303	59.57
638.635	59.64
638.967	59.7
639.299	59.73
639.631	59.75
639.963	59.77
640.295	59.84
640.626	59.74
640.958	59.77
641.29	59.83
641.621	59.87
641.953	59.94
642.285	59.83
642.616	59.8
642.948	59.81
643.279	59.78
643.61	59.85
643.942	59.9
644.273	59.99
644.604	60
644.936	59.94
645.267	59.84
645.598	59.77
645.929	59.71
646.26	59.72
646.591	59.64
646.922	59.68
647.253	59.62
647.584	59.69
647.915	59.74
648.245	59.74
648.576	59.63
648.907	59.64
649.238	59.55
649.568	59.52
649.899	59.44
650.229	59.52
650.56	59.56
650.89	59.65
651.221	59.7
651.551	59.7
651.882	59.7
652.212	59.73
652.542	59.74
652.872	59.75
653.203	59.73
653.533	59.74
653.863	59.78
654.193	59.85
654.523	59.83
654.853	59.92
655.183	59.98
655.513	60.11
655.843	60
656.172	60.19
656.502	60.27
656.832	60.42
657.162	60.45
657.491	60.36
657.821	60.42
658.15	60.43
658.48	60.4
658.809	60.5
659.139	60.52
659.468	60.52
659.798	60.59
660.127	60.62
660.456	60.64
660.785	60.56
661.115	60.56
661.444	60.58
661.773	60.4
662.102	60.38
662.431	60.27
662.76	60.31
663.089	60.29
663.418	60.23
663.747	60.16
664.076	60.11
664.404	60.22
664.733	60.04
665.062	60.07
665.39	60.11
665.719	60.01
666.048	59.99
666.376	59.98
666.705	59.86
667.033	59.78
667.362	59.77
667.69	59.91
668.018	59.75
668.347	59.77
668.675	59.83
669.003	59.89
669.331	59.94
669.659	60.06
669.987	60.07
670.315	60.23
670.643	60.3
670.971	60.39
671.299	60.37
671.627	60.44
671.955	60.4
672.283	60.45
672.61	60.45
672.938	60.37
673.266	60.3
673.593	60.49
673.921	60.54
674.249	60.49
674.576	60.4
674.904	60.51
675.231	60.64
675.558	60.74
675.886	60.69
676.213	60.72
676.54	60.64
676.867	60.68
677.195	60.52
677.522	60.39
677.849	60.33
678.176	60.32
678.503	60.43
678.83	60.42
679.157	60.45
679.484	60.47
679.81	60.47
680.137	60.6
680.464	60.53
680.791	60.45
681.117	60.48
681.444	60.5
681.771	60.55
682.097	60.45
682.424	60.37
682.75	60.38
683.077	60.42
683.403	60.34
683.729	60.26
684.056	60.22
684.382	60.28
684.708	60.34
685.034	60.2
685.36	60.05
685.686	60.01
686.012	59.89
686.339	59.87
686.664	60.05
686.99	59.99
687.316	59.89
687.642	60
687.968	59.97
688.294	60.01
688.619	60.05
688.945	60.08
689.271	60.05
689.596	60.02
689.922	60.03
690.247	60.17
690.573	60.19
690.898	60.22
691.224	60.28
691.549	60.2
691.874	60.33
692.2	60.45
692.525	60.5
692.85	60.65
693.175	60.72
693.5	60.63
693.825	60.82
694.15	60.81
694.475	60.83
694.8	60.84
695.125	60.84
695.45	60.61
695.775	60.59
696.099	60.45
696.424	60.51
696.749	60.54
697.073	60.58
697.398	60.67
697.723	60.61
698.047	60.52
698.372	60.54
698.696	60.69
699.02	60.62
699.345	60.61
699.669	60.61
699.993	60.5
700.318	60.53
700.642	60.47
700.966	60.5
701.29	60.44
701.614	60.34
701.938	60.28
702.262	60.44
702.586	60.3
702.91	60.44
703.234	60.37
703.557	60.37
703.881	60.33
704.205	60.31
704.529	60.32
704.852	60.27
705.176	60.4
705.499	60.27
705.823	60.16
706.146	60.01
706.47	60.04
706.793	60.15
707.117	60.27
707.44	60.16
707.763	60.14
708.086	60.15
708.409	60.33
708.733	60.47
709.056	60.54
709.379	60.66
709.702	60.57
710.025	60.53
710.348	60.28
710.671	60.24
710.993	60.09
711.316	60.42
711.639	60.55
711.962	60.41
712.284	60.37
712.607	60.5
712.93	60.45
713.252	60.24
713.575	60.42
713.897	60.32
714.22	60.26
714.542	60.3
714.864	60.36
715.187	60.27
715.509	60.18
715.831	60.09
716.153	60.14
716.475	60.36
716.798	60.52
717.12	60.78
717.442	60.74
717.764	60.94
718.085	60.62
718.407	60.42
718.729	60.47
719.051	60.51
719.373	60.55
719.695	60.59
720.016	60.55
720.338	60.42
720.659	60.16
720.981	60.15
721.302	60.3
721.624	60.27
721.945	60.43
722.267	60.27
722.588	60.35
722.909	60.43
723.231	60.33
723.552	60.24
723.873	60.06
724.194	60.14
724.515	60.14
724.836	60.19
725.157	60.09
725.478	59.85
725.799	59.84
726.12	59.74
726.441	59.97
726.762	60.02
727.083	60.12
727.403	60.63
727.724	60.82
728.045	60.78
728.365	60.68
728.686	60.68
729.006	60.82
729.327	60.73
729.647	60.41
729.967	60.42
730.288	60.34
730.608	60.58
730.928	60.79
731.249	60.66
731.569	60.83
731.889	60.97
732.209	61.16
732.529	61.37
732.849	61.36
733.169	61.19
733.489	61.29
733.809	61.2
734.129	60.93
734.448	61.04
734.768	61.07
735.088	61.11
735.408	60.82
735.727	60.64
736.047	60.54
736.366	60.64
736.686	60.71
737.005	60.71
737.325	60.45
737.644	60.22
737.963	60.34
738.283	59.93
738.602	59.98
738.921	59.88
739.24	59.49
739.56	59.45
739.879	59.48
740.198	59.29
740.517	59.39
740.836	59.27
741.155	59.14
741.473	59.06
741.792	58.98
742.111	59.13
742.43	59.42
742.748	59.44
743.067	59.51
743.386	59.45
743.704	59.46
744.023	59.48
744.341	59.39
744.66	59.35
744.978	59.62
745.297	59.66
745.615	59.88
745.933	59.79
746.252	59.87
746.57	59.97
746.888	60.15
747.206	60.14
747.524	60.05
747.842	60.01
748.16	59.79
748.478	59.92
748.796	60.08
749.114	59.76
749.432	59.78
749.749	59.97
750.067	59.86
750.385	59.87
750.703	60.02
751.02	60.21
751.338	60.08
751.655	59.77
751.973	59.47
752.29	59.36
752.608	59.51
752.925	59.36
753.242	59.22
753.56	59.07
753.877	58.92
754.194	59.05
754.511	58.7
754.828	58.9
755.145	58.61
755.462	58.52
755.779	58.39
756.096	58.31
756.413	58.37
756.73	58.13
757.047	58.41
757.364	58.57
757.68	58.46
757.997	58.38
758.314	58.84
758.63	59.1
758.947	58.91
759.264	58.98
759.58	59.12
759.896	59.1
760.213	59.15
760.529	59.1
760.846	59.29
761.162	59.37
761.478	59.43
761.794	59.69
762.11	59.78
762.426	60.05
762.743	60.23
763.059	60.02
763.375	60.17
763.69	60.04
764.006	60.04
764.322	60.13
764.638	60.24
764.954	60.29
765.27	60.33
765.585	60.52
765.901	60.44
766.216	60.48
766.532	60.54
766.848	60.55
767.163	60.59
767.478	60.32
767.794	60.29
768.109	60.16
768.424	60.07
768.74	59.88
769.055	59.69
769.37	59.66
769.685	59.65
770	59.65
770.315	59.55
770.63	59.09
770.945	58.9
771.26	58.82
771.575	58.74
771.89	58.56
772.205	58.37
772.52	58.62
772.834	58.68
773.149	58.75
773.464	59.17
773.778	59.14
774.093	59.26
774.407	59.44
774.722	59.64
775.036	59.57
775.351	60.04
775.665	60.32
775.979	60
776.293	60.36
776.608	60.5
776.922	60.47
777.236	60.58
777.55	60.71
777.864	61
778.178	61.12
778.492	61.45
778.806	61.39
779.12	61.07
779.434	61.08
779.747	61.2
780.061	60.87
780.375	60.97
780.689	61.01
781.002	61.07
781.316	60.85
781.629	60.89
781.943	60.36
782.256	60.1
782.57	60.35
782.883	59.93
783.196	59.86
783.51	59.62
783.823	59.54
784.136	59.4
784.449	59.37
784.762	58.91
785.075	58.15
785.388	58.45
785.701	58.8
786.014	58.58
786.327	58.76
786.64	58.58
786.953	58.7
787.266	58.39
787.578	58.79
787.891	59.02
788.204	59.09
788.516	59.16
788.829	59.17
789.141	59.3
789.454	59.3
789.766	59.27
790.079	59.34
790.391	59.94
790.703	60.08
791.016	59.61
791.328	59.72
791.64	60.62
791.952	60.38
792.264	59.92
792.576	59.8
792.888	59.37
793.2	59.64
793.512	59.33
793.824	59.48
794.136	58.74
794.448	58.6
794.76	58.26
795.071	58.37
795.383	58.61
795.695	58.17
796.006	57.45
796.318	57.62
796.629	57.82
796.941	57.44
797.252	57.41
797.564	57.73
797.875	57.67
798.186	57.37
798.497	57.07
798.809	57.27
799.12	57.26
799.431	57
799.742	56.33
800.053	56.93
800.364	57.49
800.675	57.61
800.986	57.9
801.297	58.4
801.608	58.33
801.918	58.16
802.229	58.25
802.54	58.93
802.851	58.7
803.161	58.34
803.472	58.06
803.782	58.4
804.093	58.07
804.403	57.86
804.714	57.72
805.024	57.94
805.334	57.88
805.645	57.71
805.955	57.88
806.265	57.97
806.575	57.73
806.885	57.33
807.195	57.4
807.505	57.21
807.815	57.18
808.125	56.71
808.435	56.41
808.745	56.96
809.055	57.44
809.365	57
809.674	57.7
809.984	57.91
810.294	57.56
810.603	58.05
810.913	58.76
811.222	58.51
811.532	58.13
811.841	58.42
812.151	58.35
812.46	58.72
812.769	59.07
813.079	58.85
813.388	58.83
813.697	58.88
814.006	58.36
814.315	58.11
814.624	58.84
814.933	59.13
815.242	58.53
815.551	58.3
815.86	58.43
816.169	57.65
816.478	57.57
816.786	57.2
817.095	56.83
817.404	56.85
817.712	57.08
818.021	58.25
818.33	57.72
818.638	58.47
818.947	58.53
819.255	58.52
819.563	58.67
819.872	59.17
820.18	59.6
820.488	59.89
820.796	60.11
821.105	60.34
821.413	60.59
821.721	60.78
822.029	60.69
822.337	60.98
822.645	61.17
822.953	61.16
823.26	61.41
823.568	61.22
823.876	61.14
824.184	61.16
824.491	60.96
824.799	61.23
825.107	61.09
825.414	61.08
825.722	61.22
826.029	61.07
826.337	61.1
826.644	60.83
826.951	60.79
827.259	60.43
827.566	60.11
827.873	60.04
828.18	60.06
828.488	59.9
828.795	59.87
829.102	60.07
829.409	60.09
829.716	59.72
830.023	60.07
830.329	59.82
830.636	60
830.943	60.33
831.25	59.85
831.557	59.99
831.863	60.07
832.17	60.08
832.476	60.56
832.783	60.37
833.089	60.9
833.396	60.69
833.702	61.42
834.009	61.45
834.315	60.75
834.621	60.23
834.928	60.38
835.234	60.05
835.54	59.34
835.846	59.08
836.152	59.11
836.458	58.6
836.764	58.58
837.07	58.25
837.376	57.76
837.682	58.11
837.988	57.62
838.293	57.71
838.599	57.65
838.905	56.53
839.211	56.25
839.516	55.6
839.822	55.9
840.127	54.89
840.433	55.41
840.738	56.3
841.044	56.25
841.349	56.05
841.654	55.56
841.959	55.82
842.265	56.28
842.57	56.98
842.875	57.91
843.18	58.65
843.485	59.1
843.79	59.36
844.095	58.86
844.4	59.79
844.705	58.51
845.01	57.73
845.315	58.63
845.619	58.85
845.924	59.37
846.229	59.18
846.533	59.67
846.838	57.03
847.142	56.97
847.447	57.89
847.751	58.03
848.056	58.41
848.36	58.95
848.664	60.31
848.969	59.01
849.273	60.76
849.577	59.65
849.881	59.95
850.185	59.62
850.489	60.3
850.794	60.73
851.097	61.78
851.401	63.51
851.705	63.08
852.009	63.49
852.313	62.98
852.617	62.65
852.92	63.69
853.224	65.65
853.528	64.9
853.831	64.46
854.135	65.92
854.438	65.54
854.742	65.11
855.045	62.71
855.349	62.98
855.652	60.21
855.955	60.19
856.259	58.69
856.562	59.37
856.865	58.03
857.168	57.95
857.471	59.91
857.774	57.94
858.077	59.66
858.38	57.43
858.683	58.19
858.986	57.97
859.289	58
859.592	58.16
859.894	58.44
860.197	59.92
860.5	58.4
860.802	59.01
861.105	58.18
861.407	55.98
861.71	55.3
862.012	54.31
862.315	55.54
862.617	55.69
862.919	55.38
863.222	56.07
863.524	55.42
863.826	52.81
864.128	53.54
864.43	51.65
864.732	55.01
865.034	54.22
865.336	55.78
865.638	55.7
865.94	54.79
866.242	55.11
866.544	52.65
866.846	53.36
867.147	52.19
867.449	52.58
867.751	55.56
868.052	56.41
868.354	58.06
868.655	55.39
868.957	54.81
869.258	53.71
869.56	54.56
869.861	52.65
870.162	54.32
870.463	54.42
870.765	54.8
871.066	51.33
871.367	51.55
871.668	49.94
871.969	49.71
872.27	49.81
872.571	48.65
872.872	50.34
873.173	50.47
873.473	51.46
873.774	53.72
874.075	53.06
874.376	53.2
874.676	52.15
874.977	53.07
875.277	54.28
875.578	52.47
875.878	51.3
876.179	53.11
876.479	51.97
876.78	51.46
877.08	52.59
877.38	54.17
877.68	54.22
877.981	55.02
878.281	54.74
878.581	56.43
