Data from BA28417_Reflection_00013.txt Node
Date: Mon Nov 18 16:11:23 EST 2019
User: vgr7
Spectrometer: USB2G7710
Scans to average: 3
Trigger mode: 4
Integration Time (sec): 2.000000E-2
Electric dark correction enabled: true
Boxcar width: 10
XAxis mode: Wavelengths
Number of Pixels in Spectrum: 2048
>>>>>Begin Spectral Data<<<<<
177.721	2.05
178.105	34.84
178.488	30.58
178.871	14.76
179.254	25.23
179.636	-250.39
180.019	130.14
180.402	171.43
180.785	366.37
181.168	-3105.88
181.55	-117.66
181.933	203.06
182.316	173.59
182.698	184.2
183.081	194.12
183.463	164.95
183.846	158.7
184.228	171.99
184.611	203.23
184.993	473.28
185.376	708.37
185.758	689.64
186.14	1254.36
186.522	251.21
186.904	440.06
187.287	358.87
187.669	-2001.27
188.051	-524.23
188.433	-138.65
188.815	-34.99
189.197	-37.35
189.579	-69.11
189.961	-69.97
190.342	-60.23
190.724	-29.62
191.106	-87.13
191.488	-101.37
191.869	-53.9
192.251	-70.07
192.633	-84.82
193.014	-137.29
193.396	-294.92
193.777	-242.28
194.159	-262.65
194.54	-140.52
194.922	-115.75
195.303	-97.79
195.684	-76.57
196.065	-76.69
196.447	-102.17
196.828	-189.92
197.209	-231.3
197.59	-231
197.971	-208.35
198.352	-132.41
198.733	-121.51
199.114	-96.41
199.495	-83.25
199.876	-93.86
200.257	-93.4
200.638	-66.91
201.018	-75.14
201.399	-55.46
201.78	-38.29
202.16	-34.99
202.541	-53.37
202.922	-62.69
203.302	-87.4
203.683	-95.3
204.063	-118.6
204.444	-56.67
204.824	-18.99
205.204	12.95
205.585	7.09
205.965	5.92
206.345	3.76
206.725	-28.15
207.106	-62.57
207.486	-105.71
207.866	-90.37
208.246	-39.2
208.626	-53.92
209.006	-23.41
209.386	-59.38
209.766	-74.45
210.145	-63.4
210.525	-40.63
210.905	-58.52
211.285	-47.67
211.664	-40.86
212.044	-25.24
212.424	-46.67
212.803	-45.87
213.183	-35.73
213.562	-25.84
213.942	-29.49
214.321	-34.7
214.701	-42.19
215.08	-44.59
215.459	-26.92
215.838	-29.73
216.218	-48.63
216.597	-30.52
216.976	-27.99
217.355	3.39
217.734	26.97
218.113	54.33
218.492	55.49
218.871	77.93
219.25	169.35
219.629	84.73
220.008	-39.41
220.387	-66.06
220.766	-1116.49
221.144	993.85
221.523	569.21
221.902	367.3
222.28	358.45
222.659	144.94
223.037	2100
223.416	1844.68
223.794	-137.42
224.173	-69.62
224.551	-46.43
224.929	-34.76
225.308	-35.24
225.686	-39.08
226.064	-31.86
226.442	-25.72
226.821	-13.38
227.199	-13.74
227.577	-7.32
227.955	2.4
228.333	0.81
228.711	4.96
229.089	10.97
229.467	8.78
229.845	8.26
230.222	9.36
230.6	3.9
230.978	4.3
231.356	6.12
231.733	4.49
232.111	3.22
232.488	2.98
232.866	2.23
233.243	3.51
233.621	4.38
233.998	6.69
234.376	4.56
234.753	2.48
235.13	1.3
235.508	0.5
235.885	-2.25
236.262	-3.16
236.639	-3.9
237.016	-4.66
237.393	-2.99
237.77	-2.14
238.147	-1.32
238.524	0.61
238.901	1.37
239.278	1.93
239.655	3.36
240.032	3.88
240.409	4.29
240.785	3.74
241.162	3.36
241.539	3.32
241.915	2.79
242.292	2.99
242.668	3.72
243.045	4.43
243.421	4.47
243.798	4.43
244.174	4.77
244.551	5.15
244.927	5.09
245.303	5.05
245.679	4.83
246.056	4.64
246.432	4.54
246.808	4.55
247.184	4.17
247.56	4.16
247.936	4.08
248.312	3.94
248.688	4.46
249.064	4.39
249.44	4.46
249.815	4.6
250.191	4.73
250.567	4.52
250.943	4.25
251.318	4.33
251.694	4.42
252.069	4.23
252.445	4.21
252.82	4.16
253.196	4.13
253.571	4.48
253.947	4.71
254.322	4.91
254.697	4.81
255.073	4.86
255.448	4.65
255.823	4.69
256.198	4.73
256.573	4.53
256.948	4.6
257.323	4.5
257.698	4.51
258.073	4.38
258.448	4.41
258.823	4.38
259.198	4.16
259.573	4.31
259.948	4.33
260.322	4.25
260.697	4.08
261.072	4.09
261.446	4.13
261.821	4.04
262.195	3.93
262.57	3.87
262.944	3.79
263.319	3.78
263.693	3.63
264.067	3.65
264.442	3.66
264.816	3.73
265.19	3.7
265.564	3.71
265.938	3.53
266.313	3.48
266.687	3.57
267.061	3.87
267.435	3.84
267.809	3.81
268.183	3.83
268.556	3.94
268.93	3.96
269.304	3.8
269.678	3.75
270.051	3.77
270.425	3.86
270.799	4.04
271.172	3.89
271.546	4.01
271.919	3.86
272.293	3.84
272.666	3.76
273.04	3.8
273.413	3.75
273.787	3.9
274.16	3.93
274.533	4.07
274.906	4.04
275.279	3.96
275.653	3.96
276.026	3.97
276.399	4.15
276.772	4.21
277.145	4.3
277.518	4.43
277.891	4.51
278.263	4.49
278.636	4.47
279.009	4.5
279.382	4.68
279.755	4.7
280.127	4.82
280.5	4.94
280.872	5.03
281.245	4.96
281.617	5.08
281.99	5.25
282.362	5.18
282.735	5.01
283.107	4.96
283.479	5.03
283.852	5.08
284.224	4.99
284.596	4.91
284.968	4.96
285.34	4.92
285.713	4.87
286.085	4.84
286.457	4.97
286.829	5.06
287.201	4.85
287.572	4.87
287.944	4.7
288.316	4.67
288.688	4.54
289.06	4.58
289.431	4.53
289.803	4.44
290.175	4.34
290.546	4.54
290.918	4.48
291.289	4.48
291.661	4.46
292.032	4.56
292.403	4.68
292.775	4.69
293.146	4.72
293.517	4.65
293.889	4.73
294.26	4.66
294.631	4.76
295.002	4.85
295.373	4.97
295.744	5.04
296.115	5.08
296.486	5.21
296.857	5.23
297.228	5.37
297.599	5.34
297.97	5.48
298.34	5.43
298.711	5.64
299.082	5.65
299.452	5.69
299.823	5.75
300.194	5.71
300.564	5.67
300.935	5.72
301.305	5.74
301.676	5.76
302.046	5.83
302.416	5.9
302.787	6.05
303.157	6.06
303.527	6.14
303.897	6.24
304.267	6.46
304.637	6.68
305.008	6.62
305.378	6.75
305.748	6.8
306.117	6.8
306.487	6.95
306.857	7.02
307.227	6.99
307.597	6.92
307.967	7.11
308.336	7.22
308.706	7.32
309.076	7.54
309.445	7.64
309.815	7.8
310.184	7.7
310.554	7.77
310.923	7.89
311.293	8.01
311.662	7.96
312.031	7.87
312.401	7.76
312.77	7.94
313.139	8.02
313.508	8.15
313.877	8.22
314.246	8.15
314.616	8.33
314.985	8.56
315.353	8.64
315.722	8.7
316.091	8.82
316.46	8.74
316.829	8.78
317.198	8.7
317.567	8.58
317.935	8.73
318.304	8.74
318.672	8.79
319.041	8.78
319.41	9.05
319.778	9.14
320.147	9.26
320.515	9.19
320.883	9.1
321.252	9.05
321.62	9.13
321.988	9.25
322.357	9.2
322.725	9.11
323.093	9.26
323.461	9.1
323.829	9.16
324.197	9.37
324.565	9.62
324.933	9.81
325.301	10
325.669	10.05
326.037	10.08
326.405	10.07
326.772	10.19
327.14	10.18
327.508	10.21
327.875	10.26
328.243	10.33
328.61	10.5
328.978	10.51
329.346	10.78
329.713	10.74
330.08	10.79
330.448	10.99
330.815	10.88
331.182	11.02
331.55	11.08
331.917	11.12
332.284	11.06
332.651	11.04
333.018	11.1
333.385	11.26
333.752	11.34
334.119	11.43
334.486	11.36
334.853	11.33
335.22	11.26
335.587	11.36
335.954	11.44
336.32	11.47
336.687	11.59
337.054	11.47
337.42	11.55
337.787	11.68
338.153	11.59
338.52	11.81
338.886	11.8
339.253	11.74
339.619	11.65
339.986	11.59
340.352	11.59
340.718	11.63
341.084	11.61
341.451	11.58
341.817	11.6
342.183	11.71
342.549	11.71
342.915	11.96
343.281	11.97
343.647	12.02
344.013	12.01
344.379	12
344.745	12.02
345.11	11.97
345.476	12
345.842	12.04
346.208	11.96
346.573	12.1
346.939	12.22
347.304	12.3
347.67	12.25
348.035	12.43
348.401	12.35
348.766	12.37
349.132	12.43
349.497	12.43
349.862	12.51
350.228	12.52
350.593	12.39
350.958	12.42
351.323	12.38
351.688	12.4
352.053	12.49
352.418	12.48
352.783	12.67
353.148	12.57
353.513	12.53
353.878	12.47
354.243	12.36
354.608	12.3
354.972	12.31
355.337	12.46
355.702	12.39
356.066	12.44
356.431	12.41
356.795	12.41
357.16	12.33
357.524	12.13
357.889	12.11
358.253	12.17
358.618	12.21
358.982	12.16
359.346	12.08
359.71	12.01
360.075	12
360.439	11.87
360.803	11.91
361.167	11.83
361.531	11.91
361.895	11.89
362.259	11.85
362.623	11.89
362.987	11.79
363.351	11.77
363.714	11.68
364.078	11.67
364.442	11.6
364.806	11.58
365.169	11.61
365.533	11.58
365.896	11.53
366.26	11.39
366.623	11.38
366.987	11.35
367.35	11.29
367.714	11.27
368.077	11.26
368.44	11.11
368.803	11.15
369.167	11.03
369.53	11.06
369.893	11.06
370.256	10.95
370.619	10.95
370.982	10.81
371.345	10.76
371.708	10.72
372.071	10.66
372.434	10.58
372.797	10.46
373.159	10.38
373.522	10.29
373.885	10.26
374.247	10.25
374.61	10.21
374.973	10.08
375.335	10.02
375.698	9.95
376.06	9.9
376.423	9.82
376.785	9.77
377.147	9.71
377.51	9.61
377.872	9.55
378.234	9.46
378.596	9.46
378.958	9.41
379.321	9.31
379.683	9.22
380.045	9.18
380.407	9.15
380.769	9.08
381.13	9.02
381.492	8.93
381.854	8.79
382.216	8.76
382.578	8.76
382.939	8.66
383.301	8.64
383.663	8.61
384.024	8.57
384.386	8.54
384.747	8.48
385.109	8.44
385.47	8.42
385.832	8.4
386.193	8.36
386.554	8.32
386.916	8.23
387.277	8.22
387.638	8.2
387.999	8.15
388.36	8.1
388.721	8.04
389.082	8
389.443	7.94
389.804	7.91
390.165	7.84
390.526	7.81
390.887	7.73
391.248	7.72
391.609	7.66
391.969	7.61
392.33	7.57
392.691	7.56
393.051	7.48
393.412	7.41
393.772	7.31
394.133	7.26
394.493	7.25
394.854	7.18
395.214	7.13
395.574	7.1
395.935	7.05
396.295	7.04
396.655	6.99
397.015	6.97
397.376	6.9
397.736	6.85
398.096	6.77
398.456	6.71
398.816	6.62
399.176	6.54
399.535	6.48
399.895	6.41
400.255	6.35
400.615	6.27
400.975	6.23
401.334	6.21
401.694	6.15
402.054	6.1
402.413	6.08
402.773	6.04
403.132	5.98
403.492	5.97
403.851	5.9
404.211	5.88
404.57	5.84
404.929	5.8
405.288	5.77
405.648	5.75
406.007	5.71
406.366	5.67
406.725	5.71
407.084	5.69
407.443	5.66
407.802	5.63
408.161	5.61
408.52	5.59
408.879	5.56
409.238	5.55
409.596	5.54
409.955	5.52
410.314	5.5
410.673	5.49
411.031	5.47
411.39	5.45
411.748	5.4
412.107	5.4
412.465	5.38
412.824	5.37
413.182	5.34
413.54	5.34
413.899	5.36
414.257	5.3
414.615	5.27
414.974	5.24
415.332	5.2
415.69	5.17
416.048	5.14
416.406	5.13
416.764	5.09
417.122	5.06
417.48	5.02
417.838	4.99
418.195	4.96
418.553	4.93
418.911	4.93
419.269	4.91
419.626	4.87
419.984	4.83
420.342	4.8
420.699	4.77
421.057	4.76
421.414	4.72
421.772	4.68
422.129	4.65
422.486	4.62
422.844	4.61
423.201	4.6
423.558	4.58
423.915	4.55
424.273	4.55
424.63	4.53
424.987	4.52
425.344	4.51
425.701	4.49
426.058	4.49
426.415	4.46
426.772	4.44
427.128	4.44
427.485	4.45
427.842	4.44
428.199	4.46
428.555	4.43
428.912	4.43
429.269	4.45
429.625	4.44
429.982	4.44
430.338	4.42
430.695	4.42
431.051	4.39
431.407	4.39
431.764	4.39
432.12	4.35
432.476	4.35
432.832	4.32
433.189	4.32
433.545	4.3
433.901	4.27
434.257	4.27
434.613	4.26
434.969	4.25
435.325	4.23
435.681	4.21
436.036	4.23
436.392	4.22
436.748	4.19
437.104	4.19
437.459	4.2
437.815	4.2
438.171	4.2
438.526	4.22
438.882	4.22
439.237	4.21
439.593	4.23
439.948	4.23
440.304	4.25
440.659	4.24
441.014	4.24
441.369	4.25
441.725	4.25
442.08	4.24
442.435	4.22
442.79	4.22
443.145	4.21
443.5	4.2
443.855	4.21
444.21	4.21
444.565	4.2
444.92	4.19
445.275	4.17
445.629	4.17
445.984	4.15
446.339	4.13
446.693	4.12
447.048	4.1
447.403	4.07
447.757	4.05
448.112	4.04
448.466	4.03
448.82	4.02
449.175	4.02
449.529	4
449.883	4
450.238	3.98
450.592	3.98
450.946	3.96
451.3	3.94
451.654	3.94
452.008	3.93
452.362	3.9
452.716	3.92
453.07	3.91
453.424	3.94
453.778	3.93
454.132	3.92
454.486	3.92
454.839	3.93
455.193	3.93
455.547	3.92
455.9	3.93
456.254	3.93
456.607	3.92
456.961	3.93
457.314	3.93
457.668	3.93
458.021	3.93
458.375	3.93
458.728	3.93
459.081	3.95
459.434	3.96
459.787	3.97
460.141	3.97
460.494	3.96
460.847	3.96
461.2	3.96
461.553	3.98
461.906	3.99
462.259	4.03
462.611	4.04
462.964	4.06
463.317	4.09
463.67	4.1
464.022	4.12
464.375	4.12
464.728	4.13
465.08	4.16
465.433	4.17
465.785	4.2
466.138	4.21
466.49	4.21
466.843	4.24
467.195	4.27
467.547	4.29
467.899	4.32
468.252	4.32
468.604	4.35
468.956	4.35
469.308	4.36
469.66	4.33
470.012	4.36
470.364	4.37
470.716	4.36
471.068	4.37
471.42	4.37
471.772	4.4
472.123	4.45
472.475	4.43
472.827	4.46
473.178	4.45
473.53	4.46
473.882	4.46
474.233	4.45
474.585	4.43
474.936	4.41
475.288	4.39
475.639	4.42
475.99	4.44
476.342	4.42
476.693	4.4
477.044	4.42
477.395	4.41
477.746	4.38
478.097	4.37
478.448	4.36
478.8	4.34
479.15	4.31
479.501	4.29
479.852	4.31
480.203	4.29
480.554	4.3
480.905	4.31
481.255	4.3
481.606	4.32
481.957	4.32
482.307	4.32
482.658	4.32
483.009	4.3
483.359	4.3
483.709	4.29
484.06	4.3
484.41	4.29
484.761	4.29
485.111	4.3
485.461	4.31
485.811	4.31
486.162	4.31
486.512	4.33
486.862	4.33
487.212	4.32
487.562	4.34
487.912	4.34
488.262	4.35
488.612	4.36
488.961	4.36
489.311	4.36
489.661	4.36
490.011	4.37
490.36	4.37
490.71	4.38
491.06	4.42
491.409	4.43
491.759	4.44
492.108	4.47
492.458	4.48
492.807	4.5
493.157	4.54
493.506	4.58
493.855	4.59
494.204	4.62
494.554	4.66
494.903	4.68
495.252	4.72
495.601	4.76
495.95	4.79
496.299	4.82
496.648	4.88
496.997	4.96
497.346	5.01
497.695	5.09
498.043	5.13
498.392	5.16
498.741	5.22
499.09	5.29
499.438	5.37
499.787	5.43
500.135	5.49
500.484	5.56
500.832	5.64
501.181	5.72
501.529	5.8
501.878	5.88
502.226	5.95
502.574	6.03
502.923	6.1
503.271	6.2
503.619	6.31
503.967	6.4
504.315	6.49
504.663	6.59
505.011	6.68
505.359	6.8
505.707	6.91
506.055	7.02
506.403	7.13
506.751	7.23
507.098	7.34
507.446	7.47
507.794	7.58
508.141	7.7
508.489	7.81
508.837	7.95
509.184	8.06
509.531	8.23
509.879	8.37
510.226	8.48
510.574	8.61
510.921	8.74
511.268	8.86
511.616	8.99
511.963	9.13
512.31	9.27
512.657	9.43
513.004	9.58
513.351	9.75
513.698	9.93
514.045	10.06
514.392	10.21
514.739	10.36
515.086	10.53
515.432	10.69
515.779	10.85
516.126	11.01
516.473	11.18
516.819	11.31
517.166	11.44
517.512	11.61
517.859	11.75
518.205	11.88
518.552	12.03
518.898	12.18
519.245	12.31
519.591	12.44
519.937	12.57
520.283	12.73
520.629	12.88
520.976	13.03
521.322	13.23
521.668	13.42
522.014	13.62
522.36	13.84
522.706	14.03
523.052	14.26
523.398	14.51
523.743	14.77
524.089	15.02
524.435	15.26
524.781	15.52
525.126	15.75
525.472	15.97
525.817	16.18
526.163	16.37
526.509	16.55
526.854	16.73
527.199	16.9
527.545	17.04
527.89	17.22
528.235	17.4
528.581	17.58
528.926	17.76
529.271	17.94
529.616	18.11
529.961	18.3
530.306	18.48
530.651	18.67
530.996	18.85
531.341	19.06
531.686	19.29
532.031	19.49
532.376	19.73
532.721	19.96
533.065	20.19
533.41	20.45
533.755	20.73
534.099	21.01
534.444	21.29
534.788	21.59
535.133	21.85
535.477	22.12
535.822	22.4
536.166	22.7
536.51	23.04
536.855	23.4
537.199	23.78
537.543	24.19
537.887	24.57
538.231	24.95
538.576	25.35
538.92	25.75
539.264	26.13
539.608	26.47
539.951	26.82
540.295	27.16
540.639	27.48
540.983	27.79
541.327	28.08
541.671	28.38
542.014	28.66
542.358	28.97
542.701	29.26
543.045	29.55
543.389	29.85
543.732	30.15
544.075	30.46
544.419	30.77
544.762	31.07
545.105	31.41
545.449	31.79
545.792	32.16
546.135	32.49
546.478	32.89
546.821	33.29
547.165	33.69
547.508	34.11
547.851	34.51
548.194	34.89
548.536	35.29
548.879	35.69
549.222	36.13
549.565	36.53
549.908	36.94
550.25	37.39
550.593	37.81
550.936	38.19
551.278	38.59
551.621	39.06
551.963	39.47
552.306	39.86
552.648	40.29
552.991	40.66
553.333	41.08
553.675	41.47
554.017	41.85
554.36	42.26
554.702	42.6
555.044	43.01
555.386	43.38
555.728	43.78
556.07	44.17
556.412	44.52
556.754	44.88
557.096	45.28
557.438	45.6
557.78	45.98
558.121	46.4
558.463	46.8
558.805	47.11
559.147	47.46
559.488	47.83
559.83	48.1
560.171	48.46
560.513	48.7
560.854	49
561.196	49.3
561.537	49.55
561.878	49.82
562.22	50.08
562.561	50.33
562.902	50.65
563.243	50.93
563.584	51.22
563.925	51.45
564.266	51.74
564.607	52.08
564.948	52.32
565.289	52.54
565.63	52.75
565.971	53
566.312	53.25
566.653	53.48
566.993	53.72
567.334	53.97
567.675	54.23
568.015	54.48
568.356	54.76
568.696	55
569.037	55.18
569.377	55.47
569.718	55.8
570.058	55.95
570.398	56.15
570.739	56.38
571.079	56.59
571.419	56.72
571.759	56.84
572.099	57.03
572.439	57.24
572.779	57.41
573.119	57.62
573.459	57.8
573.799	58.02
574.139	58.18
574.479	58.25
574.819	58.44
575.158	58.66
575.498	58.75
575.838	58.92
576.177	59.15
576.517	59.22
576.856	59.31
577.196	59.52
577.535	59.7
577.875	59.89
578.214	60.04
578.553	60.28
578.893	60.48
579.232	60.65
579.571	60.81
579.91	60.93
580.25	61
580.589	61.14
580.928	61.23
581.267	61.41
581.606	61.64
581.945	61.74
582.283	61.78
582.622	61.92
582.961	62.09
583.3	62.24
583.639	62.45
583.977	62.53
584.316	62.6
584.654	62.65
584.993	62.7
585.332	62.89
585.67	63
586.008	63.1
586.347	63.23
586.685	63.34
587.024	63.44
587.362	63.56
587.7	63.69
588.038	63.84
588.376	63.83
588.715	63.92
589.053	64.09
589.391	64.19
589.729	64.35
590.067	64.45
590.404	64.55
590.742	64.58
591.08	64.67
591.418	64.81
591.756	64.97
592.093	65.05
592.431	65.03
592.769	65.16
593.106	65.23
593.444	65.21
593.781	65.34
594.119	65.45
594.456	65.5
594.793	65.53
595.131	65.55
595.468	65.73
595.805	65.77
596.143	65.81
596.48	65.88
596.817	65.88
597.154	65.89
597.491	65.99
597.828	66.09
598.165	66.23
598.502	66.29
598.839	66.37
599.176	66.47
599.512	66.59
599.849	66.61
600.186	66.73
600.523	66.89
600.859	66.91
601.196	67.03
601.532	67.13
601.869	67.23
602.205	67.33
602.542	67.38
602.878	67.45
603.215	67.47
603.551	67.45
603.887	67.54
604.223	67.67
604.56	67.64
604.896	67.66
605.232	67.65
605.568	67.63
605.904	67.63
606.24	67.69
606.576	67.75
606.912	67.8
607.248	67.81
607.583	67.84
607.919	67.82
608.255	67.9
608.591	67.91
608.926	67.92
609.262	67.94
609.597	67.94
609.933	67.96
610.268	68.03
610.604	68.05
610.939	68.03
611.275	67.99
611.61	68.1
611.945	68.09
612.281	68.12
612.616	68.25
612.951	68.27
613.286	68.32
613.621	68.34
613.956	68.32
614.291	68.41
614.626	68.43
614.961	68.48
615.296	68.39
615.631	68.42
615.966	68.49
616.3	68.58
616.635	68.67
616.97	68.72
617.304	68.77
617.639	68.87
617.973	69.02
618.308	69.09
618.642	69.07
618.977	69.14
619.311	69.2
619.646	69.15
619.98	69.18
620.314	69.2
620.648	69.28
620.983	69.43
621.317	69.48
621.651	69.59
621.985	69.74
622.319	69.85
622.653	69.91
622.987	69.94
623.321	69.84
623.655	69.87
623.988	69.83
624.322	69.76
624.656	69.87
624.99	69.77
625.323	69.77
625.657	69.81
625.99	69.84
626.324	69.88
626.657	69.9
626.991	69.99
627.324	69.9
627.658	69.94
627.991	69.85
628.324	69.83
628.657	69.76
628.991	69.7
629.324	69.69
629.657	69.69
629.99	69.73
630.323	69.77
630.656	69.81
630.989	69.9
631.322	69.93
631.655	69.8
631.987	69.87
632.32	69.87
632.653	69.82
632.986	69.84
633.318	69.76
633.651	69.79
633.984	69.75
634.316	69.82
634.649	69.76
634.981	69.84
635.313	69.91
635.646	69.94
635.978	70.08
636.31	69.99
636.643	70.02
636.975	69.9
637.307	69.97
637.639	69.91
637.971	69.95
638.303	69.95
638.635	70.01
638.967	69.98
639.299	70.01
639.631	70
639.963	70.03
640.295	70.05
640.626	70.23
640.958	70.31
641.29	70.3
641.621	70.37
641.953	70.31
642.285	70.28
642.616	70.31
642.948	70.17
643.279	70.22
643.61	70.23
643.942	70.28
644.273	70.38
644.604	70.38
644.936	70.4
645.267	70.49
645.598	70.56
645.929	70.59
646.26	70.58
646.591	70.66
646.922	70.75
647.253	70.79
647.584	70.8
647.915	70.76
648.245	70.83
648.576	70.84
648.907	70.88
649.238	70.8
649.568	70.84
649.899	70.88
650.229	70.99
650.56	70.96
650.89	71.09
651.221	70.95
651.551	71.08
651.882	71.07
652.212	70.97
652.542	70.98
652.872	71.02
653.203	71.09
653.533	71.25
653.863	71.16
654.193	71.23
654.523	71.06
654.853	71.12
655.183	71.11
655.513	71.14
655.843	71.2
656.172	71.19
656.502	71.2
656.832	71.2
657.162	71.21
657.491	71.24
657.821	71.34
658.15	71.42
658.48	71.33
658.809	71.38
659.139	71.51
659.468	71.63
659.798	71.57
660.127	71.58
660.456	71.42
660.785	71.51
661.115	71.46
661.444	71.58
661.773	71.64
662.102	71.79
662.431	71.79
662.76	71.85
663.089	71.97
663.418	72.1
663.747	72.26
664.076	72.37
664.404	72.42
664.733	72.28
665.062	72.25
665.39	72.4
665.719	72.26
666.048	72.27
666.376	72.18
666.705	72.12
667.033	71.95
667.362	72.13
667.69	72.06
668.018	72.09
668.347	72.11
668.675	72.13
669.003	71.99
669.331	71.97
669.659	71.82
669.987	71.71
670.315	71.64
670.643	71.39
670.971	71.29
671.299	71.27
671.627	71.35
671.955	71.48
672.283	71.31
672.61	71.56
672.938	71.47
673.266	71.43
673.593	71.63
673.921	71.63
674.249	71.57
674.576	71.62
674.904	71.62
675.231	71.57
675.558	71.44
675.886	71.47
676.213	71.48
676.54	71.65
676.867	71.83
677.195	71.8
677.522	72.03
677.849	72.14
678.176	72.1
678.503	72.1
678.83	71.92
679.157	71.95
679.484	71.79
679.81	71.87
680.137	71.78
680.464	71.75
680.791	71.83
681.117	71.79
681.444	71.84
681.771	71.92
682.097	71.86
682.424	71.95
682.75	71.9
683.077	72
683.403	71.9
683.729	71.95
684.056	71.9
684.382	71.78
684.708	71.77
685.034	71.72
685.36	71.76
685.686	71.82
686.012	71.87
686.339	71.89
686.664	71.9
686.99	71.92
687.316	72.02
687.642	72.05
687.968	72.04
688.294	72.02
688.619	71.99
688.945	71.86
689.271	71.87
689.596	71.75
689.922	71.86
690.247	71.91
690.573	71.71
690.898	71.72
691.224	71.79
691.549	71.75
691.874	71.91
692.2	72.06
692.525	72.05
692.85	71.98
693.175	71.97
693.5	71.92
693.825	72
694.15	71.76
694.475	71.95
694.8	71.96
695.125	72.02
695.45	72.04
695.775	72.29
696.099	72.24
696.424	72.32
696.749	72.26
697.073	72.28
697.398	72.35
697.723	72.35
698.047	72.24
698.372	72.31
698.696	72.39
699.02	72.26
699.345	72.31
699.669	72.34
699.993	72.35
700.318	72.25
700.642	72.42
700.966	72.56
701.29	72.53
701.614	72.6
701.938	72.66
702.262	72.62
702.586	72.63
702.91	72.85
703.234	72.87
703.557	72.73
703.881	72.66
704.205	72.75
704.529	72.77
704.852	72.96
705.176	72.75
705.499	72.72
705.823	72.56
706.146	72.51
706.47	72.68
706.793	72.67
707.117	72.9
707.44	72.89
707.763	72.96
708.086	72.76
708.409	72.79
708.733	72.76
709.056	72.68
709.379	72.71
709.702	72.58
710.025	72.51
710.348	72.47
710.671	72.59
710.993	72.43
711.316	72.42
711.639	72.35
711.962	72.53
712.284	72.49
712.607	72.69
712.93	72.78
713.252	72.54
713.575	72.56
713.897	72.31
714.22	72.24
714.542	72.27
714.864	72.27
715.187	72.24
715.509	72.21
715.831	72.21
716.153	72.15
716.475	72.08
716.798	72.03
717.12	71.89
717.442	71.89
717.764	71.93
718.085	71.97
718.407	71.8
718.729	71.79
719.051	71.76
719.373	71.63
719.695	71.62
720.016	71.89
720.338	71.95
720.659	72.37
720.981	72.32
721.302	72.05
721.624	72.03
721.945	72.36
722.267	72.14
722.588	72.25
722.909	72.15
723.231	72.46
723.552	72.71
723.873	72.92
724.194	72.88
724.515	72.88
724.836	73.01
725.157	73.21
725.478	73.16
725.799	73.21
726.12	73.19
726.441	73.28
726.762	73.22
727.083	73.39
727.403	73.34
727.724	73.36
728.045	73.58
728.365	73.7
728.686	73.37
729.006	73.74
729.327	73.54
729.647	73.73
729.967	73.42
730.288	73.54
730.608	73.71
730.928	73.73
731.249	73.83
731.569	73.74
731.889	73.74
732.209	73.55
732.529	73.55
732.849	73.54
733.169	73.27
733.489	73.02
733.809	72.93
734.129	72.76
734.448	72.72
734.768	72.57
735.088	72.5
735.408	72.45
735.727	72.21
736.047	72.41
736.366	72.26
736.686	72.11
737.005	72.04
737.325	71.95
737.644	71.82
737.963	72.01
738.283	72.03
738.602	72.2
738.921	72.28
739.24	72.11
739.56	72.03
739.879	71.97
740.198	72.39
740.517	72.04
740.836	72.11
741.155	72.18
741.473	72.29
741.792	72.31
742.111	72.24
742.43	72.09
742.748	72.06
743.067	71.77
743.386	71.92
743.704	71.88
744.023	71.96
744.341	72.17
744.66	71.82
744.978	71.76
745.297	71.9
745.615	72.13
745.933	72.17
746.252	72.43
746.57	72.52
746.888	72.47
747.206	73.04
747.524	73.28
747.842	73.16
748.16	73.26
748.478	73.31
748.796	73.71
749.114	73.6
749.432	73.35
749.749	73.71
750.067	73.72
750.385	73.43
750.703	73.72
751.02	73.63
751.338	73.41
751.655	73.9
751.973	73.36
752.29	73.22
752.608	72.99
752.925	72.82
753.242	73.26
753.56	72.92
753.877	72.46
754.194	71.96
754.511	71.94
754.828	71.8
755.145	71.7
755.462	71.67
755.779	72.03
756.096	72.16
756.413	71.98
756.73	71.97
757.047	72.6
757.364	72.36
757.68	72.19
757.997	72.25
758.314	71.8
758.63	72.07
758.947	72.14
759.264	72.65
759.58	72.55
759.896	72.2
760.213	72.13
760.529	71.93
760.846	72.1
761.162	72.15
761.478	72.11
761.794	72.23
762.11	72.28
762.426	72.2
762.743	72.59
763.059	72.95
763.375	72.93
763.69	72.6
764.006	72.43
764.322	72.47
764.638	72.48
764.954	72.58
765.27	72.51
765.585	72.5
765.901	72.34
766.216	72.34
766.532	72.59
766.848	72.69
767.163	73.2
767.478	73.39
767.794	73.68
768.109	73.84
768.424	73.76
768.74	73.65
769.055	73.37
769.37	73.05
769.685	72.69
770	72.68
770.315	72.53
770.63	72.23
770.945	72.6
771.26	72.57
771.575	72.2
771.89	72.07
772.205	71.84
772.52	71.59
772.834	71.98
773.149	72.09
773.464	72.11
773.778	71.74
774.093	71.76
774.407	71.43
774.722	71
775.036	70.79
775.351	70.44
775.665	70.9
775.979	71.23
776.293	71.27
776.608	71.38
776.922	71.57
777.236	71.71
777.55	71.26
777.864	71.38
778.178	71.7
778.492	71.71
778.806	71.88
779.12	72.08
779.434	71.59
779.747	71.2
780.061	71.36
780.375	71.81
780.689	72.06
781.002	72.67
781.316	73.1
781.629	73.26
781.943	73.45
782.256	73.43
782.57	72.75
782.883	73
783.196	72.48
783.51	72.88
783.823	73.22
784.136	73.27
784.449	73.42
784.762	73.27
785.075	73.4
785.388	73.49
785.701	73.29
786.014	73.47
786.327	73.45
786.64	73.44
786.953	73.09
787.266	72.55
787.578	71.86
787.891	72.02
788.204	72.12
788.516	72.68
788.829	72.45
789.141	72.61
789.454	72.59
789.766	72.9
790.079	72.65
790.391	72.69
790.703	72.42
791.016	72.58
791.328	72.39
791.64	72.66
791.952	72.43
792.264	72.79
792.576	72.41
792.888	72.43
793.2	72.71
793.512	72.51
793.824	72.23
794.136	72.56
794.448	72.14
794.76	71.71
795.071	71.16
795.383	71.5
795.695	71.75
796.006	71.24
796.318	70.72
796.629	70.61
796.941	70.61
797.252	71.26
797.564	70.95
797.875	71.67
798.186	71.14
798.497	71.52
798.809	71.5
799.12	72.37
799.431	72.25
799.742	71.69
800.053	71.93
800.364	71.77
800.675	71.8
800.986	72.25
801.297	72.99
801.608	73.08
801.918	73.23
802.229	73.04
802.54	73.19
802.851	74.15
803.161	73.95
803.472	74.38
803.782	74.57
804.093	74.95
804.403	75.1
804.714	75.82
805.024	75.49
805.334	75.49
805.645	75.62
805.955	76.17
806.265	75.92
806.575	75.43
806.885	76.3
807.195	76.39
807.505	75.68
807.815	75.23
808.125	75.19
808.435	75.21
808.745	75.61
809.055	74.85
809.365	74.74
809.674	75.49
809.984	75.22
810.294	75.27
810.603	75.03
810.913	74.35
811.222	73.62
811.532	73.54
811.841	73.44
812.151	72.83
812.46	72.42
812.769	73.48
813.079	74.4
813.388	73.94
813.697	73.05
814.006	73.95
814.315	74.37
814.624	74.59
814.933	74.2
815.242	73.96
815.551	75.11
815.86	74.73
816.169	74
816.478	74.21
816.786	73.73
817.095	74.12
817.404	73.91
817.712	73.88
818.021	74.76
818.33	74.53
818.638	74.93
818.947	74.78
819.255	74.33
819.563	74.09
819.872	73.89
820.18	74.21
820.488	74.03
820.796	74.11
821.105	74.21
821.413	74.37
821.721	74.45
822.029	74.34
822.337	74.44
822.645	74.47
822.953	74.46
823.26	74.5
823.568	74.53
823.876	74.5
824.184	74.57
824.491	74.34
824.799	74.52
825.107	74.32
825.414	74.23
825.722	74.28
826.029	74.55
826.337	74.48
826.644	74.54
826.951	74.47
827.259	74.42
827.566	74.16
827.873	74.07
828.18	73.82
828.488	73.9
828.795	74.05
829.102	73.91
829.409	73.75
829.716	73.52
830.023	73.21
830.329	73.63
830.636	73.84
830.943	73.6
831.25	73.29
831.557	73.42
831.863	73.76
832.17	73.46
832.476	72.76
832.783	72.89
833.089	72.67
833.396	72.35
833.702	72.41
834.009	72.75
834.315	72.54
834.621	72.92
834.928	73
835.234	72.66
835.54	72.87
835.846	73.16
836.152	73.42
836.458	73.64
836.764	73.33
837.07	72.96
837.376	73.11
837.682	72.99
837.988	72.68
838.293	72.22
838.599	72.15
838.905	71.7
839.211	72
839.516	71.98
839.822	71.81
840.127	70.77
840.433	70.49
840.738	71.33
841.044	70.82
841.349	69.63
841.654	70.07
841.959	70.13
842.265	69.42
842.57	69.42
842.875	69.66
843.18	69.42
843.485	69.38
843.79	70.04
844.095	69.6
844.4	69.66
844.705	69.48
845.01	69.77
845.315	71.5
845.619	71.03
845.924	69.89
846.229	71.23
846.533	71.18
846.838	70.25
847.142	69.66
847.447	68.81
847.751	70.3
848.056	68.08
848.36	68.12
848.664	67.73
848.969	66.68
849.273	64.85
849.577	64.94
849.881	65.35
850.185	67.08
850.489	66.38
850.794	65.85
851.097	66.65
851.401	65.9
851.705	63.42
852.009	64.48
852.313	67.51
852.617	67.75
852.92	70.5
853.224	73.04
853.528	71.78
853.831	75.4
854.135	75.09
854.438	76.31
854.742	75.63
855.045	76.67
855.349	77.11
855.652	78.54
855.955	79.39
856.259	79.34
856.562	77.61
856.865	80.05
857.168	81.11
857.471	81.28
857.774	81.01
858.077	82.48
858.38	80.8
858.683	78.69
858.986	77.89
859.289	77.25
859.592	73.17
859.894	74.13
860.197	71.53
860.5	71.33
860.802	73.46
861.105	72.81
861.407	71.25
861.71	71.81
862.012	70.92
862.315	68.91
862.617	69.33
862.919	67.87
863.222	67.87
863.524	67.83
863.826	68.81
864.128	72.82
864.43	73.91
864.732	76.38
865.034	74.71
865.336	75.07
865.638	74.61
865.94	78.74
866.242	78.63
866.544	80.43
866.846	82.13
867.147	80.66
867.449	81.77
867.751	84.51
868.052	83.56
868.354	83.9
868.655	83.93
868.957	83.26
869.258	85.44
869.56	87.53
869.861	86.29
870.162	83.3
870.463	79.33
870.765	76.89
871.066	77.18
871.367	79.83
871.668	81.61
871.969	78.86
872.27	77.66
872.571	76.03
872.872	75.91
873.173	72.15
873.473	72.51
873.774	72.98
874.075	71.68
874.376	71.85
874.676	73.5
874.977	72.9
875.277	73.57
875.578	73.48
875.878	71.7
876.179	73.61
876.479	75.01
876.78	75.83
877.08	76.77
877.38	75.39
877.68	74.53
877.981	71.6
878.281	75.77
878.581	74.99
