Data from BA28470_Reflection_00002.txt Node
Date: Mon Nov 18 15:09:52 EST 2019
User: vgr7
Spectrometer: USB2G7710
Scans to average: 3
Trigger mode: 4
Integration Time (sec): 2.000000E-2
Electric dark correction enabled: true
Boxcar width: 10
XAxis mode: Wavelengths
Number of Pixels in Spectrum: 2048
>>>>>Begin Spectral Data<<<<<
177.721	219.32
178.105	210.24
178.488	108.73
178.871	-326.47
179.254	-224.72
179.636	241.59
180.019	-51.45
180.402	145.45
180.785	-1954.05
181.168	-40.73
181.55	-128.01
181.933	135.67
182.316	125.81
182.698	127.19
183.081	43.38
183.463	64.59
183.846	49.21
184.228	47.45
184.611	46.61
184.993	83.64
185.376	57.81
185.758	72.64
186.14	53.56
186.522	110.63
186.904	131.57
187.287	160.7
187.669	36.44
188.051	8.53
188.433	10.11
188.815	-30.5
189.197	46.31
189.579	5.73
189.961	107.03
190.342	1533.96
190.724	-355.6
191.106	1339.44
191.488	673.43
191.869	-197.59
192.251	-60.63
192.633	-47.89
193.014	-30.56
193.396	-212.39
193.777	-103.95
194.159	-119.65
194.54	-68.4
194.922	-76.7
195.303	-95.76
195.684	-49.72
196.065	-46.95
196.447	-63.32
196.828	-90.78
197.209	-52
197.59	-53.42
197.971	-44.65
198.352	-48.77
198.733	-44.28
199.114	-36.8
199.495	-34.07
199.876	-40.37
200.257	-20.8
200.638	-14.6
201.018	-32.54
201.399	-27.67
201.78	-27.19
202.16	-33.18
202.541	-71.23
202.922	-82.95
203.302	-104.95
203.683	-179.93
204.063	-404.55
204.444	-194.77
204.824	-144.71
205.204	-166.09
205.585	-193.28
205.965	-429.23
206.345	-232.44
206.725	529.09
207.106	-1137.41
207.486	358.06
207.866	1460.41
208.246	3055.75
208.626	758.1
209.006	-1225.71
209.386	-853.85
209.766	-361.98
210.145	-368.71
210.525	-166.82
210.905	-122.87
211.285	-5.81
211.664	17.87
212.044	30.08
212.424	4.54
212.803	-17.83
213.183	-24.35
213.562	-2.12
213.942	-16.41
214.321	-19.94
214.701	-17.65
215.08	-27.71
215.459	-2.78
215.838	5.93
216.218	1.65
216.597	0.58
216.976	-2.01
217.355	6.26
217.734	1.02
218.113	1.66
218.492	-2.33
218.871	-5.57
219.25	-2.73
219.629	-15.01
220.008	-14.43
220.387	-15.01
220.766	-15.58
221.144	-26.22
221.523	-45.07
221.902	-37.1
222.28	-50.32
222.659	-29.11
223.037	-27.5
223.416	-31.73
223.794	-25.28
224.173	-21.79
224.551	-25.13
224.929	-24.8
225.308	-10.05
225.686	-10.67
226.064	-9.04
226.442	-8.96
226.821	-7.91
227.199	-12.68
227.577	-10.78
227.955	-10.37
228.333	-7.67
228.711	-1.63
229.089	6.03
229.467	8.53
229.845	10.13
230.222	11.47
230.6	6.41
230.978	6.94
231.356	8.23
231.733	8.28
232.111	9.61
232.488	10.86
232.866	11.42
233.243	10.74
233.621	10.05
233.998	9.48
234.376	10.39
234.753	10.82
235.13	12.81
235.508	14.13
235.885	12.71
236.262	11.7
236.639	9.91
237.016	8.31
237.393	8.23
237.77	7.63
238.147	7.44
238.524	8.37
238.901	8.92
239.278	9.45
239.655	8.77
240.032	8.79
240.409	8.26
240.785	7.67
241.162	6.9
241.539	6.78
241.915	6.94
242.292	5.87
242.668	5.79
243.045	5.38
243.421	4.87
243.798	4.85
244.174	4.83
244.551	4.75
244.927	4.69
245.303	4.81
245.679	4.78
246.056	4.58
246.432	4.6
246.808	4.52
247.184	4.15
247.56	4.24
247.936	4.04
248.312	3.94
248.688	3.97
249.064	4
249.44	4.14
249.815	4.23
250.191	4.68
250.567	4.72
250.943	4.76
251.318	5.12
251.694	5.12
252.069	5.13
252.445	5.35
252.82	5.28
253.196	5.44
253.571	5.35
253.947	5.48
254.322	5.49
254.697	5.22
255.073	4.77
255.448	4.81
255.823	5.1
256.198	5.61
256.573	5.59
256.948	5.58
257.323	5.49
257.698	5.4
258.073	5.16
258.448	5.02
258.823	4.99
259.198	4.92
259.573	4.96
259.948	4.96
260.322	4.87
260.697	4.89
261.072	4.68
261.446	4.71
261.821	4.67
262.195	4.71
262.57	4.76
262.944	4.97
263.319	4.97
263.693	4.71
264.067	4.55
264.442	4.56
264.816	4.61
265.19	4.51
265.564	4.39
265.938	4.42
266.313	4.42
266.687	4.57
267.061	4.56
267.435	4.66
267.809	4.8
268.183	4.87
268.556	4.89
268.93	5.02
269.304	5.1
269.678	5.1
270.051	4.96
270.425	4.95
270.799	4.98
271.172	4.95
271.546	5.04
271.919	4.98
272.293	4.97
272.666	5.02
273.04	4.97
273.413	4.89
273.787	4.92
274.16	4.91
274.533	4.79
274.906	4.61
275.279	4.55
275.653	4.47
276.026	4.29
276.399	4.3
276.772	4.24
277.145	4.2
277.518	4.26
277.891	4.49
278.263	4.37
278.636	4.35
279.009	4.47
279.382	4.57
279.755	4.62
280.127	4.82
280.5	4.76
280.872	4.93
281.245	4.99
281.617	4.96
281.99	5.14
282.362	5.24
282.735	5.23
283.107	5.16
283.479	5.28
283.852	5.27
284.224	5.31
284.596	5.24
284.968	5.34
285.34	5.35
285.713	5.19
286.085	5.4
286.457	5.51
286.829	5.55
287.201	5.58
287.572	5.42
287.944	5.29
288.316	5.27
288.688	5.22
289.06	5.38
289.431	5.37
289.803	5.3
290.175	5.21
290.546	5.4
290.918	5.45
291.289	5.31
291.661	5.36
292.032	5.37
292.403	5.36
292.775	5.3
293.146	5.22
293.517	5.25
293.889	5.16
294.26	5.06
294.631	4.88
295.002	4.75
295.373	4.85
295.744	4.97
296.115	5
296.486	4.95
296.857	4.91
297.228	4.96
297.599	4.91
297.97	4.93
298.34	4.89
298.711	4.86
299.082	4.92
299.452	4.95
299.823	5
300.194	5.01
300.564	4.94
300.935	5.05
301.305	4.96
301.676	5.02
302.046	5.1
302.416	5.34
302.787	5.33
303.157	5.44
303.527	5.31
303.897	5.43
304.267	5.55
304.637	5.47
305.008	5.56
305.378	5.59
305.748	5.59
306.117	5.64
306.487	5.69
306.857	5.86
307.227	5.92
307.597	5.76
307.967	5.85
308.336	5.87
308.706	5.92
309.076	6.08
309.445	6.09
309.815	6.04
310.184	5.85
310.554	5.81
310.923	5.77
311.293	5.76
311.662	5.64
312.031	5.53
312.401	5.55
312.77	5.54
313.139	5.54
313.508	5.59
313.877	5.56
314.246	5.53
314.616	5.31
314.985	5.28
315.353	5.2
315.722	5.15
316.091	5.13
316.46	5.08
316.829	5.02
317.198	4.99
317.567	5.02
317.935	5.05
318.304	5.05
318.672	5
319.041	5.08
319.41	4.96
319.778	4.98
320.147	4.99
320.515	4.8
320.883	4.75
321.252	4.78
321.62	4.73
321.988	4.77
322.357	4.8
322.725	4.77
323.093	4.9
323.461	4.9
323.829	4.84
324.197	4.81
324.565	4.77
324.933	4.79
325.301	4.73
325.669	4.8
326.037	4.88
326.405	4.84
326.772	4.83
327.14	4.92
327.508	5.04
327.875	5.04
328.243	5.16
328.61	5.31
328.978	5.32
329.346	5.34
329.713	5.25
330.08	5.27
330.448	5.27
330.815	5.12
331.182	5.07
331.55	5.21
331.917	5.35
332.284	5.36
332.651	5.26
333.018	5.31
333.385	5.3
333.752	5.39
334.119	5.48
334.486	5.45
334.853	5.37
335.22	5.2
335.587	5.18
335.954	5.09
336.32	5.09
336.687	5.02
337.054	4.97
337.42	5.05
337.787	5.11
338.153	5.14
338.52	5.32
338.886	5.32
339.253	5.27
339.619	5.15
339.986	5.17
340.352	5.3
340.718	5.16
341.084	5.16
341.451	5.16
341.817	5.15
342.183	5.04
342.549	5.12
342.915	5.26
343.281	5.28
343.647	5.31
344.013	5.28
344.379	5.26
344.745	5.42
345.11	5.47
345.476	5.46
345.842	5.36
346.208	5.23
346.573	5.31
346.939	5.34
347.304	5.25
347.67	5.25
348.035	5.17
348.401	5.26
348.766	5.22
349.132	5.17
349.497	5.19
349.862	5.37
350.228	5.36
350.593	5.32
350.958	5.35
351.323	5.49
351.688	5.41
352.053	5.46
352.418	5.39
352.783	5.38
353.148	5.33
353.513	5.39
353.878	5.49
354.243	5.51
354.608	5.48
354.972	5.65
355.337	5.68
355.702	5.69
356.066	5.67
356.431	5.66
356.795	5.66
357.16	5.63
357.524	5.54
357.889	5.53
358.253	5.59
358.618	5.54
358.982	5.41
359.346	5.44
359.71	5.38
360.075	5.39
360.439	5.37
360.803	5.38
361.167	5.36
361.531	5.32
361.895	5.23
362.259	5.23
362.623	5.19
362.987	5.17
363.351	5.16
363.714	5.18
364.078	5.22
364.442	5.2
364.806	5.18
365.169	5.22
365.533	5.21
365.896	5.19
366.26	5.23
366.623	5.3
366.987	5.28
367.35	5.36
367.714	5.31
368.077	5.28
368.44	5.3
368.803	5.28
369.167	5.26
369.53	5.3
369.893	5.29
370.256	5.32
370.619	5.32
370.982	5.29
371.345	5.28
371.708	5.25
372.071	5.31
372.434	5.31
372.797	5.31
373.159	5.32
373.522	5.31
373.885	5.29
374.247	5.27
374.61	5.29
374.973	5.25
375.335	5.27
375.698	5.3
376.06	5.29
376.423	5.32
376.785	5.38
377.147	5.43
377.51	5.46
377.872	5.44
378.234	5.42
378.596	5.46
378.958	5.46
379.321	5.5
379.683	5.51
380.045	5.52
380.407	5.55
380.769	5.56
381.13	5.58
381.492	5.59
381.854	5.59
382.216	5.59
382.578	5.6
382.939	5.62
383.301	5.62
383.663	5.63
384.024	5.64
384.386	5.65
384.747	5.65
385.109	5.63
385.47	5.6
385.832	5.59
386.193	5.61
386.554	5.61
386.916	5.59
387.277	5.55
387.638	5.52
387.999	5.48
388.36	5.48
388.721	5.48
389.082	5.48
389.443	5.44
389.804	5.45
390.165	5.43
390.526	5.42
390.887	5.42
391.248	5.42
391.609	5.42
391.969	5.41
392.33	5.41
392.691	5.4
393.051	5.42
393.412	5.43
393.772	5.4
394.133	5.43
394.493	5.43
394.854	5.44
395.214	5.47
395.574	5.48
395.935	5.48
396.295	5.48
396.655	5.46
397.015	5.5
397.376	5.49
397.736	5.48
398.096	5.51
398.456	5.51
398.816	5.52
399.176	5.52
399.535	5.53
399.895	5.52
400.255	5.53
400.615	5.53
400.975	5.55
401.334	5.56
401.694	5.56
402.054	5.55
402.413	5.56
402.773	5.53
403.132	5.52
403.492	5.53
403.851	5.53
404.211	5.56
404.57	5.53
404.929	5.55
405.288	5.53
405.648	5.52
406.007	5.52
406.366	5.51
406.725	5.52
407.084	5.52
407.443	5.53
407.802	5.55
408.161	5.54
408.52	5.53
408.879	5.52
409.238	5.52
409.596	5.52
409.955	5.52
410.314	5.56
410.673	5.55
411.031	5.58
411.39	5.56
411.748	5.57
412.107	5.62
412.465	5.62
412.824	5.64
413.182	5.61
413.54	5.6
413.899	5.62
414.257	5.63
414.615	5.61
414.974	5.61
415.332	5.6
415.69	5.61
416.048	5.61
416.406	5.61
416.764	5.63
417.122	5.62
417.48	5.61
417.838	5.61
418.195	5.62
418.553	5.6
418.911	5.63
419.269	5.63
419.626	5.62
419.984	5.62
420.342	5.64
420.699	5.64
421.057	5.64
421.414	5.64
421.772	5.62
422.129	5.64
422.486	5.65
422.844	5.66
423.201	5.65
423.558	5.65
423.915	5.66
424.273	5.64
424.63	5.65
424.987	5.66
425.344	5.66
425.701	5.67
426.058	5.68
426.415	5.67
426.772	5.66
427.128	5.67
427.485	5.68
427.842	5.7
428.199	5.73
428.555	5.74
428.912	5.76
429.269	5.76
429.625	5.76
429.982	5.74
430.338	5.73
430.695	5.74
431.051	5.75
431.407	5.75
431.764	5.76
432.12	5.77
432.476	5.78
432.832	5.78
433.189	5.79
433.545	5.77
433.901	5.77
434.257	5.77
434.613	5.78
434.969	5.78
435.325	5.75
435.681	5.74
436.036	5.74
436.392	5.73
436.748	5.73
437.104	5.74
437.459	5.75
437.815	5.76
438.171	5.76
438.526	5.74
438.882	5.74
439.237	5.73
439.593	5.73
439.948	5.71
440.304	5.72
440.659	5.71
441.014	5.74
441.369	5.75
441.725	5.74
442.08	5.74
442.435	5.72
442.79	5.73
443.145	5.73
443.5	5.72
443.855	5.73
444.21	5.75
444.565	5.75
444.92	5.76
445.275	5.76
445.629	5.78
445.984	5.8
446.339	5.78
446.693	5.78
447.048	5.78
447.403	5.79
447.757	5.78
448.112	5.77
448.466	5.77
448.82	5.74
449.175	5.76
449.529	5.75
449.883	5.77
450.238	5.76
450.592	5.76
450.946	5.76
451.3	5.75
451.654	5.72
452.008	5.72
452.362	5.7
452.716	5.68
453.07	5.68
453.424	5.67
453.778	5.69
454.132	5.68
454.486	5.67
454.839	5.67
455.193	5.66
455.547	5.68
455.9	5.68
456.254	5.7
456.607	5.69
456.961	5.69
457.314	5.7
457.668	5.7
458.021	5.71
458.375	5.73
458.728	5.75
459.081	5.76
459.434	5.75
459.787	5.77
460.141	5.79
460.494	5.8
460.847	5.79
461.2	5.79
461.553	5.8
461.906	5.82
462.259	5.82
462.611	5.84
462.964	5.84
463.317	5.85
463.67	5.85
464.022	5.84
464.375	5.84
464.728	5.82
465.08	5.84
465.433	5.82
465.785	5.8
466.138	5.8
466.49	5.82
466.843	5.83
467.195	5.81
467.547	5.81
467.899	5.8
468.252	5.81
468.604	5.82
468.956	5.81
469.308	5.81
469.66	5.81
470.012	5.8
470.364	5.79
470.716	5.79
471.068	5.8
471.42	5.8
471.772	5.81
472.123	5.82
472.475	5.83
472.827	5.85
473.178	5.89
473.53	5.88
473.882	5.86
474.233	5.87
474.585	5.89
474.936	5.88
475.288	5.91
475.639	5.9
475.99	5.9
476.342	5.9
476.693	5.91
477.044	5.92
477.395	5.93
477.746	5.91
478.097	5.91
478.448	5.93
478.8	5.95
479.15	5.95
479.501	5.97
479.852	5.96
480.203	5.99
480.554	5.99
480.905	6
481.255	6
481.606	5.99
481.957	6.01
482.307	6.02
482.658	6
483.009	6
483.359	6.01
483.709	6.02
484.06	6
484.41	6.01
484.761	6.01
485.111	6.03
485.461	6.03
485.811	6.03
486.162	6.02
486.512	6.03
486.862	6.02
487.212	6.01
487.562	6.01
487.912	6
488.262	6
488.612	6
488.961	6.01
489.311	5.98
489.661	5.97
490.011	5.97
490.36	5.97
490.71	5.96
491.06	5.96
491.409	5.97
491.759	5.96
492.108	5.96
492.458	5.96
492.807	5.94
493.157	5.93
493.506	5.96
493.855	5.94
494.204	5.94
494.554	5.96
494.903	5.95
495.252	5.96
495.601	5.96
495.95	5.95
496.299	5.94
496.648	5.96
496.997	5.99
497.346	5.99
497.695	5.99
498.043	6.02
498.392	6.01
498.741	6.01
499.09	6
499.438	6
499.787	6.01
500.135	6.02
500.484	6.03
500.832	6.04
501.181	6.04
501.529	6.05
501.878	6.04
502.226	6.03
502.574	6.04
502.923	6.05
503.271	6.05
503.619	6.08
503.967	6.08
504.315	6.07
504.663	6.07
505.011	6.09
505.359	6.08
505.707	6.11
506.055	6.11
506.403	6.11
506.751	6.11
507.098	6.11
507.446	6.11
507.794	6.12
508.141	6.11
508.489	6.13
508.837	6.15
509.184	6.18
509.531	6.21
509.879	6.17
510.226	6.17
510.574	6.17
510.921	6.15
511.268	6.14
511.616	6.14
511.963	6.15
512.31	6.15
512.657	6.16
513.004	6.15
513.351	6.16
513.698	6.17
514.045	6.17
514.392	6.18
514.739	6.19
515.086	6.19
515.432	6.21
515.779	6.18
516.126	6.18
516.473	6.18
516.819	6.18
517.166	6.18
517.512	6.2
517.859	6.21
518.205	6.22
518.552	6.21
518.898	6.24
519.245	6.25
519.591	6.24
519.937	6.23
520.283	6.25
520.629	6.25
520.976	6.24
521.322	6.24
521.668	6.23
522.014	6.24
522.36	6.24
522.706	6.26
523.052	6.29
523.398	6.3
523.743	6.29
524.089	6.29
524.435	6.32
524.781	6.32
525.126	6.33
525.472	6.32
525.817	6.35
526.163	6.33
526.509	6.34
526.854	6.35
527.199	6.36
527.545	6.36
527.89	6.38
528.235	6.39
528.581	6.4
528.926	6.42
529.271	6.41
529.616	6.4
529.961	6.4
530.306	6.4
530.651	6.39
530.996	6.4
531.341	6.4
531.686	6.41
532.031	6.4
532.376	6.4
532.721	6.42
533.065	6.42
533.41	6.43
533.755	6.43
534.099	6.43
534.444	6.42
534.788	6.42
535.133	6.4
535.477	6.4
535.822	6.4
536.166	6.39
536.51	6.41
536.855	6.42
537.199	6.42
537.543	6.42
537.887	6.43
538.231	6.44
538.576	6.43
538.92	6.43
539.264	6.44
539.608	6.44
539.951	6.43
540.295	6.41
540.639	6.41
540.983	6.41
541.327	6.41
541.671	6.41
542.014	6.4
542.358	6.43
542.701	6.43
543.045	6.45
543.389	6.47
543.732	6.47
544.075	6.47
544.419	6.47
544.762	6.47
545.105	6.47
545.449	6.46
545.792	6.46
546.135	6.46
546.478	6.48
546.821	6.49
547.165	6.5
547.508	6.51
547.851	6.54
548.194	6.54
548.536	6.54
548.879	6.55
549.222	6.56
549.565	6.57
549.908	6.59
550.25	6.56
550.593	6.53
550.936	6.53
551.278	6.52
551.621	6.53
551.963	6.53
552.306	6.55
552.648	6.55
552.991	6.6
553.333	6.58
553.675	6.57
554.017	6.57
554.36	6.59
554.702	6.6
555.044	6.6
555.386	6.62
555.728	6.66
556.07	6.69
556.412	6.66
556.754	6.63
557.096	6.6
557.438	6.6
557.78	6.63
558.121	6.64
558.463	6.69
558.805	6.68
559.147	6.68
559.488	6.68
559.83	6.7
560.171	6.69
560.513	6.73
560.854	6.74
561.196	6.75
561.537	6.73
561.878	6.72
562.22	6.71
562.561	6.7
562.902	6.7
563.243	6.68
563.584	6.7
563.925	6.73
564.266	6.77
564.607	6.78
564.948	6.79
565.289	6.77
565.63	6.77
565.971	6.78
566.312	6.81
566.653	6.82
566.993	6.8
567.334	6.81
567.675	6.79
568.015	6.79
568.356	6.81
568.696	6.82
569.037	6.84
569.377	6.82
569.718	6.83
570.058	6.82
570.398	6.81
570.739	6.83
571.079	6.8
571.419	6.77
571.759	6.77
572.099	6.74
572.439	6.78
572.779	6.77
573.119	6.79
573.459	6.78
573.799	6.77
574.139	6.79
574.479	6.76
574.819	6.78
575.158	6.77
575.498	6.77
575.838	6.79
576.177	6.76
576.517	6.79
576.856	6.81
577.196	6.79
577.535	6.81
577.875	6.82
578.214	6.81
578.553	6.85
578.893	6.86
579.232	6.87
579.571	6.87
579.91	6.87
580.25	6.89
580.589	6.87
580.928	6.91
581.267	6.87
581.606	6.87
581.945	6.86
582.283	6.86
582.622	6.84
582.961	6.84
583.3	6.86
583.639	6.88
583.977	6.87
584.316	6.9
584.654	6.9
584.993	6.87
585.332	6.92
585.67	6.93
586.008	6.94
586.347	6.94
586.685	6.92
587.024	6.93
587.362	6.91
587.7	6.95
588.038	6.91
588.376	6.92
588.715	6.96
589.053	6.99
589.391	7.01
589.729	7
590.067	6.98
590.404	7
590.742	7.03
591.08	7.01
591.418	7.05
591.756	7.09
592.093	7.12
592.431	7.13
592.769	7.07
593.106	7.09
593.444	7.07
593.781	7.08
594.119	7.08
594.456	7.09
594.793	7.07
595.131	7.09
595.468	7.11
595.805	7.08
596.143	7.05
596.48	7.03
596.817	7.03
597.154	7.05
597.491	7.05
597.828	7.01
598.165	6.99
598.502	6.96
598.839	6.95
599.176	6.95
599.512	6.95
599.849	7
600.186	7.01
600.523	7.08
600.859	7.13
601.196	7.1
601.532	7.12
601.869	7.09
602.205	7.09
602.542	7.08
602.878	7.08
603.215	7.1
603.551	7.13
603.887	7.12
604.223	7.12
604.56	7.17
604.896	7.17
605.232	7.22
605.568	7.24
605.904	7.2
606.24	7.22
606.576	7.22
606.912	7.22
607.248	7.21
607.583	7.18
607.919	7.12
608.255	7.12
608.591	7.09
608.926	7.13
609.262	7.16
609.597	7.19
609.933	7.23
610.268	7.22
610.604	7.23
610.939	7.24
611.275	7.24
611.61	7.15
611.945	7.18
612.281	7.17
612.616	7.21
612.951	7.26
613.286	7.27
613.621	7.24
613.956	7.25
614.291	7.27
614.626	7.26
614.961	7.28
615.296	7.3
615.631	7.3
615.966	7.3
616.3	7.27
616.635	7.26
616.97	7.24
617.304	7.29
617.639	7.3
617.973	7.32
618.308	7.36
618.642	7.37
618.977	7.37
619.311	7.38
619.646	7.35
619.98	7.35
620.314	7.35
620.648	7.33
620.983	7.31
621.317	7.28
621.651	7.31
621.985	7.38
622.319	7.41
622.653	7.48
622.987	7.51
623.321	7.51
623.655	7.58
623.988	7.61
624.322	7.59
624.656	7.62
624.99	7.68
625.323	7.68
625.657	7.73
625.99	7.72
626.324	7.73
626.657	7.75
626.991	7.74
627.324	7.71
627.658	7.76
627.991	7.8
628.324	7.86
628.657	7.81
628.991	7.8
629.324	7.78
629.657	7.74
629.99	7.76
630.323	7.75
630.656	7.74
630.989	7.73
631.322	7.73
631.655	7.71
631.987	7.65
632.32	7.63
632.653	7.62
632.986	7.67
633.318	7.68
633.651	7.68
633.984	7.7
634.316	7.71
634.649	7.73
634.981	7.71
635.313	7.72
635.646	7.75
635.978	7.74
636.31	7.76
636.643	7.79
636.975	7.79
637.307	7.82
637.639	7.81
637.971	7.78
638.303	7.76
638.635	7.75
638.967	7.8
639.299	7.81
639.631	7.84
639.963	7.77
640.295	7.69
640.626	7.7
640.958	7.69
641.29	7.74
641.621	7.7
641.953	7.68
642.285	7.64
642.616	7.7
642.948	7.73
643.279	7.75
643.61	7.72
643.942	7.72
644.273	7.72
644.604	7.69
644.936	7.69
645.267	7.76
645.598	7.82
645.929	7.8
646.26	7.8
646.591	7.78
646.922	7.79
647.253	7.83
647.584	7.76
647.915	7.72
648.245	7.65
648.576	7.73
648.907	7.71
649.238	7.76
649.568	7.73
649.899	7.71
650.229	7.72
650.56	7.76
650.89	7.68
651.221	7.72
651.551	7.73
651.882	7.76
652.212	7.75
652.542	7.71
652.872	7.62
653.203	7.62
653.533	7.65
653.863	7.66
654.193	7.65
654.523	7.65
654.853	7.72
655.183	7.8
655.513	7.71
655.843	7.71
656.172	7.72
656.502	7.72
656.832	7.72
657.162	7.77
657.491	7.8
657.821	7.82
658.15	7.76
658.48	7.74
658.809	7.72
659.139	7.69
659.468	7.64
659.798	7.73
660.127	7.74
660.456	7.76
660.785	7.73
661.115	7.8
661.444	7.86
661.773	7.84
662.102	7.82
662.431	7.84
662.76	7.89
663.089	7.92
663.418	7.9
663.747	7.85
664.076	7.75
664.404	7.67
664.733	7.74
665.062	7.8
665.39	7.81
665.719	7.9
666.048	7.93
666.376	7.98
666.705	7.92
667.033	7.9
667.362	7.9
667.69	7.87
668.018	7.83
668.347	7.86
668.675	7.91
669.003	7.96
669.331	8.04
669.659	8.07
669.987	7.94
670.315	7.96
670.643	8
670.971	8.11
671.299	8.24
671.627	8.18
671.955	8.15
672.283	8.19
672.61	8.12
672.938	8.23
673.266	8.27
673.593	8.39
673.921	8.41
674.249	8.43
674.576	8.5
674.904	8.55
675.231	8.55
675.558	8.54
675.886	8.51
676.213	8.57
676.54	8.55
676.867	8.66
677.195	8.67
677.522	8.66
677.849	8.59
678.176	8.57
678.503	8.61
678.83	8.6
679.157	8.61
679.484	8.67
679.81	8.6
680.137	8.53
680.464	8.43
680.791	8.44
681.117	8.36
681.444	8.42
681.771	8.3
682.097	8.29
682.424	8.25
682.75	8.24
683.077	8.11
683.403	8.15
683.729	8.11
684.056	8.15
684.382	8.2
684.708	8.2
685.034	8.11
685.36	8.11
685.686	8.11
686.012	8.11
686.339	8.18
686.664	8.14
686.99	8.2
687.316	8.34
687.642	8.4
687.968	8.45
688.294	8.5
688.619	8.61
688.945	8.56
689.271	8.59
689.596	8.66
689.922	8.72
690.247	8.66
690.573	8.67
690.898	8.69
691.224	8.66
691.549	8.68
691.874	8.8
692.2	8.92
692.525	8.91
692.85	8.89
693.175	8.66
693.5	8.66
693.825	8.67
694.15	8.74
694.475	8.74
694.8	8.73
695.125	8.6
695.45	8.59
695.775	8.63
696.099	8.68
696.424	8.65
696.749	8.48
697.073	8.54
697.398	8.57
697.723	8.65
698.047	8.61
698.372	8.62
698.696	8.59
699.02	8.4
699.345	8.43
699.669	8.5
699.993	8.59
700.318	8.7
700.642	8.62
700.966	8.52
701.29	8.39
701.614	8.44
701.938	8.52
702.262	8.58
702.586	8.6
702.91	8.52
703.234	8.53
703.557	8.81
703.881	8.84
704.205	8.85
704.529	8.63
704.852	8.79
705.176	8.72
705.499	8.74
705.823	9.04
706.146	9.06
706.47	9.12
706.793	9.18
707.117	9.12
707.44	9.18
707.763	9.09
708.086	9.22
708.409	9.13
708.733	9.14
709.056	9.09
709.379	9.27
709.702	9.26
710.025	9.17
710.348	9.1
710.671	8.99
710.993	9.04
711.316	9.11
711.639	9
711.962	9.08
712.284	9.13
712.607	9.1
712.93	9.15
713.252	9.08
713.575	9.08
713.897	9.21
714.22	9.21
714.542	9.39
714.864	9.43
715.187	9.55
715.509	9.54
715.831	9.59
716.153	9.4
716.475	9.51
716.798	9.75
717.12	9.69
717.442	9.83
717.764	9.76
718.085	9.72
718.407	9.76
718.729	9.8
719.051	9.82
719.373	9.62
719.695	9.56
720.016	9.67
720.338	9.76
720.659	9.6
720.981	9.65
721.302	9.55
721.624	9.42
721.945	9.43
722.267	9.58
722.588	9.6
722.909	9.61
723.231	9.37
723.552	9.24
723.873	9.46
724.194	9.43
724.515	9.66
724.836	9.83
725.157	10.04
725.478	10.01
725.799	10
726.12	10.15
726.441	10.08
726.762	10.04
727.083	9.98
727.403	10.19
727.724	10.14
728.045	10.39
728.365	10.57
728.686	10.41
729.006	10.37
729.327	10.44
729.647	10.54
729.967	10.56
730.288	10.45
730.608	10.2
730.928	10.17
731.249	9.91
731.569	10.05
731.889	10.01
732.209	9.95
732.529	9.91
732.849	9.93
733.169	10.01
733.489	9.95
733.809	10.05
734.129	9.84
734.448	10.01
734.768	9.91
735.088	9.91
735.408	10.03
735.727	9.92
736.047	9.85
736.366	9.76
736.686	9.97
737.005	10.2
737.325	10.1
737.644	9.99
737.963	9.98
738.283	9.79
738.602	9.63
738.921	9.65
739.24	9.7
739.56	9.49
739.879	9.66
740.198	9.96
740.517	9.85
740.836	9.82
741.155	9.59
741.473	9.64
741.792	9.47
742.111	9.4
742.43	9.51
742.748	9.59
743.067	9.57
743.386	9.69
743.704	9.51
744.023	9.89
744.341	10.08
744.66	10.56
744.978	10.34
745.297	10.36
745.615	10.5
745.933	10.43
746.252	10.67
746.57	10.68
746.888	10.26
747.206	10.2
747.524	10.41
747.842	10.67
748.16	10.48
748.478	10.61
748.796	10.87
749.114	11.01
749.432	11.02
749.749	11.25
750.067	10.82
750.385	10.97
750.703	10.86
751.02	10.81
751.338	10.31
751.655	10.55
751.973	10.61
752.29	10.69
752.608	10.85
752.925	11.04
753.242	11.18
753.56	11.2
753.877	11.45
754.194	11.15
754.511	11.23
754.828	11.32
755.145	11.43
755.462	11.42
755.779	11.37
756.096	11.32
756.413	11.17
756.73	11.53
757.047	11.54
757.364	11.5
757.68	11.55
757.997	11.73
758.314	11.63
758.63	11.5
758.947	11.43
759.264	11.25
759.58	10.94
759.896	10.65
760.213	10.84
760.529	10.58
760.846	10.65
761.162	10.49
761.478	10.48
761.794	10.28
762.11	10.33
762.426	10.43
762.743	10.43
763.059	10.61
763.375	10.45
763.69	10.5
764.006	10.78
764.322	10.82
764.638	10.9
764.954	11.1
765.27	11.3
765.585	11.35
765.901	11.36
766.216	11.54
766.532	11.48
766.848	11.34
767.163	11.41
767.478	11.57
767.794	11.71
768.109	11.8
768.424	11.9
768.74	11.93
769.055	11.96
769.37	11.85
769.685	11.68
770	11.85
770.315	11.71
770.63	11.72
770.945	11.76
771.26	11.92
771.575	11.77
771.89	11.71
772.205	11.6
772.52	11.82
772.834	11.73
773.149	12.1
773.464	12.29
773.778	12.32
774.093	12.21
774.407	12.33
774.722	12.23
775.036	12.58
775.351	12.12
775.665	11.77
775.979	11.75
776.293	11.52
776.608	11.47
776.922	11.28
777.236	10.98
777.55	10.81
777.864	10.45
778.178	10.52
778.492	10.77
778.806	10.83
779.12	10.79
779.434	10.61
779.747	10.77
780.061	10.47
780.375	10.66
780.689	10.97
781.002	11.04
781.316	10.9
781.629	10.82
781.943	11.26
782.256	11.4
782.57	11.53
782.883	11.85
783.196	11.74
783.51	11.97
783.823	11.87
784.136	11.79
784.449	12.13
784.762	12.01
785.075	11.66
785.388	11.52
785.701	11.7
786.014	11.96
786.327	11.53
786.64	12.08
786.953	11.98
787.266	11.38
787.578	11.15
787.891	11.51
788.204	11.51
788.516	11.5
788.829	11.63
789.141	11.73
789.454	11.77
789.766	12.26
790.079	12.57
790.391	12.7
790.703	12.85
791.016	12.85
791.328	13.03
791.64	13.19
791.952	13.57
792.264	12.88
792.576	12.68
792.888	13.04
793.2	13.14
793.512	13.01
793.824	13.23
794.136	13.28
794.448	13.21
794.76	12.86
795.071	12.98
795.383	12.69
795.695	12.42
796.006	12.25
796.318	11.82
796.629	11.59
796.941	11.45
797.252	11.73
797.564	11.79
797.875	11.98
798.186	11.69
798.497	11.39
798.809	11.73
799.12	11.7
799.431	11.49
799.742	11.24
800.053	11.51
800.364	11.84
800.675	11.54
800.986	11.78
801.297	11.87
801.608	11.42
801.918	11.71
802.229	11.87
802.54	11.6
802.851	11.77
803.161	11.75
803.472	11.86
803.782	11.74
804.093	11.55
804.403	11.03
804.714	10.79
805.024	10.42
805.334	10.76
805.645	11.11
805.955	11.24
806.265	11.2
806.575	10.7
806.885	10.83
807.195	11.59
807.505	11.02
807.815	11.19
808.125	11.36
808.435	10.7
808.745	10.95
809.055	11.47
809.365	11.94
809.674	11.83
809.984	11.54
810.294	11.58
810.603	11.57
810.913	12.21
811.222	13.01
811.532	13.85
811.841	14.07
812.151	14.21
812.46	13.96
812.769	13.75
813.079	14.15
813.388	13.93
813.697	14.02
814.006	14.25
814.315	13.94
814.624	13.53
814.933	14.33
815.242	14.44
815.551	14.35
815.86	13.88
816.169	13.86
816.478	13.84
816.786	13.63
817.095	13.5
817.404	13.39
817.712	12.9
818.021	13.02
818.33	12.82
818.638	12.64
818.947	13.1
819.255	13.34
819.563	13.4
819.872	13.41
820.18	13.54
820.488	13.45
820.796	13.75
821.105	13.97
821.413	13.89
821.721	13.82
822.029	13.79
822.337	13.72
822.645	13.75
822.953	13.78
823.26	13.89
823.568	13.85
823.876	13.78
824.184	13.69
824.491	13.78
824.799	13.76
825.107	13.89
825.414	13.81
825.722	13.78
826.029	13.82
826.337	13.81
826.644	13.65
826.951	13.66
827.259	13.64
827.566	13.53
827.873	13.48
828.18	13.47
828.488	13.61
828.795	13.59
829.102	13.86
829.409	14.35
829.716	14.14
830.023	14.31
830.329	14.45
830.636	15.01
830.943	15.01
831.25	14.93
831.557	14.74
831.863	14.87
832.17	15.17
832.476	15.07
832.783	15.3
833.089	15.24
833.396	15.12
833.702	14.96
834.009	15.11
834.315	15.49
834.621	15.92
834.928	15.89
835.234	16.06
835.54	15.8
835.846	15.08
836.152	15.07
836.458	15.25
836.764	14.75
837.07	14.58
837.376	13.77
837.682	14.04
837.988	14.04
838.293	13.87
838.599	13.73
838.905	13.47
839.211	13.76
839.516	14.38
839.822	14.74
840.127	14.49
840.433	14.77
840.738	15.36
841.044	15.59
841.349	15.09
841.654	15.03
841.959	15.56
842.265	15.68
842.57	16.39
842.875	15.99
843.18	16.99
843.485	16.45
843.79	18.13
844.095	17.97
844.4	18.65
844.705	19.39
845.01	18.77
845.315	19
845.619	17.17
845.924	16.21
846.229	16.31
846.533	17.12
846.838	16.8
847.142	15.1
847.447	13.58
847.751	14.32
848.056	13.45
848.36	12.53
848.664	14.36
848.969	12.67
849.273	11.13
849.577	11.65
849.881	12.23
850.185	12.68
850.489	13.06
850.794	11.15
851.097	10.86
851.401	10.69
851.705	13.3
852.009	15.67
852.313	15.47
852.617	16.61
852.92	16.43
853.224	16.35
853.528	16.83
853.831	17.14
854.135	16.63
854.438	18.69
854.742	18.76
855.045	16.94
855.349	20.42
855.652	23.29
855.955	24.71
856.259	25.22
856.562	21.43
856.865	22.81
857.168	24.3
857.471	26.24
857.774	28.83
858.077	28.1
858.38	28.31
858.683	28.67
858.986	28.15
859.289	26.07
859.592	26.14
859.894	27.81
860.197	27.91
860.5	26.58
860.802	25.47
861.105	25.12
861.407	24.69
861.71	22.84
862.012	22.14
862.315	18.83
862.617	16.84
862.919	19.11
863.222	19.65
863.524	20.33
863.826	18.55
864.128	17.67
864.43	16.97
864.732	16.72
865.034	16.34
865.336	14.4
865.638	16.91
865.94	17.56
866.242	15.53
866.544	14.5
866.846	15.54
867.147	18.24
867.449	21.5
867.751	21.77
868.052	20.2
868.354	19.39
868.655	21.53
868.957	23.36
869.258	23.94
869.56	21.77
869.861	20.66
870.162	21.37
870.463	22.49
870.765	24.41
871.066	25.09
871.367	25.21
871.668	26.7
871.969	24.92
872.27	23.99
872.571	25.38
872.872	26.65
873.173	26.29
873.473	23.5
873.774	22.12
874.075	22.04
874.376	24.25
874.676	24.15
874.977	26.41
875.277	27.17
875.578	25.62
875.878	26
876.179	26.94
876.479	26.37
876.78	24.69
877.08	22.72
877.38	20.9
877.68	21.61
877.981	21.87
878.281	24.18
878.581	25.86
