Data from BA28473_Reflection_00011.txt Node
Date: Mon Nov 18 15:28:36 EST 2019
User: vgr7
Spectrometer: USB2G7710
Scans to average: 3
Trigger mode: 4
Integration Time (sec): 2.000000E-2
Electric dark correction enabled: true
Boxcar width: 10
XAxis mode: Wavelengths
Number of Pixels in Spectrum: 2048
>>>>>Begin Spectral Data<<<<<
177.721	-152.68
178.105	-154.36
178.488	-109.78
178.871	-74.21
179.254	-221.54
179.636	-71.35
180.019	-434.35
180.402	225
180.785	-809.09
181.168	-746.15
181.55	-366.96
181.933	129.18
182.316	98.83
182.698	69.22
183.081	62.98
183.463	72.72
183.846	52.19
184.228	61.59
184.611	47.07
184.993	229.03
185.376	193.32
185.758	192.75
186.14	234.57
186.522	157.99
186.904	138.74
187.287	190.96
187.669	186.05
188.051	194.09
188.433	341.2
188.815	279.28
189.197	294.41
189.579	338.93
189.961	667.24
190.342	621.94
190.724	-425.04
191.106	-577.06
191.488	-594.96
191.869	-251.32
192.251	-512.81
192.633	-297.33
193.014	108.05
193.396	209.99
193.777	332.19
194.159	780.85
194.54	-246.08
194.922	-78.48
195.303	-135.29
195.684	-213.65
196.065	-29.44
196.447	58.22
196.828	793.88
197.209	-160.36
197.59	299.1
197.971	140.94
198.352	93.41
198.733	101.52
199.114	53.12
199.495	75.54
199.876	53.88
200.257	58.55
200.638	58.6
201.018	54.42
201.399	84.96
201.78	79.81
202.16	83.79
202.541	84.1
202.922	114.14
203.302	109.26
203.683	117.93
204.063	107.33
204.444	100.64
204.824	78.14
205.204	70.75
205.585	70.96
205.965	61.4
206.345	54.22
206.725	58.99
207.106	96.66
207.486	30.92
207.866	95.02
208.246	60.28
208.626	29.85
209.006	36.3
209.386	-7.36
209.766	17.4
210.145	51.51
210.525	64.19
210.905	54.91
211.285	59.94
211.664	73.87
212.044	92.81
212.424	95.24
212.803	168.43
213.183	133.59
213.562	180.72
213.942	156.82
214.321	146.49
214.701	130.92
215.08	133.93
215.459	140.89
215.838	130.31
216.218	127.12
216.597	135.68
216.976	114.8
217.355	131.97
217.734	100.75
218.113	79.4
218.492	77.73
218.871	51.98
219.25	41.98
219.629	44.63
220.008	40.81
220.387	45.67
220.766	32.58
221.144	39.06
221.523	-7.52
221.902	-14.34
222.28	-17.51
222.659	-14.16
223.037	-21.93
223.416	-24.16
223.794	-14.6
224.173	-12.36
224.551	-4.96
224.929	-2.97
225.308	-1.97
225.686	-1.86
226.064	2.96
226.442	7.54
226.821	13.32
227.199	13.3
227.577	10.21
227.955	13.2
228.333	7.74
228.711	10.53
229.089	9.94
229.467	13.51
229.845	13.49
230.222	14.78
230.6	15.56
230.978	14.82
231.356	17.47
231.733	16.02
232.111	15.01
232.488	12.96
232.866	12.37
233.243	12.02
233.621	11.14
233.998	10.46
234.376	6.85
234.753	5.88
235.13	3.73
235.508	2.09
235.885	1.61
236.262	2.13
236.639	0.73
237.016	0.52
237.393	1.48
237.77	2.7
238.147	2.97
238.524	2.35
238.901	3.42
239.278	3.32
239.655	3.58
240.032	4.05
240.409	4.01
240.785	4.55
241.162	5.33
241.539	5.42
241.915	5.28
242.292	5.36
242.668	5.21
243.045	5.84
243.421	5.79
243.798	5.48
244.174	5.66
244.551	5.53
244.927	5.54
245.303	5.49
245.679	5.25
246.056	5.21
246.432	5.27
246.808	5.11
247.184	4.69
247.56	4.45
247.936	4.3
248.312	4.39
248.688	4.29
249.064	3.9
249.44	3.84
249.815	3.73
250.191	3.88
250.567	4.07
250.943	3.92
251.318	4.09
251.694	4.25
252.069	4.04
252.445	4.14
252.82	3.94
253.196	3.59
253.571	3.68
253.947	3.75
254.322	3.7
254.697	3.52
255.073	3.64
255.448	3.71
255.823	3.56
256.198	3.45
256.573	3.57
256.948	3.7
257.323	3.9
257.698	4.08
258.073	4.11
258.448	4
258.823	4.05
259.198	3.96
259.573	3.93
259.948	3.97
260.322	3.97
260.697	4.07
261.072	4.06
261.446	4.06
261.821	3.89
262.195	4.04
262.57	4.18
262.944	4.1
263.319	4.21
263.693	4.36
264.067	4.38
264.442	4.39
264.816	4.48
265.19	4.33
265.564	4.36
265.938	4.09
266.313	4.18
266.687	4.16
267.061	4.15
267.435	4.31
267.809	4.35
268.183	4.53
268.556	4.36
268.93	4.64
269.304	4.68
269.678	4.76
270.051	4.71
270.425	4.65
270.799	4.64
271.172	4.5
271.546	4.54
271.919	4.5
272.293	4.42
272.666	4.43
273.04	4.55
273.413	4.56
273.787	4.8
274.16	4.73
274.533	4.82
274.906	4.8
275.279	4.68
275.653	4.56
276.026	4.39
276.399	4.43
276.772	4.31
277.145	4.12
277.518	4.16
277.891	3.96
278.263	3.95
278.636	4.23
279.009	4.36
279.382	4.56
279.755	4.52
280.127	4.58
280.5	4.67
280.872	4.76
281.245	4.63
281.617	4.59
281.99	4.61
282.362	4.62
282.735	4.36
283.107	4.24
283.479	4.32
283.852	4.41
284.224	4.39
284.596	4.38
284.968	4.56
285.34	4.6
285.713	4.7
286.085	4.75
286.457	4.69
286.829	4.61
287.201	4.51
287.572	4.47
287.944	4.45
288.316	4.49
288.688	4.35
289.06	4.27
289.431	4.19
289.803	4.21
290.175	4.1
290.546	4.44
290.918	4.46
291.289	4.42
291.661	4.4
292.032	4.47
292.403	4.43
292.775	4.36
293.146	4.31
293.517	4.27
293.889	4.33
294.26	4.3
294.631	4.36
295.002	4.24
295.373	4.28
295.744	4.25
296.115	4.15
296.486	4.16
296.857	4.25
297.228	4.32
297.599	4.32
297.97	4.41
298.34	4.36
298.711	4.45
299.082	4.55
299.452	4.65
299.823	4.67
300.194	4.63
300.564	4.6
300.935	4.66
301.305	4.53
301.676	4.41
302.046	4.46
302.416	4.65
302.787	4.73
303.157	4.74
303.527	4.78
303.897	4.62
304.267	4.79
304.637	4.83
305.008	4.93
305.378	4.93
305.748	4.92
306.117	4.87
306.487	4.87
306.857	4.83
307.227	4.73
307.597	4.85
307.967	4.96
308.336	4.94
308.706	4.85
309.076	5.08
309.445	5.18
309.815	5.16
310.184	5.09
310.554	5.11
310.923	5.12
311.293	5.19
311.662	5.22
312.031	5.05
312.401	5.06
312.77	5.11
313.139	5.1
313.508	5.05
313.877	5.19
314.246	5.14
314.616	5.08
314.985	5.04
315.353	4.89
315.722	5.03
316.091	5.1
316.46	5.03
316.829	4.96
317.198	4.93
317.567	4.82
317.935	4.71
318.304	4.75
318.672	4.78
319.041	4.7
319.41	4.89
319.778	4.93
320.147	4.89
320.515	4.85
320.883	4.87
321.252	4.89
321.62	4.88
321.988	4.9
322.357	4.91
322.725	4.88
323.093	4.93
323.461	4.95
323.829	5.03
324.197	5.15
324.565	5.26
324.933	5.35
325.301	5.57
325.669	5.69
326.037	5.7
326.405	5.72
326.772	5.83
327.14	5.86
327.508	5.89
327.875	5.8
328.243	5.73
328.61	5.87
328.978	6.02
329.346	6.01
329.713	6.03
330.08	6.26
330.448	6.32
330.815	6.23
331.182	6.13
331.55	6.04
331.917	6.07
332.284	6.21
332.651	6.13
333.018	6.02
333.385	6
333.752	6.01
334.119	6.03
334.486	5.9
334.853	5.72
335.22	5.71
335.587	5.89
335.954	5.87
336.32	5.76
336.687	5.75
337.054	5.69
337.42	5.72
337.787	5.68
338.153	5.8
338.52	5.99
338.886	5.9
339.253	5.88
339.619	5.88
339.986	5.63
340.352	5.67
340.718	5.67
341.084	5.62
341.451	5.6
341.817	5.67
342.183	5.78
342.549	5.8
342.915	5.76
343.281	5.72
343.647	5.79
344.013	5.72
344.379	5.62
344.745	5.57
345.11	5.62
345.476	5.6
345.842	5.55
346.208	5.51
346.573	5.61
346.939	5.84
347.304	5.8
347.67	5.88
348.035	5.92
348.401	5.89
348.766	5.86
349.132	5.89
349.497	5.83
349.862	5.84
350.228	6
350.593	5.99
350.958	6
351.323	5.93
351.688	6.02
352.053	6.06
352.418	6.1
352.783	6.16
353.148	6.1
353.513	6.08
353.878	6.06
354.243	6.03
354.608	5.86
354.972	5.84
355.337	5.86
355.702	5.9
356.066	5.96
356.431	5.95
356.795	5.92
357.16	5.93
357.524	5.82
357.889	5.66
358.253	5.75
358.618	5.78
358.982	5.8
359.346	5.8
359.71	5.75
360.075	5.79
360.439	5.67
360.803	5.64
361.167	5.71
361.531	5.69
361.895	5.67
362.259	5.63
362.623	5.65
362.987	5.61
363.351	5.59
363.714	5.6
364.078	5.56
364.442	5.55
364.806	5.56
365.169	5.59
365.533	5.68
365.896	5.62
366.26	5.53
366.623	5.48
366.987	5.44
367.35	5.48
367.714	5.48
368.077	5.53
368.44	5.64
368.803	5.56
369.167	5.6
369.53	5.63
369.893	5.75
370.256	5.78
370.619	5.79
370.982	5.81
371.345	5.8
371.708	5.82
372.071	5.79
372.434	5.8
372.797	5.84
373.159	5.83
373.522	5.86
373.885	5.9
374.247	5.89
374.61	5.93
374.973	5.85
375.335	5.84
375.698	5.86
376.06	5.7
376.423	5.68
376.785	5.67
377.147	5.63
377.51	5.6
377.872	5.6
378.234	5.59
378.596	5.53
378.958	5.41
379.321	5.4
379.683	5.4
380.045	5.38
380.407	5.32
380.769	5.32
381.13	5.19
381.492	5.14
381.854	5.14
382.216	5.11
382.578	5.17
382.939	5.09
383.301	5.02
383.663	5.03
384.024	5
384.386	5.02
384.747	5
385.109	4.94
385.47	4.92
385.832	4.89
386.193	4.87
386.554	4.88
386.916	4.86
387.277	4.86
387.638	4.84
387.999	4.81
388.36	4.8
388.721	4.87
389.082	4.88
389.443	4.85
389.804	4.81
390.165	4.78
390.526	4.81
390.887	4.81
391.248	4.84
391.609	4.83
391.969	4.76
392.33	4.72
392.691	4.72
393.051	4.68
393.412	4.69
393.772	4.67
394.133	4.69
394.493	4.65
394.854	4.64
395.214	4.59
395.574	4.6
395.935	4.57
396.295	4.58
396.655	4.54
397.015	4.52
397.376	4.5
397.736	4.47
398.096	4.42
398.456	4.41
398.816	4.36
399.176	4.3
399.535	4.28
399.895	4.27
400.255	4.25
400.615	4.23
400.975	4.21
401.334	4.17
401.694	4.15
402.054	4.15
402.413	4.14
402.773	4.14
403.132	4.11
403.492	4.08
403.851	4.02
404.211	4
404.57	4
404.929	4.03
405.288	4
405.648	3.99
406.007	3.97
406.366	3.99
406.725	4.02
407.084	4.03
407.443	4.04
407.802	4.05
408.161	4.06
408.52	4.06
408.879	4.07
409.238	4.06
409.596	4.06
409.955	4.02
410.314	4.03
410.673	4.01
411.031	4
411.39	4
411.748	4
412.107	4.01
412.465	3.97
412.824	3.95
413.182	3.94
413.54	3.94
413.899	3.9
414.257	3.91
414.615	3.86
414.974	3.85
415.332	3.8
415.69	3.75
416.048	3.72
416.406	3.7
416.764	3.68
417.122	3.67
417.48	3.65
417.838	3.62
418.195	3.6
418.553	3.61
418.911	3.61
419.269	3.61
419.626	3.57
419.984	3.57
420.342	3.58
420.699	3.58
421.057	3.56
421.414	3.56
421.772	3.52
422.129	3.54
422.486	3.53
422.844	3.53
423.201	3.53
423.558	3.52
423.915	3.53
424.273	3.52
424.63	3.51
424.987	3.52
425.344	3.51
425.701	3.5
426.058	3.49
426.415	3.47
426.772	3.47
427.128	3.46
427.485	3.46
427.842	3.45
428.199	3.43
428.555	3.42
428.912	3.43
429.269	3.45
429.625	3.43
429.982	3.45
430.338	3.44
430.695	3.45
431.051	3.43
431.407	3.42
431.764	3.42
432.12	3.42
432.476	3.43
432.832	3.45
433.189	3.46
433.545	3.44
433.901	3.45
434.257	3.45
434.613	3.47
434.969	3.47
435.325	3.47
435.681	3.47
436.036	3.48
436.392	3.47
436.748	3.46
437.104	3.45
437.459	3.42
437.815	3.42
438.171	3.42
438.526	3.44
438.882	3.43
439.237	3.45
439.593	3.46
439.948	3.44
440.304	3.43
440.659	3.42
441.014	3.42
441.369	3.4
441.725	3.38
442.08	3.37
442.435	3.36
442.79	3.36
443.145	3.36
443.5	3.34
443.855	3.34
444.21	3.32
444.565	3.33
444.92	3.33
445.275	3.32
445.629	3.31
445.984	3.3
446.339	3.29
446.693	3.26
447.048	3.25
447.403	3.25
447.757	3.25
448.112	3.25
448.466	3.27
448.82	3.28
449.175	3.3
449.529	3.31
449.883	3.29
450.238	3.28
450.592	3.28
450.946	3.27
451.3	3.26
451.654	3.26
452.008	3.24
452.362	3.22
452.716	3.23
453.07	3.24
453.424	3.26
453.778	3.28
454.132	3.29
454.486	3.28
454.839	3.29
455.193	3.27
455.547	3.26
455.9	3.26
456.254	3.24
456.607	3.22
456.961	3.25
457.314	3.25
457.668	3.26
458.021	3.26
458.375	3.28
458.728	3.29
459.081	3.29
459.434	3.29
459.787	3.31
460.141	3.31
460.494	3.3
460.847	3.31
461.2	3.3
461.553	3.31
461.906	3.33
462.259	3.32
462.611	3.35
462.964	3.37
463.317	3.38
463.67	3.39
464.022	3.41
464.375	3.38
464.728	3.39
465.08	3.38
465.433	3.39
465.785	3.39
466.138	3.39
466.49	3.4
466.843	3.45
467.195	3.44
467.547	3.45
467.899	3.46
468.252	3.44
468.604	3.44
468.956	3.43
469.308	3.45
469.66	3.46
470.012	3.45
470.364	3.44
470.716	3.44
471.068	3.45
471.42	3.45
471.772	3.47
472.123	3.49
472.475	3.52
472.827	3.52
473.178	3.55
473.53	3.53
473.882	3.53
474.233	3.53
474.585	3.51
474.936	3.5
475.288	3.49
475.639	3.5
475.99	3.51
476.342	3.52
476.693	3.5
477.044	3.51
477.395	3.5
477.746	3.49
478.097	3.48
478.448	3.47
478.8	3.45
479.15	3.42
479.501	3.4
479.852	3.39
480.203	3.39
480.554	3.41
480.905	3.42
481.255	3.43
481.606	3.42
481.957	3.43
482.307	3.43
482.658	3.44
483.009	3.44
483.359	3.45
483.709	3.45
484.06	3.45
484.41	3.45
484.761	3.45
485.111	3.45
485.461	3.46
485.811	3.47
486.162	3.47
486.512	3.49
486.862	3.5
487.212	3.5
487.562	3.51
487.912	3.49
488.262	3.48
488.612	3.48
488.961	3.48
489.311	3.49
489.661	3.5
490.011	3.5
490.36	3.5
490.71	3.5
491.06	3.5
491.409	3.49
491.759	3.49
492.108	3.49
492.458	3.5
492.807	3.51
493.157	3.5
493.506	3.5
493.855	3.49
494.204	3.49
494.554	3.5
494.903	3.5
495.252	3.51
495.601	3.53
495.95	3.56
496.299	3.57
496.648	3.55
496.997	3.55
497.346	3.59
497.695	3.6
498.043	3.62
498.392	3.63
498.741	3.67
499.09	3.68
499.438	3.7
499.787	3.74
500.135	3.75
500.484	3.77
500.832	3.79
501.181	3.83
501.529	3.85
501.878	3.88
502.226	3.89
502.574	3.92
502.923	3.94
503.271	3.95
503.619	3.98
503.967	4.05
504.315	4.09
504.663	4.09
505.011	4.14
505.359	4.16
505.707	4.2
506.055	4.22
506.403	4.26
506.751	4.31
507.098	4.33
507.446	4.37
507.794	4.41
508.141	4.44
508.489	4.48
508.837	4.53
509.184	4.57
509.531	4.61
509.879	4.67
510.226	4.73
510.574	4.78
510.921	4.81
511.268	4.82
511.616	4.87
511.963	4.93
512.31	4.96
512.657	5.01
513.004	5.07
513.351	5.11
513.698	5.17
514.045	5.2
514.392	5.27
514.739	5.33
515.086	5.39
515.432	5.46
515.779	5.5
516.126	5.56
516.473	5.6
516.819	5.65
517.166	5.67
517.512	5.7
517.859	5.76
518.205	5.82
518.552	5.88
518.898	5.92
519.245	5.96
519.591	6.02
519.937	6.06
520.283	6.12
520.629	6.17
520.976	6.22
521.322	6.31
521.668	6.34
522.014	6.41
522.36	6.47
522.706	6.55
523.052	6.64
523.398	6.72
523.743	6.81
524.089	6.94
524.435	7.04
524.781	7.12
525.126	7.21
525.472	7.27
525.817	7.35
526.163	7.4
526.509	7.47
526.854	7.53
527.199	7.6
527.545	7.65
527.89	7.72
528.235	7.79
528.581	7.84
528.926	7.91
529.271	7.99
529.616	8.04
529.961	8.11
530.306	8.18
530.651	8.25
530.996	8.33
531.341	8.39
531.686	8.48
532.031	8.57
532.376	8.66
532.721	8.78
533.065	8.87
533.41	8.97
533.755	9.07
534.099	9.19
534.444	9.31
534.788	9.44
535.133	9.55
535.477	9.67
535.822	9.81
536.166	9.96
536.51	10.11
536.855	10.28
537.199	10.46
537.543	10.63
537.887	10.82
538.231	11.01
538.576	11.21
538.92	11.39
539.264	11.57
539.608	11.71
539.951	11.86
540.295	12.05
540.639	12.22
540.983	12.37
541.327	12.52
541.671	12.65
542.014	12.81
542.358	12.97
542.701	13.14
543.045	13.28
543.389	13.42
543.732	13.57
544.075	13.73
544.419	13.89
544.762	14.06
545.105	14.25
545.449	14.44
545.792	14.63
546.135	14.84
546.478	15.07
546.821	15.31
547.165	15.53
547.508	15.76
547.851	15.98
548.194	16.25
548.536	16.46
548.879	16.74
549.222	16.98
549.565	17.23
549.908	17.48
550.25	17.76
550.593	18.04
550.936	18.3
551.278	18.56
551.621	18.84
551.963	19.14
552.306	19.4
552.648	19.65
552.991	19.95
553.333	20.19
553.675	20.47
554.017	20.7
554.36	20.99
554.702	21.25
555.044	21.53
555.386	21.77
555.728	22.09
556.07	22.3
556.412	22.56
556.754	22.81
557.096	23.05
557.438	23.32
557.78	23.63
558.121	23.92
558.463	24.2
558.805	24.46
559.147	24.71
559.488	24.99
559.83	25.24
560.171	25.47
560.513	25.75
560.854	26.03
561.196	26.28
561.537	26.52
561.878	26.69
562.22	26.9
562.561	27.14
562.902	27.34
563.243	27.62
563.584	27.8
563.925	27.98
564.266	28.21
564.607	28.43
564.948	28.61
565.289	28.84
565.63	29.05
565.971	29.28
566.312	29.47
566.653	29.65
566.993	29.84
567.334	30.05
567.675	30.21
568.015	30.36
568.356	30.56
568.696	30.71
569.037	30.93
569.377	31.12
569.718	31.32
570.058	31.54
570.398	31.72
570.739	32.01
571.079	32.22
571.419	32.42
571.759	32.62
572.099	32.8
572.439	32.98
572.779	33.14
573.119	33.34
573.459	33.55
573.799	33.75
574.139	33.87
574.479	34
574.819	34.18
575.158	34.34
575.498	34.5
575.838	34.76
576.177	34.92
576.517	35.16
576.856	35.29
577.196	35.49
577.535	35.66
577.875	35.76
578.214	35.93
578.553	36.13
578.893	36.25
579.232	36.38
579.571	36.48
579.91	36.69
580.25	36.8
580.589	36.9
580.928	37.04
581.267	37.26
581.606	37.4
581.945	37.54
582.283	37.67
582.622	37.84
582.961	37.93
583.3	38.08
583.639	38.17
583.977	38.36
584.316	38.48
584.654	38.59
584.993	38.79
585.332	38.94
585.67	39.05
586.008	39.19
586.347	39.42
586.685	39.6
587.024	39.72
587.362	39.84
587.7	39.95
588.038	40.09
588.376	40.19
588.715	40.39
589.053	40.52
589.391	40.63
589.729	40.68
590.067	40.73
590.404	40.86
590.742	40.98
591.08	41.06
591.418	41.17
591.756	41.27
592.093	41.35
592.431	41.46
592.769	41.58
593.106	41.72
593.444	41.7
593.781	41.84
594.119	41.92
594.456	42.04
594.793	42.17
595.131	42.2
595.468	42.3
595.805	42.33
596.143	42.4
596.48	42.49
596.817	42.62
597.154	42.79
597.491	42.87
597.828	42.94
598.165	43.04
598.502	43.12
598.839	43.21
599.176	43.33
599.512	43.4
599.849	43.48
600.186	43.56
600.523	43.64
600.859	43.67
601.196	43.79
601.532	43.87
601.869	43.91
602.205	44.03
602.542	44.16
602.878	44.25
603.215	44.27
603.551	44.34
603.887	44.38
604.223	44.4
604.56	44.44
604.896	44.47
605.232	44.53
605.568	44.63
605.904	44.69
606.24	44.68
606.576	44.75
606.912	44.76
607.248	44.8
607.583	44.93
607.919	44.93
608.255	44.97
608.591	44.99
608.926	45.11
609.262	45.22
609.597	45.22
609.933	45.24
610.268	45.37
610.604	45.45
610.939	45.54
611.275	45.58
611.61	45.68
611.945	45.83
612.281	45.89
612.616	45.87
612.951	45.92
613.286	46
613.621	46.18
613.956	46.25
614.291	46.28
614.626	46.37
614.961	46.48
615.296	46.41
615.631	46.5
615.966	46.5
616.3	46.55
616.635	46.6
616.97	46.73
617.304	46.76
617.639	46.77
617.973	46.86
618.308	46.91
618.642	46.95
618.977	46.95
619.311	46.99
619.646	47.04
619.98	47.11
620.314	47.25
620.648	47.16
620.983	47.24
621.317	47.33
621.651	47.39
621.985	47.54
622.319	47.63
622.653	47.65
622.987	47.59
623.321	47.62
623.655	47.66
623.988	47.73
624.322	47.75
624.656	47.81
624.99	47.82
625.323	47.83
625.657	47.86
625.99	47.94
626.324	47.98
626.657	47.99
626.991	48
627.324	47.92
627.658	48
627.991	48.13
628.324	48.25
628.657	48.29
628.991	48.31
629.324	48.45
629.657	48.54
629.99	48.71
630.323	48.65
630.656	48.75
630.989	48.82
631.322	48.87
631.655	48.89
631.987	48.89
632.32	49.08
632.653	49.09
632.986	49.1
633.318	49.21
633.651	49.27
633.984	49.38
634.316	49.51
634.649	49.52
634.981	49.49
635.313	49.47
635.646	49.51
635.978	49.5
636.31	49.48
636.643	49.49
636.975	49.51
637.307	49.61
637.639	49.54
637.971	49.47
638.303	49.54
638.635	49.64
638.967	49.77
639.299	49.63
639.631	49.67
639.963	49.69
640.295	49.7
640.626	49.73
640.958	49.76
641.29	49.72
641.621	49.87
641.953	49.88
642.285	49.93
642.616	49.91
642.948	49.95
643.279	49.96
643.61	50
643.942	49.99
644.273	50.01
644.604	50.11
644.936	50.16
645.267	50.13
645.598	50.24
645.929	50.22
646.26	50.37
646.591	50.42
646.922	50.47
647.253	50.41
647.584	50.58
647.915	50.48
648.245	50.61
648.576	50.5
648.907	50.44
649.238	50.5
649.568	50.51
649.899	50.55
650.229	50.69
650.56	50.68
650.89	50.74
651.221	50.7
651.551	50.64
651.882	50.6
652.212	50.58
652.542	50.46
652.872	50.42
653.203	50.45
653.533	50.47
653.863	50.39
654.193	50.54
654.523	50.48
654.853	50.6
655.183	50.58
655.513	50.61
655.843	50.67
656.172	50.73
656.502	50.72
656.832	50.69
657.162	50.74
657.491	50.77
657.821	50.84
658.15	50.93
658.48	51.1
658.809	51.23
659.139	51.33
659.468	51.43
659.798	51.54
660.127	51.53
660.456	51.65
660.785	51.87
661.115	51.84
661.444	52
661.773	51.96
662.102	51.95
662.431	52.06
662.76	52.16
663.089	52.02
663.418	52.06
663.747	52.13
664.076	52.15
664.404	52.22
664.733	52.28
665.062	52.43
665.39	52.39
665.719	52.34
666.048	52.26
666.376	52.28
666.705	52.28
667.033	52.43
667.362	52.47
667.69	52.49
668.018	52.53
668.347	52.52
668.675	52.71
669.003	52.79
669.331	52.86
669.659	52.91
669.987	53.08
670.315	53.18
670.643	53.19
670.971	53.14
671.299	53.17
671.627	53.12
671.955	53.06
672.283	53.19
672.61	53.25
672.938	53.5
673.266	53.48
673.593	53.59
673.921	53.4
674.249	53.38
674.576	53.34
674.904	53.35
675.231	53.26
675.558	53.26
675.886	53.29
676.213	53.14
676.54	53.16
676.867	53.2
677.195	53.19
677.522	53.36
677.849	53.38
678.176	53.36
678.503	53.36
678.83	53.26
679.157	53.14
679.484	53.16
679.81	53.23
680.137	53.28
680.464	53.34
680.791	53.41
681.117	53.41
681.444	53.34
681.771	53.3
682.097	53.3
682.424	53.34
682.75	53.36
683.077	53.51
683.403	53.46
683.729	53.49
684.056	53.68
684.382	53.65
684.708	53.67
685.034	53.75
685.36	53.79
685.686	53.86
686.012	53.87
686.339	53.85
686.664	53.65
686.99	53.64
687.316	53.61
687.642	53.6
687.968	53.62
688.294	53.62
688.619	53.72
688.945	53.74
689.271	53.57
689.596	53.45
689.922	53.31
690.247	53.41
690.573	53.43
690.898	53.28
691.224	53.24
691.549	53.22
691.874	53.13
692.2	53.18
692.525	53.39
692.85	53.55
693.175	53.68
693.5	53.76
693.825	53.7
694.15	53.64
694.475	53.87
694.8	53.86
695.125	53.95
695.45	53.96
695.775	54.08
696.099	54.23
696.424	54.46
696.749	54.56
697.073	54.42
697.398	54.36
697.723	54.36
698.047	54.42
698.372	54.47
698.696	54.54
699.02	54.63
699.345	54.5
699.669	54.52
699.993	54.6
700.318	54.6
700.642	54.72
700.966	54.81
701.29	54.69
701.614	54.64
701.938	54.69
702.262	54.72
702.586	54.73
702.91	54.69
703.234	54.52
703.557	54.39
703.881	54.51
704.205	54.57
704.529	54.63
704.852	54.4
705.176	54.42
705.499	54.49
705.823	54.41
706.146	54.51
706.47	54.6
706.793	54.49
707.117	54.57
707.44	54.47
707.763	54.34
708.086	54.38
708.409	54.51
708.733	54.52
709.056	54.45
709.379	54.35
709.702	54.35
710.025	54.46
710.348	54.66
710.671	54.58
710.993	54.65
711.316	54.66
711.639	54.82
711.962	54.78
712.284	54.72
712.607	54.71
712.93	54.71
713.252	54.59
713.575	54.45
713.897	54.41
714.22	54.54
714.542	54.64
714.864	54.61
715.187	54.59
715.509	54.76
715.831	54.93
716.153	55.06
716.475	54.88
716.798	54.96
717.12	54.89
717.442	54.95
717.764	55.02
718.085	55.2
718.407	55.37
718.729	55.42
719.051	55.53
719.373	55.61
719.695	55.43
720.016	55.69
720.338	55.87
720.659	56.02
720.981	56.07
721.302	56.06
721.624	56.17
721.945	56.34
722.267	56.18
722.588	56.24
722.909	56.16
723.231	56.45
723.552	56.41
723.873	56.65
724.194	56.73
724.515	56.72
724.836	56.55
725.157	56.42
725.478	56.34
725.799	56.18
726.12	56.04
726.441	56.24
726.762	56.06
727.083	56.07
727.403	56.09
727.724	55.96
728.045	55.87
728.365	55.83
728.686	55.77
729.006	55.75
729.327	55.71
729.647	55.67
729.967	55.67
730.288	55.86
730.608	55.61
730.928	55.72
731.249	55.68
731.569	55.61
731.889	55.55
732.209	55.65
732.529	55.88
732.849	55.95
733.169	56.22
733.489	56.04
733.809	56.18
734.129	56.1
734.448	56.16
734.768	56.31
735.088	56.22
735.408	56.26
735.727	56.24
736.047	56.27
736.366	56.26
736.686	56.28
737.005	56.13
737.325	56.41
737.644	56.35
737.963	56.12
738.283	56.13
738.602	56.41
738.921	56.44
739.24	56.54
739.56	56.54
739.879	56.5
740.198	56.57
740.517	56.45
740.836	56.59
741.155	56.57
741.473	56.62
741.792	56.66
742.111	56.77
742.43	57
742.748	56.97
743.067	57.16
743.386	56.97
743.704	57.15
744.023	57.15
744.341	57.35
744.66	57.57
744.978	57.53
745.297	57.31
745.615	57.48
745.933	57.24
746.252	57.43
746.57	57.13
746.888	57.38
747.206	57.36
747.524	57.41
747.842	57.81
748.16	57.54
748.478	57.94
748.796	57.76
749.114	57.48
749.432	57.59
749.749	57.68
750.067	57.85
750.385	57.65
750.703	57.64
751.02	57.34
751.338	57.41
751.655	57.65
751.973	57.76
752.29	57.65
752.608	57.68
752.925	57.76
753.242	57.74
753.56	57.54
753.877	57.57
754.194	57.39
754.511	57.01
754.828	57.41
755.145	57.12
755.462	57.31
755.779	57.62
756.096	57.71
756.413	57.31
756.73	57.57
757.047	57.49
757.364	57.32
757.68	57.41
757.997	57.58
758.314	57.32
758.63	57.44
758.947	57.6
759.264	57.39
759.58	57.15
759.896	57.17
760.213	57.63
760.529	57.87
760.846	57.91
761.162	57.87
761.478	57.75
761.794	57.9
762.11	57.86
762.426	57.78
762.743	57.69
763.059	57.83
763.375	57.88
763.69	58.09
764.006	58.3
764.322	58.51
764.638	58.66
764.954	58.76
765.27	58.43
765.585	58.31
765.901	58.3
766.216	58.37
766.532	58.37
766.848	58.4
767.163	58.31
767.478	58.24
767.794	58.32
768.109	58.55
768.424	58.33
768.74	58.24
769.055	57.98
769.37	57.98
769.685	58.06
770	57.95
770.315	58.06
770.63	57.86
770.945	57.73
771.26	57.35
771.575	57.55
771.89	57.85
772.205	57.65
772.52	58.3
772.834	57.92
773.149	57.97
773.464	57.71
773.778	57.9
774.093	58.2
774.407	58.16
774.722	58.02
775.036	58.15
775.351	58.11
775.665	58.22
775.979	58.07
776.293	58.65
776.608	58.49
776.922	57.96
777.236	58.05
777.55	58.24
777.864	58.24
778.178	58.38
778.492	58.79
778.806	59.32
779.12	59.44
779.434	60.3
779.747	60.49
780.061	60.38
780.375	60.33
780.689	60.31
781.002	60.24
781.316	59.86
781.629	60.41
781.943	60.94
782.256	61.45
782.57	61.51
782.883	61.04
783.196	60.63
783.51	60.71
783.823	60.74
784.136	61.12
784.449	61.18
784.762	60.74
785.075	60.17
785.388	59.8
785.701	59.22
786.014	58.64
786.327	58.83
786.64	58.68
786.953	57.98
787.266	57.93
787.578	57.93
787.891	58.2
788.204	57.26
788.516	56.68
788.829	56.79
789.141	57.23
789.454	56.89
789.766	57.91
790.079	58.35
790.391	58.32
790.703	57.88
791.016	57.61
791.328	58.03
791.64	58.06
791.952	58.03
792.264	57.83
792.576	58.04
792.888	58.21
793.2	58.74
793.512	59.27
793.824	58.62
794.136	59.26
794.448	59.24
794.76	60.06
795.071	60.31
795.383	59.74
795.695	59.25
796.006	59.4
796.318	59.04
796.629	58.96
796.941	58.71
797.252	58.76
797.564	58.94
797.875	58.24
798.186	58.73
798.497	59.21
798.809	59.38
799.12	59.24
799.431	59.17
799.742	58.75
800.053	58.94
800.364	59.33
800.675	59.3
800.986	59.23
801.297	58.74
801.608	59.4
801.918	59.73
802.229	59.82
802.54	59.96
802.851	59.74
803.161	59.73
803.472	59.7
803.782	59.76
804.093	59.86
804.403	60.5
804.714	59.98
805.024	58.77
805.334	58.91
805.645	60.07
805.955	60.03
806.265	60.15
806.575	59.86
806.885	60.36
807.195	60.29
807.505	60.05
807.815	60.15
808.125	60.08
808.435	59.71
808.745	60.2
809.055	59.98
809.365	59.85
809.674	59.52
809.984	60.37
810.294	59.85
810.603	60.12
810.913	60.63
811.222	60.07
811.532	61.17
811.841	61.49
812.151	60.86
812.46	61.04
812.769	61.05
813.079	61.01
813.388	60.68
813.697	60.94
814.006	61.04
814.315	60.98
814.624	60.95
814.933	60.89
815.242	60.85
815.551	61.02
815.86	61.03
816.169	60.83
816.478	60.22
816.786	60.48
817.095	60.46
817.404	59.53
817.712	60.61
818.021	60.87
818.33	60.71
818.638	60
818.947	59.2
819.255	59.39
819.563	59.59
819.872	58.95
820.18	59.01
820.488	58.74
820.796	59.27
821.105	58.81
821.413	58.85
821.721	58.45
822.029	58.48
822.337	58.54
822.645	58.78
822.953	58.84
823.26	58.95
823.568	58.89
823.876	59.07
824.184	58.95
824.491	58.7
824.799	58.56
825.107	58.72
825.414	58.93
825.722	58.99
826.029	59.02
826.337	59.51
826.644	59.44
826.951	59.73
827.259	59.49
827.566	59.64
827.873	59.63
828.18	59.81
828.488	60.1
828.795	60.28
829.102	60.19
829.409	60.34
829.716	60.07
830.023	60.35
830.329	60.05
830.636	60.5
830.943	60.81
831.25	60.81
831.557	60.99
831.863	60.55
832.17	60.63
832.476	60.31
832.783	59.88
833.089	59.69
833.396	59.38
833.702	60.04
834.009	60.64
834.315	60.87
834.621	61.38
834.928	60.83
835.234	61.02
835.54	60.91
835.846	60.45
836.152	60.92
836.458	60.49
836.764	60.8
837.07	60.63
837.376	60.23
837.682	60.76
837.988	60.59
838.293	60.21
838.599	59.85
838.905	60.47
839.211	60.84
839.516	60.9
839.822	61.98
840.127	60.02
840.433	58.67
840.738	58.84
841.044	58.8
841.349	58.72
841.654	58.47
841.959	58.18
842.265	57.96
842.57	56.94
842.875	56.8
843.18	56.39
843.485	56.1
843.79	58.3
844.095	57.9
844.4	58.1
844.705	60.3
845.01	59.06
845.315	58.96
845.619	56.64
845.924	56.41
846.229	54.47
846.533	55.89
846.838	56.81
847.142	55.96
847.447	54.83
847.751	56.6
848.056	55.47
848.36	56.14
848.664	57.12
848.969	58.68
849.273	58.86
849.577	59.27
849.881	59.63
850.185	59.04
850.489	58.96
850.794	58.53
851.097	58.71
851.401	59.79
851.705	58.55
852.009	62.71
852.313	65.04
852.617	65.96
852.92	65.31
853.224	65.31
853.528	66.38
853.831	68.09
854.135	68.64
854.438	69.18
854.742	67.39
855.045	70.29
855.349	70.43
855.652	71.58
855.955	71.27
856.259	70.63
856.562	67.76
856.865	69.88
857.168	69.9
857.471	68.02
857.774	67.64
858.077	70.01
858.38	69.68
858.683	69.3
858.986	71.43
859.289	72.58
859.592	71.05
859.894	69.57
860.197	68.58
860.5	65.68
860.802	65.54
861.105	68.66
861.407	66.39
861.71	66.12
862.012	67.57
862.315	69.19
862.617	66.73
862.919	66.23
863.222	65.58
863.524	65.92
863.826	65.46
864.128	64.85
864.43	62.6
864.732	62.74
865.034	62.1
865.336	61.14
865.638	63.43
865.94	66.97
866.242	66.15
866.544	66.82
866.846	67.56
867.147	67.73
867.449	65.2
867.751	65.21
868.052	64.62
868.354	60.26
868.655	56.98
868.957	58.98
869.258	62.69
869.56	61.52
869.861	61.81
870.162	61.7
870.463	63.07
870.765	61.11
871.066	62.25
871.367	60.62
871.668	60.87
871.969	57.48
872.27	55.81
872.571	56.96
872.872	58.66
873.173	59.32
873.473	60.55
873.774	61.45
874.075	58.73
874.376	58.22
874.676	61.27
874.977	62.76
875.277	63.18
875.578	62.08
875.878	62.37
876.179	60.97
876.479	62.21
876.78	61.99
877.08	65.1
877.38	62.31
877.68	63.37
877.981	62.55
878.281	64.03
878.581	63.6
