Data from BA28308_Reflection_00013.txt Node
Date: Mon Nov 18 15:39:09 EST 2019
User: vgr7
Spectrometer: USB2G7710
Scans to average: 3
Trigger mode: 4
Integration Time (sec): 2.000000E-2
Electric dark correction enabled: true
Boxcar width: 10
XAxis mode: Wavelengths
Number of Pixels in Spectrum: 2048
>>>>>Begin Spectral Data<<<<<
177.721	-15.78
178.105	-5.26
178.488	86.05
178.871	105.57
179.254	128.38
179.636	28.57
180.019	93.51
180.402	105.88
180.785	80.96
181.168	33.95
181.55	98.01
181.933	84.42
182.316	76.13
182.698	70.08
183.081	67.56
183.463	57.56
183.846	92.96
184.228	99.45
184.611	80.41
184.993	107.98
185.376	121.44
185.758	224.84
186.14	541.53
186.522	465.13
186.904	452.57
187.287	484.43
187.669	566.42
188.051	927.68
188.433	-942.9
188.815	-256.48
189.197	-236
189.579	-262.78
189.961	-138.17
190.342	-148.41
190.724	-132.47
191.106	-119.89
191.488	-109.16
191.869	-102.66
192.251	-113.9
192.633	-125.9
193.014	-189.01
193.396	-253.91
193.777	-271.65
194.159	-282.51
194.54	-127.81
194.922	-122.54
195.303	-159.49
195.684	-148.35
196.065	-107.18
196.447	-114.15
196.828	-104.39
197.209	-102.05
197.59	-91.47
197.971	-132.88
198.352	-86.54
198.733	-171.55
199.114	-174.82
199.495	-151.29
199.876	-104.65
200.257	-106.31
200.638	-73.07
201.018	-111.95
201.399	-116.41
201.78	-117.76
202.16	-188.63
202.541	-314.26
202.922	-388.53
203.302	-280.38
203.683	-277.66
204.063	-596.89
204.444	-728.67
204.824	-770.4
205.204	-1887.23
205.585	-66614.29
205.965	8392.31
206.345	806.92
206.725	662.43
207.106	446.66
207.486	440.49
207.866	483.32
208.246	543.49
208.626	499.55
209.006	1358.23
209.386	892.48
209.766	958.35
210.145	829.55
210.525	-11062.16
210.905	-497.78
211.285	-1277.36
211.664	-1523.12
212.044	-808.43
212.424	-328.87
212.803	-320.6
213.183	-134.41
213.562	-94.61
213.942	-40.27
214.321	-31.77
214.701	-32.34
215.08	-42.4
215.459	-21.57
215.838	-9.63
216.218	-16.84
216.597	-11.01
216.976	-15.66
217.355	-10.09
217.734	-9.89
218.113	-2.97
218.492	-23.58
218.871	-52.18
219.25	-53.29
219.629	-56.04
220.008	-45.75
220.387	-31.47
220.766	-47.09
221.144	-105.07
221.523	-132.06
221.902	-229.71
222.28	-241.02
222.659	-218.59
223.037	-98.64
223.416	-102.71
223.794	-114.98
224.173	-83.01
224.551	-71.54
224.929	-68.21
225.308	-51.16
225.686	-46.58
226.064	-39.94
226.442	-29.59
226.821	-17.53
227.199	-15.75
227.577	-23.02
227.955	-23.69
228.333	-26.74
228.711	-21.72
229.089	-14.44
229.467	-13.4
229.845	-7.86
230.222	-7.83
230.6	-8.18
230.978	-9.26
231.356	-6.42
231.733	-5.3
232.111	-4.29
232.488	-3.5
232.866	-4.01
233.243	-2.66
233.621	-1.79
233.998	-1.38
234.376	-1.88
234.753	-1.93
235.13	-0.64
235.508	3.38
235.885	3.65
236.262	3.42
236.639	2.99
237.016	1.27
237.393	1.5
237.77	1.24
238.147	2.44
238.524	3.15
238.901	5.48
239.278	5.08
239.655	5.61
240.032	4.76
240.409	4.42
240.785	5.37
241.162	4.85
241.539	5.4
241.915	5.81
242.292	5.36
242.668	5.35
243.045	5.35
243.421	5.18
243.798	5.11
244.174	5.17
244.551	5.18
244.927	5.67
245.303	5.89
245.679	6.1
246.056	6.12
246.432	6.15
246.808	5.71
247.184	5.5
247.56	5.46
247.936	5.32
248.312	5.37
248.688	5.27
249.064	5.33
249.44	5.2
249.815	5.14
250.191	5.36
250.567	5.37
250.943	5.33
251.318	5.43
251.694	5.51
252.069	5.39
252.445	5.34
252.82	4.92
253.196	4.79
253.571	4.5
253.947	4.17
254.322	4.59
254.697	4.5
255.073	4.34
255.448	4.21
255.823	4.63
256.198	4.89
256.573	5.05
256.948	5.23
257.323	5.3
257.698	5.31
258.073	5.31
258.448	5.39
258.823	5.24
259.198	5.2
259.573	5.17
259.948	5.41
260.322	5.54
260.697	5.55
261.072	5.43
261.446	5.45
261.821	5.61
262.195	5.42
262.57	5.38
262.944	5.44
263.319	5.49
263.693	5.36
264.067	5.27
264.442	5.23
264.816	5.04
265.19	5.03
265.564	4.96
265.938	4.66
266.313	4.38
266.687	4.37
267.061	4.49
267.435	4.58
267.809	4.47
268.183	4.34
268.556	4.4
268.93	4.59
269.304	4.57
269.678	4.37
270.051	4.28
270.425	4.5
270.799	4.68
271.172	4.73
271.546	4.85
271.919	4.81
272.293	4.82
272.666	4.99
273.04	4.94
273.413	4.82
273.787	5.11
274.16	5.4
274.533	5.51
274.906	5.53
275.279	5.45
275.653	5.52
276.026	5.66
276.399	5.79
276.772	5.72
277.145	5.66
277.518	5.84
277.891	5.79
278.263	5.47
278.636	5.31
279.009	5.29
279.382	5.36
279.755	5.44
280.127	5.46
280.5	5.53
280.872	5.62
281.245	5.68
281.617	5.63
281.99	5.63
282.362	5.66
282.735	5.53
283.107	5.62
283.479	5.71
283.852	5.61
284.224	5.56
284.596	5.52
284.968	5.52
285.34	5.49
285.713	5.62
286.085	5.86
286.457	6.01
286.829	6.09
287.201	5.99
287.572	5.86
287.944	5.86
288.316	5.83
288.688	5.68
289.06	5.81
289.431	5.93
289.803	5.84
290.175	5.79
290.546	5.94
290.918	5.96
291.289	5.96
291.661	6.05
292.032	6.03
292.403	6.15
292.775	6.3
293.146	6.3
293.517	6.2
293.889	6.24
294.26	6.38
294.631	6.28
295.002	6.39
295.373	6.49
295.744	6.56
296.115	6.52
296.486	6.41
296.857	6.31
297.228	6.28
297.599	6.34
297.97	6.37
298.34	6.35
298.711	6.34
299.082	6.27
299.452	6.24
299.823	6.4
300.194	6.43
300.564	6.26
300.935	6.33
301.305	6.41
301.676	6.41
302.046	6.32
302.416	6.42
302.787	6.43
303.157	6.45
303.527	6.45
303.897	6.47
304.267	6.69
304.637	6.82
305.008	6.94
305.378	7.01
305.748	7.1
306.117	6.93
306.487	7.01
306.857	7.15
307.227	7.28
307.597	7.22
307.967	7.35
308.336	7.53
308.706	7.49
309.076	7.55
309.445	7.6
309.815	7.62
310.184	7.6
310.554	7.63
310.923	7.62
311.293	7.64
311.662	7.7
312.031	7.86
312.401	8.01
312.77	8.03
313.139	8.02
313.508	8.09
313.877	8.31
314.246	8.37
314.616	8.31
314.985	8.47
315.353	8.58
315.722	8.6
316.091	8.76
316.46	8.9
316.829	9.01
317.198	9.08
317.567	9.26
317.935	9.28
318.304	9.47
318.672	9.61
319.041	9.68
319.41	9.76
319.778	9.64
320.147	9.44
320.515	9.47
320.883	9.48
321.252	9.5
321.62	9.59
321.988	9.59
322.357	9.68
322.725	9.52
323.093	9.43
323.461	9.37
323.829	9.44
324.197	9.59
324.565	9.63
324.933	9.55
325.301	9.49
325.669	9.56
326.037	9.48
326.405	9.51
326.772	9.5
327.14	9.64
327.508	9.75
327.875	9.89
328.243	9.97
328.61	10.05
328.978	10.06
329.346	10.02
329.713	10.02
330.08	10.15
330.448	10.33
330.815	10.35
331.182	10.44
331.55	10.31
331.917	10.34
332.284	10.47
332.651	10.64
333.018	10.6
333.385	10.76
333.752	10.83
334.119	10.91
334.486	10.95
334.853	10.8
335.22	10.75
335.587	10.76
335.954	10.73
336.32	10.76
336.687	10.83
337.054	10.94
337.42	11.05
337.787	11.05
338.153	10.99
338.52	11.21
338.886	11.2
339.253	11.21
339.619	11.24
339.986	11.12
340.352	11.16
340.718	11.24
341.084	11.23
341.451	11.26
341.817	11.34
342.183	11.36
342.549	11.46
342.915	11.51
343.281	11.56
343.647	11.44
344.013	11.43
344.379	11.48
344.745	11.43
345.11	11.42
345.476	11.38
345.842	11.42
346.208	11.37
346.573	11.45
346.939	11.57
347.304	11.53
347.67	11.53
348.035	11.44
348.401	11.44
348.766	11.5
349.132	11.52
349.497	11.53
349.862	11.63
350.228	11.55
350.593	11.53
350.958	11.53
351.323	11.71
351.688	11.65
352.053	11.6
352.418	11.66
352.783	11.64
353.148	11.64
353.513	11.75
353.878	11.79
354.243	11.84
354.608	11.9
354.972	11.91
355.337	12.06
355.702	12.04
356.066	12.18
356.431	12.14
356.795	12.15
357.16	12.11
357.524	11.97
357.889	11.97
358.253	12.01
358.618	12.13
358.982	12.06
359.346	12.07
359.71	12.15
360.075	12.11
360.439	12.18
360.803	12.13
361.167	12.02
361.531	11.97
361.895	11.93
362.259	11.86
362.623	11.88
362.987	11.78
363.351	11.8
363.714	11.7
364.078	11.67
364.442	11.62
364.806	11.56
365.169	11.65
365.533	11.69
365.896	11.69
366.26	11.58
366.623	11.55
366.987	11.56
367.35	11.46
367.714	11.42
368.077	11.37
368.44	11.43
368.803	11.43
369.167	11.33
369.53	11.22
369.893	11.14
370.256	11.09
370.619	11.02
370.982	10.99
371.345	10.94
371.708	10.96
372.071	10.91
372.434	10.88
372.797	10.81
373.159	10.69
373.522	10.63
373.885	10.58
374.247	10.57
374.61	10.51
374.973	10.46
375.335	10.43
375.698	10.34
376.06	10.24
376.423	10.19
376.785	10.22
377.147	10.23
377.51	10.23
377.872	10.16
378.234	10.16
378.596	10.1
378.958	10.02
379.321	9.91
379.683	9.8
380.045	9.77
380.407	9.68
380.769	9.72
381.13	9.68
381.492	9.59
381.854	9.55
382.216	9.47
382.578	9.41
382.939	9.35
383.301	9.28
383.663	9.21
384.024	9.17
384.386	9.12
384.747	9.07
385.109	9.02
385.47	8.96
385.832	8.92
386.193	8.88
386.554	8.84
386.916	8.85
387.277	8.87
387.638	8.83
387.999	8.78
388.36	8.69
388.721	8.65
389.082	8.62
389.443	8.49
389.804	8.4
390.165	8.36
390.526	8.3
390.887	8.28
391.248	8.26
391.609	8.22
391.969	8.21
392.33	8.16
392.691	8.12
393.051	8.04
393.412	8
393.772	7.96
394.133	7.95
394.493	7.86
394.854	7.82
395.214	7.76
395.574	7.72
395.935	7.66
396.295	7.62
396.655	7.56
397.015	7.57
397.376	7.61
397.736	7.53
398.096	7.51
398.456	7.46
398.816	7.43
399.176	7.34
399.535	7.25
399.895	7.15
400.255	7.13
400.615	7.13
400.975	7.1
401.334	7.05
401.694	6.99
402.054	6.93
402.413	6.86
402.773	6.82
403.132	6.8
403.492	6.79
403.851	6.72
404.211	6.72
404.57	6.69
404.929	6.65
405.288	6.64
405.648	6.59
406.007	6.57
406.366	6.55
406.725	6.56
407.084	6.57
407.443	6.63
407.802	6.57
408.161	6.53
408.52	6.5
408.879	6.5
409.238	6.48
409.596	6.52
409.955	6.51
410.314	6.52
410.673	6.52
411.031	6.48
411.39	6.48
411.748	6.43
412.107	6.43
412.465	6.4
412.824	6.4
413.182	6.39
413.54	6.37
413.899	6.35
414.257	6.31
414.615	6.25
414.974	6.22
415.332	6.19
415.69	6.13
416.048	6.1
416.406	6.05
416.764	6
417.122	5.97
417.48	5.93
417.838	5.9
418.195	5.86
418.553	5.84
418.911	5.82
419.269	5.83
419.626	5.78
419.984	5.76
420.342	5.73
420.699	5.72
421.057	5.72
421.414	5.68
421.772	5.67
422.129	5.65
422.486	5.61
422.844	5.6
423.201	5.6
423.558	5.58
423.915	5.57
424.273	5.58
424.63	5.55
424.987	5.55
425.344	5.52
425.701	5.52
426.058	5.5
426.415	5.5
426.772	5.46
427.128	5.45
427.485	5.44
427.842	5.44
428.199	5.4
428.555	5.37
428.912	5.39
429.269	5.39
429.625	5.38
429.982	5.36
430.338	5.36
430.695	5.36
431.051	5.34
431.407	5.32
431.764	5.29
432.12	5.29
432.476	5.29
432.832	5.29
433.189	5.28
433.545	5.27
433.901	5.24
434.257	5.24
434.613	5.25
434.969	5.24
435.325	5.22
435.681	5.25
436.036	5.25
436.392	5.23
436.748	5.2
437.104	5.2
437.459	5.21
437.815	5.2
438.171	5.19
438.526	5.19
438.882	5.19
439.237	5.21
439.593	5.22
439.948	5.23
440.304	5.23
440.659	5.23
441.014	5.23
441.369	5.23
441.725	5.21
442.08	5.2
442.435	5.18
442.79	5.2
443.145	5.19
443.5	5.17
443.855	5.17
444.21	5.17
444.565	5.17
444.92	5.18
445.275	5.17
445.629	5.17
445.984	5.16
446.339	5.13
446.693	5.1
447.048	5.09
447.403	5.06
447.757	5.06
448.112	5.04
448.466	5.02
448.82	5.02
449.175	5.04
449.529	5.04
449.883	5.05
450.238	5.02
450.592	5
450.946	4.99
451.3	4.95
451.654	4.94
452.008	4.94
452.362	4.88
452.716	4.89
453.07	4.88
453.424	4.86
453.778	4.89
454.132	4.89
454.486	4.89
454.839	4.88
455.193	4.86
455.547	4.85
455.9	4.86
456.254	4.85
456.607	4.83
456.961	4.83
457.314	4.81
457.668	4.82
458.021	4.81
458.375	4.81
458.728	4.84
459.081	4.85
459.434	4.84
459.787	4.87
460.141	4.86
460.494	4.87
460.847	4.89
461.2	4.89
461.553	4.89
461.906	4.91
462.259	4.92
462.611	4.95
462.964	4.97
463.317	4.97
463.67	4.99
464.022	5.01
464.375	5.01
464.728	5.04
465.08	5.04
465.433	5.07
465.785	5.08
466.138	5.09
466.49	5.1
466.843	5.12
467.195	5.11
467.547	5.13
467.899	5.13
468.252	5.16
468.604	5.16
468.956	5.19
469.308	5.19
469.66	5.21
470.012	5.21
470.364	5.23
470.716	5.25
471.068	5.23
471.42	5.25
471.772	5.29
472.123	5.29
472.475	5.32
472.827	5.31
473.178	5.33
473.53	5.33
473.882	5.34
474.233	5.33
474.585	5.31
474.936	5.3
475.288	5.33
475.639	5.32
475.99	5.33
476.342	5.31
476.693	5.3
477.044	5.31
477.395	5.3
477.746	5.27
478.097	5.29
478.448	5.29
478.8	5.27
479.15	5.23
479.501	5.24
479.852	5.21
480.203	5.22
480.554	5.23
480.905	5.22
481.255	5.22
481.606	5.24
481.957	5.26
482.307	5.25
482.658	5.24
483.009	5.25
483.359	5.25
483.709	5.24
484.06	5.25
484.41	5.26
484.761	5.27
485.111	5.27
485.461	5.26
485.811	5.26
486.162	5.27
486.512	5.28
486.862	5.28
487.212	5.28
487.562	5.28
487.912	5.27
488.262	5.27
488.612	5.27
488.961	5.27
489.311	5.27
489.661	5.28
490.011	5.29
490.36	5.28
490.71	5.29
491.06	5.3
491.409	5.29
491.759	5.29
492.108	5.29
492.458	5.29
492.807	5.3
493.157	5.32
493.506	5.33
493.855	5.35
494.204	5.37
494.554	5.4
494.903	5.42
495.252	5.45
495.601	5.48
495.95	5.51
496.299	5.52
496.648	5.53
496.997	5.56
497.346	5.59
497.695	5.62
498.043	5.65
498.392	5.67
498.741	5.73
499.09	5.76
499.438	5.81
499.787	5.86
500.135	5.92
500.484	5.94
500.832	5.98
501.181	6.03
501.529	6.09
501.878	6.13
502.226	6.18
502.574	6.23
502.923	6.3
503.271	6.36
503.619	6.44
503.967	6.5
504.315	6.58
504.663	6.67
505.011	6.74
505.359	6.8
505.707	6.88
506.055	6.94
506.403	7.01
506.751	7.07
507.098	7.14
507.446	7.2
507.794	7.29
508.141	7.35
508.489	7.42
508.837	7.46
509.184	7.54
509.531	7.62
509.879	7.7
510.226	7.79
510.574	7.87
510.921	7.94
511.268	8
511.616	8.07
511.963	8.15
512.31	8.24
512.657	8.34
513.004	8.43
513.351	8.52
513.698	8.62
514.045	8.72
514.392	8.81
514.739	8.92
515.086	9.01
515.432	9.09
515.779	9.17
516.126	9.29
516.473	9.38
516.819	9.48
517.166	9.58
517.512	9.66
517.859	9.76
518.205	9.83
518.552	9.92
518.898	10.01
519.245	10.1
519.591	10.17
519.937	10.23
520.283	10.33
520.629	10.42
520.976	10.52
521.322	10.64
521.668	10.77
522.014	10.88
522.36	11.03
522.706	11.19
523.052	11.35
523.398	11.52
523.743	11.68
524.089	11.82
524.435	11.98
524.781	12.15
525.126	12.3
525.472	12.46
525.817	12.58
526.163	12.71
526.509	12.81
526.854	12.92
527.199	13.04
527.545	13.15
527.89	13.27
528.235	13.38
528.581	13.49
528.926	13.6
529.271	13.74
529.616	13.84
529.961	13.96
530.306	14.07
530.651	14.2
530.996	14.34
531.341	14.5
531.686	14.66
532.031	14.81
532.376	14.98
532.721	15.16
533.065	15.35
533.41	15.55
533.755	15.76
534.099	15.95
534.444	16.15
534.788	16.37
535.133	16.56
535.477	16.8
535.822	17.01
536.166	17.28
536.51	17.52
536.855	17.81
537.199	18.1
537.543	18.42
537.887	18.71
538.231	19.01
538.576	19.32
538.92	19.61
539.264	19.91
539.608	20.16
539.951	20.38
540.295	20.62
540.639	20.89
540.983	21.12
541.327	21.39
541.671	21.63
542.014	21.87
542.358	22.13
542.701	22.37
543.045	22.62
543.389	22.85
543.732	23.1
544.075	23.34
544.419	23.61
544.762	23.9
545.105	24.19
545.449	24.49
545.792	24.82
546.135	25.15
546.478	25.49
546.821	25.87
547.165	26.26
547.508	26.65
547.851	26.98
548.194	27.36
548.536	27.7
548.879	28.11
549.222	28.5
549.565	28.86
549.908	29.25
550.25	29.61
550.593	30.01
550.936	30.44
551.278	30.86
551.621	31.25
551.963	31.65
552.306	32.06
552.648	32.45
552.991	32.77
553.333	33.12
553.675	33.47
554.017	33.84
554.36	34.17
554.702	34.52
555.044	34.85
555.386	35.25
555.728	35.63
556.07	35.98
556.412	36.32
556.754	36.71
557.096	37.07
557.438	37.45
557.78	37.78
558.121	38.14
558.463	38.5
558.805	38.88
559.147	39.2
559.488	39.51
559.83	39.8
560.171	40.18
560.513	40.56
560.854	40.82
561.196	41.1
561.537	41.48
561.878	41.78
562.22	42.08
562.561	42.37
562.902	42.71
563.243	43.01
563.584	43.31
563.925	43.53
564.266	43.83
564.607	44.19
564.948	44.47
565.289	44.71
565.63	45
565.971	45.17
566.312	45.45
566.653	45.75
566.993	46.01
567.334	46.26
567.675	46.51
568.015	46.82
568.356	47.12
568.696	47.32
569.037	47.54
569.377	47.82
569.718	48.07
570.058	48.3
570.398	48.5
570.739	48.69
571.079	48.99
571.419	49.2
571.759	49.36
572.099	49.58
572.439	49.79
572.779	49.98
573.119	50.22
573.459	50.41
573.799	50.58
574.139	50.76
574.479	50.95
574.819	51.12
575.158	51.29
575.498	51.46
575.838	51.72
576.177	51.95
576.517	52.14
576.856	52.33
577.196	52.53
577.535	52.76
577.875	53
578.214	53.11
578.553	53.27
578.893	53.47
579.232	53.55
579.571	53.69
579.91	53.85
580.25	54.06
580.589	54.14
580.928	54.26
581.267	54.4
581.606	54.53
581.945	54.61
582.283	54.78
582.622	54.94
582.961	54.97
583.3	55.07
583.639	55.26
583.977	55.29
584.316	55.4
584.654	55.52
584.993	55.56
585.332	55.73
585.67	55.88
586.008	56.05
586.347	56.26
586.685	56.48
587.024	56.61
587.362	56.69
587.7	56.87
588.038	57.02
588.376	57.09
588.715	57.25
589.053	57.38
589.391	57.51
589.729	57.61
590.067	57.75
590.404	57.86
590.742	57.94
591.08	58.06
591.418	58.15
591.756	58.28
592.093	58.47
592.431	58.51
592.769	58.61
593.106	58.68
593.444	58.75
593.781	58.75
594.119	58.85
594.456	58.95
594.793	59
595.131	59.09
595.468	59.25
595.805	59.27
596.143	59.35
596.48	59.38
596.817	59.43
597.154	59.51
597.491	59.56
597.828	59.63
598.165	59.74
598.502	59.79
598.839	59.82
599.176	59.91
599.512	59.98
599.849	59.97
600.186	60.03
600.523	60.04
600.859	60.22
601.196	60.33
601.532	60.38
601.869	60.44
602.205	60.48
602.542	60.5
602.878	60.59
603.215	60.71
603.551	60.84
603.887	60.88
604.223	60.98
604.56	61.07
604.896	61.04
605.232	61.08
605.568	61.06
605.904	61.16
606.24	61.18
606.576	61.26
606.912	61.41
607.248	61.48
607.583	61.65
607.919	61.6
608.255	61.59
608.591	61.73
608.926	61.81
609.262	61.84
609.597	61.95
609.933	62.04
610.268	62.02
610.604	62.01
610.939	62
611.275	61.96
611.61	61.98
611.945	62.12
612.281	62.23
612.616	62.35
612.951	62.28
613.286	62.32
613.621	62.37
613.956	62.3
614.291	62.33
614.626	62.33
614.961	62.45
615.296	62.53
615.631	62.52
615.966	62.55
616.3	62.53
616.635	62.53
616.97	62.53
617.304	62.66
617.639	62.69
617.973	62.74
618.308	62.81
618.642	62.85
618.977	62.89
619.311	62.87
619.646	62.97
619.98	63.1
620.314	63.21
620.648	63.31
620.983	63.42
621.317	63.42
621.651	63.48
621.985	63.47
622.319	63.43
622.653	63.41
622.987	63.47
623.321	63.56
623.655	63.6
623.988	63.64
624.322	63.67
624.656	63.68
624.99	63.75
625.323	63.77
625.657	63.83
625.99	63.83
626.324	63.82
626.657	63.79
626.991	63.84
627.324	63.76
627.658	63.68
627.991	63.73
628.324	63.77
628.657	63.76
628.991	63.74
629.324	63.87
629.657	63.88
629.99	63.86
630.323	63.95
630.656	63.91
630.989	63.95
631.322	64.03
631.655	64.06
631.987	64.12
632.32	64.16
632.653	64.19
632.986	64.18
633.318	64.25
633.651	64.22
633.984	64.17
634.316	64.16
634.649	64.23
634.981	64.31
635.313	64.34
635.646	64.43
635.978	64.5
636.31	64.51
636.643	64.68
636.975	64.69
637.307	64.58
637.639	64.71
637.971	64.64
638.303	64.52
638.635	64.52
638.967	64.51
639.299	64.53
639.631	64.49
639.963	64.57
640.295	64.5
640.626	64.68
640.958	64.68
641.29	64.79
641.621	64.85
641.953	64.74
642.285	64.85
642.616	64.81
642.948	64.93
643.279	64.9
643.61	64.86
643.942	64.98
644.273	64.98
644.604	64.95
644.936	65.04
645.267	64.95
645.598	64.98
645.929	64.98
646.26	64.95
646.591	64.98
646.922	65.01
647.253	65.08
647.584	64.92
647.915	64.84
648.245	64.82
648.576	64.74
648.907	64.84
649.238	64.66
649.568	64.74
649.899	64.71
650.229	64.68
650.56	64.65
650.89	64.69
651.221	64.66
651.551	64.67
651.882	64.74
652.212	64.87
652.542	65.02
652.872	65.02
653.203	65.13
653.533	65.12
653.863	65.06
654.193	65.05
654.523	65.27
654.853	65.51
655.183	65.51
655.513	65.6
655.843	65.57
656.172	65.72
656.502	65.6
656.832	65.58
657.162	65.67
657.491	65.57
657.821	65.65
658.15	65.74
658.48	65.74
658.809	65.67
659.139	65.68
659.468	65.78
659.798	65.83
660.127	65.86
660.456	65.9
660.785	65.97
661.115	66.06
661.444	65.93
661.773	65.89
662.102	65.9
662.431	65.91
662.76	66.05
663.089	66.04
663.418	66.15
663.747	66.2
664.076	66.19
664.404	66.36
664.733	66.28
665.062	66.33
665.39	66.3
665.719	66.38
666.048	66.37
666.376	66.24
666.705	66.21
667.033	66.15
667.362	66.11
667.69	66.16
668.018	66.11
668.347	66.2
668.675	66.23
669.003	66.29
669.331	66.22
669.659	66.03
669.987	65.99
670.315	65.99
670.643	65.9
670.971	65.82
671.299	65.84
671.627	65.71
671.955	65.81
672.283	65.95
672.61	65.89
672.938	65.86
673.266	65.78
673.593	65.63
673.921	65.59
674.249	65.56
674.576	65.59
674.904	65.53
675.231	65.43
675.558	65.42
675.886	65.45
676.213	65.51
676.54	65.43
676.867	65.3
677.195	65.36
677.522	65.44
677.849	65.5
678.176	65.58
678.503	65.66
678.83	65.63
679.157	65.44
679.484	65.39
679.81	65.51
680.137	65.49
680.464	65.69
680.791	65.63
681.117	65.67
681.444	65.63
681.771	65.65
682.097	65.65
682.424	65.61
682.75	65.52
683.077	65.57
683.403	65.82
683.729	66.01
684.056	66.07
684.382	66.1
684.708	66.06
685.034	65.8
685.36	65.72
685.686	65.75
686.012	65.87
686.339	66.06
686.664	66.01
686.99	66.14
687.316	66.04
687.642	66.17
687.968	66.36
688.294	66.34
688.619	66.46
688.945	66.5
689.271	66.52
689.596	66.5
689.922	66.44
690.247	66.28
690.573	66.35
690.898	66.28
691.224	66.26
691.549	66.42
691.874	66.57
692.2	66.66
692.525	66.73
692.85	66.88
693.175	66.72
693.5	66.71
693.825	66.6
694.15	66.49
694.475	66.53
694.8	66.33
695.125	66.29
695.45	66.28
695.775	66.39
696.099	66.41
696.424	66.52
696.749	66.5
697.073	66.52
697.398	66.33
697.723	66.26
698.047	66.24
698.372	66.1
698.696	66.01
699.02	66
699.345	65.88
699.669	65.86
699.993	65.92
700.318	65.89
700.642	66.1
700.966	66.33
701.29	66.23
701.614	66.37
701.938	66.36
702.262	66.38
702.586	66.32
702.91	66.11
703.234	66.11
703.557	66.27
703.881	66.34
704.205	66.5
704.529	66.47
704.852	66.6
705.176	66.43
705.499	66.42
705.823	66.61
706.146	66.56
706.47	66.47
706.793	66.58
707.117	66.57
707.44	66.52
707.763	66.36
708.086	66.44
708.409	66.22
708.733	65.99
709.056	65.82
709.379	65.95
709.702	66.25
710.025	66.23
710.348	66.08
710.671	66.06
710.993	65.97
711.316	66.05
711.639	66.04
711.962	66.2
712.284	66.31
712.607	66.43
712.93	66.47
713.252	66.58
713.575	66.42
713.897	66.63
714.22	66.4
714.542	66.4
714.864	66.43
715.187	66.45
715.509	66.73
715.831	66.85
716.153	66.84
716.475	66.67
716.798	66.77
717.12	66.81
717.442	66.78
717.764	66.76
718.085	66.58
718.407	66.54
718.729	66.49
719.051	66.6
719.373	66.31
719.695	66.33
720.016	66.05
720.338	66.25
720.659	66.24
720.981	66.17
721.302	66.04
721.624	66.05
721.945	66.07
722.267	66.07
722.588	65.81
722.909	65.66
723.231	65.67
723.552	65.29
723.873	65.28
724.194	65.43
724.515	65.36
724.836	65.58
725.157	65.43
725.478	65.52
725.799	65.29
726.12	65.38
726.441	65.42
726.762	65.66
727.083	65.36
727.403	65.2
727.724	65.47
728.045	65.58
728.365	65.57
728.686	65.79
729.006	65.79
729.327	65.8
729.647	65.76
729.967	65.91
730.288	66.06
730.608	66
730.928	66.04
731.249	66.11
731.569	66.22
731.889	66.21
732.209	66.37
732.529	66.59
732.849	66.52
733.169	66.41
733.489	66.27
733.809	66.47
734.129	66.33
734.448	66.28
734.768	66.2
735.088	66.22
735.408	66.13
735.727	66.08
736.047	66.3
736.366	66.12
736.686	66.06
737.005	66.2
737.325	66.28
737.644	65.91
737.963	65.91
738.283	65.81
738.602	65.92
738.921	65.71
739.24	65.67
739.56	65.81
739.879	66.1
740.198	66.23
740.517	66.25
740.836	66.18
741.155	66.13
741.473	66.49
741.792	66.4
742.111	66.35
742.43	66.4
742.748	66.53
743.067	66.69
743.386	66.76
743.704	67.08
744.023	66.96
744.341	67.09
744.66	67.24
744.978	67.13
745.297	66.86
745.615	66.85
745.933	66.99
746.252	66.82
746.57	66.49
746.888	66.43
747.206	66.31
747.524	66.49
747.842	66.44
748.16	66.11
748.478	66.1
748.796	66.3
749.114	66.23
749.432	65.73
749.749	66.05
750.067	66.12
750.385	65.79
750.703	65.79
751.02	65.85
751.338	65.84
751.655	65.98
751.973	66.35
752.29	66.41
752.608	66.51
752.925	66.85
753.242	66.91
753.56	67.04
753.877	67.04
754.194	66.86
754.511	67.11
754.828	67.11
755.145	67.2
755.462	66.84
755.779	66.85
756.096	67.58
756.413	67.5
756.73	67.36
757.047	67.38
757.364	67.57
757.68	67.34
757.997	67.27
758.314	67.12
758.63	66.85
758.947	66.61
759.264	66.48
759.58	66.16
759.896	66.24
760.213	66.26
760.529	66.5
760.846	66.59
761.162	66.19
761.478	66.44
761.794	66.27
762.11	66.44
762.426	66.53
762.743	66.25
763.059	66.44
763.375	66.1
763.69	66.07
764.006	66.04
764.322	66.22
764.638	66.3
764.954	66.38
765.27	66.47
765.585	66.54
765.901	66.29
766.216	66.35
766.532	66.2
766.848	65.93
767.163	65.89
767.478	65.97
767.794	65.93
768.109	65.53
768.424	65.75
768.74	65.64
769.055	65.34
769.37	65.44
769.685	64.97
770	65.36
770.315	65.69
770.63	65.52
770.945	65.57
771.26	65.45
771.575	65.12
771.89	64.84
772.205	65.18
772.52	65.85
772.834	65.71
773.149	65.91
773.464	66.11
773.778	65.75
774.093	65.55
774.407	65.84
774.722	65.88
775.036	66.08
775.351	66.16
775.665	66.53
775.979	66.1
776.293	66.54
776.608	65.99
776.922	65.34
777.236	65.48
777.55	65.74
777.864	65.9
778.178	66.03
778.492	66.77
778.806	66.79
779.12	66.08
779.434	65.96
779.747	65.98
780.061	66.08
780.375	65.78
780.689	66.11
781.002	66.02
781.316	66.37
781.629	66.13
781.943	66.06
782.256	65.88
782.57	65.85
782.883	65.56
783.196	66.18
783.51	66.19
783.823	66.49
784.136	66.06
784.449	66.16
784.762	66.74
785.075	66.48
785.388	65.69
785.701	65.86
786.014	65.94
786.327	66.13
786.64	66.3
786.953	66.49
787.266	66.23
787.578	66.32
787.891	66.05
788.204	65.39
788.516	65.47
788.829	65.72
789.141	65.82
789.454	66.25
789.766	66.44
790.079	66.51
790.391	66.5
790.703	66.92
791.016	66.22
791.328	65.95
791.64	65.74
791.952	66.26
792.264	66.15
792.576	66.35
792.888	66.37
793.2	65.76
793.512	65.81
793.824	66.06
794.136	66.29
794.448	66.58
794.76	66.68
795.071	66.76
795.383	66.34
795.695	67.16
796.006	66.25
796.318	65.68
796.629	65.81
796.941	65.69
797.252	65.17
797.564	65.67
797.875	65.6
798.186	65.66
798.497	65.98
798.809	65.47
799.12	65.54
799.431	65.14
799.742	65.36
800.053	66.01
800.364	65.46
800.675	65.27
800.986	65.32
801.297	65.5
801.608	65.09
801.918	64.94
802.229	63.85
802.54	63.92
802.851	64.02
803.161	63.63
803.472	63.43
803.782	63.82
804.093	64.38
804.403	64.15
804.714	64.19
805.024	63.64
805.334	64.02
805.645	64.04
805.955	64.78
806.265	65.3
806.575	64.78
806.885	64.87
807.195	65.11
807.505	64.87
807.815	64.63
808.125	64.54
808.435	64.99
808.745	65.7
809.055	66.61
809.365	66.63
809.674	66.85
809.984	67.24
810.294	66.03
810.603	65.32
810.913	65.2
811.222	64.83
811.532	65.27
811.841	65.99
812.151	66.21
812.46	64.98
812.769	64.73
813.079	64.6
813.388	64.4
813.697	64.31
814.006	63.84
814.315	64
814.624	64.87
814.933	64.77
815.242	65.12
815.551	64.27
815.86	64.59
816.169	65.6
816.478	65.1
816.786	65.06
817.095	64.9
817.404	65.29
817.712	66.05
818.021	66.1
818.33	65.81
818.638	65.51
818.947	65.98
819.255	65.59
819.563	65.75
819.872	66.48
820.18	66.56
820.488	66.61
820.796	66.7
821.105	66.89
821.413	66.77
821.721	66.61
822.029	66.83
822.337	66.96
822.645	66.79
822.953	66.9
823.26	67.01
823.568	67.17
823.876	67.08
824.184	67.09
824.491	67
824.799	66.7
825.107	66.75
825.414	66.87
825.722	67.18
826.029	67.33
826.337	67.17
826.644	67.18
826.951	67.16
827.259	67.28
827.566	67.16
827.873	67.27
828.18	67.35
828.488	67.22
828.795	67.13
829.102	66.94
829.409	67.05
829.716	67.28
830.023	66.92
830.329	67.23
830.636	67.01
830.943	67.13
831.25	67.75
831.557	67.85
831.863	67.44
832.17	66.96
832.476	66.56
832.783	66.88
833.089	66.52
833.396	66.99
833.702	66.71
834.009	66.67
834.315	66.44
834.621	66.22
834.928	65.83
835.234	65.7
835.54	65.48
835.846	65.07
836.152	65.2
836.458	65.44
836.764	64.64
837.07	64.52
837.376	64.28
837.682	64.45
837.988	64.24
838.293	64.74
838.599	64.66
838.905	64.46
839.211	64.44
839.516	64.9
839.822	64.75
840.127	64.51
840.433	64.64
840.738	65.04
841.044	65.86
841.349	66.62
841.654	65.94
841.959	66.23
842.265	66.06
842.57	64.87
842.875	64.31
843.18	66.83
843.485	67.7
843.79	67.87
844.095	68.66
844.4	67.39
844.705	66.34
845.01	66.63
845.315	67.55
845.619	66.71
845.924	65.98
846.229	65.37
846.533	66.31
846.838	66.2
847.142	66.94
847.447	65.65
847.751	65.74
848.056	65.11
848.36	65.78
848.664	65.54
848.969	68.25
849.273	68.8
849.577	64.98
849.881	63.01
850.185	63.97
850.489	61.12
850.794	62.31
851.097	63.19
851.401	63.12
851.705	61.5
852.009	60.64
852.313	59.35
852.617	59.28
852.92	58.81
853.224	56.37
853.528	56.17
853.831	55.61
854.135	55.33
854.438	57.1
854.742	55.67
855.045	56.25
855.349	55.5
855.652	55.86
855.955	57.8
856.259	57.22
856.562	56.63
856.865	58.28
857.168	58.37
857.471	57.02
857.774	57.76
858.077	58.09
858.38	58.71
858.683	60.1
858.986	60.22
859.289	60.08
859.592	59.34
859.894	58.77
860.197	59.27
860.5	56.65
860.802	57.4
861.105	58.8
861.407	59.27
861.71	59.63
862.012	60.9
862.315	60.45
862.617	59.41
862.919	57.22
863.222	57.81
863.524	56.94
863.826	58.64
864.128	56.85
864.43	56.27
864.732	56.72
865.034	56.5
865.336	56.21
865.638	57.4
865.94	59.51
866.242	58.81
866.544	59.16
866.846	63
867.147	62.95
867.449	61.53
867.751	60.33
868.052	60.6
868.354	59.11
868.655	61.01
868.957	62.22
869.258	61.89
869.56	59.37
869.861	61.02
870.162	59.69
870.463	63.51
870.765	65.24
871.066	64.57
871.367	65.77
871.668	63.43
871.969	63.37
872.27	59.58
872.571	59.84
872.872	58.39
873.173	57.35
873.473	54.95
873.774	56.01
874.075	55.67
874.376	54.62
874.676	53.57
874.977	48.8
875.277	50.96
875.578	55.6
875.878	55.99
876.179	55.19
876.479	55.41
876.78	51.62
877.08	51.18
877.38	50.72
877.68	48.99
877.981	52.6
878.281	50.06
878.581	55.41
