Data from BA28415_Reflection_00002.txt Node
Date: Mon Nov 18 16:02:06 EST 2019
User: vgr7
Spectrometer: USB2G7710
Scans to average: 3
Trigger mode: 4
Integration Time (sec): 2.000000E-2
Electric dark correction enabled: true
Boxcar width: 10
XAxis mode: Wavelengths
Number of Pixels in Spectrum: 2048
>>>>>Begin Spectral Data<<<<<
177.721	-85.42
178.105	-110.76
178.488	-262.15
178.871	-273.04
179.254	-68.48
179.636	-1035.87
180.019	470.67
180.402	153.57
180.785	484.45
181.168	63.06
181.55	27.32
181.933	80.35
182.316	111
182.698	108.77
183.081	68.33
183.463	65.95
183.846	87.83
184.228	98.9
184.611	80.91
184.993	82.11
185.376	81.54
185.758	88.75
186.14	105.59
186.522	49.1
186.904	50.68
187.287	64.45
187.669	98.49
188.051	210.97
188.433	937.55
188.815	1294.24
189.197	-463.38
189.579	-353.99
189.961	-447.2
190.342	-491.92
190.724	-278.65
191.106	-276.58
191.488	-297.7
191.869	-257.52
192.251	-418.35
192.633	-260.49
193.014	-253.03
193.396	-163.43
193.777	-148.04
194.159	-225.69
194.54	-140.5
194.922	-165.79
195.303	-188.35
195.684	-204.26
196.065	-195.13
196.447	-667.49
196.828	-603.76
197.209	-362.98
197.59	-2909.9
197.971	-376.52
198.352	-262.66
198.733	-1846.9
199.114	-402.64
199.495	-514.25
199.876	763.9
200.257	819.42
200.638	-329.09
201.018	262.54
201.399	603.07
201.78	-854.84
202.16	426.87
202.541	203.68
202.922	150.3
203.302	115.14
203.683	154.22
204.063	229.98
204.444	308.99
204.824	190.99
205.204	198.68
205.585	1005.83
205.965	210.34
206.345	180.96
206.725	165.12
207.106	174.44
207.486	179.52
207.866	242.43
208.246	760.51
208.626	305.21
209.006	1337.74
209.386	866.32
209.766	847.3
210.145	-5449.3
210.525	-7644.68
210.905	-504.65
211.285	-236.68
211.664	-153.49
212.044	-108.04
212.424	-82.19
212.803	-83.59
213.183	-69.85
213.562	-99.73
213.942	-68.69
214.321	-77.71
214.701	-90.54
215.08	-174.82
215.459	-183.94
215.838	-119.04
216.218	-92.04
216.597	-42.06
216.976	-46.64
217.355	-38.63
217.734	-47.14
218.113	-50.93
218.492	-36.12
218.871	-27.72
219.25	-49.02
219.629	-126.44
220.008	-152
220.387	-199.05
220.766	-260.41
221.144	-598.48
221.523	-695.99
221.902	3492.41
222.28	-369.47
222.659	-120.71
223.037	-50.17
223.416	-38.98
223.794	-43.56
224.173	-33.93
224.551	-34.72
224.929	-30.08
225.308	-3.4
225.686	-1.05
226.064	-6.3
226.442	-16.68
226.821	-9.35
227.199	-10.11
227.577	-7.28
227.955	-8.3
228.333	-5.91
228.711	-6.46
229.089	0.81
229.467	-4.19
229.845	-4.03
230.222	-1.79
230.6	0.09
230.978	0.97
231.356	0.63
231.733	-1.22
232.111	-1.86
232.488	-2.35
232.866	-1.92
233.243	-1.97
233.621	-1.43
233.998	1.84
234.376	3.53
234.753	3.05
235.13	3.19
235.508	3.46
235.885	4.24
236.262	3.98
236.639	5.33
237.016	4.2
237.393	5.71
237.77	6.88
238.147	5.98
238.524	5.61
238.901	5.27
239.278	6.1
239.655	7.35
240.032	6.43
240.409	5.83
240.785	5.65
241.162	5.22
241.539	5.59
241.915	5.26
242.292	4.71
242.668	4.58
243.045	4.8
243.421	4.63
243.798	4.91
244.174	4.9
244.551	4.67
244.927	4.52
245.303	4.74
245.679	4.72
246.056	4.69
246.432	4.55
246.808	4.71
247.184	4.23
247.56	3.81
247.936	4.11
248.312	4.46
248.688	4.45
249.064	4.21
249.44	4.22
249.815	4.25
250.191	4.33
250.567	4.39
250.943	4.04
251.318	4.24
251.694	3.96
252.069	3.83
252.445	3.9
252.82	4.02
253.196	3.83
253.571	3.72
253.947	3.54
254.322	3.54
254.697	3.45
255.073	3.47
255.448	3.48
255.823	3.62
256.198	3.54
256.573	3.58
256.948	4.02
257.323	3.83
257.698	3.73
258.073	3.89
258.448	3.77
258.823	3.89
259.198	3.63
259.573	3.64
259.948	3.65
260.322	3.72
260.697	3.65
261.072	3.46
261.446	3.42
261.821	3.53
262.195	3.51
262.57	3.55
262.944	3.65
263.319	3.54
263.693	3.48
264.067	3.51
264.442	3.54
264.816	3.3
265.19	3.32
265.564	3.33
265.938	3.17
266.313	3.02
266.687	3.02
267.061	3.26
267.435	3.4
267.809	3.55
268.183	3.45
268.556	3.4
268.93	3.73
269.304	3.92
269.678	3.79
270.051	3.76
270.425	3.68
270.799	3.6
271.172	3.57
271.546	3.44
271.919	3.37
272.293	3.44
272.666	3.38
273.04	3.35
273.413	3.38
273.787	3.47
274.16	3.46
274.533	3.38
274.906	3.28
275.279	3.23
275.653	3.22
276.026	3.23
276.399	3.13
276.772	3.06
277.145	2.88
277.518	3.14
277.891	3.31
278.263	3.3
278.636	3.54
279.009	3.68
279.382	3.91
279.755	3.87
280.127	3.98
280.5	4.14
280.872	4.26
281.245	4.24
281.617	4.28
281.99	4.42
282.362	4.55
282.735	4.58
283.107	4.6
283.479	4.59
283.852	4.55
284.224	4.74
284.596	4.78
284.968	4.79
285.34	4.68
285.713	4.64
286.085	4.72
286.457	4.66
286.829	4.66
287.201	4.5
287.572	4.45
287.944	4.3
288.316	4.35
288.688	4.25
289.06	4.34
289.431	4.3
289.803	4.3
290.175	4.29
290.546	4.38
290.918	4.24
291.289	4.29
291.661	4.32
292.032	4.45
292.403	4.43
292.775	4.55
293.146	4.69
293.517	4.63
293.889	4.68
294.26	4.77
294.631	4.87
295.002	4.93
295.373	4.97
295.744	4.88
296.115	4.85
296.486	4.75
296.857	4.74
297.228	4.74
297.599	4.8
297.97	4.84
298.34	4.76
298.711	4.9
299.082	4.82
299.452	4.8
299.823	4.71
300.194	4.77
300.564	4.64
300.935	4.66
301.305	4.69
301.676	4.63
302.046	4.64
302.416	4.69
302.787	4.85
303.157	4.92
303.527	5.12
303.897	5.18
304.267	5.48
304.637	5.52
305.008	5.59
305.378	5.67
305.748	5.57
306.117	5.57
306.487	5.58
306.857	5.61
307.227	5.61
307.597	5.63
307.967	5.4
308.336	5.47
308.706	5.35
309.076	5.38
309.445	5.35
309.815	5.27
310.184	5.29
310.554	5.17
310.923	5.07
311.293	5.05
311.662	4.95
312.031	4.87
312.401	4.84
312.77	4.82
313.139	4.62
313.508	4.71
313.877	4.79
314.246	4.72
314.616	4.73
314.985	4.68
315.353	4.55
315.722	4.62
316.091	4.58
316.46	4.5
316.829	4.64
317.198	4.55
317.567	4.47
317.935	4.48
318.304	4.41
318.672	4.4
319.041	4.44
319.41	4.48
319.778	4.25
320.147	4.15
320.515	4.16
320.883	4.21
321.252	4.38
321.62	4.34
321.988	4.46
322.357	4.44
322.725	4.51
323.093	4.53
323.461	4.62
323.829	4.71
324.197	4.82
324.565	4.84
324.933	4.97
325.301	4.94
325.669	4.73
326.037	4.7
326.405	4.86
326.772	4.85
327.14	4.94
327.508	5.05
327.875	5.11
328.243	5.21
328.61	5.22
328.978	5.06
329.346	5.07
329.713	4.98
330.08	5.02
330.448	4.91
330.815	4.94
331.182	4.94
331.55	4.87
331.917	4.87
332.284	4.64
332.651	4.49
333.018	4.54
333.385	4.61
333.752	4.75
334.119	4.76
334.486	4.75
334.853	4.66
335.22	4.68
335.587	4.71
335.954	4.57
336.32	4.72
336.687	4.77
337.054	4.77
337.42	4.84
337.787	4.88
338.153	4.99
338.52	5.06
338.886	5.08
339.253	5.11
339.619	5.1
339.986	5.19
340.352	5.32
340.718	5.38
341.084	5.34
341.451	5.34
341.817	5.27
342.183	5.26
342.549	5.2
342.915	5.26
343.281	5.21
343.647	5.25
344.013	5.17
344.379	5.17
344.745	5.27
345.11	5.28
345.476	5.25
345.842	5.28
346.208	5.17
346.573	5.12
346.939	5.15
347.304	5.1
347.67	5.11
348.035	5.1
348.401	5.07
348.766	5.2
349.132	5.16
349.497	5.08
349.862	5.2
350.228	5.26
350.593	5.18
350.958	5.19
351.323	5.25
351.688	5.31
352.053	5.43
352.418	5.43
352.783	5.38
353.148	5.33
353.513	5.28
353.878	5.36
354.243	5.45
354.608	5.36
354.972	5.45
355.337	5.45
355.702	5.46
356.066	5.52
356.431	5.37
356.795	5.45
357.16	5.51
357.524	5.48
357.889	5.48
358.253	5.53
358.618	5.61
358.982	5.48
359.346	5.44
359.71	5.35
360.075	5.3
360.439	5.29
360.803	5.33
361.167	5.33
361.531	5.33
361.895	5.28
362.259	5.35
362.623	5.32
362.987	5.33
363.351	5.29
363.714	5.27
364.078	5.29
364.442	5.26
364.806	5.27
365.169	5.18
365.533	5.18
365.896	5.19
366.26	5.18
366.623	5.24
366.987	5.27
367.35	5.28
367.714	5.27
368.077	5.29
368.44	5.23
368.803	5.21
369.167	5.14
369.53	5.12
369.893	5.12
370.256	5.1
370.619	5.13
370.982	5.12
371.345	5.07
371.708	5.1
372.071	5.08
372.434	5.11
372.797	5.21
373.159	5.19
373.522	5.12
373.885	5.15
374.247	5.15
374.61	5.17
374.973	5.12
375.335	5.15
375.698	5.17
376.06	5.24
376.423	5.23
376.785	5.31
377.147	5.34
377.51	5.33
377.872	5.31
378.234	5.25
378.596	5.26
378.958	5.27
379.321	5.27
379.683	5.32
380.045	5.33
380.407	5.29
380.769	5.29
381.13	5.37
381.492	5.32
381.854	5.37
382.216	5.33
382.578	5.39
382.939	5.36
383.301	5.33
383.663	5.31
384.024	5.37
384.386	5.4
384.747	5.39
385.109	5.4
385.47	5.4
385.832	5.41
386.193	5.47
386.554	5.52
386.916	5.57
387.277	5.52
387.638	5.48
387.999	5.44
388.36	5.46
388.721	5.51
389.082	5.49
389.443	5.48
389.804	5.47
390.165	5.43
390.526	5.52
390.887	5.52
391.248	5.54
391.609	5.52
391.969	5.51
392.33	5.53
392.691	5.53
393.051	5.57
393.412	5.6
393.772	5.54
394.133	5.53
394.493	5.51
394.854	5.52
395.214	5.52
395.574	5.59
395.935	5.56
396.295	5.5
396.655	5.51
397.015	5.5
397.376	5.54
397.736	5.61
398.096	5.57
398.456	5.58
398.816	5.59
399.176	5.57
399.535	5.57
399.895	5.53
400.255	5.55
400.615	5.54
400.975	5.54
401.334	5.57
401.694	5.53
402.054	5.56
402.413	5.58
402.773	5.59
403.132	5.57
403.492	5.57
403.851	5.6
404.211	5.62
404.57	5.61
404.929	5.6
405.288	5.55
405.648	5.55
406.007	5.59
406.366	5.57
406.725	5.58
407.084	5.55
407.443	5.59
407.802	5.61
408.161	5.59
408.52	5.61
408.879	5.59
409.238	5.61
409.596	5.59
409.955	5.57
410.314	5.58
410.673	5.55
411.031	5.55
411.39	5.55
411.748	5.55
412.107	5.55
412.465	5.53
412.824	5.57
413.182	5.56
413.54	5.55
413.899	5.58
414.257	5.58
414.615	5.58
414.974	5.55
415.332	5.52
415.69	5.51
416.048	5.48
416.406	5.52
416.764	5.53
417.122	5.5
417.48	5.51
417.838	5.51
418.195	5.54
418.553	5.57
418.911	5.58
419.269	5.57
419.626	5.58
419.984	5.6
420.342	5.58
420.699	5.59
421.057	5.59
421.414	5.56
421.772	5.55
422.129	5.58
422.486	5.59
422.844	5.6
423.201	5.6
423.558	5.61
423.915	5.6
424.273	5.59
424.63	5.61
424.987	5.62
425.344	5.61
425.701	5.6
426.058	5.59
426.415	5.59
426.772	5.59
427.128	5.59
427.485	5.59
427.842	5.6
428.199	5.59
428.555	5.59
428.912	5.6
429.269	5.62
429.625	5.6
429.982	5.59
430.338	5.58
430.695	5.58
431.051	5.55
431.407	5.57
431.764	5.58
432.12	5.58
432.476	5.6
432.832	5.59
433.189	5.61
433.545	5.6
433.901	5.58
434.257	5.58
434.613	5.57
434.969	5.57
435.325	5.58
435.681	5.59
436.036	5.58
436.392	5.58
436.748	5.58
437.104	5.58
437.459	5.58
437.815	5.6
438.171	5.63
438.526	5.65
438.882	5.64
439.237	5.65
439.593	5.65
439.948	5.63
440.304	5.63
440.659	5.64
441.014	5.64
441.369	5.63
441.725	5.63
442.08	5.63
442.435	5.65
442.79	5.65
443.145	5.66
443.5	5.65
443.855	5.64
444.21	5.64
444.565	5.66
444.92	5.67
445.275	5.65
445.629	5.63
445.984	5.64
446.339	5.62
446.693	5.62
447.048	5.62
447.403	5.62
447.757	5.63
448.112	5.62
448.466	5.62
448.82	5.64
449.175	5.63
449.529	5.64
449.883	5.62
450.238	5.6
450.592	5.6
450.946	5.6
451.3	5.61
451.654	5.63
452.008	5.63
452.362	5.61
452.716	5.64
453.07	5.66
453.424	5.64
453.778	5.66
454.132	5.68
454.486	5.65
454.839	5.65
455.193	5.65
455.547	5.64
455.9	5.65
456.254	5.65
456.607	5.69
456.961	5.7
457.314	5.72
457.668	5.73
458.021	5.73
458.375	5.74
458.728	5.74
459.081	5.72
459.434	5.7
459.787	5.7
460.141	5.71
460.494	5.7
460.847	5.71
461.2	5.71
461.553	5.71
461.906	5.73
462.259	5.73
462.611	5.75
462.964	5.77
463.317	5.78
463.67	5.79
464.022	5.76
464.375	5.75
464.728	5.75
465.08	5.74
465.433	5.75
465.785	5.73
466.138	5.73
466.49	5.74
466.843	5.76
467.195	5.78
467.547	5.78
467.899	5.79
468.252	5.78
468.604	5.77
468.956	5.75
469.308	5.75
469.66	5.73
470.012	5.71
470.364	5.7
470.716	5.71
471.068	5.7
471.42	5.7
471.772	5.75
472.123	5.75
472.475	5.76
472.827	5.75
473.178	5.75
473.53	5.78
473.882	5.79
474.233	5.79
474.585	5.74
474.936	5.72
475.288	5.72
475.639	5.74
475.99	5.74
476.342	5.74
476.693	5.74
477.044	5.78
477.395	5.79
477.746	5.8
478.097	5.76
478.448	5.77
478.8	5.75
479.15	5.73
479.501	5.74
479.852	5.74
480.203	5.76
480.554	5.79
480.905	5.79
481.255	5.79
481.606	5.8
481.957	5.82
482.307	5.83
482.658	5.84
483.009	5.84
483.359	5.84
483.709	5.85
484.06	5.85
484.41	5.86
484.761	5.87
485.111	5.87
485.461	5.88
485.811	5.88
486.162	5.89
486.512	5.91
486.862	5.91
487.212	5.91
487.562	5.91
487.912	5.9
488.262	5.9
488.612	5.9
488.961	5.89
489.311	5.9
489.661	5.9
490.011	5.91
490.36	5.91
490.71	5.91
491.06	5.9
491.409	5.9
491.759	5.89
492.108	5.9
492.458	5.9
492.807	5.91
493.157	5.89
493.506	5.9
493.855	5.87
494.204	5.87
494.554	5.88
494.903	5.87
495.252	5.87
495.601	5.88
495.95	5.88
496.299	5.9
496.648	5.88
496.997	5.88
497.346	5.87
497.695	5.87
498.043	5.87
498.392	5.88
498.741	5.86
499.09	5.85
499.438	5.85
499.787	5.85
500.135	5.86
500.484	5.89
500.832	5.87
501.181	5.88
501.529	5.86
501.878	5.87
502.226	5.87
502.574	5.89
502.923	5.87
503.271	5.87
503.619	5.87
503.967	5.85
504.315	5.87
504.663	5.87
505.011	5.89
505.359	5.9
505.707	5.93
506.055	5.93
506.403	5.92
506.751	5.93
507.098	5.92
507.446	5.94
507.794	5.93
508.141	5.94
508.489	5.96
508.837	5.99
509.184	6
509.531	6.01
509.879	6.04
510.226	6.06
510.574	6.05
510.921	6.04
511.268	6.05
511.616	6.03
511.963	6.05
512.31	6.05
512.657	6.04
513.004	6.04
513.351	6.06
513.698	6.1
514.045	6.1
514.392	6.11
514.739	6.09
515.086	6.09
515.432	6.09
515.779	6.08
516.126	6.1
516.473	6.09
516.819	6.09
517.166	6.07
517.512	6.07
517.859	6.1
518.205	6.1
518.552	6.14
518.898	6.14
519.245	6.13
519.591	6.11
519.937	6.12
520.283	6.1
520.629	6.08
520.976	6.06
521.322	6.09
521.668	6.09
522.014	6.09
522.36	6.11
522.706	6.11
523.052	6.11
523.398	6.11
523.743	6.11
524.089	6.11
524.435	6.12
524.781	6.14
525.126	6.14
525.472	6.15
525.817	6.15
526.163	6.16
526.509	6.16
526.854	6.18
527.199	6.2
527.545	6.2
527.89	6.23
528.235	6.24
528.581	6.24
528.926	6.22
529.271	6.23
529.616	6.22
529.961	6.23
530.306	6.24
530.651	6.23
530.996	6.25
531.341	6.25
531.686	6.25
532.031	6.25
532.376	6.24
532.721	6.25
533.065	6.25
533.41	6.25
533.755	6.26
534.099	6.26
534.444	6.25
534.788	6.26
535.133	6.25
535.477	6.26
535.822	6.25
536.166	6.26
536.51	6.28
536.855	6.29
537.199	6.29
537.543	6.28
537.887	6.29
538.231	6.3
538.576	6.31
538.92	6.32
539.264	6.34
539.608	6.36
539.951	6.35
540.295	6.33
540.639	6.36
540.983	6.37
541.327	6.37
541.671	6.38
542.014	6.4
542.358	6.39
542.701	6.4
543.045	6.41
543.389	6.42
543.732	6.41
544.075	6.41
544.419	6.41
544.762	6.42
545.105	6.43
545.449	6.41
545.792	6.39
546.135	6.4
546.478	6.39
546.821	6.39
547.165	6.4
547.508	6.44
547.851	6.42
548.194	6.39
548.536	6.38
548.879	6.39
549.222	6.35
549.565	6.36
549.908	6.33
550.25	6.32
550.593	6.33
550.936	6.33
551.278	6.31
551.621	6.31
551.963	6.31
552.306	6.29
552.648	6.29
552.991	6.32
553.333	6.32
553.675	6.32
554.017	6.33
554.36	6.3
554.702	6.29
555.044	6.31
555.386	6.35
555.728	6.34
556.07	6.33
556.412	6.35
556.754	6.39
557.096	6.41
557.438	6.4
557.78	6.37
558.121	6.39
558.463	6.43
558.805	6.45
559.147	6.45
559.488	6.48
559.83	6.51
560.171	6.5
560.513	6.53
560.854	6.52
561.196	6.5
561.537	6.53
561.878	6.51
562.22	6.5
562.561	6.46
562.902	6.49
563.243	6.52
563.584	6.48
563.925	6.49
564.266	6.46
564.607	6.47
564.948	6.51
565.289	6.51
565.63	6.5
565.971	6.49
566.312	6.49
566.653	6.47
566.993	6.47
567.334	6.49
567.675	6.45
568.015	6.49
568.356	6.51
568.696	6.53
569.037	6.5
569.377	6.52
569.718	6.59
570.058	6.57
570.398	6.55
570.739	6.59
571.079	6.61
571.419	6.64
571.759	6.66
572.099	6.66
572.439	6.66
572.779	6.66
573.119	6.69
573.459	6.72
573.799	6.73
574.139	6.72
574.479	6.73
574.819	6.74
575.158	6.72
575.498	6.72
575.838	6.7
576.177	6.73
576.517	6.74
576.856	6.73
577.196	6.76
577.535	6.78
577.875	6.77
578.214	6.73
578.553	6.74
578.893	6.71
579.232	6.69
579.571	6.69
579.91	6.69
580.25	6.68
580.589	6.66
580.928	6.7
581.267	6.7
581.606	6.65
581.945	6.68
582.283	6.71
582.622	6.69
582.961	6.69
583.3	6.67
583.639	6.67
583.977	6.67
584.316	6.65
584.654	6.59
584.993	6.61
585.332	6.6
585.67	6.62
586.008	6.62
586.347	6.65
586.685	6.61
587.024	6.63
587.362	6.63
587.7	6.63
588.038	6.64
588.376	6.64
588.715	6.69
589.053	6.71
589.391	6.71
589.729	6.75
590.067	6.79
590.404	6.83
590.742	6.82
591.08	6.77
591.418	6.79
591.756	6.82
592.093	6.85
592.431	6.88
592.769	6.86
593.106	6.85
593.444	6.82
593.781	6.84
594.119	6.88
594.456	6.87
594.793	6.84
595.131	6.83
595.468	6.85
595.805	6.86
596.143	6.84
596.48	6.81
596.817	6.77
597.154	6.75
597.491	6.74
597.828	6.73
598.165	6.79
598.502	6.76
598.839	6.75
599.176	6.7
599.512	6.7
599.849	6.71
600.186	6.71
600.523	6.79
600.859	6.8
601.196	6.78
601.532	6.78
601.869	6.79
602.205	6.78
602.542	6.78
602.878	6.75
603.215	6.77
603.551	6.82
603.887	6.85
604.223	6.86
604.56	6.87
604.896	6.91
605.232	6.93
605.568	6.93
605.904	6.93
606.24	6.94
606.576	6.95
606.912	6.95
607.248	6.97
607.583	6.95
607.919	6.94
608.255	6.93
608.591	6.96
608.926	7.01
609.262	7.06
609.597	7.06
609.933	7.07
610.268	7.06
610.604	7.01
610.939	6.99
611.275	6.99
611.61	6.99
611.945	6.94
612.281	6.92
612.616	6.95
612.951	6.97
613.286	6.98
613.621	6.98
613.956	6.97
614.291	6.94
614.626	6.96
614.961	6.93
615.296	6.92
615.631	6.92
615.966	6.9
616.3	6.82
616.635	6.82
616.97	6.82
617.304	6.78
617.639	6.79
617.973	6.79
618.308	6.81
618.642	6.78
618.977	6.8
619.311	6.79
619.646	6.79
619.98	6.85
620.314	6.91
620.648	6.9
620.983	6.88
621.317	6.91
621.651	6.93
621.985	7.03
622.319	7.08
622.653	7.05
622.987	7.09
623.321	7.14
623.655	7.17
623.988	7.23
624.322	7.24
624.656	7.3
624.99	7.32
625.323	7.33
625.657	7.4
625.99	7.43
626.324	7.44
626.657	7.5
626.991	7.49
627.324	7.47
627.658	7.51
627.991	7.58
628.324	7.61
628.657	7.57
628.991	7.57
629.324	7.56
629.657	7.64
629.99	7.6
630.323	7.63
630.656	7.63
630.989	7.66
631.322	7.7
631.655	7.66
631.987	7.68
632.32	7.69
632.653	7.67
632.986	7.69
633.318	7.71
633.651	7.7
633.984	7.68
634.316	7.68
634.649	7.68
634.981	7.68
635.313	7.64
635.646	7.67
635.978	7.63
636.31	7.61
636.643	7.59
636.975	7.63
637.307	7.56
637.639	7.53
637.971	7.48
638.303	7.47
638.635	7.46
638.967	7.44
639.299	7.4
639.631	7.45
639.963	7.37
640.295	7.31
640.626	7.32
640.958	7.32
641.29	7.29
641.621	7.23
641.953	7.13
642.285	7.2
642.616	7.26
642.948	7.27
643.279	7.32
643.61	7.32
643.942	7.33
644.273	7.34
644.604	7.33
644.936	7.37
645.267	7.34
645.598	7.34
645.929	7.38
646.26	7.47
646.591	7.46
646.922	7.49
647.253	7.55
647.584	7.5
647.915	7.53
648.245	7.5
648.576	7.5
648.907	7.58
649.238	7.55
649.568	7.53
649.899	7.57
650.229	7.57
650.56	7.6
650.89	7.55
651.221	7.54
651.551	7.6
651.882	7.63
652.212	7.65
652.542	7.65
652.872	7.67
653.203	7.65
653.533	7.65
653.863	7.66
654.193	7.63
654.523	7.66
654.853	7.67
655.183	7.74
655.513	7.77
655.843	7.75
656.172	7.75
656.502	7.74
656.832	7.71
657.162	7.7
657.491	7.66
657.821	7.71
658.15	7.74
658.48	7.78
658.809	7.76
659.139	7.79
659.468	7.8
659.798	7.78
660.127	7.75
660.456	7.78
660.785	7.84
661.115	7.87
661.444	7.85
661.773	7.92
662.102	7.87
662.431	7.94
662.76	8
663.089	8
663.418	7.97
663.747	8.02
664.076	8.02
664.404	8.06
664.733	8.08
665.062	8.1
665.39	8.02
665.719	7.95
666.048	7.98
666.376	7.98
666.705	7.96
667.033	7.97
667.362	8.02
667.69	7.88
668.018	7.88
668.347	7.84
668.675	7.77
669.003	7.82
669.331	7.84
669.659	7.85
669.987	7.9
670.315	7.96
670.643	7.97
670.971	7.93
671.299	7.87
671.627	7.88
671.955	7.81
672.283	7.92
672.61	7.98
672.938	7.99
673.266	8.05
673.593	8.14
673.921	8.13
674.249	8.05
674.576	8.14
674.904	8.16
675.231	8.24
675.558	8.22
675.886	8.16
676.213	8.03
676.54	8.02
676.867	8.02
677.195	7.98
677.522	7.93
677.849	7.94
678.176	8.01
678.503	8
678.83	7.99
679.157	7.94
679.484	7.97
679.81	7.94
680.137	7.92
680.464	7.91
680.791	7.91
681.117	7.86
681.444	7.86
681.771	7.95
682.097	7.89
682.424	7.91
682.75	7.97
683.077	8.03
683.403	8.05
683.729	8.04
684.056	8.06
684.382	8.1
684.708	8.03
685.034	7.96
685.36	8.06
685.686	8.1
686.012	8.1
686.339	8.07
686.664	8.02
686.99	8.12
687.316	8.03
687.642	8.11
687.968	8.22
688.294	8.28
688.619	8.18
688.945	8.24
689.271	8.26
689.596	8.29
689.922	8.36
690.247	8.22
690.573	8.16
690.898	8.18
691.224	8.2
691.549	8.41
691.874	8.4
692.2	8.39
692.525	8.47
692.85	8.5
693.175	8.56
693.5	8.62
693.825	8.53
694.15	8.6
694.475	8.52
694.8	8.53
695.125	8.46
695.45	8.41
695.775	8.5
696.099	8.39
696.424	8.31
696.749	8.15
697.073	8.23
697.398	8.35
697.723	8.31
698.047	8.26
698.372	8.24
698.696	8.31
699.02	8.28
699.345	8.26
699.669	8.25
699.993	8.07
700.318	8.05
700.642	8.06
700.966	8.03
701.29	8.1
701.614	8.13
701.938	8.18
702.262	8.27
702.586	8.24
702.91	8.36
703.234	8.47
703.557	8.74
703.881	8.85
704.205	8.87
704.529	8.88
704.852	8.96
705.176	9.01
705.499	9.08
705.823	9
706.146	9.02
706.47	9.03
706.793	9.22
707.117	9.22
707.44	9.12
707.763	9.15
708.086	9.01
708.409	8.88
708.733	8.94
709.056	9.02
709.379	9.13
709.702	9.11
710.025	9.15
710.348	8.93
710.671	8.8
710.993	8.76
711.316	8.73
711.639	8.8
711.962	8.54
712.284	8.39
712.607	8.49
712.93	8.54
713.252	8.57
713.575	8.59
713.897	8.61
714.22	8.64
714.542	8.7
714.864	8.77
715.187	8.79
715.509	8.8
715.831	8.65
716.153	8.5
716.475	8.51
716.798	8.46
717.12	8.6
717.442	8.72
717.764	8.6
718.085	8.73
718.407	8.66
718.729	8.83
719.051	8.97
719.373	8.89
719.695	8.77
720.016	8.59
720.338	8.71
720.659	8.7
720.981	8.72
721.302	8.7
721.624	8.75
721.945	8.81
722.267	8.59
722.588	8.67
722.909	8.81
723.231	8.57
723.552	8.48
723.873	8.51
724.194	8.3
724.515	8.4
724.836	8.34
725.157	8.51
725.478	8.38
725.799	8.46
726.12	8.54
726.441	8.55
726.762	8.76
727.083	8.79
727.403	8.88
727.724	8.96
728.045	9
728.365	8.95
728.686	8.99
729.006	9.2
729.327	9
729.647	9.01
729.967	9.18
730.288	9.21
730.608	9.11
730.928	9.32
731.249	9.33
731.569	9.46
731.889	9.24
732.209	9.31
732.529	9.27
732.849	9.2
733.169	9.34
733.489	9.25
733.809	9.2
734.129	9.11
734.448	9.22
734.768	9.23
735.088	9.22
735.408	9.27
735.727	9.24
736.047	9.56
736.366	9.49
736.686	9.38
737.005	9.55
737.325	9.51
737.644	9.43
737.963	9.52
738.283	9.29
738.602	9.4
738.921	9.47
739.24	9.56
739.56	9.59
739.879	9.45
740.198	9.71
740.517	9.46
740.836	9.63
741.155	9.55
741.473	9.47
741.792	9.46
742.111	9.29
742.43	9.25
742.748	9.01
743.067	8.95
743.386	9.24
743.704	9.14
744.023	9.32
744.341	9.3
744.66	9.56
744.978	9.68
745.297	9.72
745.615	9.85
745.933	9.74
746.252	9.93
746.57	10.05
746.888	9.99
747.206	10.26
747.524	10.14
747.842	10.13
748.16	10.27
748.478	10.4
748.796	10.54
749.114	10.68
749.432	10.78
749.749	10.77
750.067	10.54
750.385	10.67
750.703	10.62
751.02	10.67
751.338	10.51
751.655	10.55
751.973	10.68
752.29	10.47
752.608	10.38
752.925	10.21
753.242	10.14
753.56	10.13
753.877	10.17
754.194	10.12
754.511	10.12
754.828	10.07
755.145	9.93
755.462	9.94
755.779	9.79
756.096	9.96
756.413	10.15
756.73	10.15
757.047	10
757.364	10.15
757.68	10.14
757.997	9.96
758.314	10.07
758.63	9.77
758.947	10
759.264	10.26
759.58	10.2
759.896	10.41
760.213	10.3
760.529	10.25
760.846	10.33
761.162	10.2
761.478	10.32
761.794	10.39
762.11	10.22
762.426	10.2
762.743	10.05
763.059	9.86
763.375	10.05
763.69	10.25
764.006	10.26
764.322	10.35
764.638	10.33
764.954	10.59
765.27	10.87
765.585	10.81
765.901	10.64
766.216	10.74
766.532	10.51
766.848	10.6
767.163	10.5
767.478	10.54
767.794	10.63
768.109	10.53
768.424	10.73
768.74	11.08
769.055	11.17
769.37	11.35
769.685	11.44
770	11.45
770.315	11.49
770.63	11.54
770.945	11.33
771.26	11.54
771.575	11.25
771.89	11.15
772.205	11.13
772.52	11.11
772.834	11.13
773.149	11.07
773.464	11.1
773.778	11.31
774.093	10.93
774.407	10.97
774.722	10.99
775.036	10.75
775.351	10.61
775.665	10.36
775.979	9.98
776.293	10.23
776.608	9.92
776.922	9.55
777.236	8.97
777.55	8.94
777.864	9.05
778.178	9.12
778.492	9.19
778.806	9.06
779.12	9.41
779.434	9.52
779.747	9.73
780.061	9.67
780.375	9.69
780.689	9.87
781.002	9.72
781.316	9.61
781.629	9.87
781.943	9.9
782.256	10.21
782.57	10.48
782.883	10.31
783.196	10.75
783.51	10.76
783.823	11.3
784.136	11.38
784.449	11
784.762	11.05
785.075	10.94
785.388	11.1
785.701	10.48
786.014	10.04
786.327	9.92
786.64	10.29
786.953	10.98
787.266	10.72
787.578	10.96
787.891	10.89
788.204	10.84
788.516	11.1
788.829	11.16
789.141	11.31
789.454	11.63
789.766	11.35
790.079	11.84
790.391	11.61
790.703	12.26
791.016	12.62
791.328	12.75
791.64	12.48
791.952	12.67
792.264	13.02
792.576	13.45
792.888	13.64
793.2	13.39
793.512	12.32
793.824	13.03
794.136	12.85
794.448	13.04
794.76	12.72
795.071	12.63
795.383	12.1
795.695	11.75
796.006	11.42
796.318	11.38
796.629	11.13
796.941	11.3
797.252	10.79
797.564	10.53
797.875	10.35
798.186	10.55
798.497	10.72
798.809	10.73
799.12	10.62
799.431	10.27
799.742	10.26
800.053	10.9
800.364	10.74
800.675	10.93
800.986	11.19
801.297	10.83
801.608	10.8
801.918	11.36
802.229	11.85
802.54	11.7
802.851	11.77
803.161	11.85
803.472	11.83
803.782	11.83
804.093	12.07
804.403	11.93
804.714	11.7
805.024	11.16
805.334	11.34
805.645	11.45
805.955	12.17
806.265	11.83
806.575	11.51
806.885	11.68
807.195	11.31
807.505	11.26
807.815	11.57
808.125	11.37
808.435	10.81
808.745	10.42
809.055	10.85
809.365	11.17
809.674	10.56
809.984	10.4
810.294	9.68
810.603	9.81
810.913	10.23
811.222	10.51
811.532	11.02
811.841	11.28
812.151	11.19
812.46	10.74
812.769	11.45
813.079	11.8
813.388	11.3
813.697	12.04
814.006	11.48
814.315	11.92
814.624	12.35
814.933	13.33
815.242	13.73
815.551	13.81
815.86	13.37
816.169	13.66
816.478	13.88
816.786	14.02
817.095	13.79
817.404	13.48
817.712	13.24
818.021	13.07
818.33	12.12
818.638	11.94
818.947	12.46
819.255	12.51
819.563	12.52
819.872	12.84
820.18	13.19
820.488	13.57
820.796	13.63
821.105	13.44
821.413	13.39
821.721	13.41
822.029	13.3
822.337	13.48
822.645	13.72
822.953	13.67
823.26	13.81
823.568	13.8
823.876	13.81
824.184	13.94
824.491	13.81
824.799	13.94
825.107	14.09
825.414	14.02
825.722	13.95
826.029	13.94
826.337	14.05
826.644	13.92
826.951	13.83
827.259	13.8
827.566	13.81
827.873	13.78
828.18	13.58
828.488	13.83
828.795	13.74
829.102	13.43
829.409	13.56
829.716	13.52
830.023	13.52
830.329	13.59
830.636	13.55
830.943	13.62
831.25	13.73
831.557	13.45
831.863	13.19
832.17	13.05
832.476	13.27
832.783	13.38
833.089	13.4
833.396	13.62
833.702	13.66
834.009	13.49
834.315	13.28
834.621	13.91
834.928	13.77
835.234	13.83
835.54	14.14
835.846	14.01
836.152	13.93
836.458	13.73
836.764	13.53
837.07	13.46
837.376	13.74
837.682	13.49
837.988	13.68
838.293	13.96
838.599	14.13
838.905	13.65
839.211	13.19
839.516	12.5
839.822	11.98
840.127	11.55
840.433	12.03
840.738	11.91
841.044	11.36
841.349	11.92
841.654	11.54
841.959	11.36
842.265	11.92
842.57	12.35
842.875	12.71
843.18	13.22
843.485	13.84
843.79	12.92
844.095	13.73
844.4	14.96
844.705	14.76
845.01	14.84
845.315	14.88
845.619	14.08
845.924	14.81
846.229	15.56
846.533	15.54
846.838	14.61
847.142	15.64
847.447	15.24
847.751	13.55
848.056	12.78
848.36	12.93
848.664	12.27
848.969	11.99
849.273	11.53
849.577	9.88
849.881	9.26
850.185	11.15
850.489	11.03
850.794	8.86
851.097	9.45
851.401	9.52
851.705	10.39
852.009	12.23
852.313	12.77
852.617	12.92
852.92	15.56
853.224	16.04
853.528	15.77
853.831	16.46
854.135	15.86
854.438	17.92
854.742	17.38
855.045	17.72
855.349	17.62
855.652	17.1
855.955	16.94
856.259	16.21
856.562	17.59
856.865	19.61
857.168	20.59
857.471	20.91
857.774	20.29
858.077	19.59
858.38	17.48
858.683	17.22
858.986	14.86
859.289	13.16
859.592	13.18
859.894	15.87
860.197	14.79
860.5	16.12
860.802	16.24
861.105	16.29
861.407	17
861.71	17.87
862.012	18.44
862.315	18.54
862.617	18.39
862.919	17.29
863.222	15.95
863.524	16.17
863.826	16.94
864.128	16.8
864.43	18.67
864.732	22.49
865.034	21.37
865.336	23.3
865.638	23.71
865.94	25.02
866.242	22.25
866.544	23.08
866.846	23.13
867.147	22.52
867.449	22.37
867.751	19.67
868.052	18.9
868.354	19.57
868.655	21.68
868.957	23.7
869.258	21.78
869.56	21.45
869.861	18.98
870.162	17.67
870.463	18.81
870.765	17.27
871.066	14.4
871.367	13.91
871.668	14.82
871.969	13.18
872.27	12.48
872.571	11.06
872.872	12.47
873.173	9.7
873.473	7.92
873.774	7.74
874.075	9.58
874.376	9.48
874.676	9.15
874.977	4.38
875.277	4.25
875.578	5.28
875.878	4.13
876.179	6.04
876.479	6.01
876.78	5.14
877.08	4.45
877.38	3.9
877.68	5.78
877.981	3.97
878.281	5.11
878.581	4.18
