Data from BA28468_Reflection_00001.txt Node
Date: Mon Nov 18 15:14:38 EST 2019
User: vgr7
Spectrometer: USB2G7710
Scans to average: 3
Trigger mode: 4
Integration Time (sec): 2.000000E-2
Electric dark correction enabled: true
Boxcar width: 10
XAxis mode: Wavelengths
Number of Pixels in Spectrum: 2048
>>>>>Begin Spectral Data<<<<<
177.721	56.49
178.105	814.29
178.488	22.32
178.871	53.97
179.254	74.03
179.636	-228.95
180.019	28.11
180.402	34.55
180.785	14.33
181.168	-96.13
181.55	-104.51
181.933	-1076.47
182.316	-393.51
182.698	-344.91
183.081	-203.65
183.463	-179.43
183.846	-7592.31
184.228	-880.13
184.611	-300
184.993	-109.6
185.376	-65.89
185.758	-65.25
186.14	-88.2
186.522	-120.23
186.904	-74.11
187.287	-93.86
187.669	-61.75
188.051	-67.84
188.433	-47.64
188.815	-44.63
189.197	-44.2
189.579	-43.15
189.961	-64.28
190.342	-46.61
190.724	-39.24
191.106	-48
191.488	-34.31
191.869	-27.91
192.251	-22.22
192.633	-10.17
193.014	-20.34
193.396	-37.05
193.777	-26.74
194.159	-26.08
194.54	-20.53
194.922	-22.22
195.303	-23.2
195.684	-18.1
196.065	-9.01
196.447	-11.19
196.828	-20.62
197.209	-11.5
197.59	-14.35
197.971	-16.54
198.352	-20.11
198.733	-19.82
199.114	-1.35
199.495	-9.17
199.876	-22.12
200.257	-26.18
200.638	-29.75
201.018	-27.8
201.399	-21.74
201.78	-20.61
202.16	-30.83
202.541	-40.64
202.922	-46.48
203.302	-42.05
203.683	-47.91
204.063	-52.08
204.444	-59.07
204.824	-48.07
205.204	-49.75
205.585	-38.13
205.965	-38.39
206.345	-39.63
206.725	-53.78
207.106	-78.56
207.486	-88.81
207.866	-71.02
208.246	-78.26
208.626	-87.88
209.006	-86.7
209.386	-84.69
209.766	-85.96
210.145	-64.06
210.525	-53.22
210.905	-52.28
211.285	-44.39
211.664	-37.18
212.044	-46.75
212.424	-32.42
212.803	-35.65
213.183	-38.42
213.562	-37.49
213.942	-16.6
214.321	-6.87
214.701	-3.44
215.08	-3.83
215.459	3.71
215.838	3.75
216.218	8.98
216.597	16.2
216.976	19.44
217.355	16.83
217.734	16.24
218.113	13.8
218.492	7.11
218.871	-2.16
219.25	7.28
219.629	-0.21
220.008	-1.45
220.387	-5.24
220.766	3.7
221.144	-1.77
221.523	-6.61
221.902	-16.44
222.28	-22.29
222.659	-18.01
223.037	-17.41
223.416	-18.25
223.794	-17.73
224.173	-15.6
224.551	-8.18
224.929	-7.98
225.308	-5.41
225.686	-5.88
226.064	-8.7
226.442	-5.78
226.821	-0.35
227.199	-6.54
227.577	-3.94
227.955	-4.93
228.333	-2.27
228.711	-2.28
229.089	0.81
229.467	0.84
229.845	-0.45
230.222	1.67
230.6	1.71
230.978	2.68
231.356	3.68
231.733	4.25
232.111	4.73
232.488	3.49
232.866	3.57
233.243	3.72
233.621	2.14
233.998	3.76
234.376	2.91
234.753	2.85
235.13	3.6
235.508	3.34
235.885	4.8
236.262	3.03
236.639	2.52
237.016	1.44
237.393	2.99
237.77	5.03
238.147	5.93
238.524	5.5
238.901	5.68
239.278	6.18
239.655	6.03
240.032	5.5
240.409	4.91
240.785	4.97
241.162	4.85
241.539	5.05
241.915	4.87
242.292	4.73
242.668	4.81
243.045	4.54
243.421	4.59
243.798	4.11
244.174	4.62
244.551	4.47
244.927	4.34
245.303	4.27
245.679	4.04
246.056	3.88
246.432	4.06
246.808	4.04
247.184	3.71
247.56	3.41
247.936	3.4
248.312	3.55
248.688	3.61
249.064	3.59
249.44	3.77
249.815	3.92
250.191	4.03
250.567	3.98
250.943	3.95
251.318	3.87
251.694	3.97
252.069	3.85
252.445	4.15
252.82	4.44
253.196	4.23
253.571	4.18
253.947	4.12
254.322	4.27
254.697	4.26
255.073	4.14
255.448	4.32
255.823	4.25
256.198	4.29
256.573	4.22
256.948	4.29
257.323	4.27
257.698	4.34
258.073	4.32
258.448	4.52
258.823	4.71
259.198	4.77
259.573	4.76
259.948	4.59
260.322	4.47
260.697	4.28
261.072	4.27
261.446	4.21
261.821	4.17
262.195	4.15
262.57	4.1
262.944	4.18
263.319	4.35
263.693	4.38
264.067	4.4
264.442	4.51
264.816	4.52
265.19	4.54
265.564	4.35
265.938	4.4
266.313	4.12
266.687	4.15
267.061	4.15
267.435	4.22
267.809	4.36
268.183	4.41
268.556	4.6
268.93	4.58
269.304	4.82
269.678	4.93
270.051	4.83
270.425	4.81
270.799	4.74
271.172	4.53
271.546	4.42
271.919	4.37
272.293	4.33
272.666	4.29
273.04	4.18
273.413	4.25
273.787	4.19
274.16	4.25
274.533	4.2
274.906	4.03
275.279	3.95
275.653	3.88
276.026	3.9
276.399	3.89
276.772	4.04
277.145	3.88
277.518	3.86
277.891	3.94
278.263	4.01
278.636	4.03
279.009	4.15
279.382	4.49
279.755	4.5
280.127	4.59
280.5	4.71
280.872	4.88
281.245	4.9
281.617	4.98
281.99	4.97
282.362	4.97
282.735	5.08
283.107	5.12
283.479	5.19
283.852	5.33
284.224	5.25
284.596	5.23
284.968	5.2
285.34	5.26
285.713	5.11
286.085	5.12
286.457	5.12
286.829	5.11
287.201	5
287.572	4.98
287.944	4.91
288.316	4.92
288.688	4.78
289.06	4.67
289.431	4.71
289.803	4.84
290.175	4.89
290.546	5.04
290.918	5.03
291.289	4.97
291.661	4.81
292.032	4.97
292.403	4.91
292.775	5
293.146	4.82
293.517	4.9
293.889	4.99
294.26	5.11
294.631	5.06
295.002	5.05
295.373	5.13
295.744	5.06
296.115	5.07
296.486	5.06
296.857	5.14
297.228	5.08
297.599	5.04
297.97	5.03
298.34	4.94
298.711	5.04
299.082	5.09
299.452	5.19
299.823	5.13
300.194	5.2
300.564	5.15
300.935	5.35
301.305	5.37
301.676	5.25
302.046	5.38
302.416	5.56
302.787	5.46
303.157	5.38
303.527	5.49
303.897	5.48
304.267	5.73
304.637	5.78
305.008	5.85
305.378	5.82
305.748	5.83
306.117	5.84
306.487	5.84
306.857	5.84
307.227	5.87
307.597	5.86
307.967	5.9
308.336	5.94
308.706	5.82
309.076	5.85
309.445	5.9
309.815	5.79
310.184	5.7
310.554	5.88
310.923	5.9
311.293	5.95
311.662	5.96
312.031	5.89
312.401	5.92
312.77	5.96
313.139	6.01
313.508	6.04
313.877	5.99
314.246	6.02
314.616	6.16
314.985	6.12
315.353	6.05
315.722	6.05
316.091	6.03
316.46	5.96
316.829	5.98
317.198	6.06
317.567	5.96
317.935	5.91
318.304	5.91
318.672	5.73
319.041	5.69
319.41	5.59
319.778	5.52
320.147	5.49
320.515	5.43
320.883	5.22
321.252	5.21
321.62	5.28
321.988	5.19
322.357	5.13
322.725	5.17
323.093	5.31
323.461	5.26
323.829	5.32
324.197	5.5
324.565	5.57
324.933	5.46
325.301	5.53
325.669	5.52
326.037	5.5
326.405	5.6
326.772	5.73
327.14	5.97
327.508	5.93
327.875	5.87
328.243	6.02
328.61	6.21
328.978	6.24
329.346	6.3
329.713	6.27
330.08	6.23
330.448	6.04
330.815	5.87
331.182	5.89
331.55	5.9
331.917	5.9
332.284	5.97
332.651	5.9
333.018	5.78
333.385	5.8
333.752	5.77
334.119	5.89
334.486	5.82
334.853	5.79
335.22	5.75
335.587	5.83
335.954	5.81
336.32	5.69
336.687	5.8
337.054	5.74
337.42	5.84
337.787	5.82
338.153	5.95
338.52	6.16
338.886	6.18
339.253	6.05
339.619	6.08
339.986	5.93
340.352	6.04
340.718	6.27
341.084	6.21
341.451	6.22
341.817	6.19
342.183	6.12
342.549	6.02
342.915	6.16
343.281	6.1
343.647	6.08
344.013	6.08
344.379	5.9
344.745	5.92
345.11	5.91
345.476	5.93
345.842	5.93
346.208	5.83
346.573	5.9
346.939	6.02
347.304	5.86
347.67	5.89
348.035	5.92
348.401	5.93
348.766	6.03
349.132	6.09
349.497	6.07
349.862	6.15
350.228	6.15
350.593	6.01
350.958	6.03
351.323	6.01
351.688	6.08
352.053	6.13
352.418	6.15
352.783	6.12
353.148	6.12
353.513	6.09
353.878	6.11
354.243	6.04
354.608	6.12
354.972	6.24
355.337	6.29
355.702	6.3
356.066	6.24
356.431	6.24
356.795	6.27
357.16	6.34
357.524	6.28
357.889	6.27
358.253	6.41
358.618	6.39
358.982	6.35
359.346	6.26
359.71	6.24
360.075	6.25
360.439	6.27
360.803	6.25
361.167	6.29
361.531	6.26
361.895	6.29
362.259	6.18
362.623	6.19
362.987	6.15
363.351	6.17
363.714	6.21
364.078	6.19
364.442	6.13
364.806	6.07
365.169	6.11
365.533	6.14
365.896	6.11
366.26	6.15
366.623	6.13
366.987	6.22
367.35	6.31
367.714	6.31
368.077	6.34
368.44	6.4
368.803	6.36
369.167	6.36
369.53	6.27
369.893	6.35
370.256	6.3
370.619	6.31
370.982	6.29
371.345	6.25
371.708	6.26
372.071	6.29
372.434	6.28
372.797	6.31
373.159	6.27
373.522	6.32
373.885	6.36
374.247	6.47
374.61	6.42
374.973	6.35
375.335	6.29
375.698	6.27
376.06	6.28
376.423	6.29
376.785	6.32
377.147	6.43
377.51	6.41
377.872	6.43
378.234	6.4
378.596	6.38
378.958	6.4
379.321	6.45
379.683	6.48
380.045	6.55
380.407	6.49
380.769	6.49
381.13	6.45
381.492	6.42
381.854	6.38
382.216	6.42
382.578	6.47
382.939	6.44
383.301	6.4
383.663	6.36
384.024	6.35
384.386	6.42
384.747	6.42
385.109	6.49
385.47	6.48
385.832	6.5
386.193	6.55
386.554	6.49
386.916	6.47
387.277	6.5
387.638	6.45
387.999	6.48
388.36	6.5
388.721	6.53
389.082	6.55
389.443	6.52
389.804	6.52
390.165	6.53
390.526	6.58
390.887	6.59
391.248	6.58
391.609	6.55
391.969	6.53
392.33	6.49
392.691	6.45
393.051	6.48
393.412	6.49
393.772	6.45
394.133	6.5
394.493	6.51
394.854	6.47
395.214	6.48
395.574	6.46
395.935	6.42
396.295	6.39
396.655	6.35
397.015	6.36
397.376	6.34
397.736	6.33
398.096	6.35
398.456	6.39
398.816	6.41
399.176	6.42
399.535	6.38
399.895	6.38
400.255	6.36
400.615	6.32
400.975	6.3
401.334	6.34
401.694	6.33
402.054	6.3
402.413	6.33
402.773	6.33
403.132	6.36
403.492	6.42
403.851	6.43
404.211	6.45
404.57	6.44
404.929	6.44
405.288	6.43
405.648	6.39
406.007	6.37
406.366	6.38
406.725	6.41
407.084	6.41
407.443	6.44
407.802	6.47
408.161	6.49
408.52	6.51
408.879	6.51
409.238	6.5
409.596	6.53
409.955	6.53
410.314	6.54
410.673	6.55
411.031	6.53
411.39	6.5
411.748	6.52
412.107	6.55
412.465	6.57
412.824	6.55
413.182	6.55
413.54	6.56
413.899	6.56
414.257	6.55
414.615	6.55
414.974	6.54
415.332	6.53
415.69	6.51
416.048	6.5
416.406	6.49
416.764	6.48
417.122	6.48
417.48	6.47
417.838	6.47
418.195	6.45
418.553	6.45
418.911	6.48
419.269	6.46
419.626	6.46
419.984	6.47
420.342	6.48
420.699	6.49
421.057	6.49
421.414	6.48
421.772	6.48
422.129	6.49
422.486	6.49
422.844	6.5
423.201	6.48
423.558	6.49
423.915	6.49
424.273	6.5
424.63	6.5
424.987	6.5
425.344	6.49
425.701	6.51
426.058	6.5
426.415	6.49
426.772	6.5
427.128	6.49
427.485	6.49
427.842	6.49
428.199	6.48
428.555	6.48
428.912	6.5
429.269	6.49
429.625	6.5
429.982	6.49
430.338	6.49
430.695	6.51
431.051	6.51
431.407	6.52
431.764	6.53
432.12	6.53
432.476	6.55
432.832	6.54
433.189	6.54
433.545	6.55
433.901	6.56
434.257	6.56
434.613	6.57
434.969	6.55
435.325	6.57
435.681	6.59
436.036	6.6
436.392	6.6
436.748	6.62
437.104	6.63
437.459	6.62
437.815	6.62
438.171	6.62
438.526	6.61
438.882	6.58
439.237	6.57
439.593	6.58
439.948	6.57
440.304	6.57
440.659	6.55
441.014	6.55
441.369	6.55
441.725	6.54
442.08	6.54
442.435	6.56
442.79	6.54
443.145	6.56
443.5	6.55
443.855	6.55
444.21	6.54
444.565	6.53
444.92	6.53
445.275	6.53
445.629	6.54
445.984	6.53
446.339	6.54
446.693	6.54
447.048	6.53
447.403	6.51
447.757	6.54
448.112	6.53
448.466	6.52
448.82	6.53
449.175	6.55
449.529	6.54
449.883	6.53
450.238	6.53
450.592	6.52
450.946	6.48
451.3	6.48
451.654	6.51
452.008	6.51
452.362	6.53
452.716	6.51
453.07	6.51
453.424	6.53
453.778	6.54
454.132	6.54
454.486	6.55
454.839	6.57
455.193	6.55
455.547	6.57
455.9	6.58
456.254	6.56
456.607	6.56
456.961	6.57
457.314	6.57
457.668	6.55
458.021	6.52
458.375	6.53
458.728	6.53
459.081	6.51
459.434	6.51
459.787	6.49
460.141	6.51
460.494	6.51
460.847	6.5
461.2	6.49
461.553	6.5
461.906	6.5
462.259	6.5
462.611	6.49
462.964	6.49
463.317	6.48
463.67	6.49
464.022	6.48
464.375	6.48
464.728	6.49
465.08	6.51
465.433	6.54
465.785	6.56
466.138	6.56
466.49	6.57
466.843	6.58
467.195	6.58
467.547	6.58
467.899	6.59
468.252	6.57
468.604	6.58
468.956	6.58
469.308	6.56
469.66	6.56
470.012	6.56
470.364	6.55
470.716	6.57
471.068	6.58
471.42	6.58
471.772	6.57
472.123	6.57
472.475	6.57
472.827	6.57
473.178	6.57
473.53	6.53
473.882	6.51
474.233	6.54
474.585	6.56
474.936	6.54
475.288	6.55
475.639	6.57
475.99	6.57
476.342	6.59
476.693	6.61
477.044	6.64
477.395	6.63
477.746	6.63
478.097	6.61
478.448	6.6
478.8	6.6
479.15	6.61
479.501	6.63
479.852	6.64
480.203	6.64
480.554	6.66
480.905	6.68
481.255	6.71
481.606	6.72
481.957	6.72
482.307	6.75
482.658	6.75
483.009	6.75
483.359	6.76
483.709	6.77
484.06	6.77
484.41	6.77
484.761	6.78
485.111	6.78
485.461	6.79
485.811	6.79
486.162	6.8
486.512	6.81
486.862	6.81
487.212	6.81
487.562	6.81
487.912	6.82
488.262	6.83
488.612	6.83
488.961	6.82
489.311	6.82
489.661	6.8
490.011	6.79
490.36	6.78
490.71	6.77
491.06	6.77
491.409	6.77
491.759	6.75
492.108	6.75
492.458	6.74
492.807	6.73
493.157	6.74
493.506	6.73
493.855	6.72
494.204	6.7
494.554	6.7
494.903	6.69
495.252	6.67
495.601	6.66
495.95	6.64
496.299	6.64
496.648	6.63
496.997	6.62
497.346	6.61
497.695	6.61
498.043	6.62
498.392	6.6
498.741	6.61
499.09	6.6
499.438	6.6
499.787	6.6
500.135	6.63
500.484	6.62
500.832	6.62
501.181	6.62
501.529	6.63
501.878	6.65
502.226	6.64
502.574	6.65
502.923	6.63
503.271	6.65
503.619	6.66
503.967	6.67
504.315	6.67
504.663	6.69
505.011	6.7
505.359	6.7
505.707	6.7
506.055	6.7
506.403	6.73
506.751	6.72
507.098	6.71
507.446	6.72
507.794	6.73
508.141	6.74
508.489	6.75
508.837	6.76
509.184	6.77
509.531	6.8
509.879	6.81
510.226	6.83
510.574	6.82
510.921	6.8
511.268	6.8
511.616	6.81
511.963	6.83
512.31	6.79
512.657	6.81
513.004	6.82
513.351	6.83
513.698	6.8
514.045	6.81
514.392	6.83
514.739	6.82
515.086	6.82
515.432	6.82
515.779	6.8
516.126	6.81
516.473	6.8
516.819	6.8
517.166	6.8
517.512	6.78
517.859	6.8
518.205	6.8
518.552	6.82
518.898	6.83
519.245	6.82
519.591	6.86
519.937	6.85
520.283	6.85
520.629	6.84
520.976	6.87
521.322	6.89
521.668	6.9
522.014	6.9
522.36	6.92
522.706	6.93
523.052	6.94
523.398	6.92
523.743	6.91
524.089	6.91
524.435	6.91
524.781	6.93
525.126	6.94
525.472	6.96
525.817	6.96
526.163	6.95
526.509	6.96
526.854	6.97
527.199	6.97
527.545	6.97
527.89	6.97
528.235	6.97
528.581	6.97
528.926	6.97
529.271	6.97
529.616	6.95
529.961	6.96
530.306	6.98
530.651	6.98
530.996	6.97
531.341	6.97
531.686	6.97
532.031	6.97
532.376	6.96
532.721	6.96
533.065	6.96
533.41	6.96
533.755	6.95
534.099	6.95
534.444	6.95
534.788	6.96
535.133	6.97
535.477	6.97
535.822	6.96
536.166	6.95
536.51	6.95
536.855	6.98
537.199	6.97
537.543	6.94
537.887	6.96
538.231	6.98
538.576	6.99
538.92	6.99
539.264	6.99
539.608	7
539.951	7.01
540.295	7.02
540.639	7.03
540.983	7.02
541.327	7.03
541.671	7.04
542.014	7.03
542.358	7.02
542.701	7.03
543.045	7.04
543.389	7.05
543.732	7.06
544.075	7.06
544.419	7.05
544.762	7.08
545.105	7.06
545.449	7.05
545.792	7.04
546.135	7.05
546.478	7.06
546.821	7.05
547.165	7.02
547.508	7.02
547.851	7.01
548.194	7.01
548.536	6.99
548.879	6.98
549.222	6.97
549.565	6.97
549.908	6.98
550.25	6.97
550.593	6.99
550.936	6.97
551.278	6.94
551.621	6.94
551.963	6.93
552.306	6.92
552.648	6.92
552.991	6.94
553.333	6.91
553.675	6.9
554.017	6.91
554.36	6.91
554.702	6.93
555.044	6.95
555.386	6.96
555.728	6.95
556.07	6.97
556.412	6.96
556.754	6.97
557.096	6.97
557.438	6.99
557.78	6.96
558.121	6.99
558.463	7.03
558.805	7.04
559.147	7.05
559.488	7.1
559.83	7.1
560.171	7.1
560.513	7.1
560.854	7.11
561.196	7.09
561.537	7.11
561.878	7.06
562.22	7.04
562.561	7.04
562.902	7.09
563.243	7.07
563.584	7.1
563.925	7.14
564.266	7.11
564.607	7.1
564.948	7.11
565.289	7.1
565.63	7.11
565.971	7.1
566.312	7.1
566.653	7.11
566.993	7.15
567.334	7.13
567.675	7.18
568.015	7.21
568.356	7.2
568.696	7.21
569.037	7.22
569.377	7.25
569.718	7.27
570.058	7.24
570.398	7.26
570.739	7.25
571.079	7.23
571.419	7.25
571.759	7.27
572.099	7.27
572.439	7.28
572.779	7.27
573.119	7.3
573.459	7.31
573.799	7.3
574.139	7.28
574.479	7.28
574.819	7.26
575.158	7.23
575.498	7.26
575.838	7.26
576.177	7.24
576.517	7.23
576.856	7.23
577.196	7.23
577.535	7.22
577.875	7.25
578.214	7.25
578.553	7.26
578.893	7.26
579.232	7.28
579.571	7.29
579.91	7.27
580.25	7.26
580.589	7.27
580.928	7.28
581.267	7.27
581.606	7.28
581.945	7.32
582.283	7.3
582.622	7.29
582.961	7.28
583.3	7.34
583.639	7.33
583.977	7.33
584.316	7.31
584.654	7.31
584.993	7.31
585.332	7.31
585.67	7.3
586.008	7.27
586.347	7.31
586.685	7.3
587.024	7.32
587.362	7.32
587.7	7.29
588.038	7.3
588.376	7.32
588.715	7.36
589.053	7.32
589.391	7.35
589.729	7.38
590.067	7.38
590.404	7.38
590.742	7.45
591.08	7.42
591.418	7.42
591.756	7.44
592.093	7.43
592.431	7.44
592.769	7.44
593.106	7.44
593.444	7.37
593.781	7.38
594.119	7.37
594.456	7.37
594.793	7.38
595.131	7.36
595.468	7.37
595.805	7.36
596.143	7.36
596.48	7.35
596.817	7.34
597.154	7.38
597.491	7.39
597.828	7.33
598.165	7.33
598.502	7.35
598.839	7.36
599.176	7.4
599.512	7.41
599.849	7.38
600.186	7.4
600.523	7.46
600.859	7.46
601.196	7.47
601.532	7.43
601.869	7.46
602.205	7.46
602.542	7.47
602.878	7.48
603.215	7.5
603.551	7.52
603.887	7.52
604.223	7.48
604.56	7.47
604.896	7.48
605.232	7.53
605.568	7.54
605.904	7.53
606.24	7.53
606.576	7.53
606.912	7.55
607.248	7.57
607.583	7.51
607.919	7.5
608.255	7.5
608.591	7.57
608.926	7.56
609.262	7.59
609.597	7.57
609.933	7.58
610.268	7.52
610.604	7.5
610.939	7.49
611.275	7.5
611.61	7.49
611.945	7.5
612.281	7.45
612.616	7.43
612.951	7.45
613.286	7.46
613.621	7.43
613.956	7.42
614.291	7.4
614.626	7.41
614.961	7.43
615.296	7.46
615.631	7.42
615.966	7.42
616.3	7.44
616.635	7.39
616.97	7.42
617.304	7.47
617.639	7.49
617.973	7.53
618.308	7.53
618.642	7.56
618.977	7.57
619.311	7.61
619.646	7.63
619.98	7.66
620.314	7.68
620.648	7.7
620.983	7.73
621.317	7.76
621.651	7.83
621.985	7.84
622.319	7.84
622.653	7.84
622.987	7.85
623.321	7.82
623.655	7.89
623.988	7.87
624.322	7.88
624.656	7.9
624.99	7.94
625.323	7.92
625.657	7.94
625.99	7.96
626.324	7.99
626.657	7.97
626.991	7.98
627.324	7.95
627.658	7.94
627.991	7.99
628.324	7.93
628.657	7.92
628.991	7.91
629.324	7.9
629.657	7.93
629.99	7.92
630.323	7.93
630.656	7.95
630.989	7.92
631.322	7.93
631.655	7.9
631.987	7.86
632.32	7.9
632.653	7.87
632.986	7.9
633.318	7.87
633.651	7.92
633.984	7.9
634.316	7.88
634.649	7.9
634.981	7.87
635.313	7.95
635.646	7.95
635.978	7.95
636.31	7.94
636.643	7.87
636.975	7.9
637.307	7.87
637.639	7.9
637.971	7.85
638.303	7.92
638.635	7.9
638.967	7.9
639.299	7.91
639.631	7.88
639.963	7.83
640.295	7.85
640.626	7.83
640.958	7.89
641.29	7.91
641.621	7.89
641.953	7.9
642.285	7.88
642.616	7.93
642.948	7.92
643.279	7.96
643.61	8.04
643.942	8.05
644.273	8.13
644.604	8.07
644.936	8.19
645.267	8.12
645.598	8.14
645.929	8.13
646.26	8.12
646.591	8.17
646.922	8.15
647.253	8.13
647.584	8.12
647.915	8.03
648.245	8.02
648.576	8.02
648.907	7.94
649.238	7.92
649.568	7.83
649.899	7.9
650.229	7.92
650.56	7.89
650.89	7.9
651.221	7.85
651.551	7.84
651.882	7.79
652.212	7.78
652.542	7.8
652.872	7.78
653.203	7.77
653.533	7.76
653.863	7.81
654.193	7.86
654.523	7.94
654.853	7.97
655.183	7.99
655.513	8
655.843	8.07
656.172	8.07
656.502	8.1
656.832	8.06
657.162	8.1
657.491	8.12
657.821	8.14
658.15	8.16
658.48	8.2
658.809	8.25
659.139	8.27
659.468	8.27
659.798	8.29
660.127	8.28
660.456	8.29
660.785	8.29
661.115	8.27
661.444	8.19
661.773	8.26
662.102	8.22
662.431	8.29
662.76	8.26
663.089	8.34
663.418	8.37
663.747	8.35
664.076	8.34
664.404	8.32
664.733	8.32
665.062	8.29
665.39	8.31
665.719	8.28
666.048	8.3
666.376	8.27
666.705	8.22
667.033	8.23
667.362	8.27
667.69	8.23
668.018	8.25
668.347	8.26
668.675	8.19
669.003	8.32
669.331	8.32
669.659	8.36
669.987	8.36
670.315	8.41
670.643	8.47
670.971	8.51
671.299	8.54
671.627	8.56
671.955	8.57
672.283	8.58
672.61	8.58
672.938	8.58
673.266	8.7
673.593	8.89
673.921	8.97
674.249	8.92
674.576	8.91
674.904	8.86
675.231	8.87
675.558	8.91
675.886	8.86
676.213	8.78
676.54	8.72
676.867	8.68
677.195	8.61
677.522	8.63
677.849	8.56
678.176	8.55
678.503	8.5
678.83	8.54
679.157	8.52
679.484	8.53
679.81	8.54
680.137	8.43
680.464	8.29
680.791	8.21
681.117	8.26
681.444	8.23
681.771	8.28
682.097	8.19
682.424	8.19
682.75	8.09
683.077	8.15
683.403	8.26
683.729	8.3
684.056	8.38
684.382	8.33
684.708	8.34
685.034	8.27
685.36	8.34
685.686	8.29
686.012	8.27
686.339	8.26
686.664	8.25
686.99	8.32
687.316	8.37
687.642	8.5
687.968	8.51
688.294	8.71
688.619	8.72
688.945	8.78
689.271	8.82
689.596	8.82
689.922	8.77
690.247	8.67
690.573	8.66
690.898	8.67
691.224	8.73
691.549	8.71
691.874	8.74
692.2	8.7
692.525	8.75
692.85	8.88
693.175	8.94
693.5	8.96
693.825	8.98
694.15	9.03
694.475	8.93
694.8	8.99
695.125	8.86
695.45	8.89
695.775	8.93
696.099	8.8
696.424	8.85
696.749	8.91
697.073	9.01
697.398	8.98
697.723	8.88
698.047	8.8
698.372	8.78
698.696	8.84
699.02	8.88
699.345	8.84
699.669	8.77
699.993	8.7
700.318	8.69
700.642	8.73
700.966	8.75
701.29	8.74
701.614	8.66
701.938	8.7
702.262	8.75
702.586	8.8
702.91	8.87
703.234	8.97
703.557	8.86
703.881	8.77
704.205	8.86
704.529	8.87
704.852	8.86
705.176	8.89
705.499	8.94
705.823	8.77
706.146	8.77
706.47	8.97
706.793	9.01
707.117	9.01
707.44	8.83
707.763	8.76
708.086	8.71
708.409	8.68
708.733	8.72
709.056	8.57
709.379	8.67
709.702	8.62
710.025	8.52
710.348	8.58
710.671	8.63
710.993	8.59
711.316	8.54
711.639	8.69
711.962	8.79
712.284	8.74
712.607	8.84
712.93	8.81
713.252	8.7
713.575	8.77
713.897	8.75
714.22	8.86
714.542	8.94
714.864	9.08
715.187	9.19
715.509	9.13
715.831	9.26
716.153	9.21
716.475	9.28
716.798	9.45
717.12	9.59
717.442	9.61
717.764	9.61
718.085	9.76
718.407	9.75
718.729	9.7
719.051	9.72
719.373	9.76
719.695	9.9
720.016	9.89
720.338	9.8
720.659	9.86
720.981	9.76
721.302	9.82
721.624	9.62
721.945	9.57
722.267	9.55
722.588	9.45
722.909	9.39
723.231	9.33
723.552	9.21
723.873	9.2
724.194	9.32
724.515	9.35
724.836	9.45
725.157	9.4
725.478	9.27
725.799	9.33
726.12	9.3
726.441	9.33
726.762	9.38
727.083	9.36
727.403	9.35
727.724	9.47
728.045	9.48
728.365	9.65
728.686	9.55
729.006	9.62
729.327	9.63
729.647	9.58
729.967	9.56
730.288	9.46
730.608	9.39
730.928	9.23
731.249	9.15
731.569	8.95
731.889	8.99
732.209	9.07
732.529	9.04
732.849	9.02
733.169	9.01
733.489	8.94
733.809	8.96
734.129	8.98
734.448	9.07
734.768	8.96
735.088	8.95
735.408	8.98
735.727	8.95
736.047	9.08
736.366	9
736.686	9.03
737.005	9.09
737.325	9.08
737.644	9.08
737.963	9.09
738.283	9.19
738.602	9.17
738.921	9.16
739.24	9.19
739.56	9.25
739.879	9.08
740.198	9.17
740.517	9.43
740.836	9.38
741.155	9.26
741.473	9.35
741.792	9.33
742.111	9.41
742.43	9.43
742.748	9.11
743.067	9.35
743.386	9.42
743.704	9.54
744.023	9.65
744.341	9.83
744.66	10.15
744.978	9.91
745.297	9.85
745.615	9.91
745.933	9.98
746.252	9.78
746.57	9.95
746.888	9.98
747.206	9.66
747.524	9.67
747.842	9.74
748.16	9.58
748.478	9.66
748.796	9.74
749.114	9.92
749.432	9.99
749.749	9.88
750.067	9.74
750.385	9.56
750.703	9.39
751.02	9.24
751.338	9
751.655	9.4
751.973	9.5
752.29	9.75
752.608	9.83
752.925	10.05
753.242	9.94
753.56	9.82
753.877	9.9
754.194	10.08
754.511	9.89
754.828	9.8
755.145	9.64
755.462	9.58
755.779	9.42
756.096	9.5
756.413	9.67
756.73	9.93
757.047	10.07
757.364	10.14
757.68	10.19
757.997	10.04
758.314	10.12
758.63	10.15
758.947	10.04
759.264	9.72
759.58	9.81
759.896	10
760.213	9.99
760.529	10.13
760.846	10.22
761.162	10.39
761.478	10.46
761.794	10.5
762.11	10.52
762.426	10.67
762.743	10.7
763.059	10.63
763.375	10.63
763.69	10.86
764.006	10.96
764.322	10.95
764.638	11.16
764.954	11.01
765.27	11
765.585	10.9
765.901	11.03
766.216	11.11
766.532	10.95
766.848	10.96
767.163	11.01
767.478	10.91
767.794	10.93
768.109	11.03
768.424	11.44
768.74	11.61
769.055	11.47
769.37	11.62
769.685	11.55
770	11.53
770.315	11.17
770.63	10.96
770.945	11.03
771.26	10.99
771.575	10.97
771.89	10.81
772.205	11.1
772.52	11.19
772.834	10.98
773.149	11.31
773.464	11.38
773.778	11.37
774.093	11.34
774.407	11.44
774.722	11.4
775.036	11.01
775.351	11.11
775.665	11.12
775.979	11.07
776.293	10.92
776.608	11
776.922	10.97
777.236	11.15
777.55	11.16
777.864	11.27
778.178	11.31
778.492	11.82
778.806	11.51
779.12	11.54
779.434	11.53
779.747	11.57
780.061	11.52
780.375	11.27
780.689	11.26
781.002	11.32
781.316	11.33
781.629	11.42
781.943	10.92
782.256	11.03
782.57	11.12
782.883	10.96
783.196	10.91
783.51	10.88
783.823	10.48
784.136	10.88
784.449	10.73
784.762	11.1
785.075	10.83
785.388	10.86
785.701	10.67
786.014	10.86
786.327	10.76
786.64	11.06
786.953	11.44
787.266	11.23
787.578	11.36
787.891	11.53
788.204	11.52
788.516	11.96
788.829	12.02
789.141	12.14
789.454	12.88
789.766	12.98
790.079	13.33
790.391	13.58
790.703	13.31
791.016	13.14
791.328	12.78
791.64	12.85
791.952	13.22
792.264	13.12
792.576	12.88
792.888	12.64
793.2	12.68
793.512	12.19
793.824	12.41
794.136	11.91
794.448	12.27
794.76	12.31
795.071	12.06
795.383	12.04
795.695	11.84
796.006	11.37
796.318	11.7
796.629	11.56
796.941	11.65
797.252	11.87
797.564	12.35
797.875	12.42
798.186	12.08
798.497	11.52
798.809	11.1
799.12	11.15
799.431	11.4
799.742	11.11
800.053	11.36
800.364	11.55
800.675	11.88
800.986	11.17
801.297	10.89
801.608	11.34
801.918	11.08
802.229	11.43
802.54	11.72
802.851	11.21
803.161	11.33
803.472	11.42
803.782	11.01
804.093	10.69
804.403	10.51
804.714	11.12
805.024	11.25
805.334	11.76
805.645	12.1
805.955	12.28
806.265	13.14
806.575	13.18
806.885	12.68
807.195	13.01
807.505	13.32
807.815	13.6
808.125	12.88
808.435	13.09
808.745	12.91
809.055	13.16
809.365	13.06
809.674	13.06
809.984	13.52
810.294	13.64
810.603	13.44
810.913	13.86
811.222	13.78
811.532	13.99
811.841	14.77
812.151	14.57
812.46	14.35
812.769	13.67
813.079	13.43
813.388	13.35
813.697	13.44
814.006	13.34
814.315	13.31
814.624	13.45
814.933	14.07
815.242	14.5
815.551	14.54
815.86	15.14
816.169	15.08
816.478	14.27
816.786	14.18
817.095	15.13
817.404	15.44
817.712	14.88
818.021	15.28
818.33	14.97
818.638	14.73
818.947	14.6
819.255	14.69
819.563	14.8
819.872	15
820.18	14.68
820.488	14.68
820.796	14.54
821.105	14.72
821.413	14.49
821.721	14.14
822.029	13.99
822.337	13.89
822.645	13.95
822.953	13.9
823.26	14.1
823.568	13.88
823.876	13.78
824.184	13.78
824.491	13.53
824.799	13.55
825.107	13.59
825.414	13.67
825.722	13.52
826.029	13.48
826.337	13.5
826.644	13.5
826.951	13.4
827.259	13.3
827.566	13.14
827.873	13.16
828.18	13.28
828.488	13.25
828.795	13.2
829.102	12.88
829.409	13.01
829.716	12.72
830.023	12.71
830.329	12.64
830.636	12.9
830.943	13.09
831.25	13.12
831.557	13.22
831.863	13.25
832.17	13.46
832.476	13.7
832.783	13.74
833.089	13.57
833.396	13.77
833.702	14.18
834.009	14.39
834.315	14.14
834.621	14.07
834.928	14.06
835.234	14.38
835.54	14.37
835.846	14.81
836.152	14.47
836.458	14.39
836.764	14.38
837.07	14.06
837.376	13.6
837.682	13.58
837.988	13.49
838.293	13.29
838.599	12.99
838.905	12.56
839.211	12.24
839.516	12.41
839.822	12.56
840.127	12
840.433	11.97
840.738	11.62
841.044	11.75
841.349	12.07
841.654	11.52
841.959	12.13
842.265	11.02
842.57	11.29
842.875	11.36
843.18	12.02
843.485	12.68
843.79	14.1
844.095	13.3
844.4	13.04
844.705	12.4
845.01	13.14
845.315	13.07
845.619	13.1
845.924	12.51
846.229	11.37
846.533	12.52
846.838	11.29
847.142	12.03
847.447	10.89
847.751	10.92
848.056	10.26
848.36	10.76
848.664	11.23
848.969	11.03
849.273	9.11
849.577	8.17
849.881	7.71
850.185	8.31
850.489	8.92
850.794	10.03
851.097	10.97
851.401	10.18
851.705	10.19
852.009	10.77
852.313	11.89
852.617	12.8
852.92	13.88
853.224	14.33
853.528	14.82
853.831	14.07
854.135	13.23
854.438	13.72
854.742	13.7
855.045	13.47
855.349	14.07
855.652	16.59
855.955	16.05
856.259	16.38
856.562	18.03
856.865	18
857.168	17.8
857.471	17.1
857.774	16.95
858.077	16.7
858.38	15.45
858.683	14.87
858.986	15.08
859.289	12.37
859.592	12.32
859.894	13.51
860.197	15.43
860.5	15.42
860.802	15.04
861.105	13.24
861.407	14.3
861.71	14.71
862.012	14.57
862.315	14.88
862.617	14.49
862.919	11.04
863.222	11.91
863.524	9.59
863.826	10.04
864.128	11.47
864.43	12.83
864.732	13.53
865.034	13.43
865.336	13.36
865.638	15.47
865.94	13.09
866.242	10.15
866.544	7.83
866.846	9.84
867.147	9.25
867.449	10.51
867.751	12.2
868.052	13.3
868.354	12.32
868.655	14
868.957	13.18
869.258	14.86
869.56	16.44
869.861	17.99
870.162	19.2
870.463	17.15
870.765	16.34
871.066	15.09
871.367	13.85
871.668	13.99
871.969	12.62
872.27	14.07
872.571	14.9
872.872	15.86
873.173	13.76
873.473	14.56
873.774	15.49
874.075	12.89
874.376	12.64
874.676	14.87
874.977	13.17
875.277	13.88
875.578	12.76
875.878	9.9
876.179	9.87
876.479	8.74
876.78	9.11
877.08	9.28
877.38	11.54
877.68	13.56
877.981	13.06
878.281	13.26
878.581	16.34
