Data from BA28467_Reflection_00015.txt Node
Date: Mon Nov 18 15:33:34 EST 2019
User: vgr7
Spectrometer: USB2G7710
Scans to average: 3
Trigger mode: 4
Integration Time (sec): 2.000000E-2
Electric dark correction enabled: true
Boxcar width: 10
XAxis mode: Wavelengths
Number of Pixels in Spectrum: 2048
>>>>>Begin Spectral Data<<<<<
177.721	-127.95
178.105	-280.71
178.488	-253.14
178.871	-484.75
179.254	733.17
179.636	-226.09
180.019	1391.14
180.402	103.33
180.785	227.66
181.168	302.7
181.55	-211.69
181.933	191.6
182.316	173.74
182.698	114.07
183.081	185.36
183.463	260.61
183.846	394.28
184.228	452.94
184.611	687.23
184.993	725.48
185.376	-957.27
185.758	-1079.92
186.14	-902.49
186.522	-373.21
186.904	-423.04
187.287	-2510.69
187.669	-571.91
188.051	922.16
188.433	-395.78
188.815	-227
189.197	-463.23
189.579	-339.02
189.961	-391.51
190.342	-276.66
190.724	-177.76
191.106	-170.84
191.488	-175.89
191.869	-139.46
192.251	-178.6
192.633	-227.16
193.014	-295.6
193.396	-425.44
193.777	-505.24
194.159	-474.41
194.54	-522.32
194.922	-375.91
195.303	-627.47
195.684	-430.36
196.065	-204.25
196.447	-443.17
196.828	-1757.65
197.209	-420.26
197.59	-1069.37
197.971	4065.22
198.352	-9091.49
198.733	582.07
199.114	754.34
199.495	834.23
199.876	370.68
200.257	-1525.5
200.638	-256.33
201.018	-170.58
201.399	-127.36
201.78	-146.03
202.16	-207.62
202.541	-283.59
202.922	-553.81
203.302	-384.67
203.683	-415.43
204.063	-1260.38
204.444	-1030.62
204.824	-488.45
205.204	-936.89
205.585	-421.74
205.965	-260.95
206.345	-400.39
206.725	-414.29
207.106	-708.41
207.486	-828.09
207.866	-618.92
208.246	-2164.59
208.626	2692.96
209.006	1316.9
209.386	372.12
209.766	461.45
210.145	4732.91
210.525	-2396.35
210.905	-406.02
211.285	-235.09
211.664	-312.17
212.044	-168.12
212.424	-134.57
212.803	-190.48
213.183	-170.9
213.562	-147.18
213.942	-107.42
214.321	-97.76
214.701	-138.54
215.08	-116.46
215.459	-111.37
215.838	-119.79
216.218	-100.06
216.597	-84.53
216.976	-89.62
217.355	-74.02
217.734	-91.44
218.113	-100.88
218.492	-88.44
218.871	-121.55
219.25	-96.76
219.629	-85.69
220.008	-89.01
220.387	-86.26
220.766	-61.04
221.144	-59.47
221.523	-68.48
221.902	-81.48
222.28	-90.56
222.659	-49.68
223.037	-33.01
223.416	-26.3
223.794	-28.64
224.173	-27.42
224.551	-36.27
224.929	-34.9
225.308	-26.57
225.686	-22.23
226.064	-17.09
226.442	-17.16
226.821	-14.2
227.199	-13.33
227.577	-15.04
227.955	-17.22
228.333	-14.27
228.711	-11.53
229.089	-10.19
229.467	-9.08
229.845	-8.1
230.222	-8.47
230.6	-11.47
230.978	-12.25
231.356	-9.99
231.733	-9.47
232.111	-9.46
232.488	-7.91
232.866	-8.79
233.243	-8.52
233.621	-5.64
233.998	-5.8
234.376	-6.68
234.753	-6.11
235.13	-6.38
235.508	-3.75
235.885	-3.58
236.262	-3.67
236.639	-3.13
237.016	-2.43
237.393	-3.27
237.77	-2.74
238.147	-1.54
238.524	-0.91
238.901	-0.34
239.278	-0.56
239.655	0.51
240.032	0.62
240.409	0.07
240.785	0.78
241.162	1.17
241.539	1.28
241.915	1.44
242.292	1.06
242.668	1.11
243.045	0.99
243.421	0.95
243.798	1.22
244.174	1.28
244.551	1.22
244.927	0.97
245.303	1.53
245.679	1.73
246.056	1.73
246.432	1.91
246.808	1.97
247.184	1.95
247.56	1.85
247.936	1.82
248.312	2.05
248.688	2.06
249.064	1.96
249.44	1.77
249.815	1.66
250.191	1.91
250.567	1.99
250.943	2.06
251.318	2.2
251.694	2.06
252.069	2.09
252.445	2.02
252.82	2.28
253.196	2.07
253.571	1.67
253.947	1.5
254.322	1.49
254.697	1.32
255.073	1.4
255.448	1.26
255.823	1.48
256.198	1.24
256.573	1.17
256.948	1.09
257.323	1.38
257.698	1.48
258.073	1.5
258.448	1.41
258.823	1.55
259.198	1.4
259.573	1.47
259.948	1.39
260.322	1.56
260.697	1.4
261.072	1.35
261.446	1.57
261.821	1.65
262.195	1.83
262.57	1.88
262.944	1.78
263.319	1.83
263.693	1.67
264.067	1.84
264.442	1.97
264.816	1.81
265.19	1.54
265.564	1.59
265.938	1.48
266.313	1.47
266.687	1.3
267.061	1.47
267.435	1.55
267.809	1.66
268.183	1.67
268.556	1.62
268.93	1.61
269.304	1.67
269.678	1.59
270.051	1.38
270.425	1.33
270.799	1.47
271.172	1.44
271.546	1.46
271.919	1.34
272.293	1.21
272.666	1.4
273.04	1.54
273.413	1.34
273.787	1.43
274.16	1.51
274.533	1.58
274.906	1.51
275.279	1.5
275.653	1.45
276.026	1.25
276.399	1.28
276.772	1.41
277.145	1.15
277.518	1.14
277.891	1.1
278.263	1.15
278.636	1.16
279.009	1.04
279.382	1.19
279.755	1.27
280.127	1.38
280.5	1.55
280.872	1.57
281.245	1.7
281.617	1.76
281.99	1.75
282.362	1.8
282.735	1.69
283.107	1.7
283.479	1.74
283.852	1.86
284.224	2.11
284.596	2
284.968	2.11
285.34	2.23
285.713	2.28
286.085	2.37
286.457	2.43
286.829	2.45
287.201	2.53
287.572	2.38
287.944	2.31
288.316	2.17
288.688	2.09
289.06	2.08
289.431	2.03
289.803	2.03
290.175	2.05
290.546	2.17
290.918	2.13
291.289	2.1
291.661	2.04
292.032	1.96
292.403	1.98
292.775	1.91
293.146	1.76
293.517	1.78
293.889	1.75
294.26	1.69
294.631	1.71
295.002	1.59
295.373	1.93
295.744	2.09
296.115	2.13
296.486	2.11
296.857	2.23
297.228	2.27
297.599	2.31
297.97	2.26
298.34	2.19
298.711	2.36
299.082	2.34
299.452	2.41
299.823	2.43
300.194	2.43
300.564	2.46
300.935	2.56
301.305	2.56
301.676	2.64
302.046	2.59
302.416	2.81
302.787	2.83
303.157	2.64
303.527	2.62
303.897	2.59
304.267	2.68
304.637	2.62
305.008	2.63
305.378	2.64
305.748	2.82
306.117	2.95
306.487	2.93
306.857	3.07
307.227	3.07
307.597	3.12
307.967	3.3
308.336	3.32
308.706	3.28
309.076	3.35
309.445	3.33
309.815	3.4
310.184	3.32
310.554	3.54
310.923	3.6
311.293	3.63
311.662	3.67
312.031	3.69
312.401	3.67
312.77	3.71
313.139	3.78
313.508	3.81
313.877	3.68
314.246	3.7
314.616	3.67
314.985	3.67
315.353	3.67
315.722	3.67
316.091	3.67
316.46	3.85
316.829	3.89
317.198	3.91
317.567	3.91
317.935	3.92
318.304	3.8
318.672	3.87
319.041	3.94
319.41	4.12
319.778	4.19
320.147	4.26
320.515	4.29
320.883	4.35
321.252	4.37
321.62	4.51
321.988	4.49
322.357	4.55
322.725	4.67
323.093	4.75
323.461	4.82
323.829	4.96
324.197	4.99
324.565	4.96
324.933	4.99
325.301	5.11
325.669	5.17
326.037	5.11
326.405	5.05
326.772	4.94
327.14	4.91
327.508	4.84
327.875	4.85
328.243	4.89
328.61	4.85
328.978	4.81
329.346	4.96
329.713	4.93
330.08	4.91
330.448	4.88
330.815	4.9
331.182	4.93
331.55	5.14
331.917	5.05
332.284	5.2
332.651	5.22
333.018	5.12
333.385	5.15
333.752	5.35
334.119	5.51
334.486	5.52
334.853	5.49
335.22	5.69
335.587	5.81
335.954	5.81
336.32	5.88
336.687	5.96
337.054	5.89
337.42	5.92
337.787	5.99
338.153	5.96
338.52	5.87
338.886	5.75
339.253	5.68
339.619	5.82
339.986	5.85
340.352	5.88
340.718	5.97
341.084	5.94
341.451	5.93
341.817	5.88
342.183	5.98
342.549	6.07
342.915	6.09
343.281	6.11
343.647	6.1
344.013	6.11
344.379	6
344.745	6.06
345.11	6.15
345.476	6.19
345.842	6.18
346.208	6.17
346.573	6.35
346.939	6.44
347.304	6.36
347.67	6.3
348.035	6.32
348.401	6.39
348.766	6.42
349.132	6.39
349.497	6.4
349.862	6.37
350.228	6.43
350.593	6.38
350.958	6.38
351.323	6.42
351.688	6.48
352.053	6.56
352.418	6.58
352.783	6.61
353.148	6.62
353.513	6.76
353.878	6.84
354.243	6.79
354.608	6.77
354.972	6.77
355.337	6.78
355.702	6.73
356.066	6.73
356.431	6.72
356.795	6.68
357.16	6.66
357.524	6.69
357.889	6.63
358.253	6.67
358.618	6.69
358.982	6.62
359.346	6.51
359.71	6.56
360.075	6.6
360.439	6.54
360.803	6.5
361.167	6.45
361.531	6.44
361.895	6.38
362.259	6.3
362.623	6.28
362.987	6.28
363.351	6.3
363.714	6.26
364.078	6.22
364.442	6.19
364.806	6.19
365.169	6.16
365.533	6.08
365.896	5.95
366.26	5.87
366.623	5.89
366.987	5.89
367.35	5.83
367.714	5.81
368.077	5.76
368.44	5.71
368.803	5.66
369.167	5.66
369.53	5.65
369.893	5.7
370.256	5.68
370.619	5.66
370.982	5.57
371.345	5.52
371.708	5.51
372.071	5.51
372.434	5.42
372.797	5.39
373.159	5.4
373.522	5.43
373.885	5.45
374.247	5.39
374.61	5.42
374.973	5.33
375.335	5.27
375.698	5.2
376.06	5.2
376.423	5.17
376.785	5.12
377.147	5.1
377.51	5.02
377.872	5.03
378.234	4.98
378.596	5.02
378.958	4.97
379.321	4.93
379.683	4.94
380.045	4.94
380.407	4.93
380.769	4.92
381.13	4.87
381.492	4.83
381.854	4.83
382.216	4.75
382.578	4.72
382.939	4.66
383.301	4.65
383.663	4.57
384.024	4.55
384.386	4.57
384.747	4.55
385.109	4.54
385.47	4.46
385.832	4.46
386.193	4.43
386.554	4.43
386.916	4.4
387.277	4.34
387.638	4.34
387.999	4.29
388.36	4.23
388.721	4.24
389.082	4.18
389.443	4.11
389.804	4.1
390.165	4.07
390.526	4.08
390.887	4.07
391.248	4.12
391.609	4.09
391.969	4.05
392.33	4.01
392.691	3.93
393.051	3.97
393.412	3.96
393.772	3.93
394.133	3.92
394.493	3.89
394.854	3.84
395.214	3.8
395.574	3.79
395.935	3.78
396.295	3.76
396.655	3.75
397.015	3.73
397.376	3.72
397.736	3.7
398.096	3.66
398.456	3.63
398.816	3.57
399.176	3.53
399.535	3.47
399.895	3.43
400.255	3.46
400.615	3.38
400.975	3.36
401.334	3.32
401.694	3.27
402.054	3.3
402.413	3.33
402.773	3.28
403.132	3.24
403.492	3.24
403.851	3.18
404.211	3.16
404.57	3.14
404.929	3.13
405.288	3.13
405.648	3.11
406.007	3.12
406.366	3.12
406.725	3.14
407.084	3.14
407.443	3.14
407.802	3.12
408.161	3.11
408.52	3.08
408.879	3.08
409.238	3.08
409.596	3.01
409.955	3.02
410.314	3.02
410.673	3.03
411.031	2.98
411.39	3.01
411.748	3
412.107	3.03
412.465	3
412.824	2.97
413.182	2.95
413.54	2.91
413.899	2.89
414.257	2.86
414.615	2.83
414.974	2.85
415.332	2.82
415.69	2.8
416.048	2.79
416.406	2.77
416.764	2.76
417.122	2.78
417.48	2.75
417.838	2.76
418.195	2.74
418.553	2.75
418.911	2.72
419.269	2.73
419.626	2.72
419.984	2.72
420.342	2.71
420.699	2.72
421.057	2.72
421.414	2.7
421.772	2.69
422.129	2.68
422.486	2.67
422.844	2.69
423.201	2.68
423.558	2.68
423.915	2.67
424.273	2.66
424.63	2.65
424.987	2.66
425.344	2.64
425.701	2.64
426.058	2.62
426.415	2.62
426.772	2.61
427.128	2.58
427.485	2.56
427.842	2.57
428.199	2.55
428.555	2.56
428.912	2.57
429.269	2.57
429.625	2.59
429.982	2.57
430.338	2.56
430.695	2.57
431.051	2.56
431.407	2.58
431.764	2.58
432.12	2.57
432.476	2.55
432.832	2.56
433.189	2.56
433.545	2.55
433.901	2.55
434.257	2.55
434.613	2.57
434.969	2.57
435.325	2.58
435.681	2.59
436.036	2.57
436.392	2.56
436.748	2.55
437.104	2.54
437.459	2.54
437.815	2.53
438.171	2.53
438.526	2.54
438.882	2.53
439.237	2.54
439.593	2.55
439.948	2.54
440.304	2.54
440.659	2.54
441.014	2.54
441.369	2.53
441.725	2.52
442.08	2.52
442.435	2.5
442.79	2.49
443.145	2.48
443.5	2.47
443.855	2.47
444.21	2.47
444.565	2.49
444.92	2.5
445.275	2.48
445.629	2.47
445.984	2.47
446.339	2.46
446.693	2.43
447.048	2.4
447.403	2.39
447.757	2.38
448.112	2.36
448.466	2.35
448.82	2.34
449.175	2.35
449.529	2.33
449.883	2.35
450.238	2.35
450.592	2.35
450.946	2.35
451.3	2.33
451.654	2.33
452.008	2.33
452.362	2.32
452.716	2.31
453.07	2.32
453.424	2.32
453.778	2.31
454.132	2.32
454.486	2.33
454.839	2.33
455.193	2.33
455.547	2.34
455.9	2.36
456.254	2.38
456.607	2.38
456.961	2.36
457.314	2.36
457.668	2.35
458.021	2.35
458.375	2.36
458.728	2.37
459.081	2.38
459.434	2.36
459.787	2.37
460.141	2.38
460.494	2.37
460.847	2.37
461.2	2.36
461.553	2.38
461.906	2.38
462.259	2.41
462.611	2.41
462.964	2.42
463.317	2.42
463.67	2.43
464.022	2.44
464.375	2.46
464.728	2.47
465.08	2.48
465.433	2.5
465.785	2.49
466.138	2.5
466.49	2.5
466.843	2.49
467.195	2.48
467.547	2.47
467.899	2.5
468.252	2.49
468.604	2.53
468.956	2.52
469.308	2.55
469.66	2.54
470.012	2.55
470.364	2.54
470.716	2.54
471.068	2.55
471.42	2.54
471.772	2.57
472.123	2.56
472.475	2.55
472.827	2.54
473.178	2.57
473.53	2.55
473.882	2.55
474.233	2.58
474.585	2.57
474.936	2.59
475.288	2.6
475.639	2.62
475.99	2.6
476.342	2.59
476.693	2.59
477.044	2.62
477.395	2.62
477.746	2.63
478.097	2.61
478.448	2.59
478.8	2.59
479.15	2.57
479.501	2.57
479.852	2.57
480.203	2.56
480.554	2.55
480.905	2.57
481.255	2.55
481.606	2.55
481.957	2.57
482.307	2.57
482.658	2.56
483.009	2.55
483.359	2.57
483.709	2.58
484.06	2.58
484.41	2.58
484.761	2.58
485.111	2.57
485.461	2.57
485.811	2.58
486.162	2.58
486.512	2.6
486.862	2.6
487.212	2.61
487.562	2.62
487.912	2.63
488.262	2.63
488.612	2.65
488.961	2.64
489.311	2.63
489.661	2.64
490.011	2.65
490.36	2.66
490.71	2.66
491.06	2.65
491.409	2.66
491.759	2.65
492.108	2.67
492.458	2.69
492.807	2.7
493.157	2.72
493.506	2.73
493.855	2.72
494.204	2.75
494.554	2.76
494.903	2.76
495.252	2.75
495.601	2.78
495.95	2.78
496.299	2.8
496.648	2.83
496.997	2.83
497.346	2.85
497.695	2.87
498.043	2.9
498.392	2.93
498.741	2.96
499.09	2.98
499.438	3
499.787	3.01
500.135	3.06
500.484	3.09
500.832	3.13
501.181	3.15
501.529	3.17
501.878	3.2
502.226	3.25
502.574	3.29
502.923	3.31
503.271	3.35
503.619	3.42
503.967	3.46
504.315	3.5
504.663	3.56
505.011	3.62
505.359	3.65
505.707	3.69
506.055	3.73
506.403	3.78
506.751	3.82
507.098	3.89
507.446	3.92
507.794	3.95
508.141	3.99
508.489	4.04
508.837	4.1
509.184	4.15
509.531	4.21
509.879	4.29
510.226	4.35
510.574	4.41
510.921	4.46
511.268	4.5
511.616	4.56
511.963	4.62
512.31	4.66
512.657	4.71
513.004	4.77
513.351	4.85
513.698	4.89
514.045	4.96
514.392	5.02
514.739	5.09
515.086	5.17
515.432	5.24
515.779	5.31
516.126	5.4
516.473	5.49
516.819	5.56
517.166	5.61
517.512	5.69
517.859	5.76
518.205	5.81
518.552	5.88
518.898	5.95
519.245	6.01
519.591	6.08
519.937	6.14
520.283	6.21
520.629	6.28
520.976	6.38
521.322	6.46
521.668	6.52
522.014	6.61
522.36	6.7
522.706	6.81
523.052	6.92
523.398	7
523.743	7.11
524.089	7.24
524.435	7.37
524.781	7.48
525.126	7.58
525.472	7.7
525.817	7.78
526.163	7.87
526.509	7.95
526.854	8.03
527.199	8.11
527.545	8.18
527.89	8.26
528.235	8.35
528.581	8.43
528.926	8.53
529.271	8.63
529.616	8.72
529.961	8.8
530.306	8.88
530.651	8.99
530.996	9.08
531.341	9.16
531.686	9.27
532.031	9.38
532.376	9.49
532.721	9.6
533.065	9.73
533.41	9.86
533.755	10
534.099	10.14
534.444	10.29
534.788	10.44
535.133	10.57
535.477	10.72
535.822	10.87
536.166	11.04
536.51	11.22
536.855	11.41
537.199	11.62
537.543	11.83
537.887	12.05
538.231	12.26
538.576	12.49
538.92	12.71
539.264	12.93
539.608	13.14
539.951	13.35
540.295	13.51
540.639	13.69
540.983	13.87
541.327	14.05
541.671	14.23
542.014	14.41
542.358	14.59
542.701	14.78
543.045	14.96
543.389	15.13
543.732	15.31
544.075	15.5
544.419	15.69
544.762	15.87
545.105	16.06
545.449	16.29
545.792	16.52
546.135	16.73
546.478	16.98
546.821	17.23
547.165	17.48
547.508	17.79
547.851	18.07
548.194	18.35
548.536	18.62
548.879	18.9
549.222	19.18
549.565	19.45
549.908	19.74
550.25	20.04
550.593	20.31
550.936	20.58
551.278	20.91
551.621	21.2
551.963	21.53
552.306	21.82
552.648	22.1
552.991	22.36
553.333	22.6
553.675	22.84
554.017	23.09
554.36	23.33
554.702	23.55
555.044	23.8
555.386	24.04
555.728	24.31
556.07	24.57
556.412	24.8
556.754	25.08
557.096	25.33
557.438	25.54
557.78	25.83
558.121	26.12
558.463	26.38
558.805	26.61
559.147	26.82
559.488	27.06
559.83	27.27
560.171	27.52
560.513	27.81
560.854	28.09
561.196	28.34
561.537	28.61
561.878	28.91
562.22	29.15
562.561	29.39
562.902	29.64
563.243	29.81
563.584	30.05
563.925	30.22
564.266	30.39
564.607	30.58
564.948	30.79
565.289	30.94
565.63	31.08
565.971	31.27
566.312	31.46
566.653	31.66
566.993	31.86
567.334	32.05
567.675	32.22
568.015	32.35
568.356	32.49
568.696	32.68
569.037	32.84
569.377	33.01
569.718	33.17
570.058	33.27
570.398	33.45
570.739	33.61
571.079	33.81
571.419	34
571.759	34.19
572.099	34.34
572.439	34.48
572.779	34.66
573.119	34.85
573.459	35.02
573.799	35.16
574.139	35.31
574.479	35.44
574.819	35.59
575.158	35.71
575.498	35.84
575.838	35.97
576.177	36.09
576.517	36.15
576.856	36.26
577.196	36.45
577.535	36.61
577.875	36.77
578.214	36.9
578.553	37
578.893	37.07
579.232	37.17
579.571	37.3
579.91	37.45
580.25	37.48
580.589	37.55
580.928	37.66
581.267	37.75
581.606	37.95
581.945	38.09
582.283	38.28
582.622	38.42
582.961	38.5
583.3	38.59
583.639	38.76
583.977	38.87
584.316	38.96
584.654	39.06
584.993	39.07
585.332	39.18
585.67	39.25
586.008	39.3
586.347	39.36
586.685	39.51
587.024	39.49
587.362	39.6
587.7	39.72
588.038	39.79
588.376	39.9
588.715	39.85
589.053	39.85
589.391	39.82
589.729	39.86
590.067	39.88
590.404	39.93
590.742	40.02
591.08	40.08
591.418	40.13
591.756	40.22
592.093	40.3
592.431	40.34
592.769	40.34
593.106	40.45
593.444	40.54
593.781	40.53
594.119	40.58
594.456	40.68
594.793	40.72
595.131	40.78
595.468	40.83
595.805	40.91
596.143	40.95
596.48	41.02
596.817	41.08
597.154	41.18
597.491	41.23
597.828	41.21
598.165	41.26
598.502	41.27
598.839	41.3
599.176	41.37
599.512	41.36
599.849	41.48
600.186	41.51
600.523	41.56
600.859	41.6
601.196	41.72
601.532	41.72
601.869	41.75
602.205	41.72
602.542	41.82
602.878	41.84
603.215	41.88
603.551	41.97
603.887	41.97
604.223	41.97
604.56	42.02
604.896	42.07
605.232	42.1
605.568	42.15
605.904	42.19
606.24	42.21
606.576	42.31
606.912	42.36
607.248	42.37
607.583	42.41
607.919	42.5
608.255	42.5
608.591	42.53
608.926	42.62
609.262	42.74
609.597	42.7
609.933	42.75
610.268	42.81
610.604	42.79
610.939	42.87
611.275	42.9
611.61	42.95
611.945	42.98
612.281	43.05
612.616	43.13
612.951	43.17
613.286	43.27
613.621	43.32
613.956	43.38
614.291	43.45
614.626	43.49
614.961	43.45
615.296	43.49
615.631	43.62
615.966	43.59
616.3	43.58
616.635	43.57
616.97	43.6
617.304	43.61
617.639	43.67
617.973	43.63
618.308	43.64
618.642	43.69
618.977	43.7
619.311	43.72
619.646	43.75
619.98	43.73
620.314	43.76
620.648	43.73
620.983	43.7
621.317	43.74
621.651	43.8
621.985	43.84
622.319	43.84
622.653	43.77
622.987	43.78
623.321	43.82
623.655	43.95
623.988	43.98
624.322	43.96
624.656	44.06
624.99	44.08
625.323	44.18
625.657	44.23
625.99	44.21
626.324	44.26
626.657	44.21
626.991	44.27
627.324	44.22
627.658	44.25
627.991	44.35
628.324	44.37
628.657	44.34
628.991	44.34
629.324	44.41
629.657	44.44
629.99	44.5
630.323	44.57
630.656	44.49
630.989	44.51
631.322	44.56
631.655	44.43
631.987	44.49
632.32	44.41
632.653	44.36
632.986	44.46
633.318	44.43
633.651	44.45
633.984	44.45
634.316	44.45
634.649	44.43
634.981	44.41
635.313	44.41
635.646	44.46
635.978	44.54
636.31	44.53
636.643	44.67
636.975	44.68
637.307	44.55
637.639	44.6
637.971	44.57
638.303	44.63
638.635	44.75
638.967	44.79
639.299	44.88
639.631	44.87
639.963	44.78
640.295	44.8
640.626	44.8
640.958	44.84
641.29	44.86
641.621	44.92
641.953	44.97
642.285	44.98
642.616	44.96
642.948	44.96
643.279	44.97
643.61	44.93
643.942	44.87
644.273	45.08
644.604	45.02
644.936	45.14
645.267	45.18
645.598	45.1
645.929	45.1
646.26	45.14
646.591	45.17
646.922	45.2
647.253	45.22
647.584	45.25
647.915	45.27
648.245	45.28
648.576	45.27
648.907	45.15
649.238	45.18
649.568	45.2
649.899	45.23
650.229	45.24
650.56	45.11
650.89	45.2
651.221	45
651.551	45.03
651.882	44.95
652.212	44.88
652.542	44.88
652.872	44.84
653.203	44.76
653.533	44.8
653.863	44.84
654.193	44.82
654.523	44.8
654.853	44.79
655.183	44.8
655.513	44.85
655.843	44.96
656.172	45.01
656.502	45.07
656.832	44.94
657.162	45.02
657.491	45.13
657.821	45.16
658.15	45.28
658.48	45.28
658.809	45.31
659.139	45.34
659.468	45.33
659.798	45.38
660.127	45.47
660.456	45.56
660.785	45.57
661.115	45.59
661.444	45.52
661.773	45.56
662.102	45.62
662.431	45.66
662.76	45.69
663.089	45.71
663.418	45.6
663.747	45.67
664.076	45.65
664.404	45.54
664.733	45.51
665.062	45.51
665.39	45.48
665.719	45.49
666.048	45.4
666.376	45.44
666.705	45.44
667.033	45.31
667.362	45.19
667.69	45.33
668.018	45.32
668.347	45.49
668.675	45.47
669.003	45.41
669.331	45.39
669.659	45.37
669.987	45.32
670.315	45.42
670.643	45.45
670.971	45.42
671.299	45.46
671.627	45.5
671.955	45.52
672.283	45.63
672.61	45.65
672.938	45.7
673.266	45.71
673.593	45.8
673.921	45.92
674.249	46
674.576	45.96
674.904	45.92
675.231	45.79
675.558	45.75
675.886	45.8
676.213	45.82
676.54	45.86
676.867	45.92
677.195	46.01
677.522	46.03
677.849	46.1
678.176	46.2
678.503	46.11
678.83	46.09
679.157	45.96
679.484	45.95
679.81	46.02
680.137	46.02
680.464	45.96
680.791	45.89
681.117	45.93
681.444	45.81
681.771	45.96
682.097	46.08
682.424	46.15
682.75	46.13
683.077	46.14
683.403	46.18
683.729	46.12
684.056	46.05
684.382	46.1
684.708	46.04
685.034	45.98
685.36	46.08
685.686	46.05
686.012	46.23
686.339	46.31
686.664	46.18
686.99	46.21
687.316	46.17
687.642	46.2
687.968	46.04
688.294	46.08
688.619	46
688.945	46
689.271	45.98
689.596	45.93
689.922	45.8
690.247	45.67
690.573	45.77
690.898	45.66
691.224	45.63
691.549	45.64
691.874	45.66
692.2	45.56
692.525	45.58
692.85	45.5
693.175	45.43
693.5	45.4
693.825	45.38
694.15	45.33
694.475	45.33
694.8	45.38
695.125	45.4
695.45	45.39
695.775	45.38
696.099	45.33
696.424	45.4
696.749	45.39
697.073	45.38
697.398	45.26
697.723	45.44
698.047	45.35
698.372	45.45
698.696	45.45
699.02	45.55
699.345	45.59
699.669	45.68
699.993	45.68
700.318	45.84
700.642	45.86
700.966	45.95
701.29	46.01
701.614	46.07
701.938	46.11
702.262	46.16
702.586	46.14
702.91	46.27
703.234	46.32
703.557	46.3
703.881	46.36
704.205	46.44
704.529	46.16
704.852	46.2
705.176	46.09
705.499	46.06
705.823	45.87
706.146	45.84
706.47	45.7
706.793	45.7
707.117	45.62
707.44	45.65
707.763	45.69
708.086	45.65
708.409	45.69
708.733	45.58
709.056	45.59
709.379	45.56
709.702	45.3
710.025	45.35
710.348	45.58
710.671	45.45
710.993	45.52
711.316	45.56
711.639	45.52
711.962	45.45
712.284	45.58
712.607	45.71
712.93	45.69
713.252	45.62
713.575	45.46
713.897	45.48
714.22	45.48
714.542	45.41
714.864	45.41
715.187	45.39
715.509	45.37
715.831	45.36
716.153	45.35
716.475	45.45
716.798	45.4
717.12	45.27
717.442	45.4
717.764	45.37
718.085	45.43
718.407	45.58
718.729	45.69
719.051	45.38
719.373	45.37
719.695	45.4
720.016	45.65
720.338	45.91
720.659	45.94
720.981	46.01
721.302	46.09
721.624	46.09
721.945	46.04
722.267	46.1
722.588	46.07
722.909	46.16
723.231	46.13
723.552	46.08
723.873	46.21
724.194	46.14
724.515	45.93
724.836	45.99
725.157	45.89
725.478	45.94
725.799	46.2
726.12	46.15
726.441	45.96
726.762	45.72
727.083	45.6
727.403	45.53
727.724	45.38
728.045	45.24
728.365	45.2
728.686	45.14
729.006	45.37
729.327	45.27
729.647	45.44
729.967	45.44
730.288	45.53
730.608	45.31
730.928	45.27
731.249	45.28
731.569	45.4
731.889	45.38
732.209	45.2
732.529	45.04
732.849	44.95
733.169	45.19
733.489	45.23
733.809	45.29
734.129	45.34
734.448	45.43
734.768	45.34
735.088	45.36
735.408	45.69
735.727	45.42
736.047	45.45
736.366	45.15
736.686	45.33
737.005	45.31
737.325	45.32
737.644	45.33
737.963	45.54
738.283	45.34
738.602	45.51
738.921	45.53
739.24	45.61
739.56	45.81
739.879	45.78
740.198	45.73
740.517	45.7
740.836	45.53
741.155	45.46
741.473	45.79
741.792	45.73
742.111	45.44
742.43	45.31
742.748	45.31
743.067	45.21
743.386	45.25
743.704	45.24
744.023	45.4
744.341	45.55
744.66	45.25
744.978	45.28
745.297	45.46
745.615	45.7
745.933	45.87
746.252	45.98
746.57	45.75
746.888	45.99
747.206	46.02
747.524	46.11
747.842	45.85
748.16	45.73
748.478	45.97
748.796	45.95
749.114	46.33
749.432	46.18
749.749	46.53
750.067	46.4
750.385	46.2
750.703	46.07
751.02	45.88
751.338	45.97
751.655	45.96
751.973	45.71
752.29	45.67
752.608	45.66
752.925	45.44
753.242	46.02
753.56	45.65
753.877	45.48
754.194	45.72
754.511	46.29
754.828	46.4
755.145	46.16
755.462	46.21
755.779	46.09
756.096	46.37
756.413	46.26
756.73	46.24
757.047	46.38
757.364	46.47
757.68	46.59
757.997	46.64
758.314	46.67
758.63	46.76
758.947	46.59
759.264	46.51
759.58	46.5
759.896	46.35
760.213	46.48
760.529	46.74
760.846	46.57
761.162	46.32
761.478	46.06
761.794	46.19
762.11	46.2
762.426	46.13
762.743	46.17
763.059	46.27
763.375	46.17
763.69	46.32
764.006	46.3
764.322	46.43
764.638	46.51
764.954	46.73
765.27	46.52
765.585	46.32
765.901	46.5
766.216	46.51
766.532	46.22
766.848	46.17
767.163	46.23
767.478	46.13
767.794	46.02
768.109	46.03
768.424	45.93
768.74	45.72
769.055	45.78
769.37	45.72
769.685	45.58
770	45.67
770.315	45.55
770.63	45.69
770.945	45.35
771.26	45.32
771.575	44.98
771.89	45.16
772.205	45.46
772.52	45.26
772.834	45.15
773.149	45.22
773.464	45.37
773.778	45.21
774.093	45.19
774.407	45.49
774.722	45.84
775.036	45.71
775.351	45.83
775.665	46.01
775.979	46.08
776.293	46.18
776.608	45.85
776.922	45.89
777.236	45.91
777.55	46.04
777.864	46.17
778.178	46.47
778.492	46.63
778.806	46.84
779.12	46.55
779.434	46.88
779.747	46.98
780.061	46.74
780.375	46.76
780.689	46.57
781.002	46.77
781.316	46.26
781.629	46.66
781.943	46.55
782.256	46.04
782.57	46.09
782.883	45.54
783.196	45.43
783.51	45.24
783.823	44.73
784.136	44.82
784.449	44.69
784.762	44.34
785.075	43.75
785.388	43.58
785.701	43.54
786.014	43.19
786.327	43.14
786.64	43.8
786.953	43.74
787.266	43.54
787.578	43.42
787.891	44.05
788.204	43.9
788.516	44.13
788.829	44.41
789.141	44.24
789.454	44.98
789.766	45.16
790.079	45.11
790.391	45.38
790.703	45.22
791.016	45.15
791.328	45.27
791.64	45.25
791.952	44.95
792.264	44.51
792.576	44.16
792.888	44.46
793.2	44.25
793.512	44.26
793.824	44.59
794.136	44.63
794.448	44.05
794.76	43.43
795.071	43.36
795.383	43.26
795.695	43.35
796.006	43.06
796.318	42.94
796.629	43.49
796.941	43.3
797.252	43.28
797.564	43.72
797.875	43.62
798.186	43.7
798.497	43.87
798.809	44.45
799.12	44.88
799.431	44.67
799.742	44.1
800.053	44.35
800.364	44.71
800.675	44.25
800.986	44.47
801.297	45.21
801.608	45.06
801.918	44.98
802.229	45.06
802.54	44.98
802.851	45.71
803.161	45.09
803.472	45.55
803.782	45.58
804.093	44.86
804.403	45.48
804.714	46.04
805.024	45.98
805.334	46.24
805.645	46.69
805.955	46.32
806.265	47.03
806.575	46.64
806.885	46.69
807.195	46.82
807.505	47.19
807.815	46.91
808.125	47.13
808.435	47.5
808.745	47.16
809.055	46.96
809.365	46.41
809.674	46.42
809.984	46.15
810.294	46.39
810.603	47.26
810.913	46.34
811.222	46.54
811.532	47.08
811.841	47.6
812.151	47.51
812.46	47.72
812.769	46.99
813.079	46.56
813.388	46
813.697	46.24
814.006	45.37
814.315	45.71
814.624	45.23
814.933	45.69
815.242	46.48
815.551	47.37
815.86	47.95
816.169	47.62
816.478	47.54
816.786	47.78
817.095	47.34
817.404	47.67
817.712	46.85
818.021	46.68
818.33	46.03
818.638	45.63
818.947	45.59
819.255	45.76
819.563	45.8
819.872	45.86
820.18	45.99
820.488	46.2
820.796	46.32
821.105	46.41
821.413	45.92
821.721	45.73
822.029	45.75
822.337	45.93
822.645	46.06
822.953	45.98
823.26	45.85
823.568	45.85
823.876	45.79
824.184	46.01
824.491	46.01
824.799	45.81
825.107	46.06
825.414	46.07
825.722	46.28
826.029	46.39
826.337	46.32
826.644	46.21
826.951	46.14
827.259	46.22
827.566	46.25
827.873	46.65
828.18	46.55
828.488	46.33
828.795	46.15
829.102	46.33
829.409	46.44
829.716	46.35
830.023	46.3
830.329	46.14
830.636	45.91
830.943	45.93
831.25	46.16
831.557	45.54
831.863	45.55
832.17	44.93
832.476	44.94
832.783	45.3
833.089	45.52
833.396	45.57
833.702	45.12
834.009	45.39
834.315	45.18
834.621	45.1
834.928	45.21
835.234	44.85
835.54	44.27
835.846	44.42
836.152	44.74
836.458	44.72
836.764	44.84
837.07	44.26
837.376	44.06
837.682	44.98
837.988	45.37
838.293	45.53
838.599	45.88
838.905	45.89
839.211	45.64
839.516	45.12
839.822	45.06
840.127	44.76
840.433	43.97
840.738	43.52
841.044	44.16
841.349	43.85
841.654	44.14
841.959	44.44
842.265	44.42
842.57	44.76
842.875	44.69
843.18	44.85
843.485	46.02
843.79	46
844.095	43.8
844.4	43.62
844.705	42.56
845.01	42.15
845.315	41.61
845.619	40.9
845.924	40.99
846.229	40.08
846.533	40.06
846.838	40.21
847.142	40.66
847.447	40.11
847.751	39.86
848.056	40.57
848.36	40.4
848.664	40.71
848.969	40.45
849.273	40.74
849.577	39.59
849.881	40.37
850.185	39.48
850.489	42.27
850.794	41.11
851.097	43.57
851.401	44.12
851.705	44.61
852.009	47.16
852.313	44.59
852.617	46.17
852.92	46.34
853.224	46.62
853.528	46.97
853.831	47.07
854.135	47.74
854.438	44.44
854.742	46.12
855.045	42.9
855.349	42.14
855.652	43.01
855.955	42.66
856.259	41.63
856.562	41.14
856.865	38.03
857.168	38.02
857.471	37.59
857.774	37.15
858.077	35.99
858.38	35.37
858.683	38.21
858.986	38.56
859.289	39.32
859.592	38.88
859.894	40.11
860.197	42.1
860.5	42.21
860.802	44.88
861.105	43.22
861.407	46.4
861.71	46.47
862.012	43.86
862.315	47.26
862.617	46.88
862.919	46.92
863.222	50.22
863.524	49.93
863.826	47.92
864.128	48.94
864.43	49.64
864.732	51.14
865.034	50.84
865.336	50.14
865.638	48.44
865.94	48
866.242	50.23
866.544	47.58
866.846	48
867.147	49.52
867.449	49.02
867.751	46.78
868.052	45.53
868.354	45.91
868.655	44.43
868.957	45.06
869.258	44.19
869.56	41.93
869.861	43.09
870.162	43.99
870.463	44.02
870.765	46.07
871.066	41.57
871.367	41.43
871.668	42.61
871.969	41.77
872.27	40.08
872.571	36.41
872.872	37.63
873.173	35.12
873.473	32.51
873.774	30.3
874.075	31.54
874.376	32.41
874.676	34.69
874.977	34.13
875.277	35.02
875.578	37.43
875.878	37.61
876.179	36.61
876.479	36.61
876.78	34.87
877.08	33.31
877.38	35.17
877.68	34.7
877.981	32.69
878.281	34.11
878.581	38
