Data from BA28420_Reflection_00014.txt Node
Date: Mon Nov 18 16:08:43 EST 2019
User: vgr7
Spectrometer: USB2G7710
Scans to average: 3
Trigger mode: 4
Integration Time (sec): 2.000000E-2
Electric dark correction enabled: true
Boxcar width: 10
XAxis mode: Wavelengths
Number of Pixels in Spectrum: 2048
>>>>>Begin Spectral Data<<<<<
177.721	-54.86
178.105	52.38
178.488	-864.91
178.871	-114.69
179.254	-97.45
179.636	-8.23
180.019	-132.49
180.402	91.67
180.785	-71.72
181.168	-117.95
181.55	-555.17
181.933	150.47
182.316	126.09
182.698	132.4
183.081	252.24
183.463	74.48
183.846	79.59
184.228	79.46
184.611	60
184.993	36.64
185.376	88.51
185.758	-5566.67
186.14	167.96
186.522	234.33
186.904	-262.64
187.287	-69.81
187.669	130.3
188.051	73.82
188.433	-73.18
188.815	-149.15
189.197	-83.8
189.579	-223.08
189.961	-183.95
190.342	-80.59
190.724	-113.48
191.106	-158.16
191.488	-219.5
191.869	-531.21
192.251	-716.09
192.633	-268.98
193.014	-85.03
193.396	-55.78
193.777	-28.07
194.159	-32.2
194.54	-40.6
194.922	-43.74
195.303	-17.74
195.684	-28.11
196.065	-144.81
196.447	-42.86
196.828	33
197.209	20.11
197.59	21.12
197.971	8.47
198.352	105.59
198.733	28.91
199.114	35.96
199.495	-23.54
199.876	-42.86
200.257	-37.99
200.638	-32.89
201.018	-29.22
201.399	-5.55
201.78	22.07
202.16	18.57
202.541	-12.75
202.922	-24.25
203.302	-20.83
203.683	-4.78
204.063	-9.03
204.444	2.55
204.824	12.07
205.204	34.28
205.585	43.61
205.965	31.76
206.345	32.39
206.725	28.67
207.106	6.03
207.486	41.18
207.866	75.07
208.246	142.07
208.626	212.84
209.006	166.67
209.386	174.63
209.766	121.94
210.145	208.28
210.525	126.89
210.905	129.83
211.285	143.61
211.664	205.37
212.044	327.12
212.424	289.19
212.803	477.05
213.183	261.09
213.562	156.69
213.942	200.19
214.321	143.2
214.701	173.5
215.08	122.9
215.459	88.74
215.838	112.52
216.218	90.58
216.597	76.9
216.976	68.78
217.355	66.51
217.734	59.32
218.113	42.51
218.492	44.74
218.871	27.13
219.25	13.01
219.629	1.29
220.008	-7.12
220.387	-5.22
220.766	-20.51
221.144	-46.64
221.523	-50.84
221.902	-77.13
222.28	-61.75
222.659	-39.96
223.037	-12.42
223.416	-20.84
223.794	-14.89
224.173	-16.38
224.551	-5.03
224.929	-1.05
225.308	3.23
225.686	8.51
226.064	12.07
226.442	7.86
226.821	13.03
227.199	14.68
227.577	15.17
227.955	18.4
228.333	16.12
228.711	18.71
229.089	22.51
229.467	24.34
229.845	21.6
230.222	20.95
230.6	20.12
230.978	16.59
231.356	21.42
231.733	19.8
232.111	23.61
232.488	20.31
232.866	18.2
233.243	16.8
233.621	13.96
233.998	13.94
234.376	15.51
234.753	14.66
235.13	14.09
235.508	13.42
235.885	12.9
236.262	13.34
236.639	15.09
237.016	13.09
237.393	12.94
237.77	13.06
238.147	13.87
238.524	12.57
238.901	12.46
239.278	11.45
239.655	10.61
240.032	9.36
240.409	9.03
240.785	8.4
241.162	8.31
241.539	8.74
241.915	8.33
242.292	7.47
242.668	7.09
243.045	6.72
243.421	6.64
243.798	6.42
244.174	6.19
244.551	5.79
244.927	5.92
245.303	5.97
245.679	5.82
246.056	5.66
246.432	5.75
246.808	5.72
247.184	5.35
247.56	5.39
247.936	5.35
248.312	5.49
248.688	5.65
249.064	5.47
249.44	5.47
249.815	5.65
250.191	6.01
250.567	6.06
250.943	6.17
251.318	6.12
251.694	6.26
252.069	6.52
252.445	6.65
252.82	6.52
253.196	6.28
253.571	6.06
253.947	5.86
254.322	5.78
254.697	5.86
255.073	6.27
255.448	6.12
255.823	6.07
256.198	6.04
256.573	5.94
256.948	6.01
257.323	5.87
257.698	5.61
258.073	5.47
258.448	5.43
258.823	5.33
259.198	5.36
259.573	5.37
259.948	5.08
260.322	4.92
260.697	4.96
261.072	4.89
261.446	5.15
261.821	5.2
262.195	5.33
262.57	5.28
262.944	5.09
263.319	5.03
263.693	5.01
264.067	4.89
264.442	4.86
264.816	4.73
265.19	4.71
265.564	4.86
265.938	4.78
266.313	4.78
266.687	4.97
267.061	4.97
267.435	4.84
267.809	4.96
268.183	5
268.556	4.8
268.93	5.01
269.304	5.08
269.678	5.24
270.051	5.07
270.425	5.04
270.799	5.11
271.172	5.14
271.546	5.1
271.919	5.15
272.293	5.05
272.666	5.24
273.04	5.35
273.413	5.35
273.787	5.41
274.16	5.41
274.533	5.25
274.906	5.26
275.279	5.35
275.653	5.4
276.026	5.51
276.399	5.62
276.772	5.62
277.145	5.36
277.518	5.27
277.891	5.26
278.263	5.31
278.636	5.3
279.009	5.27
279.382	5.48
279.755	5.29
280.127	5.54
280.5	5.5
280.872	5.43
281.245	5.32
281.617	5.41
281.99	5.52
282.362	5.65
282.735	5.62
283.107	5.59
283.479	5.61
283.852	5.51
284.224	5.45
284.596	5.42
284.968	5.52
285.34	5.47
285.713	5.47
286.085	5.46
286.457	5.57
286.829	5.59
287.201	5.55
287.572	5.58
287.944	5.48
288.316	5.5
288.688	5.51
289.06	5.66
289.431	5.58
289.803	5.58
290.175	5.54
290.546	5.61
290.918	5.61
291.289	5.57
291.661	5.66
292.032	5.91
292.403	6.04
292.775	6.08
293.146	6.06
293.517	6.11
293.889	6.13
294.26	6.07
294.631	6.15
295.002	6.09
295.373	6.22
295.744	6.24
296.115	6.17
296.486	6.14
296.857	6.03
297.228	6.05
297.599	6.05
297.97	6.07
298.34	6.08
298.711	6.13
299.082	6.22
299.452	6.29
299.823	6.14
300.194	6.04
300.564	6.03
300.935	6.05
301.305	6.1
301.676	6.21
302.046	6.39
302.416	6.43
302.787	6.56
303.157	6.6
303.527	6.6
303.897	6.76
304.267	6.95
304.637	7.14
305.008	7.17
305.378	7.32
305.748	7.43
306.117	7.47
306.487	7.45
306.857	7.45
307.227	7.55
307.597	7.62
307.967	7.74
308.336	7.7
308.706	7.79
309.076	7.72
309.445	7.71
309.815	7.62
310.184	7.65
310.554	7.71
310.923	7.68
311.293	7.83
311.662	7.86
312.031	7.85
312.401	7.86
312.77	7.91
313.139	7.94
313.508	7.95
313.877	8.04
314.246	8.07
314.616	8.27
314.985	8.21
315.353	8.37
315.722	8.4
316.091	8.56
316.46	8.55
316.829	8.73
317.198	8.91
317.567	9.1
317.935	9.13
318.304	9.21
318.672	9.32
319.041	9.33
319.41	9.42
319.778	9.39
320.147	9.44
320.515	9.4
320.883	9.33
321.252	9.35
321.62	9.35
321.988	9.47
322.357	9.43
322.725	9.46
323.093	9.5
323.461	9.51
323.829	9.59
324.197	9.81
324.565	9.87
324.933	9.73
325.301	9.71
325.669	9.77
326.037	9.81
326.405	9.95
326.772	9.96
327.14	10.05
327.508	10.12
327.875	10.12
328.243	10.34
328.61	10.4
328.978	10.46
329.346	10.48
329.713	10.47
330.08	10.41
330.448	10.44
330.815	10.37
331.182	10.44
331.55	10.39
331.917	10.28
332.284	10.43
332.651	10.52
333.018	10.59
333.385	10.62
333.752	10.62
334.119	10.54
334.486	10.54
334.853	10.4
335.22	10.47
335.587	10.47
335.954	10.44
336.32	10.5
336.687	10.45
337.054	10.48
337.42	10.44
337.787	10.47
338.153	10.57
338.52	10.69
338.886	10.65
339.253	10.74
339.619	10.8
339.986	10.65
340.352	10.67
340.718	10.52
341.084	10.59
341.451	10.67
341.817	10.82
342.183	10.92
342.549	11.06
342.915	11.06
343.281	11.09
343.647	11.15
344.013	11.14
344.379	11.22
344.745	11.3
345.11	11.35
345.476	11.46
345.842	11.55
346.208	11.52
346.573	11.64
346.939	11.7
347.304	11.76
347.67	11.87
348.035	11.92
348.401	12.11
348.766	12.12
349.132	12.14
349.497	12.08
349.862	12.21
350.228	12.28
350.593	12.26
350.958	12.34
351.323	12.34
351.688	12.36
352.053	12.4
352.418	12.45
352.783	12.52
353.148	12.57
353.513	12.46
353.878	12.49
354.243	12.54
354.608	12.51
354.972	12.52
355.337	12.47
355.702	12.5
356.066	12.53
356.431	12.49
356.795	12.48
357.16	12.51
357.524	12.4
357.889	12.35
358.253	12.39
358.618	12.37
358.982	12.32
359.346	12.32
359.71	12.3
360.075	12.28
360.439	12.27
360.803	12.21
361.167	12.19
361.531	12.19
361.895	12.15
362.259	12.14
362.623	12.13
362.987	12.17
363.351	12.21
363.714	12.17
364.078	12.14
364.442	12.1
364.806	12.05
365.169	12.01
365.533	11.99
365.896	11.92
366.26	11.95
366.623	11.93
366.987	11.94
367.35	11.94
367.714	11.85
368.077	11.87
368.44	11.86
368.803	11.85
369.167	11.84
369.53	11.79
369.893	11.87
370.256	11.84
370.619	11.72
370.982	11.65
371.345	11.56
371.708	11.54
372.071	11.48
372.434	11.4
372.797	11.37
373.159	11.28
373.522	11.32
373.885	11.23
374.247	11.24
374.61	11.16
374.973	11.07
375.335	11.05
375.698	10.98
376.06	10.99
376.423	10.98
376.785	10.94
377.147	10.93
377.51	10.76
377.872	10.77
378.234	10.79
378.596	10.76
378.958	10.76
379.321	10.73
379.683	10.76
380.045	10.81
380.407	10.81
380.769	10.85
381.13	10.75
381.492	10.7
381.854	10.69
382.216	10.63
382.578	10.67
382.939	10.63
383.301	10.6
383.663	10.48
384.024	10.39
384.386	10.37
384.747	10.35
385.109	10.4
385.47	10.32
385.832	10.29
386.193	10.2
386.554	10.14
386.916	10.12
387.277	10.07
387.638	10.02
387.999	9.92
388.36	9.86
388.721	9.83
389.082	9.78
389.443	9.68
389.804	9.63
390.165	9.54
390.526	9.5
390.887	9.45
391.248	9.43
391.609	9.39
391.969	9.3
392.33	9.24
392.691	9.18
393.051	9.15
393.412	9.09
393.772	9.03
394.133	9
394.493	8.94
394.854	8.87
395.214	8.79
395.574	8.76
395.935	8.73
396.295	8.68
396.655	8.66
397.015	8.66
397.376	8.66
397.736	8.65
398.096	8.62
398.456	8.58
398.816	8.55
399.176	8.51
399.535	8.47
399.895	8.37
400.255	8.31
400.615	8.26
400.975	8.23
401.334	8.22
401.694	8.2
402.054	8.17
402.413	8.17
402.773	8.15
403.132	8.13
403.492	8.1
403.851	8.05
404.211	8.05
404.57	7.97
404.929	7.91
405.288	7.86
405.648	7.81
406.007	7.77
406.366	7.76
406.725	7.78
407.084	7.8
407.443	7.83
407.802	7.83
408.161	7.79
408.52	7.75
408.879	7.71
409.238	7.7
409.596	7.7
409.955	7.67
410.314	7.68
410.673	7.66
411.031	7.64
411.39	7.66
411.748	7.64
412.107	7.66
412.465	7.66
412.824	7.64
413.182	7.61
413.54	7.61
413.899	7.57
414.257	7.51
414.615	7.44
414.974	7.43
415.332	7.38
415.69	7.35
416.048	7.31
416.406	7.3
416.764	7.23
417.122	7.18
417.48	7.12
417.838	7.08
418.195	7.03
418.553	7
418.911	6.96
419.269	6.92
419.626	6.9
419.984	6.86
420.342	6.83
420.699	6.81
421.057	6.76
421.414	6.72
421.772	6.68
422.129	6.67
422.486	6.65
422.844	6.63
423.201	6.6
423.558	6.59
423.915	6.57
424.273	6.56
424.63	6.54
424.987	6.55
425.344	6.52
425.701	6.54
426.058	6.51
426.415	6.5
426.772	6.47
427.128	6.44
427.485	6.44
427.842	6.44
428.199	6.45
428.555	6.45
428.912	6.48
429.269	6.5
429.625	6.48
429.982	6.44
430.338	6.45
430.695	6.45
431.051	6.47
431.407	6.44
431.764	6.45
432.12	6.43
432.476	6.41
432.832	6.42
433.189	6.41
433.545	6.39
433.901	6.39
434.257	6.4
434.613	6.41
434.969	6.39
435.325	6.4
435.681	6.38
436.036	6.38
436.392	6.37
436.748	6.36
437.104	6.37
437.459	6.36
437.815	6.36
438.171	6.35
438.526	6.34
438.882	6.33
439.237	6.33
439.593	6.36
439.948	6.37
440.304	6.34
440.659	6.34
441.014	6.34
441.369	6.32
441.725	6.31
442.08	6.3
442.435	6.29
442.79	6.26
443.145	6.25
443.5	6.24
443.855	6.22
444.21	6.21
444.565	6.19
444.92	6.18
445.275	6.16
445.629	6.13
445.984	6.11
446.339	6.1
446.693	6.06
447.048	6.02
447.403	6
447.757	6
448.112	5.96
448.466	5.94
448.82	5.92
449.175	5.92
449.529	5.9
449.883	5.88
450.238	5.87
450.592	5.86
450.946	5.84
451.3	5.82
451.654	5.79
452.008	5.79
452.362	5.79
452.716	5.78
453.07	5.79
453.424	5.78
453.778	5.78
454.132	5.78
454.486	5.78
454.839	5.78
455.193	5.78
455.547	5.78
455.9	5.8
456.254	5.81
456.607	5.79
456.961	5.79
457.314	5.8
457.668	5.81
458.021	5.82
458.375	5.82
458.728	5.84
459.081	5.86
459.434	5.85
459.787	5.87
460.141	5.87
460.494	5.88
460.847	5.92
461.2	5.94
461.553	5.96
461.906	5.99
462.259	6.01
462.611	6.04
462.964	6.07
463.317	6.09
463.67	6.12
464.022	6.15
464.375	6.18
464.728	6.21
465.08	6.24
465.433	6.26
465.785	6.31
466.138	6.35
466.49	6.36
466.843	6.38
467.195	6.4
467.547	6.43
467.899	6.47
468.252	6.49
468.604	6.51
468.956	6.54
469.308	6.56
469.66	6.56
470.012	6.57
470.364	6.57
470.716	6.58
471.068	6.6
471.42	6.61
471.772	6.63
472.123	6.65
472.475	6.65
472.827	6.66
473.178	6.66
473.53	6.62
473.882	6.61
474.233	6.62
474.585	6.6
474.936	6.6
475.288	6.57
475.639	6.56
475.99	6.55
476.342	6.53
476.693	6.51
477.044	6.49
477.395	6.48
477.746	6.46
478.097	6.45
478.448	6.43
478.8	6.39
479.15	6.34
479.501	6.3
479.852	6.3
480.203	6.29
480.554	6.28
480.905	6.29
481.255	6.27
481.606	6.26
481.957	6.27
482.307	6.27
482.658	6.27
483.009	6.26
483.359	6.26
483.709	6.26
484.06	6.26
484.41	6.27
484.761	6.28
485.111	6.3
485.461	6.31
485.811	6.31
486.162	6.32
486.512	6.35
486.862	6.38
487.212	6.39
487.562	6.4
487.912	6.41
488.262	6.42
488.612	6.45
488.961	6.48
489.311	6.5
489.661	6.52
490.011	6.54
490.36	6.56
490.71	6.59
491.06	6.61
491.409	6.63
491.759	6.66
492.108	6.69
492.458	6.71
492.807	6.74
493.157	6.79
493.506	6.83
493.855	6.87
494.204	6.89
494.554	6.94
494.903	7
495.252	7.07
495.601	7.15
495.95	7.2
496.299	7.24
496.648	7.31
496.997	7.37
497.346	7.45
497.695	7.54
498.043	7.61
498.392	7.69
498.741	7.77
499.09	7.81
499.438	7.89
499.787	7.96
500.135	8.05
500.484	8.13
500.832	8.22
501.181	8.29
501.529	8.39
501.878	8.51
502.226	8.59
502.574	8.67
502.923	8.75
503.271	8.89
503.619	9
503.967	9.1
504.315	9.2
504.663	9.31
505.011	9.44
505.359	9.52
505.707	9.64
506.055	9.75
506.403	9.89
506.751	10.02
507.098	10.13
507.446	10.27
507.794	10.37
508.141	10.49
508.489	10.63
508.837	10.75
509.184	10.83
509.531	10.96
509.879	11.07
510.226	11.22
510.574	11.33
510.921	11.44
511.268	11.54
511.616	11.69
511.963	11.82
512.31	11.97
512.657	12.12
513.004	12.28
513.351	12.43
513.698	12.59
514.045	12.76
514.392	12.93
514.739	13.04
515.086	13.24
515.432	13.38
515.779	13.53
516.126	13.73
516.473	13.93
516.819	14.1
517.166	14.27
517.512	14.4
517.859	14.56
518.205	14.72
518.552	14.91
518.898	15.05
519.245	15.19
519.591	15.3
519.937	15.45
520.283	15.62
520.629	15.77
520.976	15.96
521.322	16.11
521.668	16.3
522.014	16.54
522.36	16.71
522.706	16.94
523.052	17.19
523.398	17.43
523.743	17.67
524.089	17.9
524.435	18.12
524.781	18.38
525.126	18.61
525.472	18.82
525.817	19.03
526.163	19.24
526.509	19.42
526.854	19.6
527.199	19.8
527.545	19.94
527.89	20.13
528.235	20.29
528.581	20.48
528.926	20.66
529.271	20.83
529.616	21.04
529.961	21.22
530.306	21.41
530.651	21.6
530.996	21.83
531.341	22.08
531.686	22.31
532.031	22.55
532.376	22.78
532.721	23.04
533.065	23.27
533.41	23.52
533.755	23.79
534.099	24.07
534.444	24.33
534.788	24.62
535.133	24.86
535.477	25.13
535.822	25.4
536.166	25.71
536.51	26.04
536.855	26.35
537.199	26.71
537.543	27.07
537.887	27.42
538.231	27.73
538.576	28.06
538.92	28.45
539.264	28.76
539.608	29.07
539.951	29.4
540.295	29.67
540.639	29.98
540.983	30.25
541.327	30.51
541.671	30.77
542.014	31.03
542.358	31.29
542.701	31.56
543.045	31.82
543.389	32.09
543.732	32.34
544.075	32.63
544.419	32.89
544.762	33.16
545.105	33.46
545.449	33.8
545.792	34.09
546.135	34.4
546.478	34.76
546.821	35.11
547.165	35.44
547.508	35.84
547.851	36.16
548.194	36.52
548.536	36.87
548.879	37.26
549.222	37.67
549.565	38.05
549.908	38.44
550.25	38.84
550.593	39.2
550.936	39.58
551.278	39.89
551.621	40.27
551.963	40.66
552.306	41
552.648	41.37
552.991	41.74
553.333	42.01
553.675	42.35
554.017	42.62
554.36	42.96
554.702	43.22
555.044	43.48
555.386	43.76
555.728	44.08
556.07	44.31
556.412	44.56
556.754	44.85
557.096	45.09
557.438	45.34
557.78	45.63
558.121	45.98
558.463	46.26
558.805	46.55
559.147	46.79
559.488	47.07
559.83	47.28
560.171	47.49
560.513	47.81
560.854	48.09
561.196	48.36
561.537	48.53
561.878	48.77
562.22	48.99
562.561	49.22
562.902	49.46
563.243	49.73
563.584	49.93
563.925	50.12
564.266	50.36
564.607	50.64
564.948	50.79
565.289	50.95
565.63	51.17
565.971	51.32
566.312	51.45
566.653	51.6
566.993	51.79
567.334	51.97
567.675	52.1
568.015	52.18
568.356	52.3
568.696	52.49
569.037	52.68
569.377	52.86
569.718	53.09
570.058	53.24
570.398	53.41
570.739	53.51
571.079	53.72
571.419	53.84
571.759	53.94
572.099	54.12
572.439	54.22
572.779	54.33
573.119	54.52
573.459	54.72
573.799	54.86
574.139	55
574.479	55.1
574.819	55.27
575.158	55.44
575.498	55.6
575.838	55.77
576.177	55.87
576.517	56.04
576.856	56.18
577.196	56.34
577.535	56.49
577.875	56.75
578.214	56.87
578.553	57.02
578.893	57.11
579.232	57.21
579.571	57.36
579.91	57.48
580.25	57.57
580.589	57.64
580.928	57.78
581.267	57.83
581.606	57.96
581.945	58.03
582.283	58.12
582.622	58.26
582.961	58.28
583.3	58.37
583.639	58.5
583.977	58.55
584.316	58.62
584.654	58.64
584.993	58.64
585.332	58.72
585.67	58.72
586.008	58.93
586.347	59.05
586.685	59.16
587.024	59.27
587.362	59.3
587.7	59.35
588.038	59.44
588.376	59.54
588.715	59.65
589.053	59.7
589.391	59.75
589.729	59.81
590.067	59.86
590.404	59.92
590.742	59.99
591.08	60.08
591.418	60.12
591.756	60.29
592.093	60.37
592.431	60.46
592.769	60.58
593.106	60.54
593.444	60.59
593.781	60.7
594.119	60.72
594.456	60.86
594.793	60.96
595.131	60.95
595.468	61.04
595.805	61.07
596.143	61.13
596.48	61.25
596.817	61.26
597.154	61.34
597.491	61.41
597.828	61.47
598.165	61.46
598.502	61.52
598.839	61.51
599.176	61.56
599.512	61.58
599.849	61.71
600.186	61.76
600.523	61.76
600.859	61.74
601.196	61.85
601.532	61.85
601.869	61.84
602.205	61.95
602.542	62.01
602.878	62.02
603.215	62.12
603.551	62.14
603.887	62.18
604.223	62.22
604.56	62.23
604.896	62.21
605.232	62.27
605.568	62.32
605.904	62.28
606.24	62.31
606.576	62.3
606.912	62.3
607.248	62.43
607.583	62.49
607.919	62.55
608.255	62.6
608.591	62.63
608.926	62.79
609.262	62.83
609.597	62.9
609.933	63.01
610.268	63.01
610.604	63.06
610.939	63.18
611.275	63.24
611.61	63.28
611.945	63.3
612.281	63.41
612.616	63.46
612.951	63.6
613.286	63.65
613.621	63.77
613.956	63.79
614.291	63.76
614.626	63.81
614.961	63.78
615.296	63.78
615.631	63.87
615.966	63.84
616.3	63.85
616.635	63.86
616.97	63.82
617.304	63.84
617.639	63.83
617.973	63.88
618.308	63.81
618.642	64
618.977	64.13
619.311	64.13
619.646	64.04
619.98	64.12
620.314	64.12
620.648	64.1
620.983	64.17
621.317	64.24
621.651	64.27
621.985	64.36
622.319	64.43
622.653	64.45
622.987	64.36
623.321	64.46
623.655	64.41
623.988	64.56
624.322	64.52
624.656	64.59
624.99	64.59
625.323	64.61
625.657	64.47
625.99	64.45
626.324	64.45
626.657	64.64
626.991	64.6
627.324	64.7
627.658	64.77
627.991	64.86
628.324	64.85
628.657	64.9
628.991	64.86
629.324	64.79
629.657	64.87
629.99	64.99
630.323	64.98
630.656	65
630.989	64.97
631.322	65.01
631.655	65
631.987	65.05
632.32	65.08
632.653	65.27
632.986	65.34
633.318	65.37
633.651	65.29
633.984	65.33
634.316	65.32
634.649	65.35
634.981	65.35
635.313	65.4
635.646	65.45
635.978	65.48
636.31	65.6
636.643	65.56
636.975	65.53
637.307	65.49
637.639	65.63
637.971	65.65
638.303	65.79
638.635	65.88
638.967	65.78
639.299	65.89
639.631	65.84
639.963	65.77
640.295	65.81
640.626	65.74
640.958	65.84
641.29	65.87
641.621	65.96
641.953	65.94
642.285	65.94
642.616	65.87
642.948	65.92
643.279	65.82
643.61	65.99
643.942	66.07
644.273	66.09
644.604	66
644.936	65.94
645.267	66.03
645.598	65.96
645.929	66.11
646.26	66.09
646.591	66.11
646.922	66.2
647.253	66.26
647.584	66.39
647.915	66.27
648.245	66.24
648.576	66.1
648.907	66.05
649.238	66.07
649.568	66.23
649.899	66.28
650.229	66.45
650.56	66.31
650.89	66.29
651.221	66.26
651.551	66.29
651.882	66.39
652.212	66.31
652.542	66.45
652.872	66.48
653.203	66.52
653.533	66.46
653.863	66.4
654.193	66.36
654.523	66.48
654.853	66.61
655.183	66.71
655.513	66.81
655.843	66.81
656.172	66.87
656.502	66.82
656.832	66.77
657.162	66.72
657.491	66.74
657.821	66.73
658.15	66.76
658.48	66.77
658.809	66.83
659.139	66.85
659.468	66.64
659.798	66.59
660.127	66.64
660.456	66.65
660.785	66.73
661.115	66.73
661.444	66.62
661.773	66.49
662.102	66.44
662.431	66.47
662.76	66.48
663.089	66.45
663.418	66.38
663.747	66.41
664.076	66.49
664.404	66.46
664.733	66.59
665.062	66.68
665.39	66.72
665.719	66.62
666.048	66.67
666.376	66.92
666.705	66.95
667.033	66.95
667.362	67.11
667.69	67.18
668.018	67.24
668.347	67.47
668.675	67.55
669.003	67.65
669.331	67.58
669.659	67.56
669.987	67.49
670.315	67.58
670.643	67.6
670.971	67.48
671.299	67.5
671.627	67.39
671.955	67.31
672.283	67.25
672.61	67.33
672.938	67.35
673.266	67.29
673.593	67.39
673.921	67.47
674.249	67.3
674.576	67.2
674.904	67.12
675.231	66.93
675.558	66.97
675.886	66.86
676.213	66.8
676.54	66.85
676.867	66.79
677.195	66.74
677.522	66.91
677.849	66.94
678.176	66.99
678.503	66.97
678.83	67.06
679.157	67.07
679.484	67.05
679.81	66.96
680.137	66.97
680.464	66.99
680.791	66.86
681.117	66.94
681.444	67.08
681.771	67.09
682.097	67.15
682.424	67.2
682.75	67.31
683.077	67.4
683.403	67.56
683.729	67.72
684.056	67.68
684.382	67.56
684.708	67.55
685.034	67.56
685.36	67.72
685.686	67.78
686.012	67.77
686.339	67.72
686.664	67.83
686.99	67.78
687.316	67.66
687.642	67.76
687.968	67.9
688.294	67.85
688.619	67.77
688.945	67.73
689.271	67.7
689.596	67.51
689.922	67.48
690.247	67.42
690.573	67.31
690.898	67.45
691.224	67.37
691.549	67.57
691.874	67.6
692.2	67.53
692.525	67.44
692.85	67.59
693.175	67.47
693.5	67.38
693.825	67.48
694.15	67.52
694.475	67.44
694.8	67.41
695.125	67.39
695.45	67.49
695.775	67.44
696.099	67.36
696.424	67.55
696.749	67.58
697.073	67.56
697.398	67.57
697.723	67.64
698.047	67.76
698.372	67.59
698.696	67.53
699.02	67.61
699.345	67.73
699.669	67.72
699.993	67.83
700.318	67.94
700.642	67.88
700.966	67.9
701.29	68
701.614	67.93
701.938	67.93
702.262	67.96
702.586	67.92
702.91	68.05
703.234	67.97
703.557	68.04
703.881	67.95
704.205	68.15
704.529	68.21
704.852	68.06
705.176	68.09
705.499	68.22
705.823	68.16
706.146	68.05
706.47	68.03
706.793	67.99
707.117	67.79
707.44	67.77
707.763	67.85
708.086	67.93
708.409	67.87
708.733	67.79
709.056	67.89
709.379	68.1
709.702	68.3
710.025	68.45
710.348	68.51
710.671	68.68
710.993	68.7
711.316	68.56
711.639	68.62
711.962	68.48
712.284	68.45
712.607	68.55
712.93	68.61
713.252	68.68
713.575	68.88
713.897	68.92
714.22	69.02
714.542	68.84
714.864	68.78
715.187	68.93
715.509	69.08
715.831	69.08
716.153	68.93
716.475	68.69
716.798	68.71
717.12	68.83
717.442	68.7
717.764	68.59
718.085	68.73
718.407	68.92
718.729	69.07
719.051	69.17
719.373	69.04
719.695	68.93
720.016	68.94
720.338	68.86
720.659	68.98
720.981	69
721.302	69.01
721.624	68.97
721.945	68.92
722.267	68.9
722.588	68.65
722.909	68.81
723.231	68.83
723.552	68.73
723.873	68.59
724.194	68.84
724.515	69.09
724.836	68.98
725.157	68.77
725.478	68.85
725.799	68.66
726.12	68.61
726.441	68.77
726.762	68.69
727.083	68.68
727.403	68.62
727.724	68.6
728.045	68.5
728.365	68.42
728.686	68.51
729.006	68.36
729.327	68.66
729.647	68.77
729.967	68.7
730.288	68.98
730.608	68.87
730.928	68.64
731.249	68.5
731.569	68.38
731.889	68.48
732.209	68.64
732.529	68.64
732.849	68.57
733.169	68.36
733.489	68.53
733.809	68.6
734.129	68.89
734.448	68.73
734.768	68.97
735.088	69
735.408	68.83
735.727	68.96
736.047	69.12
736.366	68.8
736.686	68.9
737.005	68.75
737.325	68.61
737.644	68.72
737.963	68.77
738.283	68.79
738.602	68.55
738.921	68.3
739.24	68.48
739.56	68.69
739.879	69.03
740.198	68.92
740.517	68.87
740.836	68.63
741.155	68.74
741.473	68.67
741.792	68.73
742.111	68.67
742.43	68.59
742.748	68.17
743.067	68.39
743.386	68.52
743.704	68.2
744.023	68.52
744.341	68.56
744.66	68.73
744.978	68.75
745.297	68.85
745.615	69.11
745.933	69.42
746.252	69.44
746.57	69.42
746.888	69.23
747.206	69.29
747.524	69.32
747.842	69.45
748.16	69.3
748.478	69.34
748.796	69.49
749.114	69.72
749.432	69.92
749.749	69.95
750.067	69.89
750.385	70.06
750.703	70.26
751.02	70.31
751.338	70.51
751.655	70.35
751.973	70.93
752.29	70.83
752.608	70.83
752.925	70.8
753.242	70.88
753.56	71.18
753.877	70.99
754.194	71.05
754.511	71.1
754.828	70.88
755.145	70.93
755.462	70.98
755.779	71.02
756.096	70.96
756.413	70.92
756.73	70.94
757.047	70.94
757.364	70.89
757.68	70.95
757.997	70.45
758.314	70.94
758.63	70.9
758.947	70.96
759.264	70.57
759.58	70.77
759.896	70.56
760.213	70.74
760.529	71
760.846	70.6
761.162	70.32
761.478	70.75
761.794	70.73
762.11	70.83
762.426	70.78
762.743	70.6
763.059	70.45
763.375	70.28
763.69	70.75
764.006	70.63
764.322	70.61
764.638	70.45
764.954	70.46
765.27	70.28
765.585	69.97
765.901	70.08
766.216	70.13
766.532	70.14
766.848	69.92
767.163	69.72
767.478	69.78
767.794	69.84
768.109	69.67
768.424	69.26
768.74	69.16
769.055	68.9
769.37	69.3
769.685	69.45
770	69.56
770.315	68.97
770.63	68.9
770.945	69.03
771.26	69.23
771.575	69.01
771.89	68.86
772.205	69.3
772.52	69.32
772.834	68.78
773.149	68.88
773.464	68.76
773.778	69.07
774.093	69.27
774.407	69.4
774.722	69.47
775.036	69.93
775.351	69.95
775.665	70.06
775.979	69.48
776.293	69.64
776.608	69.55
776.922	69.64
777.236	69.54
777.55	69.05
777.864	69.58
778.178	69.78
778.492	70.04
778.806	70.5
779.12	70.21
779.434	70.04
779.747	70.22
780.061	70.2
780.375	70.19
780.689	70.36
781.002	70.04
781.316	70.01
781.629	70.01
781.943	70.09
782.256	69.84
782.57	69.67
782.883	69.2
783.196	69.59
783.51	69.72
783.823	69.82
784.136	70.18
784.449	69.32
784.762	69.21
785.075	68.79
785.388	68.06
785.701	68.47
786.014	68.97
786.327	68.89
786.64	69.57
786.953	69.86
787.266	69.76
787.578	70.04
787.891	70.49
788.204	70.59
788.516	70.57
788.829	70.93
789.141	71.89
789.454	72.9
789.766	72.55
790.079	71.91
790.391	72.11
790.703	71.9
791.016	72.47
791.328	71.96
791.64	71.86
791.952	72.29
792.264	72.25
792.576	72.01
792.888	71.72
793.2	71.2
793.512	71.02
793.824	70.69
794.136	71.24
794.448	71.03
794.76	70.73
795.071	70.7
795.383	70.29
795.695	69.69
796.006	69.46
796.318	69.3
796.629	70.06
796.941	69.69
797.252	69.67
797.564	69.7
797.875	69.67
798.186	70.13
798.497	69.97
798.809	69.54
799.12	69.53
799.431	69.44
799.742	69.43
800.053	69.27
800.364	69.63
800.675	69.3
800.986	69.63
801.297	69.84
801.608	70.19
801.918	71
802.229	71.08
802.54	70.69
802.851	71.19
803.161	70.49
803.472	70.7
803.782	71.03
804.093	71.44
804.403	72.23
804.714	72.81
805.024	72.89
805.334	73.32
805.645	73.13
805.955	73.34
806.265	73.46
806.575	73.57
806.885	73.66
807.195	73.93
807.505	73.85
807.815	74.48
808.125	73.44
808.435	73.23
808.745	73.22
809.055	73.27
809.365	73.2
809.674	73.25
809.984	74.05
810.294	73.7
810.603	73.75
810.913	74.08
811.222	73.13
811.532	73.07
811.841	72.77
812.151	73.33
812.46	72.63
812.769	71.92
813.079	71.43
813.388	71.88
813.697	71.65
814.006	71.35
814.315	71.22
814.624	72.18
814.933	72.04
815.242	72.57
815.551	72.64
815.86	72.17
816.169	72.46
816.478	72.01
816.786	72.43
817.095	72.22
817.404	71.34
817.712	71.65
818.021	71.81
818.33	71.95
818.638	71.87
818.947	72.1
819.255	72.48
819.563	72.58
819.872	72.11
820.18	71.99
820.488	72.1
820.796	71.97
821.105	71.77
821.413	71.64
821.721	71.5
822.029	71.47
822.337	71.6
822.645	71.46
822.953	71.47
823.26	71.3
823.568	71.02
823.876	71.25
824.184	71.24
824.491	71.12
824.799	71.28
825.107	71.21
825.414	71.33
825.722	71.36
826.029	71.4
826.337	71.36
826.644	71.52
826.951	71.36
827.259	71.42
827.566	71.41
827.873	71.41
828.18	71.49
828.488	71.51
828.795	71.73
829.102	71.82
829.409	71.58
829.716	71.81
830.023	72.1
830.329	71.91
830.636	72
830.943	72.39
831.25	72.31
831.557	72.32
831.863	72.39
832.17	72.17
832.476	72.38
832.783	72.79
833.089	72.03
833.396	72.28
833.702	72.24
834.009	72.19
834.315	72.35
834.621	72.77
834.928	72.34
835.234	72.22
835.54	72.94
835.846	72.99
836.152	72.9
836.458	72.99
836.764	73.05
837.07	72.61
837.376	72.8
837.682	73.04
837.988	73.11
838.293	73.1
838.599	72.88
838.905	72.42
839.211	71.69
839.516	71.85
839.822	71.35
840.127	71.38
840.433	71.82
840.738	71.13
841.044	70.59
841.349	71.28
841.654	70.7
841.959	70.28
842.265	71.57
842.57	71.61
842.875	71.49
843.18	72.17
843.485	74.1
843.79	73.07
844.095	70.82
844.4	71.35
844.705	70.71
845.01	71.93
845.315	70.95
845.619	72.14
845.924	73.91
846.229	74.99
846.533	73.05
846.838	72.11
847.142	72.65
847.447	71.2
847.751	71.97
848.056	71.35
848.36	71.22
848.664	71.86
848.969	71.22
849.273	71.73
849.577	69.91
849.881	66.66
850.185	67.12
850.489	68.72
850.794	68.23
851.097	69.33
851.401	69.95
851.705	71.05
852.009	71.37
852.313	70.19
852.617	69.86
852.92	70.83
853.224	70.92
853.528	71.68
853.831	72.07
854.135	70.48
854.438	71.26
854.742	72.5
855.045	69.29
855.349	69.62
855.652	70.83
855.955	72.47
856.259	73.79
856.562	73.29
856.865	73.53
857.168	75.11
857.471	72
857.774	72.4
858.077	73.53
858.38	72.62
858.683	74.93
858.986	76.21
859.289	77.69
859.592	77.63
859.894	78.78
860.197	78.14
860.5	78.97
860.802	79.77
861.105	79.34
861.407	79.37
861.71	78.3
862.012	76.47
862.315	75.19
862.617	74.94
862.919	77.71
863.222	78.08
863.524	75.91
863.826	78.82
864.128	78.31
864.43	79.28
864.732	81.41
865.034	80.54
865.336	80.3
865.638	78.56
865.94	82.01
866.242	80.53
866.544	82.61
866.846	81.54
867.147	82.41
867.449	81.01
867.751	83.5
868.052	85.01
868.354	83.96
868.655	82.71
868.957	82.18
869.258	81.43
869.56	80.04
869.861	80.63
870.162	80.77
870.463	79.24
870.765	77.66
871.066	74.78
871.367	74.33
871.668	72.85
871.969	74.11
872.27	72.67
872.571	76.38
872.872	75.38
873.173	77.32
873.473	75.42
873.774	75.32
874.075	74.43
874.376	74.23
874.676	75.44
874.977	74.82
875.277	76.7
875.578	76.88
875.878	78.06
876.179	79.17
876.479	79.38
876.78	80.86
877.08	81.63
877.38	84.57
877.68	84.49
877.981	86.61
878.281	88.6
878.581	87.15
