Data from BA28469_Reflection_00001.txt Node
Date: Mon Nov 18 15:17:41 EST 2019
User: vgr7
Spectrometer: USB2G7710
Scans to average: 3
Trigger mode: 4
Integration Time (sec): 2.000000E-2
Electric dark correction enabled: true
Boxcar width: 10
XAxis mode: Wavelengths
Number of Pixels in Spectrum: 2048
>>>>>Begin Spectral Data<<<<<
177.721	213.05
178.105	-15233.33
178.488	2.03
178.871	15.37
179.254	62.6
179.636	766.67
180.019	202.25
180.402	131.58
180.785	144.26
181.168	41.54
181.55	278.4
181.933	119.05
182.316	101.35
182.698	115.39
183.081	165.36
183.463	139.36
183.846	128.99
184.228	35.1
184.611	29.7
184.993	4322.22
185.376	15.61
185.758	137.3
186.14	87.71
186.522	-176.73
186.904	-129.58
187.287	335.99
187.669	-58.89
188.051	-213.2
188.433	-53.29
188.815	-5.95
189.197	-11.72
189.579	-13.44
189.961	-10.58
190.342	-18
190.724	6.2
191.106	-3.75
191.488	4.22
191.869	8.65
192.251	-11.7
192.633	-12.8
193.014	2.02
193.396	-6.52
193.777	-21.08
194.159	-19.07
194.54	-19.41
194.922	-8.66
195.303	-14.11
195.684	-18.01
196.065	-7.38
196.447	14.28
196.828	5.34
197.209	6.76
197.59	27.63
197.971	40.81
198.352	51.19
198.733	12.57
199.114	9.8
199.495	14.39
199.876	8.87
200.257	19.04
200.638	40.03
201.018	18.16
201.399	18.16
201.78	26.63
202.16	27.4
202.541	4.57
202.922	-50.68
203.302	-39.57
203.683	-50.41
204.063	-53.94
204.444	-131.5
204.824	-153.5
205.204	-123.77
205.585	-101.11
205.965	-123.55
206.345	-122.47
206.725	-75.95
207.106	-102.54
207.486	-143.42
207.866	-165.41
208.246	-169.54
208.626	-193.45
209.006	-140.39
209.386	-162.83
209.766	-147.57
210.145	-97.72
210.525	-72.88
210.905	-55.89
211.285	-59.91
211.664	-53.3
212.044	-56.82
212.424	-29.64
212.803	-38.08
213.183	-38.24
213.562	-33.61
213.942	-18.43
214.321	-13.45
214.701	-17.86
215.08	-25.41
215.459	-11.06
215.838	-4.99
216.218	-11.48
216.597	-9.04
216.976	-10.7
217.355	-5.57
217.734	-6.91
218.113	-11.06
218.492	-4.04
218.871	-8.06
219.25	-3.93
219.629	-9.26
220.008	-1.99
220.387	-10.55
220.766	-3.98
221.144	-4.36
221.523	-23.18
221.902	-30.94
222.28	-48.21
222.659	-35.08
223.037	-32.75
223.416	-40.23
223.794	-47.46
224.173	-24.34
224.551	-25.16
224.929	-27.22
225.308	-19.7
225.686	-7.48
226.064	-7.71
226.442	-11.86
226.821	-9.17
227.199	-7.68
227.577	-6.55
227.955	-7.04
228.333	-6.87
228.711	-2.24
229.089	-0.91
229.467	-1.8
229.845	-1.77
230.222	1.88
230.6	0.68
230.978	1.68
231.356	4.66
231.733	4.93
232.111	5.11
232.488	3.44
232.866	3.42
233.243	3.58
233.621	2.86
233.998	4.12
234.376	3.92
234.753	2.49
235.13	3.43
235.508	3.98
235.885	3.79
236.262	4.55
236.639	3.59
237.016	3.64
237.393	6.27
237.77	6.61
238.147	5.7
238.524	5.24
238.901	5.73
239.278	5.28
239.655	6.3
240.032	5.61
240.409	5.68
240.785	5.31
241.162	5.55
241.539	5.48
241.915	5.19
242.292	5.37
242.668	5.82
243.045	5.68
243.421	5.76
243.798	5.68
244.174	5.42
244.551	5.46
244.927	5.41
245.303	5.25
245.679	5.14
246.056	5.06
246.432	5.07
246.808	5.1
247.184	4.9
247.56	4.59
247.936	4.41
248.312	4.45
248.688	4.46
249.064	4.23
249.44	4.24
249.815	4.43
250.191	4.48
250.567	4.54
250.943	4.41
251.318	4.34
251.694	4.58
252.069	4.76
252.445	4.7
252.82	4.54
253.196	4.43
253.571	4.57
253.947	4.58
254.322	4.8
254.697	4.84
255.073	4.61
255.448	4.28
255.823	4.6
256.198	4.53
256.573	4.6
256.948	4.67
257.323	4.56
257.698	4.55
258.073	4.37
258.448	4.05
258.823	4.13
259.198	3.99
259.573	3.85
259.948	3.65
260.322	3.79
260.697	3.81
261.072	3.76
261.446	3.71
261.821	3.75
262.195	3.72
262.57	3.45
262.944	3.64
263.319	3.8
263.693	3.65
264.067	3.57
264.442	3.52
264.816	3.53
265.19	3.53
265.564	3.3
265.938	3.16
266.313	3.44
266.687	3.3
267.061	3.36
267.435	3.25
267.809	3.45
268.183	3.24
268.556	3.37
268.93	3.43
269.304	3.6
269.678	3.57
270.051	3.48
270.425	3.61
270.799	3.54
271.172	3.62
271.546	3.68
271.919	3.74
272.293	3.81
272.666	3.71
273.04	3.73
273.413	3.83
273.787	4.05
274.16	4
274.533	3.98
274.906	3.93
275.279	4.06
275.653	4.01
276.026	4.07
276.399	3.86
276.772	3.77
277.145	3.71
277.518	3.75
277.891	3.71
278.263	3.55
278.636	3.45
279.009	3.41
279.382	3.49
279.755	3.65
280.127	3.58
280.5	3.71
280.872	3.77
281.245	3.64
281.617	3.62
281.99	3.63
282.362	3.79
282.735	3.9
283.107	3.73
283.479	3.75
283.852	3.7
284.224	3.8
284.596	3.89
284.968	3.86
285.34	3.82
285.713	3.93
286.085	4.15
286.457	4.36
286.829	4.38
287.201	4.28
287.572	4.23
287.944	4.17
288.316	4.09
288.688	4.04
289.06	3.96
289.431	3.95
289.803	3.91
290.175	3.84
290.546	3.82
290.918	3.94
291.289	3.85
291.661	3.98
292.032	4.06
292.403	4.1
292.775	4.1
293.146	4.11
293.517	4.09
293.889	4.02
294.26	3.89
294.631	3.85
295.002	3.85
295.373	3.76
295.744	3.9
296.115	4
296.486	3.86
296.857	4.02
297.228	4.01
297.599	3.93
297.97	3.91
298.34	3.86
298.711	3.81
299.082	3.83
299.452	3.79
299.823	3.81
300.194	3.68
300.564	3.61
300.935	3.61
301.305	3.44
301.676	3.53
302.046	3.49
302.416	3.58
302.787	3.7
303.157	3.74
303.527	3.68
303.897	3.67
304.267	3.87
304.637	3.87
305.008	3.78
305.378	3.89
305.748	3.95
306.117	3.92
306.487	3.9
306.857	3.91
307.227	3.93
307.597	3.86
307.967	3.85
308.336	3.9
308.706	3.87
309.076	3.95
309.445	3.86
309.815	3.8
310.184	3.56
310.554	3.5
310.923	3.42
311.293	3.41
311.662	3.29
312.031	3.2
312.401	3.14
312.77	3.18
313.139	3.09
313.508	3.01
313.877	3.05
314.246	3.21
314.616	3.15
314.985	3.03
315.353	2.95
315.722	3.12
316.091	2.99
316.46	3.01
316.829	2.97
317.198	2.89
317.567	2.89
317.935	3.01
318.304	3.08
318.672	3.13
319.041	3.17
319.41	3.22
319.778	3.28
320.147	3.16
320.515	3.23
320.883	3.34
321.252	3.43
321.62	3.35
321.988	3.17
322.357	3.21
322.725	2.98
323.093	3.07
323.461	2.94
323.829	2.95
324.197	2.96
324.565	3.02
324.933	3.07
325.301	3.19
325.669	3.26
326.037	3.14
326.405	3.16
326.772	3.18
327.14	3.22
327.508	3.22
327.875	3.3
328.243	3.33
328.61	3.29
328.978	3.32
329.346	3.31
329.713	3.37
330.08	3.35
330.448	3.54
330.815	3.35
331.182	3.35
331.55	3.32
331.917	3.39
332.284	3.4
332.651	3.41
333.018	3.33
333.385	3.23
333.752	3.36
334.119	3.4
334.486	3.19
334.853	3.18
335.22	3.23
335.587	3.22
335.954	3.17
336.32	3.15
336.687	3.12
337.054	3.19
337.42	3.3
337.787	3.28
338.153	3.28
338.52	3.4
338.886	3.3
339.253	3.31
339.619	3.23
339.986	3.23
340.352	3.29
340.718	3.28
341.084	3.29
341.451	3.28
341.817	3.31
342.183	3.37
342.549	3.32
342.915	3.24
343.281	3.26
343.647	3.13
344.013	3.17
344.379	3.11
344.745	3.15
345.11	3
345.476	3.07
345.842	3.1
346.208	3.13
346.573	3.27
346.939	3.31
347.304	3.29
347.67	3.25
348.035	3.19
348.401	3.31
348.766	3.37
349.132	3.35
349.497	3.24
349.862	3.33
350.228	3.32
350.593	3.39
350.958	3.38
351.323	3.52
351.688	3.52
352.053	3.6
352.418	3.58
352.783	3.7
353.148	3.6
353.513	3.66
353.878	3.55
354.243	3.55
354.608	3.61
354.972	3.62
355.337	3.64
355.702	3.71
356.066	3.77
356.431	3.74
356.795	3.72
357.16	3.68
357.524	3.59
357.889	3.59
358.253	3.59
358.618	3.61
358.982	3.55
359.346	3.53
359.71	3.49
360.075	3.51
360.439	3.49
360.803	3.52
361.167	3.48
361.531	3.51
361.895	3.45
362.259	3.42
362.623	3.43
362.987	3.45
363.351	3.47
363.714	3.4
364.078	3.4
364.442	3.44
364.806	3.5
365.169	3.54
365.533	3.56
365.896	3.53
366.26	3.55
366.623	3.61
366.987	3.63
367.35	3.71
367.714	3.72
368.077	3.7
368.44	3.73
368.803	3.68
369.167	3.62
369.53	3.66
369.893	3.66
370.256	3.62
370.619	3.58
370.982	3.45
371.345	3.43
371.708	3.43
372.071	3.33
372.434	3.31
372.797	3.33
373.159	3.32
373.522	3.35
373.885	3.33
374.247	3.32
374.61	3.33
374.973	3.26
375.335	3.21
375.698	3.24
376.06	3.19
376.423	3.2
376.785	3.31
377.147	3.34
377.51	3.34
377.872	3.4
378.234	3.44
378.596	3.53
378.958	3.53
379.321	3.55
379.683	3.6
380.045	3.59
380.407	3.59
380.769	3.59
381.13	3.61
381.492	3.61
381.854	3.59
382.216	3.52
382.578	3.53
382.939	3.5
383.301	3.45
383.663	3.43
384.024	3.44
384.386	3.42
384.747	3.38
385.109	3.36
385.47	3.3
385.832	3.33
386.193	3.31
386.554	3.29
386.916	3.3
387.277	3.3
387.638	3.33
387.999	3.28
388.36	3.28
388.721	3.24
389.082	3.22
389.443	3.26
389.804	3.33
390.165	3.32
390.526	3.37
390.887	3.38
391.248	3.44
391.609	3.45
391.969	3.46
392.33	3.45
392.691	3.48
393.051	3.5
393.412	3.51
393.772	3.48
394.133	3.5
394.493	3.5
394.854	3.47
395.214	3.45
395.574	3.49
395.935	3.49
396.295	3.53
396.655	3.53
397.015	3.52
397.376	3.49
397.736	3.51
398.096	3.5
398.456	3.49
398.816	3.48
399.176	3.43
399.535	3.43
399.895	3.44
400.255	3.42
400.615	3.42
400.975	3.39
401.334	3.39
401.694	3.41
402.054	3.36
402.413	3.39
402.773	3.39
403.132	3.38
403.492	3.39
403.851	3.39
404.211	3.42
404.57	3.4
404.929	3.39
405.288	3.37
405.648	3.37
406.007	3.37
406.366	3.37
406.725	3.4
407.084	3.41
407.443	3.4
407.802	3.43
408.161	3.42
408.52	3.41
408.879	3.39
409.238	3.37
409.596	3.39
409.955	3.38
410.314	3.39
410.673	3.39
411.031	3.38
411.39	3.37
411.748	3.36
412.107	3.37
412.465	3.37
412.824	3.37
413.182	3.36
413.54	3.39
413.899	3.38
414.257	3.4
414.615	3.37
414.974	3.42
415.332	3.42
415.69	3.42
416.048	3.44
416.406	3.46
416.764	3.44
417.122	3.45
417.48	3.45
417.838	3.46
418.195	3.45
418.553	3.46
418.911	3.46
419.269	3.44
419.626	3.42
419.984	3.43
420.342	3.45
420.699	3.45
421.057	3.44
421.414	3.45
421.772	3.44
422.129	3.46
422.486	3.45
422.844	3.45
423.201	3.44
423.558	3.45
423.915	3.46
424.273	3.47
424.63	3.47
424.987	3.45
425.344	3.45
425.701	3.46
426.058	3.45
426.415	3.45
426.772	3.45
427.128	3.47
427.485	3.47
427.842	3.46
428.199	3.46
428.555	3.46
428.912	3.48
429.269	3.48
429.625	3.45
429.982	3.46
430.338	3.45
430.695	3.46
431.051	3.43
431.407	3.4
431.764	3.4
432.12	3.38
432.476	3.42
432.832	3.41
433.189	3.41
433.545	3.4
433.901	3.4
434.257	3.41
434.613	3.42
434.969	3.42
435.325	3.44
435.681	3.45
436.036	3.46
436.392	3.45
436.748	3.45
437.104	3.45
437.459	3.44
437.815	3.44
438.171	3.46
438.526	3.48
438.882	3.5
439.237	3.51
439.593	3.53
439.948	3.52
440.304	3.53
440.659	3.53
441.014	3.55
441.369	3.55
441.725	3.54
442.08	3.54
442.435	3.53
442.79	3.53
443.145	3.52
443.5	3.52
443.855	3.49
444.21	3.49
444.565	3.49
444.92	3.5
445.275	3.48
445.629	3.48
445.984	3.47
446.339	3.46
446.693	3.45
447.048	3.45
447.403	3.44
447.757	3.43
448.112	3.42
448.466	3.4
448.82	3.41
449.175	3.42
449.529	3.43
449.883	3.41
450.238	3.4
450.592	3.41
450.946	3.39
451.3	3.42
451.654	3.42
452.008	3.43
452.362	3.42
452.716	3.42
453.07	3.43
453.424	3.43
453.778	3.45
454.132	3.44
454.486	3.43
454.839	3.43
455.193	3.46
455.547	3.46
455.9	3.5
456.254	3.5
456.607	3.51
456.961	3.49
457.314	3.49
457.668	3.51
458.021	3.5
458.375	3.5
458.728	3.49
459.081	3.47
459.434	3.46
459.787	3.47
460.141	3.47
460.494	3.46
460.847	3.46
461.2	3.45
461.553	3.47
461.906	3.47
462.259	3.48
462.611	3.47
462.964	3.49
463.317	3.48
463.67	3.48
464.022	3.46
464.375	3.46
464.728	3.47
465.08	3.46
465.433	3.48
465.785	3.5
466.138	3.51
466.49	3.54
466.843	3.55
467.195	3.56
467.547	3.57
467.899	3.58
468.252	3.55
468.604	3.55
468.956	3.55
469.308	3.55
469.66	3.54
470.012	3.53
470.364	3.51
470.716	3.51
471.068	3.53
471.42	3.53
471.772	3.55
472.123	3.55
472.475	3.55
472.827	3.53
473.178	3.55
473.53	3.53
473.882	3.54
474.233	3.52
474.585	3.48
474.936	3.49
475.288	3.49
475.639	3.53
475.99	3.54
476.342	3.54
476.693	3.55
477.044	3.57
477.395	3.56
477.746	3.57
478.097	3.55
478.448	3.55
478.8	3.56
479.15	3.56
479.501	3.56
479.852	3.57
480.203	3.59
480.554	3.6
480.905	3.61
481.255	3.62
481.606	3.63
481.957	3.64
482.307	3.65
482.658	3.65
483.009	3.64
483.359	3.64
483.709	3.64
484.06	3.65
484.41	3.65
484.761	3.66
485.111	3.67
485.461	3.68
485.811	3.69
486.162	3.68
486.512	3.68
486.862	3.69
487.212	3.7
487.562	3.68
487.912	3.68
488.262	3.68
488.612	3.68
488.961	3.69
489.311	3.69
489.661	3.69
490.011	3.69
490.36	3.7
490.71	3.7
491.06	3.7
491.409	3.7
491.759	3.68
492.108	3.68
492.458	3.66
492.807	3.64
493.157	3.63
493.506	3.64
493.855	3.64
494.204	3.62
494.554	3.62
494.903	3.63
495.252	3.61
495.601	3.62
495.95	3.61
496.299	3.6
496.648	3.6
496.997	3.58
497.346	3.59
497.695	3.59
498.043	3.59
498.392	3.57
498.741	3.59
499.09	3.57
499.438	3.61
499.787	3.6
500.135	3.63
500.484	3.66
500.832	3.66
501.181	3.66
501.529	3.67
501.878	3.67
502.226	3.67
502.574	3.69
502.923	3.68
503.271	3.68
503.619	3.7
503.967	3.69
504.315	3.69
504.663	3.69
505.011	3.69
505.359	3.69
505.707	3.7
506.055	3.69
506.403	3.73
506.751	3.71
507.098	3.74
507.446	3.72
507.794	3.69
508.141	3.7
508.489	3.71
508.837	3.7
509.184	3.73
509.531	3.72
509.879	3.74
510.226	3.76
510.574	3.76
510.921	3.77
511.268	3.77
511.616	3.78
511.963	3.78
512.31	3.77
512.657	3.77
513.004	3.77
513.351	3.79
513.698	3.78
514.045	3.78
514.392	3.77
514.739	3.78
515.086	3.79
515.432	3.77
515.779	3.76
516.126	3.78
516.473	3.78
516.819	3.8
517.166	3.8
517.512	3.81
517.859	3.8
518.205	3.81
518.552	3.83
518.898	3.83
519.245	3.84
519.591	3.84
519.937	3.83
520.283	3.86
520.629	3.85
520.976	3.87
521.322	3.87
521.668	3.88
522.014	3.89
522.36	3.91
522.706	3.92
523.052	3.91
523.398	3.91
523.743	3.9
524.089	3.91
524.435	3.91
524.781	3.91
525.126	3.94
525.472	3.95
525.817	3.93
526.163	3.94
526.509	3.95
526.854	3.97
527.199	3.98
527.545	3.97
527.89	3.98
528.235	3.99
528.581	3.99
528.926	3.99
529.271	3.98
529.616	3.98
529.961	3.99
530.306	4
530.651	3.99
530.996	4
531.341	3.99
531.686	4
532.031	3.99
532.376	3.98
532.721	3.98
533.065	3.99
533.41	3.99
533.755	3.98
534.099	3.99
534.444	3.99
534.788	4
535.133	4
535.477	3.98
535.822	3.98
536.166	3.98
536.51	4
536.855	4.01
537.199	4.02
537.543	4.02
537.887	4.04
538.231	4.02
538.576	4.04
538.92	4.03
539.264	4.02
539.608	4.03
539.951	4.01
540.295	4.01
540.639	4.01
540.983	4.02
541.327	4.01
541.671	4.02
542.014	4
542.358	4
542.701	4.01
543.045	4.02
543.389	4.04
543.732	4.03
544.075	4.02
544.419	4.02
544.762	4.04
545.105	4.05
545.449	4.06
545.792	4.05
546.135	4.06
546.478	4.07
546.821	4.06
547.165	4.08
547.508	4.1
547.851	4.08
548.194	4.1
548.536	4.09
548.879	4.07
549.222	4.09
549.565	4.1
549.908	4.09
550.25	4.09
550.593	4.08
550.936	4.08
551.278	4.07
551.621	4.07
551.963	4.04
552.306	4.03
552.648	4.03
552.991	4.06
553.333	4.05
553.675	4.08
554.017	4.1
554.36	4.1
554.702	4.1
555.044	4.1
555.386	4.11
555.728	4.12
556.07	4.13
556.412	4.13
556.754	4.11
557.096	4.13
557.438	4.15
557.78	4.13
558.121	4.13
558.463	4.17
558.805	4.15
559.147	4.18
559.488	4.17
559.83	4.17
560.171	4.16
560.513	4.18
560.854	4.17
561.196	4.16
561.537	4.19
561.878	4.22
562.22	4.23
562.561	4.21
562.902	4.21
563.243	4.19
563.584	4.18
563.925	4.21
564.266	4.19
564.607	4.16
564.948	4.19
565.289	4.19
565.63	4.18
565.971	4.22
566.312	4.21
566.653	4.22
566.993	4.19
567.334	4.16
567.675	4.16
568.015	4.15
568.356	4.14
568.696	4.13
569.037	4.1
569.377	4.1
569.718	4.09
570.058	4.1
570.398	4.1
570.739	4.09
571.079	4.08
571.419	4.12
571.759	4.13
572.099	4.1
572.439	4.1
572.779	4.1
573.119	4.1
573.459	4.11
573.799	4.13
574.139	4.16
574.479	4.21
574.819	4.19
575.158	4.18
575.498	4.18
575.838	4.17
576.177	4.18
576.517	4.19
576.856	4.21
577.196	4.21
577.535	4.21
577.875	4.2
578.214	4.21
578.553	4.22
578.893	4.21
579.232	4.23
579.571	4.25
579.91	4.26
580.25	4.21
580.589	4.2
580.928	4.15
581.267	4.13
581.606	4.1
581.945	4.15
582.283	4.18
582.622	4.2
582.961	4.23
583.3	4.24
583.639	4.28
583.977	4.26
584.316	4.24
584.654	4.24
584.993	4.26
585.332	4.25
585.67	4.22
586.008	4.23
586.347	4.22
586.685	4.17
587.024	4.17
587.362	4.21
587.7	4.21
588.038	4.29
588.376	4.27
588.715	4.28
589.053	4.28
589.391	4.26
589.729	4.26
590.067	4.25
590.404	4.24
590.742	4.23
591.08	4.24
591.418	4.24
591.756	4.28
592.093	4.29
592.431	4.29
592.769	4.29
593.106	4.32
593.444	4.34
593.781	4.35
594.119	4.38
594.456	4.38
594.793	4.38
595.131	4.32
595.468	4.36
595.805	4.34
596.143	4.3
596.48	4.29
596.817	4.29
597.154	4.29
597.491	4.28
597.828	4.26
598.165	4.27
598.502	4.27
598.839	4.26
599.176	4.25
599.512	4.27
599.849	4.26
600.186	4.25
600.523	4.27
600.859	4.31
601.196	4.3
601.532	4.26
601.869	4.24
602.205	4.27
602.542	4.26
602.878	4.29
603.215	4.32
603.551	4.35
603.887	4.34
604.223	4.34
604.56	4.37
604.896	4.39
605.232	4.42
605.568	4.43
605.904	4.46
606.24	4.48
606.576	4.48
606.912	4.49
607.248	4.48
607.583	4.44
607.919	4.44
608.255	4.4
608.591	4.43
608.926	4.43
609.262	4.47
609.597	4.46
609.933	4.46
610.268	4.46
610.604	4.44
610.939	4.48
611.275	4.47
611.61	4.47
611.945	4.47
612.281	4.44
612.616	4.45
612.951	4.44
613.286	4.44
613.621	4.41
613.956	4.44
614.291	4.46
614.626	4.5
614.961	4.47
615.296	4.46
615.631	4.47
615.966	4.51
616.3	4.47
616.635	4.49
616.97	4.47
617.304	4.5
617.639	4.51
617.973	4.53
618.308	4.58
618.642	4.55
618.977	4.53
619.311	4.54
619.646	4.48
619.98	4.5
620.314	4.51
620.648	4.59
620.983	4.59
621.317	4.57
621.651	4.61
621.985	4.63
622.319	4.67
622.653	4.71
622.987	4.69
623.321	4.69
623.655	4.69
623.988	4.76
624.322	4.74
624.656	4.76
624.99	4.74
625.323	4.72
625.657	4.76
625.99	4.81
626.324	4.77
626.657	4.83
626.991	4.8
627.324	4.78
627.658	4.77
627.991	4.74
628.324	4.75
628.657	4.72
628.991	4.75
629.324	4.76
629.657	4.73
629.99	4.76
630.323	4.8
630.656	4.8
630.989	4.79
631.322	4.78
631.655	4.78
631.987	4.76
632.32	4.76
632.653	4.72
632.986	4.72
633.318	4.72
633.651	4.7
633.984	4.73
634.316	4.76
634.649	4.72
634.981	4.72
635.313	4.74
635.646	4.71
635.978	4.68
636.31	4.69
636.643	4.69
636.975	4.74
637.307	4.72
637.639	4.74
637.971	4.71
638.303	4.68
638.635	4.64
638.967	4.68
639.299	4.75
639.631	4.73
639.963	4.66
640.295	4.66
640.626	4.68
640.958	4.73
641.29	4.72
641.621	4.72
641.953	4.73
642.285	4.71
642.616	4.77
642.948	4.74
643.279	4.72
643.61	4.73
643.942	4.61
644.273	4.61
644.604	4.58
644.936	4.53
645.267	4.53
645.598	4.51
645.929	4.47
646.26	4.4
646.591	4.37
646.922	4.39
647.253	4.41
647.584	4.38
647.915	4.3
648.245	4.31
648.576	4.38
648.907	4.4
649.238	4.4
649.568	4.42
649.899	4.47
650.229	4.5
650.56	4.52
650.89	4.57
651.221	4.53
651.551	4.52
651.882	4.58
652.212	4.6
652.542	4.63
652.872	4.61
653.203	4.62
653.533	4.64
653.863	4.62
654.193	4.7
654.523	4.75
654.853	4.75
655.183	4.74
655.513	4.71
655.843	4.72
656.172	4.72
656.502	4.72
656.832	4.69
657.162	4.7
657.491	4.72
657.821	4.67
658.15	4.65
658.48	4.68
658.809	4.7
659.139	4.71
659.468	4.69
659.798	4.69
660.127	4.71
660.456	4.73
660.785	4.83
661.115	4.74
661.444	4.72
661.773	4.74
662.102	4.75
662.431	4.75
662.76	4.76
663.089	4.72
663.418	4.69
663.747	4.7
664.076	4.69
664.404	4.65
664.733	4.7
665.062	4.79
665.39	4.72
665.719	4.65
666.048	4.7
666.376	4.77
666.705	4.76
667.033	4.77
667.362	4.82
667.69	4.75
668.018	4.75
668.347	4.7
668.675	4.72
669.003	4.82
669.331	4.88
669.659	4.9
669.987	4.91
670.315	4.91
670.643	4.93
670.971	4.91
671.299	5.01
671.627	5.02
671.955	5.04
672.283	5.13
672.61	5.16
672.938	5.18
673.266	5.17
673.593	5.29
673.921	5.28
674.249	5.25
674.576	5.3
674.904	5.4
675.231	5.42
675.558	5.45
675.886	5.35
676.213	5.28
676.54	5.28
676.867	5.36
677.195	5.35
677.522	5.35
677.849	5.34
678.176	5.26
678.503	5.24
678.83	5.25
679.157	5.2
679.484	5.18
679.81	5.09
680.137	5.14
680.464	5.07
680.791	5.03
681.117	5.05
681.444	4.96
681.771	4.91
682.097	4.92
682.424	4.92
682.75	4.93
683.077	4.96
683.403	4.95
683.729	4.92
684.056	4.99
684.382	5.04
684.708	4.98
685.034	4.88
685.36	4.92
685.686	4.89
686.012	4.89
686.339	4.94
686.664	4.95
686.99	4.89
687.316	4.87
687.642	5.02
687.968	4.97
688.294	5.04
688.619	5.14
688.945	5.1
689.271	4.97
689.596	4.84
689.922	4.88
690.247	4.81
690.573	4.87
690.898	4.83
691.224	4.84
691.549	5
691.874	5.13
692.2	5.24
692.525	5.29
692.85	5.4
693.175	5.49
693.5	5.55
693.825	5.53
694.15	5.59
694.475	5.52
694.8	5.59
695.125	5.56
695.45	5.44
695.775	5.49
696.099	5.64
696.424	5.75
696.749	5.61
697.073	5.69
697.398	5.58
697.723	5.5
698.047	5.41
698.372	5.3
698.696	5.29
699.02	5.18
699.345	5.22
699.669	5.22
699.993	5.16
700.318	5.17
700.642	5.17
700.966	5.21
701.29	5.22
701.614	5.14
701.938	5.19
702.262	5.26
702.586	5.3
702.91	5.26
703.234	5.26
703.557	5.43
703.881	5.42
704.205	5.5
704.529	5.56
704.852	5.61
705.176	5.62
705.499	5.58
705.823	5.54
706.146	5.41
706.47	5.3
706.793	5.41
707.117	5.36
707.44	5.31
707.763	5.28
708.086	5.29
708.409	5.34
708.733	5.3
709.056	5.26
709.379	5.36
709.702	5.42
710.025	5.38
710.348	5.28
710.671	5.19
710.993	5.24
711.316	5.23
711.639	5.19
711.962	5.3
712.284	5.32
712.607	5.44
712.93	5.47
713.252	5.55
713.575	5.47
713.897	5.51
714.22	5.59
714.542	5.65
714.864	5.63
715.187	5.67
715.509	5.65
715.831	5.62
716.153	5.52
716.475	5.45
716.798	5.65
717.12	5.67
717.442	5.82
717.764	5.74
718.085	5.78
718.407	5.82
718.729	5.74
719.051	5.8
719.373	5.74
719.695	5.64
720.016	5.51
720.338	5.46
720.659	5.48
720.981	5.55
721.302	5.47
721.624	5.4
721.945	5.48
722.267	5.47
722.588	5.44
722.909	5.44
723.231	5.39
723.552	5.16
723.873	5.34
724.194	5.18
724.515	5.24
724.836	5.25
725.157	5.44
725.478	5.47
725.799	5.54
726.12	5.59
726.441	5.8
726.762	5.98
727.083	5.98
727.403	6.01
727.724	5.96
728.045	5.92
728.365	5.9
728.686	5.8
729.006	6
729.327	5.99
729.647	6.09
729.967	6.13
730.288	6.17
730.608	6.01
730.928	6.02
731.249	6.08
731.569	6.22
731.889	6.1
732.209	6.12
732.529	6.02
732.849	5.98
733.169	5.91
733.489	5.99
733.809	5.96
734.129	6.06
734.448	6.15
734.768	6.15
735.088	6.26
735.408	6.36
735.727	6.26
736.047	6.37
736.366	6.18
736.686	6.12
737.005	6.27
737.325	6.33
737.644	6.32
737.963	6.36
738.283	6.2
738.602	6.16
738.921	6.31
739.24	6.49
739.56	6.53
739.879	6.54
740.198	6.45
740.517	6.45
740.836	6.4
741.155	6.27
741.473	6.21
741.792	6.33
742.111	6.21
742.43	6.17
742.748	6.16
743.067	6.2
743.386	6.4
743.704	6.36
744.023	6.49
744.341	6.58
744.66	6.76
744.978	6.6
745.297	6.85
745.615	6.74
745.933	6.66
746.252	6.77
746.57	6.62
746.888	6.43
747.206	6.4
747.524	6.46
747.842	6.7
748.16	6.85
748.478	6.71
748.796	6.72
749.114	6.97
749.432	6.88
749.749	6.95
750.067	7.01
750.385	7.06
750.703	6.98
751.02	7.1
751.338	6.67
751.655	6.63
751.973	6.58
752.29	6.36
752.608	6.31
752.925	6.33
753.242	6.47
753.56	6.55
753.877	6.71
754.194	6.61
754.511	6.46
754.828	6.34
755.145	6.29
755.462	6.48
755.779	6.46
756.096	6.52
756.413	6.58
756.73	6.38
757.047	6.13
757.364	5.93
757.68	5.73
757.997	5.93
758.314	6.07
758.63	6.05
758.947	6.44
759.264	6.45
759.58	6.33
759.896	6.62
760.213	6.69
760.529	6.51
760.846	6.62
761.162	6.59
761.478	6.68
761.794	6.57
762.11	6.41
762.426	6.46
762.743	6.62
763.059	6.6
763.375	6.73
763.69	6.98
764.006	7.23
764.322	7.36
764.638	7.37
764.954	7.64
765.27	7.59
765.585	7.38
765.901	7.52
766.216	7.47
766.532	7.23
766.848	7.2
767.163	7.44
767.478	7.28
767.794	7.42
768.109	7.34
768.424	7.49
768.74	7.52
769.055	7.43
769.37	7.32
769.685	7.01
770	7.13
770.315	6.86
770.63	6.66
770.945	6.5
771.26	6.57
771.575	6.41
771.89	6.55
772.205	6.49
772.52	6.25
772.834	6.28
773.149	6.27
773.464	6.42
773.778	6.32
774.093	6.47
774.407	6.55
774.722	6.73
775.036	6.91
775.351	7.07
775.665	6.69
775.979	6.71
776.293	7.42
776.608	7.31
776.922	7.63
777.236	7.97
777.55	7.95
777.864	7.89
778.178	7.92
778.492	7.79
778.806	7.69
779.12	8.15
779.434	8.23
779.747	8.42
780.061	8.25
780.375	8.18
780.689	8.19
781.002	8.2
781.316	8.2
781.629	8.14
781.943	8.47
782.256	8.93
782.57	9.03
782.883	9.04
783.196	8.79
783.51	8.52
783.823	7.99
784.136	8.15
784.449	8.28
784.762	8.07
785.075	8.18
785.388	8.41
785.701	8.04
786.014	7.95
786.327	8.04
786.64	8.36
786.953	8.79
787.266	8.57
787.578	7.98
787.891	8.14
788.204	7.85
788.516	7.43
788.829	7.31
789.141	7.46
789.454	7.42
789.766	8.04
790.079	8.44
790.391	8.64
790.703	8.79
791.016	8.69
791.328	8.91
791.64	9.05
791.952	9.59
792.264	9.56
792.576	9.62
792.888	9.58
793.2	9.42
793.512	9.3
793.824	9.36
794.136	9.62
794.448	9.26
794.76	9.85
795.071	10.31
795.383	10.17
795.695	9.77
796.006	9.8
796.318	9.65
796.629	9.3
796.941	9.26
797.252	9.36
797.564	9.44
797.875	9.63
798.186	9.23
798.497	8.79
798.809	8.71
799.12	8.77
799.431	8.98
799.742	9
800.053	9.07
800.364	9.66
800.675	9.65
800.986	10.06
801.297	9.46
801.608	9.15
801.918	9.05
802.229	9.83
802.54	9.41
802.851	9.17
803.161	8.94
803.472	9.12
803.782	9.29
804.093	9.29
804.403	8.8
804.714	9
805.024	8.87
805.334	9.35
805.645	9.52
805.955	8.94
806.265	9.2
806.575	8.77
806.885	8.19
807.195	8.65
807.505	8.35
807.815	8.88
808.125	8.27
808.435	8.79
808.745	8.19
809.055	8.5
809.365	8.29
809.674	8.59
809.984	8.83
810.294	8.37
810.603	8.68
810.913	9.57
811.222	9.78
811.532	10.64
811.841	10.84
812.151	10.52
812.46	10.29
812.769	10.46
813.079	10.78
813.388	11.07
813.697	10.91
814.006	10.85
814.315	10.65
814.624	11.43
814.933	11.47
815.242	11.22
815.551	10.94
815.86	11.26
816.169	10.62
816.478	10.15
816.786	10.57
817.095	10.15
817.404	10.32
817.712	10.51
818.021	10.14
818.33	9.66
818.638	9.67
818.947	10.42
819.255	10.22
819.563	9.99
819.872	9.98
820.18	10.12
820.488	10.25
820.796	10.26
821.105	10.24
821.413	10.24
821.721	10.21
822.029	10.21
822.337	10.24
822.645	10.3
822.953	10.21
823.26	10.18
823.568	10.16
823.876	9.99
824.184	9.85
824.491	9.73
824.799	9.69
825.107	9.79
825.414	9.74
825.722	9.7
826.029	9.9
826.337	10.03
826.644	9.83
826.951	9.6
827.259	9.58
827.566	9.41
827.873	9.13
828.18	9.21
828.488	9.24
828.795	9.08
829.102	8.93
829.409	9.17
829.716	8.83
830.023	8.94
830.329	8.71
830.636	8.96
830.943	9.13
831.25	9.19
831.557	9.02
831.863	8.76
832.17	8.31
832.476	8
832.783	7.98
833.089	8.19
833.396	8.85
833.702	8.98
834.009	9.18
834.315	9.65
834.621	9.79
834.928	9.54
835.234	9.48
835.54	9.86
835.846	9.69
836.152	9.85
836.458	9.71
836.764	10.14
837.07	9.67
837.376	9.54
837.682	9.7
837.988	9.74
838.293	9.56
838.599	10.25
838.905	10.06
839.211	9.02
839.516	8.91
839.822	8.49
840.127	8.23
840.433	8.36
840.738	8.12
841.044	7.04
841.349	7.52
841.654	7.86
841.959	7.61
842.265	7.82
842.57	8.31
842.875	8.35
843.18	8.09
843.485	8.82
843.79	8.9
844.095	7.91
844.4	8.72
844.705	8.28
845.01	8.01
845.315	8.84
845.619	9.63
845.924	10.38
846.229	10.36
846.533	11.22
846.838	10.44
847.142	9.25
847.447	9.67
847.751	8.56
848.056	7.41
848.36	7.65
848.664	8.14
848.969	8.59
849.273	6.12
849.577	5.6
849.881	5.73
850.185	6.44
850.489	8.56
850.794	6.05
851.097	8.29
851.401	8.47
851.705	6.7
852.009	7.99
852.313	7.69
852.617	7.65
852.92	7.37
853.224	7.97
853.528	10.95
853.831	10.79
854.135	10.75
854.438	10.76
854.742	10.63
855.045	10.66
855.349	10.45
855.652	12.9
855.955	13
856.259	12.22
856.562	11.99
856.865	11.03
857.168	12.27
857.471	13.15
857.774	13.23
858.077	14.89
858.38	14.19
858.683	13.61
858.986	14.21
859.289	12.4
859.592	11.45
859.894	10.38
860.197	11.05
860.5	12.29
860.802	12.59
861.105	13.69
861.407	13.66
861.71	11.38
862.012	10.28
862.315	8.56
862.617	7.4
862.919	6.93
863.222	6.02
863.524	6.81
863.826	6.38
864.128	7.18
864.43	6.37
864.732	7.24
865.034	7.92
865.336	6.02
865.638	7.54
865.94	9
866.242	9.64
866.544	9.44
866.846	11.59
867.147	10.35
867.449	8.47
867.751	8.57
868.052	10.44
868.354	11.36
868.655	14.27
868.957	15.87
869.258	14.35
869.56	15.9
869.861	15.03
870.162	15.27
870.463	14.52
870.765	14.96
871.066	13.99
871.367	12.12
871.668	11.56
871.969	9.97
872.27	9.24
872.571	8.23
872.872	10.3
873.173	7.78
873.473	9.15
873.774	11.79
874.075	10.63
874.376	11.14
874.676	11.84
874.977	10.03
875.277	10.28
875.578	12.32
875.878	11.68
876.179	12.09
876.479	11.05
876.78	10.42
877.08	10.96
877.38	10.46
877.68	12.18
877.981	15.05
878.281	17.67
878.581	19.46
