Data from BA28416_Reflection_00010.txt Node
Date: Mon Nov 18 16:05:33 EST 2019
User: vgr7
Spectrometer: USB2G7710
Scans to average: 3
Trigger mode: 4
Integration Time (sec): 2.000000E-2
Electric dark correction enabled: true
Boxcar width: 10
XAxis mode: Wavelengths
Number of Pixels in Spectrum: 2048
>>>>>Begin Spectral Data<<<<<
177.721	65.3
178.105	149.26
178.488	160.94
178.871	858.62
179.254	-230.58
179.636	89.36
180.019	329.51
180.402	48.89
180.785	30.56
181.168	18.45
181.55	0.4
181.933	52.06
182.316	78.95
182.698	71.58
183.081	88.81
183.463	95.37
183.846	92.37
184.228	99.33
184.611	80.6
184.993	85.11
185.376	79.72
185.758	97.61
186.14	97.74
186.522	108.46
186.904	111.84
187.287	110.4
187.669	109.12
188.051	103.12
188.433	101.24
188.815	104.22
189.197	126.74
189.579	123.4
189.961	167.65
190.342	120.51
190.724	222.21
191.106	178.82
191.488	182.97
191.869	248.86
192.251	156.02
192.633	166.23
193.014	158.94
193.396	192.44
193.777	185.59
194.159	353.25
194.54	374.89
194.922	-287.52
195.303	-758.93
195.684	-659
196.065	-322.67
196.447	-328.75
196.828	-174.48
197.209	-101.76
197.59	-110.53
197.971	-133.44
198.352	-107.58
198.733	-136.92
199.114	-137.24
199.495	-121.84
199.876	-109.88
200.257	-75.02
200.638	-50.06
201.018	-73.08
201.399	-86.63
201.78	-95.7
202.16	-122.39
202.541	-164.2
202.922	-408.99
203.302	-288.14
203.683	-934.17
204.063	-1285.58
204.444	-625.64
204.824	-1214.58
205.204	-2112.77
205.585	-1015.17
205.965	-925.21
206.345	-801.85
206.725	-10118.18
207.106	1250.81
207.486	495.29
207.866	515.09
208.246	292.6
208.626	295.8
209.006	399.57
209.386	435.48
209.766	460.58
210.145	324.76
210.525	240.51
210.905	189.63
211.285	190.46
211.664	270.03
212.044	211.7
212.424	154.27
212.803	123
213.183	94.86
213.562	68.57
213.942	110.98
214.321	140.99
214.701	112.83
215.08	121.45
215.459	181.57
215.838	318.26
216.218	1950.93
216.597	426.82
216.976	966.87
217.355	6728.57
217.734	936.12
218.113	-3219.59
218.492	-1291.3
218.871	-360.86
219.25	-342.53
219.629	-641.61
220.008	-662.05
220.387	-481.18
220.766	-272.93
221.144	-436.83
221.523	-387.8
221.902	-592.97
222.28	8552.83
222.659	-795.8
223.037	-299.01
223.416	-284.55
223.794	-197.87
224.173	-197.57
224.551	-95.32
224.929	-72.01
225.308	-64.84
225.686	-38.87
226.064	-33.03
226.442	-12.25
226.821	-7.43
227.199	-8.54
227.577	-2.07
227.955	-2.88
228.333	-3.52
228.711	-2.8
229.089	2.54
229.467	1.61
229.845	0.01
230.222	-2.44
230.6	-3.44
230.978	-5.18
231.356	-2.91
231.733	-3.22
232.111	-2.42
232.488	-3.28
232.866	-3.02
233.243	-1.9
233.621	-3.67
233.998	-1.38
234.376	-4.81
234.753	-3.45
235.13	-3.38
235.508	-3.22
235.885	-1.79
236.262	-2
236.639	-3.06
237.016	-4.24
237.393	-1.72
237.77	-0.25
238.147	0.64
238.524	1
238.901	1.78
239.278	1.65
239.655	2.52
240.032	2.22
240.409	1.93
240.785	1.35
241.162	1.37
241.539	2.07
241.915	2.3
242.292	2.32
242.668	1.97
243.045	2.05
243.421	2.03
243.798	2.3
244.174	2.28
244.551	2.54
244.927	2.69
245.303	2.65
245.679	2.65
246.056	2.72
246.432	2.81
246.808	2.94
247.184	2.61
247.56	2.51
247.936	2.72
248.312	2.74
248.688	3.05
249.064	3.11
249.44	2.79
249.815	2.76
250.191	3.03
250.567	3.18
250.943	3.04
251.318	3.11
251.694	2.84
252.069	2.93
252.445	3.06
252.82	2.97
253.196	3.12
253.571	2.95
253.947	3.03
254.322	3.11
254.697	3.02
255.073	3.3
255.448	2.98
255.823	2.94
256.198	3.02
256.573	2.89
256.948	2.95
257.323	2.97
257.698	2.98
258.073	3.02
258.448	2.84
258.823	2.97
259.198	2.88
259.573	2.91
259.948	2.77
260.322	2.64
260.697	2.65
261.072	2.63
261.446	2.83
261.821	2.66
262.195	2.81
262.57	2.65
262.944	2.57
263.319	2.73
263.693	2.55
264.067	2.62
264.442	2.8
264.816	2.76
265.19	2.85
265.564	2.76
265.938	2.65
266.313	2.61
266.687	2.41
267.061	2.57
267.435	2.59
267.809	2.91
268.183	3.01
268.556	3.06
268.93	3.03
269.304	3.01
269.678	3.16
270.051	2.81
270.425	2.99
270.799	3.22
271.172	3.33
271.546	3.49
271.919	3.36
272.293	3.22
272.666	3.27
273.04	3.38
273.413	3.28
273.787	3.22
274.16	3.28
274.533	3.33
274.906	3.19
275.279	3.24
275.653	3.14
276.026	3.14
276.399	3.02
276.772	3.12
277.145	3.04
277.518	3.02
277.891	3.27
278.263	3.2
278.636	3.19
279.009	3.21
279.382	3.33
279.755	3.32
280.127	3.49
280.5	3.48
280.872	3.43
281.245	3.39
281.617	3.56
281.99	3.68
282.362	3.73
282.735	3.72
283.107	3.73
283.479	3.73
283.852	3.62
284.224	3.66
284.596	3.57
284.968	3.65
285.34	3.77
285.713	3.76
286.085	3.78
286.457	3.72
286.829	3.65
287.201	3.61
287.572	3.62
287.944	3.45
288.316	3.49
288.688	3.42
289.06	3.59
289.431	3.49
289.803	3.43
290.175	3.55
290.546	3.7
290.918	3.76
291.289	3.76
291.661	3.95
292.032	4.08
292.403	3.95
292.775	3.98
293.146	3.79
293.517	3.57
293.889	3.58
294.26	3.52
294.631	3.48
295.002	3.37
295.373	3.41
295.744	3.51
296.115	3.5
296.486	3.44
296.857	3.39
297.228	3.47
297.599	3.48
297.97	3.4
298.34	3.27
298.711	3.29
299.082	3.32
299.452	3.29
299.823	3.25
300.194	3.45
300.564	3.28
300.935	3.44
301.305	3.64
301.676	3.77
302.046	3.96
302.416	3.97
302.787	4.07
303.157	4.06
303.527	3.98
303.897	4.01
304.267	4.23
304.637	4.34
305.008	4.37
305.378	4.43
305.748	4.49
306.117	4.55
306.487	4.51
306.857	4.52
307.227	4.49
307.597	4.43
307.967	4.4
308.336	4.49
308.706	4.43
309.076	4.41
309.445	4.16
309.815	4.07
310.184	4.05
310.554	4.15
310.923	4.29
311.293	4.36
311.662	4.25
312.031	4.19
312.401	4.11
312.77	4.14
313.139	4.11
313.508	4.07
313.877	4.1
314.246	4.2
314.616	4.13
314.985	4.11
315.353	4.13
315.722	4.23
316.091	4.18
316.46	4.07
316.829	4.08
317.198	4.38
317.567	4.5
317.935	4.57
318.304	4.51
318.672	4.47
319.041	4.59
319.41	4.67
319.778	4.61
320.147	4.76
320.515	4.76
320.883	4.78
321.252	4.87
321.62	4.86
321.988	4.74
322.357	4.8
322.725	4.9
323.093	4.89
323.461	4.82
323.829	4.94
324.197	5.06
324.565	5.1
324.933	4.96
325.301	4.86
325.669	4.86
326.037	4.96
326.405	4.95
326.772	4.89
327.14	5
327.508	5.13
327.875	4.95
328.243	4.98
328.61	5.06
328.978	5.04
329.346	5.22
329.713	5.34
330.08	5.28
330.448	5.23
330.815	5.29
331.182	5.36
331.55	5.4
331.917	5.37
332.284	5.45
332.651	5.37
333.018	5.5
333.385	5.55
333.752	5.5
334.119	5.46
334.486	5.36
334.853	5.38
335.22	5.35
335.587	5.56
335.954	5.49
336.32	5.47
336.687	5.41
337.054	5.32
337.42	5.31
337.787	5.39
338.153	5.43
338.52	5.38
338.886	5.19
339.253	5.19
339.619	5.18
339.986	5.04
340.352	5.16
340.718	5.02
341.084	4.97
341.451	4.98
341.817	5.01
342.183	5.13
342.549	5.07
342.915	5.18
343.281	5.18
343.647	5.23
344.013	5.27
344.379	5.23
344.745	5.19
345.11	5.27
345.476	5.25
345.842	5.24
346.208	5.26
346.573	5.42
346.939	5.46
347.304	5.54
347.67	5.59
348.035	5.58
348.401	5.65
348.766	5.73
349.132	5.63
349.497	5.61
349.862	5.63
350.228	5.68
350.593	5.63
350.958	5.52
351.323	5.56
351.688	5.65
352.053	5.71
352.418	5.67
352.783	5.58
353.148	5.55
353.513	5.64
353.878	5.61
354.243	5.59
354.608	5.6
354.972	5.61
355.337	5.59
355.702	5.72
356.066	5.77
356.431	5.72
356.795	5.79
357.16	5.77
357.524	5.66
357.889	5.64
358.253	5.7
358.618	5.73
358.982	5.68
359.346	5.57
359.71	5.54
360.075	5.58
360.439	5.6
360.803	5.63
361.167	5.58
361.531	5.59
361.895	5.5
362.259	5.47
362.623	5.5
362.987	5.54
363.351	5.46
363.714	5.39
364.078	5.35
364.442	5.32
364.806	5.31
365.169	5.35
365.533	5.35
365.896	5.27
366.26	5.26
366.623	5.21
366.987	5.24
367.35	5.24
367.714	5.22
368.077	5.18
368.44	5.15
368.803	5.12
369.167	5.15
369.53	5.14
369.893	5.13
370.256	5.08
370.619	5.01
370.982	4.94
371.345	4.9
371.708	4.94
372.071	4.88
372.434	4.84
372.797	4.75
373.159	4.7
373.522	4.74
373.885	4.72
374.247	4.76
374.61	4.66
374.973	4.64
375.335	4.66
375.698	4.61
376.06	4.53
376.423	4.46
376.785	4.41
377.147	4.44
377.51	4.4
377.872	4.32
378.234	4.26
378.596	4.3
378.958	4.28
379.321	4.2
379.683	4.28
380.045	4.26
380.407	4.28
380.769	4.3
381.13	4.21
381.492	4.16
381.854	4.09
382.216	4.11
382.578	4.16
382.939	4.09
383.301	4.04
383.663	4.01
384.024	4.05
384.386	4.04
384.747	4.04
385.109	4.02
385.47	3.98
385.832	4.01
386.193	4.01
386.554	3.98
386.916	3.98
387.277	3.9
387.638	3.87
387.999	3.84
388.36	3.8
388.721	3.82
389.082	3.82
389.443	3.81
389.804	3.81
390.165	3.73
390.526	3.74
390.887	3.73
391.248	3.78
391.609	3.76
391.969	3.73
392.33	3.65
392.691	3.63
393.051	3.65
393.412	3.64
393.772	3.61
394.133	3.62
394.493	3.61
394.854	3.6
395.214	3.6
395.574	3.6
395.935	3.58
396.295	3.55
396.655	3.52
397.015	3.51
397.376	3.47
397.736	3.45
398.096	3.47
398.456	3.48
398.816	3.43
399.176	3.36
399.535	3.32
399.895	3.35
400.255	3.34
400.615	3.36
400.975	3.32
401.334	3.29
401.694	3.25
402.054	3.24
402.413	3.23
402.773	3.2
403.132	3.17
403.492	3.18
403.851	3.17
404.211	3.15
404.57	3.16
404.929	3.15
405.288	3.15
405.648	3.08
406.007	3.07
406.366	3.06
406.725	3.13
407.084	3.15
407.443	3.12
407.802	3.11
408.161	3.05
408.52	3.01
408.879	2.98
409.238	3
409.596	3.01
409.955	3.03
410.314	3.03
410.673	3.05
411.031	3.03
411.39	3.04
411.748	3.05
412.107	3.04
412.465	3.05
412.824	3.06
413.182	3.07
413.54	3.05
413.899	3.06
414.257	3.03
414.615	2.99
414.974	3
415.332	3
415.69	3.01
416.048	2.99
416.406	3.02
416.764	2.99
417.122	2.99
417.48	2.94
417.838	2.94
418.195	2.91
418.553	2.9
418.911	2.87
419.269	2.87
419.626	2.86
419.984	2.85
420.342	2.84
420.699	2.83
421.057	2.83
421.414	2.82
421.772	2.8
422.129	2.8
422.486	2.79
422.844	2.79
423.201	2.78
423.558	2.8
423.915	2.77
424.273	2.77
424.63	2.76
424.987	2.77
425.344	2.78
425.701	2.79
426.058	2.77
426.415	2.79
426.772	2.77
427.128	2.75
427.485	2.75
427.842	2.73
428.199	2.74
428.555	2.74
428.912	2.74
429.269	2.75
429.625	2.75
429.982	2.75
430.338	2.73
430.695	2.75
431.051	2.73
431.407	2.74
431.764	2.73
432.12	2.72
432.476	2.72
432.832	2.69
433.189	2.67
433.545	2.68
433.901	2.67
434.257	2.67
434.613	2.71
434.969	2.72
435.325	2.72
435.681	2.72
436.036	2.72
436.392	2.71
436.748	2.7
437.104	2.7
437.459	2.71
437.815	2.7
438.171	2.7
438.526	2.73
438.882	2.74
439.237	2.75
439.593	2.74
439.948	2.74
440.304	2.74
440.659	2.77
441.014	2.77
441.369	2.76
441.725	2.75
442.08	2.73
442.435	2.73
442.79	2.73
443.145	2.73
443.5	2.73
443.855	2.72
444.21	2.73
444.565	2.72
444.92	2.72
445.275	2.71
445.629	2.7
445.984	2.68
446.339	2.67
446.693	2.65
447.048	2.65
447.403	2.65
447.757	2.64
448.112	2.63
448.466	2.62
448.82	2.62
449.175	2.64
449.529	2.63
449.883	2.62
450.238	2.61
450.592	2.61
450.946	2.61
451.3	2.6
451.654	2.6
452.008	2.6
452.362	2.6
452.716	2.6
453.07	2.6
453.424	2.61
453.778	2.6
454.132	2.61
454.486	2.6
454.839	2.59
455.193	2.59
455.547	2.59
455.9	2.62
456.254	2.61
456.607	2.61
456.961	2.62
457.314	2.62
457.668	2.63
458.021	2.62
458.375	2.64
458.728	2.63
459.081	2.64
459.434	2.63
459.787	2.63
460.141	2.64
460.494	2.65
460.847	2.64
461.2	2.66
461.553	2.67
461.906	2.68
462.259	2.7
462.611	2.71
462.964	2.72
463.317	2.72
463.67	2.73
464.022	2.73
464.375	2.72
464.728	2.75
465.08	2.75
465.433	2.76
465.785	2.77
466.138	2.8
466.49	2.8
466.843	2.79
467.195	2.81
467.547	2.83
467.899	2.83
468.252	2.84
468.604	2.85
468.956	2.83
469.308	2.86
469.66	2.85
470.012	2.85
470.364	2.86
470.716	2.88
471.068	2.88
471.42	2.87
471.772	2.9
472.123	2.9
472.475	2.88
472.827	2.89
473.178	2.87
473.53	2.85
473.882	2.85
474.233	2.88
474.585	2.85
474.936	2.85
475.288	2.84
475.639	2.84
475.99	2.83
476.342	2.86
476.693	2.83
477.044	2.84
477.395	2.83
477.746	2.79
478.097	2.77
478.448	2.77
478.8	2.77
479.15	2.74
479.501	2.73
479.852	2.74
480.203	2.74
480.554	2.75
480.905	2.75
481.255	2.76
481.606	2.75
481.957	2.75
482.307	2.75
482.658	2.75
483.009	2.75
483.359	2.75
483.709	2.75
484.06	2.76
484.41	2.75
484.761	2.76
485.111	2.76
485.461	2.78
485.811	2.78
486.162	2.78
486.512	2.79
486.862	2.79
487.212	2.79
487.562	2.8
487.912	2.79
488.262	2.79
488.612	2.79
488.961	2.81
489.311	2.82
489.661	2.83
490.011	2.83
490.36	2.83
490.71	2.84
491.06	2.85
491.409	2.86
491.759	2.86
492.108	2.86
492.458	2.86
492.807	2.86
493.157	2.86
493.506	2.89
493.855	2.89
494.204	2.89
494.554	2.89
494.903	2.9
495.252	2.91
495.601	2.92
495.95	2.93
496.299	2.94
496.648	2.95
496.997	2.95
497.346	2.97
497.695	2.98
498.043	2.99
498.392	2.99
498.741	3.02
499.09	3.04
499.438	3.06
499.787	3.09
500.135	3.12
500.484	3.14
500.832	3.15
501.181	3.18
501.529	3.21
501.878	3.26
502.226	3.27
502.574	3.31
502.923	3.33
503.271	3.38
503.619	3.42
503.967	3.44
504.315	3.47
504.663	3.49
505.011	3.53
505.359	3.56
505.707	3.62
506.055	3.65
506.403	3.7
506.751	3.77
507.098	3.81
507.446	3.85
507.794	3.9
508.141	3.94
508.489	3.99
508.837	4.05
509.184	4.09
509.531	4.18
509.879	4.24
510.226	4.31
510.574	4.35
510.921	4.42
511.268	4.48
511.616	4.56
511.963	4.63
512.31	4.72
512.657	4.81
513.004	4.88
513.351	4.97
513.698	5.05
514.045	5.12
514.392	5.19
514.739	5.3
515.086	5.39
515.432	5.49
515.779	5.57
516.126	5.66
516.473	5.75
516.819	5.83
517.166	5.91
517.512	5.99
517.859	6.08
518.205	6.15
518.552	6.25
518.898	6.34
519.245	6.43
519.591	6.51
519.937	6.58
520.283	6.67
520.629	6.77
520.976	6.88
521.322	6.99
521.668	7.12
522.014	7.24
522.36	7.36
522.706	7.5
523.052	7.66
523.398	7.84
523.743	7.99
524.089	8.16
524.435	8.31
524.781	8.48
525.126	8.63
525.472	8.78
525.817	8.91
526.163	9.03
526.509	9.14
526.854	9.25
527.199	9.36
527.545	9.47
527.89	9.58
528.235	9.7
528.581	9.84
528.926	9.95
529.271	10.08
529.616	10.2
529.961	10.32
530.306	10.45
530.651	10.57
530.996	10.72
531.341	10.87
531.686	11.03
532.031	11.19
532.376	11.36
532.721	11.52
533.065	11.71
533.41	11.88
533.755	12.08
534.099	12.31
534.444	12.51
534.788	12.72
535.133	12.9
535.477	13.09
535.822	13.29
536.166	13.52
536.51	13.78
536.855	14.07
537.199	14.34
537.543	14.61
537.887	14.92
538.231	15.2
538.576	15.5
538.92	15.78
539.264	16.01
539.608	16.25
539.951	16.48
540.295	16.71
540.639	16.96
540.983	17.16
541.327	17.39
541.671	17.59
542.014	17.8
542.358	18.03
542.701	18.26
543.045	18.47
543.389	18.67
543.732	18.87
544.075	19.07
544.419	19.3
544.762	19.54
545.105	19.77
545.449	20.04
545.792	20.31
546.135	20.57
546.478	20.88
546.821	21.2
547.165	21.51
547.508	21.82
547.851	22.14
548.194	22.46
548.536	22.73
548.879	23.06
549.222	23.38
549.565	23.67
549.908	23.96
550.25	24.3
550.593	24.65
550.936	25
551.278	25.28
551.621	25.62
551.963	25.94
552.306	26.24
552.648	26.53
552.991	26.82
553.333	27.16
553.675	27.46
554.017	27.73
554.36	28.02
554.702	28.34
555.044	28.58
555.386	28.86
555.728	29.15
556.07	29.48
556.412	29.74
556.754	30.07
557.096	30.4
557.438	30.66
557.78	30.97
558.121	31.24
558.463	31.56
558.805	31.8
559.147	32.06
559.488	32.33
559.83	32.61
560.171	32.92
560.513	33.18
560.854	33.47
561.196	33.73
561.537	33.97
561.878	34.16
562.22	34.46
562.561	34.71
562.902	34.96
563.243	35.14
563.584	35.37
563.925	35.55
564.266	35.72
564.607	35.97
564.948	36.17
565.289	36.38
565.63	36.59
565.971	36.84
566.312	37.05
566.653	37.26
566.993	37.44
567.334	37.59
567.675	37.72
568.015	37.93
568.356	38.12
568.696	38.36
569.037	38.61
569.377	38.74
569.718	38.9
570.058	39.02
570.398	39.22
570.739	39.43
571.079	39.66
571.419	39.84
571.759	40.01
572.099	40.13
572.439	40.31
572.779	40.45
573.119	40.61
573.459	40.81
573.799	40.97
574.139	41.16
574.479	41.32
574.819	41.51
575.158	41.67
575.498	41.81
575.838	41.94
576.177	42.07
576.517	42.22
576.856	42.4
577.196	42.66
577.535	42.8
577.875	43
578.214	43.17
578.553	43.35
578.893	43.48
579.232	43.66
579.571	43.83
579.91	44.05
580.25	44.16
580.589	44.3
580.928	44.43
581.267	44.6
581.606	44.8
581.945	44.94
582.283	45.07
582.622	45.32
582.961	45.47
583.3	45.59
583.639	45.83
583.977	46
584.316	46.1
584.654	46.23
584.993	46.35
585.332	46.47
585.67	46.58
586.008	46.74
586.347	46.88
586.685	46.97
587.024	47.05
587.362	47.22
587.7	47.3
588.038	47.46
588.376	47.52
588.715	47.59
589.053	47.74
589.391	47.87
589.729	47.9
590.067	48.04
590.404	48.16
590.742	48.3
591.08	48.34
591.418	48.45
591.756	48.58
592.093	48.67
592.431	48.74
592.769	48.9
593.106	48.98
593.444	49.07
593.781	49.17
594.119	49.29
594.456	49.32
594.793	49.46
595.131	49.48
595.468	49.52
595.805	49.5
596.143	49.57
596.48	49.6
596.817	49.66
597.154	49.7
597.491	49.75
597.828	49.79
598.165	49.89
598.502	50.03
598.839	50.11
599.176	50.2
599.512	50.27
599.849	50.31
600.186	50.41
600.523	50.46
600.859	50.55
601.196	50.63
601.532	50.76
601.869	50.81
602.205	50.89
602.542	51.04
602.878	51.13
603.215	51.21
603.551	51.22
603.887	51.34
604.223	51.38
604.56	51.42
604.896	51.41
605.232	51.51
605.568	51.46
605.904	51.51
606.24	51.58
606.576	51.66
606.912	51.79
607.248	51.85
607.583	51.98
607.919	52.03
608.255	51.98
608.591	52.04
608.926	52.09
609.262	52.2
609.597	52.21
609.933	52.28
610.268	52.31
610.604	52.44
610.939	52.48
611.275	52.59
611.61	52.72
611.945	52.84
612.281	52.83
612.616	52.92
612.951	53.05
613.286	53.08
613.621	53.26
613.956	53.3
614.291	53.34
614.626	53.42
614.961	53.46
615.296	53.7
615.631	53.78
615.966	53.87
616.3	53.95
616.635	53.96
616.97	54.07
617.304	54.06
617.639	54.09
617.973	54.03
618.308	54
618.642	53.99
618.977	54.01
619.311	54.04
619.646	54.09
619.98	54.12
620.314	54.15
620.648	54.13
620.983	54.19
621.317	54.27
621.651	54.27
621.985	54.36
622.319	54.28
622.653	54.28
622.987	54.33
623.321	54.41
623.655	54.54
623.988	54.57
624.322	54.64
624.656	54.7
624.99	54.79
625.323	54.88
625.657	54.92
625.99	54.93
626.324	54.97
626.657	55.01
626.991	54.94
627.324	54.99
627.658	55.02
627.991	54.99
628.324	54.99
628.657	55.1
628.991	55.14
629.324	55.19
629.657	55.23
629.99	55.28
630.323	55.22
630.656	55.27
630.989	55.25
631.322	55.34
631.655	55.34
631.987	55.43
632.32	55.45
632.653	55.47
632.986	55.51
633.318	55.61
633.651	55.66
633.984	55.71
634.316	55.74
634.649	55.76
634.981	55.69
635.313	55.72
635.646	55.68
635.978	55.73
636.31	55.76
636.643	55.79
636.975	55.82
637.307	55.85
637.639	55.85
637.971	56.01
638.303	56.1
638.635	56.14
638.967	56.14
639.299	56.21
639.631	56.23
639.963	56.25
640.295	56.24
640.626	56.34
640.958	56.35
641.29	56.33
641.621	56.39
641.953	56.49
642.285	56.51
642.616	56.65
642.948	56.69
643.279	56.73
643.61	56.83
643.942	56.78
644.273	56.78
644.604	56.89
644.936	56.74
645.267	56.55
645.598	56.64
645.929	56.51
646.26	56.52
646.591	56.58
646.922	56.64
647.253	56.63
647.584	56.56
647.915	56.49
648.245	56.6
648.576	56.57
648.907	56.71
649.238	56.84
649.568	56.83
649.899	56.81
650.229	56.85
650.56	56.78
650.89	56.83
651.221	56.88
651.551	56.81
651.882	56.91
652.212	57.05
652.542	57.02
652.872	57.04
653.203	57
653.533	56.98
653.863	56.99
654.193	57.11
654.523	57.06
654.853	57.21
655.183	57.28
655.513	57.25
655.843	57.17
656.172	57.04
656.502	57.07
656.832	57.05
657.162	57.06
657.491	56.99
657.821	57.01
658.15	57.04
658.48	57.07
658.809	57.07
659.139	57
659.468	57.02
659.798	57.23
660.127	57.26
660.456	57.29
660.785	57.31
661.115	57.26
661.444	57.38
661.773	57.44
662.102	57.5
662.431	57.48
662.76	57.66
663.089	57.76
663.418	57.65
663.747	57.7
664.076	57.86
664.404	58.02
664.733	58.08
665.062	58.12
665.39	58.27
665.719	58.33
666.048	58.47
666.376	58.44
666.705	58.31
667.033	58.38
667.362	58.4
667.69	58.42
668.018	58.48
668.347	58.45
668.675	58.45
669.003	58.36
669.331	58.47
669.659	58.24
669.987	58.26
670.315	58.42
670.643	58.46
670.971	58.37
671.299	58.46
671.627	58.51
671.955	58.6
672.283	58.49
672.61	58.41
672.938	58.33
673.266	58.19
673.593	58.31
673.921	58.28
674.249	58.23
674.576	58.22
674.904	58.3
675.231	58.29
675.558	58.27
675.886	58.3
676.213	58.28
676.54	58.33
676.867	58.48
677.195	58.39
677.522	58.35
677.849	58.37
678.176	58.32
678.503	58.32
678.83	58.21
679.157	58.21
679.484	58.19
679.81	58.25
680.137	58.32
680.464	58.29
680.791	58.32
681.117	58.33
681.444	58.37
681.771	58.25
682.097	58.25
682.424	58.3
682.75	58.28
683.077	58.36
683.403	58.39
683.729	58.33
684.056	58.33
684.382	58.34
684.708	58.46
685.034	58.48
685.36	58.44
685.686	58.43
686.012	58.41
686.339	58.5
686.664	58.52
686.99	58.74
687.316	58.63
687.642	58.69
687.968	58.79
688.294	58.84
688.619	58.78
688.945	58.91
689.271	58.69
689.596	58.77
689.922	58.73
690.247	58.73
690.573	58.7
690.898	58.76
691.224	58.88
691.549	58.67
691.874	58.6
692.2	58.69
692.525	58.9
692.85	58.91
693.175	58.95
693.5	58.84
693.825	58.63
694.15	58.81
694.475	58.79
694.8	58.83
695.125	58.75
695.45	58.8
695.775	58.79
696.099	59.04
696.424	59.01
696.749	59.01
697.073	58.99
697.398	58.96
697.723	58.94
698.047	58.82
698.372	58.82
698.696	58.78
699.02	58.72
699.345	58.59
699.669	58.65
699.993	58.6
700.318	58.57
700.642	58.65
700.966	58.59
701.29	58.63
701.614	58.57
701.938	58.75
702.262	58.86
702.586	58.9
702.91	58.75
703.234	58.71
703.557	58.85
703.881	58.76
704.205	58.83
704.529	58.81
704.852	58.84
705.176	59.03
705.499	59.16
705.823	59.2
706.146	59.38
706.47	59.46
706.793	59.43
707.117	59.55
707.44	59.54
707.763	59.64
708.086	59.69
708.409	59.63
708.733	59.51
709.056	59.41
709.379	59.31
709.702	59.42
710.025	59.35
710.348	59.19
710.671	59.33
710.993	59.33
711.316	59.3
711.639	59.31
711.962	59.22
712.284	59.19
712.607	59.18
712.93	59.15
713.252	58.81
713.575	58.79
713.897	58.86
714.22	58.99
714.542	59.06
714.864	58.96
715.187	58.95
715.509	58.93
715.831	58.97
716.153	59.03
716.475	59.05
716.798	59.15
717.12	59.03
717.442	59.15
717.764	59.13
718.085	59.13
718.407	59.16
718.729	59.2
719.051	59.38
719.373	59.24
719.695	59.18
720.016	59.55
720.338	59.69
720.659	59.66
720.981	59.59
721.302	59.57
721.624	59.5
721.945	59.52
722.267	59.62
722.588	59.41
722.909	59.33
723.231	59.35
723.552	59.29
723.873	59.46
724.194	59.3
724.515	59.4
724.836	59.52
725.157	59.69
725.478	59.61
725.799	59.53
726.12	59.62
726.441	59.55
726.762	59.57
727.083	59.47
727.403	59.67
727.724	59.76
728.045	59.69
728.365	59.54
728.686	59.67
729.006	59.41
729.327	59.71
729.647	59.82
729.967	59.71
730.288	59.67
730.608	59.8
730.928	59.83
731.249	59.85
731.569	59.98
731.889	59.97
732.209	60
732.529	59.76
732.849	59.68
733.169	59.74
733.489	59.6
733.809	59.88
734.129	59.72
734.448	59.62
734.768	59.64
735.088	59.86
735.408	59.95
735.727	60.16
736.047	60.35
736.366	60.14
736.686	59.75
737.005	59.58
737.325	59.54
737.644	59.39
737.963	59.05
738.283	58.91
738.602	58.68
738.921	58.77
739.24	58.97
739.56	59.05
739.879	59.05
740.198	59.31
740.517	59.05
740.836	59.12
741.155	59.09
741.473	58.96
741.792	59.02
742.111	58.82
742.43	58.73
742.748	58.38
743.067	58.59
743.386	59.25
743.704	59.65
744.023	59.66
744.341	59.58
744.66	59.61
744.978	59.68
745.297	59.96
745.615	59.63
745.933	59.72
746.252	59.61
746.57	59.17
746.888	58.92
747.206	59.05
747.524	59.11
747.842	59.21
748.16	59.19
748.478	59.19
748.796	59.36
749.114	59.46
749.432	59.46
749.749	59.26
750.067	59.29
750.385	59.18
750.703	58.84
751.02	59.11
751.338	59.12
751.655	58.85
751.973	58.81
752.29	58.99
752.608	59.11
752.925	59.2
753.242	59.83
753.56	59.52
753.877	59.57
754.194	59.6
754.511	59.61
754.828	59.59
755.145	59.54
755.462	59.41
755.779	59.47
756.096	59.69
756.413	60.02
756.73	59.85
757.047	59.9
757.364	60.3
757.68	60.49
757.997	60.6
758.314	60.64
758.63	60.7
758.947	60.71
759.264	60.42
759.58	60.62
759.896	60.66
760.213	61.11
760.529	60.97
760.846	60.93
761.162	60.78
761.478	60.87
761.794	61.06
762.11	61.01
762.426	60.78
762.743	60.67
763.059	60.43
763.375	60.32
763.69	60.06
764.006	59.94
764.322	59.58
764.638	59.6
764.954	59.83
765.27	59.88
765.585	59.74
765.901	60.03
766.216	59.88
766.532	59.65
766.848	59.29
767.163	59.23
767.478	58.91
767.794	58.72
768.109	58.71
768.424	58.42
768.74	58.67
769.055	58.87
769.37	58.85
769.685	58.84
770	58.81
770.315	59.04
770.63	59.03
770.945	59.54
771.26	59.66
771.575	59.19
771.89	58.99
772.205	59.47
772.52	59.09
772.834	59.2
773.149	59.44
773.464	60.14
773.778	60.53
774.093	60.82
774.407	61.26
774.722	61.39
775.036	61.31
775.351	61.08
775.665	61.3
775.979	61.44
776.293	61.34
776.608	61.67
776.922	62.13
777.236	62.23
777.55	61.5
777.864	61.55
778.178	62.25
778.492	62.22
778.806	61.98
779.12	62.49
779.434	62.43
779.747	62.28
780.061	61.7
780.375	61.58
780.689	61.52
781.002	61.41
781.316	61.6
781.629	62.57
781.943	62.74
782.256	62.29
782.57	62.24
782.883	62.23
783.196	61.82
783.51	61.45
783.823	61.5
784.136	61.9
784.449	61.84
784.762	61.79
785.075	62.34
785.388	62.29
785.701	61.86
786.014	61.75
786.327	61.32
786.64	62.01
786.953	61.82
787.266	62.04
787.578	62.21
787.891	61.64
788.204	60.86
788.516	60.82
788.829	60.95
789.141	61.34
789.454	61.67
789.766	62.18
790.079	61.98
790.391	62.05
790.703	61.83
791.016	61.78
791.328	61.07
791.64	60.64
791.952	60.92
792.264	60.76
792.576	60.53
792.888	61.09
793.2	60.93
793.512	61.11
793.824	60.98
794.136	61.52
794.448	61.87
794.76	61.45
795.071	61.11
795.383	61.05
795.695	60.17
796.006	59.75
796.318	59.81
796.629	59.36
796.941	58.92
797.252	59.3
797.564	59.48
797.875	59.55
798.186	59.12
798.497	59.03
798.809	58.85
799.12	59.12
799.431	58.97
799.742	58.46
800.053	58.23
800.364	58.3
800.675	57.4
800.986	56.91
801.297	57.25
801.608	57.49
801.918	57.84
802.229	58.5
802.54	59.11
802.851	58.74
803.161	59.66
803.472	59.93
803.782	60.21
804.093	60.49
804.403	61.25
804.714	61.24
805.024	61.31
805.334	61.43
805.645	62.32
805.955	62.57
806.265	63.17
806.575	63.69
806.885	63.2
807.195	62.82
807.505	63.66
807.815	63.66
808.125	63.71
808.435	63.6
808.745	63.01
809.055	63
809.365	62.79
809.674	62.64
809.984	62.59
810.294	62.6
810.603	62.29
810.913	62.57
811.222	64.1
811.532	63.3
811.841	64.11
812.151	63.28
812.46	62.95
812.769	62.46
813.079	61.78
813.388	62.13
813.697	62.77
814.006	62.53
814.315	62.67
814.624	62.36
814.933	61.8
815.242	62.01
815.551	61.64
815.86	61.74
816.169	61.3
816.478	61.28
816.786	61.48
817.095	62.13
817.404	61.77
817.712	61.68
818.021	62.94
818.33	62.64
818.638	63.04
818.947	63.09
819.255	63.38
819.563	63.24
819.872	62.91
820.18	62.9
820.488	62.76
820.796	62.7
821.105	62.95
821.413	62.96
821.721	63.21
822.029	63.01
822.337	63.01
822.645	63.18
822.953	63.12
823.26	63.13
823.568	62.82
823.876	62.7
824.184	62.51
824.491	62.26
824.799	62.16
825.107	62.12
825.414	62.1
825.722	61.85
826.029	61.98
826.337	62.18
826.644	62.24
826.951	62.07
827.259	62.03
827.566	61.84
827.873	61.99
828.18	61.85
828.488	62.27
828.795	62.38
829.102	62.25
829.409	62.34
829.716	61.81
830.023	62.19
830.329	62.58
830.636	62.64
830.943	62.56
831.25	62.67
831.557	62.74
831.863	62.99
832.17	63.87
832.476	63.85
832.783	63.35
833.089	63.28
833.396	63.86
833.702	63.94
834.009	64.18
834.315	63.65
834.621	63.35
834.928	62.97
835.234	62.78
835.54	62.54
835.846	62.68
836.152	63.23
836.458	62.89
836.764	63.02
837.07	62.78
837.376	62.99
837.682	63.3
837.988	62.93
838.293	62.43
838.599	61.59
838.905	61.43
839.211	62.29
839.516	62.74
839.822	62.43
840.127	61.67
840.433	61.53
840.738	61.42
841.044	61.76
841.349	62.55
841.654	62.49
841.959	64.52
842.265	64.52
842.57	64.86
842.875	64.06
843.18	62.69
843.485	62.89
843.79	63.04
844.095	61.8
844.4	61.97
844.705	61.71
845.01	61.82
845.315	62.62
845.619	62.51
845.924	61.5
846.229	60.95
846.533	63.88
846.838	62.38
847.142	65.26
847.447	63.66
847.751	61.3
848.056	60.13
848.36	57.12
848.664	57.47
848.969	55.54
849.273	57.79
849.577	57.57
849.881	56.23
850.185	56.46
850.489	57.55
850.794	56.7
851.097	57.17
851.401	57.87
851.705	56.98
852.009	58.06
852.313	57.02
852.617	58.04
852.92	58.05
853.224	62.19
853.528	59.05
853.831	59.76
854.135	58.18
854.438	59.98
854.742	62.43
855.045	61.89
855.349	61.04
855.652	59.44
855.955	59.98
856.259	60.77
856.562	59.91
856.865	59.7
857.168	60.13
857.471	60.06
857.774	61.44
858.077	61.07
858.38	61.44
858.683	62.71
858.986	63.24
859.289	61.61
859.592	58.92
859.894	60.51
860.197	62.25
860.5	65.36
860.802	64.31
861.105	62.62
861.407	62.24
861.71	64.99
862.012	65.35
862.315	66.03
862.617	66.3
862.919	65.31
863.222	64.61
863.524	65.6
863.826	64.65
864.128	63.09
864.43	63.03
864.732	61.01
865.034	60.57
865.336	60.39
865.638	59.28
865.94	57.74
866.242	58.71
866.544	57.65
866.846	54.69
867.147	54.79
867.449	55.39
867.751	56.29
868.052	57.66
868.354	57.6
868.655	56.06
868.957	58.43
869.258	62.1
869.56	63.24
869.861	63.08
870.162	63.36
870.463	65.29
870.765	66.68
871.066	68.11
871.367	70.01
871.668	70.82
871.969	71.49
872.27	71.65
872.571	72.22
872.872	72.91
873.173	76.24
873.473	77.46
873.774	76.41
874.075	75.79
874.376	73.61
874.676	73.95
874.977	75.22
875.277	75.09
875.578	75.32
875.878	76.16
876.179	75.99
876.479	79.28
876.78	77.19
877.08	76.43
877.38	75.9
877.68	74.58
877.981	73.24
878.281	73.93
878.581	77.76
