Data from BA28469_Reflection_00015.txt Node
Date: Mon Nov 18 15:18:19 EST 2019
User: vgr7
Spectrometer: USB2G7710
Scans to average: 3
Trigger mode: 4
Integration Time (sec): 2.000000E-2
Electric dark correction enabled: true
Boxcar width: 10
XAxis mode: Wavelengths
Number of Pixels in Spectrum: 2048
>>>>>Begin Spectral Data<<<<<
177.721	153.2
178.105	-2233.33
178.488	-12.91
178.871	-23.49
179.254	3.19
179.636	11266.67
180.019	-129.04
180.402	57.89
180.785	119.36
181.168	49.39
181.55	24.88
181.933	44.32
182.316	48.82
182.698	5.27
183.081	-7.19
183.463	6.52
183.846	75.47
184.228	212.09
184.611	109.7
184.993	6988.89
185.376	-262.87
185.758	-142.42
186.14	-198
186.522	-931.45
186.904	-513.69
187.287	866.96
187.669	-452.68
188.051	-575.62
188.433	-200.8
188.815	-98.9
189.197	-63.95
189.579	-62.06
189.961	-64.58
190.342	-44.47
190.724	-45.49
191.106	-74.26
191.488	-66.8
191.869	-34.46
192.251	-45.21
192.633	-47.17
193.014	-50.51
193.396	-53.29
193.777	-60.26
194.159	-76.68
194.54	-54.22
194.922	-34.55
195.303	-26.59
195.684	-20.69
196.065	-25.2
196.447	-29.81
196.828	-49.33
197.209	-68.04
197.59	-106.69
197.971	-103.58
198.352	-78.56
198.733	-124.54
199.114	-65.48
199.495	-64.48
199.876	-87.74
200.257	-82.33
200.638	-59.49
201.018	-68.71
201.399	-83.82
201.78	-55.66
202.16	-68.22
202.541	-154.94
202.922	-182.87
203.302	-195.47
203.683	-207.2
204.063	-217.35
204.444	-181.58
204.824	-190.07
205.204	-137.68
205.585	-80.57
205.965	-94.81
206.345	-124.66
206.725	-105.18
207.106	-141.9
207.486	-124.58
207.866	-116.82
208.246	-101.1
208.626	-146.18
209.006	-140.39
209.386	-157.07
209.766	-140.59
210.145	-94.37
210.525	-65.57
210.905	-55.89
211.285	-53.27
211.664	-26.76
212.044	-9.05
212.424	-15.79
212.803	-15.13
213.183	-7.14
213.562	-14.87
213.942	-8.67
214.321	-4.2
214.701	-5.02
215.08	-10.94
215.459	1.57
215.838	0.57
216.218	0.77
216.597	6.74
216.976	17.53
217.355	24.3
217.734	24.84
218.113	25.86
218.492	25.19
218.871	23.68
219.25	25.67
219.629	18.24
220.008	4.71
220.387	6.31
220.766	4.26
221.144	-17.53
221.523	-29.1
221.902	-42.35
222.28	-30.16
222.659	-20.32
223.037	-19.52
223.416	-45.82
223.794	-47.46
224.173	-42.83
224.551	-31.73
224.929	-42.83
225.308	-31.97
225.686	-23.66
226.064	-17.22
226.442	-15.37
226.821	-8.33
227.199	-5.76
227.577	-4.43
227.955	-1.92
228.333	0.5
228.711	2.47
229.089	5.69
229.467	7.96
229.845	8.26
230.222	5.12
230.6	1.91
230.978	1.49
231.356	4.47
231.733	6.21
232.111	6.37
232.488	5
232.866	6.56
233.243	6.48
233.621	4.48
233.998	5.19
234.376	4.22
234.753	3.69
235.13	4.44
235.508	5.1
235.885	5.17
236.262	4.28
236.639	2.55
237.016	2.04
237.393	2.87
237.77	3.52
238.147	3.74
238.524	3.87
238.901	4.1
239.278	3.79
239.655	3.32
240.032	3.39
240.409	3.37
240.785	3.67
241.162	3.46
241.539	4.27
241.915	4.13
242.292	3.85
242.668	3.52
243.045	3.25
243.421	3.18
243.798	3.08
244.174	3.24
244.551	3.71
244.927	3.59
245.303	3.63
245.679	3.81
246.056	3.79
246.432	3.92
246.808	4.03
247.184	3.98
247.56	3.96
247.936	3.78
248.312	3.79
248.688	3.73
249.064	3.68
249.44	3.56
249.815	3.54
250.191	3.76
250.567	3.83
250.943	3.82
251.318	3.94
251.694	3.95
252.069	3.88
252.445	4.03
252.82	4.36
253.196	4.41
253.571	4.05
253.947	4.53
254.322	4.74
254.697	4.61
255.073	4.56
255.448	4.45
255.823	4.6
256.198	4.64
256.573	4.64
256.948	4.83
257.323	4.82
257.698	4.85
258.073	4.72
258.448	4.74
258.823	4.54
259.198	4.29
259.573	4.34
259.948	4.2
260.322	4.07
260.697	3.81
261.072	3.76
261.446	3.94
261.821	3.8
262.195	3.84
262.57	3.86
262.944	3.89
263.319	3.82
263.693	3.73
264.067	3.64
264.442	3.59
264.816	3.45
265.19	3.46
265.564	3.37
265.938	3.43
266.313	3.12
266.687	3.38
267.061	3.51
267.435	3.52
267.809	3.68
268.183	3.7
268.556	3.69
268.93	3.73
269.304	3.73
269.678	3.61
270.051	3.44
270.425	3.47
270.799	3.43
271.172	3.55
271.546	3.52
271.919	3.63
272.293	3.56
272.666	3.71
273.04	3.77
273.413	3.75
273.787	3.76
274.16	3.8
274.533	3.76
274.906	3.67
275.279	3.57
275.653	3.54
276.026	3.43
276.399	3.61
276.772	3.48
277.145	3.25
277.518	3.35
277.891	3.38
278.263	3.37
278.636	3.39
279.009	3.43
279.382	3.67
279.755	3.56
280.127	3.79
280.5	3.65
280.872	3.58
281.245	3.46
281.617	3.54
281.99	3.67
282.362	3.76
282.735	3.81
283.107	3.87
283.479	4
283.852	4.05
284.224	3.95
284.596	4.05
284.968	4.19
285.34	4.23
285.713	4.32
286.085	4.33
286.457	4.31
286.829	4.26
287.201	4.21
287.572	4.2
287.944	4.11
288.316	4.13
288.688	4.12
289.06	4.13
289.431	4.17
289.803	4.29
290.175	4.27
290.546	4.35
290.918	4.36
291.289	4.31
291.661	4.37
292.032	4.53
292.403	4.42
292.775	4.45
293.146	4.29
293.517	4.17
293.889	4.2
294.26	4.18
294.631	4.29
295.002	4.22
295.373	4.25
295.744	4.24
296.115	4.15
296.486	3.98
296.857	4.05
297.228	4.05
297.599	3.96
297.97	3.87
298.34	3.8
298.711	3.88
299.082	3.84
299.452	3.83
299.823	3.78
300.194	3.97
300.564	3.9
300.935	4.12
301.305	4.19
301.676	4.22
302.046	4.35
302.416	4.31
302.787	4.36
303.157	4.34
303.527	4.34
303.897	4.44
304.267	4.76
304.637	4.82
305.008	4.87
305.378	4.94
305.748	5.18
306.117	5.22
306.487	5.26
306.857	5.18
307.227	5.24
307.597	5.26
307.967	5.17
308.336	5.31
308.706	5.2
309.076	5.33
309.445	5.23
309.815	5.13
310.184	5.12
310.554	5.13
310.923	5.19
311.293	5.12
311.662	5.1
312.031	4.98
312.401	4.98
312.77	4.97
313.139	4.97
313.508	4.85
313.877	4.78
314.246	4.7
314.616	4.81
314.985	4.79
315.353	4.74
315.722	4.81
316.091	4.7
316.46	4.64
316.829	4.6
317.198	4.77
317.567	4.86
317.935	4.78
318.304	4.79
318.672	4.71
319.041	4.94
319.41	4.99
319.778	5.02
320.147	4.92
320.515	4.9
320.883	4.92
321.252	5.04
321.62	5.11
321.988	5.28
322.357	5.41
322.725	5.53
323.093	5.71
323.461	5.69
323.829	5.8
324.197	5.88
324.565	5.79
324.933	5.84
325.301	5.79
325.669	5.94
326.037	6.02
326.405	6.13
326.772	6.18
327.14	6.28
327.508	6.37
327.875	6.46
328.243	6.47
328.61	6.43
328.978	6.41
329.346	6.56
329.713	6.41
330.08	6.42
330.448	6.28
330.815	6.22
331.182	6.33
331.55	6.34
331.917	6.37
332.284	6.52
332.651	6.44
333.018	6.54
333.385	6.48
333.752	6.51
334.119	6.62
334.486	6.61
334.853	6.53
335.22	6.55
335.587	6.57
335.954	6.59
336.32	6.7
336.687	6.71
337.054	6.68
337.42	6.77
337.787	6.66
338.153	6.76
338.52	6.91
338.886	6.79
339.253	6.74
339.619	6.79
339.986	6.8
340.352	6.87
340.718	6.86
341.084	6.96
341.451	7.01
341.817	7
342.183	6.91
342.549	6.92
342.915	6.93
343.281	6.94
343.647	6.98
344.013	6.99
344.379	6.97
344.745	6.98
345.11	6.97
345.476	7.03
345.842	7
346.208	6.91
346.573	6.94
346.939	7.01
347.304	6.98
347.67	6.91
348.035	6.85
348.401	6.85
348.766	6.79
349.132	6.73
349.497	6.75
349.862	6.89
350.228	7
350.593	6.97
350.958	6.99
351.323	6.9
351.688	6.88
352.053	6.99
352.418	7.11
352.783	7.13
353.148	7.08
353.513	6.99
353.878	6.98
354.243	7.01
354.608	7.08
354.972	7.11
355.337	7.22
355.702	7.31
356.066	7.31
356.431	7.3
356.795	7.32
357.16	7.21
357.524	7.14
357.889	7.12
358.253	7.17
358.618	7.22
358.982	7.33
359.346	7.3
359.71	7.32
360.075	7.29
360.439	7.29
360.803	7.34
361.167	7.34
361.531	7.36
361.895	7.29
362.259	7.24
362.623	7.21
362.987	7.17
363.351	7.11
363.714	7.1
364.078	7.03
364.442	6.97
364.806	6.94
365.169	6.97
365.533	6.94
365.896	6.89
366.26	6.81
366.623	6.74
366.987	6.73
367.35	6.68
367.714	6.59
368.077	6.56
368.44	6.52
368.803	6.54
369.167	6.48
369.53	6.46
369.893	6.48
370.256	6.49
370.619	6.43
370.982	6.41
371.345	6.37
371.708	6.46
372.071	6.46
372.434	6.47
372.797	6.47
373.159	6.37
373.522	6.35
373.885	6.36
374.247	6.34
374.61	6.35
374.973	6.31
375.335	6.3
375.698	6.3
376.06	6.26
376.423	6.24
376.785	6.25
377.147	6.26
377.51	6.16
377.872	6.17
378.234	6.23
378.596	6.21
378.958	6.2
379.321	6.12
379.683	6.08
380.045	6.08
380.407	5.98
380.769	6
381.13	6
381.492	5.99
381.854	6
382.216	5.94
382.578	5.89
382.939	5.87
383.301	5.84
383.663	5.81
384.024	5.74
384.386	5.75
384.747	5.72
385.109	5.69
385.47	5.64
385.832	5.58
386.193	5.53
386.554	5.52
386.916	5.48
387.277	5.5
387.638	5.45
387.999	5.41
388.36	5.35
388.721	5.34
389.082	5.3
389.443	5.26
389.804	5.25
390.165	5.21
390.526	5.19
390.887	5.17
391.248	5.18
391.609	5.2
391.969	5.16
392.33	5.14
392.691	5.16
393.051	5.13
393.412	5.13
393.772	5.13
394.133	5.08
394.493	5.06
394.854	5.02
395.214	4.99
395.574	5.03
395.935	5.02
396.295	5
396.655	4.95
397.015	4.91
397.376	4.88
397.736	4.87
398.096	4.85
398.456	4.83
398.816	4.81
399.176	4.77
399.535	4.74
399.895	4.67
400.255	4.6
400.615	4.56
400.975	4.49
401.334	4.48
401.694	4.47
402.054	4.47
402.413	4.48
402.773	4.46
403.132	4.39
403.492	4.41
403.851	4.39
404.211	4.39
404.57	4.34
404.929	4.34
405.288	4.31
405.648	4.29
406.007	4.26
406.366	4.23
406.725	4.25
407.084	4.21
407.443	4.24
407.802	4.26
408.161	4.27
408.52	4.24
408.879	4.2
409.238	4.19
409.596	4.19
409.955	4.16
410.314	4.18
410.673	4.16
411.031	4.13
411.39	4.11
411.748	4.1
412.107	4.14
412.465	4.1
412.824	4.13
413.182	4.1
413.54	4.1
413.899	4.09
414.257	4.09
414.615	4.09
414.974	4.1
415.332	4.07
415.69	4.06
416.048	4.06
416.406	4.07
416.764	4.05
417.122	4.06
417.48	4.03
417.838	4.02
418.195	4.03
418.553	4
418.911	4
419.269	4
419.626	3.97
419.984	3.97
420.342	3.96
420.699	3.95
421.057	3.95
421.414	3.92
421.772	3.9
422.129	3.9
422.486	3.89
422.844	3.9
423.201	3.88
423.558	3.87
423.915	3.87
424.273	3.88
424.63	3.86
424.987	3.86
425.344	3.84
425.701	3.84
426.058	3.85
426.415	3.84
426.772	3.83
427.128	3.82
427.485	3.81
427.842	3.79
428.199	3.79
428.555	3.77
428.912	3.75
429.269	3.75
429.625	3.71
429.982	3.68
430.338	3.65
430.695	3.64
431.051	3.62
431.407	3.6
431.764	3.57
432.12	3.57
432.476	3.56
432.832	3.56
433.189	3.55
433.545	3.54
433.901	3.53
434.257	3.51
434.613	3.53
434.969	3.55
435.325	3.56
435.681	3.56
436.036	3.58
436.392	3.59
436.748	3.59
437.104	3.61
437.459	3.63
437.815	3.66
438.171	3.67
438.526	3.68
438.882	3.67
439.237	3.68
439.593	3.7
439.948	3.69
440.304	3.69
440.659	3.67
441.014	3.69
441.369	3.67
441.725	3.68
442.08	3.66
442.435	3.65
442.79	3.64
443.145	3.64
443.5	3.62
443.855	3.61
444.21	3.61
444.565	3.61
444.92	3.61
445.275	3.59
445.629	3.57
445.984	3.57
446.339	3.55
446.693	3.53
447.048	3.52
447.403	3.53
447.757	3.51
448.112	3.52
448.466	3.5
448.82	3.52
449.175	3.51
449.529	3.51
449.883	3.5
450.238	3.48
450.592	3.48
450.946	3.47
451.3	3.46
451.654	3.45
452.008	3.44
452.362	3.44
452.716	3.45
453.07	3.45
453.424	3.45
453.778	3.46
454.132	3.45
454.486	3.43
454.839	3.42
455.193	3.43
455.547	3.45
455.9	3.45
456.254	3.45
456.607	3.46
456.961	3.46
457.314	3.47
457.668	3.48
458.021	3.47
458.375	3.47
458.728	3.49
459.081	3.5
459.434	3.49
459.787	3.49
460.141	3.49
460.494	3.49
460.847	3.5
461.2	3.49
461.553	3.51
461.906	3.52
462.259	3.53
462.611	3.53
462.964	3.53
463.317	3.53
463.67	3.54
464.022	3.53
464.375	3.53
464.728	3.52
465.08	3.52
465.433	3.53
465.785	3.52
466.138	3.52
466.49	3.52
466.843	3.51
467.195	3.51
467.547	3.51
467.899	3.5
468.252	3.48
468.604	3.5
468.956	3.49
469.308	3.52
469.66	3.52
470.012	3.55
470.364	3.55
470.716	3.56
471.068	3.56
471.42	3.57
471.772	3.57
472.123	3.6
472.475	3.62
472.827	3.63
473.178	3.66
473.53	3.67
473.882	3.68
474.233	3.7
474.585	3.68
474.936	3.69
475.288	3.7
475.639	3.72
475.99	3.73
476.342	3.74
476.693	3.73
477.044	3.76
477.395	3.74
477.746	3.72
478.097	3.7
478.448	3.68
478.8	3.69
479.15	3.67
479.501	3.68
479.852	3.68
480.203	3.68
480.554	3.66
480.905	3.67
481.255	3.67
481.606	3.68
481.957	3.69
482.307	3.69
482.658	3.7
483.009	3.7
483.359	3.7
483.709	3.7
484.06	3.69
484.41	3.69
484.761	3.69
485.111	3.69
485.461	3.7
485.811	3.71
486.162	3.7
486.512	3.71
486.862	3.7
487.212	3.69
487.562	3.69
487.912	3.69
488.262	3.68
488.612	3.69
488.961	3.68
489.311	3.68
489.661	3.67
490.011	3.67
490.36	3.66
490.71	3.67
491.06	3.67
491.409	3.67
491.759	3.66
492.108	3.67
492.458	3.67
492.807	3.66
493.157	3.66
493.506	3.68
493.855	3.69
494.204	3.7
494.554	3.72
494.903	3.73
495.252	3.74
495.601	3.76
495.95	3.78
496.299	3.78
496.648	3.79
496.997	3.8
497.346	3.82
497.695	3.83
498.043	3.85
498.392	3.85
498.741	3.88
499.09	3.9
499.438	3.91
499.787	3.94
500.135	3.99
500.484	4.01
500.832	4.03
501.181	4.05
501.529	4.09
501.878	4.12
502.226	4.15
502.574	4.19
502.923	4.2
503.271	4.2
503.619	4.25
503.967	4.28
504.315	4.32
504.663	4.36
505.011	4.41
505.359	4.42
505.707	4.46
506.055	4.5
506.403	4.53
506.751	4.57
507.098	4.6
507.446	4.63
507.794	4.67
508.141	4.72
508.489	4.75
508.837	4.78
509.184	4.83
509.531	4.86
509.879	4.91
510.226	4.95
510.574	5.01
510.921	5.06
511.268	5.12
511.616	5.18
511.963	5.24
512.31	5.28
512.657	5.32
513.004	5.39
513.351	5.44
513.698	5.49
514.045	5.54
514.392	5.62
514.739	5.66
515.086	5.73
515.432	5.77
515.779	5.83
516.126	5.91
516.473	5.96
516.819	6.03
517.166	6.08
517.512	6.12
517.859	6.17
518.205	6.22
518.552	6.27
518.898	6.31
519.245	6.34
519.591	6.41
519.937	6.46
520.283	6.53
520.629	6.58
520.976	6.66
521.322	6.75
521.668	6.81
522.014	6.89
522.36	6.96
522.706	7.04
523.052	7.15
523.398	7.23
523.743	7.32
524.089	7.39
524.435	7.47
524.781	7.58
525.126	7.65
525.472	7.73
525.817	7.8
526.163	7.89
526.509	7.97
526.854	8.02
527.199	8.09
527.545	8.14
527.89	8.21
528.235	8.26
528.581	8.33
528.926	8.39
529.271	8.47
529.616	8.54
529.961	8.61
530.306	8.67
530.651	8.75
530.996	8.83
531.341	8.94
531.686	9.04
532.031	9.15
532.376	9.26
532.721	9.36
533.065	9.48
533.41	9.6
533.755	9.71
534.099	9.84
534.444	9.98
534.788	10.13
535.133	10.26
535.477	10.42
535.822	10.57
536.166	10.75
536.51	10.91
536.855	11.11
537.199	11.34
537.543	11.53
537.887	11.74
538.231	11.97
538.576	12.16
538.92	12.39
539.264	12.57
539.608	12.78
539.951	12.97
540.295	13.13
540.639	13.28
540.983	13.47
541.327	13.67
541.671	13.83
542.014	14
542.358	14.19
542.701	14.35
543.045	14.54
543.389	14.74
543.732	14.95
544.075	15.14
544.419	15.32
544.762	15.57
545.105	15.81
545.449	16.03
545.792	16.27
546.135	16.54
546.478	16.84
546.821	17.13
547.165	17.45
547.508	17.8
547.851	18.14
548.194	18.48
548.536	18.79
548.879	19.19
549.222	19.56
549.565	19.94
549.908	20.31
550.25	20.69
550.593	21.03
550.936	21.37
551.278	21.76
551.621	22.16
551.963	22.53
552.306	22.9
552.648	23.23
552.991	23.62
553.333	23.95
553.675	24.28
554.017	24.66
554.36	24.98
554.702	25.3
555.044	25.64
555.386	25.99
555.728	26.34
556.07	26.64
556.412	27
556.754	27.33
557.096	27.72
557.438	28.09
557.78	28.46
558.121	28.89
558.463	29.25
558.805	29.65
559.147	29.98
559.488	30.34
559.83	30.77
560.171	31.15
560.513	31.57
560.854	31.94
561.196	32.33
561.537	32.72
561.878	33.09
562.22	33.45
562.561	33.79
562.902	34.11
563.243	34.38
563.584	34.65
563.925	34.96
564.266	35.19
564.607	35.49
564.948	35.76
565.289	36.02
565.63	36.31
565.971	36.55
566.312	36.86
566.653	37.16
566.993	37.4
567.334	37.67
567.675	37.91
568.015	38.17
568.356	38.37
568.696	38.62
569.037	38.89
569.377	39.12
569.718	39.37
570.058	39.64
570.398	39.94
570.739	40.22
571.079	40.44
571.419	40.75
571.759	41.03
572.099	41.27
572.439	41.52
572.779	41.76
573.119	41.98
573.459	42.2
573.799	42.38
574.139	42.56
574.479	42.75
574.819	42.95
575.158	43.14
575.498	43.29
575.838	43.47
576.177	43.7
576.517	43.93
576.856	44.17
577.196	44.36
577.535	44.58
577.875	44.75
578.214	44.98
578.553	45.16
578.893	45.32
579.232	45.55
579.571	45.75
579.91	45.9
580.25	46.06
580.589	46.25
580.928	46.43
581.267	46.71
581.606	46.9
581.945	47.08
582.283	47.29
582.622	47.59
582.961	47.8
583.3	47.95
583.639	48.16
583.977	48.27
584.316	48.51
584.654	48.64
584.993	48.8
585.332	48.94
585.67	49.09
586.008	49.2
586.347	49.31
586.685	49.44
587.024	49.68
587.362	49.85
587.7	49.96
588.038	50.09
588.376	50.13
588.715	50.19
589.053	50.34
589.391	50.45
589.729	50.53
590.067	50.63
590.404	50.71
590.742	50.72
591.08	50.86
591.418	50.91
591.756	51.03
592.093	51.19
592.431	51.27
592.769	51.34
593.106	51.47
593.444	51.55
593.781	51.66
594.119	51.71
594.456	51.75
594.793	51.84
595.131	51.9
595.468	52.04
595.805	52.18
596.143	52.2
596.48	52.28
596.817	52.37
597.154	52.47
597.491	52.54
597.828	52.63
598.165	52.68
598.502	52.78
598.839	52.85
599.176	52.94
599.512	53.04
599.849	53.18
600.186	53.32
600.523	53.45
600.859	53.54
601.196	53.59
601.532	53.72
601.869	53.8
602.205	53.94
602.542	54.01
602.878	54.04
603.215	54.15
603.551	54.16
603.887	54.23
604.223	54.25
604.56	54.41
604.896	54.54
605.232	54.62
605.568	54.62
605.904	54.65
606.24	54.76
606.576	54.82
606.912	54.9
607.248	54.88
607.583	54.95
607.919	54.97
608.255	55.08
608.591	55.13
608.926	55.16
609.262	55.14
609.597	55.11
609.933	55.21
610.268	55.23
610.604	55.31
610.939	55.31
611.275	55.37
611.61	55.37
611.945	55.34
612.281	55.41
612.616	55.52
612.951	55.6
613.286	55.64
613.621	55.76
613.956	55.72
614.291	55.8
614.626	55.79
614.961	55.86
615.296	55.87
615.631	55.93
615.966	56.08
616.3	56.21
616.635	56.33
616.97	56.38
617.304	56.45
617.639	56.54
617.973	56.54
618.308	56.57
618.642	56.59
618.977	56.61
619.311	56.6
619.646	56.64
619.98	56.66
620.314	56.59
620.648	56.66
620.983	56.68
621.317	56.8
621.651	56.87
621.985	57
622.319	57
622.653	57.09
622.987	57.14
623.321	57.2
623.655	57.25
623.988	57.37
624.322	57.46
624.656	57.54
624.99	57.6
625.323	57.57
625.657	57.66
625.99	57.77
626.324	57.76
626.657	57.84
626.991	57.84
627.324	57.85
627.658	57.93
627.991	58.07
628.324	58.08
628.657	58.07
628.991	58.05
629.324	58.09
629.657	58.08
629.99	58.06
630.323	58.02
630.656	58.05
630.989	58.01
631.322	57.96
631.655	57.94
631.987	58.03
632.32	58.18
632.653	58.14
632.986	58.09
633.318	58.19
633.651	58.18
633.984	58.3
634.316	58.49
634.649	58.5
634.981	58.44
635.313	58.42
635.646	58.45
635.978	58.51
636.31	58.53
636.643	58.52
636.975	58.62
637.307	58.77
637.639	58.81
637.971	58.85
638.303	58.93
638.635	58.92
638.967	58.91
639.299	58.9
639.631	58.93
639.963	58.96
640.295	59.07
640.626	59.16
640.958	59.15
641.29	59.13
641.621	59.11
641.953	58.99
642.285	59
642.616	59.06
642.948	59.05
643.279	59.13
643.61	59.18
643.942	59.15
644.273	59.08
644.604	59.12
644.936	59.11
645.267	59.12
645.598	59.14
645.929	59.19
646.26	59.19
646.591	59.16
646.922	59.18
647.253	59.1
647.584	59.04
647.915	58.99
648.245	58.86
648.576	58.93
648.907	59.18
649.238	59.22
649.568	59.1
649.899	59.01
650.229	58.99
650.56	59.04
650.89	59.04
651.221	59.05
651.551	59.07
651.882	59.06
652.212	59.12
652.542	59.09
652.872	59.07
653.203	59.12
653.533	59.19
653.863	59.29
654.193	59.35
654.523	59.39
654.853	59.44
655.183	59.54
655.513	59.48
655.843	59.52
656.172	59.58
656.502	59.84
656.832	60.01
657.162	60.03
657.491	60.01
657.821	60.08
658.15	60.09
658.48	60.08
658.809	60.14
659.139	60.18
659.468	60.29
659.798	60.33
660.127	60.45
660.456	60.61
660.785	60.68
661.115	60.68
661.444	60.69
661.773	60.8
662.102	60.9
662.431	60.97
662.76	60.95
663.089	61
663.418	60.86
663.747	60.74
664.076	60.8
664.404	60.76
664.733	60.64
665.062	60.58
665.39	60.68
665.719	60.62
666.048	60.64
666.376	60.53
666.705	60.56
667.033	60.49
667.362	60.4
667.69	60.28
668.018	60.27
668.347	60.38
668.675	60.34
669.003	60.24
669.331	60.22
669.659	60.19
669.987	60.2
670.315	60.29
670.643	60.45
670.971	60.36
671.299	60.39
671.627	60.46
671.955	60.64
672.283	60.57
672.61	60.61
672.938	60.59
673.266	60.73
673.593	60.74
673.921	60.64
674.249	60.76
674.576	60.96
674.904	60.92
675.231	60.7
675.558	60.73
675.886	60.71
676.213	60.75
676.54	60.68
676.867	60.66
677.195	60.68
677.522	60.53
677.849	60.63
678.176	60.59
678.503	60.62
678.83	60.58
679.157	60.56
679.484	60.63
679.81	60.64
680.137	60.65
680.464	60.63
680.791	60.62
681.117	60.56
681.444	60.33
681.771	60.46
682.097	60.59
682.424	60.59
682.75	60.7
683.077	60.67
683.403	60.77
683.729	60.81
684.056	60.8
684.382	60.99
684.708	60.99
685.034	61.18
685.36	61.21
685.686	61.13
686.012	61.1
686.339	61.15
686.664	61.19
686.99	61.17
687.316	61.2
687.642	61.21
687.968	61.11
688.294	61.3
688.619	61.17
688.945	61.14
689.271	61.18
689.596	61.09
689.922	61.02
690.247	60.9
690.573	60.88
690.898	61.01
691.224	60.89
691.549	60.92
691.874	60.82
692.2	60.87
692.525	61.09
692.85	61.19
693.175	61.05
693.5	60.98
693.825	61.02
694.15	61.01
694.475	61.18
694.8	61.35
695.125	61.39
695.45	61.48
695.775	61.61
696.099	61.58
696.424	61.61
696.749	61.58
697.073	61.84
697.398	62.03
697.723	61.83
698.047	61.82
698.372	61.86
698.696	61.8
699.02	61.88
699.345	61.79
699.669	61.84
699.993	61.82
700.318	61.87
700.642	61.88
700.966	61.85
701.29	61.79
701.614	61.89
701.938	61.74
702.262	61.85
702.586	61.64
702.91	61.52
703.234	61.59
703.557	61.74
703.881	61.59
704.205	61.43
704.529	61.57
704.852	61.58
705.176	61.47
705.499	61.65
705.823	61.53
706.146	61.52
706.47	61.57
706.793	61.57
707.117	61.51
707.44	61.51
707.763	61.65
708.086	61.81
708.409	61.69
708.733	61.89
709.056	61.62
709.379	61.75
709.702	61.95
710.025	61.99
710.348	62.11
710.671	61.95
710.993	62.12
711.316	62.19
711.639	62.33
711.962	62.56
712.284	62.27
712.607	62.17
712.93	62.08
713.252	61.9
713.575	62.04
713.897	62.16
714.22	62.07
714.542	62.13
714.864	61.92
715.187	61.84
715.509	61.77
715.831	61.86
716.153	61.99
716.475	61.83
716.798	61.76
717.12	61.57
717.442	61.78
717.764	61.3
718.085	61.1
718.407	61.04
718.729	60.89
719.051	61.05
719.373	61.02
719.695	61.07
720.016	61.05
720.338	61.03
720.659	60.89
720.981	61.14
721.302	60.84
721.624	60.66
721.945	60.56
722.267	60.64
722.588	60.63
722.909	60.48
723.231	60.87
723.552	60.87
723.873	61.13
724.194	61.02
724.515	61.24
724.836	61.32
725.157	61.48
725.478	61.45
725.799	61.54
726.12	61.65
726.441	61.73
726.762	61.75
727.083	61.92
727.403	62.18
727.724	62.01
728.045	62.25
728.365	62.38
728.686	62.41
729.006	62.45
729.327	62.44
729.647	62.4
729.967	62.04
730.288	61.92
730.608	61.68
730.928	61.86
731.249	61.9
731.569	62.12
731.889	62.01
732.209	62.12
732.529	62.22
732.849	62.2
733.169	62.27
733.489	62.39
733.809	62.24
734.129	62.39
734.448	62.34
734.768	62.26
735.088	62.32
735.408	62.38
735.727	62.3
736.047	62.51
736.366	62.71
736.686	62.93
737.005	63.1
737.325	63.38
737.644	63.17
737.963	63.2
738.283	63.02
738.602	63.25
738.921	63.22
739.24	63.07
739.56	62.94
739.879	62.8
740.198	62.67
740.517	62.68
740.836	62.26
741.155	62.56
741.473	62.66
741.792	62.62
742.111	62.58
742.43	62.65
742.748	62.4
743.067	62.22
743.386	62.04
743.704	61.98
744.023	61.85
744.341	62.01
744.66	62.32
744.978	62.14
745.297	61.8
745.615	61.99
745.933	62.28
746.252	62.29
746.57	62.21
746.888	62.41
747.206	62.28
747.524	62.39
747.842	62.1
748.16	62.18
748.478	62.41
748.796	62.41
749.114	62.5
749.432	62.54
749.749	62.58
750.067	62.43
750.385	62.41
750.703	62.67
751.02	62.85
751.338	62.71
751.655	63.09
751.973	63.31
752.29	62.88
752.608	62.83
752.925	63.15
753.242	63.51
753.56	63.34
753.877	63.28
754.194	62.93
754.511	62.99
754.828	62.79
755.145	62.87
755.462	63.26
755.779	63.21
756.096	63.33
756.413	63.67
756.73	64.05
757.047	63.96
757.364	63.88
757.68	63.4
757.997	63.2
758.314	62.98
758.63	62.76
758.947	62.82
759.264	62.75
759.58	62.63
759.896	62.66
760.213	62.74
760.529	62.79
760.846	63.14
761.162	62.7
761.478	62.87
761.794	62.4
762.11	62.16
762.426	62.01
762.743	62.3
763.059	62.22
763.375	62.21
763.69	62.55
764.006	62.62
764.322	62.89
764.638	63.24
764.954	63.32
765.27	63.45
765.585	63.85
765.901	63.76
766.216	63.88
766.532	63.69
766.848	63.67
767.163	64.02
767.478	63.91
767.794	64.19
768.109	64.03
768.424	64.75
768.74	64.85
769.055	65.27
769.37	64.85
769.685	64.61
770	64.65
770.315	64.29
770.63	64.1
770.945	63.85
771.26	63.23
771.575	63.45
771.89	63.33
772.205	62.79
772.52	62.86
772.834	62.87
773.149	62.99
773.464	63.15
773.778	63.09
774.093	63.01
774.407	63.37
774.722	63.42
775.036	63.06
775.351	62.95
775.665	62.53
775.979	62.58
776.293	62.26
776.608	62.45
776.922	62.86
777.236	63.01
777.55	63.19
777.864	63.56
778.178	63.48
778.492	63.59
778.806	63.38
779.12	63.67
779.434	63.81
779.747	63.87
780.061	63.65
780.375	63.48
780.689	63.82
781.002	63.97
781.316	63.65
781.629	63.6
781.943	63.88
782.256	63.94
782.57	64.55
782.883	64.66
783.196	64.1
783.51	63.83
783.823	63.65
784.136	63.61
784.449	63.51
784.762	63.32
785.075	63.48
785.388	63.6
785.701	62.85
786.014	62.85
786.327	62.71
786.64	62.88
786.953	62.66
787.266	62.33
787.578	61.75
787.891	62.06
788.204	61.86
788.516	61.59
788.829	61.83
789.141	61.67
789.454	62.41
789.766	62.78
790.079	62.7
790.391	62.51
790.703	62.53
791.016	62.83
791.328	63.03
791.64	63.03
791.952	63.06
792.264	63.77
792.576	63.7
792.888	63.98
793.2	63.68
793.512	64.17
793.824	64.17
794.136	63.87
794.448	64.04
794.76	64.21
795.071	64.66
795.383	64.01
795.695	63.81
796.006	63.24
796.318	63.1
796.629	63.2
796.941	63.14
797.252	63.82
797.564	63.38
797.875	63.43
798.186	63.52
798.497	63.51
798.809	63.5
799.12	63.1
799.431	62.95
799.742	63.42
800.053	63.38
800.364	64.06
800.675	64.59
800.986	64.22
801.297	63.95
801.608	63.64
801.918	63.64
802.229	64.1
802.54	64.67
802.851	64.61
803.161	64.44
803.472	64.71
803.782	64.15
804.093	63.67
804.403	63.08
804.714	62.76
805.024	62.79
805.334	62.75
805.645	63.03
805.955	62.46
806.265	62.7
806.575	62.12
806.885	61.81
807.195	61.39
807.505	61.56
807.815	62.03
808.125	62.4
808.435	62.81
808.745	62.27
809.055	61.9
809.365	61.34
809.674	61.65
809.984	61.91
810.294	61.8
810.603	62.72
810.913	62.98
811.222	63.54
811.532	63.8
811.841	64.18
812.151	64.19
812.46	64.64
812.769	64.06
813.079	64.75
813.388	65.07
813.697	65.32
814.006	65.53
814.315	65.73
814.624	65.46
814.933	65.54
815.242	65
815.551	65.42
815.86	66.32
816.169	66.72
816.478	66.95
816.786	66.72
817.095	66.51
817.404	67.51
817.712	67.14
818.021	66.85
818.33	66.51
818.638	66.14
818.947	66.2
819.255	66.53
819.563	66.53
819.872	66.17
820.18	66.07
820.488	66.33
820.796	66.12
821.105	66.13
821.413	66.25
821.721	66.37
822.029	66.1
822.337	66.29
822.645	66.27
822.953	66.06
823.26	66.15
823.568	66.09
823.876	65.84
824.184	65.69
824.491	65.59
824.799	65.6
825.107	65.8
825.414	65.84
825.722	65.81
826.029	65.69
826.337	65.97
826.644	66.14
826.951	66.09
827.259	66.07
827.566	65.89
827.873	65.65
828.18	65.69
828.488	65.95
828.795	65.97
829.102	65.77
829.409	66.2
829.716	65.94
830.023	66.14
830.329	66.14
830.636	66.29
830.943	66.64
831.25	66.43
831.557	66.59
831.863	66.44
832.17	66.22
832.476	66.26
832.783	65.48
833.089	65.64
833.396	65.33
833.702	65.13
834.009	65.61
834.315	65.85
834.621	66.17
834.928	65.95
835.234	65.08
835.54	64.83
835.846	64.56
836.152	64.57
836.458	64.72
836.764	64.73
837.07	64.74
837.376	64.29
837.682	64.06
837.988	63.77
838.293	63.42
838.599	63.39
838.905	63.87
839.211	63.57
839.516	62.91
839.822	63.43
840.127	63.84
840.433	63.81
840.738	64.15
841.044	63.5
841.349	63.95
841.654	64.36
841.959	65.42
842.265	64.32
842.57	65.29
842.875	64.68
843.18	64.77
843.485	65.73
843.79	66.15
844.095	66.49
844.4	65.28
844.705	66.01
845.01	65.96
845.315	64.12
845.619	66.36
845.924	67.41
846.229	66.23
846.533	65.22
846.838	63.64
847.142	63.35
847.447	62.66
847.751	62.31
848.056	61.78
848.36	60.22
848.664	60.82
848.969	58.83
849.273	57.02
849.577	58.42
849.881	57.9
850.185	60.58
850.489	60.91
850.794	61.28
851.097	61.32
851.401	61.63
851.705	62.38
852.009	61.79
852.313	61.61
852.617	61.07
852.92	64.74
853.224	65.14
853.528	64
853.831	64.32
854.135	62.02
854.438	62.77
854.742	60.86
855.045	61.03
855.349	63.04
855.652	63.18
855.955	61.97
856.259	60.29
856.562	59.07
856.865	58.63
857.168	59.84
857.471	59.66
857.774	59.29
858.077	59.54
858.38	59.28
858.683	59.13
858.986	59.08
859.289	55.76
859.592	58.04
859.894	56.82
860.197	56.23
860.5	59.59
860.802	58.56
861.105	61.63
861.407	61.56
861.71	59.99
862.012	60.94
862.315	61.08
862.617	60.76
862.919	59.53
863.222	59.79
863.524	57.36
863.826	59.12
864.128	59.94
864.43	57.92
864.732	59.49
865.034	59.22
865.336	60.22
865.638	63.57
865.94	61.49
866.242	61.62
866.544	63.35
866.846	61.49
867.147	62.95
867.449	62.57
867.751	63.73
868.052	67.34
868.354	67.57
868.655	68.97
868.957	71.33
869.258	70.63
869.56	72.38
869.861	75.13
870.162	72.12
870.463	73.7
870.765	75.54
871.066	71.42
871.367	69.69
871.668	67.46
871.969	64.88
872.27	63.69
872.571	64.71
872.872	62.08
873.173	60.89
873.473	61.63
873.774	62.01
874.075	62.13
874.376	58.23
874.676	59.74
874.977	57.59
875.277	56.22
875.578	56.41
875.878	55.01
876.179	53.93
876.479	55.32
876.78	52.62
877.08	52.17
877.38	52.5
877.68	53.76
877.981	55.39
878.281	55.78
878.581	57.86
