Data from BA28472_Reflection_00015.txt Node
Date: Mon Nov 18 15:24:50 EST 2019
User: vgr7
Spectrometer: USB2G7710
Scans to average: 3
Trigger mode: 4
Integration Time (sec): 2.000000E-2
Electric dark correction enabled: true
Boxcar width: 10
XAxis mode: Wavelengths
Number of Pixels in Spectrum: 2048
>>>>>Begin Spectral Data<<<<<
177.721	-91.61
178.105	-34.19
178.488	-29.5
178.871	-36.11
179.254	-1.03
179.636	-68.22
180.019	-3172.73
180.402	96.15
180.785	-65.14
181.168	237.76
181.55	-331.14
181.933	171.35
182.316	116.38
182.698	51.17
183.081	47.83
183.463	48.82
183.846	34.3
184.228	21.02
184.611	14.71
184.993	-13.8
185.376	-12.66
185.758	-23.55
186.14	-22.72
186.522	-44.67
186.904	-32.99
187.287	-20.82
187.669	-30.71
188.051	-17.58
188.433	-45.19
188.815	-64.5
189.197	-60.95
189.579	-54.84
189.961	-110.85
190.342	-94.08
190.724	-211.85
191.106	-185.26
191.488	-346.65
191.869	261.58
192.251	77.76
192.633	48.46
193.014	100
193.396	85.17
193.777	82.02
194.159	145.11
194.54	86.91
194.922	129.19
195.303	126.69
195.684	125.75
196.065	165.89
196.447	96.91
196.828	54.52
197.209	93.97
197.59	126.72
197.971	89.89
198.352	112.96
198.733	139.64
199.114	158.25
199.495	167.04
199.876	231.11
200.257	453.26
200.638	391.89
201.018	289.85
201.399	301.78
201.78	189.93
202.16	137.79
202.541	169
202.922	152.11
203.302	127.19
203.683	116.48
204.063	84.94
204.444	104.73
204.824	204.76
205.204	184.63
205.585	183.11
205.965	214.46
206.345	192.43
206.725	285.64
207.106	183.41
207.486	131.94
207.866	122.34
208.246	87.9
208.626	94.18
209.006	122.75
209.386	93.78
209.766	148.62
210.145	254.34
210.525	232.68
210.905	213.21
211.285	405.45
211.664	300.51
212.044	-614.89
212.424	1410.92
212.803	204.5
213.183	235.79
213.562	632.02
213.942	-2365.75
214.321	373.42
214.701	404.48
215.08	313.7
215.459	250.81
215.838	213.98
216.218	75.59
216.597	90.25
216.976	79.85
217.355	86.92
217.734	76.6
218.113	124.32
218.492	132.91
218.871	123.12
219.25	65.5
219.629	41.69
220.008	74.2
220.387	71.66
220.766	84.33
221.144	23.67
221.523	17.75
221.902	12.72
222.28	22.83
222.659	20.06
223.037	38
223.416	38.14
223.794	26.44
224.173	48.15
224.551	44.71
224.929	38.86
225.308	43.77
225.686	46.16
226.064	32.07
226.442	24.02
226.821	26.37
227.199	33.24
227.577	32.9
227.955	23.7
228.333	22.69
228.711	18.96
229.089	27.01
229.467	25.4
229.845	20.34
230.222	16.81
230.6	14.47
230.978	12.51
231.356	13.03
231.733	11.45
232.111	11.64
232.488	11.08
232.866	10.55
233.243	8.67
233.621	6.99
233.998	8.01
234.376	6.17
234.753	6.4
235.13	7.07
235.508	8.72
235.885	10.2
236.262	8.05
236.639	8.62
237.016	6.54
237.393	8.49
237.77	8.34
238.147	8.84
238.524	8.41
238.901	8.85
239.278	8.74
239.655	9.48
240.032	8.73
240.409	7.66
240.785	7.49
241.162	8.22
241.539	7.71
241.915	7.78
242.292	7.44
242.668	6.99
243.045	6.55
243.421	6.31
243.798	6.11
244.174	6.19
244.551	6.02
244.927	5.79
245.303	5.65
245.679	5.77
246.056	5.7
246.432	5.88
246.808	5.82
247.184	5.39
247.56	5.2
247.936	5.13
248.312	5.25
248.688	5.24
249.064	5.01
249.44	5.15
249.815	5.01
250.191	5.17
250.567	5.23
250.943	5.06
251.318	5
251.694	5.01
252.069	5.17
252.445	5.2
252.82	5.31
253.196	5.25
253.571	5.3
253.947	5.47
254.322	5.33
254.697	5.14
255.073	5.2
255.448	4.91
255.823	4.87
256.198	4.69
256.573	4.75
256.948	4.76
257.323	4.68
257.698	4.46
258.073	4.43
258.448	4.51
258.823	4.44
259.198	4.27
259.573	4.23
259.948	4.13
260.322	4.11
260.697	4.11
261.072	4.03
261.446	3.98
261.821	4.01
262.195	4.12
262.57	4.2
262.944	4.3
263.319	4.33
263.693	4.3
264.067	4.44
264.442	4.23
264.816	4.17
265.19	4.02
265.564	4.16
265.938	4.11
266.313	3.82
266.687	3.79
267.061	4.09
267.435	4.16
267.809	4.39
268.183	4.47
268.556	4.52
268.93	4.49
269.304	4.43
269.678	4.4
270.051	4.35
270.425	4.35
270.799	4.36
271.172	4.42
271.546	4.47
271.919	4.31
272.293	4.36
272.666	4.41
273.04	4.47
273.413	4.45
273.787	4.41
274.16	4.5
274.533	4.56
274.906	4.4
275.279	4.41
275.653	4.15
276.026	4.1
276.399	3.9
276.772	4.07
277.145	4.07
277.518	4.04
277.891	3.99
278.263	3.98
278.636	4.06
279.009	4.14
279.382	4.21
279.755	4.24
280.127	4.5
280.5	4.6
280.872	4.82
281.245	4.78
281.617	4.92
281.99	4.92
282.362	4.75
282.735	4.78
283.107	4.66
283.479	4.77
283.852	4.66
284.224	4.68
284.596	4.67
284.968	4.8
285.34	4.83
285.713	4.83
286.085	4.87
286.457	5.01
286.829	4.98
287.201	4.94
287.572	4.91
287.944	4.83
288.316	4.79
288.688	4.64
289.06	4.71
289.431	4.7
289.803	4.84
290.175	4.97
290.546	5.09
290.918	5.3
291.289	5.3
291.661	5.55
292.032	5.79
292.403	5.89
292.775	5.88
293.146	5.71
293.517	5.72
293.889	5.86
294.26	5.69
294.631	5.75
295.002	5.79
295.373	5.96
295.744	5.99
296.115	5.95
296.486	5.95
296.857	5.94
297.228	5.93
297.599	5.81
297.97	5.92
298.34	5.89
298.711	5.95
299.082	5.94
299.452	5.95
299.823	5.88
300.194	5.85
300.564	5.71
300.935	5.91
301.305	6
301.676	5.94
302.046	5.97
302.416	6.11
302.787	6.21
303.157	6.25
303.527	6.25
303.897	6.43
304.267	6.59
304.637	6.61
305.008	6.67
305.378	6.81
305.748	6.89
306.117	6.84
306.487	6.89
306.857	7.04
307.227	6.88
307.597	6.9
307.967	6.82
308.336	6.94
308.706	6.95
309.076	7.01
309.445	6.95
309.815	6.99
310.184	6.84
310.554	6.94
310.923	6.85
311.293	6.95
311.662	6.91
312.031	6.86
312.401	7
312.77	7.12
313.139	7.18
313.508	7.17
313.877	7.23
314.246	7.15
314.616	7.21
314.985	7.4
315.353	7.45
315.722	7.61
316.091	7.78
316.46	7.89
316.829	8.04
317.198	8.22
317.567	8.17
317.935	8.27
318.304	8.28
318.672	8.26
319.041	8.36
319.41	8.4
319.778	8.55
320.147	8.45
320.515	8.46
320.883	8.56
321.252	8.62
321.62	8.72
321.988	8.8
322.357	8.7
322.725	8.78
323.093	8.93
323.461	9.03
323.829	9.19
324.197	9.14
324.565	9.08
324.933	9.04
325.301	9.2
325.669	9.23
326.037	9.15
326.405	9.27
326.772	9.28
327.14	9.36
327.508	9.38
327.875	9.4
328.243	9.51
328.61	9.48
328.978	9.43
329.346	9.53
329.713	9.44
330.08	9.53
330.448	9.42
330.815	9.29
331.182	9.1
331.55	9.08
331.917	9.18
332.284	9.19
332.651	9.18
333.018	9.23
333.385	9.24
333.752	9.39
334.119	9.46
334.486	9.47
334.853	9.4
335.22	9.38
335.587	9.55
335.954	9.5
336.32	9.48
336.687	9.57
337.054	9.62
337.42	9.78
337.787	9.88
338.153	9.93
338.52	10.02
338.886	10.2
339.253	10.11
339.619	10.02
339.986	9.99
340.352	10.09
340.718	10.13
341.084	10.27
341.451	10.23
341.817	10.23
342.183	10.16
342.549	10.17
342.915	10.29
343.281	10.2
343.647	10.17
344.013	10.29
344.379	10.33
344.745	10.23
345.11	10.24
345.476	10.19
345.842	10.17
346.208	10.19
346.573	10.19
346.939	10.29
347.304	10.39
347.67	10.4
348.035	10.25
348.401	10.3
348.766	10.32
349.132	10.23
349.497	10.24
349.862	10.34
350.228	10.4
350.593	10.39
350.958	10.41
351.323	10.49
351.688	10.4
352.053	10.31
352.418	10.4
352.783	10.35
353.148	10.28
353.513	10.3
353.878	10.33
354.243	10.32
354.608	10.34
354.972	10.3
355.337	10.39
355.702	10.49
356.066	10.46
356.431	10.39
356.795	10.46
357.16	10.46
357.524	10.34
357.889	10.36
358.253	10.3
358.618	10.33
358.982	10.29
359.346	10.23
359.71	10.26
360.075	10.2
360.439	10.25
360.803	10.25
361.167	10.2
361.531	10.12
361.895	10.11
362.259	10.05
362.623	10
362.987	9.95
363.351	9.98
363.714	9.92
364.078	9.87
364.442	9.82
364.806	9.79
365.169	9.85
365.533	9.75
365.896	9.73
366.26	9.72
366.623	9.63
366.987	9.63
367.35	9.59
367.714	9.54
368.077	9.46
368.44	9.44
368.803	9.43
369.167	9.42
369.53	9.32
369.893	9.28
370.256	9.24
370.619	9.15
370.982	8.99
371.345	8.97
371.708	8.94
372.071	8.93
372.434	8.83
372.797	8.73
373.159	8.66
373.522	8.67
373.885	8.64
374.247	8.65
374.61	8.61
374.973	8.52
375.335	8.47
375.698	8.46
376.06	8.4
376.423	8.33
376.785	8.28
377.147	8.26
377.51	8.16
377.872	8.2
378.234	8.15
378.596	8.15
378.958	8.06
379.321	8
379.683	7.93
380.045	7.94
380.407	7.93
380.769	7.88
381.13	7.74
381.492	7.61
381.854	7.53
382.216	7.46
382.578	7.44
382.939	7.36
383.301	7.25
383.663	7.19
384.024	7.16
384.386	7.17
384.747	7.09
385.109	7.05
385.47	6.93
385.832	6.88
386.193	6.84
386.554	6.78
386.916	6.71
387.277	6.7
387.638	6.69
387.999	6.66
388.36	6.63
388.721	6.61
389.082	6.61
389.443	6.56
389.804	6.57
390.165	6.49
390.526	6.51
390.887	6.46
391.248	6.48
391.609	6.46
391.969	6.38
392.33	6.35
392.691	6.32
393.051	6.31
393.412	6.26
393.772	6.2
394.133	6.2
394.493	6.18
394.854	6.11
395.214	6
395.574	5.92
395.935	5.87
396.295	5.84
396.655	5.77
397.015	5.73
397.376	5.7
397.736	5.69
398.096	5.64
398.456	5.63
398.816	5.55
399.176	5.48
399.535	5.43
399.895	5.4
400.255	5.39
400.615	5.38
400.975	5.35
401.334	5.35
401.694	5.3
402.054	5.28
402.413	5.26
402.773	5.25
403.132	5.21
403.492	5.22
403.851	5.19
404.211	5.17
404.57	5.16
404.929	5.12
405.288	5.08
405.648	5.05
406.007	4.99
406.366	4.98
406.725	4.99
407.084	5
407.443	4.96
407.802	4.95
408.161	4.9
408.52	4.88
408.879	4.81
409.238	4.8
409.596	4.76
409.955	4.74
410.314	4.74
410.673	4.74
411.031	4.72
411.39	4.71
411.748	4.7
412.107	4.7
412.465	4.68
412.824	4.68
413.182	4.67
413.54	4.67
413.899	4.65
414.257	4.6
414.615	4.57
414.974	4.55
415.332	4.51
415.69	4.49
416.048	4.47
416.406	4.46
416.764	4.42
417.122	4.43
417.48	4.41
417.838	4.39
418.195	4.36
418.553	4.35
418.911	4.33
419.269	4.3
419.626	4.28
419.984	4.26
420.342	4.24
420.699	4.21
421.057	4.21
421.414	4.17
421.772	4.17
422.129	4.15
422.486	4.13
422.844	4.11
423.201	4.08
423.558	4.06
423.915	4.07
424.273	4.07
424.63	4.03
424.987	4.01
425.344	4
425.701	3.99
426.058	3.97
426.415	3.94
426.772	3.94
427.128	3.93
427.485	3.91
427.842	3.88
428.199	3.88
428.555	3.87
428.912	3.87
429.269	3.87
429.625	3.87
429.982	3.86
430.338	3.84
430.695	3.85
431.051	3.86
431.407	3.84
431.764	3.82
432.12	3.82
432.476	3.82
432.832	3.81
433.189	3.82
433.545	3.8
433.901	3.79
434.257	3.78
434.613	3.8
434.969	3.78
435.325	3.79
435.681	3.77
436.036	3.76
436.392	3.75
436.748	3.73
437.104	3.71
437.459	3.71
437.815	3.74
438.171	3.75
438.526	3.75
438.882	3.73
439.237	3.74
439.593	3.76
439.948	3.76
440.304	3.75
440.659	3.75
441.014	3.75
441.369	3.74
441.725	3.74
442.08	3.74
442.435	3.74
442.79	3.73
443.145	3.74
443.5	3.73
443.855	3.73
444.21	3.71
444.565	3.71
444.92	3.72
445.275	3.7
445.629	3.68
445.984	3.68
446.339	3.7
446.693	3.68
447.048	3.66
447.403	3.66
447.757	3.64
448.112	3.63
448.466	3.62
448.82	3.62
449.175	3.61
449.529	3.6
449.883	3.59
450.238	3.58
450.592	3.57
450.946	3.56
451.3	3.55
451.654	3.55
452.008	3.55
452.362	3.5
452.716	3.49
453.07	3.48
453.424	3.48
453.778	3.44
454.132	3.42
454.486	3.42
454.839	3.42
455.193	3.43
455.547	3.42
455.9	3.42
456.254	3.42
456.607	3.41
456.961	3.42
457.314	3.43
457.668	3.43
458.021	3.42
458.375	3.41
458.728	3.4
459.081	3.4
459.434	3.41
459.787	3.44
460.141	3.43
460.494	3.46
460.847	3.46
461.2	3.47
461.553	3.49
461.906	3.5
462.259	3.51
462.611	3.51
462.964	3.53
463.317	3.54
463.67	3.55
464.022	3.59
464.375	3.57
464.728	3.57
465.08	3.57
465.433	3.6
465.785	3.62
466.138	3.66
466.49	3.67
466.843	3.68
467.195	3.69
467.547	3.72
467.899	3.71
468.252	3.73
468.604	3.74
468.956	3.75
469.308	3.75
469.66	3.74
470.012	3.76
470.364	3.78
470.716	3.79
471.068	3.8
471.42	3.79
471.772	3.81
472.123	3.83
472.475	3.84
472.827	3.86
473.178	3.89
473.53	3.87
473.882	3.91
474.233	3.92
474.585	3.89
474.936	3.89
475.288	3.89
475.639	3.9
475.99	3.91
476.342	3.92
476.693	3.92
477.044	3.94
477.395	3.94
477.746	3.91
478.097	3.91
478.448	3.91
478.8	3.91
479.15	3.91
479.501	3.91
479.852	3.91
480.203	3.89
480.554	3.87
480.905	3.87
481.255	3.86
481.606	3.85
481.957	3.85
482.307	3.84
482.658	3.82
483.009	3.81
483.359	3.8
483.709	3.79
484.06	3.79
484.41	3.79
484.761	3.78
485.111	3.78
485.461	3.78
485.811	3.77
486.162	3.76
486.512	3.75
486.862	3.74
487.212	3.73
487.562	3.74
487.912	3.72
488.262	3.72
488.612	3.71
488.961	3.71
489.311	3.72
489.661	3.72
490.011	3.73
490.36	3.74
490.71	3.74
491.06	3.74
491.409	3.75
491.759	3.75
492.108	3.75
492.458	3.77
492.807	3.78
493.157	3.79
493.506	3.8
493.855	3.84
494.204	3.84
494.554	3.88
494.903	3.89
495.252	3.94
495.601	3.96
495.95	4
496.299	4
496.648	4.02
496.997	4.04
497.346	4.09
497.695	4.12
498.043	4.15
498.392	4.18
498.741	4.22
499.09	4.25
499.438	4.31
499.787	4.35
500.135	4.41
500.484	4.48
500.832	4.54
501.181	4.58
501.529	4.64
501.878	4.67
502.226	4.74
502.574	4.79
502.923	4.85
503.271	4.91
503.619	5.01
503.967	5.09
504.315	5.16
504.663	5.22
505.011	5.31
505.359	5.4
505.707	5.49
506.055	5.57
506.403	5.67
506.751	5.74
507.098	5.81
507.446	5.89
507.794	5.94
508.141	6.02
508.489	6.11
508.837	6.21
509.184	6.31
509.531	6.41
509.879	6.51
510.226	6.63
510.574	6.72
510.921	6.82
511.268	6.9
511.616	7.02
511.963	7.14
512.31	7.24
512.657	7.34
513.004	7.47
513.351	7.58
513.698	7.69
514.045	7.79
514.392	7.92
514.739	8.05
515.086	8.21
515.432	8.33
515.779	8.44
516.126	8.55
516.473	8.67
516.819	8.79
517.166	8.91
517.512	9.02
517.859	9.13
518.205	9.25
518.552	9.37
518.898	9.46
519.245	9.57
519.591	9.67
519.937	9.78
520.283	9.86
520.629	10.03
520.976	10.17
521.322	10.33
521.668	10.49
522.014	10.64
522.36	10.8
522.706	10.99
523.052	11.16
523.398	11.36
523.743	11.54
524.089	11.73
524.435	11.92
524.781	12.09
525.126	12.27
525.472	12.41
525.817	12.54
526.163	12.68
526.509	12.82
526.854	12.93
527.199	13.04
527.545	13.16
527.89	13.27
528.235	13.37
528.581	13.48
528.926	13.59
529.271	13.72
529.616	13.85
529.961	13.95
530.306	14.09
530.651	14.22
530.996	14.37
531.341	14.52
531.686	14.68
532.031	14.83
532.376	14.98
532.721	15.16
533.065	15.35
533.41	15.53
533.755	15.72
534.099	15.94
534.444	16.15
534.788	16.36
535.133	16.53
535.477	16.76
535.822	16.99
536.166	17.24
536.51	17.46
536.855	17.72
537.199	18
537.543	18.29
537.887	18.57
538.231	18.86
538.576	19.13
538.92	19.38
539.264	19.65
539.608	19.9
539.951	20.13
540.295	20.35
540.639	20.57
540.983	20.77
541.327	20.99
541.671	21.2
542.014	21.4
542.358	21.64
542.701	21.85
543.045	22.06
543.389	22.28
543.732	22.5
544.075	22.71
544.419	22.98
544.762	23.19
545.105	23.43
545.449	23.65
545.792	23.93
546.135	24.21
546.478	24.49
546.821	24.8
547.165	25.1
547.508	25.42
547.851	25.74
548.194	26.06
548.536	26.38
548.879	26.67
549.222	27.02
549.565	27.32
549.908	27.62
550.25	27.92
550.593	28.21
550.936	28.52
551.278	28.81
551.621	29.06
551.963	29.38
552.306	29.67
552.648	30.05
552.991	30.31
553.333	30.64
553.675	30.97
554.017	31.25
554.36	31.53
554.702	31.82
555.044	32.1
555.386	32.35
555.728	32.65
556.07	32.99
556.412	33.28
556.754	33.54
557.096	33.81
557.438	34.13
557.78	34.49
558.121	34.76
558.463	35.04
558.805	35.31
559.147	35.57
559.488	35.84
559.83	36.03
560.171	36.33
560.513	36.53
560.854	36.75
561.196	36.96
561.537	37.23
561.878	37.43
562.22	37.64
562.561	37.86
562.902	38.03
563.243	38.19
563.584	38.38
563.925	38.59
564.266	38.77
564.607	38.97
564.948	39.1
565.289	39.33
565.63	39.52
565.971	39.71
566.312	39.92
566.653	40.1
566.993	40.25
567.334	40.43
567.675	40.61
568.015	40.79
568.356	41
568.696	41.2
569.037	41.35
569.377	41.57
569.718	41.73
570.058	41.89
570.398	42.08
570.739	42.23
571.079	42.38
571.419	42.55
571.759	42.67
572.099	42.8
572.439	42.93
572.779	43.08
573.119	43.21
573.459	43.35
573.799	43.51
574.139	43.64
574.479	43.74
574.819	43.9
575.158	43.98
575.498	44.08
575.838	44.16
576.177	44.31
576.517	44.41
576.856	44.57
577.196	44.73
577.535	44.84
577.875	45
578.214	45.12
578.553	45.25
578.893	45.4
579.232	45.56
579.571	45.72
579.91	45.83
580.25	45.98
580.589	46.05
580.928	46.18
581.267	46.34
581.606	46.51
581.945	46.67
582.283	46.87
582.622	47.01
582.961	47.19
583.3	47.33
583.639	47.43
583.977	47.51
584.316	47.62
584.654	47.64
584.993	47.72
585.332	47.85
585.67	47.96
586.008	48.04
586.347	48.16
586.685	48.2
587.024	48.27
587.362	48.38
587.7	48.54
588.038	48.6
588.376	48.67
588.715	48.74
589.053	48.72
589.391	48.81
589.729	48.87
590.067	48.91
590.404	48.97
590.742	49.03
591.08	49.12
591.418	49.14
591.756	49.23
592.093	49.42
592.431	49.49
592.769	49.52
593.106	49.52
593.444	49.56
593.781	49.66
594.119	49.81
594.456	49.82
594.793	49.85
595.131	49.85
595.468	49.87
595.805	49.96
596.143	50.04
596.48	50.05
596.817	50.08
597.154	50.13
597.491	50.16
597.828	50.23
598.165	50.28
598.502	50.35
598.839	50.53
599.176	50.45
599.512	50.44
599.849	50.55
600.186	50.76
600.523	50.91
600.859	50.91
601.196	50.84
601.532	50.96
601.869	50.97
602.205	51.08
602.542	51.17
602.878	51.17
603.215	51.17
603.551	51.21
603.887	51.26
604.223	51.27
604.56	51.29
604.896	51.3
605.232	51.33
605.568	51.36
605.904	51.36
606.24	51.51
606.576	51.62
606.912	51.58
607.248	51.56
607.583	51.49
607.919	51.58
608.255	51.65
608.591	51.69
608.926	51.76
609.262	51.8
609.597	51.88
609.933	51.93
610.268	52
610.604	52.04
610.939	52.08
611.275	52.15
611.61	52.25
611.945	52.3
612.281	52.38
612.616	52.45
612.951	52.54
613.286	52.55
613.621	52.6
613.956	52.71
614.291	52.75
614.626	52.88
614.961	52.92
615.296	53.02
615.631	53.1
615.966	53.21
616.3	53.26
616.635	53.25
616.97	53.29
617.304	53.36
617.639	53.49
617.973	53.59
618.308	53.61
618.642	53.58
618.977	53.61
619.311	53.63
619.646	53.62
619.98	53.55
620.314	53.53
620.648	53.52
620.983	53.58
621.317	53.59
621.651	53.53
621.985	53.53
622.319	53.5
622.653	53.44
622.987	53.46
623.321	53.45
623.655	53.43
623.988	53.42
624.322	53.38
624.656	53.3
624.99	53.33
625.323	53.4
625.657	53.38
625.99	53.39
626.324	53.38
626.657	53.43
626.991	53.5
627.324	53.54
627.658	53.59
627.991	53.65
628.324	53.7
628.657	53.69
628.991	53.71
629.324	53.74
629.657	53.75
629.99	53.71
630.323	53.78
630.656	53.99
630.989	53.98
631.322	54.05
631.655	54.07
631.987	54.05
632.32	54.04
632.653	54.17
632.986	54.22
633.318	54.27
633.651	54.17
633.984	54.16
634.316	54.24
634.649	54.28
634.981	54.27
635.313	54.28
635.646	54.38
635.978	54.41
636.31	54.41
636.643	54.45
636.975	54.56
637.307	54.48
637.639	54.31
637.971	54.41
638.303	54.33
638.635	54.46
638.967	54.53
639.299	54.59
639.631	54.6
639.963	54.63
640.295	54.66
640.626	54.85
640.958	54.83
641.29	54.74
641.621	54.68
641.953	54.64
642.285	54.65
642.616	54.67
642.948	54.73
643.279	54.81
643.61	54.83
643.942	54.83
644.273	54.85
644.604	54.99
644.936	54.89
645.267	54.94
645.598	54.87
645.929	54.77
646.26	54.76
646.591	54.76
646.922	54.67
647.253	54.68
647.584	54.58
647.915	54.67
648.245	54.72
648.576	54.85
648.907	54.89
649.238	54.84
649.568	54.89
649.899	54.84
650.229	54.9
650.56	55.02
650.89	54.95
651.221	55.1
651.551	55.14
651.882	55.27
652.212	55.32
652.542	55.34
652.872	55.34
653.203	55.31
653.533	55.39
653.863	55.51
654.193	55.46
654.523	55.53
654.853	55.55
655.183	55.62
655.513	55.63
655.843	55.64
656.172	55.73
656.502	55.57
656.832	55.62
657.162	55.62
657.491	55.59
657.821	55.67
658.15	55.58
658.48	55.47
658.809	55.41
659.139	55.47
659.468	55.49
659.798	55.63
660.127	55.61
660.456	55.61
660.785	55.57
661.115	55.66
661.444	55.67
661.773	55.69
662.102	55.64
662.431	55.54
662.76	55.72
663.089	55.71
663.418	55.89
663.747	55.9
664.076	55.81
664.404	55.71
664.733	55.64
665.062	55.63
665.39	55.75
665.719	55.69
666.048	55.68
666.376	55.67
666.705	55.53
667.033	55.54
667.362	55.42
667.69	55.31
668.018	55.17
668.347	55.23
668.675	55.12
669.003	55.08
669.331	55.11
669.659	54.91
669.987	54.92
670.315	54.8
670.643	54.77
670.971	54.8
671.299	54.87
671.627	54.95
671.955	55.02
672.283	55.01
672.61	54.98
672.938	55
673.266	54.93
673.593	55.12
673.921	55.08
674.249	55.17
674.576	55.18
674.904	55.28
675.231	55.32
675.558	55.29
675.886	55.35
676.213	55.3
676.54	55.44
676.867	55.45
677.195	55.57
677.522	55.55
677.849	55.67
678.176	55.62
678.503	55.53
678.83	55.53
679.157	55.48
679.484	55.49
679.81	55.52
680.137	55.68
680.464	55.61
680.791	55.7
681.117	55.75
681.444	55.96
681.771	56.02
682.097	55.94
682.424	56.13
682.75	56.16
683.077	56.25
683.403	56.17
683.729	56.22
684.056	56.13
684.382	56.11
684.708	55.97
685.034	55.93
685.36	55.91
685.686	55.88
686.012	55.81
686.339	55.85
686.664	55.75
686.99	55.71
687.316	55.79
687.642	55.66
687.968	55.6
688.294	55.56
688.619	55.48
688.945	55.59
689.271	55.47
689.596	55.53
689.922	55.49
690.247	55.48
690.573	55.46
690.898	55.53
691.224	55.7
691.549	55.79
691.874	55.9
692.2	56.04
692.525	56.19
692.85	56.23
693.175	56.33
693.5	56.32
693.825	56.23
694.15	56.01
694.475	56.15
694.8	56.28
695.125	56.19
695.45	56.23
695.775	56.25
696.099	56.29
696.424	56.11
696.749	56.22
697.073	56.2
697.398	56.19
697.723	56.25
698.047	56.24
698.372	56.21
698.696	56.09
699.02	56.16
699.345	56.14
699.669	56.3
699.993	56.42
700.318	56.53
700.642	56.58
700.966	56.51
701.29	56.43
701.614	56.42
701.938	56.52
702.262	56.62
702.586	56.49
702.91	56.43
703.234	56.66
703.557	56.65
703.881	56.55
704.205	56.56
704.529	56.47
704.852	56.26
705.176	56.36
705.499	56.47
705.823	56.22
706.146	56.12
706.47	55.98
706.793	55.88
707.117	55.93
707.44	55.81
707.763	55.94
708.086	56.03
708.409	55.93
708.733	55.99
709.056	55.7
709.379	55.72
709.702	55.83
710.025	55.7
710.348	55.63
710.671	55.74
710.993	55.8
711.316	55.8
711.639	56.03
711.962	55.91
712.284	56.04
712.607	56.03
712.93	56
713.252	56.06
713.575	55.98
713.897	55.99
714.22	56.03
714.542	56.09
714.864	55.98
715.187	55.94
715.509	55.79
715.831	55.86
716.153	55.83
716.475	55.81
716.798	55.9
717.12	55.9
717.442	55.94
717.764	55.73
718.085	55.65
718.407	55.49
718.729	55.55
719.051	55.39
719.373	55.36
719.695	55.32
720.016	55.3
720.338	55.24
720.659	55.07
720.981	55.18
721.302	55.25
721.624	55.67
721.945	55.85
722.267	55.95
722.588	56.07
722.909	56.06
723.231	55.84
723.552	55.72
723.873	55.86
724.194	55.87
724.515	56.14
724.836	56.23
725.157	56.36
725.478	56.31
725.799	56.24
726.12	56.28
726.441	56.37
726.762	56.27
727.083	56.41
727.403	56.48
727.724	56.47
728.045	56.46
728.365	56.23
728.686	56.04
729.006	56.12
729.327	56.25
729.647	56.34
729.967	56.43
730.288	56.52
730.608	56.4
730.928	56.52
731.249	56.53
731.569	56.62
731.889	56.59
732.209	56.5
732.529	56.64
732.849	56.78
733.169	56.71
733.489	56.76
733.809	56.78
734.129	56.92
734.448	56.91
734.768	56.88
735.088	56.82
735.408	56.98
735.727	56.8
736.047	56.88
736.366	56.83
736.686	56.89
737.005	57.09
737.325	57
737.644	56.9
737.963	56.76
738.283	56.68
738.602	56.66
738.921	56.75
739.24	56.63
739.56	56.53
739.879	56.6
740.198	56.75
740.517	56.61
740.836	56.3
741.155	56.26
741.473	56.13
741.792	56.19
742.111	55.97
742.43	56
742.748	55.82
743.067	55.71
743.386	55.72
743.704	55.5
744.023	55.37
744.341	55.07
744.66	55.02
744.978	54.94
745.297	55.08
745.615	55.48
745.933	55.58
746.252	55.77
746.57	55.84
746.888	55.81
747.206	55.62
747.524	55.93
747.842	55.91
748.16	55.93
748.478	55.97
748.796	56.14
749.114	56.42
749.432	56.21
749.749	56.21
750.067	56.15
750.385	56.45
750.703	56.63
751.02	56.95
751.338	57.03
751.655	57.36
751.973	57.57
752.29	57.15
752.608	56.95
752.925	56.87
753.242	56.85
753.56	56.87
753.877	56.99
754.194	57.05
754.511	57.16
754.828	57.26
755.145	57.33
755.462	57.17
755.779	56.87
756.096	56.89
756.413	56.91
756.73	56.95
757.047	56.74
757.364	56.72
757.68	56.6
757.997	56.41
758.314	56.13
758.63	55.93
758.947	56.27
759.264	56.54
759.58	56.4
759.896	56.28
760.213	56.19
760.529	56.63
760.846	56.26
761.162	56.12
761.478	56.18
761.794	56.07
762.11	56.16
762.426	56.04
762.743	56.21
763.059	56.36
763.375	56.57
763.69	56.55
764.006	56.49
764.322	56.6
764.638	56.86
764.954	56.93
765.27	56.84
765.585	56.65
765.901	56.62
766.216	56.86
766.532	56.88
766.848	57.02
767.163	56.79
767.478	56.88
767.794	56.85
768.109	56.64
768.424	56.77
768.74	56.79
769.055	57.27
769.37	57.36
769.685	56.9
770	56.67
770.315	56.8
770.63	56.96
770.945	56.93
771.26	56.61
771.575	56.71
771.89	56.77
772.205	56.86
772.52	57.12
772.834	56.87
773.149	57.22
773.464	57.35
773.778	57.57
774.093	57.86
774.407	58.25
774.722	58.31
775.036	58.25
775.351	58.66
775.665	58.03
775.979	58.02
776.293	58.7
776.608	58.32
776.922	57.94
777.236	58.16
777.55	58.14
777.864	58.2
778.178	58.68
778.492	58.47
778.806	57.93
779.12	57.54
779.434	57.55
779.747	57.25
780.061	56.91
780.375	56.27
780.689	55.99
781.002	55.73
781.316	56.39
781.629	56.46
781.943	56
782.256	56.39
782.57	56.34
782.883	56.04
783.196	56.78
783.51	56.83
783.823	56.63
784.136	56.7
784.449	56.91
784.762	56.16
785.075	56.42
785.388	56.83
785.701	56.76
786.014	56.52
786.327	56.93
786.64	57.07
786.953	57.62
787.266	57.74
787.578	57.8
787.891	57.84
788.204	57.88
788.516	58.21
788.829	57.89
789.141	58.1
789.454	58.55
789.766	58.24
790.079	58.06
790.391	57.94
790.703	58.25
791.016	57.97
791.328	57.97
791.64	57.6
791.952	57.94
792.264	58.36
792.576	58.32
792.888	57.95
793.2	57.85
793.512	57.97
793.824	57.85
794.136	57.76
794.448	57.03
794.76	56.47
795.071	56.04
795.383	56.13
795.695	56.14
796.006	56.25
796.318	56.78
796.629	57.3
796.941	57.34
797.252	56.71
797.564	57.09
797.875	57.06
798.186	57.11
798.497	56.85
798.809	56.39
799.12	56.45
799.431	56.32
799.742	56.67
800.053	56.79
800.364	56.98
800.675	57.23
800.986	57.73
801.297	57.83
801.608	58.18
801.918	58.25
802.229	57.89
802.54	57.85
802.851	57.18
803.161	57.06
803.472	57.18
803.782	57.51
804.093	57.46
804.403	57.99
804.714	58.15
805.024	58.13
805.334	57.95
805.645	58.39
805.955	58.6
806.265	58.25
806.575	57.76
806.885	58.05
807.195	57.87
807.505	58.17
807.815	58.49
808.125	58.32
808.435	58.25
808.745	57.77
809.055	57.44
809.365	57.4
809.674	57.84
809.984	57.43
810.294	58.29
810.603	58.62
810.913	58.69
811.222	59
811.532	59.46
811.841	60.14
812.151	59.94
812.46	59.92
812.769	59.94
813.079	59.1
813.388	58.97
813.697	58.51
814.006	58.38
814.315	57.79
814.624	57.31
814.933	57.84
815.242	58.28
815.551	58.85
815.86	59.11
816.169	58.97
816.478	59.47
816.786	58.62
817.095	58.27
817.404	57.82
817.712	57.65
818.021	56.84
818.33	56.85
818.638	56.67
818.947	56.83
819.255	56.77
819.563	57.31
819.872	56.95
820.18	57.11
820.488	57.02
820.796	57.12
821.105	57.27
821.413	57.12
821.721	57.15
822.029	56.78
822.337	56.73
822.645	56.82
822.953	56.71
823.26	56.8
823.568	56.89
823.876	56.88
824.184	56.87
824.491	57.01
824.799	56.91
825.107	57.17
825.414	57.11
825.722	57.17
826.029	57.16
826.337	57.26
826.644	57.44
826.951	57.14
827.259	57.28
827.566	57.3
827.873	57.54
828.18	57.81
828.488	58.13
828.795	58.33
829.102	58.14
829.409	58.2
829.716	58.19
830.023	58.18
830.329	58.3
830.636	58.42
830.943	58.5
831.25	58.51
831.557	58.48
831.863	58.7
832.17	58.67
832.476	58.38
832.783	58.15
833.089	57.23
833.396	57.6
833.702	57.3
834.009	57.33
834.315	57.25
834.621	56.69
834.928	56.42
835.234	56.49
835.54	56.05
835.846	56.34
836.152	56.55
836.458	56.5
836.764	56.47
837.07	56.55
837.376	56.7
837.682	56.97
837.988	56.8
838.293	56.64
838.599	56.46
838.905	56.82
839.211	57.53
839.516	58.54
839.822	59.7
840.127	60.43
840.433	60.91
840.738	60.65
841.044	61.09
841.349	62.61
841.654	62.15
841.959	63.7
842.265	63.88
842.57	63.25
842.875	63.27
843.18	64.43
843.485	64.16
843.79	63.02
844.095	63.28
844.4	63.06
844.705	62.76
845.01	63.19
845.315	63.79
845.619	63.33
845.924	62.22
846.229	61.44
846.533	61.93
846.838	61.67
847.142	62.44
847.447	61.9
847.751	61.22
848.056	60.03
848.36	61.31
848.664	62.8
848.969	62.95
849.273	62.15
849.577	59.58
849.881	61.16
850.185	63.62
850.489	63.8
850.794	65.52
851.097	66.69
851.401	67.67
851.705	67.44
852.009	66.55
852.313	69.03
852.617	68.16
852.92	68.33
853.224	68.36
853.528	67.94
853.831	69.07
854.135	67.99
854.438	71.68
854.742	70.02
855.045	67.85
855.349	68.62
855.652	70.75
855.955	71.71
856.259	69.57
856.562	69.58
856.865	69.63
857.168	64.89
857.471	64.23
857.774	63.77
858.077	63.81
858.38	64.53
858.683	65.02
858.986	65.25
859.289	65.88
859.592	67.15
859.894	65.26
860.197	65.29
860.5	65.32
860.802	62.23
861.105	61.84
861.407	63.48
861.71	62.69
862.012	62.64
862.315	62.33
862.617	62.91
862.919	60.44
863.222	60.86
863.524	63.49
863.826	62.65
864.128	63.85
864.43	63.41
864.732	62.76
865.034	62.6
865.336	62.86
865.638	60.17
865.94	61.23
866.242	61.91
866.544	63.97
866.846	63.22
867.147	64.99
867.449	66.28
867.751	67.21
868.052	69.87
868.354	68.82
868.655	69.48
868.957	70.19
869.258	71.64
869.56	71.57
869.861	70.26
870.162	71.36
870.463	72.26
870.765	72.84
871.066	73.71
871.367	74.2
871.668	73.41
871.969	75.52
872.27	71.61
872.571	73.05
872.872	69.28
873.173	67.62
873.473	68.24
873.774	68.86
874.075	68.44
874.376	65.71
874.676	66.54
874.977	65.86
875.277	63.55
875.578	65.69
875.878	65.05
876.179	66.3
876.479	66.05
876.78	63.67
877.08	63.84
877.38	64.09
877.68	62.12
877.981	63.67
878.281	62.81
878.581	64.44
