Data from BA28416_Reflection_00012.txt Node
Date: Mon Nov 18 16:05:37 EST 2019
User: vgr7
Spectrometer: USB2G7710
Scans to average: 3
Trigger mode: 4
Integration Time (sec): 2.000000E-2
Electric dark correction enabled: true
Boxcar width: 10
XAxis mode: Wavelengths
Number of Pixels in Spectrum: 2048
>>>>>Begin Spectral Data<<<<<
177.721	-22.55
178.105	-3.45
178.488	162.02
178.871	1858.62
179.254	-619.01
179.636	-59.57
180.019	-2211.48
180.402	77.78
180.785	-1.21
181.168	19.79
181.55	39.43
181.933	75.31
182.316	75.25
182.698	90.98
183.081	97.35
183.463	116.87
183.846	88.55
184.228	78.78
184.611	59.9
184.993	47.31
185.376	43.63
185.758	41.63
186.14	46.6
186.522	75.54
186.904	70.68
187.287	88.07
187.669	77.53
188.051	84.08
188.433	54.45
188.815	73.41
189.197	66.15
189.579	59.41
189.961	92.85
190.342	90.64
190.724	112.39
191.106	178.11
191.488	293.29
191.869	521.37
192.251	327.24
192.633	257.89
193.014	319.02
193.396	319.24
193.777	317.12
194.159	586.39
194.54	718.51
194.922	-684.14
195.303	-1508.15
195.684	-1304.43
196.065	-548.17
196.447	-713.37
196.828	-393.67
197.209	-276.21
197.59	-304.15
197.971	-371.29
198.352	-296.99
198.733	-345.58
199.114	-254.31
199.495	-199.09
199.876	-163.37
200.257	-102.74
200.638	-99.5
201.018	-126.36
201.399	-124.97
201.78	-113.22
202.16	-135.4
202.541	-136.01
202.922	-328.57
203.302	-257.8
203.683	-918.22
204.063	-1113.17
204.444	-552.17
204.824	-782.35
205.204	-1393.62
205.585	-508.78
205.965	-520.17
206.345	-424.89
206.725	-5300
207.106	816.94
207.486	342.07
207.866	329.39
208.246	218.03
208.626	201.67
209.006	281.28
209.386	373.73
209.766	439.31
210.145	313.35
210.525	212.28
210.905	185.98
211.285	193.19
211.664	319.98
212.044	269.81
212.424	153.61
212.803	133.17
213.183	101.1
213.562	94.88
213.942	98.5
214.321	136.04
214.701	143.73
215.08	79.09
215.459	58.49
215.838	52.78
216.218	230.43
216.597	-65.19
216.976	-169.35
217.355	-1871.43
217.734	-291.3
218.113	811.34
218.492	372.73
218.871	123.15
219.25	109.67
219.629	104.38
220.008	95.33
220.387	10.03
220.766	-17.45
221.144	-60.44
221.523	-89.23
221.902	-184.83
222.28	3666.04
222.659	-289.4
223.037	-149.79
223.416	-187.21
223.794	-175.38
224.173	-175.64
224.551	-98.94
224.929	-96.88
225.308	-75.36
225.686	-71.21
226.064	-53.99
226.442	-46.6
226.821	-35.04
227.199	-36.7
227.577	-30.4
227.955	-29.37
228.333	-28.17
228.711	-19.73
229.089	-14.64
229.467	-11.02
229.845	-9.81
230.222	-7.3
230.6	-8.11
230.978	-8.25
231.356	-4.72
231.733	-2.51
232.111	-0.52
232.488	-0.42
232.866	-1.03
233.243	0.81
233.621	3.15
233.998	3.46
234.376	3.44
234.753	3.05
235.13	6.36
235.508	4.57
235.885	5.32
236.262	4.89
236.639	3.1
237.016	2.02
237.393	2.86
237.77	3.46
238.147	3.67
238.524	4.03
238.901	4.16
239.278	3.46
239.655	3.19
240.032	2.78
240.409	2.06
240.785	2.39
241.162	2.4
241.539	2.87
241.915	2.31
242.292	2.19
242.668	2.28
243.045	2.73
243.421	2.62
243.798	2.54
244.174	2.69
244.551	3.04
244.927	3.22
245.303	3.05
245.679	3.1
246.056	3.03
246.432	2.95
246.808	3.06
247.184	2.93
247.56	2.85
247.936	2.7
248.312	2.85
248.688	2.92
249.064	3.02
249.44	2.69
249.815	2.85
250.191	3.02
250.567	3.19
250.943	2.83
251.318	2.87
251.694	2.94
252.069	3
252.445	2.99
252.82	3.05
253.196	2.99
253.571	2.85
253.947	2.92
254.322	2.97
254.697	2.68
255.073	2.83
255.448	2.64
255.823	2.82
256.198	3.1
256.573	3.27
256.948	3.25
257.323	3.42
257.698	3.4
258.073	3.37
258.448	3.21
258.823	3.36
259.198	3.4
259.573	3.47
259.948	3.32
260.322	3.24
260.697	3.03
261.072	3.12
261.446	3.13
261.821	3.01
262.195	3.1
262.57	3.25
262.944	3.24
263.319	3.34
263.693	3.33
264.067	3.17
264.442	2.99
264.816	2.99
265.19	3.02
265.564	2.9
265.938	2.7
266.313	2.75
266.687	2.59
267.061	2.77
267.435	2.77
267.809	3.09
268.183	3.06
268.556	3.25
268.93	3.22
269.304	3.19
269.678	3.22
270.051	3.1
270.425	2.98
270.799	3
271.172	3.04
271.546	3.06
271.919	3.01
272.293	3.13
272.666	3.12
273.04	3.07
273.413	3.09
273.787	3.35
274.16	3.26
274.533	3.42
274.906	3.25
275.279	3.2
275.653	3.09
276.026	3.02
276.399	2.93
276.772	2.93
277.145	2.86
277.518	3.02
277.891	2.92
278.263	2.85
278.636	2.81
279.009	2.75
279.382	2.71
279.755	2.62
280.127	2.71
280.5	2.74
280.872	2.68
281.245	2.65
281.617	2.65
281.99	2.8
282.362	2.8
282.735	2.78
283.107	2.74
283.479	2.83
283.852	2.99
284.224	2.86
284.596	2.81
284.968	2.96
285.34	2.95
285.713	3.01
286.085	3.16
286.457	3.25
286.829	3.31
287.201	3.41
287.572	3.47
287.944	3.25
288.316	3.2
288.688	3.25
289.06	3.37
289.431	3.27
289.803	3.27
290.175	3.2
290.546	3.31
290.918	3.39
291.289	3.35
291.661	3.34
292.032	3.47
292.403	3.58
292.775	3.51
293.146	3.31
293.517	3.31
293.889	3.33
294.26	3.36
294.631	3.36
295.002	3.32
295.373	3.36
295.744	3.43
296.115	3.47
296.486	3.35
296.857	3.32
297.228	3.51
297.599	3.39
297.97	3.54
298.34	3.53
298.711	3.52
299.082	3.5
299.452	3.51
299.823	3.68
300.194	3.69
300.564	3.67
300.935	3.96
301.305	4.09
301.676	4.05
302.046	4.01
302.416	4.09
302.787	4.16
303.157	4.3
303.527	4.42
303.897	4.41
304.267	4.67
304.637	4.65
305.008	4.51
305.378	4.77
305.748	4.66
306.117	4.67
306.487	4.69
306.857	4.75
307.227	4.82
307.597	4.65
307.967	4.5
308.336	4.55
308.706	4.38
309.076	4.39
309.445	4.39
309.815	4.31
310.184	4.27
310.554	4.3
310.923	4.14
311.293	4.14
311.662	4.27
312.031	4.13
312.401	4.21
312.77	4.27
313.139	4.21
313.508	4.16
313.877	4.17
314.246	4.08
314.616	4.05
314.985	4.03
315.353	4.1
315.722	4.3
316.091	4.36
316.46	4.4
316.829	4.4
317.198	4.63
317.567	4.64
317.935	4.6
318.304	4.53
318.672	4.67
319.041	4.76
319.41	4.67
319.778	4.8
320.147	4.81
320.515	4.74
320.883	4.62
321.252	4.72
321.62	4.79
321.988	5.12
322.357	5.06
322.725	4.92
323.093	4.98
323.461	4.92
323.829	5.03
324.197	5.09
324.565	5.07
324.933	4.94
325.301	5.03
325.669	5.07
326.037	5.18
326.405	5.21
326.772	5.3
327.14	5.42
327.508	5.43
327.875	5.45
328.243	5.53
328.61	5.59
328.978	5.75
329.346	5.86
329.713	5.62
330.08	5.62
330.448	5.59
330.815	5.56
331.182	5.63
331.55	5.62
331.917	5.64
332.284	5.7
332.651	5.63
333.018	5.74
333.385	5.8
333.752	5.73
334.119	5.87
334.486	5.73
334.853	5.74
335.22	5.73
335.587	5.81
335.954	5.81
336.32	5.87
336.687	5.86
337.054	5.72
337.42	5.75
337.787	5.85
338.153	5.92
338.52	5.89
338.886	5.71
339.253	5.67
339.619	5.7
339.986	5.64
340.352	5.75
340.718	5.64
341.084	5.62
341.451	5.65
341.817	5.57
342.183	5.55
342.549	5.45
342.915	5.46
343.281	5.4
343.647	5.29
344.013	5.24
344.379	5.08
344.745	5.18
345.11	5.29
345.476	5.32
345.842	5.42
346.208	5.46
346.573	5.61
346.939	5.61
347.304	5.53
347.67	5.63
348.035	5.6
348.401	5.72
348.766	5.8
349.132	5.88
349.497	5.82
349.862	5.9
350.228	5.97
350.593	5.96
350.958	5.97
351.323	6.08
351.688	6.15
352.053	6.34
352.418	6.33
352.783	6.3
353.148	6.17
353.513	6.1
353.878	6.14
354.243	6.17
354.608	6.15
354.972	6.2
355.337	6.17
355.702	6.19
356.066	6.18
356.431	6.04
356.795	6.03
357.16	6.04
357.524	5.94
357.889	5.88
358.253	5.94
358.618	5.91
358.982	5.82
359.346	5.73
359.71	5.66
360.075	5.59
360.439	5.59
360.803	5.61
361.167	5.56
361.531	5.51
361.895	5.4
362.259	5.35
362.623	5.32
362.987	5.28
363.351	5.25
363.714	5.23
364.078	5.27
364.442	5.19
364.806	5.13
365.169	5.15
365.533	5.11
365.896	5.01
366.26	5.02
366.623	5.06
366.987	5.1
367.35	5.03
367.714	5.1
368.077	5.08
368.44	5.11
368.803	5.11
369.167	5.08
369.53	5.15
369.893	5.24
370.256	5.2
370.619	5.18
370.982	5.05
371.345	4.97
371.708	4.97
372.071	4.99
372.434	4.98
372.797	4.97
373.159	4.93
373.522	4.91
373.885	4.85
374.247	4.78
374.61	4.74
374.973	4.71
375.335	4.64
375.698	4.58
376.06	4.49
376.423	4.5
376.785	4.47
377.147	4.44
377.51	4.36
377.872	4.37
378.234	4.37
378.596	4.43
378.958	4.38
379.321	4.38
379.683	4.38
380.045	4.37
380.407	4.32
380.769	4.35
381.13	4.31
381.492	4.28
381.854	4.28
382.216	4.22
382.578	4.22
382.939	4.22
383.301	4.16
383.663	4.17
384.024	4.17
384.386	4.21
384.747	4.19
385.109	4.16
385.47	4.11
385.832	4.1
386.193	4.1
386.554	4.13
386.916	4.08
387.277	4.05
387.638	4.07
387.999	4.05
388.36	4.02
388.721	4.02
389.082	4.04
389.443	3.98
389.804	3.98
390.165	3.98
390.526	3.96
390.887	3.95
391.248	3.94
391.609	3.91
391.969	3.88
392.33	3.85
392.691	3.84
393.051	3.83
393.412	3.8
393.772	3.75
394.133	3.73
394.493	3.68
394.854	3.63
395.214	3.57
395.574	3.56
395.935	3.55
396.295	3.54
396.655	3.5
397.015	3.47
397.376	3.45
397.736	3.39
398.096	3.35
398.456	3.38
398.816	3.38
399.176	3.34
399.535	3.31
399.895	3.27
400.255	3.24
400.615	3.26
400.975	3.22
401.334	3.21
401.694	3.2
402.054	3.21
402.413	3.23
402.773	3.23
403.132	3.21
403.492	3.21
403.851	3.19
404.211	3.21
404.57	3.26
404.929	3.27
405.288	3.28
405.648	3.26
406.007	3.21
406.366	3.2
406.725	3.23
407.084	3.22
407.443	3.21
407.802	3.21
408.161	3.2
408.52	3.18
408.879	3.16
409.238	3.13
409.596	3.12
409.955	3.09
410.314	3.07
410.673	3.1
411.031	3.08
411.39	3.05
411.748	3.05
412.107	3.01
412.465	3
412.824	2.98
413.182	2.99
413.54	3
413.899	2.97
414.257	2.94
414.615	2.93
414.974	2.95
415.332	2.91
415.69	2.89
416.048	2.89
416.406	2.91
416.764	2.9
417.122	2.9
417.48	2.88
417.838	2.88
418.195	2.85
418.553	2.84
418.911	2.81
419.269	2.8
419.626	2.79
419.984	2.79
420.342	2.79
420.699	2.78
421.057	2.76
421.414	2.75
421.772	2.74
422.129	2.73
422.486	2.72
422.844	2.72
423.201	2.72
423.558	2.71
423.915	2.69
424.273	2.69
424.63	2.68
424.987	2.69
425.344	2.69
425.701	2.69
426.058	2.68
426.415	2.7
426.772	2.7
427.128	2.7
427.485	2.68
427.842	2.68
428.199	2.68
428.555	2.71
428.912	2.72
429.269	2.73
429.625	2.73
429.982	2.73
430.338	2.73
430.695	2.72
431.051	2.72
431.407	2.72
431.764	2.7
432.12	2.69
432.476	2.68
432.832	2.68
433.189	2.67
433.545	2.67
433.901	2.67
434.257	2.68
434.613	2.69
434.969	2.67
435.325	2.67
435.681	2.67
436.036	2.68
436.392	2.68
436.748	2.66
437.104	2.67
437.459	2.65
437.815	2.66
438.171	2.66
438.526	2.68
438.882	2.68
439.237	2.68
439.593	2.68
439.948	2.67
440.304	2.67
440.659	2.68
441.014	2.7
441.369	2.68
441.725	2.66
442.08	2.66
442.435	2.68
442.79	2.68
443.145	2.67
443.5	2.67
443.855	2.65
444.21	2.64
444.565	2.63
444.92	2.64
445.275	2.62
445.629	2.62
445.984	2.61
446.339	2.6
446.693	2.61
447.048	2.6
447.403	2.61
447.757	2.6
448.112	2.58
448.466	2.57
448.82	2.58
449.175	2.59
449.529	2.57
449.883	2.55
450.238	2.53
450.592	2.53
450.946	2.51
451.3	2.52
451.654	2.51
452.008	2.51
452.362	2.51
452.716	2.52
453.07	2.54
453.424	2.54
453.778	2.54
454.132	2.53
454.486	2.54
454.839	2.51
455.193	2.52
455.547	2.53
455.9	2.53
456.254	2.53
456.607	2.53
456.961	2.54
457.314	2.53
457.668	2.52
458.021	2.52
458.375	2.51
458.728	2.5
459.081	2.51
459.434	2.49
459.787	2.49
460.141	2.48
460.494	2.47
460.847	2.48
461.2	2.46
461.553	2.48
461.906	2.48
462.259	2.5
462.611	2.5
462.964	2.5
463.317	2.51
463.67	2.5
464.022	2.51
464.375	2.51
464.728	2.54
465.08	2.55
465.433	2.56
465.785	2.58
466.138	2.59
466.49	2.59
466.843	2.61
467.195	2.61
467.547	2.6
467.899	2.59
468.252	2.61
468.604	2.65
468.956	2.63
469.308	2.64
469.66	2.64
470.012	2.65
470.364	2.66
470.716	2.67
471.068	2.69
471.42	2.65
471.772	2.66
472.123	2.64
472.475	2.66
472.827	2.67
473.178	2.68
473.53	2.7
473.882	2.71
474.233	2.7
474.585	2.71
474.936	2.73
475.288	2.74
475.639	2.71
475.99	2.7
476.342	2.72
476.693	2.72
477.044	2.72
477.395	2.71
477.746	2.71
478.097	2.7
478.448	2.67
478.8	2.68
479.15	2.67
479.501	2.68
479.852	2.67
480.203	2.66
480.554	2.66
480.905	2.65
481.255	2.66
481.606	2.67
481.957	2.68
482.307	2.68
482.658	2.68
483.009	2.68
483.359	2.68
483.709	2.68
484.06	2.68
484.41	2.69
484.761	2.7
485.111	2.69
485.461	2.69
485.811	2.71
486.162	2.71
486.512	2.72
486.862	2.72
487.212	2.72
487.562	2.73
487.912	2.73
488.262	2.74
488.612	2.74
488.961	2.74
489.311	2.74
489.661	2.74
490.011	2.74
490.36	2.74
490.71	2.76
491.06	2.75
491.409	2.75
491.759	2.74
492.108	2.74
492.458	2.75
492.807	2.75
493.157	2.75
493.506	2.76
493.855	2.76
494.204	2.77
494.554	2.8
494.903	2.8
495.252	2.8
495.601	2.8
495.95	2.82
496.299	2.83
496.648	2.85
496.997	2.85
497.346	2.89
497.695	2.91
498.043	2.9
498.392	2.92
498.741	2.93
499.09	2.96
499.438	2.97
499.787	3
500.135	3.03
500.484	3.06
500.832	3.08
501.181	3.11
501.529	3.15
501.878	3.17
502.226	3.21
502.574	3.26
502.923	3.31
503.271	3.36
503.619	3.4
503.967	3.44
504.315	3.48
504.663	3.49
505.011	3.57
505.359	3.63
505.707	3.7
506.055	3.75
506.403	3.81
506.751	3.88
507.098	3.94
507.446	4.01
507.794	4.06
508.141	4.12
508.489	4.17
508.837	4.21
509.184	4.27
509.531	4.32
509.879	4.39
510.226	4.46
510.574	4.52
510.921	4.58
511.268	4.66
511.616	4.75
511.963	4.84
512.31	4.89
512.657	4.98
513.004	5.05
513.351	5.15
513.698	5.22
514.045	5.29
514.392	5.37
514.739	5.46
515.086	5.56
515.432	5.67
515.779	5.76
516.126	5.88
516.473	5.98
516.819	6.08
517.166	6.17
517.512	6.26
517.859	6.34
518.205	6.41
518.552	6.51
518.898	6.57
519.245	6.66
519.591	6.76
519.937	6.84
520.283	6.95
520.629	7.04
520.976	7.17
521.322	7.3
521.668	7.43
522.014	7.56
522.36	7.72
522.706	7.87
523.052	8.05
523.398	8.23
523.743	8.4
524.089	8.61
524.435	8.78
524.781	8.96
525.126	9.13
525.472	9.28
525.817	9.42
526.163	9.58
526.509	9.72
526.854	9.85
527.199	9.98
527.545	10.1
527.89	10.24
528.235	10.38
528.581	10.52
528.926	10.65
529.271	10.78
529.616	10.91
529.961	11.05
530.306	11.19
530.651	11.33
530.996	11.49
531.341	11.67
531.686	11.85
532.031	12.03
532.376	12.23
532.721	12.44
533.065	12.63
533.41	12.84
533.755	13.04
534.099	13.26
534.444	13.47
534.788	13.7
535.133	13.92
535.477	14.15
535.822	14.37
536.166	14.61
536.51	14.9
536.855	15.2
537.199	15.47
537.543	15.78
537.887	16.1
538.231	16.4
538.576	16.69
538.92	16.96
539.264	17.25
539.608	17.52
539.951	17.78
540.295	18.04
540.639	18.3
540.983	18.55
541.327	18.81
541.671	19.05
542.014	19.27
542.358	19.49
542.701	19.71
543.045	19.92
543.389	20.17
543.732	20.4
544.075	20.63
544.419	20.92
544.762	21.15
545.105	21.41
545.449	21.67
545.792	21.95
546.135	22.28
546.478	22.56
546.821	22.86
547.165	23.17
547.508	23.48
547.851	23.81
548.194	24.15
548.536	24.48
548.879	24.81
549.222	25.17
549.565	25.47
549.908	25.8
550.25	26.15
550.593	26.49
550.936	26.8
551.278	27.14
551.621	27.46
551.963	27.81
552.306	28.14
552.648	28.5
552.991	28.84
553.333	29.16
553.675	29.49
554.017	29.81
554.36	30.17
554.702	30.47
555.044	30.72
555.386	30.99
555.728	31.28
556.07	31.57
556.412	31.82
556.754	32.19
557.096	32.52
557.438	32.82
557.78	33.14
558.121	33.46
558.463	33.77
558.805	34.04
559.147	34.35
559.488	34.64
559.83	34.92
560.171	35.17
560.513	35.41
560.854	35.69
561.196	35.92
561.537	36.17
561.878	36.41
562.22	36.67
562.561	36.92
562.902	37.15
563.243	37.39
563.584	37.69
563.925	37.92
564.266	38.1
564.607	38.33
564.948	38.53
565.289	38.75
565.63	38.94
565.971	39.17
566.312	39.37
566.653	39.59
566.993	39.76
567.334	39.96
567.675	40.18
568.015	40.41
568.356	40.63
568.696	40.82
569.037	41.08
569.377	41.26
569.718	41.47
570.058	41.61
570.398	41.82
570.739	42.02
571.079	42.2
571.419	42.42
571.759	42.63
572.099	42.82
572.439	42.96
572.779	43.13
573.119	43.28
573.459	43.45
573.799	43.61
574.139	43.8
574.479	44
574.819	44.17
575.158	44.33
575.498	44.51
575.838	44.67
576.177	44.81
576.517	44.99
576.856	45.23
577.196	45.47
577.535	45.63
577.875	45.79
578.214	45.93
578.553	46.09
578.893	46.24
579.232	46.47
579.571	46.7
579.91	46.94
580.25	47.17
580.589	47.32
580.928	47.42
581.267	47.6
581.606	47.72
581.945	47.86
582.283	47.99
582.622	48.16
582.961	48.31
583.3	48.46
583.639	48.63
583.977	48.69
584.316	48.77
584.654	48.92
584.993	49.05
585.332	49.18
585.67	49.37
586.008	49.48
586.347	49.56
586.685	49.7
587.024	49.77
587.362	49.89
587.7	49.98
588.038	50.15
588.376	50.28
588.715	50.37
589.053	50.53
589.391	50.69
589.729	50.78
590.067	50.9
590.404	51.02
590.742	51.17
591.08	51.27
591.418	51.48
591.756	51.6
592.093	51.73
592.431	51.91
592.769	51.95
593.106	51.98
593.444	52.08
593.781	52.15
594.119	52.33
594.456	52.43
594.793	52.54
595.131	52.62
595.468	52.65
595.805	52.71
596.143	52.8
596.48	52.81
596.817	52.92
597.154	53.01
597.491	53.11
597.828	53.12
598.165	53.2
598.502	53.21
598.839	53.29
599.176	53.34
599.512	53.4
599.849	53.56
600.186	53.7
600.523	53.73
600.859	53.81
601.196	53.84
601.532	53.93
601.869	54.06
602.205	54.13
602.542	54.29
602.878	54.34
603.215	54.4
603.551	54.43
603.887	54.51
604.223	54.53
604.56	54.57
604.896	54.61
605.232	54.73
605.568	54.77
605.904	54.83
606.24	54.98
606.576	55
606.912	55.05
607.248	55.14
607.583	55.25
607.919	55.36
608.255	55.37
608.591	55.41
608.926	55.41
609.262	55.5
609.597	55.51
609.933	55.6
610.268	55.58
610.604	55.67
610.939	55.69
611.275	55.75
611.61	55.91
611.945	56.07
612.281	56.14
612.616	56.25
612.951	56.31
613.286	56.29
613.621	56.38
613.956	56.42
614.291	56.49
614.626	56.59
614.961	56.59
615.296	56.68
615.631	56.74
615.966	56.86
616.3	56.85
616.635	56.85
616.97	56.91
617.304	57.01
617.639	57.11
617.973	57.18
618.308	57.2
618.642	57.08
618.977	57.02
619.311	57.04
619.646	57
619.98	57.07
620.314	57.11
620.648	57.16
620.983	57.27
621.317	57.28
621.651	57.3
621.985	57.43
622.319	57.42
622.653	57.49
622.987	57.55
623.321	57.76
623.655	57.84
623.988	57.93
624.322	57.99
624.656	58.06
624.99	58.06
625.323	58.11
625.657	58.19
625.99	58.27
626.324	58.22
626.657	58.24
626.991	58.23
627.324	58.33
627.658	58.34
627.991	58.28
628.324	58.33
628.657	58.48
628.991	58.47
629.324	58.59
629.657	58.58
629.99	58.6
630.323	58.51
630.656	58.53
630.989	58.55
631.322	58.58
631.655	58.52
631.987	58.57
632.32	58.66
632.653	58.67
632.986	58.7
633.318	58.81
633.651	58.81
633.984	58.86
634.316	58.83
634.649	58.96
634.981	59.02
635.313	58.99
635.646	58.9
635.978	58.91
636.31	58.91
636.643	58.88
636.975	58.85
637.307	58.92
637.639	59.08
637.971	59.11
638.303	59.12
638.635	59.19
638.967	59.22
639.299	59.27
639.631	59.32
639.963	59.4
640.295	59.48
640.626	59.61
640.958	59.56
641.29	59.44
641.621	59.4
641.953	59.5
642.285	59.52
642.616	59.56
642.948	59.59
643.279	59.62
643.61	59.8
643.942	60
644.273	59.93
644.604	59.79
644.936	59.78
645.267	59.75
645.598	59.76
645.929	59.72
646.26	59.7
646.591	59.77
646.922	59.8
647.253	59.72
647.584	59.74
647.915	59.73
648.245	59.91
648.576	59.97
648.907	59.94
649.238	60.03
649.568	60.06
649.899	60.1
650.229	60.18
650.56	60.22
650.89	60.18
651.221	60.25
651.551	60.35
651.882	60.42
652.212	60.53
652.542	60.55
652.872	60.63
653.203	60.66
653.533	60.58
653.863	60.57
654.193	60.64
654.523	60.65
654.853	60.78
655.183	60.77
655.513	60.74
655.843	60.68
656.172	60.68
656.502	60.77
656.832	60.72
657.162	60.72
657.491	60.63
657.821	60.61
658.15	60.69
658.48	60.63
658.809	60.6
659.139	60.63
659.468	60.62
659.798	60.72
660.127	60.7
660.456	60.82
660.785	60.85
661.115	60.88
661.444	60.99
661.773	60.95
662.102	60.97
662.431	60.96
662.76	61.09
663.089	61.18
663.418	61.14
663.747	61.14
664.076	61.29
664.404	61.36
664.733	61.4
665.062	61.37
665.39	61.55
665.719	61.72
666.048	61.76
666.376	61.69
666.705	61.58
667.033	61.64
667.362	61.56
667.69	61.54
668.018	61.54
668.347	61.34
668.675	61.41
669.003	61.46
669.331	61.54
669.659	61.39
669.987	61.47
670.315	61.44
670.643	61.56
670.971	61.4
671.299	61.4
671.627	61.41
671.955	61.43
672.283	61.3
672.61	61.21
672.938	61.19
673.266	61.24
673.593	61.36
673.921	61.42
674.249	61.46
674.576	61.46
674.904	61.46
675.231	61.34
675.558	61.41
675.886	61.42
676.213	61.37
676.54	61.53
676.867	61.39
677.195	61.47
677.522	61.41
677.849	61.58
678.176	61.65
678.503	61.66
678.83	61.62
679.157	61.66
679.484	61.56
679.81	61.62
680.137	61.62
680.464	61.55
680.791	61.52
681.117	61.54
681.444	61.57
681.771	61.55
682.097	61.74
682.424	61.8
682.75	61.7
683.077	61.81
683.403	61.77
683.729	61.9
684.056	61.75
684.382	61.63
684.708	61.59
685.034	61.48
685.36	61.44
685.686	61.44
686.012	61.38
686.339	61.41
686.664	61.32
686.99	61.42
687.316	61.4
687.642	61.38
687.968	61.44
688.294	61.54
688.619	61.5
688.945	61.6
689.271	61.47
689.596	61.62
689.922	61.67
690.247	61.61
690.573	61.65
690.898	61.83
691.224	62.04
691.549	61.89
691.874	61.92
692.2	61.95
692.525	62.09
692.85	62.22
693.175	62.18
693.5	62.23
693.825	62.24
694.15	62.34
694.475	62.4
694.8	62.33
695.125	62.09
695.45	62.01
695.775	61.89
696.099	61.94
696.424	61.85
696.749	61.69
697.073	61.69
697.398	61.56
697.723	61.49
698.047	61.49
698.372	61.49
698.696	61.43
699.02	61.36
699.345	61.23
699.669	61.24
699.993	61.25
700.318	61.23
700.642	61.13
700.966	61.04
701.29	61.09
701.614	61.03
701.938	61.25
702.262	61.35
702.586	61.31
702.91	61.11
703.234	61.25
703.557	61.31
703.881	61.28
704.205	61.32
704.529	61.28
704.852	61.32
705.176	61.39
705.499	61.66
705.823	61.75
706.146	61.88
706.47	61.88
706.793	62
707.117	61.86
707.44	62.01
707.763	62.07
708.086	62.19
708.409	62.25
708.733	62.16
709.056	62.21
709.379	62.31
709.702	62.37
710.025	62.32
710.348	62.6
710.671	62.74
710.993	62.93
711.316	63.08
711.639	62.94
711.962	62.94
712.284	62.72
712.607	62.68
712.93	62.67
713.252	62.66
713.575	62.72
713.897	62.9
714.22	62.8
714.542	62.77
714.864	62.64
715.187	62.52
715.509	62.59
715.831	62.43
716.153	62.36
716.475	62.62
716.798	62.59
717.12	62.36
717.442	62.43
717.764	62.14
718.085	62.03
718.407	62.08
718.729	62.07
719.051	62.33
719.373	62.2
719.695	62.19
720.016	62.02
720.338	61.96
720.659	61.8
720.981	61.81
721.302	61.98
721.624	61.67
721.945	62.02
722.267	62.05
722.588	62.08
722.909	62.06
723.231	61.99
723.552	62.1
723.873	62.19
724.194	62.06
724.515	62.37
724.836	62.44
725.157	62.68
725.478	62.57
725.799	62.27
726.12	62.43
726.441	62.68
726.762	62.84
727.083	62.99
727.403	63.12
727.724	63.38
728.045	63.22
728.365	63.24
728.686	63.01
729.006	63.08
729.327	63.31
729.647	63.66
729.967	63.47
730.288	63.13
730.608	62.99
730.928	62.96
731.249	62.82
731.569	63.02
731.889	62.85
732.209	62.74
732.529	62.73
732.849	62.68
733.169	62.29
733.489	62.24
733.809	62.25
734.129	62.31
734.448	62.27
734.768	62.32
735.088	62.47
735.408	62.57
735.727	62.45
736.047	62.47
736.366	62.15
736.686	62.19
737.005	62.54
737.325	62.42
737.644	62.38
737.963	62.3
738.283	61.88
738.602	61.79
738.921	62.02
739.24	62.43
739.56	62.44
739.879	62.73
740.198	62.96
740.517	62.82
740.836	62.55
741.155	62.38
741.473	62.53
741.792	62.39
742.111	62.26
742.43	62.23
742.748	62.16
743.067	62.43
743.386	62.5
743.704	62.55
744.023	62.78
744.341	62.92
744.66	62.99
744.978	63.04
745.297	63.35
745.615	63.19
745.933	63.12
746.252	63.17
746.57	62.72
746.888	62.65
747.206	62.73
747.524	63.01
747.842	62.85
748.16	62.79
748.478	62.91
748.796	62.61
749.114	62.74
749.432	62.78
749.749	62.58
750.067	62.8
750.385	62.86
750.703	62.71
751.02	62.71
751.338	62.68
751.655	62.74
751.973	62.37
752.29	62.39
752.608	62.21
752.925	62.19
753.242	62.5
753.56	62.06
753.877	62.23
754.194	62.45
754.511	62.61
754.828	62.61
755.145	62.83
755.462	63.53
755.779	63.38
756.096	63.37
756.413	63.87
756.73	63.55
757.047	63.34
757.364	63.35
757.68	63.45
757.997	63.45
758.314	63.57
758.63	63.72
758.947	64.2
759.264	64.01
759.58	64.42
759.896	64.5
760.213	64.61
760.529	64.47
760.846	64.46
761.162	64.19
761.478	64.17
761.794	64.19
762.11	63.75
762.426	63.91
762.743	64.21
763.059	63.9
763.375	63.86
763.69	63.79
764.006	63.75
764.322	63.63
764.638	63.77
764.954	63.9
765.27	63.97
765.585	63.66
765.901	63.92
766.216	63.67
766.532	63.75
766.848	63.99
767.163	63.57
767.478	63.46
767.794	63.75
768.109	63.68
768.424	63.57
768.74	63.85
769.055	63.78
769.37	63.19
769.685	63.08
770	63.11
770.315	63.12
770.63	63.3
770.945	63.43
771.26	63.28
771.575	63.16
771.89	63.3
772.205	63.3
772.52	63.02
772.834	62.71
773.149	62.68
773.464	62.49
773.778	62.94
774.093	62.89
774.407	62.9
774.722	62.87
775.036	62.74
775.351	62.52
775.665	62.48
775.979	62.73
776.293	62.47
776.608	62.75
776.922	62.88
777.236	62.64
777.55	62.39
777.864	62.12
778.178	62.22
778.492	61.97
778.806	62.31
779.12	62.3
779.434	62.99
779.747	63.04
780.061	62.95
780.375	62.97
780.689	62.62
781.002	62.42
781.316	62.51
781.629	62.95
781.943	63.09
782.256	62.95
782.57	62.73
782.883	63.35
783.196	63.09
783.51	63.09
783.823	62.94
784.136	63.01
784.449	63.17
784.762	63.27
785.075	63.21
785.388	62.98
785.701	63.39
786.014	62.76
786.327	62.29
786.64	62.44
786.953	62.83
787.266	63.16
787.578	63.47
787.891	63.55
788.204	62.9
788.516	63.11
788.829	63.27
789.141	63.59
789.454	63.42
789.766	63.76
790.079	63.55
790.391	63.88
790.703	64.1
791.016	64.3
791.328	64.29
791.64	64.77
791.952	64.71
792.264	64.37
792.576	64.62
792.888	65
793.2	64.8
793.512	64.62
793.824	64.79
794.136	64.76
794.448	64.81
794.76	65.08
795.071	64.43
795.383	64.15
795.695	64.08
796.006	64.06
796.318	63.33
796.629	63.39
796.941	63.02
797.252	62.96
797.564	63.06
797.875	62.57
798.186	62.24
798.497	62.95
798.809	63.29
799.12	63.43
799.431	63.36
799.742	63.67
800.053	64.19
800.364	63.66
800.675	63.23
800.986	63.18
801.297	63.05
801.608	63.75
801.918	64.06
802.229	64.03
802.54	64.47
802.851	65.12
803.161	65.47
803.472	65.65
803.782	65.43
804.093	66.05
804.403	66.58
804.714	66.24
805.024	65.57
805.334	65.08
805.645	65.04
805.955	65.15
806.265	64.93
806.575	64.24
806.885	64.34
807.195	64.16
807.505	64.02
807.815	64.22
808.125	63.92
808.435	63.71
808.745	63.53
809.055	63.46
809.365	63.21
809.674	62.13
809.984	62.35
810.294	62.82
810.603	62.15
810.913	62.15
811.222	63.09
811.532	62.55
811.841	63.04
812.151	63.88
812.46	63.94
812.769	64.19
813.079	64.19
813.388	64.22
813.697	64.19
814.006	63.95
814.315	64.15
814.624	64.23
814.933	64.12
815.242	64.27
815.551	64.12
815.86	64.43
816.169	64.89
816.478	64.79
816.786	64.9
817.095	65.12
817.404	65.51
817.712	64.93
818.021	65.81
818.33	65.61
818.638	65.03
818.947	65.02
819.255	65.46
819.563	64.94
819.872	64.98
820.18	64.95
820.488	65.11
820.796	65.32
821.105	64.77
821.413	64.95
821.721	65
822.029	64.93
822.337	64.93
822.645	65.29
822.953	65.42
823.26	65.33
823.568	65.18
823.876	65.08
824.184	65.13
824.491	65.09
824.799	65.15
825.107	65.26
825.414	65.07
825.722	64.85
826.029	65.04
826.337	65.01
826.644	65.1
826.951	64.95
827.259	64.68
827.566	64.98
827.873	64.86
828.18	64.72
828.488	64.9
828.795	64.88
829.102	64.49
829.409	64.35
829.716	64.29
830.023	64.43
830.329	64.51
830.636	64.38
830.943	64.02
831.25	63.91
831.557	63.78
831.863	64.53
832.17	64.39
832.476	64.25
832.783	64.44
833.089	64.43
833.396	64.57
833.702	64.95
834.009	64.95
834.315	64.76
834.621	64.92
834.928	64.5
835.234	64.41
835.54	64.49
835.846	64.46
836.152	64.67
836.458	64.32
836.764	64.11
837.07	64.19
837.376	64.32
837.682	63.92
837.988	63.62
838.293	63.19
838.599	63.6
838.905	63.43
839.211	63.38
839.516	64.39
839.822	64.94
840.127	64.63
840.433	64.63
840.738	64.84
841.044	64.85
841.349	65.34
841.654	65.76
841.959	67.12
842.265	67.74
842.57	67.72
842.875	68.87
843.18	68.32
843.485	68.01
843.79	67.99
844.095	68.65
844.4	68.38
844.705	67.55
845.01	66.94
845.315	66.26
845.619	66.86
845.924	65.99
846.229	64.99
846.533	65.14
846.838	66.04
847.142	67.05
847.447	66.63
847.751	67.62
848.056	67.05
848.36	65.27
848.664	65.22
848.969	64.2
849.273	64.23
849.577	63.91
849.881	64.79
850.185	64.78
850.489	65.1
850.794	65.13
851.097	64.86
851.401	65.5
851.705	67.15
852.009	65.96
852.313	64.84
852.617	64.82
852.92	65.95
853.224	65.72
853.528	63.94
853.831	64.72
854.135	61.81
854.438	60.5
854.742	61.95
855.045	61.75
855.349	62.43
855.652	58.63
855.955	60.18
856.259	57.08
856.562	58.73
856.865	58.53
857.168	57.19
857.471	57.97
857.774	57.56
858.077	56.84
858.38	57.91
858.683	56.57
858.986	55.18
859.289	52.91
859.592	51.74
859.894	52.34
860.197	53.67
860.5	55.07
860.802	58.26
861.105	55.65
861.407	54.12
861.71	53.45
862.012	56.92
862.315	56.7
862.617	58.96
862.919	57.82
863.222	59.87
863.524	62.13
863.826	62.29
864.128	63.67
864.43	67.19
864.732	65.15
865.034	67.59
865.336	70.58
865.638	71.11
865.94	70.09
866.242	72.94
866.544	71.41
866.846	72.29
867.147	69.85
867.449	70.53
867.751	70.42
868.052	71.06
868.354	70.42
868.655	69.64
868.957	70.45
869.258	70.52
869.56	66.61
869.861	65.58
870.162	64.74
870.463	65.1
870.765	60.39
871.066	62.09
871.367	62.12
871.668	61.11
871.969	62.46
872.27	64.24
872.571	62.28
872.872	62.9
873.173	62.3
873.473	63.34
873.774	63.38
874.075	63.92
874.376	62.97
874.676	62.05
874.977	61.35
875.277	58.98
875.578	60.19
875.878	61.22
876.179	61.33
876.479	61.96
876.78	59.44
877.08	61.58
877.38	61.39
877.68	59.42
877.981	59.52
878.281	59.05
878.581	59.9
