Data from BA28474_Reflection_00008.txt Node
Date: Mon Nov 18 15:30:46 EST 2019
User: vgr7
Spectrometer: USB2G7710
Scans to average: 3
Trigger mode: 4
Integration Time (sec): 2.000000E-2
Electric dark correction enabled: true
Boxcar width: 10
XAxis mode: Wavelengths
Number of Pixels in Spectrum: 2048
>>>>>Begin Spectral Data<<<<<
177.721	-7.97
178.105	-34.08
178.488	-96.87
178.871	-68.6
179.254	-243.28
179.636	35.11
180.019	307.55
180.402	77.78
180.785	72.11
181.168	2.99
181.55	-15.58
181.933	202.7
182.316	44
182.698	31.94
183.081	21.35
183.463	-3.73
183.846	111.15
184.228	13100
184.611	-370.97
184.993	-155.06
185.376	-35.8
185.758	-59.62
186.14	-69.76
186.522	-76.75
186.904	-74.77
187.287	-92.63
187.669	-42.02
188.051	-106.17
188.433	-60.06
188.815	-34.33
189.197	-58.47
189.579	-32.63
189.961	-33.43
190.342	-33.14
190.724	-19.86
191.106	-33.26
191.488	-15.18
191.869	26.1
192.251	32.5
192.633	51.68
193.014	-0.12
193.396	-30.89
193.777	-9.91
194.159	8.88
194.54	21.42
194.922	9.89
195.303	0.3
195.684	3.17
196.065	25.58
196.447	22.09
196.828	-2.08
197.209	1.56
197.59	-14.65
197.971	-11.61
198.352	7.23
198.733	2.46
199.114	-5.69
199.495	-10.75
199.876	-27.33
200.257	-19.51
200.638	-15.51
201.018	-14.9
201.399	-12.27
201.78	-22.27
202.16	-49.56
202.541	-84.74
202.922	-134.47
203.302	-115.36
203.683	-145.44
204.063	-159.26
204.444	-156.83
204.824	-137.44
205.204	-105.37
205.585	-129.2
205.965	-134.41
206.345	-134.75
206.725	-187.13
207.106	-316.91
207.486	-318.55
207.866	-1062.16
208.246	-475.29
208.626	-485.9
209.006	-143.24
209.386	-166.06
209.766	-134.97
210.145	-89.05
210.525	-69.97
210.905	-46.14
211.285	-23.95
211.664	-24.9
212.044	-14.39
212.424	-17.53
212.803	-20.17
213.183	-18.35
213.562	-9.22
213.942	-12.77
214.321	-16.1
214.701	-12.35
215.08	-4.63
215.459	1.45
215.838	2.52
216.218	5.02
216.597	6.99
216.976	-5.55
217.355	-5.3
217.734	-11.58
218.113	-5.15
218.492	1.73
218.871	1.85
219.25	-29.29
219.629	-36.84
220.008	-53.15
220.387	-41.06
220.766	-28.67
221.144	-52.98
221.523	-48.75
221.902	-41.19
222.28	-57.53
222.659	-41.48
223.037	-24.77
223.416	-23.56
223.794	-23.97
224.173	-42.32
224.551	-35.05
224.929	-26.91
225.308	-15.61
225.686	-16.74
226.064	-19.37
226.442	-17.94
226.821	-16.14
227.199	-12.93
227.577	-8.58
227.955	-7.68
228.333	-5.69
228.711	-5.05
229.089	-1.24
229.467	-4.03
229.845	-5.34
230.222	-5.16
230.6	-6.37
230.978	-5.87
231.356	-1.91
231.733	0.48
232.111	4.22
232.488	5.29
232.866	5.62
233.243	4.48
233.621	4.76
233.998	6.13
234.376	4.95
234.753	3.83
235.13	4.64
235.508	4.48
235.885	5.97
236.262	5.45
236.639	5.4
237.016	5.79
237.393	7.43
237.77	8.13
238.147	10.01
238.524	8.28
238.901	7.25
239.278	6.07
239.655	5.47
240.032	5.28
240.409	4.6
240.785	4.51
241.162	4.33
241.539	4.82
241.915	4.67
242.292	4.74
242.668	5.12
243.045	5.08
243.421	4.85
243.798	4.72
244.174	4.49
244.551	4.31
244.927	4.07
245.303	4.02
245.679	3.58
246.056	3.33
246.432	3.68
246.808	3.77
247.184	3.52
247.56	3.41
247.936	3.43
248.312	3.39
248.688	3.41
249.064	3.55
249.44	3.51
249.815	3.54
250.191	3.51
250.567	3.51
250.943	3.45
251.318	3.58
251.694	3.6
252.069	3.63
252.445	4.06
252.82	4.2
253.196	3.94
253.571	4.42
253.947	4.5
254.322	4.61
254.697	4.46
255.073	4.63
255.448	4.59
255.823	4.38
256.198	4.38
256.573	4.44
256.948	4.25
257.323	4.56
257.698	4.65
258.073	4.73
258.448	4.66
258.823	4.6
259.198	4.42
259.573	4.43
259.948	4.33
260.322	4.15
260.697	4.12
261.072	4.17
261.446	4.15
261.821	3.99
262.195	3.98
262.57	3.97
262.944	4.03
263.319	3.95
263.693	3.96
264.067	3.96
264.442	4.02
264.816	4.03
265.19	3.64
265.564	3.58
265.938	3.42
266.313	3.27
266.687	3.23
267.061	3.23
267.435	3.21
267.809	3.36
268.183	3.27
268.556	3.17
268.93	3.23
269.304	3.17
269.678	3.28
270.051	3.22
270.425	3.25
270.799	3.28
271.172	3.27
271.546	3.37
271.919	3.32
272.293	3.32
272.666	3.4
273.04	3.51
273.413	3.43
273.787	3.66
274.16	3.78
274.533	3.92
274.906	4.18
275.279	4.19
275.653	4.15
276.026	4.25
276.399	4.16
276.772	4.12
277.145	3.99
277.518	4.02
277.891	4.17
278.263	4.02
278.636	3.91
279.009	4.13
279.382	4.09
279.755	4.17
280.127	4.16
280.5	4.33
280.872	4.49
281.245	4.42
281.617	4.28
281.99	4.28
282.362	4.24
282.735	3.96
283.107	3.67
283.479	3.69
283.852	3.58
284.224	3.78
284.596	3.81
284.968	3.96
285.34	4.03
285.713	3.9
286.085	4.07
286.457	4.11
286.829	4.05
287.201	3.95
287.572	3.99
287.944	3.92
288.316	3.78
288.688	3.67
289.06	3.83
289.431	3.91
289.803	3.82
290.175	3.76
290.546	3.94
290.918	4.13
291.289	4.18
291.661	4.34
292.032	4.34
292.403	4.41
292.775	4.52
293.146	4.32
293.517	4.34
293.889	4.38
294.26	4.29
294.631	4.38
295.002	4.49
295.373	4.48
295.744	4.65
296.115	4.73
296.486	4.6
296.857	4.51
297.228	4.42
297.599	4.58
297.97	4.58
298.34	4.56
298.711	4.67
299.082	4.67
299.452	4.81
299.823	4.86
300.194	4.82
300.564	4.77
300.935	4.88
301.305	5.02
301.676	5.12
302.046	5.42
302.416	5.53
302.787	5.62
303.157	5.72
303.527	5.59
303.897	5.64
304.267	5.92
304.637	6.19
305.008	6.4
305.378	6.55
305.748	6.64
306.117	6.63
306.487	6.7
306.857	6.81
307.227	6.75
307.597	6.76
307.967	6.83
308.336	6.71
308.706	6.76
309.076	6.86
309.445	6.8
309.815	6.67
310.184	6.64
310.554	6.65
310.923	6.73
311.293	6.85
311.662	6.87
312.031	6.94
312.401	6.84
312.77	6.97
313.139	7.01
313.508	7.14
313.877	7.22
314.246	7.3
314.616	7.29
314.985	7.24
315.353	7.38
315.722	7.57
316.091	7.73
316.46	7.92
316.829	8.01
317.198	8.24
317.567	8.35
317.935	8.57
318.304	8.72
318.672	8.71
319.041	8.78
319.41	8.66
319.778	8.61
320.147	8.77
320.515	8.77
320.883	8.65
321.252	8.63
321.62	8.62
321.988	8.59
322.357	8.76
322.725	8.92
323.093	8.98
323.461	8.95
323.829	9.19
324.197	9.31
324.565	9.28
324.933	9.21
325.301	9.36
325.669	9.23
326.037	9.27
326.405	9.3
326.772	9.32
327.14	9.7
327.508	9.73
327.875	9.77
328.243	9.84
328.61	9.97
328.978	10.05
329.346	10.26
329.713	10.37
330.08	10.45
330.448	10.46
330.815	10.46
331.182	10.54
331.55	10.54
331.917	10.49
332.284	10.64
332.651	10.76
333.018	10.86
333.385	10.9
333.752	11.09
334.119	11.22
334.486	11.19
334.853	11.18
335.22	11.25
335.587	11.3
335.954	11.43
336.32	11.4
336.687	11.54
337.054	11.42
337.42	11.52
337.787	11.41
338.153	11.55
338.52	11.68
338.886	11.62
339.253	11.56
339.619	11.65
339.986	11.64
340.352	11.73
340.718	11.71
341.084	11.77
341.451	11.65
341.817	11.71
342.183	11.87
342.549	11.81
342.915	11.92
343.281	11.92
343.647	11.91
344.013	11.95
344.379	11.91
344.745	12.03
345.11	12.01
345.476	12.22
345.842	12.12
346.208	12.04
346.573	12.11
346.939	12.28
347.304	12.2
347.67	12.18
348.035	12.14
348.401	12.13
348.766	12.04
349.132	12.09
349.497	12.14
349.862	12.12
350.228	12.22
350.593	12.15
350.958	12.16
351.323	12.1
351.688	12.05
352.053	12.05
352.418	12.05
352.783	12.06
353.148	11.91
353.513	11.88
353.878	11.91
354.243	11.96
354.608	11.8
354.972	11.77
355.337	11.81
355.702	11.87
356.066	11.9
356.431	12
356.795	12
357.16	11.94
357.524	11.91
357.889	11.84
358.253	11.9
358.618	11.94
358.982	11.91
359.346	11.86
359.71	11.84
360.075	11.83
360.439	11.84
360.803	11.85
361.167	11.86
361.531	11.84
361.895	11.78
362.259	11.81
362.623	11.88
362.987	11.8
363.351	11.75
363.714	11.8
364.078	11.71
364.442	11.66
364.806	11.63
365.169	11.59
365.533	11.53
365.896	11.48
366.26	11.39
366.623	11.36
366.987	11.39
367.35	11.41
367.714	11.32
368.077	11.21
368.44	11.2
368.803	11.1
369.167	11
369.53	10.91
369.893	10.89
370.256	10.79
370.619	10.76
370.982	10.66
371.345	10.46
371.708	10.47
372.071	10.38
372.434	10.27
372.797	10.17
373.159	10.15
373.522	10.03
373.885	10.02
374.247	9.92
374.61	9.9
374.973	9.74
375.335	9.73
375.698	9.68
376.06	9.6
376.423	9.66
376.785	9.65
377.147	9.62
377.51	9.56
377.872	9.52
378.234	9.48
378.596	9.4
378.958	9.36
379.321	9.25
379.683	9.24
380.045	9.2
380.407	9.13
380.769	9.09
381.13	9.11
381.492	8.96
381.854	8.97
382.216	8.86
382.578	8.82
382.939	8.72
383.301	8.65
383.663	8.52
384.024	8.42
384.386	8.37
384.747	8.35
385.109	8.28
385.47	8.24
385.832	8.16
386.193	8.15
386.554	8.12
386.916	8.11
387.277	8.05
387.638	8
387.999	7.97
388.36	7.86
388.721	7.77
389.082	7.74
389.443	7.62
389.804	7.56
390.165	7.51
390.526	7.49
390.887	7.43
391.248	7.4
391.609	7.38
391.969	7.29
392.33	7.24
392.691	7.19
393.051	7.09
393.412	7.05
393.772	6.97
394.133	6.91
394.493	6.81
394.854	6.76
395.214	6.67
395.574	6.63
395.935	6.65
396.295	6.62
396.655	6.58
397.015	6.56
397.376	6.54
397.736	6.5
398.096	6.45
398.456	6.39
398.816	6.35
399.176	6.21
399.535	6.17
399.895	6.13
400.255	6.07
400.615	6.07
400.975	6.02
401.334	5.98
401.694	5.97
402.054	5.92
402.413	5.87
402.773	5.84
403.132	5.79
403.492	5.68
403.851	5.6
404.211	5.57
404.57	5.54
404.929	5.46
405.288	5.41
405.648	5.37
406.007	5.32
406.366	5.33
406.725	5.36
407.084	5.36
407.443	5.31
407.802	5.29
408.161	5.28
408.52	5.25
408.879	5.22
409.238	5.19
409.596	5.19
409.955	5.17
410.314	5.19
410.673	5.2
411.031	5.19
411.39	5.22
411.748	5.19
412.107	5.18
412.465	5.15
412.824	5.12
413.182	5.1
413.54	5.08
413.899	5.02
414.257	4.98
414.615	4.94
414.974	4.93
415.332	4.9
415.69	4.84
416.048	4.81
416.406	4.79
416.764	4.76
417.122	4.73
417.48	4.71
417.838	4.69
418.195	4.64
418.553	4.62
418.911	4.58
419.269	4.57
419.626	4.54
419.984	4.53
420.342	4.51
420.699	4.48
421.057	4.47
421.414	4.46
421.772	4.44
422.129	4.41
422.486	4.41
422.844	4.41
423.201	4.4
423.558	4.38
423.915	4.36
424.273	4.34
424.63	4.32
424.987	4.29
425.344	4.27
425.701	4.25
426.058	4.24
426.415	4.22
426.772	4.19
427.128	4.18
427.485	4.16
427.842	4.14
428.199	4.16
428.555	4.14
428.912	4.12
429.269	4.11
429.625	4.12
429.982	4.07
430.338	4.03
430.695	4.03
431.051	4.03
431.407	4.05
431.764	4.05
432.12	4.05
432.476	4.06
432.832	4.04
433.189	4.04
433.545	4.04
433.901	4.04
434.257	4.06
434.613	4.04
434.969	4.05
435.325	4.06
435.681	4.05
436.036	4.07
436.392	4.08
436.748	4.08
437.104	4.06
437.459	4.06
437.815	4.07
438.171	4.07
438.526	4.07
438.882	4.06
439.237	4.04
439.593	4.04
439.948	4.02
440.304	4.02
440.659	4.02
441.014	4.01
441.369	3.98
441.725	3.96
442.08	3.96
442.435	3.96
442.79	3.96
443.145	3.95
443.5	3.91
443.855	3.89
444.21	3.88
444.565	3.88
444.92	3.88
445.275	3.86
445.629	3.84
445.984	3.81
446.339	3.78
446.693	3.77
447.048	3.74
447.403	3.74
447.757	3.75
448.112	3.74
448.466	3.72
448.82	3.72
449.175	3.73
449.529	3.71
449.883	3.68
450.238	3.66
450.592	3.65
450.946	3.65
451.3	3.65
451.654	3.64
452.008	3.63
452.362	3.61
452.716	3.61
453.07	3.6
453.424	3.62
453.778	3.62
454.132	3.61
454.486	3.61
454.839	3.6
455.193	3.57
455.547	3.56
455.9	3.57
456.254	3.59
456.607	3.58
456.961	3.61
457.314	3.61
457.668	3.61
458.021	3.6
458.375	3.61
458.728	3.6
459.081	3.61
459.434	3.61
459.787	3.62
460.141	3.62
460.494	3.63
460.847	3.64
461.2	3.65
461.553	3.66
461.906	3.69
462.259	3.7
462.611	3.73
462.964	3.75
463.317	3.75
463.67	3.75
464.022	3.77
464.375	3.77
464.728	3.79
465.08	3.82
465.433	3.85
465.785	3.86
466.138	3.88
466.49	3.9
466.843	3.91
467.195	3.92
467.547	3.95
467.899	3.98
468.252	3.99
468.604	4.01
468.956	4.02
469.308	4.01
469.66	4.03
470.012	4.06
470.364	4.06
470.716	4.08
471.068	4.1
471.42	4.1
471.772	4.12
472.123	4.14
472.475	4.14
472.827	4.15
473.178	4.15
473.53	4.16
473.882	4.16
474.233	4.16
474.585	4.14
474.936	4.15
475.288	4.12
475.639	4.13
475.99	4.13
476.342	4.15
476.693	4.17
477.044	4.18
477.395	4.16
477.746	4.13
478.097	4.13
478.448	4.13
478.8	4.12
479.15	4.09
479.501	4.09
479.852	4.08
480.203	4.07
480.554	4.06
480.905	4.06
481.255	4.05
481.606	4.04
481.957	4.06
482.307	4.07
482.658	4.06
483.009	4.05
483.359	4.04
483.709	4.05
484.06	4.04
484.41	4.04
484.761	4.03
485.111	4.04
485.461	4.03
485.811	4.02
486.162	4.03
486.512	4.04
486.862	4.04
487.212	4.04
487.562	4.04
487.912	4.04
488.262	4.04
488.612	4.05
488.961	4.06
489.311	4.05
489.661	4.05
490.011	4.06
490.36	4.06
490.71	4.08
491.06	4.07
491.409	4.07
491.759	4.07
492.108	4.09
492.458	4.1
492.807	4.11
493.157	4.14
493.506	4.15
493.855	4.16
494.204	4.17
494.554	4.2
494.903	4.22
495.252	4.25
495.601	4.29
495.95	4.33
496.299	4.36
496.648	4.41
496.997	4.44
497.346	4.53
497.695	4.58
498.043	4.61
498.392	4.66
498.741	4.71
499.09	4.77
499.438	4.82
499.787	4.88
500.135	4.97
500.484	5.02
500.832	5.09
501.181	5.16
501.529	5.25
501.878	5.34
502.226	5.42
502.574	5.52
502.923	5.6
503.271	5.68
503.619	5.77
503.967	5.87
504.315	5.96
504.663	6.02
505.011	6.11
505.359	6.22
505.707	6.35
506.055	6.48
506.403	6.6
506.751	6.72
507.098	6.84
507.446	6.95
507.794	7.05
508.141	7.17
508.489	7.29
508.837	7.41
509.184	7.52
509.531	7.64
509.879	7.77
510.226	7.89
510.574	7.98
510.921	8.12
511.268	8.21
511.616	8.34
511.963	8.47
512.31	8.6
512.657	8.73
513.004	8.85
513.351	9
513.698	9.15
514.045	9.29
514.392	9.45
514.739	9.61
515.086	9.78
515.432	9.94
515.779	10.09
516.126	10.24
516.473	10.41
516.819	10.55
517.166	10.68
517.512	10.8
517.859	10.97
518.205	11.08
518.552	11.21
518.898	11.34
519.245	11.47
519.591	11.62
519.937	11.76
520.283	11.91
520.629	12.04
520.976	12.2
521.322	12.39
521.668	12.57
522.014	12.74
522.36	12.96
522.706	13.17
523.052	13.4
523.398	13.65
523.743	13.87
524.089	14.1
524.435	14.33
524.781	14.61
525.126	14.82
525.472	15.03
525.817	15.23
526.163	15.41
526.509	15.6
526.854	15.75
527.199	15.9
527.545	16.06
527.89	16.22
528.235	16.39
528.581	16.55
528.926	16.71
529.271	16.89
529.616	17.03
529.961	17.2
530.306	17.38
530.651	17.56
530.996	17.78
531.341	17.99
531.686	18.22
532.031	18.41
532.376	18.65
532.721	18.88
533.065	19.12
533.41	19.37
533.755	19.61
534.099	19.9
534.444	20.17
534.788	20.42
535.133	20.68
535.477	20.94
535.822	21.23
536.166	21.53
536.51	21.85
536.855	22.2
537.199	22.54
537.543	22.88
537.887	23.25
538.231	23.6
538.576	23.95
538.92	24.3
539.264	24.64
539.608	24.95
539.951	25.29
540.295	25.58
540.639	25.86
540.983	26.14
541.327	26.4
541.671	26.66
542.014	26.93
542.358	27.19
542.701	27.44
543.045	27.68
543.389	27.94
543.732	28.22
544.075	28.48
544.419	28.74
544.762	29.02
545.105	29.27
545.449	29.57
545.792	29.88
546.135	30.19
546.478	30.55
546.821	30.93
547.165	31.24
547.508	31.6
547.851	31.97
548.194	32.33
548.536	32.67
548.879	33.04
549.222	33.39
549.565	33.73
549.908	34.09
550.25	34.47
550.593	34.85
550.936	35.18
551.278	35.5
551.621	35.9
551.963	36.21
552.306	36.53
552.648	36.84
552.991	37.12
553.333	37.38
553.675	37.65
554.017	37.88
554.36	38.17
554.702	38.42
555.044	38.68
555.386	38.93
555.728	39.25
556.07	39.51
556.412	39.75
556.754	40.08
557.096	40.36
557.438	40.64
557.78	40.91
558.121	41.22
558.463	41.49
558.805	41.74
559.147	42
559.488	42.3
559.83	42.56
560.171	42.81
560.513	43.1
560.854	43.34
561.196	43.57
561.537	43.8
561.878	44.04
562.22	44.3
562.561	44.5
562.902	44.7
563.243	44.93
563.584	45.14
563.925	45.28
564.266	45.41
564.607	45.59
564.948	45.72
565.289	45.88
565.63	46.06
565.971	46.2
566.312	46.46
566.653	46.61
566.993	46.78
567.334	46.92
567.675	47.12
568.015	47.32
568.356	47.46
568.696	47.54
569.037	47.65
569.377	47.76
569.718	47.89
570.058	47.95
570.398	48.05
570.739	48.21
571.079	48.34
571.419	48.55
571.759	48.69
572.099	48.86
572.439	48.99
572.779	49.15
573.119	49.29
573.459	49.36
573.799	49.49
574.139	49.54
574.479	49.64
574.819	49.73
575.158	49.74
575.498	49.82
575.838	50.01
576.177	50.15
576.517	50.26
576.856	50.41
577.196	50.64
577.535	50.79
577.875	50.93
578.214	51.06
578.553	51.13
578.893	51.19
579.232	51.32
579.571	51.49
579.91	51.54
580.25	51.67
580.589	51.71
580.928	51.79
581.267	51.95
581.606	52.12
581.945	52.27
582.283	52.41
582.622	52.61
582.961	52.65
583.3	52.75
583.639	52.91
583.977	52.95
584.316	53.01
584.654	53.1
584.993	53.13
585.332	53.2
585.67	53.28
586.008	53.35
586.347	53.35
586.685	53.31
587.024	53.47
587.362	53.49
587.7	53.57
588.038	53.66
588.376	53.69
588.715	53.76
589.053	53.8
589.391	53.84
589.729	53.94
590.067	54.02
590.404	54.13
590.742	54.17
591.08	54.24
591.418	54.3
591.756	54.37
592.093	54.39
592.431	54.47
592.769	54.6
593.106	54.68
593.444	54.76
593.781	54.85
594.119	54.86
594.456	54.91
594.793	55
595.131	55.05
595.468	55.13
595.805	55.17
596.143	55.12
596.48	55.22
596.817	55.26
597.154	55.3
597.491	55.27
597.828	55.29
598.165	55.37
598.502	55.43
598.839	55.53
599.176	55.67
599.512	55.65
599.849	55.7
600.186	55.68
600.523	55.7
600.859	55.7
601.196	55.76
601.532	55.8
601.869	55.83
602.205	55.83
602.542	55.84
602.878	55.85
603.215	55.94
603.551	55.99
603.887	55.95
604.223	56
604.56	56.05
604.896	56.12
605.232	56.14
605.568	56.15
605.904	56.09
606.24	56.1
606.576	56.17
606.912	56.06
607.248	56.18
607.583	56.17
607.919	56.29
608.255	56.26
608.591	56.36
608.926	56.42
609.262	56.52
609.597	56.57
609.933	56.59
610.268	56.65
610.604	56.65
610.939	56.72
611.275	56.81
611.61	56.9
611.945	56.91
612.281	56.99
612.616	57.04
612.951	57.19
613.286	57.29
613.621	57.36
613.956	57.5
614.291	57.48
614.626	57.68
614.961	57.64
615.296	57.75
615.631	57.79
615.966	57.77
616.3	57.79
616.635	57.86
616.97	57.95
617.304	57.88
617.639	57.94
617.973	57.93
618.308	57.88
618.642	57.84
618.977	57.85
619.311	57.92
619.646	57.93
619.98	57.94
620.314	57.95
620.648	57.97
620.983	58.11
621.317	58.18
621.651	58.14
621.985	58.23
622.319	58.29
622.653	58.34
622.987	58.34
623.321	58.28
623.655	58.22
623.988	58.25
624.322	58.31
624.656	58.33
624.99	58.22
625.323	58.17
625.657	58.25
625.99	58.33
626.324	58.31
626.657	58.32
626.991	58.23
627.324	58.27
627.658	58.28
627.991	58.25
628.324	58.28
628.657	58.25
628.991	58.15
629.324	58.11
629.657	58
629.99	58.02
630.323	58.03
630.656	58.09
630.989	58.17
631.322	58.13
631.655	58.1
631.987	58.24
632.32	58.34
632.653	58.29
632.986	58.13
633.318	58.12
633.651	58.08
633.984	58.15
634.316	58.08
634.649	58.07
634.981	58.02
635.313	57.92
635.646	57.98
635.978	58.02
636.31	58.03
636.643	58.12
636.975	58.12
637.307	58.14
637.639	58.17
637.971	58.12
638.303	58.18
638.635	58.17
638.967	58.22
639.299	58.24
639.631	58.19
639.963	58.25
640.295	58.3
640.626	58.43
640.958	58.41
641.29	58.53
641.621	58.47
641.953	58.5
642.285	58.56
642.616	58.52
642.948	58.63
643.279	58.62
643.61	58.67
643.942	58.77
644.273	58.83
644.604	58.79
644.936	58.79
645.267	58.85
645.598	58.86
645.929	58.78
646.26	58.75
646.591	58.86
646.922	59.02
647.253	58.94
647.584	58.84
647.915	58.87
648.245	58.77
648.576	58.9
648.907	58.89
649.238	58.99
649.568	58.96
649.899	59.02
650.229	59.01
650.56	59.02
650.89	59.07
651.221	59.14
651.551	59.1
651.882	59.12
652.212	59.13
652.542	59.2
652.872	59.33
653.203	59.3
653.533	59.27
653.863	59.25
654.193	59.28
654.523	59.36
654.853	59.43
655.183	59.44
655.513	59.45
655.843	59.49
656.172	59.56
656.502	59.63
656.832	59.65
657.162	59.74
657.491	59.75
657.821	59.69
658.15	59.61
658.48	59.7
658.809	59.7
659.139	59.74
659.468	59.65
659.798	59.53
660.127	59.66
660.456	59.68
660.785	59.7
661.115	59.69
661.444	59.66
661.773	59.63
662.102	59.62
662.431	59.56
662.76	59.55
663.089	59.62
663.418	59.67
663.747	59.53
664.076	59.48
664.404	59.3
664.733	59.4
665.062	59.48
665.39	59.51
665.719	59.37
666.048	59.43
666.376	59.42
666.705	59.49
667.033	59.42
667.362	59.45
667.69	59.51
668.018	59.52
668.347	59.66
668.675	59.67
669.003	59.75
669.331	59.8
669.659	59.85
669.987	59.65
670.315	59.51
670.643	59.55
670.971	59.58
671.299	59.83
671.627	59.78
671.955	59.74
672.283	59.64
672.61	59.87
672.938	59.86
673.266	60.04
673.593	60.14
673.921	60.15
674.249	60.08
674.576	59.93
674.904	59.99
675.231	59.87
675.558	59.83
675.886	59.88
676.213	59.89
676.54	59.88
676.867	59.86
677.195	60.03
677.522	60.1
677.849	60.12
678.176	60.08
678.503	60.03
678.83	60
679.157	60.07
679.484	60.03
679.81	60.03
680.137	59.9
680.464	59.83
680.791	59.77
681.117	59.92
681.444	59.98
681.771	60.06
682.097	59.97
682.424	59.98
682.75	59.96
683.077	59.83
683.403	59.8
683.729	59.88
684.056	59.77
684.382	59.76
684.708	59.67
685.034	59.61
685.36	59.71
685.686	59.68
686.012	59.56
686.339	59.6
686.664	59.47
686.99	59.59
687.316	59.64
687.642	59.75
687.968	59.45
688.294	59.45
688.619	59.35
688.945	59.43
689.271	59.42
689.596	59.47
689.922	59.52
690.247	59.49
690.573	59.48
690.898	59.59
691.224	59.47
691.549	59.5
691.874	59.45
692.2	59.38
692.525	59.41
692.85	59.53
693.175	59.55
693.5	59.62
693.825	59.62
694.15	59.57
694.475	59.59
694.8	59.8
695.125	59.79
695.45	59.77
695.775	59.82
696.099	59.85
696.424	59.8
696.749	59.91
697.073	59.97
697.398	59.9
697.723	59.76
698.047	59.81
698.372	59.93
698.696	59.95
699.02	59.9
699.345	59.83
699.669	59.89
699.993	59.68
700.318	59.62
700.642	59.54
700.966	59.49
701.29	59.47
701.614	59.4
701.938	59.22
702.262	59.29
702.586	59.23
702.91	59.15
703.234	59.07
703.557	58.94
703.881	58.85
704.205	58.79
704.529	58.95
704.852	58.86
705.176	58.8
705.499	58.78
705.823	58.72
706.146	58.91
706.47	58.88
706.793	59.07
707.117	59.15
707.44	59.18
707.763	59.31
708.086	59.15
708.409	59.12
708.733	59.54
709.056	59.59
709.379	59.73
709.702	59.62
710.025	59.65
710.348	59.76
710.671	59.79
710.993	60.04
711.316	60.07
711.639	60.12
711.962	60.12
712.284	60.14
712.607	60.34
712.93	60.43
713.252	60.5
713.575	60.44
713.897	60.42
714.22	60.34
714.542	60.24
714.864	60.4
715.187	60.56
715.509	60.19
715.831	60.05
716.153	60.01
716.475	60.04
716.798	60.22
717.12	60.18
717.442	60.44
717.764	60.17
718.085	60.14
718.407	60.15
718.729	60.31
719.051	60.35
719.373	60.26
719.695	59.96
720.016	59.84
720.338	59.95
720.659	60.11
720.981	60.27
721.302	60.45
721.624	60.5
721.945	60.45
722.267	60.76
722.588	60.92
722.909	60.88
723.231	60.84
723.552	60.47
723.873	60.51
724.194	60.29
724.515	60.48
724.836	60.38
725.157	60.57
725.478	60.45
725.799	60.31
726.12	60.31
726.441	60.44
726.762	60.03
727.083	60.12
727.403	59.93
727.724	60.01
728.045	60.05
728.365	59.95
728.686	59.76
729.006	59.79
729.327	59.55
729.647	59.55
729.967	59.74
730.288	59.98
730.608	59.85
730.928	59.9
731.249	59.87
731.569	60.14
731.889	60.26
732.209	60.24
732.529	60.34
732.849	60.41
733.169	60.54
733.489	60.93
733.809	60.91
734.129	61.1
734.448	61.01
734.768	61.01
735.088	61.09
735.408	61.31
735.727	61.26
736.047	61.52
736.366	61.66
736.686	61.57
737.005	61.71
737.325	61.91
737.644	61.84
737.963	62.12
738.283	61.86
738.602	61.82
738.921	61.53
739.24	61.68
739.56	61.28
739.879	61.34
740.198	61.28
740.517	61.02
740.836	60.61
741.155	60.71
741.473	60.55
741.792	60.68
742.111	60.8
742.43	60.86
742.748	60.67
743.067	60.43
743.386	60.72
743.704	60.39
744.023	60.24
744.341	60.14
744.66	60.01
744.978	60.02
745.297	59.87
745.615	59.95
745.933	60.15
746.252	60.75
746.57	60.46
746.888	60.67
747.206	60.92
747.524	61.16
747.842	61.06
748.16	60.92
748.478	60.94
748.796	60.92
749.114	60.8
749.432	60.68
749.749	60.84
750.067	60.9
750.385	61.14
750.703	61.34
751.02	61.4
751.338	61.12
751.655	61.3
751.973	61.25
752.29	61.66
752.608	61.49
752.925	61.13
753.242	61
753.56	60.76
753.877	60.67
754.194	61.01
754.511	61.24
754.828	61.48
755.145	60.93
755.462	60.75
755.779	60.66
756.096	60.96
756.413	61.05
756.73	60.84
757.047	60.72
757.364	60.45
757.68	60.62
757.997	60.86
758.314	60.64
758.63	60.58
758.947	60.36
759.264	59.96
759.58	60.13
759.896	60.38
760.213	60.39
760.529	60.25
760.846	60
761.162	59.68
761.478	59.63
761.794	59.84
762.11	59.78
762.426	59.84
762.743	59.88
763.059	59.78
763.375	59.79
763.69	59.72
764.006	59.77
764.322	59.79
764.638	59.78
764.954	59.87
765.27	59.85
765.585	59.82
765.901	60.12
766.216	60.02
766.532	59.9
766.848	59.91
767.163	59.92
767.478	59.96
767.794	60.05
768.109	60.1
768.424	59.99
768.74	60.28
769.055	60.28
769.37	60.27
769.685	60.25
770	60.48
770.315	60.52
770.63	60.45
770.945	60.42
771.26	60.23
771.575	59.91
771.89	59.86
772.205	59.97
772.52	59.94
772.834	59.8
773.149	60.05
773.464	59.89
773.778	60.35
774.093	60.53
774.407	60.5
774.722	60.46
775.036	60.56
775.351	60.23
775.665	60.14
775.979	59.61
776.293	59.33
776.608	59.1
776.922	59.43
777.236	59.6
777.55	59.2
777.864	59.25
778.178	59.61
778.492	60.03
778.806	59.88
779.12	59.78
779.434	60.38
779.747	60.39
780.061	60.93
780.375	60.69
780.689	60.5
781.002	60.37
781.316	60.95
781.629	61.27
781.943	61.51
782.256	61.87
782.57	62.54
782.883	63.05
783.196	62.96
783.51	62.66
783.823	62.87
784.136	62.96
784.449	63.08
784.762	62.85
785.075	62.58
785.388	62.68
785.701	62.31
786.014	62.03
786.327	61.87
786.64	61.55
786.953	61.78
787.266	61.76
787.578	62.04
787.891	61.9
788.204	62.13
788.516	62.18
788.829	61.62
789.141	61.61
789.454	61.53
789.766	61.63
790.079	61.29
790.391	61.11
790.703	61.63
791.016	61.79
791.328	62.14
791.64	62.16
791.952	62.2
792.264	62.26
792.576	61.87
792.888	61.98
793.2	62.11
793.512	61.84
793.824	62.06
794.136	62.07
794.448	61.79
794.76	61.54
795.071	60.97
795.383	61.14
795.695	60.92
796.006	61.15
796.318	61.3
796.629	62.23
796.941	62.45
797.252	62.11
797.564	61.58
797.875	61.31
798.186	60.78
798.497	60.58
798.809	61.01
799.12	61.6
799.431	62.07
799.742	62.04
800.053	61.39
800.364	61.15
800.675	60.88
800.986	60.57
801.297	60.24
801.608	60.58
801.918	60.88
802.229	60.59
802.54	60.51
802.851	60.44
803.161	60.01
803.472	59.46
803.782	60.12
804.093	60.04
804.403	60.19
804.714	60.47
805.024	60.54
805.334	60.54
805.645	60.7
805.955	59.74
806.265	59.38
806.575	59.9
806.885	59.86
807.195	60.23
807.505	60.51
807.815	60.64
808.125	61.11
808.435	61.18
808.745	61.17
809.055	60.78
809.365	60.96
809.674	61.36
809.984	62.08
810.294	61.11
810.603	60.89
810.913	61.05
811.222	61.25
811.532	60.89
811.841	60.43
812.151	60.22
812.46	60.44
812.769	60.66
813.079	61.04
813.388	60.51
813.697	60.2
814.006	59.81
814.315	60.17
814.624	59.78
814.933	60.27
815.242	60.63
815.551	61.16
815.86	60.48
816.169	59.53
816.478	59.51
816.786	60.06
817.095	61.08
817.404	61.02
817.712	60.99
818.021	61.5
818.33	61.68
818.638	61.76
818.947	62.05
819.255	61.84
819.563	61.82
819.872	62.03
820.18	61.94
820.488	62.03
820.796	61.94
821.105	61.79
821.413	61.64
821.721	61.73
822.029	61.95
822.337	61.9
822.645	62.03
822.953	61.92
823.26	61.89
823.568	61.78
823.876	61.87
824.184	61.79
824.491	61.76
824.799	61.72
825.107	61.59
825.414	61.41
825.722	61.53
826.029	61.58
826.337	61.55
826.644	61.55
826.951	61.63
827.259	61.63
827.566	61.59
827.873	61.44
828.18	61.34
828.488	61.01
828.795	60.97
829.102	60.98
829.409	61.05
829.716	60.85
830.023	60.71
830.329	60.48
830.636	60.47
830.943	60.43
831.25	60.23
831.557	60.59
831.863	60.68
832.17	60.39
832.476	60.31
832.783	60.76
833.089	61.33
833.396	61.11
833.702	60.88
834.009	61.1
834.315	61.44
834.621	61.66
834.928	61.69
835.234	61.89
835.54	62.45
835.846	62.32
836.152	62.32
836.458	62.56
836.764	62.76
837.07	62.71
837.376	62.88
837.682	63.37
837.988	63.26
838.293	63.06
838.599	63.65
838.905	63.23
839.211	62.68
839.516	61.68
839.822	61.29
840.127	61.44
840.433	61.17
840.738	60.71
841.044	60.51
841.349	60.09
841.654	61.04
841.959	59.62
842.265	59.55
842.57	59.51
842.875	59.4
843.18	59.4
843.485	60.43
843.79	60.35
844.095	60.16
844.4	58.74
844.705	59.31
845.01	58.38
845.315	59.47
845.619	60.21
845.924	62.14
846.229	64.43
846.533	63.8
846.838	64.38
847.142	63.38
847.447	63.18
847.751	64.12
848.056	62.63
848.36	63.24
848.664	62.01
848.969	61.2
849.273	61.7
849.577	62.25
849.881	61.62
850.185	62.5
850.489	63.66
850.794	63.87
851.097	65.44
851.401	67.23
851.705	65.9
852.009	65.02
852.313	64.64
852.617	61.03
852.92	62.38
853.224	61.98
853.528	66.6
853.831	66.77
854.135	65.94
854.438	63.26
854.742	59.86
855.045	59.9
855.349	60.04
855.652	60.23
855.955	59.16
856.259	57.82
856.562	56.01
856.865	55.1
857.168	57.14
857.471	56.21
857.774	56.16
858.077	56.75
858.38	57.4
858.683	56.71
858.986	57.55
859.289	55.33
859.592	55.44
859.894	52.72
860.197	52.1
860.5	52.82
860.802	54.94
861.105	58
861.407	61.89
861.71	64.17
862.012	63.84
862.315	61.93
862.617	60.71
862.919	60.11
863.222	59.85
863.524	57.77
863.826	59.3
864.128	59.36
864.43	57.97
864.732	56.45
865.034	55.8
865.336	57.12
865.638	56.76
865.94	55.38
866.242	54.85
866.544	54.06
866.846	54.88
867.147	56.16
867.449	53.67
867.751	49.86
868.052	50.47
868.354	50.18
868.655	51.36
868.957	53.48
869.258	54.61
869.56	53.6
869.861	55.08
870.162	51.79
870.463	52.08
870.765	52.32
871.066	50.91
871.367	53.25
871.668	51.3
871.969	54.09
872.27	53.44
872.571	53.57
872.872	54.3
873.173	53.1
873.473	50.5
873.774	53.44
874.075	54.87
874.376	52.6
874.676	51.45
874.977	51.95
875.277	52.18
875.578	51.14
875.878	51.34
876.179	50.81
876.479	52.25
876.78	50.09
877.08	50.48
877.38	52.62
877.68	48.46
877.981	49.6
878.281	47.61
878.581	50.39
