Data from BA28306_Reflection_00001.txt Node
Date: Mon Nov 18 15:53:25 EST 2019
User: vgr7
Spectrometer: USB2G7710
Scans to average: 3
Trigger mode: 4
Integration Time (sec): 2.000000E-2
Electric dark correction enabled: true
Boxcar width: 10
XAxis mode: Wavelengths
Number of Pixels in Spectrum: 2048
>>>>>Begin Spectral Data<<<<<
177.721	-802.91
178.105	23.57
178.488	222.75
178.871	368.87
179.254	198.9
179.636	360.2
180.019	10.37
180.402	9.09
180.785	-101.04
181.168	-94.28
181.55	-126.96
181.933	214.8
182.316	249.57
182.698	276.72
183.081	381.33
183.463	837.34
183.846	2551.78
184.228	-2767.4
184.611	-4517.39
184.993	-850.96
185.376	-524.33
185.758	-1154.28
186.14	-659.77
186.522	-411.07
186.904	-367.57
187.287	-430.06
187.669	-340.53
188.051	-476.82
188.433	-291.14
188.815	-322.15
189.197	-300.13
189.579	-366.14
189.961	-281.37
190.342	-210.12
190.724	-170.41
191.106	-182.2
191.488	-168.43
191.869	-119.07
192.251	-202.85
192.633	-189.02
193.014	-202.87
193.396	-192.14
193.777	-155.59
194.159	-121.28
194.54	-145.9
194.922	-120.95
195.303	-107.02
195.684	-141.67
196.065	-128.78
196.447	-158.08
196.828	-235.88
197.209	-243.87
197.59	-238.68
197.971	-303.48
198.352	-202.44
198.733	-336.41
199.114	-228.94
199.495	-173.46
199.876	-160.19
200.257	-166.14
200.638	-105.24
201.018	-145.42
201.399	-151.1
201.78	-128.84
202.16	-153.24
202.541	-174.16
202.922	-270.23
203.302	-444.32
203.683	-430.82
204.063	-551.29
204.444	-445.21
204.824	-271.46
205.204	-223.08
205.585	-207.88
205.965	-183.3
206.345	-270.93
206.725	-215.46
207.106	-234.56
207.486	-391.36
207.866	-354.77
208.246	-327.59
208.626	-370.62
209.006	-230.19
209.386	-240.76
209.766	-218.83
210.145	-211.64
210.525	-164.51
210.905	-161.53
211.285	-103.87
211.664	-87.46
212.044	-84.57
212.424	-84
212.803	-90.06
213.183	-100.35
213.562	-108.12
213.942	-87.21
214.321	-74.56
214.701	-89.94
215.08	-79.43
215.459	-64.19
215.838	-64.44
216.218	-64.31
216.597	-63.93
216.976	-61.23
217.355	-54.64
217.734	-63.55
218.113	-59.14
218.492	-61.28
218.871	-75.86
219.25	-85.4
219.629	-78.41
220.008	-77.78
220.387	-66.02
220.766	-67.58
221.144	-62.91
221.523	-69.72
221.902	-75.25
222.28	-83.37
222.659	-66.8
223.037	-70.39
223.416	-81.94
223.794	-95.93
224.173	-92.49
224.551	-82.08
224.929	-89.05
225.308	-86.21
225.686	-60.51
226.064	-53.75
226.442	-47.01
226.821	-33.95
227.199	-29.01
227.577	-31.9
227.955	-27.75
228.333	-25.79
228.711	-19.33
229.089	-17.57
229.467	-16.22
229.845	-14.74
230.222	-13.28
230.6	-13.01
230.978	-11.21
231.356	-8.4
231.733	-6.89
232.111	-5.22
232.488	-4.18
232.866	-2.11
233.243	-1.19
233.621	-3.52
233.998	-2.49
234.376	-1.89
234.753	-1.59
235.13	-0.31
235.508	2.14
235.885	-0.03
236.262	-1.67
236.639	-3.11
237.016	-2.22
237.393	0.23
237.77	1.5
238.147	1.88
238.524	1.63
238.901	2.17
239.278	2.71
239.655	3.06
240.032	3.17
240.409	3.07
240.785	2.96
241.162	3.16
241.539	3.55
241.915	3.24
242.292	3.59
242.668	3.33
243.045	3
243.421	2.7
243.798	3.37
244.174	3.69
244.551	4.07
244.927	3.86
245.303	3.88
245.679	4.01
246.056	4.07
246.432	4.05
246.808	4
247.184	3.55
247.56	3.38
247.936	3.12
248.312	3.03
248.688	3.1
249.064	3.01
249.44	3.07
249.815	3.18
250.191	3.08
250.567	3.28
250.943	3.42
251.318	3.56
251.694	3.52
252.069	3.41
252.445	3.19
252.82	3.16
253.196	2.94
253.571	2.8
253.947	2.47
254.322	2.68
254.697	2.51
255.073	2.66
255.448	2.42
255.823	2.76
256.198	3.32
256.573	3.14
256.948	3.2
257.323	3.27
257.698	3.28
258.073	3.4
258.448	3.32
258.823	3.19
259.198	3.16
259.573	3.05
259.948	3.17
260.322	3.18
260.697	3.12
261.072	2.96
261.446	3.02
261.821	3.11
262.195	3.2
262.57	3.23
262.944	3.21
263.319	3.42
263.693	3.41
264.067	3.17
264.442	3.42
264.816	3.3
265.19	3.24
265.564	3.25
265.938	3.12
266.313	3.05
266.687	3.06
267.061	3.07
267.435	3.21
267.809	3.11
268.183	3.19
268.556	3.2
268.93	3.39
269.304	3.3
269.678	3.38
270.051	3.17
270.425	3.07
270.799	3.19
271.172	3.09
271.546	3.03
271.919	3.06
272.293	3.03
272.666	3.04
273.04	3.12
273.413	3.27
273.787	3.33
274.16	3.51
274.533	3.44
274.906	3.34
275.279	3.35
275.653	3.25
276.026	3.29
276.399	3.27
276.772	3.38
277.145	3.29
277.518	3.24
277.891	3.31
278.263	3.4
278.636	3.37
279.009	3.54
279.382	3.78
279.755	3.89
280.127	3.81
280.5	3.9
280.872	3.83
281.245	3.63
281.617	3.6
281.99	3.49
282.362	3.64
282.735	3.61
283.107	3.65
283.479	3.72
283.852	3.66
284.224	3.85
284.596	3.78
284.968	3.71
285.34	3.95
285.713	3.94
286.085	3.93
286.457	4.01
286.829	3.95
287.201	3.96
287.572	3.91
287.944	3.81
288.316	3.81
288.688	3.83
289.06	3.86
289.431	3.89
289.803	3.9
290.175	3.91
290.546	4.02
290.918	4
291.289	4.05
291.661	4.08
292.032	3.96
292.403	3.92
292.775	4.12
293.146	3.87
293.517	3.95
293.889	3.9
294.26	3.97
294.631	3.98
295.002	3.84
295.373	3.85
295.744	3.94
296.115	3.95
296.486	3.87
296.857	3.87
297.228	3.89
297.599	3.85
297.97	3.82
298.34	3.87
298.711	3.82
299.082	3.89
299.452	3.98
299.823	4
300.194	4.09
300.564	4.01
300.935	4.06
301.305	4.02
301.676	4.04
302.046	3.9
302.416	3.96
302.787	3.92
303.157	3.95
303.527	3.82
303.897	3.84
304.267	3.84
304.637	3.83
305.008	3.89
305.378	3.89
305.748	3.93
306.117	3.73
306.487	3.71
306.857	3.63
307.227	3.53
307.597	3.64
307.967	3.62
308.336	3.49
308.706	3.47
309.076	3.43
309.445	3.49
309.815	3.41
310.184	3.29
310.554	3.44
310.923	3.4
311.293	3.37
311.662	3.24
312.031	3.18
312.401	3.13
312.77	3.04
313.139	3.1
313.508	3.03
313.877	3.05
314.246	3.04
314.616	2.95
314.985	2.91
315.353	2.76
315.722	2.77
316.091	2.81
316.46	2.84
316.829	2.92
317.198	2.77
317.567	2.91
317.935	2.95
318.304	2.83
318.672	2.83
319.041	3.06
319.41	3.12
319.778	3.37
320.147	3.4
320.515	3.38
320.883	3.25
321.252	3.35
321.62	3.54
321.988	3.62
322.357	3.79
322.725	3.76
323.093	3.75
323.461	3.71
323.829	3.69
324.197	3.52
324.565	3.52
324.933	3.62
325.301	3.59
325.669	3.7
326.037	3.69
326.405	3.58
326.772	3.45
327.14	3.52
327.508	3.35
327.875	3.2
328.243	3.29
328.61	3.28
328.978	3.3
329.346	3.27
329.713	3.17
330.08	2.97
330.448	2.89
330.815	2.86
331.182	2.86
331.55	2.95
331.917	3.12
332.284	3.18
332.651	3.2
333.018	3.18
333.385	3.09
333.752	3.1
334.119	3.23
334.486	3.27
334.853	3.24
335.22	3.2
335.587	3.34
335.954	3.2
336.32	3.3
336.687	3.29
337.054	3.27
337.42	3.33
337.787	3.43
338.153	3.57
338.52	3.67
338.886	3.61
339.253	3.58
339.619	3.54
339.986	3.51
340.352	3.55
340.718	3.42
341.084	3.39
341.451	3.44
341.817	3.42
342.183	3.44
342.549	3.39
342.915	3.51
343.281	3.49
343.647	3.55
344.013	3.52
344.379	3.49
344.745	3.57
345.11	3.49
345.476	3.52
345.842	3.58
346.208	3.49
346.573	3.56
346.939	3.64
347.304	3.66
347.67	3.56
348.035	3.54
348.401	3.64
348.766	3.63
349.132	3.49
349.497	3.51
349.862	3.51
350.228	3.54
350.593	3.49
350.958	3.56
351.323	3.67
351.688	3.62
352.053	3.56
352.418	3.52
352.783	3.6
353.148	3.48
353.513	3.39
353.878	3.45
354.243	3.44
354.608	3.39
354.972	3.33
355.337	3.4
355.702	3.37
356.066	3.43
356.431	3.43
356.795	3.52
357.16	3.49
357.524	3.45
357.889	3.47
358.253	3.51
358.618	3.5
358.982	3.43
359.346	3.39
359.71	3.39
360.075	3.36
360.439	3.36
360.803	3.46
361.167	3.48
361.531	3.49
361.895	3.42
362.259	3.36
362.623	3.42
362.987	3.39
363.351	3.32
363.714	3.3
364.078	3.29
364.442	3.28
364.806	3.25
365.169	3.31
365.533	3.33
365.896	3.3
366.26	3.23
366.623	3.25
366.987	3.25
367.35	3.3
367.714	3.36
368.077	3.31
368.44	3.26
368.803	3.21
369.167	3.09
369.53	3.08
369.893	3.18
370.256	3.18
370.619	3.18
370.982	3.21
371.345	3.22
371.708	3.32
372.071	3.28
372.434	3.29
372.797	3.34
373.159	3.31
373.522	3.32
373.885	3.34
374.247	3.36
374.61	3.44
374.973	3.43
375.335	3.35
375.698	3.41
376.06	3.45
376.423	3.51
376.785	3.6
377.147	3.65
377.51	3.61
377.872	3.64
378.234	3.69
378.596	3.75
378.958	3.69
379.321	3.6
379.683	3.58
380.045	3.59
380.407	3.5
380.769	3.5
381.13	3.48
381.492	3.53
381.854	3.5
382.216	3.44
382.578	3.43
382.939	3.42
383.301	3.39
383.663	3.34
384.024	3.31
384.386	3.29
384.747	3.29
385.109	3.32
385.47	3.27
385.832	3.24
386.193	3.26
386.554	3.3
386.916	3.32
387.277	3.42
387.638	3.44
387.999	3.39
388.36	3.42
388.721	3.48
389.082	3.46
389.443	3.48
389.804	3.49
390.165	3.48
390.526	3.53
390.887	3.54
391.248	3.59
391.609	3.6
391.969	3.62
392.33	3.62
392.691	3.6
393.051	3.61
393.412	3.6
393.772	3.59
394.133	3.59
394.493	3.61
394.854	3.56
395.214	3.54
395.574	3.56
395.935	3.53
396.295	3.5
396.655	3.5
397.015	3.47
397.376	3.48
397.736	3.49
398.096	3.52
398.456	3.5
398.816	3.47
399.176	3.45
399.535	3.45
399.895	3.42
400.255	3.42
400.615	3.45
400.975	3.46
401.334	3.45
401.694	3.45
402.054	3.41
402.413	3.4
402.773	3.39
403.132	3.41
403.492	3.43
403.851	3.45
404.211	3.46
404.57	3.46
404.929	3.47
405.288	3.48
405.648	3.42
406.007	3.43
406.366	3.42
406.725	3.43
407.084	3.41
407.443	3.43
407.802	3.45
408.161	3.41
408.52	3.42
408.879	3.41
409.238	3.43
409.596	3.46
409.955	3.49
410.314	3.5
410.673	3.51
411.031	3.51
411.39	3.49
411.748	3.48
412.107	3.5
412.465	3.51
412.824	3.48
413.182	3.52
413.54	3.55
413.899	3.56
414.257	3.56
414.615	3.57
414.974	3.58
415.332	3.56
415.69	3.57
416.048	3.58
416.406	3.59
416.764	3.57
417.122	3.57
417.48	3.53
417.838	3.55
418.195	3.53
418.553	3.53
418.911	3.54
419.269	3.54
419.626	3.52
419.984	3.51
420.342	3.53
420.699	3.52
421.057	3.51
421.414	3.51
421.772	3.5
422.129	3.51
422.486	3.51
422.844	3.52
423.201	3.52
423.558	3.51
423.915	3.5
424.273	3.51
424.63	3.5
424.987	3.53
425.344	3.52
425.701	3.54
426.058	3.54
426.415	3.53
426.772	3.53
427.128	3.52
427.485	3.53
427.842	3.52
428.199	3.53
428.555	3.54
428.912	3.55
429.269	3.56
429.625	3.56
429.982	3.55
430.338	3.53
430.695	3.53
431.051	3.55
431.407	3.55
431.764	3.54
432.12	3.54
432.476	3.52
432.832	3.51
433.189	3.52
433.545	3.49
433.901	3.5
434.257	3.5
434.613	3.53
434.969	3.54
435.325	3.53
435.681	3.55
436.036	3.52
436.392	3.51
436.748	3.5
437.104	3.49
437.459	3.5
437.815	3.51
438.171	3.52
438.526	3.52
438.882	3.53
439.237	3.53
439.593	3.54
439.948	3.55
440.304	3.56
440.659	3.54
441.014	3.55
441.369	3.53
441.725	3.54
442.08	3.54
442.435	3.52
442.79	3.52
443.145	3.51
443.5	3.52
443.855	3.5
444.21	3.5
444.565	3.51
444.92	3.52
445.275	3.51
445.629	3.51
445.984	3.5
446.339	3.48
446.693	3.47
447.048	3.47
447.403	3.45
447.757	3.45
448.112	3.45
448.466	3.44
448.82	3.46
449.175	3.45
449.529	3.45
449.883	3.44
450.238	3.44
450.592	3.45
450.946	3.44
451.3	3.45
451.654	3.46
452.008	3.46
452.362	3.45
452.716	3.46
453.07	3.46
453.424	3.46
453.778	3.46
454.132	3.46
454.486	3.45
454.839	3.48
455.193	3.46
455.547	3.49
455.9	3.51
456.254	3.5
456.607	3.51
456.961	3.51
457.314	3.53
457.668	3.55
458.021	3.53
458.375	3.54
458.728	3.58
459.081	3.58
459.434	3.58
459.787	3.58
460.141	3.59
460.494	3.6
460.847	3.61
461.2	3.61
461.553	3.62
461.906	3.63
462.259	3.62
462.611	3.63
462.964	3.62
463.317	3.63
463.67	3.62
464.022	3.61
464.375	3.61
464.728	3.61
465.08	3.61
465.433	3.62
465.785	3.61
466.138	3.6
466.49	3.61
466.843	3.6
467.195	3.6
467.547	3.61
467.899	3.61
468.252	3.62
468.604	3.62
468.956	3.61
469.308	3.6
469.66	3.57
470.012	3.56
470.364	3.57
470.716	3.55
471.068	3.57
471.42	3.57
471.772	3.6
472.123	3.61
472.475	3.62
472.827	3.61
473.178	3.61
473.53	3.59
473.882	3.57
474.233	3.58
474.585	3.56
474.936	3.55
475.288	3.55
475.639	3.54
475.99	3.55
476.342	3.54
476.693	3.57
477.044	3.6
477.395	3.63
477.746	3.64
478.097	3.65
478.448	3.66
478.8	3.67
479.15	3.64
479.501	3.63
479.852	3.63
480.203	3.63
480.554	3.65
480.905	3.66
481.255	3.68
481.606	3.69
481.957	3.72
482.307	3.72
482.658	3.72
483.009	3.72
483.359	3.72
483.709	3.73
484.06	3.73
484.41	3.73
484.761	3.74
485.111	3.74
485.461	3.75
485.811	3.74
486.162	3.74
486.512	3.75
486.862	3.76
487.212	3.75
487.562	3.76
487.912	3.76
488.262	3.76
488.612	3.76
488.961	3.75
489.311	3.74
489.661	3.74
490.011	3.75
490.36	3.75
490.71	3.76
491.06	3.76
491.409	3.76
491.759	3.76
492.108	3.74
492.458	3.74
492.807	3.73
493.157	3.75
493.506	3.76
493.855	3.77
494.204	3.77
494.554	3.77
494.903	3.78
495.252	3.78
495.601	3.78
495.95	3.78
496.299	3.78
496.648	3.76
496.997	3.77
497.346	3.78
497.695	3.8
498.043	3.8
498.392	3.77
498.741	3.78
499.09	3.77
499.438	3.79
499.787	3.79
500.135	3.8
500.484	3.79
500.832	3.78
501.181	3.77
501.529	3.79
501.878	3.8
502.226	3.8
502.574	3.78
502.923	3.8
503.271	3.8
503.619	3.83
503.967	3.85
504.315	3.84
504.663	3.85
505.011	3.85
505.359	3.83
505.707	3.85
506.055	3.85
506.403	3.85
506.751	3.83
507.098	3.85
507.446	3.86
507.794	3.86
508.141	3.88
508.489	3.87
508.837	3.86
509.184	3.88
509.531	3.87
509.879	3.91
510.226	3.91
510.574	3.92
510.921	3.93
511.268	3.91
511.616	3.92
511.963	3.93
512.31	3.94
512.657	3.95
513.004	3.98
513.351	3.98
513.698	4
514.045	4
514.392	3.99
514.739	3.99
515.086	4.02
515.432	4.02
515.779	4
516.126	4.01
516.473	4.01
516.819	4.01
517.166	4.01
517.512	4.03
517.859	4.05
518.205	4.03
518.552	4.07
518.898	4.06
519.245	4.06
519.591	4.05
519.937	4.03
520.283	4.02
520.629	4.01
520.976	4.02
521.322	4.02
521.668	4.03
522.014	4.02
522.36	4
522.706	4
523.052	4.03
523.398	4.04
523.743	4.05
524.089	4.06
524.435	4.07
524.781	4.06
525.126	4.04
525.472	4.06
525.817	4.04
526.163	4.05
526.509	4.06
526.854	4.07
527.199	4.08
527.545	4.08
527.89	4.09
528.235	4.09
528.581	4.1
528.926	4.12
529.271	4.12
529.616	4.12
529.961	4.12
530.306	4.13
530.651	4.12
530.996	4.11
531.341	4.1
531.686	4.09
532.031	4.09
532.376	4.11
532.721	4.11
533.065	4.12
533.41	4.11
533.755	4.1
534.099	4.11
534.444	4.11
534.788	4.12
535.133	4.12
535.477	4.11
535.822	4.11
536.166	4.09
536.51	4.11
536.855	4.11
537.199	4.12
537.543	4.12
537.887	4.12
538.231	4.12
538.576	4.13
538.92	4.15
539.264	4.15
539.608	4.15
539.951	4.16
540.295	4.15
540.639	4.15
540.983	4.16
541.327	4.15
541.671	4.15
542.014	4.13
542.358	4.12
542.701	4.12
543.045	4.13
543.389	4.15
543.732	4.13
544.075	4.15
544.419	4.15
544.762	4.14
545.105	4.15
545.449	4.18
545.792	4.19
546.135	4.18
546.478	4.18
546.821	4.16
547.165	4.17
547.508	4.19
547.851	4.19
548.194	4.19
548.536	4.21
548.879	4.23
549.222	4.25
549.565	4.29
549.908	4.3
550.25	4.28
550.593	4.26
550.936	4.26
551.278	4.26
551.621	4.25
551.963	4.27
552.306	4.26
552.648	4.25
552.991	4.26
553.333	4.27
553.675	4.27
554.017	4.27
554.36	4.26
554.702	4.23
555.044	4.25
555.386	4.26
555.728	4.26
556.07	4.27
556.412	4.27
556.754	4.25
557.096	4.25
557.438	4.26
557.78	4.26
558.121	4.29
558.463	4.29
558.805	4.3
559.147	4.29
559.488	4.33
559.83	4.34
560.171	4.31
560.513	4.31
560.854	4.31
561.196	4.33
561.537	4.34
561.878	4.35
562.22	4.37
562.561	4.34
562.902	4.34
563.243	4.29
563.584	4.29
563.925	4.29
564.266	4.26
564.607	4.25
564.948	4.26
565.289	4.24
565.63	4.23
565.971	4.24
566.312	4.25
566.653	4.23
566.993	4.22
567.334	4.22
567.675	4.23
568.015	4.25
568.356	4.25
568.696	4.24
569.037	4.23
569.377	4.23
569.718	4.25
570.058	4.25
570.398	4.26
570.739	4.27
571.079	4.28
571.419	4.3
571.759	4.31
572.099	4.31
572.439	4.33
572.779	4.35
573.119	4.36
573.459	4.37
573.799	4.38
574.139	4.38
574.479	4.38
574.819	4.36
575.158	4.35
575.498	4.35
575.838	4.35
576.177	4.34
576.517	4.33
576.856	4.34
577.196	4.35
577.535	4.35
577.875	4.36
578.214	4.38
578.553	4.37
578.893	4.36
579.232	4.35
579.571	4.34
579.91	4.3
580.25	4.3
580.589	4.26
580.928	4.27
581.267	4.28
581.606	4.27
581.945	4.27
582.283	4.27
582.622	4.27
582.961	4.3
583.3	4.32
583.639	4.36
583.977	4.35
584.316	4.33
584.654	4.34
584.993	4.34
585.332	4.33
585.67	4.35
586.008	4.37
586.347	4.36
586.685	4.35
587.024	4.37
587.362	4.38
587.7	4.42
588.038	4.43
588.376	4.43
588.715	4.43
589.053	4.47
589.391	4.46
589.729	4.46
590.067	4.42
590.404	4.46
590.742	4.41
591.08	4.38
591.418	4.39
591.756	4.39
592.093	4.42
592.431	4.44
592.769	4.46
593.106	4.49
593.444	4.49
593.781	4.53
594.119	4.53
594.456	4.51
594.793	4.51
595.131	4.5
595.468	4.5
595.805	4.53
596.143	4.53
596.48	4.57
596.817	4.57
597.154	4.58
597.491	4.55
597.828	4.58
598.165	4.57
598.502	4.58
598.839	4.6
599.176	4.55
599.512	4.55
599.849	4.54
600.186	4.5
600.523	4.52
600.859	4.52
601.196	4.51
601.532	4.53
601.869	4.52
602.205	4.51
602.542	4.55
602.878	4.52
603.215	4.53
603.551	4.51
603.887	4.52
604.223	4.53
604.56	4.56
604.896	4.56
605.232	4.6
605.568	4.6
605.904	4.59
606.24	4.63
606.576	4.61
606.912	4.6
607.248	4.58
607.583	4.59
607.919	4.58
608.255	4.59
608.591	4.63
608.926	4.64
609.262	4.65
609.597	4.66
609.933	4.69
610.268	4.67
610.604	4.67
610.939	4.66
611.275	4.67
611.61	4.64
611.945	4.64
612.281	4.65
612.616	4.64
612.951	4.64
613.286	4.63
613.621	4.65
613.956	4.67
614.291	4.7
614.626	4.69
614.961	4.68
615.296	4.65
615.631	4.63
615.966	4.61
616.3	4.57
616.635	4.53
616.97	4.47
617.304	4.48
617.639	4.46
617.973	4.46
618.308	4.4
618.642	4.42
618.977	4.37
619.311	4.36
619.646	4.39
619.98	4.42
620.314	4.45
620.648	4.48
620.983	4.51
621.317	4.54
621.651	4.54
621.985	4.57
622.319	4.6
622.653	4.59
622.987	4.64
623.321	4.67
623.655	4.68
623.988	4.78
624.322	4.75
624.656	4.81
624.99	4.84
625.323	4.87
625.657	4.89
625.99	4.9
626.324	4.88
626.657	4.9
626.991	4.88
627.324	4.85
627.658	4.83
627.991	4.81
628.324	4.81
628.657	4.86
628.991	4.84
629.324	4.88
629.657	4.87
629.99	4.84
630.323	4.87
630.656	4.88
630.989	4.91
631.322	4.96
631.655	4.92
631.987	4.98
632.32	5.02
632.653	4.95
632.986	4.97
633.318	4.98
633.651	4.93
633.984	4.95
634.316	4.98
634.649	4.99
634.981	4.97
635.313	4.92
635.646	4.85
635.978	4.87
636.31	4.83
636.643	4.8
636.975	4.79
637.307	4.77
637.639	4.71
637.971	4.65
638.303	4.6
638.635	4.55
638.967	4.44
639.299	4.44
639.631	4.44
639.963	4.43
640.295	4.41
640.626	4.43
640.958	4.48
641.29	4.42
641.621	4.47
641.953	4.48
642.285	4.5
642.616	4.53
642.948	4.58
643.279	4.54
643.61	4.6
643.942	4.62
644.273	4.62
644.604	4.64
644.936	4.62
645.267	4.68
645.598	4.78
645.929	4.82
646.26	4.78
646.591	4.82
646.922	4.81
647.253	4.85
647.584	4.83
647.915	4.81
648.245	4.8
648.576	4.73
648.907	4.74
649.238	4.75
649.568	4.77
649.899	4.72
650.229	4.77
650.56	4.7
650.89	4.73
651.221	4.72
651.551	4.72
651.882	4.72
652.212	4.66
652.542	4.63
652.872	4.58
653.203	4.6
653.533	4.66
653.863	4.69
654.193	4.66
654.523	4.68
654.853	4.67
655.183	4.71
655.513	4.75
655.843	4.75
656.172	4.76
656.502	4.79
656.832	4.74
657.162	4.8
657.491	4.84
657.821	4.86
658.15	4.91
658.48	4.92
658.809	4.98
659.139	5.01
659.468	4.98
659.798	5.04
660.127	5.09
660.456	5.1
660.785	5.09
661.115	5.16
661.444	5.2
661.773	5.25
662.102	5.24
662.431	5.25
662.76	5.25
663.089	5.24
663.418	5.22
663.747	5.29
664.076	5.26
664.404	5.22
664.733	5.25
665.062	5.18
665.39	5.13
665.719	5.06
666.048	5.04
666.376	5.06
666.705	5.04
667.033	4.94
667.362	4.87
667.69	4.88
668.018	4.9
668.347	4.94
668.675	4.84
669.003	4.9
669.331	4.99
669.659	4.95
669.987	5
670.315	5.02
670.643	5
670.971	4.99
671.299	5.13
671.627	5.09
671.955	5.17
672.283	5.25
672.61	5.33
672.938	5.45
673.266	5.4
673.593	5.4
673.921	5.5
674.249	5.53
674.576	5.54
674.904	5.52
675.231	5.48
675.558	5.52
675.886	5.56
676.213	5.53
676.54	5.55
676.867	5.56
677.195	5.51
677.522	5.57
677.849	5.58
678.176	5.46
678.503	5.45
678.83	5.4
679.157	5.37
679.484	5.31
679.81	5.27
680.137	5.32
680.464	5.29
680.791	5.24
681.117	5.24
681.444	5.23
681.771	5.19
682.097	5.18
682.424	5.22
682.75	5.18
683.077	5.14
683.403	5.21
683.729	5.2
684.056	5.27
684.382	5.32
684.708	5.34
685.034	5.44
685.36	5.43
685.686	5.44
686.012	5.48
686.339	5.56
686.664	5.6
686.99	5.56
687.316	5.64
687.642	5.66
687.968	5.71
688.294	5.77
688.619	5.81
688.945	5.77
689.271	5.71
689.596	5.63
689.922	5.69
690.247	5.65
690.573	5.6
690.898	5.5
691.224	5.38
691.549	5.37
691.874	5.36
692.2	5.34
692.525	5.37
692.85	5.44
693.175	5.38
693.5	5.29
693.825	5.38
694.15	5.37
694.475	5.41
694.8	5.37
695.125	5.39
695.45	5.4
695.775	5.44
696.099	5.53
696.424	5.45
696.749	5.39
697.073	5.44
697.398	5.44
697.723	5.56
698.047	5.57
698.372	5.56
698.696	5.55
699.02	5.54
699.345	5.6
699.669	5.6
699.993	5.68
700.318	5.69
700.642	5.7
700.966	5.66
701.29	5.59
701.614	5.62
701.938	5.55
702.262	5.59
702.586	5.63
702.91	5.64
703.234	5.78
703.557	5.81
703.881	5.79
704.205	5.93
704.529	5.76
704.852	5.83
705.176	5.9
705.499	5.86
705.823	5.78
706.146	5.59
706.47	5.49
706.793	5.46
707.117	5.52
707.44	5.38
707.763	5.44
708.086	5.36
708.409	5.35
708.733	5.33
709.056	5.22
709.379	5.23
709.702	5.11
710.025	5.15
710.348	5.14
710.671	5.08
710.993	5.2
711.316	5.38
711.639	5.3
711.962	5.26
712.284	5.24
712.607	5.31
712.93	5.48
713.252	5.46
713.575	5.47
713.897	5.51
714.22	5.56
714.542	5.6
714.864	5.75
715.187	5.66
715.509	5.73
715.831	5.89
716.153	6.02
716.475	6.07
716.798	6.13
717.12	6.17
717.442	6.25
717.764	6.06
718.085	6.04
718.407	6.07
718.729	6.11
719.051	6.22
719.373	6.22
719.695	6.17
720.016	6.23
720.338	6.03
720.659	5.9
720.981	5.78
721.302	5.64
721.624	5.62
721.945	5.85
722.267	5.78
722.588	5.63
722.909	5.34
723.231	5.35
723.552	5.28
723.873	5.33
724.194	5.21
724.515	5.32
724.836	5.3
725.157	5.44
725.478	5.35
725.799	5.58
726.12	5.63
726.441	5.61
726.762	5.7
727.083	5.81
727.403	5.96
727.724	6.25
728.045	6.34
728.365	6.44
728.686	6.16
729.006	6.27
729.327	6.31
729.647	6.54
729.967	6.63
730.288	6.62
730.608	6.51
730.928	6.64
731.249	6.6
731.569	6.62
731.889	6.66
732.209	6.71
732.529	6.63
732.849	6.73
733.169	6.75
733.489	6.71
733.809	6.67
734.129	6.52
734.448	6.43
734.768	6.43
735.088	6.36
735.408	6.58
735.727	6.6
736.047	6.59
736.366	6.51
736.686	6.44
737.005	6.53
737.325	6.67
737.644	6.53
737.963	6.53
738.283	6.39
738.602	6.07
738.921	6.17
739.24	6.06
739.56	5.79
739.879	5.88
740.198	5.94
740.517	6.08
740.836	6.28
741.155	6.42
741.473	6.34
741.792	6.28
742.111	6.4
742.43	6.3
742.748	6.37
743.067	6.5
743.386	6.46
743.704	6.42
744.023	6.43
744.341	6.35
744.66	6.43
744.978	6.36
745.297	6.52
745.615	6.35
745.933	6.28
746.252	6.61
746.57	6.46
746.888	6.34
747.206	6.25
747.524	6.08
747.842	5.97
748.16	6.2
748.478	6.41
748.796	6.42
749.114	6.85
749.432	6.81
749.749	6.79
750.067	6.72
750.385	6.46
750.703	6.28
751.02	6.44
751.338	6.26
751.655	6.36
751.973	6.46
752.29	6.68
752.608	6.6
752.925	6.47
753.242	6.72
753.56	6.83
753.877	6.95
754.194	7.44
754.511	7.54
754.828	7.49
755.145	7.22
755.462	7.15
755.779	7.07
756.096	6.94
756.413	6.8
756.73	6.9
757.047	7.01
757.364	6.9
757.68	7.07
757.997	7.09
758.314	7.07
758.63	7.02
758.947	6.96
759.264	6.97
759.58	7.2
759.896	7.19
760.213	7.22
760.529	7.22
760.846	7.08
761.162	7.01
761.478	7.04
761.794	7.08
762.11	7
762.426	6.78
762.743	6.83
763.059	6.99
763.375	7.05
763.69	7.14
764.006	7.36
764.322	7.36
764.638	7.59
764.954	7.71
765.27	7.74
765.585	7.72
765.901	7.66
766.216	7.53
766.532	7.3
766.848	7.16
767.163	7.15
767.478	7.16
767.794	7.04
768.109	6.9
768.424	7.08
768.74	7.17
769.055	7.2
769.37	7.39
769.685	6.92
770	7.04
770.315	6.95
770.63	7.02
770.945	6.97
771.26	6.87
771.575	6.91
771.89	7.05
772.205	6.99
772.52	7.07
772.834	7.09
773.149	7.1
773.464	7.38
773.778	7.72
774.093	7.13
774.407	7.13
774.722	7.24
775.036	7.27
775.351	7.36
775.665	7.25
775.979	6.96
776.293	7.26
776.608	7.23
776.922	7.28
777.236	7.21
777.55	7.04
777.864	6.82
778.178	7.05
778.492	6.87
778.806	6.84
779.12	7.14
779.434	7.32
779.747	7.57
780.061	7.45
780.375	7.09
780.689	7.56
781.002	7.54
781.316	7.73
781.629	8.07
781.943	8.1
782.256	8.47
782.57	8.68
782.883	8.87
783.196	8.63
783.51	8.66
783.823	8.61
784.136	8.83
784.449	9.26
784.762	9.17
785.075	9.15
785.388	9.13
785.701	8.97
786.014	8.71
786.327	8.84
786.64	9.18
786.953	9.21
787.266	8.92
787.578	9.42
787.891	9.28
788.204	8.68
788.516	8.75
788.829	8.45
789.141	8.62
789.454	8.6
789.766	8.84
790.079	9.04
790.391	9.09
790.703	9.21
791.016	8.85
791.328	8.89
791.64	8.81
791.952	8.95
792.264	8.75
792.576	8.48
792.888	8.21
793.2	8.24
793.512	7.97
793.824	8.02
794.136	7.75
794.448	7.6
794.76	7.7
795.071	7.44
795.383	6.93
795.695	6.84
796.006	6.55
796.318	6.45
796.629	6.61
796.941	6.7
797.252	6.57
797.564	6.83
797.875	6.47
798.186	6.52
798.497	6.26
798.809	6.18
799.12	6.66
799.431	7.23
799.742	7.27
800.053	7.8
800.364	8.19
800.675	7.82
800.986	7.92
801.297	7.76
801.608	7.76
801.918	8.41
802.229	8.05
802.54	7.59
802.851	7.02
803.161	6.44
803.472	5.99
803.782	6.17
804.093	5.83
804.403	5.66
804.714	6
805.024	5.91
805.334	6.66
805.645	6.96
805.955	6.42
806.265	6.22
806.575	5.73
806.885	5.77
807.195	6.26
807.505	6.48
807.815	6.37
808.125	6.13
808.435	5.96
808.745	5.93
809.055	7.02
809.365	7.43
809.674	8.07
809.984	7.89
810.294	7.44
810.603	7.93
810.913	7.96
811.222	7.97
811.532	8.64
811.841	8.57
812.151	8.59
812.46	8.57
812.769	8.72
813.079	9.05
813.388	8.84
813.697	9.39
814.006	9.2
814.315	9.85
814.624	10.15
814.933	10.84
815.242	10.99
815.551	10.78
815.86	10.82
816.169	10.65
816.478	11.21
816.786	11.41
817.095	10.98
817.404	11.84
817.712	11.16
818.021	10.95
818.33	10.48
818.638	10.14
818.947	10.57
819.255	10.49
819.563	10.16
819.872	10.13
820.18	9.94
820.488	9.84
820.796	9.68
821.105	9.7
821.413	9.46
821.721	9.57
822.029	9.68
822.337	9.86
822.645	9.9
822.953	9.84
823.26	9.93
823.568	9.82
823.876	9.89
824.184	9.98
824.491	9.98
824.799	10.01
825.107	10.02
825.414	10.03
825.722	10.11
826.029	10.32
826.337	10.35
826.644	10.38
826.951	10.35
827.259	10.43
827.566	10.42
827.873	10.6
828.18	10.69
828.488	10.56
828.795	10.55
829.102	10.48
829.409	10.66
829.716	10.66
830.023	10.92
830.329	10.8
830.636	10.93
830.943	10.71
831.25	10.71
831.557	10.84
831.863	10.54
832.17	10.1
832.476	9.85
832.783	9.95
833.089	9.99
833.396	10.1
833.702	9.92
834.009	9.96
834.315	10.05
834.621	10.06
834.928	10.3
835.234	10.12
835.54	10.12
835.846	10.39
836.152	10.34
836.458	10.15
836.764	9.64
837.07	9.56
837.376	9.51
837.682	9.77
837.988	9.6
838.293	9.63
838.599	9.84
838.905	9.4
839.211	8.83
839.516	8.93
839.822	9.25
840.127	9.96
840.433	9.71
840.738	9.15
841.044	9.08
841.349	8.61
841.654	8.88
841.959	8.52
842.265	8.15
842.57	8.82
842.875	9.14
843.18	9.42
843.485	9.76
843.79	10.65
844.095	9.64
844.4	10.19
844.705	9.06
845.01	8.92
845.315	9.85
845.619	9.79
845.924	8.66
846.229	7.91
846.533	7.55
846.838	8.03
847.142	8.27
847.447	7.33
847.751	6.79
848.056	3.69
848.36	4.4
848.664	3.23
848.969	1.09
849.273	-0.51
849.577	0.03
849.881	-0.96
850.185	-2.11
850.489	-0.04
850.794	-2.19
851.097	0.5
851.401	0.68
851.705	-0.12
852.009	1.17
852.313	0.13
852.617	1.28
852.92	0.7
853.224	0.39
853.528	0.48
853.831	0
854.135	0.39
854.438	3.33
854.742	0.86
855.045	1.23
855.349	2.69
855.652	3.99
855.955	2.87
856.259	3.92
856.562	5.82
856.865	2.59
857.168	3.26
857.471	1.58
857.774	1.33
858.077	0.55
858.38	-0.01
858.683	2.44
858.986	3.49
859.289	3.6
859.592	2.93
859.894	3.84
860.197	3.39
860.5	5.51
860.802	4.71
861.105	7.77
861.407	6.05
861.71	5.95
862.012	5.21
862.315	6.15
862.617	4.82
862.919	3.13
863.222	6.72
863.524	6.51
863.826	6.91
864.128	6.69
864.43	8.27
864.732	9.77
865.034	9.02
865.336	6
865.638	5.77
865.94	5.76
866.242	3.39
866.544	5.33
866.846	4.31
867.147	5.37
867.449	5.84
867.751	5.32
868.052	5.23
868.354	7.67
868.655	7.48
868.957	9.05
869.258	9.68
869.56	8.89
869.861	10.48
870.162	12.11
870.463	12.26
870.765	11.84
871.066	11.62
871.367	10.38
871.668	12.32
871.969	11.56
872.27	11.2
872.571	12.51
872.872	11.23
873.173	8.48
873.473	6.51
873.774	4.82
874.075	5.62
874.376	6.01
874.676	6.38
874.977	3.52
875.277	5.5
875.578	5.06
875.878	4.12
876.179	3.1
876.479	1.17
876.78	0.61
877.08	0.56
877.38	-1.33
877.68	-0.62
877.981	-2.1
878.281	-1.71
878.581	-0.19
