Data from BA28420_Reflection_00015.txt Node
Date: Mon Nov 18 16:08:45 EST 2019
User: vgr7
Spectrometer: USB2G7710
Scans to average: 3
Trigger mode: 4
Integration Time (sec): 2.000000E-2
Electric dark correction enabled: true
Boxcar width: 10
XAxis mode: Wavelengths
Number of Pixels in Spectrum: 2048
>>>>>Begin Spectral Data<<<<<
177.721	-11.99
178.105	417.46
178.488	-976.02
178.871	-59.13
179.254	-108.07
179.636	-3.17
180.019	92.53
180.402	-16.67
180.785	-229.97
181.168	-280.34
181.55	-474.71
181.933	131.15
182.316	135.94
182.698	192.15
183.081	233.33
183.463	166.51
183.846	112.37
184.228	88.41
184.611	135.09
184.993	107.35
185.376	133.21
185.758	-16788.89
186.14	553.07
186.522	796.52
186.904	-610.62
187.287	1244.65
187.669	-1314.14
188.051	239.62
188.433	293.67
188.815	115.93
189.197	108.31
189.579	195.73
189.961	102.74
190.342	134.14
190.724	102.5
191.106	119.78
191.488	252.14
191.869	345.86
192.251	682.38
192.633	328.16
193.014	155.44
193.396	121.22
193.777	80.16
194.159	96.23
194.54	82.48
194.922	63.94
195.303	47.67
195.684	66.86
196.065	52.97
196.447	26.48
196.828	121.51
197.209	118.37
197.59	127.14
197.971	203.95
198.352	-250.09
198.733	-320.22
199.114	-336.78
199.495	-148.64
199.876	-118.2
200.257	-78.31
200.638	-59.28
201.018	-56.77
201.399	-42.18
201.78	-35.84
202.16	-34.19
202.541	-67.19
202.922	-101.05
203.302	-112.5
203.683	-87.86
204.063	-110.45
204.444	-95.49
204.824	-55.87
205.204	-70.08
205.585	-83.21
205.965	-85.62
206.345	-112.58
206.725	-135.9
207.106	-147.78
207.486	-379.82
207.866	-256.42
208.246	-368.18
208.626	-447.34
209.006	-286.83
209.386	-445.27
209.766	-472.62
210.145	-923.35
210.525	-356.4
210.905	-224.44
211.285	-243.86
211.664	-346.65
212.044	-505.65
212.424	-424.52
212.803	-799.82
213.183	-400.51
213.562	-259.79
213.942	-184.81
214.321	-163.47
214.701	-188.32
215.08	-166.67
215.459	-123.61
215.838	-154.06
216.218	-137.77
216.597	-100.95
216.976	-103.09
217.355	-59.49
217.734	-52
218.113	-22.55
218.492	-27.68
218.871	-37.55
219.25	-8.26
219.629	-1.86
220.008	-9.75
220.387	-13.81
220.766	-4.77
221.144	-21.51
221.523	-29.82
221.902	-48.7
222.28	-32.86
222.659	-10.71
223.037	-15.11
223.416	-20.62
223.794	-14.69
224.173	-9.88
224.551	-7.8
224.929	-6.85
225.308	-9.53
225.686	-7.19
226.064	-15.98
226.442	-7.55
226.821	-3.68
227.199	-6.38
227.577	-10
227.955	-8.8
228.333	-8.92
228.711	-7.04
229.089	-1.87
229.467	-2.06
229.845	-0.83
230.222	-0.39
230.6	-3.4
230.978	0.42
231.356	0.14
231.733	2.79
232.111	0.87
232.488	2.11
232.866	3.95
233.243	4.57
233.621	2.83
233.998	5.48
234.376	4.1
234.753	3.41
235.13	4.48
235.508	5.87
235.885	4.75
236.262	4.12
236.639	2.96
237.016	3.49
237.393	4.7
237.77	4.57
238.147	4.37
238.524	5.04
238.901	4.52
239.278	5.59
239.655	4.92
240.032	5.34
240.409	4.62
240.785	4.93
241.162	5.15
241.539	5.35
241.915	4.86
242.292	5.24
242.668	5.82
243.045	6.01
243.421	6.17
243.798	6.42
244.174	6.63
244.551	6.75
244.927	6.74
245.303	6.83
245.679	6.84
246.056	6.81
246.432	6.7
246.808	6.68
247.184	6.49
247.56	6.49
247.936	6.44
248.312	6.65
248.688	6.65
249.064	6.58
249.44	6.59
249.815	6.61
250.191	6.4
250.567	6.32
250.943	6.02
251.318	5.93
251.694	5.9
252.069	5.91
252.445	5.78
252.82	5.67
253.196	5.37
253.571	5.33
253.947	5.64
254.322	5.56
254.697	5.53
255.073	5.31
255.448	4.99
255.823	4.9
256.198	4.95
256.573	4.74
256.948	4.83
257.323	4.99
257.698	4.99
258.073	5.02
258.448	4.86
258.823	5.09
259.198	5.01
259.573	5.01
259.948	4.78
260.322	4.77
260.697	4.76
261.072	4.82
261.446	4.71
261.821	4.47
262.195	4.62
262.57	4.68
262.944	4.82
263.319	4.85
263.693	4.9
264.067	4.94
264.442	5.14
264.816	5.05
265.19	4.89
265.564	5.06
265.938	4.84
266.313	4.77
266.687	4.8
267.061	4.78
267.435	4.75
267.809	4.91
268.183	4.97
268.556	4.92
268.93	5
269.304	5.11
269.678	5.2
270.051	5.12
270.425	5.16
270.799	5.11
271.172	5.2
271.546	5.22
271.919	5.03
272.293	4.98
272.666	4.99
273.04	5.18
273.413	5.05
273.787	5.15
274.16	5.09
274.533	4.94
274.906	4.91
275.279	4.89
275.653	4.9
276.026	4.73
276.399	4.75
276.772	4.62
277.145	4.53
277.518	4.42
277.891	4.46
278.263	4.44
278.636	4.39
279.009	4.34
279.382	4.44
279.755	4.38
280.127	4.36
280.5	4.34
280.872	4.38
281.245	4.4
281.617	4.55
281.99	4.8
282.362	4.87
282.735	4.75
283.107	4.66
283.479	4.78
283.852	4.81
284.224	4.85
284.596	4.95
284.968	5.13
285.34	5.28
285.713	5.33
286.085	5.36
286.457	5.45
286.829	5.57
287.201	5.54
287.572	5.6
287.944	5.52
288.316	5.59
288.688	5.44
289.06	5.4
289.431	5.44
289.803	5.45
290.175	5.46
290.546	5.74
290.918	5.77
291.289	5.73
291.661	5.85
292.032	5.9
292.403	5.77
292.775	5.83
293.146	5.7
293.517	5.72
293.889	5.78
294.26	5.76
294.631	5.78
295.002	5.78
295.373	5.84
295.744	5.98
296.115	5.93
296.486	5.92
296.857	5.97
297.228	5.95
297.599	5.95
297.97	5.96
298.34	5.91
298.711	6.04
299.082	6.03
299.452	6.16
299.823	6.23
300.194	6.44
300.564	6.29
300.935	6.32
301.305	6.17
301.676	6.19
302.046	6.19
302.416	6.17
302.787	6.27
303.157	6.28
303.527	6.22
303.897	6.18
304.267	6.29
304.637	6.44
305.008	6.59
305.378	6.66
305.748	6.78
306.117	6.83
306.487	6.8
306.857	6.9
307.227	6.83
307.597	6.86
307.967	6.94
308.336	6.99
308.706	7.13
309.076	7.34
309.445	7.4
309.815	7.5
310.184	7.62
310.554	7.61
310.923	7.69
311.293	7.87
311.662	8.11
312.031	8.25
312.401	8.15
312.77	8.23
313.139	8.33
313.508	8.38
313.877	8.43
314.246	8.54
314.616	8.55
314.985	8.66
315.353	8.67
315.722	8.64
316.091	8.8
316.46	8.91
316.829	8.97
317.198	9.06
317.567	9.17
317.935	9.22
318.304	9.39
318.672	9.41
319.041	9.44
319.41	9.38
319.778	9.42
320.147	9.62
320.515	9.48
320.883	9.54
321.252	9.48
321.62	9.53
321.988	9.6
322.357	9.77
322.725	9.71
323.093	9.74
323.461	9.9
323.829	9.94
324.197	9.88
324.565	9.89
324.933	9.83
325.301	9.64
325.669	9.68
326.037	9.61
326.405	9.72
326.772	9.7
327.14	9.83
327.508	9.7
327.875	9.74
328.243	9.86
328.61	9.81
328.978	9.89
329.346	9.96
329.713	9.92
330.08	9.94
330.448	10
330.815	10.04
331.182	10.08
331.55	10.24
331.917	10.27
332.284	10.39
332.651	10.5
333.018	10.65
333.385	10.57
333.752	10.66
334.119	10.68
334.486	10.75
334.853	10.67
335.22	10.81
335.587	10.81
335.954	10.8
336.32	10.83
336.687	10.89
337.054	10.91
337.42	11.04
337.787	11.07
338.153	11.22
338.52	11.37
338.886	11.37
339.253	11.29
339.619	11.4
339.986	11.34
340.352	11.36
340.718	11.4
341.084	11.49
341.451	11.6
341.817	11.62
342.183	11.56
342.549	11.69
342.915	11.77
343.281	11.75
343.647	11.88
344.013	11.99
344.379	12.05
344.745	12.06
345.11	12.05
345.476	12.11
345.842	12.1
346.208	12.03
346.573	12.02
346.939	12.1
347.304	12.14
347.67	12.16
348.035	12.18
348.401	12.22
348.766	12.28
349.132	12.21
349.497	12.18
349.862	12.28
350.228	12.26
350.593	12.14
350.958	12.18
351.323	12.16
351.688	12.08
352.053	12.01
352.418	12.1
352.783	12.13
353.148	12.03
353.513	12.12
353.878	12.13
354.243	12.2
354.608	12.29
354.972	12.25
355.337	12.31
355.702	12.37
356.066	12.48
356.431	12.43
356.795	12.52
357.16	12.64
357.524	12.55
357.889	12.5
358.253	12.57
358.618	12.66
358.982	12.6
359.346	12.64
359.71	12.65
360.075	12.67
360.439	12.66
360.803	12.72
361.167	12.66
361.531	12.63
361.895	12.51
362.259	12.35
362.623	12.4
362.987	12.34
363.351	12.26
363.714	12.17
364.078	12.19
364.442	12.12
364.806	12.03
365.169	12.07
365.533	12.06
365.896	12.07
366.26	11.98
366.623	12.01
366.987	11.95
367.35	11.94
367.714	11.81
368.077	11.8
368.44	11.73
368.803	11.73
369.167	11.76
369.53	11.76
369.893	11.78
370.256	11.74
370.619	11.73
370.982	11.74
371.345	11.69
371.708	11.64
372.071	11.65
372.434	11.66
372.797	11.6
373.159	11.59
373.522	11.54
373.885	11.55
374.247	11.57
374.61	11.54
374.973	11.51
375.335	11.56
375.698	11.46
376.06	11.43
376.423	11.39
376.785	11.34
377.147	11.4
377.51	11.4
377.872	11.36
378.234	11.36
378.596	11.32
378.958	11.28
379.321	11.23
379.683	11.14
380.045	11.16
380.407	11.14
380.769	11.15
381.13	11.11
381.492	11.01
381.854	10.9
382.216	10.91
382.578	10.91
382.939	10.84
383.301	10.83
383.663	10.76
384.024	10.71
384.386	10.69
384.747	10.63
385.109	10.58
385.47	10.53
385.832	10.55
386.193	10.53
386.554	10.53
386.916	10.49
387.277	10.49
387.638	10.43
387.999	10.41
388.36	10.35
388.721	10.32
389.082	10.3
389.443	10.28
389.804	10.22
390.165	10.11
390.526	10.09
390.887	10.07
391.248	10.08
391.609	10.06
391.969	10.04
392.33	9.99
392.691	9.97
393.051	9.91
393.412	9.82
393.772	9.75
394.133	9.72
394.493	9.72
394.854	9.65
395.214	9.62
395.574	9.56
395.935	9.51
396.295	9.51
396.655	9.48
397.015	9.43
397.376	9.39
397.736	9.37
398.096	9.31
398.456	9.27
398.816	9.21
399.176	9.13
399.535	9.1
399.895	9.04
400.255	9.01
400.615	8.94
400.975	8.92
401.334	8.89
401.694	8.85
402.054	8.82
402.413	8.79
402.773	8.71
403.132	8.72
403.492	8.71
403.851	8.63
404.211	8.59
404.57	8.56
404.929	8.57
405.288	8.51
405.648	8.46
406.007	8.46
406.366	8.42
406.725	8.44
407.084	8.41
407.443	8.41
407.802	8.39
408.161	8.42
408.52	8.38
408.879	8.36
409.238	8.37
409.596	8.34
409.955	8.3
410.314	8.31
410.673	8.25
411.031	8.23
411.39	8.24
411.748	8.22
412.107	8.2
412.465	8.16
412.824	8.21
413.182	8.18
413.54	8.15
413.899	8.14
414.257	8.09
414.615	8.05
414.974	8.01
415.332	7.96
415.69	7.92
416.048	7.9
416.406	7.88
416.764	7.81
417.122	7.8
417.48	7.78
417.838	7.73
418.195	7.71
418.553	7.68
418.911	7.65
419.269	7.62
419.626	7.61
419.984	7.58
420.342	7.54
420.699	7.53
421.057	7.5
421.414	7.48
421.772	7.45
422.129	7.42
422.486	7.39
422.844	7.37
423.201	7.34
423.558	7.31
423.915	7.29
424.273	7.28
424.63	7.24
424.987	7.23
425.344	7.22
425.701	7.2
426.058	7.18
426.415	7.17
426.772	7.15
427.128	7.14
427.485	7.1
427.842	7.08
428.199	7.07
428.555	7.07
428.912	7.07
429.269	7.06
429.625	7.06
429.982	7.05
430.338	7.05
430.695	7.05
431.051	7.04
431.407	7.01
431.764	7
432.12	7
432.476	6.99
432.832	6.99
433.189	7
433.545	6.98
433.901	6.98
434.257	6.97
434.613	6.96
434.969	7.01
435.325	7.01
435.681	6.99
436.036	6.98
436.392	6.97
436.748	6.97
437.104	6.97
437.459	6.98
437.815	6.96
438.171	6.95
438.526	6.96
438.882	6.99
439.237	6.98
439.593	6.99
439.948	6.98
440.304	6.97
440.659	6.95
441.014	6.96
441.369	6.93
441.725	6.91
442.08	6.91
442.435	6.87
442.79	6.85
443.145	6.84
443.5	6.84
443.855	6.81
444.21	6.79
444.565	6.78
444.92	6.77
445.275	6.76
445.629	6.76
445.984	6.73
446.339	6.7
446.693	6.68
447.048	6.65
447.403	6.63
447.757	6.6
448.112	6.58
448.466	6.55
448.82	6.54
449.175	6.53
449.529	6.52
449.883	6.5
450.238	6.5
450.592	6.49
450.946	6.44
451.3	6.43
451.654	6.42
452.008	6.39
452.362	6.38
452.716	6.36
453.07	6.36
453.424	6.34
453.778	6.34
454.132	6.33
454.486	6.31
454.839	6.29
455.193	6.31
455.547	6.32
455.9	6.33
456.254	6.35
456.607	6.36
456.961	6.36
457.314	6.37
457.668	6.37
458.021	6.37
458.375	6.41
458.728	6.43
459.081	6.43
459.434	6.46
459.787	6.47
460.141	6.5
460.494	6.5
460.847	6.54
461.2	6.55
461.553	6.56
461.906	6.6
462.259	6.63
462.611	6.67
462.964	6.7
463.317	6.73
463.67	6.76
464.022	6.78
464.375	6.78
464.728	6.83
465.08	6.84
465.433	6.86
465.785	6.88
466.138	6.88
466.49	6.91
466.843	6.89
467.195	6.92
467.547	6.95
467.899	6.97
468.252	6.96
468.604	6.99
468.956	7.01
469.308	7.03
469.66	7.03
470.012	7.03
470.364	7.05
470.716	7.05
471.068	7.05
471.42	7.05
471.772	7.1
472.123	7.11
472.475	7.13
472.827	7.14
473.178	7.11
473.53	7.13
473.882	7.14
474.233	7.18
474.585	7.18
474.936	7.15
475.288	7.13
475.639	7.14
475.99	7.11
476.342	7.09
476.693	7.09
477.044	7.09
477.395	7.09
477.746	7.08
478.097	7.04
478.448	7.03
478.8	7.01
479.15	6.98
479.501	6.98
479.852	6.98
480.203	6.97
480.554	6.99
480.905	6.98
481.255	6.98
481.606	6.97
481.957	6.97
482.307	6.97
482.658	6.99
483.009	6.99
483.359	6.99
483.709	7.01
484.06	7.01
484.41	7.02
484.761	7.02
485.111	7.02
485.461	7.04
485.811	7.04
486.162	7.06
486.512	7.07
486.862	7.07
487.212	7.08
487.562	7.09
487.912	7.1
488.262	7.12
488.612	7.14
488.961	7.16
489.311	7.17
489.661	7.2
490.011	7.21
490.36	7.22
490.71	7.25
491.06	7.25
491.409	7.27
491.759	7.31
492.108	7.35
492.458	7.37
492.807	7.4
493.157	7.44
493.506	7.49
493.855	7.53
494.204	7.56
494.554	7.62
494.903	7.65
495.252	7.7
495.601	7.76
495.95	7.82
496.299	7.85
496.648	7.9
496.997	7.97
497.346	8.06
497.695	8.14
498.043	8.19
498.392	8.27
498.741	8.36
499.09	8.4
499.438	8.46
499.787	8.53
500.135	8.6
500.484	8.67
500.832	8.75
501.181	8.83
501.529	8.94
501.878	9.04
502.226	9.16
502.574	9.24
502.923	9.34
503.271	9.41
503.619	9.53
503.967	9.63
504.315	9.71
504.663	9.8
505.011	9.9
505.359	10.02
505.707	10.12
506.055	10.2
506.403	10.33
506.751	10.45
507.098	10.57
507.446	10.69
507.794	10.8
508.141	10.91
508.489	11.01
508.837	11.12
509.184	11.22
509.531	11.32
509.879	11.44
510.226	11.56
510.574	11.71
510.921	11.8
511.268	11.93
511.616	12.06
511.963	12.16
512.31	12.32
512.657	12.44
513.004	12.6
513.351	12.78
513.698	12.91
514.045	13.06
514.392	13.23
514.739	13.37
515.086	13.55
515.432	13.68
515.779	13.84
516.126	14.03
516.473	14.19
516.819	14.34
517.166	14.45
517.512	14.57
517.859	14.71
518.205	14.87
518.552	15.03
518.898	15.18
519.245	15.33
519.591	15.45
519.937	15.59
520.283	15.74
520.629	15.91
520.976	16.09
521.322	16.29
521.668	16.45
522.014	16.68
522.36	16.85
522.706	17.1
523.052	17.35
523.398	17.59
523.743	17.86
524.089	18.13
524.435	18.4
524.781	18.66
525.126	18.9
525.472	19.09
525.817	19.31
526.163	19.52
526.509	19.7
526.854	19.87
527.199	20.05
527.545	20.2
527.89	20.36
528.235	20.53
528.581	20.71
528.926	20.88
529.271	21.05
529.616	21.23
529.961	21.39
530.306	21.57
530.651	21.76
530.996	21.95
531.341	22.17
531.686	22.4
532.031	22.63
532.376	22.86
532.721	23.1
533.065	23.33
533.41	23.55
533.755	23.82
534.099	24.1
534.444	24.38
534.788	24.65
535.133	24.9
535.477	25.16
535.822	25.42
536.166	25.75
536.51	26.11
536.855	26.48
537.199	26.88
537.543	27.27
537.887	27.67
538.231	28.03
538.576	28.41
538.92	28.8
539.264	29.13
539.608	29.48
539.951	29.81
540.295	30.11
540.639	30.43
540.983	30.72
541.327	30.99
541.671	31.27
542.014	31.56
542.358	31.85
542.701	32.16
543.045	32.47
543.389	32.72
543.732	32.95
544.075	33.23
544.419	33.5
544.762	33.78
545.105	34.07
545.449	34.38
545.792	34.69
546.135	34.99
546.478	35.34
546.821	35.68
547.165	36.08
547.508	36.5
547.851	36.9
548.194	37.28
548.536	37.68
548.879	38.12
549.222	38.51
549.565	38.86
549.908	39.2
550.25	39.54
550.593	39.95
550.936	40.33
551.278	40.68
551.621	41.12
551.963	41.52
552.306	41.86
552.648	42.23
552.991	42.61
553.333	42.9
553.675	43.26
554.017	43.57
554.36	43.88
554.702	44.18
555.044	44.42
555.386	44.75
555.728	45.06
556.07	45.31
556.412	45.66
556.754	45.99
557.096	46.3
557.438	46.64
557.78	47.01
558.121	47.45
558.463	47.74
558.805	47.96
559.147	48.21
559.488	48.5
559.83	48.82
560.171	49.11
560.513	49.49
560.854	49.85
561.196	50.16
561.537	50.42
561.878	50.64
562.22	50.89
562.561	51.09
562.902	51.36
563.243	51.65
563.584	51.82
563.925	52.12
564.266	52.39
564.607	52.59
564.948	52.79
565.289	52.94
565.63	53.17
565.971	53.36
566.312	53.61
566.653	53.85
566.993	54.01
567.334	54.18
567.675	54.33
568.015	54.41
568.356	54.55
568.696	54.74
569.037	54.96
569.377	55.16
569.718	55.4
570.058	55.55
570.398	55.67
570.739	55.85
571.079	55.97
571.419	56.08
571.759	56.24
572.099	56.39
572.439	56.53
572.779	56.68
573.119	56.9
573.459	57.05
573.799	57.17
574.139	57.31
574.479	57.43
574.819	57.59
575.158	57.74
575.498	57.96
575.838	58.07
576.177	58.18
576.517	58.32
576.856	58.43
577.196	58.59
577.535	58.7
577.875	58.86
578.214	58.96
578.553	59.14
578.893	59.3
579.232	59.4
579.571	59.51
579.91	59.66
580.25	59.76
580.589	59.83
580.928	59.91
581.267	60.02
581.606	60.23
581.945	60.29
582.283	60.41
582.622	60.51
582.961	60.65
583.3	60.78
583.639	61.01
583.977	61.08
584.316	61.17
584.654	61.32
584.993	61.37
585.332	61.54
585.67	61.55
586.008	61.66
586.347	61.78
586.685	61.9
587.024	62
587.362	61.99
587.7	62.11
588.038	62.21
588.376	62.35
588.715	62.35
589.053	62.46
589.391	62.55
589.729	62.55
590.067	62.58
590.404	62.6
590.742	62.63
591.08	62.8
591.418	62.86
591.756	62.97
592.093	63.12
592.431	63.19
592.769	63.31
593.106	63.43
593.444	63.56
593.781	63.71
594.119	63.79
594.456	63.98
594.793	64.14
595.131	64.27
595.468	64.34
595.805	64.43
596.143	64.49
596.48	64.52
596.817	64.65
597.154	64.72
597.491	64.83
597.828	64.93
598.165	64.95
598.502	65.06
598.839	65.09
599.176	65.11
599.512	65.23
599.849	65.36
600.186	65.32
600.523	65.31
600.859	65.25
601.196	65.28
601.532	65.32
601.869	65.28
602.205	65.33
602.542	65.36
602.878	65.34
603.215	65.43
603.551	65.47
603.887	65.5
604.223	65.59
604.56	65.67
604.896	65.68
605.232	65.72
605.568	65.79
605.904	65.82
606.24	65.91
606.576	65.9
606.912	65.92
607.248	66.03
607.583	66.06
607.919	66.17
608.255	66.25
608.591	66.25
608.926	66.37
609.262	66.41
609.597	66.46
609.933	66.64
610.268	66.63
610.604	66.71
610.939	66.73
611.275	66.72
611.61	66.69
611.945	66.71
612.281	66.74
612.616	66.71
612.951	66.72
613.286	66.75
613.621	66.79
613.956	66.73
614.291	66.71
614.626	66.74
614.961	66.68
615.296	66.74
615.631	66.87
615.966	66.82
616.3	66.8
616.635	66.82
616.97	66.7
617.304	66.78
617.639	66.85
617.973	66.88
618.308	67.02
618.642	67.11
618.977	67.13
619.311	67.07
619.646	67.05
619.98	67.16
620.314	67.11
620.648	67.06
620.983	67.22
621.317	67.33
621.651	67.53
621.985	67.66
622.319	67.69
622.653	67.67
622.987	67.57
623.321	67.57
623.655	67.7
623.988	67.91
624.322	67.88
624.656	67.93
624.99	68.02
625.323	68
625.657	67.98
625.99	68.02
626.324	68.05
626.657	68.2
626.991	68.21
627.324	68.29
627.658	68.43
627.991	68.48
628.324	68.41
628.657	68.29
628.991	68.29
629.324	68.27
629.657	68.3
629.99	68.47
630.323	68.58
630.656	68.52
630.989	68.46
631.322	68.47
631.655	68.4
631.987	68.37
632.32	68.4
632.653	68.37
632.986	68.4
633.318	68.49
633.651	68.52
633.984	68.52
634.316	68.53
634.649	68.48
634.981	68.49
635.313	68.65
635.646	68.75
635.978	68.78
636.31	68.89
636.643	68.88
636.975	68.86
637.307	68.73
637.639	68.79
637.971	68.88
638.303	68.96
638.635	69.07
638.967	69.09
639.299	69.16
639.631	69.24
639.963	69.25
640.295	69.26
640.626	69.22
640.958	69.32
641.29	69.3
641.621	69.38
641.953	69.33
642.285	69.24
642.616	69.11
642.948	69.11
643.279	69.07
643.61	69.17
643.942	69.21
644.273	69.41
644.604	69.3
644.936	69.13
645.267	69.21
645.598	69.34
645.929	69.38
646.26	69.32
646.591	69.29
646.922	69.3
647.253	69.35
647.584	69.39
647.915	69.26
648.245	69.41
648.576	69.39
648.907	69.38
649.238	69.45
649.568	69.63
649.899	69.71
650.229	69.72
650.56	69.8
650.89	69.86
651.221	69.89
651.551	70.01
651.882	70.17
652.212	70.19
652.542	70.18
652.872	70.25
653.203	70.23
653.533	70.27
653.863	70.21
654.193	70.29
654.523	70.34
654.853	70.47
655.183	70.52
655.513	70.56
655.843	70.63
656.172	70.72
656.502	70.75
656.832	70.6
657.162	70.57
657.491	70.47
657.821	70.46
658.15	70.26
658.48	70.36
658.809	70.35
659.139	70.3
659.468	70.15
659.798	70.05
660.127	70.15
660.456	70.11
660.785	70.31
661.115	70.33
661.444	70.21
661.773	70.26
662.102	70.17
662.431	70.24
662.76	70.23
663.089	70.12
663.418	69.99
663.747	70.08
664.076	70.07
664.404	70.05
664.733	70.06
665.062	70.28
665.39	70.13
665.719	70.25
666.048	70.23
666.376	70.48
666.705	70.52
667.033	70.5
667.362	70.71
667.69	70.71
668.018	70.78
668.347	70.85
668.675	70.66
669.003	70.63
669.331	70.56
669.659	70.52
669.987	70.55
670.315	70.69
670.643	70.65
670.971	70.69
671.299	70.62
671.627	70.54
671.955	70.53
672.283	70.65
672.61	70.51
672.938	70.64
673.266	70.63
673.593	70.76
673.921	70.73
674.249	70.73
674.576	70.59
674.904	70.53
675.231	70.59
675.558	70.81
675.886	70.88
676.213	70.81
676.54	70.92
676.867	71.1
677.195	71.08
677.522	71.18
677.849	71.11
678.176	71.23
678.503	71.23
678.83	71.36
679.157	71.3
679.484	71.36
679.81	71.22
680.137	71.19
680.464	71.11
680.791	71.07
681.117	71.03
681.444	71.11
681.771	71.09
682.097	71.17
682.424	71.1
682.75	71.12
683.077	71.26
683.403	71.23
683.729	71.22
684.056	71.24
684.382	71.17
684.708	71.23
685.034	71.15
685.36	71.25
685.686	71.05
686.012	71.09
686.339	71.1
686.664	71.17
686.99	71.11
687.316	71.14
687.642	71.31
687.968	71.36
688.294	71.31
688.619	71.14
688.945	71.08
689.271	71.14
689.596	71.11
689.922	71.02
690.247	71.01
690.573	70.97
690.898	70.93
691.224	70.97
691.549	71
691.874	70.9
692.2	70.92
692.525	71.16
692.85	71.26
693.175	71.28
693.5	71.37
693.825	71.53
694.15	71.44
694.475	71.5
694.8	71.6
695.125	71.71
695.45	71.84
695.775	71.76
696.099	71.74
696.424	71.9
696.749	71.94
697.073	72.1
697.398	72.17
697.723	72.25
698.047	72.19
698.372	72.28
698.696	72.41
699.02	72.47
699.345	72.41
699.669	72.31
699.993	72.34
700.318	72.5
700.642	72.43
700.966	72.53
701.29	72.33
701.614	72.31
701.938	72.37
702.262	72.52
702.586	72.61
702.91	72.74
703.234	72.82
703.557	73.02
703.881	72.91
704.205	72.91
704.529	73.02
704.852	73.29
705.176	73.23
705.499	73.24
705.823	73.06
706.146	73.05
706.47	73.08
706.793	73.09
707.117	72.88
707.44	72.8
707.763	72.99
708.086	73.39
708.409	73.38
708.733	73.37
709.056	73.18
709.379	73.26
709.702	73.14
710.025	73.08
710.348	72.9
710.671	72.8
710.993	72.64
711.316	72.58
711.639	72.45
711.962	72.22
712.284	72.21
712.607	72.47
712.93	72.33
713.252	72.35
713.575	72.3
713.897	72.25
714.22	72.39
714.542	72.04
714.864	71.81
715.187	71.62
715.509	71.55
715.831	71.67
716.153	71.65
716.475	71.75
716.798	71.65
717.12	71.72
717.442	71.83
717.764	71.86
718.085	71.92
718.407	71.97
718.729	72.33
719.051	72.55
719.373	72.18
719.695	72.27
720.016	72.27
720.338	72.17
720.659	72.34
720.981	72.24
721.302	72.39
721.624	72.7
721.945	72.89
722.267	72.92
722.588	72.81
722.909	72.72
723.231	72.78
723.552	72.71
723.873	72.81
724.194	72.88
724.515	72.95
724.836	72.73
725.157	72.54
725.478	72.49
725.799	72.27
726.12	72.34
726.441	72.49
726.762	72.51
727.083	72.65
727.403	72.85
727.724	72.69
728.045	72.7
728.365	72.52
728.686	72.45
729.006	72.19
729.327	72.39
729.647	72.58
729.967	72.57
730.288	72.84
730.608	72.76
730.928	72.72
731.249	72.86
731.569	72.96
731.889	73.28
732.209	73.2
732.529	73.51
732.849	73.64
733.169	73.51
733.489	73.47
733.809	73.51
734.129	73.36
734.448	73.51
734.768	73.67
735.088	73.71
735.408	73.81
735.727	74.02
736.047	74.2
736.366	73.99
736.686	73.89
737.005	73.86
737.325	73.69
737.644	73.62
737.963	73.57
738.283	73.61
738.602	73.44
738.921	73.27
739.24	73.01
739.56	72.9
739.879	73
740.198	73.04
740.517	73.21
740.836	72.91
741.155	73.02
741.473	72.91
741.792	72.75
742.111	72.61
742.43	72.69
742.748	72.35
743.067	72.43
743.386	72.57
743.704	72.27
744.023	72.56
744.341	72.76
744.66	72.89
744.978	72.72
745.297	72.73
745.615	73.15
745.933	73.36
746.252	73.67
746.57	73.99
746.888	74.08
747.206	73.87
747.524	74.25
747.842	74.22
748.16	74.34
748.478	74.15
748.796	74.1
749.114	74.36
749.432	74.5
749.749	74.7
750.067	74.77
750.385	74.67
750.703	74.66
751.02	74.6
751.338	74.77
751.655	74.48
751.973	74.61
752.29	74.59
752.608	74.52
752.925	74.46
753.242	74.05
753.56	74.12
753.877	73.91
754.194	73.72
754.511	73.63
754.828	73.26
755.145	73.68
755.462	73.8
755.779	73.44
756.096	73.18
756.413	73.16
756.73	72.87
757.047	72.98
757.364	72.77
757.68	72.71
757.997	72.44
758.314	73.1
758.63	73.16
758.947	73.07
759.264	73.18
759.58	73.41
759.896	73.49
760.213	73.58
760.529	73.62
760.846	73.59
761.162	73.62
761.478	74.11
761.794	73.76
762.11	73.78
762.426	73.77
762.743	73.77
763.059	73.46
763.375	73.17
763.69	73.49
764.006	73.53
764.322	73.76
764.638	73.83
764.954	73.84
765.27	73.59
765.585	73.61
765.901	73.35
766.216	73.6
766.532	73.69
766.848	73.64
767.163	73.87
767.478	73.89
767.794	73.78
768.109	73.68
768.424	73.93
768.74	73.75
769.055	73.75
769.37	74.07
769.685	74.49
770	75.31
770.315	74.96
770.63	75.15
770.945	74.77
771.26	74.55
771.575	74.55
771.89	74.99
772.205	75.29
772.52	75.75
772.834	74.77
773.149	75.01
773.464	75.17
773.778	75.2
774.093	75.37
774.407	75.75
774.722	75.18
775.036	75.28
775.351	75.47
775.665	75.83
775.979	75.61
776.293	75.68
776.608	75.23
776.922	75.32
777.236	75.03
777.55	75.21
777.864	75.58
778.178	75.57
778.492	75.59
778.806	75.18
779.12	74.9
779.434	75.39
779.747	75.1
780.061	74.19
780.375	73.96
780.689	74.05
781.002	73.61
781.316	74.25
781.629	74.05
781.943	74.72
782.256	74.31
782.57	73.82
782.883	73.79
783.196	73.34
783.51	73
783.823	72.95
784.136	73.33
784.449	72.95
784.762	72.82
785.075	72.72
785.388	72.78
785.701	73.14
786.014	72.92
786.327	72.94
786.64	73.81
786.953	73.75
787.266	73.82
787.578	74.05
787.891	74.01
788.204	74.09
788.516	73.53
788.829	73.46
789.141	73.61
789.454	73.91
789.766	74.13
790.079	74.16
790.391	73.98
790.703	73.63
791.016	73.64
791.328	73.14
791.64	72.6
791.952	72.55
792.264	72.07
792.576	72.13
792.888	72.21
793.2	71.78
793.512	71.79
793.824	71.54
794.136	71.98
794.448	71.94
794.76	72.27
795.071	72.6
795.383	72.81
795.695	73.21
796.006	72.94
796.318	73.08
796.629	73.24
796.941	73.88
797.252	73.9
797.564	74.05
797.875	74.44
798.186	75.14
798.497	74.92
798.809	74.97
799.12	74.77
799.431	75
799.742	74.91
800.053	75.51
800.364	75.98
800.675	75.24
800.986	74.85
801.297	74.86
801.608	74.66
801.918	74.38
802.229	74.31
802.54	74.56
802.851	75.81
803.161	75.95
803.472	75.75
803.782	75.46
804.093	75.33
804.403	75.5
804.714	75.6
805.024	75.94
805.334	76.52
805.645	76.74
805.955	76.14
806.265	76.27
806.575	75.47
806.885	75.37
807.195	75.61
807.505	75.85
807.815	75.48
808.125	75.65
808.435	76.61
808.745	77.2
809.055	76.79
809.365	75.24
809.674	74.64
809.984	75.15
810.294	75.55
810.603	75.61
810.913	75.95
811.222	75.97
811.532	76.47
811.841	75.97
812.151	76.05
812.46	76.36
812.769	76.36
813.079	76.61
813.388	76.71
813.697	77.53
814.006	77.18
814.315	77.88
814.624	78.02
814.933	77.87
815.242	77.72
815.551	77.45
815.86	77.91
816.169	78.13
816.478	77.52
816.786	77.55
817.095	77.79
817.404	76.94
817.712	76.46
818.021	76.26
818.33	76.34
818.638	75.88
818.947	76.07
819.255	76.25
819.563	75.99
819.872	75.64
820.18	75.28
820.488	75.36
820.796	75.02
821.105	74.73
821.413	74.3
821.721	74.18
822.029	74.03
822.337	74.2
822.645	74.45
822.953	74.5
823.26	74.33
823.568	74.25
823.876	74.41
824.184	74.37
824.491	74.34
824.799	74.36
825.107	74.4
825.414	74.34
825.722	74.21
826.029	74.32
826.337	74.25
826.644	74.28
826.951	74.29
827.259	74.32
827.566	74.25
827.873	74.56
828.18	74.54
828.488	74.94
828.795	74.91
829.102	74.64
829.409	74.64
829.716	74.9
830.023	74.67
830.329	74.46
830.636	74.71
830.943	75.01
831.25	75.11
831.557	75.35
831.863	75.14
832.17	75.36
832.476	75.32
832.783	75.19
833.089	74.75
833.396	74.83
833.702	75.14
834.009	75.33
834.315	75.01
834.621	75.34
834.928	74.88
835.234	74.81
835.54	75.2
835.846	75.05
836.152	74.64
836.458	75.11
836.764	75.14
837.07	74.79
837.376	74.34
837.682	74.07
837.988	73.65
838.293	73.61
838.599	73.26
838.905	73.17
839.211	73.21
839.516	73.06
839.822	73.12
840.127	72.46
840.433	72.96
840.738	72.72
841.044	72.58
841.349	73.07
841.654	73.23
841.959	73.28
842.265	73.8
842.57	73.8
842.875	72.82
843.18	72.95
843.485	73.25
843.79	72.91
844.095	71.55
844.4	72.73
844.705	72.34
845.01	73.23
845.315	72.37
845.619	74.77
845.924	76.1
846.229	76.49
846.533	76.06
846.838	75.07
847.142	76.62
847.447	75.2
847.751	74.77
848.056	72.73
848.36	72.88
848.664	73.29
848.969	73.97
849.273	74.14
849.577	72.46
849.881	72.23
850.185	71.21
850.489	72.13
850.794	69.83
851.097	71.69
851.401	71.39
851.705	71.88
852.009	69.07
852.313	70.21
852.617	70.84
852.92	71.02
853.224	69.49
853.528	69.16
853.831	69.54
854.135	68.89
854.438	70.15
854.742	70.85
855.045	69.98
855.349	69.98
855.652	69.36
855.955	72.85
856.259	72.94
856.562	74.75
856.865	73.74
857.168	75.32
857.471	72.39
857.774	72.61
858.077	73.56
858.38	73.2
858.683	70.61
858.986	69.68
859.289	71
859.592	71.72
859.894	71.45
860.197	72.03
860.5	71.71
860.802	72.41
861.105	69.91
861.407	69.68
861.71	71.19
862.012	73.05
862.315	70.56
862.617	70.08
862.919	71.25
863.222	71.97
863.524	69.89
863.826	70.92
864.128	70.54
864.43	71.46
864.732	73.2
865.034	75.22
865.336	74.54
865.638	72.22
865.94	74.06
866.242	73.97
866.544	73.4
866.846	74.74
867.147	75.28
867.449	75.08
867.751	75.54
868.052	73.88
868.354	71.74
868.655	73
868.957	73.64
869.258	71.85
869.56	72.17
869.861	72.37
870.162	72.89
870.463	72.01
870.765	70.47
871.066	67.2
871.367	65.27
871.668	64.91
871.969	67.23
872.27	66.92
872.571	70.24
872.872	71.58
873.173	71.85
873.473	69.82
873.774	71.48
874.075	72.91
874.376	73.47
874.676	73.29
874.977	73.03
875.277	72.94
875.578	74.49
875.878	75.24
876.179	77.67
876.479	78.17
876.78	78.93
877.08	79.72
877.38	83.3
877.68	85.3
877.981	86.99
878.281	86.9
878.581	86.44
