Data from BA28299_Reflection_00014.txt Node
Date: Mon Nov 18 15:42:52 EST 2019
User: vgr7
Spectrometer: USB2G7710
Scans to average: 3
Trigger mode: 4
Integration Time (sec): 2.000000E-2
Electric dark correction enabled: true
Boxcar width: 10
XAxis mode: Wavelengths
Number of Pixels in Spectrum: 2048
>>>>>Begin Spectral Data<<<<<
177.721	-3.47
178.105	-60.92
178.488	392.24
178.871	-66.67
179.254	136.53
179.636	-7.26
180.019	-65.3
180.402	55.77
180.785	-1015.65
181.168	1995.83
181.55	-1301.71
181.933	357.92
182.316	193.87
182.698	187.17
183.081	211.31
183.463	351.3
183.846	306.68
184.228	1951.85
184.611	25433.33
184.993	-620.14
185.376	-569.34
185.758	-806.32
186.14	-518.08
186.522	-544.72
186.904	-274.55
187.287	-636.99
187.669	-166.5
188.051	-170.43
188.433	-136.24
188.815	-149.3
189.197	-126.77
189.579	-107.71
189.961	-101.46
190.342	-102.61
190.724	-85.57
191.106	-118.7
191.488	-107.58
191.869	-92.42
192.251	-110.8
192.633	-106.01
193.014	-107.6
193.396	-89.74
193.777	-80
194.159	-98.58
194.54	-83.9
194.922	-78.09
195.303	-66.23
195.684	-81.56
196.065	-66.26
196.447	-69.17
196.828	-59.09
197.209	-52.5
197.59	-60.55
197.971	-62.49
198.352	-37.58
198.733	-45.91
199.114	-40.81
199.495	-30
199.876	-23.78
200.257	-16.8
200.638	-14.55
201.018	-7.88
201.399	-12.06
201.78	-16.49
202.16	-14.67
202.541	-28.82
202.922	-49.9
203.302	-54.86
203.683	-57.77
204.063	-63.42
204.444	-79.66
204.824	-78.42
205.204	-82.96
205.585	-76.72
205.965	-82.98
206.345	-96.46
206.725	-101.17
207.106	-132.12
207.486	-209.97
207.866	-232.07
208.246	-186.69
208.626	-172.11
209.006	-158.98
209.386	-174.8
209.766	-164.54
210.145	-158.52
210.525	-109.47
210.905	-92.26
211.285	-96.89
211.664	-72.07
212.044	-70.93
212.424	-42.63
212.803	-61.97
213.183	-43.62
213.562	-33.25
213.942	-15.3
214.321	-28.49
214.701	-38.99
215.08	-18.36
215.459	3.23
215.838	-5.2
216.218	-23.33
216.597	-10.47
216.976	-13.81
217.355	-20.05
217.734	-12.59
218.113	-10.26
218.492	-13
218.871	-13.37
219.25	11.69
219.629	-7.47
220.008	-17.02
220.387	-36.82
220.766	-23.09
221.144	-47.99
221.523	-69.35
221.902	-71.83
222.28	-57.21
222.659	-39.1
223.037	-42.71
223.416	-51.53
223.794	-42.53
224.173	-37.65
224.551	-31.35
224.929	-29.06
225.308	-22.03
225.686	-14.31
226.064	-14.9
226.442	-15.51
226.821	-11.51
227.199	-13.7
227.577	-14.26
227.955	-10.8
228.333	-7.14
228.711	-6.36
229.089	-0.75
229.467	-2.08
229.845	-1.21
230.222	-1.91
230.6	-3
230.978	-2.22
231.356	1.35
231.733	1.38
232.111	3.07
232.488	3.48
232.866	4.05
233.243	5.69
233.621	2.84
233.998	2.66
234.376	2.48
234.753	3.04
235.13	3.77
235.508	5.09
235.885	3.97
236.262	3.48
236.639	3.78
237.016	3.32
237.393	5.59
237.77	5.94
238.147	6.08
238.524	6.85
238.901	7.17
239.278	6.95
239.655	7.54
240.032	6.5
240.409	6.05
240.785	5.81
241.162	5.5
241.539	5.92
241.915	6.35
242.292	6.47
242.668	6.29
243.045	6.03
243.421	5.98
243.798	5.91
244.174	5.84
244.551	6.2
244.927	6.08
245.303	6.05
245.679	6.03
246.056	6.14
246.432	5.93
246.808	5.9
247.184	5.4
247.56	5.34
247.936	5.5
248.312	5.39
248.688	5.65
249.064	5.57
249.44	5.62
249.815	5.59
250.191	5.65
250.567	5.65
250.943	5.58
251.318	5.45
251.694	5.46
252.069	5.38
252.445	5.14
252.82	5.1
253.196	4.81
253.571	4.68
253.947	4.79
254.322	5.25
254.697	5.14
255.073	5.44
255.448	5.44
255.823	5.57
256.198	5.69
256.573	5.62
256.948	5.66
257.323	5.78
257.698	5.77
258.073	5.8
258.448	5.84
258.823	5.91
259.198	5.95
259.573	5.91
259.948	5.99
260.322	5.89
260.697	5.83
261.072	5.78
261.446	5.72
261.821	5.51
262.195	5.49
262.57	5.36
262.944	5.35
263.319	5.23
263.693	5.09
264.067	5.06
264.442	5.02
264.816	4.89
265.19	4.49
265.564	4.46
265.938	4.18
266.313	4.02
266.687	4.05
267.061	4.14
267.435	4.24
267.809	4.27
268.183	4.31
268.556	4.44
268.93	4.45
269.304	4.54
269.678	4.64
270.051	4.59
270.425	4.58
270.799	4.61
271.172	4.64
271.546	4.66
271.919	4.81
272.293	4.75
272.666	4.89
273.04	5.19
273.413	5.01
273.787	5.07
274.16	5.18
274.533	5
274.906	4.96
275.279	4.85
275.653	4.85
276.026	4.79
276.399	4.72
276.772	4.78
277.145	4.69
277.518	4.68
277.891	4.69
278.263	4.76
278.636	4.73
279.009	4.74
279.382	4.71
279.755	4.46
280.127	4.47
280.5	4.48
280.872	4.47
281.245	4.61
281.617	4.77
281.99	4.83
282.362	5.01
282.735	4.84
283.107	5
283.479	5.13
283.852	5.09
284.224	5.16
284.596	5.17
284.968	5.25
285.34	5.33
285.713	5.22
286.085	5.42
286.457	5.5
286.829	5.56
287.201	5.71
287.572	5.86
287.944	5.89
288.316	5.95
288.688	5.93
289.06	5.99
289.431	5.96
289.803	5.85
290.175	5.86
290.546	6.16
290.918	6.21
291.289	6.22
291.661	6.36
292.032	6.47
292.403	6.57
292.775	6.75
293.146	6.69
293.517	6.79
293.889	6.87
294.26	6.97
294.631	7.08
295.002	7.02
295.373	7.02
295.744	7.12
296.115	7.29
296.486	7.4
296.857	7.52
297.228	7.72
297.599	7.69
297.97	7.75
298.34	7.69
298.711	7.73
299.082	7.66
299.452	7.8
299.823	7.87
300.194	7.95
300.564	7.93
300.935	8.1
301.305	8.17
301.676	8.17
302.046	8.26
302.416	8.29
302.787	8.38
303.157	8.46
303.527	8.58
303.897	8.53
304.267	8.64
304.637	8.63
305.008	8.79
305.378	9.09
305.748	9.24
306.117	9.29
306.487	9.46
306.857	9.6
307.227	9.58
307.597	9.62
307.967	9.81
308.336	9.94
308.706	10.08
309.076	10.24
309.445	10.25
309.815	10.22
310.184	10.28
310.554	10.52
310.923	10.58
311.293	10.56
311.662	10.67
312.031	10.61
312.401	10.76
312.77	10.66
313.139	10.79
313.508	10.9
313.877	10.99
314.246	11.01
314.616	11.06
314.985	11.15
315.353	11.15
315.722	11.31
316.091	11.31
316.46	11.27
316.829	11.24
317.198	11.31
317.567	11.4
317.935	11.5
318.304	11.59
318.672	11.77
319.041	11.9
319.41	11.85
319.778	11.93
320.147	11.9
320.515	11.94
320.883	11.85
321.252	11.88
321.62	12.08
321.988	12.24
322.357	12.42
322.725	12.44
323.093	12.63
323.461	12.43
323.829	12.51
324.197	12.75
324.565	12.99
324.933	13.25
325.301	13.47
325.669	13.58
326.037	13.51
326.405	13.51
326.772	13.66
327.14	13.83
327.508	13.83
327.875	13.83
328.243	13.93
328.61	14.03
328.978	14.11
329.346	14.21
329.713	14.09
330.08	14.09
330.448	14.21
330.815	14.29
331.182	14.52
331.55	14.66
331.917	14.7
332.284	14.78
332.651	14.78
333.018	14.76
333.385	14.88
333.752	15.02
334.119	15.12
334.486	15.06
334.853	14.96
335.22	15.15
335.587	15.22
335.954	15.41
336.32	15.45
336.687	15.52
337.054	15.58
337.42	15.75
337.787	15.82
338.153	15.93
338.52	16.15
338.886	16.09
339.253	16.16
339.619	16.2
339.986	16.18
340.352	16.27
340.718	16.29
341.084	16.24
341.451	16.28
341.817	16.38
342.183	16.53
342.549	16.67
342.915	16.78
343.281	16.95
343.647	16.88
344.013	16.91
344.379	16.92
344.745	16.95
345.11	16.94
345.476	17.01
345.842	17
346.208	16.97
346.573	17.11
346.939	17.21
347.304	17.13
347.67	17.07
348.035	17.04
348.401	16.99
348.766	17.02
349.132	17
349.497	16.86
349.862	16.83
350.228	16.88
350.593	16.79
350.958	16.89
351.323	16.95
351.688	17.06
352.053	17.08
352.418	17
352.783	17.1
353.148	17.13
353.513	17.26
353.878	17.24
354.243	17.33
354.608	17.35
354.972	17.43
355.337	17.55
355.702	17.62
356.066	17.77
356.431	17.85
356.795	17.93
357.16	18.03
357.524	18.14
357.889	18.11
358.253	18.15
358.618	18.09
358.982	17.99
359.346	17.97
359.71	18
360.075	18.01
360.439	18.01
360.803	18
361.167	17.95
361.531	17.88
361.895	17.79
362.259	17.67
362.623	17.73
362.987	17.7
363.351	17.66
363.714	17.62
364.078	17.54
364.442	17.5
364.806	17.42
365.169	17.34
365.533	17.37
365.896	17.38
366.26	17.35
366.623	17.37
366.987	17.33
367.35	17.29
367.714	17.29
368.077	17.21
368.44	17.18
368.803	17.16
369.167	17.13
369.53	17.08
369.893	17.14
370.256	17.02
370.619	16.95
370.982	16.85
371.345	16.79
371.708	16.74
372.071	16.61
372.434	16.63
372.797	16.56
373.159	16.43
373.522	16.43
373.885	16.43
374.247	16.44
374.61	16.43
374.973	16.33
375.335	16.28
375.698	16.21
376.06	16.11
376.423	16.01
376.785	16
377.147	15.93
377.51	15.87
377.872	15.88
378.234	15.86
378.596	15.82
378.958	15.73
379.321	15.77
379.683	15.79
380.045	15.73
380.407	15.69
380.769	15.67
381.13	15.59
381.492	15.51
381.854	15.42
382.216	15.34
382.578	15.34
382.939	15.22
383.301	15.17
383.663	15.13
384.024	15.13
384.386	15.1
384.747	15.09
385.109	15
385.47	14.89
385.832	14.79
386.193	14.7
386.554	14.68
386.916	14.57
387.277	14.51
387.638	14.48
387.999	14.43
388.36	14.37
388.721	14.31
389.082	14.22
389.443	14.14
389.804	14.07
390.165	14
390.526	14
390.887	13.9
391.248	13.87
391.609	13.81
391.969	13.72
392.33	13.65
392.691	13.6
393.051	13.55
393.412	13.53
393.772	13.44
394.133	13.34
394.493	13.28
394.854	13.18
395.214	13.08
395.574	13.02
395.935	12.93
396.295	12.84
396.655	12.78
397.015	12.73
397.376	12.68
397.736	12.57
398.096	12.46
398.456	12.43
398.816	12.35
399.176	12.23
399.535	12.14
399.895	12.05
400.255	11.99
400.615	11.94
400.975	11.87
401.334	11.87
401.694	11.81
402.054	11.75
402.413	11.73
402.773	11.67
403.132	11.59
403.492	11.5
403.851	11.44
404.211	11.41
404.57	11.35
404.929	11.3
405.288	11.27
405.648	11.27
406.007	11.25
406.366	11.18
406.725	11.17
407.084	11.17
407.443	11.14
407.802	11.12
408.161	11.02
408.52	10.97
408.879	10.94
409.238	10.95
409.596	10.94
409.955	10.88
410.314	10.85
410.673	10.83
411.031	10.85
411.39	10.81
411.748	10.76
412.107	10.75
412.465	10.69
412.824	10.65
413.182	10.54
413.54	10.5
413.899	10.46
414.257	10.39
414.615	10.32
414.974	10.26
415.332	10.18
415.69	10.15
416.048	10.08
416.406	10.01
416.764	9.93
417.122	9.87
417.48	9.81
417.838	9.73
418.195	9.67
418.553	9.59
418.911	9.56
419.269	9.49
419.626	9.43
419.984	9.39
420.342	9.34
420.699	9.3
421.057	9.26
421.414	9.21
421.772	9.17
422.129	9.13
422.486	9.08
422.844	9.05
423.201	9
423.558	8.97
423.915	8.94
424.273	8.91
424.63	8.85
424.987	8.81
425.344	8.81
425.701	8.77
426.058	8.75
426.415	8.71
426.772	8.68
427.128	8.64
427.485	8.6
427.842	8.56
428.199	8.55
428.555	8.51
428.912	8.49
429.269	8.48
429.625	8.44
429.982	8.44
430.338	8.46
430.695	8.43
431.051	8.41
431.407	8.38
431.764	8.38
432.12	8.39
432.476	8.4
432.832	8.37
433.189	8.39
433.545	8.38
433.901	8.39
434.257	8.38
434.613	8.41
434.969	8.41
435.325	8.45
435.681	8.43
436.036	8.45
436.392	8.45
436.748	8.43
437.104	8.43
437.459	8.43
437.815	8.4
438.171	8.42
438.526	8.41
438.882	8.43
439.237	8.41
439.593	8.4
439.948	8.38
440.304	8.38
440.659	8.36
441.014	8.35
441.369	8.33
441.725	8.3
442.08	8.28
442.435	8.25
442.79	8.2
443.145	8.17
443.5	8.12
443.855	8.09
444.21	8.09
444.565	8.07
444.92	8.04
445.275	8.01
445.629	7.97
445.984	7.93
446.339	7.89
446.693	7.85
447.048	7.8
447.403	7.77
447.757	7.73
448.112	7.69
448.466	7.65
448.82	7.63
449.175	7.62
449.529	7.58
449.883	7.56
450.238	7.53
450.592	7.52
450.946	7.48
451.3	7.46
451.654	7.42
452.008	7.39
452.362	7.36
452.716	7.34
453.07	7.32
453.424	7.31
453.778	7.3
454.132	7.3
454.486	7.31
454.839	7.31
455.193	7.3
455.547	7.31
455.9	7.32
456.254	7.33
456.607	7.33
456.961	7.33
457.314	7.34
457.668	7.38
458.021	7.39
458.375	7.41
458.728	7.41
459.081	7.44
459.434	7.45
459.787	7.47
460.141	7.48
460.494	7.5
460.847	7.53
461.2	7.54
461.553	7.55
461.906	7.58
462.259	7.61
462.611	7.65
462.964	7.69
463.317	7.72
463.67	7.75
464.022	7.8
464.375	7.83
464.728	7.88
465.08	7.9
465.433	7.93
465.785	7.96
466.138	7.99
466.49	8
466.843	8.05
467.195	8.08
467.547	8.15
467.899	8.18
468.252	8.21
468.604	8.25
468.956	8.28
469.308	8.3
469.66	8.31
470.012	8.35
470.364	8.37
470.716	8.37
471.068	8.39
471.42	8.42
471.772	8.47
472.123	8.49
472.475	8.5
472.827	8.55
473.178	8.56
473.53	8.57
473.882	8.59
474.233	8.6
474.585	8.59
474.936	8.56
475.288	8.55
475.639	8.56
475.99	8.56
476.342	8.56
476.693	8.55
477.044	8.55
477.395	8.52
477.746	8.5
478.097	8.49
478.448	8.47
478.8	8.44
479.15	8.39
479.501	8.36
479.852	8.34
480.203	8.32
480.554	8.32
480.905	8.33
481.255	8.32
481.606	8.31
481.957	8.3
482.307	8.31
482.658	8.31
483.009	8.31
483.359	8.31
483.709	8.32
484.06	8.32
484.41	8.32
484.761	8.33
485.111	8.34
485.461	8.35
485.811	8.36
486.162	8.36
486.512	8.39
486.862	8.41
487.212	8.42
487.562	8.45
487.912	8.46
488.262	8.47
488.612	8.5
488.961	8.54
489.311	8.57
489.661	8.59
490.011	8.63
490.36	8.65
490.71	8.7
491.06	8.73
491.409	8.76
491.759	8.81
492.108	8.85
492.458	8.9
492.807	8.94
493.157	9.01
493.506	9.07
493.855	9.13
494.204	9.19
494.554	9.25
494.903	9.33
495.252	9.42
495.601	9.51
495.95	9.58
496.299	9.66
496.648	9.74
496.997	9.86
497.346	9.97
497.695	10.1
498.043	10.18
498.392	10.27
498.741	10.37
499.09	10.46
499.438	10.58
499.787	10.71
500.135	10.84
500.484	10.97
500.832	11.13
501.181	11.25
501.529	11.38
501.878	11.55
502.226	11.68
502.574	11.82
502.923	11.96
503.271	12.11
503.619	12.29
503.967	12.45
504.315	12.62
504.663	12.79
505.011	12.93
505.359	13.09
505.707	13.27
506.055	13.47
506.403	13.66
506.751	13.84
507.098	13.97
507.446	14.15
507.794	14.3
508.141	14.47
508.489	14.68
508.837	14.86
509.184	15.03
509.531	15.21
509.879	15.37
510.226	15.56
510.574	15.75
510.921	15.93
511.268	16.12
511.616	16.29
511.963	16.48
512.31	16.68
512.657	16.89
513.004	17.08
513.351	17.29
513.698	17.52
514.045	17.73
514.392	17.97
514.739	18.18
515.086	18.4
515.432	18.61
515.779	18.78
516.126	19
516.473	19.21
516.819	19.43
517.166	19.62
517.512	19.82
517.859	20.01
518.205	20.15
518.552	20.32
518.898	20.5
519.245	20.66
519.591	20.83
519.937	21.01
520.283	21.19
520.629	21.42
520.976	21.63
521.322	21.86
521.668	22.07
522.014	22.3
522.36	22.53
522.706	22.76
523.052	23.02
523.398	23.3
523.743	23.59
524.089	23.86
524.435	24.15
524.781	24.46
525.126	24.72
525.472	24.99
525.817	25.22
526.163	25.43
526.509	25.63
526.854	25.81
527.199	25.99
527.545	26.17
527.89	26.31
528.235	26.49
528.581	26.66
528.926	26.84
529.271	27.01
529.616	27.2
529.961	27.39
530.306	27.6
530.651	27.81
530.996	28.01
531.341	28.22
531.686	28.43
532.031	28.64
532.376	28.85
532.721	29.09
533.065	29.34
533.41	29.57
533.755	29.84
534.099	30.09
534.444	30.37
534.788	30.63
535.133	30.92
535.477	31.16
535.822	31.44
536.166	31.75
536.51	32.09
536.855	32.44
537.199	32.83
537.543	33.18
537.887	33.51
538.231	33.91
538.576	34.33
538.92	34.68
539.264	35.01
539.608	35.33
539.951	35.6
540.295	35.9
540.639	36.22
540.983	36.49
541.327	36.78
541.671	37.05
542.014	37.32
542.358	37.55
542.701	37.83
543.045	38.1
543.389	38.36
543.732	38.64
544.075	38.91
544.419	39.15
544.762	39.45
545.105	39.78
545.449	40.02
545.792	40.3
546.135	40.64
546.478	40.98
546.821	41.36
547.165	41.77
547.508	42.09
547.851	42.46
548.194	42.83
548.536	43.2
548.879	43.55
549.222	43.92
549.565	44.29
549.908	44.69
550.25	45.05
550.593	45.42
550.936	45.73
551.278	46.11
551.621	46.46
551.963	46.81
552.306	47.1
552.648	47.46
552.991	47.74
553.333	48.1
553.675	48.39
554.017	48.69
554.36	48.97
554.702	49.26
555.044	49.47
555.386	49.78
555.728	50.07
556.07	50.4
556.412	50.68
556.754	51.01
557.096	51.26
557.438	51.53
557.78	51.75
558.121	52.08
558.463	52.32
558.805	52.61
559.147	52.87
559.488	53.2
559.83	53.43
560.171	53.69
560.513	53.91
560.854	54.11
561.196	54.38
561.537	54.63
561.878	54.84
562.22	55.06
562.561	55.21
562.902	55.38
563.243	55.53
563.584	55.72
563.925	55.87
564.266	56.01
564.607	56.18
564.948	56.43
565.289	56.59
565.63	56.77
565.971	56.95
566.312	57.09
566.653	57.21
566.993	57.39
567.334	57.54
567.675	57.64
568.015	57.81
568.356	57.98
568.696	58.09
569.037	58.24
569.377	58.45
569.718	58.63
570.058	58.77
570.398	58.92
570.739	59.06
571.079	59.18
571.419	59.39
571.759	59.57
572.099	59.68
572.439	59.77
572.779	59.87
573.119	59.92
573.459	60.08
573.799	60.15
574.139	60.3
574.479	60.42
574.819	60.54
575.158	60.65
575.498	60.75
575.838	60.88
576.177	60.96
576.517	61.07
576.856	61.19
577.196	61.33
577.535	61.46
577.875	61.56
578.214	61.67
578.553	61.71
578.893	61.83
579.232	62.03
579.571	62.18
579.91	62.26
580.25	62.43
580.589	62.63
580.928	62.78
581.267	62.84
581.606	62.95
581.945	62.99
582.283	63.12
582.622	63.23
582.961	63.33
583.3	63.48
583.639	63.58
583.977	63.63
584.316	63.75
584.654	63.74
584.993	63.84
585.332	63.95
585.67	63.97
586.008	63.92
586.347	63.97
586.685	63.98
587.024	64.09
587.362	64.19
587.7	64.12
588.038	64.22
588.376	64.28
588.715	64.33
589.053	64.46
589.391	64.45
589.729	64.52
590.067	64.57
590.404	64.62
590.742	64.68
591.08	64.81
591.418	64.82
591.756	64.93
592.093	64.97
592.431	64.98
592.769	65.09
593.106	65.19
593.444	65.15
593.781	65.18
594.119	65.16
594.456	65.14
594.793	65.19
595.131	65.21
595.468	65.26
595.805	65.32
596.143	65.34
596.48	65.48
596.817	65.45
597.154	65.49
597.491	65.48
597.828	65.48
598.165	65.48
598.502	65.47
598.839	65.49
599.176	65.52
599.512	65.64
599.849	65.66
600.186	65.74
600.523	65.78
600.859	65.79
601.196	65.87
601.532	65.96
601.869	66
602.205	66.05
602.542	66.01
602.878	66.01
603.215	66.05
603.551	66.04
603.887	66.15
604.223	66.13
604.56	66.2
604.896	66.21
605.232	66.2
605.568	66.26
605.904	66.22
606.24	66.25
606.576	66.3
606.912	66.36
607.248	66.39
607.583	66.4
607.919	66.47
608.255	66.48
608.591	66.46
608.926	66.5
609.262	66.49
609.597	66.52
609.933	66.61
610.268	66.62
610.604	66.69
610.939	66.65
611.275	66.71
611.61	66.75
611.945	66.85
612.281	66.87
612.616	66.93
612.951	67.08
613.286	67.09
613.621	67.01
613.956	67
614.291	67.05
614.626	67.16
614.961	67.28
615.296	67.46
615.631	67.45
615.966	67.46
616.3	67.53
616.635	67.56
616.97	67.46
617.304	67.55
617.639	67.55
617.973	67.54
618.308	67.59
618.642	67.63
618.977	67.58
619.311	67.66
619.646	67.62
619.98	67.72
620.314	67.85
620.648	67.94
620.983	67.96
621.317	67.96
621.651	67.92
621.985	67.83
622.319	67.79
622.653	67.83
622.987	67.93
623.321	67.99
623.655	68.14
623.988	68.22
624.322	68.17
624.656	68.2
624.99	68.26
625.323	68.28
625.657	68.32
625.99	68.34
626.324	68.31
626.657	68.42
626.991	68.27
627.324	68.21
627.658	68.23
627.991	68.3
628.324	68.4
628.657	68.49
628.991	68.57
629.324	68.66
629.657	68.7
629.99	68.66
630.323	68.65
630.656	68.66
630.989	68.8
631.322	68.87
631.655	68.91
631.987	68.89
632.32	68.89
632.653	68.79
632.986	68.87
633.318	68.81
633.651	68.76
633.984	68.92
634.316	69.01
634.649	69.02
634.981	69.03
635.313	69
635.646	69.04
635.978	69.03
636.31	68.92
636.643	68.95
636.975	68.95
637.307	68.94
637.639	68.88
637.971	68.8
638.303	68.78
638.635	68.8
638.967	68.83
639.299	68.73
639.631	68.75
639.963	68.69
640.295	68.71
640.626	68.69
640.958	68.72
641.29	68.63
641.621	68.8
641.953	68.67
642.285	68.47
642.616	68.4
642.948	68.34
643.279	68.37
643.61	68.29
643.942	68.29
644.273	68.23
644.604	68.26
644.936	68.18
645.267	68.2
645.598	68.22
645.929	68.26
646.26	68.33
646.591	68.39
646.922	68.45
647.253	68.53
647.584	68.66
647.915	68.64
648.245	68.74
648.576	68.67
648.907	68.71
649.238	68.91
649.568	68.9
649.899	69.04
650.229	69.02
650.56	69.12
650.89	69.15
651.221	69.21
651.551	69.17
651.882	69.19
652.212	69.14
652.542	69.06
652.872	69.09
653.203	69.21
653.533	69.13
653.863	69.07
654.193	69.16
654.523	69.22
654.853	69.12
655.183	69.1
655.513	68.95
655.843	68.97
656.172	68.93
656.502	68.98
656.832	68.9
657.162	68.94
657.491	69.03
657.821	69.05
658.15	69.01
658.48	68.98
658.809	68.95
659.139	69.05
659.468	69.11
659.798	69.17
660.127	69.16
660.456	69.2
660.785	69.21
661.115	69.14
661.444	69.07
661.773	69.16
662.102	69.01
662.431	69.02
662.76	69.14
663.089	69.26
663.418	69.24
663.747	69.29
664.076	69.32
664.404	69.23
664.733	69.31
665.062	69.39
665.39	69.53
665.719	69.68
666.048	69.68
666.376	69.62
666.705	69.43
667.033	69.46
667.362	69.46
667.69	69.6
668.018	69.63
668.347	69.48
668.675	69.48
669.003	69.67
669.331	69.73
669.659	69.63
669.987	69.55
670.315	69.48
670.643	69.62
670.971	69.75
671.299	69.8
671.627	69.76
671.955	69.79
672.283	69.77
672.61	69.71
672.938	69.73
673.266	69.66
673.593	69.82
673.921	69.74
674.249	69.79
674.576	69.74
674.904	69.81
675.231	69.92
675.558	69.89
675.886	69.87
676.213	69.88
676.54	69.84
676.867	69.87
677.195	70.02
677.522	69.9
677.849	69.84
678.176	69.76
678.503	69.62
678.83	69.58
679.157	69.61
679.484	69.62
679.81	69.7
680.137	69.73
680.464	69.62
680.791	69.66
681.117	69.65
681.444	69.64
681.771	69.51
682.097	69.46
682.424	69.42
682.75	69.51
683.077	69.44
683.403	69.51
683.729	69.54
684.056	69.56
684.382	69.55
684.708	69.39
685.034	69.5
685.36	69.65
685.686	69.69
686.012	69.7
686.339	69.73
686.664	69.69
686.99	69.7
687.316	69.81
687.642	69.87
687.968	69.78
688.294	69.73
688.619	69.84
688.945	70.11
689.271	70.13
689.596	70.15
689.922	70.24
690.247	70.39
690.573	70.35
690.898	70.26
691.224	70.32
691.549	70.35
691.874	70.24
692.2	70.15
692.525	70.03
692.85	70.02
693.175	70.09
693.5	70.06
693.825	70.28
694.15	70.21
694.475	70.06
694.8	70.23
695.125	70.14
695.45	70.01
695.775	69.92
696.099	69.87
696.424	69.85
696.749	70
697.073	69.92
697.398	69.95
697.723	69.91
698.047	69.95
698.372	69.97
698.696	70.01
699.02	70.11
699.345	70.22
699.669	70.24
699.993	70.13
700.318	70.18
700.642	70.08
700.966	70.12
701.29	70.16
701.614	70.14
701.938	70.33
702.262	70.35
702.586	70.23
702.91	70.31
703.234	70.12
703.557	70.03
703.881	70.12
704.205	70.23
704.529	70.12
704.852	70.22
705.176	70.25
705.499	70.15
705.823	70.06
706.146	69.83
706.47	69.62
706.793	69.55
707.117	69.38
707.44	69.37
707.763	69.35
708.086	69.55
708.409	69.57
708.733	69.55
709.056	69.79
709.379	70.05
709.702	69.94
710.025	69.95
710.348	70.06
710.671	69.95
710.993	69.79
711.316	69.89
711.639	69.72
711.962	69.87
712.284	70.07
712.607	69.93
712.93	70.1
713.252	70.17
713.575	70.3
713.897	70.31
714.22	70.27
714.542	70.28
714.864	70.12
715.187	70.28
715.509	70.09
715.831	70.06
716.153	69.77
716.475	69.93
716.798	70.14
717.12	70.12
717.442	70.03
717.764	69.95
718.085	69.93
718.407	70.1
718.729	69.93
719.051	69.56
719.373	69.75
719.695	69.59
720.016	69.71
720.338	69.75
720.659	69.81
720.981	69.85
721.302	69.72
721.624	69.9
721.945	69.71
722.267	69.97
722.588	70.09
722.909	70.24
723.231	70.32
723.552	70.29
723.873	69.95
724.194	70.15
724.515	70.25
724.836	70.6
725.157	70.11
725.478	70.44
725.799	70.88
726.12	70.77
726.441	70.78
726.762	70.9
727.083	70.61
727.403	70.67
727.724	70.68
728.045	71.03
728.365	70.93
728.686	70.88
729.006	70.71
729.327	70.61
729.647	70.57
729.967	70.31
730.288	70.31
730.608	70.42
730.928	70.15
731.249	70.25
731.569	69.94
731.889	70.14
732.209	70.08
732.529	70.03
732.849	69.88
733.169	69.88
733.489	69.78
733.809	70.11
734.129	70
734.448	69.94
734.768	69.53
735.088	69.44
735.408	69.43
735.727	69.57
736.047	69.27
736.366	69.26
736.686	69.25
737.005	69.27
737.325	69.32
737.644	69.56
737.963	69.66
738.283	69.73
738.602	69.8
738.921	69.68
739.24	69.66
739.56	69.82
739.879	69.66
740.198	69.65
740.517	69.67
740.836	69.95
741.155	70.09
741.473	70.31
741.792	70.22
742.111	70.22
742.43	70.3
742.748	70.35
743.067	70.37
743.386	70.64
743.704	70.4
744.023	70.21
744.341	70.21
744.66	70.24
744.978	70.19
745.297	69.77
745.615	69.72
745.933	69.79
746.252	69.92
746.57	70.65
746.888	70.61
747.206	70.44
747.524	70.37
747.842	70.45
748.16	70.34
748.478	70.16
748.796	70.23
749.114	70.12
749.432	70.61
749.749	70.43
750.067	70.67
750.385	71.05
750.703	71.58
751.02	71.26
751.338	71.19
751.655	71.09
751.973	71.4
752.29	71.27
752.608	71.18
752.925	71.32
753.242	70.83
753.56	70.81
753.877	71.06
754.194	71.07
754.511	70.96
754.828	70.94
755.145	71.32
755.462	71.49
755.779	71.37
756.096	71.08
756.413	71.35
756.73	71.13
757.047	71
757.364	70.91
757.68	71.2
757.997	71.08
758.314	71.07
758.63	71.25
758.947	71.33
759.264	71.09
759.58	71.15
759.896	71.53
760.213	71.39
760.529	71.2
760.846	71.06
761.162	70.86
761.478	71.12
761.794	70.87
762.11	70.65
762.426	71.01
762.743	71.16
763.059	71.01
763.375	71.01
763.69	71.21
764.006	71.17
764.322	71.03
764.638	70.95
764.954	71.17
765.27	71.08
765.585	71.31
765.901	71.52
766.216	71.48
766.532	71.33
766.848	71.48
767.163	71.43
767.478	71.59
767.794	71.71
768.109	71.34
768.424	71.79
768.74	71.85
769.055	71.74
769.37	71.69
769.685	71.81
770	71.8
770.315	71.34
770.63	70.68
770.945	70.71
771.26	70.61
771.575	70.56
771.89	70.56
772.205	70.37
772.52	70.02
772.834	69.79
773.149	69.99
773.464	69.77
773.778	70.14
774.093	69.89
774.407	69.49
774.722	70.29
775.036	69.95
775.351	70.03
775.665	69.71
775.979	69.17
776.293	69.49
776.608	69.47
776.922	69.5
777.236	70.15
777.55	70.46
777.864	71.03
778.178	71.08
778.492	70.89
778.806	70.63
779.12	70.86
779.434	70.98
779.747	70.36
780.061	70.39
780.375	69.91
780.689	70.26
781.002	70.91
781.316	70.31
781.629	70.79
781.943	70.48
782.256	70.54
782.57	70.79
782.883	70.37
783.196	70.11
783.51	70.25
783.823	70.18
784.136	70
784.449	69.4
784.762	69.01
785.075	69.53
785.388	69.76
785.701	69.91
786.014	70.23
786.327	70.74
786.64	71.14
786.953	71.29
787.266	70.9
787.578	70.66
787.891	70.55
788.204	69.91
788.516	70.45
788.829	70.79
789.141	71.22
789.454	71.72
789.766	72.23
790.079	72.42
790.391	72.51
790.703	72.77
791.016	72.64
791.328	72.73
791.64	72.61
791.952	72.59
792.264	72.12
792.576	71.48
792.888	71.24
793.2	71.26
793.512	71.1
793.824	71.24
794.136	71.45
794.448	71.2
794.76	71.42
795.071	71.05
795.383	70.8
795.695	70.46
796.006	69.77
796.318	69.46
796.629	69.55
796.941	69.01
797.252	69.31
797.564	69.95
797.875	69.81
798.186	69.5
798.497	68.91
798.809	68.95
799.12	69.54
799.431	69.85
799.742	68.97
800.053	68.6
800.364	68.45
800.675	67.94
800.986	68.78
801.297	68.77
801.608	68.42
801.918	68.52
802.229	68.94
802.54	69.15
802.851	69.22
803.161	68.93
803.472	69.11
803.782	68.57
804.093	67.89
804.403	67.41
804.714	67.44
805.024	68.18
805.334	69.13
805.645	68.28
805.955	67.53
806.265	67.98
806.575	68.41
806.885	68.7
807.195	68.58
807.505	67.89
807.815	67.53
808.125	67.68
808.435	67.31
808.745	67.12
809.055	66.99
809.365	66.91
809.674	66.53
809.984	66.74
810.294	66.95
810.603	67.28
810.913	67.71
811.222	68.31
811.532	67.46
811.841	67.58
812.151	68.33
812.46	68.72
812.769	68.67
813.079	68.48
813.388	68.04
813.697	68.01
814.006	67.9
814.315	68.66
814.624	68.61
814.933	68.48
815.242	68.59
815.551	68.97
815.86	68.8
816.169	68.94
816.478	69.3
816.786	69.01
817.095	68.66
817.404	69.36
817.712	69.07
818.021	69.97
818.33	70.07
818.638	70.62
818.947	70.69
819.255	71.34
819.563	71.65
819.872	71.72
820.18	72.32
820.488	72.96
820.796	72.95
821.105	73.19
821.413	73.5
821.721	73.27
822.029	73.3
822.337	73.49
822.645	73.56
822.953	73.33
823.26	73.22
823.568	73.19
823.876	73.09
824.184	73.09
824.491	72.91
824.799	72.7
825.107	72.64
825.414	72.8
825.722	72.83
826.029	72.81
826.337	72.85
826.644	72.63
826.951	72.43
827.259	72.28
827.566	71.88
827.873	71.51
828.18	71.51
828.488	71.28
828.795	71.14
829.102	70.73
829.409	71.02
829.716	71.05
830.023	70.86
830.329	70.56
830.636	70.58
830.943	70.35
831.25	70.35
831.557	70.04
831.863	69.69
832.17	69.13
832.476	69.57
832.783	70.08
833.089	70.03
833.396	69.72
833.702	69.49
834.009	69.93
834.315	69.68
834.621	69.83
834.928	70.26
835.234	69.95
835.54	70.4
835.846	69.79
836.152	70.13
836.458	70.6
836.764	70.59
837.07	70.3
837.376	70.35
837.682	70
837.988	69.56
838.293	69.57
838.599	69.73
838.905	69.07
839.211	68.89
839.516	68.74
839.822	68.62
840.127	68.18
840.433	68.48
840.738	68.34
841.044	67.02
841.349	66.54
841.654	67.03
841.959	66.56
842.265	66.87
842.57	66.33
842.875	65.3
843.18	66.65
843.485	66.35
843.79	67.36
844.095	66.72
844.4	67.16
844.705	67.1
845.01	67.44
845.315	67.04
845.619	65.75
845.924	65.87
846.229	66.56
846.533	67.74
846.838	65.91
847.142	67.86
847.447	69.9
847.751	68.4
848.056	66.18
848.36	66.05
848.664	66.4
848.969	65.59
849.273	66.07
849.577	64.25
849.881	64.47
850.185	63.66
850.489	66.53
850.794	66.81
851.097	66.79
851.401	64.63
851.705	63.51
852.009	63.06
852.313	63.29
852.617	61.63
852.92	61.61
853.224	61.12
853.528	60.27
853.831	59.76
854.135	61.06
854.438	62.6
854.742	62.33
855.045	61.93
855.349	62.88
855.652	63.05
855.955	63
856.259	62.06
856.562	63.04
856.865	62.22
857.168	62
857.471	61.94
857.774	65.3
858.077	64.21
858.38	64.88
858.683	64.93
858.986	63.89
859.289	63.03
859.592	63.43
859.894	61.02
860.197	61.62
860.5	61.08
860.802	60.96
861.105	62.38
861.407	62.39
861.71	61.36
862.012	62.37
862.315	62.62
862.617	61.91
862.919	58.65
863.222	57.8
863.524	57.93
863.826	59.58
864.128	55.88
864.43	57.65
864.732	57.45
865.034	55.33
865.336	56.17
865.638	57.84
865.94	57.47
866.242	58.6
866.544	57.06
866.846	55.17
867.147	54.03
867.449	54.94
867.751	56.16
868.052	57.63
868.354	59.78
868.655	62.2
868.957	64.79
869.258	66.81
869.56	67.11
869.861	66.94
870.162	63.08
870.463	69.21
870.765	68.42
871.066	66.99
871.367	69.62
871.668	71.03
871.969	70.03
872.27	72.85
872.571	72.92
872.872	74.1
873.173	75.27
873.473	76.79
873.774	72.88
874.075	70.02
874.376	70.47
874.676	67.88
874.977	63.84
875.277	62.38
875.578	61.78
875.878	61.79
876.179	61.79
876.479	63.69
876.78	59.5
877.08	60.45
877.38	61.1
877.68	60.4
877.981	59.33
878.281	58.49
878.581	56.66
