Data from BA28470_Reflection_00009.txt Node
Date: Mon Nov 18 15:10:10 EST 2019
User: vgr7
Spectrometer: USB2G7710
Scans to average: 3
Trigger mode: 4
Integration Time (sec): 2.000000E-2
Electric dark correction enabled: true
Boxcar width: 10
XAxis mode: Wavelengths
Number of Pixels in Spectrum: 2048
>>>>>Begin Spectral Data<<<<<
177.721	-87.89
178.105	-73.23
178.488	331.44
178.871	-249.26
179.254	-102.95
179.636	228.32
180.019	-4.68
180.402	69.7
180.785	4289.19
181.168	341.72
181.55	428.99
181.933	-51.59
182.316	-87.1
182.698	-210.26
183.081	-84
183.463	-133.92
183.846	-113.45
184.228	-66.25
184.611	-46.61
184.993	-61.74
185.376	-111.89
185.758	-120.25
186.14	-142.38
186.522	-83.85
186.904	-61.22
187.287	-189.83
187.669	-225.77
188.051	-100.22
188.433	-163.61
188.815	-262.67
189.197	-42.86
189.579	-120.38
189.961	-151.32
190.342	-1466.04
190.724	327.8
191.106	-646.48
191.488	-564.34
191.869	137.2
192.251	75.64
192.633	18.66
193.014	28.53
193.396	-3.57
193.777	55.25
194.159	91.91
194.54	121.76
194.922	141.44
195.303	86.12
195.684	60.62
196.065	38.96
196.447	53.7
196.828	44.77
197.209	43.47
197.59	39.26
197.971	31.29
198.352	29.94
198.733	32.69
199.114	50.37
199.495	56.35
199.876	54.96
200.257	69.35
200.638	94.71
201.018	85.12
201.399	86.75
201.78	84.17
202.16	55.13
202.541	31.32
202.922	-1.87
203.302	-8.25
203.683	-28.98
204.063	-72.95
204.444	-11.27
204.824	3.27
205.204	11.59
205.585	2.55
205.965	-13.85
206.345	-224.4
206.725	387.27
207.106	-1374.82
207.486	362.27
207.866	1079.7
208.246	2285.84
208.626	812.08
209.006	-1551.43
209.386	-641.54
209.766	-280.2
210.145	-252.86
210.525	-149.11
210.905	-118.52
211.285	-63.87
211.664	-32.45
212.044	-17.74
212.424	-46.4
212.803	-55.92
213.183	-54.25
213.562	-59.15
213.942	-34.63
214.321	-7.88
214.701	-10.26
215.08	-18.96
215.459	-11.61
215.838	-8.33
216.218	-20.55
216.597	-10.44
216.976	-11.74
217.355	-11.02
217.734	-12.75
218.113	11.42
218.492	10.21
218.871	15.95
219.25	18.4
219.629	19.73
220.008	14
220.387	23.98
220.766	24.27
221.144	22.18
221.523	24.22
221.902	22.55
222.28	11.17
222.659	19.91
223.037	33.68
223.416	57.41
223.794	41.62
224.173	47.04
224.551	52.58
224.929	41.65
225.308	38.41
225.686	39.37
226.064	31.69
226.442	30.44
226.821	24.1
227.199	19.65
227.577	18.59
227.955	18.62
228.333	16.91
228.711	17.04
229.089	20.54
229.467	19.67
229.845	18.43
230.222	17.33
230.6	14.35
230.978	11.29
231.356	6.97
231.733	7.27
232.111	8.01
232.488	5.77
232.866	7.71
233.243	5.42
233.621	4.38
233.998	6.17
234.376	3.87
234.753	4.15
235.13	4.53
235.508	4.67
235.885	5.7
236.262	3.8
236.639	2.56
237.016	1.05
237.393	1.67
237.77	1.37
238.147	2.34
238.524	2.33
238.901	3.78
239.278	5.1
239.655	4.97
240.032	4.81
240.409	4.42
240.785	3.57
241.162	4.18
241.539	4.67
241.915	3.82
242.292	4.37
242.668	4.68
243.045	5.09
243.421	4.99
243.798	4.73
244.174	4.48
244.551	4.53
244.927	4.6
245.303	4.8
245.679	5.03
246.056	5.13
246.432	5.29
246.808	5.07
247.184	4.45
247.56	4.48
247.936	4.44
248.312	4.53
248.688	4.81
249.064	4.73
249.44	4.49
249.815	4.37
250.191	4.37
250.567	4.14
250.943	3.8
251.318	3.88
251.694	3.75
252.069	3.95
252.445	3.93
252.82	3.86
253.196	4.02
253.571	3.8
253.947	3.71
254.322	3.73
254.697	3.7
255.073	3.62
255.448	3.57
255.823	3.71
256.198	3.69
256.573	3.52
256.948	3.79
257.323	3.86
257.698	3.92
258.073	3.64
258.448	3.69
258.823	3.63
259.198	3.39
259.573	3.55
259.948	3.59
260.322	3.71
260.697	3.78
261.072	3.48
261.446	3.7
261.821	3.64
262.195	3.71
262.57	3.71
262.944	3.89
263.319	3.8
263.693	3.77
264.067	3.99
264.442	4.24
264.816	3.97
265.19	4.1
265.564	4.19
265.938	4.48
266.313	4.5
266.687	4.62
267.061	4.92
267.435	4.78
267.809	4.72
268.183	4.5
268.556	4.28
268.93	4.36
269.304	4.2
269.678	4.3
270.051	4.13
270.425	4.16
270.799	4.04
271.172	4.08
271.546	4.03
271.919	3.75
272.293	3.5
272.666	3.55
273.04	3.52
273.413	3.39
273.787	3.32
274.16	3.31
274.533	3.26
274.906	3.24
275.279	3.11
275.653	3.15
276.026	3.16
276.399	3.21
276.772	3.18
277.145	3.11
277.518	2.96
277.891	2.96
278.263	2.8
278.636	2.91
279.009	2.95
279.382	3.18
279.755	3.22
280.127	3.39
280.5	3.55
280.872	3.5
281.245	3.63
281.617	3.66
281.99	3.76
282.362	3.81
282.735	3.63
283.107	3.68
283.479	3.61
283.852	3.62
284.224	3.65
284.596	3.62
284.968	3.55
285.34	3.67
285.713	3.75
286.085	3.83
286.457	3.88
286.829	3.89
287.201	3.82
287.572	3.77
287.944	3.72
288.316	3.65
288.688	3.65
289.06	3.62
289.431	3.64
289.803	3.71
290.175	3.75
290.546	3.91
290.918	4.06
291.289	4.17
291.661	4.31
292.032	4.42
292.403	4.48
292.775	4.44
293.146	4.33
293.517	4.23
293.889	4.29
294.26	4.23
294.631	4.22
295.002	4.12
295.373	4.16
295.744	4.19
296.115	4.07
296.486	4.08
296.857	4.12
297.228	4.13
297.599	4.04
297.97	4.05
298.34	4.06
298.711	4.09
299.082	4.02
299.452	3.96
299.823	4.06
300.194	4.16
300.564	4.36
300.935	4.48
301.305	4.39
301.676	4.44
302.046	4.52
302.416	4.57
302.787	4.67
303.157	4.66
303.527	4.66
303.897	4.84
304.267	4.94
304.637	4.95
305.008	4.95
305.378	5.09
305.748	4.99
306.117	4.88
306.487	4.83
306.857	4.97
307.227	5.09
307.597	5.04
307.967	5.06
308.336	5.01
308.706	5.04
309.076	5.17
309.445	5.06
309.815	4.94
310.184	4.83
310.554	4.89
310.923	4.84
311.293	4.91
311.662	4.89
312.031	4.86
312.401	4.89
312.77	4.95
313.139	4.94
313.508	5.09
313.877	5.11
314.246	5.23
314.616	5.08
314.985	5.07
315.353	5.01
315.722	5.09
316.091	5.16
316.46	4.99
316.829	5.16
317.198	5.24
317.567	5.37
317.935	5.78
318.304	5.68
318.672	5.79
319.041	5.92
319.41	5.97
319.778	6.11
320.147	6.24
320.515	6.16
320.883	6.07
321.252	6.12
321.62	6.15
321.988	6.09
322.357	6.21
322.725	6.12
323.093	6.29
323.461	6.23
323.829	6.33
324.197	6.5
324.565	6.46
324.933	6.47
325.301	6.43
325.669	6.24
326.037	6.34
326.405	6.43
326.772	6.39
327.14	6.52
327.508	6.45
327.875	6.29
328.243	6.4
328.61	6.51
328.978	6.52
329.346	6.71
329.713	6.79
330.08	6.95
330.448	6.84
330.815	6.75
331.182	6.73
331.55	6.7
331.917	6.68
332.284	6.78
332.651	6.8
333.018	6.94
333.385	7.01
333.752	7.07
334.119	7.1
334.486	6.94
334.853	6.87
335.22	6.84
335.587	6.95
335.954	7
336.32	6.92
336.687	6.83
337.054	6.8
337.42	6.78
337.787	6.79
338.153	7.04
338.52	7.07
338.886	7.06
339.253	7.05
339.619	7.05
339.986	7.05
340.352	7.15
340.718	7.14
341.084	7.1
341.451	7.15
341.817	7.21
342.183	7.35
342.549	7.31
342.915	7.36
343.281	7.37
343.647	7.32
344.013	7.36
344.379	7.4
344.745	7.34
345.11	7.32
345.476	7.44
345.842	7.48
346.208	7.51
346.573	7.51
346.939	7.56
347.304	7.59
347.67	7.58
348.035	7.58
348.401	7.58
348.766	7.64
349.132	7.58
349.497	7.46
349.862	7.54
350.228	7.66
350.593	7.66
350.958	7.57
351.323	7.58
351.688	7.62
352.053	7.75
352.418	7.76
352.783	7.82
353.148	7.6
353.513	7.46
353.878	7.45
354.243	7.51
354.608	7.5
354.972	7.5
355.337	7.5
355.702	7.48
356.066	7.52
356.431	7.49
356.795	7.5
357.16	7.56
357.524	7.44
357.889	7.35
358.253	7.33
358.618	7.42
358.982	7.42
359.346	7.33
359.71	7.16
360.075	7.16
360.439	7.15
360.803	7.2
361.167	7.22
361.531	7.2
361.895	7.11
362.259	7.03
362.623	7
362.987	6.95
363.351	6.89
363.714	6.86
364.078	6.81
364.442	6.74
364.806	6.73
365.169	6.74
365.533	6.68
365.896	6.64
366.26	6.66
366.623	6.65
366.987	6.69
367.35	6.78
367.714	6.78
368.077	6.67
368.44	6.67
368.803	6.65
369.167	6.57
369.53	6.57
369.893	6.66
370.256	6.64
370.619	6.62
370.982	6.57
371.345	6.52
371.708	6.54
372.071	6.51
372.434	6.46
372.797	6.4
373.159	6.41
373.522	6.45
373.885	6.34
374.247	6.31
374.61	6.23
374.973	6.14
375.335	6.01
375.698	6.01
376.06	5.92
376.423	5.86
376.785	5.83
377.147	5.76
377.51	5.69
377.872	5.62
378.234	5.57
378.596	5.55
378.958	5.46
379.321	5.38
379.683	5.38
380.045	5.32
380.407	5.27
380.769	5.21
381.13	5.15
381.492	5.13
381.854	5.08
382.216	5.04
382.578	5
382.939	5.01
383.301	4.95
383.663	4.88
384.024	4.87
384.386	4.88
384.747	4.88
385.109	4.85
385.47	4.81
385.832	4.78
386.193	4.78
386.554	4.76
386.916	4.74
387.277	4.68
387.638	4.69
387.999	4.64
388.36	4.62
388.721	4.61
389.082	4.56
389.443	4.49
389.804	4.47
390.165	4.44
390.526	4.43
390.887	4.45
391.248	4.48
391.609	4.42
391.969	4.43
392.33	4.42
392.691	4.35
393.051	4.35
393.412	4.33
393.772	4.28
394.133	4.3
394.493	4.31
394.854	4.27
395.214	4.26
395.574	4.26
395.935	4.24
396.295	4.19
396.655	4.17
397.015	4.16
397.376	4.14
397.736	4.12
398.096	4.1
398.456	4.07
398.816	4.01
399.176	4.01
399.535	3.93
399.895	3.9
400.255	3.91
400.615	3.89
400.975	3.87
401.334	3.85
401.694	3.8
402.054	3.73
402.413	3.73
402.773	3.71
403.132	3.71
403.492	3.68
403.851	3.63
404.211	3.62
404.57	3.6
404.929	3.6
405.288	3.62
405.648	3.58
406.007	3.53
406.366	3.53
406.725	3.54
407.084	3.55
407.443	3.53
407.802	3.52
408.161	3.51
408.52	3.49
408.879	3.48
409.238	3.48
409.596	3.49
409.955	3.47
410.314	3.44
410.673	3.38
411.031	3.37
411.39	3.38
411.748	3.37
412.107	3.37
412.465	3.34
412.824	3.32
413.182	3.33
413.54	3.34
413.899	3.33
414.257	3.3
414.615	3.3
414.974	3.33
415.332	3.29
415.69	3.27
416.048	3.26
416.406	3.25
416.764	3.24
417.122	3.25
417.48	3.24
417.838	3.24
418.195	3.24
418.553	3.22
418.911	3.21
419.269	3.19
419.626	3.17
419.984	3.16
420.342	3.16
420.699	3.14
421.057	3.13
421.414	3.1
421.772	3.1
422.129	3.08
422.486	3.04
422.844	3.03
423.201	3.03
423.558	3.03
423.915	3.02
424.273	3.01
424.63	2.99
424.987	2.99
425.344	2.97
425.701	2.96
426.058	2.96
426.415	2.96
426.772	2.97
427.128	2.99
427.485	3
427.842	2.98
428.199	2.99
428.555	2.98
428.912	3
429.269	3.01
429.625	3.02
429.982	3.01
430.338	3.04
430.695	3.04
431.051	3.03
431.407	3.04
431.764	3.04
432.12	3.03
432.476	3.03
432.832	3.02
433.189	3.04
433.545	3.03
433.901	3.01
434.257	3
434.613	3
434.969	2.98
435.325	2.99
435.681	2.98
436.036	2.98
436.392	2.98
436.748	2.98
437.104	2.98
437.459	2.98
437.815	2.97
438.171	2.95
438.526	2.95
438.882	2.95
439.237	2.93
439.593	2.94
439.948	2.93
440.304	2.94
440.659	2.93
441.014	2.94
441.369	2.94
441.725	2.93
442.08	2.93
442.435	2.93
442.79	2.92
443.145	2.92
443.5	2.91
443.855	2.89
444.21	2.86
444.565	2.86
444.92	2.87
445.275	2.87
445.629	2.88
445.984	2.88
446.339	2.86
446.693	2.86
447.048	2.87
447.403	2.86
447.757	2.84
448.112	2.83
448.466	2.82
448.82	2.83
449.175	2.84
449.529	2.83
449.883	2.81
450.238	2.79
450.592	2.81
450.946	2.81
451.3	2.82
451.654	2.82
452.008	2.83
452.362	2.83
452.716	2.82
453.07	2.82
453.424	2.83
453.778	2.84
454.132	2.85
454.486	2.84
454.839	2.84
455.193	2.85
455.547	2.86
455.9	2.86
456.254	2.87
456.607	2.85
456.961	2.85
457.314	2.88
457.668	2.88
458.021	2.87
458.375	2.88
458.728	2.87
459.081	2.88
459.434	2.86
459.787	2.84
460.141	2.84
460.494	2.85
460.847	2.84
461.2	2.86
461.553	2.86
461.906	2.87
462.259	2.89
462.611	2.89
462.964	2.9
463.317	2.9
463.67	2.91
464.022	2.92
464.375	2.91
464.728	2.9
465.08	2.9
465.433	2.91
465.785	2.91
466.138	2.92
466.49	2.94
466.843	2.95
467.195	2.97
467.547	2.98
467.899	2.97
468.252	2.97
468.604	2.97
468.956	2.97
469.308	2.97
469.66	2.96
470.012	2.98
470.364	3
470.716	3.01
471.068	3.01
471.42	3.01
471.772	3.02
472.123	3.03
472.475	3.04
472.827	3.05
473.178	3.05
473.53	3.06
473.882	3.04
474.233	3.05
474.585	3.04
474.936	3.06
475.288	3.06
475.639	3.06
475.99	3.06
476.342	3.06
476.693	3.05
477.044	3.04
477.395	3.02
477.746	2.98
478.097	2.98
478.448	2.97
478.8	2.97
479.15	2.95
479.501	2.94
479.852	2.94
480.203	2.94
480.554	2.95
480.905	2.95
481.255	2.95
481.606	2.95
481.957	2.94
482.307	2.94
482.658	2.94
483.009	2.94
483.359	2.94
483.709	2.95
484.06	2.96
484.41	2.96
484.761	2.96
485.111	2.97
485.461	2.97
485.811	2.98
486.162	2.97
486.512	2.99
486.862	2.99
487.212	2.99
487.562	3
487.912	3
488.262	3
488.612	3.02
488.961	3.01
489.311	3.02
489.661	3.02
490.011	3.03
490.36	3.03
490.71	3.03
491.06	3.03
491.409	3.02
491.759	3.02
492.108	3.03
492.458	3.04
492.807	3.03
493.157	3.03
493.506	3.05
493.855	3.05
494.204	3.04
494.554	3.06
494.903	3.04
495.252	3.05
495.601	3.08
495.95	3.08
496.299	3.09
496.648	3.11
496.997	3.11
497.346	3.13
497.695	3.16
498.043	3.19
498.392	3.2
498.741	3.23
499.09	3.25
499.438	3.28
499.787	3.3
500.135	3.34
500.484	3.37
500.832	3.4
501.181	3.43
501.529	3.47
501.878	3.5
502.226	3.54
502.574	3.57
502.923	3.58
503.271	3.61
503.619	3.66
503.967	3.67
504.315	3.72
504.663	3.74
505.011	3.78
505.359	3.79
505.707	3.84
506.055	3.88
506.403	3.9
506.751	3.93
507.098	3.95
507.446	3.98
507.794	4.02
508.141	4.05
508.489	4.08
508.837	4.11
509.184	4.14
509.531	4.19
509.879	4.21
510.226	4.26
510.574	4.29
510.921	4.32
511.268	4.37
511.616	4.42
511.963	4.47
512.31	4.52
512.657	4.59
513.004	4.65
513.351	4.71
513.698	4.79
514.045	4.85
514.392	4.92
514.739	4.98
515.086	5.02
515.432	5.1
515.779	5.16
516.126	5.25
516.473	5.32
516.819	5.38
517.166	5.45
517.512	5.5
517.859	5.56
518.205	5.62
518.552	5.67
518.898	5.71
519.245	5.74
519.591	5.78
519.937	5.82
520.283	5.88
520.629	5.94
520.976	6.02
521.322	6.1
521.668	6.17
522.014	6.26
522.36	6.36
522.706	6.44
523.052	6.56
523.398	6.65
523.743	6.77
524.089	6.85
524.435	6.98
524.781	7.09
525.126	7.2
525.472	7.29
525.817	7.38
526.163	7.46
526.509	7.54
526.854	7.63
527.199	7.71
527.545	7.78
527.89	7.86
528.235	7.92
528.581	8.01
528.926	8.09
529.271	8.17
529.616	8.26
529.961	8.33
530.306	8.42
530.651	8.52
530.996	8.61
531.341	8.73
531.686	8.85
532.031	8.96
532.376	9.07
532.721	9.22
533.065	9.35
533.41	9.49
533.755	9.65
534.099	9.8
534.444	9.95
534.788	10.1
535.133	10.26
535.477	10.43
535.822	10.61
536.166	10.8
536.51	11.02
536.855	11.24
537.199	11.48
537.543	11.72
537.887	11.95
538.231	12.21
538.576	12.44
538.92	12.68
539.264	12.91
539.608	13.15
539.951	13.34
540.295	13.56
540.639	13.77
540.983	13.97
541.327	14.18
541.671	14.38
542.014	14.57
542.358	14.76
542.701	14.99
543.045	15.2
543.389	15.41
543.732	15.63
544.075	15.85
544.419	16.08
544.762	16.32
545.105	16.58
545.449	16.84
545.792	17.13
546.135	17.42
546.478	17.74
546.821	18.08
547.165	18.41
547.508	18.77
547.851	19.13
548.194	19.5
548.536	19.85
548.879	20.22
549.222	20.63
549.565	21.02
549.908	21.38
550.25	21.72
550.593	22.11
550.936	22.47
551.278	22.87
551.621	23.32
551.963	23.69
552.306	24.09
552.648	24.48
552.991	24.87
553.333	25.25
553.675	25.63
554.017	26.04
554.36	26.43
554.702	26.81
555.044	27.14
555.386	27.5
555.728	27.92
556.07	28.32
556.412	28.74
556.754	29.11
557.096	29.47
557.438	29.9
557.78	30.34
558.121	30.81
558.463	31.22
558.805	31.6
559.147	32.03
559.488	32.46
559.83	32.92
560.171	33.33
560.513	33.73
560.854	34.13
561.196	34.48
561.537	34.85
561.878	35.26
562.22	35.7
562.561	36.05
562.902	36.37
563.243	36.72
563.584	37.08
563.925	37.48
564.266	37.91
564.607	38.25
564.948	38.59
565.289	38.9
565.63	39.2
565.971	39.52
566.312	39.83
566.653	40.14
566.993	40.39
567.334	40.74
567.675	41.03
568.015	41.41
568.356	41.75
568.696	42.08
569.037	42.36
569.377	42.67
569.718	43.03
570.058	43.41
570.398	43.76
570.739	44.07
571.079	44.39
571.419	44.67
571.759	44.95
572.099	45.2
572.439	45.45
572.779	45.71
573.119	46.01
573.459	46.26
573.799	46.61
574.139	46.9
574.479	47.13
574.819	47.42
575.158	47.59
575.498	47.9
575.838	48.13
576.177	48.43
576.517	48.71
576.856	48.99
577.196	49.2
577.535	49.4
577.875	49.66
578.214	49.91
578.553	50.26
578.893	50.63
579.232	50.93
579.571	51.29
579.91	51.62
580.25	51.86
580.589	52.18
580.928	52.37
581.267	52.62
581.606	52.82
581.945	53.03
582.283	53.26
582.622	53.42
582.961	53.7
583.3	53.94
583.639	54.1
583.977	54.26
584.316	54.47
584.654	54.75
584.993	54.97
585.332	55.11
585.67	55.25
586.008	55.32
586.347	55.5
586.685	55.7
587.024	55.86
587.362	56.07
587.7	56.09
588.038	56.3
588.376	56.41
588.715	56.58
589.053	56.71
589.391	56.86
589.729	57.01
590.067	57.08
590.404	57.19
590.742	57.3
591.08	57.51
591.418	57.7
591.756	57.8
592.093	57.94
592.431	58.2
592.769	58.3
593.106	58.47
593.444	58.62
593.781	58.74
594.119	58.9
594.456	59.01
594.793	59.22
595.131	59.3
595.468	59.42
595.805	59.57
596.143	59.71
596.48	59.84
596.817	59.95
597.154	60.1
597.491	60.21
597.828	60.42
598.165	60.59
598.502	60.65
598.839	60.73
599.176	60.8
599.512	60.91
599.849	61.11
600.186	61.18
600.523	61.28
600.859	61.4
601.196	61.49
601.532	61.57
601.869	61.71
602.205	61.78
602.542	61.89
602.878	61.97
603.215	62.05
603.551	62.11
603.887	62.14
604.223	62.16
604.56	62.25
604.896	62.27
605.232	62.27
605.568	62.38
605.904	62.51
606.24	62.64
606.576	62.71
606.912	62.78
607.248	62.88
607.583	62.95
607.919	63.01
608.255	63.06
608.591	63.21
608.926	63.22
609.262	63.32
609.597	63.45
609.933	63.58
610.268	63.69
610.604	63.87
610.939	64.01
611.275	64.18
611.61	64.25
611.945	64.32
612.281	64.38
612.616	64.51
612.951	64.59
613.286	64.77
613.621	64.82
613.956	64.85
614.291	64.94
614.626	65.1
614.961	65.13
615.296	65.22
615.631	65.24
615.966	65.39
616.3	65.45
616.635	65.52
616.97	65.56
617.304	65.6
617.639	65.72
617.973	65.87
618.308	65.92
618.642	65.97
618.977	65.99
619.311	66.08
619.646	66.05
619.98	66.08
620.314	66.08
620.648	66.17
620.983	66.25
621.317	66.31
621.651	66.24
621.985	66.35
622.319	66.45
622.653	66.53
622.987	66.56
623.321	66.59
623.655	66.54
623.988	66.58
624.322	66.62
624.656	66.51
624.99	66.5
625.323	66.47
625.657	66.56
625.99	66.69
626.324	66.81
626.657	66.86
626.991	66.83
627.324	66.75
627.658	66.74
627.991	66.85
628.324	66.97
628.657	67.07
628.991	67.12
629.324	67.12
629.657	67.11
629.99	67.21
630.323	67.27
630.656	67.39
630.989	67.39
631.322	67.5
631.655	67.67
631.987	67.76
632.32	67.95
632.653	67.96
632.986	67.97
633.318	68
633.651	68.03
633.984	68.15
634.316	68.24
634.649	68.34
634.981	68.32
635.313	68.31
635.646	68.26
635.978	68.25
636.31	68.33
636.643	68.37
636.975	68.41
637.307	68.33
637.639	68.35
637.971	68.43
638.303	68.28
638.635	68.19
638.967	68.09
639.299	68.04
639.631	68.06
639.963	68.06
640.295	67.99
640.626	68.05
640.958	68.07
641.29	68.18
641.621	68.2
641.953	68.17
642.285	68.21
642.616	68.34
642.948	68.4
643.279	68.4
643.61	68.44
643.942	68.4
644.273	68.52
644.604	68.47
644.936	68.5
645.267	68.54
645.598	68.57
645.929	68.66
646.26	68.69
646.591	68.68
646.922	68.74
647.253	68.75
647.584	68.72
647.915	68.81
648.245	68.74
648.576	68.89
648.907	68.84
649.238	68.87
649.568	68.9
649.899	68.95
650.229	68.97
650.56	69.07
650.89	69.1
651.221	69.07
651.551	69.1
651.882	69.12
652.212	69.17
652.542	69.23
652.872	69.27
653.203	69.3
653.533	69.3
653.863	69.3
654.193	69.35
654.523	69.4
654.853	69.38
655.183	69.41
655.513	69.37
655.843	69.59
656.172	69.45
656.502	69.47
656.832	69.5
657.162	69.68
657.491	69.56
657.821	69.53
658.15	69.66
658.48	69.83
658.809	69.86
659.139	69.86
659.468	69.89
659.798	69.94
660.127	70.06
660.456	70.1
660.785	70.06
661.115	70.08
661.444	70.1
661.773	70.15
662.102	70.18
662.431	70.15
662.76	70.1
663.089	70.15
663.418	70.08
663.747	70.06
664.076	70.07
664.404	70.18
664.733	70.23
665.062	70.33
665.39	70.26
665.719	70.31
666.048	70.48
666.376	70.62
666.705	70.5
667.033	70.5
667.362	70.68
667.69	70.72
668.018	70.72
668.347	70.83
668.675	70.84
669.003	70.78
669.331	70.69
669.659	70.63
669.987	70.7
670.315	70.86
670.643	70.86
670.971	70.91
671.299	70.98
671.627	71.07
671.955	70.92
672.283	70.85
672.61	70.77
672.938	70.66
673.266	70.49
673.593	70.57
673.921	70.44
674.249	70.37
674.576	70.48
674.904	70.49
675.231	70.56
675.558	70.59
675.886	70.62
676.213	70.51
676.54	70.53
676.867	70.62
677.195	70.55
677.522	70.75
677.849	70.65
678.176	70.55
678.503	70.54
678.83	70.65
679.157	70.75
679.484	70.81
679.81	71.03
680.137	71.07
680.464	71.08
680.791	71.22
681.117	71.06
681.444	70.85
681.771	70.99
682.097	71.02
682.424	71.04
682.75	71.08
683.077	71.31
683.403	71.44
683.729	71.32
684.056	71.31
684.382	71.27
684.708	71.2
685.034	71.31
685.36	71.45
685.686	71.32
686.012	71.31
686.339	71.43
686.664	71.19
686.99	71.27
687.316	71.36
687.642	71.35
687.968	71.62
688.294	71.95
688.619	71.85
688.945	71.76
689.271	71.76
689.596	71.65
689.922	71.69
690.247	71.64
690.573	71.86
690.898	71.93
691.224	71.69
691.549	71.69
691.874	71.57
692.2	71.42
692.525	71.54
692.85	71.57
693.175	71.22
693.5	71.15
693.825	71.14
694.15	71.11
694.475	71.03
694.8	70.79
695.125	70.56
695.45	70.54
695.775	70.33
696.099	70.25
696.424	70.48
696.749	70.44
697.073	70.49
697.398	70.44
697.723	70.39
698.047	70.54
698.372	70.73
698.696	70.79
699.02	70.84
699.345	70.76
699.669	70.64
699.993	70.83
700.318	70.98
700.642	71.02
700.966	70.92
701.29	70.98
701.614	71.13
701.938	71.3
702.262	71.46
702.586	71.58
702.91	71.57
703.234	71.56
703.557	71.71
703.881	71.76
704.205	71.68
704.529	71.7
704.852	71.69
705.176	71.49
705.499	71.53
705.823	71.56
706.146	71.71
706.47	71.94
706.793	71.89
707.117	71.66
707.44	71.73
707.763	71.85
708.086	71.82
708.409	71.68
708.733	71.8
709.056	71.72
709.379	71.92
709.702	72.02
710.025	71.93
710.348	71.79
710.671	71.7
710.993	71.94
711.316	72.01
711.639	71.8
711.962	71.71
712.284	71.8
712.607	71.78
712.93	71.87
713.252	71.83
713.575	71.89
713.897	72.32
714.22	72.01
714.542	72.02
714.864	72.02
715.187	71.95
715.509	71.94
715.831	71.89
716.153	71.93
716.475	71.91
716.798	71.99
717.12	72.03
717.442	71.97
717.764	71.88
718.085	71.95
718.407	72.18
718.729	72.28
719.051	72.17
719.373	72.1
719.695	71.94
720.016	71.97
720.338	71.98
720.659	71.68
720.981	71.96
721.302	71.74
721.624	71.69
721.945	72.03
722.267	71.99
722.588	72.02
722.909	71.76
723.231	71.82
723.552	71.97
723.873	72.04
724.194	72.07
724.515	71.96
724.836	71.77
725.157	71.77
725.478	71.94
725.799	71.96
726.12	72.11
726.441	72.1
726.762	72
727.083	72.07
727.403	71.98
727.724	71.91
728.045	72.21
728.365	72.22
728.686	72.12
729.006	72.19
729.327	72.39
729.647	72.63
729.967	72.57
730.288	72.42
730.608	72.27
730.928	72.24
731.249	72.04
731.569	72.09
731.889	72.17
732.209	72
732.529	72.04
732.849	71.94
733.169	72.07
733.489	72.19
733.809	72.18
734.129	72.44
734.448	72.47
734.768	72.4
735.088	72.21
735.408	72.2
735.727	72.13
736.047	71.92
736.366	71.85
736.686	71.84
737.005	71.97
737.325	71.62
737.644	71.61
737.963	71.98
738.283	72.04
738.602	71.9
738.921	72.18
739.24	72.32
739.56	72.37
739.879	72.49
740.198	72.93
740.517	72.88
740.836	72.86
741.155	72.8
741.473	72.52
741.792	72.79
742.111	72.82
742.43	72.56
742.748	72.64
743.067	72.84
743.386	72.89
743.704	72.84
744.023	73.19
744.341	73.3
744.66	73.39
744.978	73.35
745.297	73.5
745.615	73.31
745.933	73.1
746.252	73.27
746.57	73.06
746.888	72.41
747.206	72.43
747.524	72.26
747.842	72.55
748.16	72.72
748.478	72.94
748.796	73.29
749.114	73.63
749.432	73.51
749.749	73.21
750.067	73.04
750.385	73.09
750.703	73.39
751.02	73.61
751.338	73.67
751.655	73.65
751.973	73.59
752.29	73.39
752.608	73.46
752.925	73.15
753.242	73.23
753.56	73.12
753.877	72.7
754.194	72.82
754.511	72.89
754.828	73.32
755.145	73.21
755.462	73.05
755.779	72.88
756.096	72.88
756.413	72.98
756.73	73.43
757.047	73.16
757.364	73.12
757.68	73.04
757.997	72.75
758.314	72.98
758.63	73.06
758.947	73.33
759.264	73.21
759.58	73.96
759.896	73.96
760.213	73.92
760.529	73.97
760.846	73.9
761.162	73.7
761.478	73.45
761.794	73.61
762.11	73.62
762.426	73.77
762.743	73.7
763.059	73.64
763.375	73.46
763.69	73.58
764.006	73.63
764.322	73.59
764.638	73.7
764.954	73.51
765.27	73.46
765.585	73.44
765.901	73.8
766.216	73.37
766.532	73.25
766.848	73.56
767.163	73.84
767.478	73.78
767.794	73.76
768.109	73.91
768.424	73.49
768.74	73.27
769.055	73.23
769.37	73.35
769.685	73.5
770	73.62
770.315	73.53
770.63	73.57
770.945	73.54
771.26	73.52
771.575	73.68
771.89	73.8
772.205	73.36
772.52	72.5
772.834	72.31
773.149	72.45
773.464	72.5
773.778	72.63
774.093	72.83
774.407	72.99
774.722	73.04
775.036	73.66
775.351	73.62
775.665	73.2
775.979	73.32
776.293	72.81
776.608	72.59
776.922	72.66
777.236	72.61
777.55	72.33
777.864	72.55
778.178	72.67
778.492	72.67
778.806	73.36
779.12	73.84
779.434	73.9
779.747	74.06
780.061	74.08
780.375	73.72
780.689	73.67
781.002	73.93
781.316	73.6
781.629	73.18
781.943	73.37
782.256	73.51
782.57	73.48
782.883	73.93
783.196	74.11
783.51	74.21
783.823	73.95
784.136	74.32
784.449	73.79
784.762	73.7
785.075	73.64
785.388	73.3
785.701	73.44
786.014	73.71
786.327	73.5
786.64	73.14
786.953	73.25
787.266	72.93
787.578	72.18
787.891	72.15
788.204	72.35
788.516	72.86
788.829	73.49
789.141	73.35
789.454	73.56
789.766	73.77
790.079	73.58
790.391	73.52
790.703	73.4
791.016	74.21
791.328	74.32
791.64	73.86
791.952	73.99
792.264	73.63
792.576	74.06
792.888	74.06
793.2	74.26
793.512	74.51
793.824	74.4
794.136	75.07
794.448	74.92
794.76	74.79
795.071	74.68
795.383	74.14
795.695	73.86
796.006	73.35
796.318	73.31
796.629	73.61
796.941	74.23
797.252	74.45
797.564	74.06
797.875	73.45
798.186	73.91
798.497	73.89
798.809	74.31
799.12	73.78
799.431	73.73
799.742	73.88
800.053	73.63
800.364	73.93
800.675	73.69
800.986	74.11
801.297	73.73
801.608	73.14
801.918	73.04
802.229	73.41
802.54	73.85
802.851	73.96
803.161	73.63
803.472	73.15
803.782	72.69
804.093	72.9
804.403	73.49
804.714	73.29
805.024	73.22
805.334	72.44
805.645	73
805.955	73.31
806.265	72.7
806.575	72.7
806.885	72.98
807.195	72.92
807.505	73.46
807.815	73.91
808.125	73.6
808.435	73.68
808.745	74.5
809.055	74.4
809.365	74.14
809.674	74.09
809.984	74.19
810.294	74.99
810.603	74.81
810.913	74.6
811.222	75.01
811.532	75.32
811.841	76.28
812.151	75.66
812.46	75.32
812.769	75.77
813.079	76.14
813.388	75.74
813.697	75.42
814.006	74.62
814.315	74.17
814.624	74.98
814.933	75.05
815.242	74.46
815.551	74.64
815.86	74.2
816.169	74.4
816.478	74.39
816.786	73.92
817.095	74.05
817.404	74.46
817.712	74.13
818.021	74.81
818.33	74.3
818.638	74.55
818.947	74.84
819.255	74.56
819.563	74.94
819.872	75.31
820.18	75.39
820.488	75.34
820.796	75.4
821.105	75.3
821.413	75.49
821.721	75.16
822.029	75.31
822.337	75.36
822.645	75.47
822.953	75.31
823.26	75.29
823.568	75.3
823.876	75.26
824.184	75.22
824.491	75.09
824.799	75.31
825.107	75.26
825.414	75.16
825.722	75.27
826.029	75.27
826.337	75.39
826.644	75.41
826.951	75.24
827.259	75.22
827.566	75.16
827.873	74.99
828.18	75.47
828.488	75.26
828.795	75.48
829.102	75.21
829.409	75.57
829.716	75.6
830.023	75.37
830.329	75.45
830.636	75.92
830.943	75.96
831.25	75.14
831.557	74.63
831.863	74.73
832.17	74.57
832.476	74.65
832.783	74.29
833.089	74.58
833.396	74.86
833.702	75.25
834.009	75.47
834.315	75.12
834.621	74.82
834.928	74.81
835.234	74.63
835.54	75.22
835.846	74.85
836.152	74.89
836.458	74.65
836.764	74.56
837.07	74.24
837.376	73.63
837.682	74.47
837.988	74.58
838.293	74.39
838.599	74.13
838.905	73.4
839.211	73.49
839.516	73.01
839.822	72.4
840.127	72.26
840.433	71.98
840.738	72.62
841.044	72.17
841.349	71.85
841.654	72.65
841.959	72.04
842.265	73.1
842.57	72.76
842.875	73.44
843.18	73.51
843.485	73.71
843.79	74.68
844.095	73.62
844.4	74.78
844.705	76.25
845.01	77.84
845.315	76.92
845.619	76.76
845.924	76.79
846.229	79.6
846.533	78.47
846.838	79.64
847.142	77.94
847.447	78.79
847.751	78.55
848.056	76.18
848.36	77.28
848.664	74.59
848.969	76.28
849.273	75.54
849.577	74.7
849.881	74.07
850.185	73.21
850.489	74.18
850.794	74.24
851.097	72.69
851.401	70.45
851.705	72.89
852.009	74.53
852.313	75.15
852.617	74.82
852.92	77.06
853.224	76.78
853.528	81.42
853.831	80.6
854.135	81.14
854.438	83.14
854.742	84.24
855.045	86.18
855.349	83.39
855.652	82.95
855.955	85.3
856.259	83.98
856.562	85.46
856.865	87.72
857.168	87.75
857.471	89.42
857.774	92.36
858.077	92.17
858.38	90.32
858.683	87.88
858.986	86.23
859.289	83.28
859.592	82.38
859.894	80.07
860.197	80.99
860.5	79.13
860.802	78.63
861.105	76.03
861.407	77.01
861.71	77.72
862.012	80.67
862.315	78.05
862.617	78.23
862.919	78.11
863.222	77.1
863.524	77.89
863.826	74
864.128	73.54
864.43	75.08
864.732	75.65
865.034	78.57
865.336	79.86
865.638	81.01
865.94	81.61
866.242	81.25
866.544	81.46
866.846	85.04
867.147	83.97
867.449	83.02
867.751	80.93
868.052	83.4
868.354	81.44
868.655	83.14
868.957	82.97
869.258	83
869.56	82.89
869.861	81.59
870.162	86.74
870.463	87.18
870.765	87.32
871.066	86.59
871.367	86.47
871.668	82.95
871.969	80.82
872.27	79.91
872.571	82.08
872.872	79.08
873.173	77.25
873.473	78.68
873.774	78.8
874.075	81.42
874.376	79.67
874.676	79.6
874.977	78.77
875.277	79.28
875.578	77.26
875.878	77.42
876.179	78.19
876.479	76
876.78	74.65
877.08	72.1
877.38	71.36
877.68	69.11
877.981	71.3
878.281	74.69
878.581	74.49
