Data from BA28524_Reflection_00008.txt Node
Date: Tue Nov 19 11:49:48 EST 2019
User: vgr7
Spectrometer: USB2G7710
Scans to average: 3
Trigger mode: 4
Integration Time (sec): 2.000000E-2
Electric dark correction enabled: true
Boxcar width: 10
XAxis mode: Wavelengths
Number of Pixels in Spectrum: 2048
>>>>>Begin Spectral Data<<<<<
177.721	-50.23
178.105	62.96
178.488	-335.37
178.871	1566.67
179.254	277.78
179.636	409.52
180.019	-18.46
180.402	-23.53
180.785	-1.33
181.168	200.88
181.55	90.61
181.933	46.39
182.316	49.45
182.698	141.99
183.081	70.4
183.463	163.61
183.846	146.71
184.228	268.95
184.611	92.67
184.993	262.96
185.376	342.94
185.758	948.48
186.14	3966.67
186.522	5211.11
186.904	-2766.67
187.287	-434.59
187.669	-246.03
188.051	-233.33
188.433	-308.52
188.815	-181.8
189.197	-282.92
189.579	-378.55
189.961	-241.13
190.342	-197.57
190.724	-231.83
191.106	-156.18
191.488	-267.76
191.869	-242.94
192.251	-342.35
192.633	-283.58
193.014	-230.78
193.396	-324.54
193.777	-530.85
194.159	-331.26
194.54	-370.45
194.922	-273.69
195.303	-324.76
195.684	-555.65
196.065	-457.42
196.447	-1396.12
196.828	-1558.91
197.209	-492.33
197.59	-488.08
197.971	-1085.79
198.352	-560.66
198.733	-800.43
199.114	-1172.11
199.495	-563
199.876	-854.8
200.257	-890.61
200.638	-1421.37
201.018	3766.67
201.399	-792.02
201.78	-343.76
202.16	-371.26
202.541	-331.78
202.922	-1256.59
203.302	1376.42
203.683	-3122.22
204.063	3188.89
204.444	-386.59
204.824	-443.59
205.204	-857.26
205.585	-202.37
205.965	-180.51
206.345	-171.6
206.725	-108.91
207.106	-95.18
207.486	-138.38
207.866	-51.65
208.246	-3.65
208.626	-26.69
209.006	26.59
209.386	54.91
209.766	49.66
210.145	45.08
210.525	104.3
210.905	35.77
211.285	58.83
211.664	72.69
212.044	54.51
212.424	71.53
212.803	64.47
213.183	82.16
213.562	71.28
213.942	57.29
214.321	88.14
214.701	81.87
215.08	61.15
215.459	26.59
215.838	-4.91
216.218	-4.55
216.597	-0.08
216.976	-14.02
217.355	-24.36
217.734	-31.26
218.113	-36.7
218.492	-22.56
218.871	-29.96
219.25	-35.04
219.629	-44.47
220.008	-27.9
220.387	-30.33
220.766	-13.12
221.144	-11.43
221.523	-3.14
221.902	-3.83
222.28	0.21
222.659	15.51
223.037	28.72
223.416	30.01
223.794	31.59
224.173	31.82
224.551	24.69
224.929	26.77
225.308	26.47
225.686	8.98
226.064	5.78
226.442	4.65
226.821	8
227.199	6.29
227.577	4.65
227.955	0.96
228.333	-1.31
228.711	-1.71
229.089	-5.71
229.467	-5.59
229.845	-7.07
230.222	-5.39
230.6	-10.14
230.978	-8.49
231.356	-9.07
231.733	-10.03
232.111	-7.79
232.488	-8.18
232.866	-6.12
233.243	-7.82
233.621	-1.29
233.998	0.5
234.376	-0.28
234.753	-1.06
235.13	-0.18
235.508	2.09
235.885	3.69
236.262	2.51
236.639	1.82
237.016	3.16
237.393	4.81
237.77	6.32
238.147	5.52
238.524	5.5
238.901	5.23
239.278	6.05
239.655	5.98
240.032	5.76
240.409	6.89
240.785	6.31
241.162	6.26
241.539	6.27
241.915	6.16
242.292	6.94
242.668	7.15
243.045	6.63
243.421	6.77
243.798	6.77
244.174	6.7
244.551	6.44
244.927	6.94
245.303	6.28
245.679	6.25
246.056	6.24
246.432	6.12
246.808	5.91
247.184	5.77
247.56	5.68
247.936	5.56
248.312	5.58
248.688	5.74
249.064	5.79
249.44	5.62
249.815	5.53
250.191	5.27
250.567	5.12
250.943	5.39
251.318	4.99
251.694	4.93
252.069	5.29
252.445	5.66
252.82	5.18
253.196	5.6
253.571	5.53
253.947	5.36
254.322	5.5
254.697	5.63
255.073	5.5
255.448	5.66
255.823	5.79
256.198	5.87
256.573	5.7
256.948	5.66
257.323	5.58
257.698	5.72
258.073	5.63
258.448	5.62
258.823	5.46
259.198	5.7
259.573	5.56
259.948	5.39
260.322	5.15
260.697	5.28
261.072	5.31
261.446	5.38
261.821	5.38
262.195	5.42
262.57	5.44
262.944	5.29
263.319	5.21
263.693	5.15
264.067	5.14
264.442	5.06
264.816	5.1
265.19	5
265.564	4.98
265.938	4.95
266.313	4.74
266.687	4.94
267.061	4.67
267.435	4.79
267.809	4.84
268.183	5.04
268.556	4.99
268.93	4.95
269.304	5.09
269.678	5.37
270.051	5.52
270.425	5.43
270.799	5.53
271.172	5.58
271.546	5.81
271.919	5.64
272.293	5.81
272.666	5.96
273.04	6.21
273.413	6.05
273.787	6.29
274.16	6.41
274.533	6.3
274.906	6.29
275.279	6.17
275.653	6.25
276.026	6.11
276.399	6.11
276.772	6.05
277.145	5.88
277.518	5.6
277.891	5.34
278.263	5.58
278.636	5.63
279.009	5.71
279.382	5.44
279.755	5.41
280.127	5.23
280.5	5.12
280.872	5
281.245	5.07
281.617	5.04
281.99	5.17
282.362	4.92
282.735	5.03
283.107	5.05
283.479	5.17
283.852	5.34
284.224	5.47
284.596	5.46
284.968	5.43
285.34	5.48
285.713	5.52
286.085	5.27
286.457	5.25
286.829	5.2
287.201	5.19
287.572	5.3
287.944	5.58
288.316	5.66
288.688	5.76
289.06	5.82
289.431	5.7
289.803	5.67
290.175	5.9
290.546	5.92
290.918	6.03
291.289	5.97
291.661	6.09
292.032	6.03
292.403	6.01
292.775	6.23
293.146	6.29
293.517	6.2
293.889	6.27
294.26	6.41
294.631	6.42
295.002	6.53
295.373	6.59
295.744	6.63
296.115	6.62
296.486	6.61
296.857	6.69
297.228	6.62
297.599	6.6
297.97	6.74
298.34	6.83
298.711	6.91
299.082	6.92
299.452	6.85
299.823	6.9
300.194	6.94
300.564	6.83
300.935	6.91
301.305	7.2
301.676	7.28
302.046	7.31
302.416	7.51
302.787	7.62
303.157	7.75
303.527	7.64
303.897	7.71
304.267	7.76
304.637	7.69
305.008	7.84
305.378	7.83
305.748	7.84
306.117	7.67
306.487	7.77
306.857	7.73
307.227	7.87
307.597	7.78
307.967	8.05
308.336	8.14
308.706	8.21
309.076	8.16
309.445	8.2
309.815	8.31
310.184	8.26
310.554	8.15
310.923	8.06
311.293	8.12
311.662	8.17
312.031	8
312.401	8
312.77	8.19
313.139	8.37
313.508	8.15
313.877	8.28
314.246	8.08
314.616	8.3
314.985	8.27
315.353	8.52
315.722	8.59
316.091	8.61
316.46	8.59
316.829	8.77
317.198	9.02
317.567	9.06
317.935	9.09
318.304	9.55
318.672	9.63
319.041	9.7
319.41	9.75
319.778	10.04
320.147	10.26
320.515	10.18
320.883	10.25
321.252	10.56
321.62	10.49
321.988	10.65
322.357	10.57
322.725	10.74
323.093	10.73
323.461	10.61
323.829	10.63
324.197	10.64
324.565	10.61
324.933	10.57
325.301	10.39
325.669	10.46
326.037	10.19
326.405	10.19
326.772	10.24
327.14	10.06
327.508	10.02
327.875	9.95
328.243	9.99
328.61	9.95
328.978	9.9
329.346	10.06
329.713	10.09
330.08	10
330.448	9.89
330.815	9.88
331.182	9.7
331.55	9.65
331.917	9.81
332.284	9.88
332.651	9.82
333.018	10.02
333.385	9.95
333.752	9.93
334.119	10.05
334.486	10
334.853	10.02
335.22	9.95
335.587	10.1
335.954	10.06
336.32	10.03
336.687	10.1
337.054	10.01
337.42	10.04
337.787	10.06
338.153	10.06
338.52	10.09
338.886	10.28
339.253	10.25
339.619	10.12
339.986	10.01
340.352	10.04
340.718	9.96
341.084	9.93
341.451	10.07
341.817	9.92
342.183	9.87
342.549	10.09
342.915	10.26
343.281	10.16
343.647	10.21
344.013	10.24
344.379	10.19
344.745	10.33
345.11	10.29
345.476	10.22
345.842	10.17
346.208	10.09
346.573	10.11
346.939	10.15
347.304	10.19
347.67	10.18
348.035	10.13
348.401	10.13
348.766	10.07
349.132	9.98
349.497	10.13
349.862	10.07
350.228	9.95
350.593	9.84
350.958	9.94
351.323	10.01
351.688	10.03
352.053	10.04
352.418	9.96
352.783	10
353.148	10.04
353.513	10.05
353.878	9.98
354.243	9.9
354.608	9.87
354.972	9.81
355.337	9.7
355.702	9.69
356.066	9.62
356.431	9.63
356.795	9.67
357.16	9.57
357.524	9.59
357.889	9.54
358.253	9.5
358.618	9.45
358.982	9.38
359.346	9.35
359.71	9.23
360.075	9.21
360.439	9.16
360.803	9.18
361.167	9.1
361.531	9.07
361.895	9
362.259	9.07
362.623	8.97
362.987	9.08
363.351	9.03
363.714	8.95
364.078	9
364.442	8.95
364.806	8.94
365.169	8.95
365.533	8.95
365.896	9
366.26	8.89
366.623	8.78
366.987	8.72
367.35	8.71
367.714	8.66
368.077	8.63
368.44	8.62
368.803	8.64
369.167	8.6
369.53	8.62
369.893	8.52
370.256	8.48
370.619	8.38
370.982	8.29
371.345	8.34
371.708	8.25
372.071	8.13
372.434	8.03
372.797	7.93
373.159	7.84
373.522	7.71
373.885	7.66
374.247	7.59
374.61	7.53
374.973	7.49
375.335	7.44
375.698	7.37
376.06	7.27
376.423	7.11
376.785	7.06
377.147	7.02
377.51	6.94
377.872	6.96
378.234	6.91
378.596	6.89
378.958	6.85
379.321	6.75
379.683	6.74
380.045	6.72
380.407	6.66
380.769	6.6
381.13	6.58
381.492	6.54
381.854	6.53
382.216	6.54
382.578	6.53
382.939	6.48
383.301	6.41
383.663	6.38
384.024	6.45
384.386	6.41
384.747	6.31
385.109	6.31
385.47	6.29
385.832	6.23
386.193	6.24
386.554	6.19
386.916	6.14
387.277	6.11
387.638	6.07
387.999	6.04
388.36	6
388.721	5.99
389.082	5.99
389.443	5.99
389.804	5.98
390.165	5.93
390.526	5.95
390.887	5.92
391.248	5.87
391.609	5.87
391.969	5.88
392.33	5.9
392.691	5.88
393.051	5.85
393.412	5.83
393.772	5.76
394.133	5.72
394.493	5.71
394.854	5.71
395.214	5.68
395.574	5.68
395.935	5.7
396.295	5.64
396.655	5.57
397.015	5.56
397.376	5.48
397.736	5.42
398.096	5.31
398.456	5.28
398.816	5.23
399.176	5.18
399.535	5.1
399.895	5.06
400.255	5.01
400.615	4.99
400.975	5
401.334	5.04
401.694	5
402.054	5.01
402.413	4.97
402.773	4.98
403.132	4.98
403.492	4.97
403.851	4.99
404.211	5
404.57	4.99
404.929	4.99
405.288	5.05
405.648	5.09
406.007	5.13
406.366	5.12
406.725	5.1
407.084	5.13
407.443	5.13
407.802	5.11
408.161	5.07
408.52	5.05
408.879	5
409.238	5.04
409.596	5.01
409.955	5
410.314	4.95
410.673	4.94
411.031	4.91
411.39	4.89
411.748	4.9
412.107	4.89
412.465	4.88
412.824	4.86
413.182	4.85
413.54	4.82
413.899	4.83
414.257	4.8
414.615	4.77
414.974	4.75
415.332	4.76
415.69	4.74
416.048	4.73
416.406	4.69
416.764	4.66
417.122	4.66
417.48	4.67
417.838	4.69
418.195	4.66
418.553	4.65
418.911	4.64
419.269	4.62
419.626	4.6
419.984	4.57
420.342	4.55
420.699	4.53
421.057	4.51
421.414	4.51
421.772	4.5
422.129	4.49
422.486	4.49
422.844	4.48
423.201	4.49
423.558	4.48
423.915	4.49
424.273	4.48
424.63	4.48
424.987	4.47
425.344	4.46
425.701	4.47
426.058	4.46
426.415	4.44
426.772	4.43
427.128	4.43
427.485	4.43
427.842	4.42
428.199	4.41
428.555	4.4
428.912	4.39
429.269	4.39
429.625	4.41
429.982	4.4
430.338	4.4
430.695	4.37
431.051	4.38
431.407	4.38
431.764	4.39
432.12	4.37
432.476	4.37
432.832	4.36
433.189	4.35
433.545	4.35
433.901	4.37
434.257	4.37
434.613	4.36
434.969	4.37
435.325	4.38
435.681	4.36
436.036	4.39
436.392	4.39
436.748	4.39
437.104	4.39
437.459	4.39
437.815	4.39
438.171	4.41
438.526	4.41
438.882	4.41
439.237	4.4
439.593	4.4
439.948	4.38
440.304	4.39
440.659	4.38
441.014	4.37
441.369	4.36
441.725	4.35
442.08	4.34
442.435	4.34
442.79	4.34
443.145	4.35
443.5	4.32
443.855	4.29
444.21	4.28
444.565	4.26
444.92	4.26
445.275	4.25
445.629	4.24
445.984	4.21
446.339	4.22
446.693	4.23
447.048	4.23
447.403	4.22
447.757	4.21
448.112	4.2
448.466	4.21
448.82	4.2
449.175	4.21
449.529	4.22
449.883	4.19
450.238	4.2
450.592	4.18
450.946	4.19
451.3	4.23
451.654	4.21
452.008	4.24
452.362	4.22
452.716	4.22
453.07	4.23
453.424	4.23
453.778	4.2
454.132	4.17
454.486	4.17
454.839	4.19
455.193	4.21
455.547	4.19
455.9	4.19
456.254	4.23
456.607	4.2
456.961	4.21
457.314	4.22
457.668	4.21
458.021	4.22
458.375	4.21
458.728	4.19
459.081	4.21
459.434	4.2
459.787	4.21
460.141	4.22
460.494	4.23
460.847	4.25
461.2	4.28
461.553	4.3
461.906	4.3
462.259	4.3
462.611	4.32
462.964	4.34
463.317	4.35
463.67	4.32
464.022	4.36
464.375	4.35
464.728	4.37
465.08	4.37
465.433	4.39
465.785	4.4
466.138	4.41
466.49	4.42
466.843	4.44
467.195	4.45
467.547	4.44
467.899	4.44
468.252	4.43
468.604	4.42
468.956	4.43
469.308	4.44
469.66	4.43
470.012	4.41
470.364	4.41
470.716	4.42
471.068	4.44
471.42	4.44
471.772	4.45
472.123	4.45
472.475	4.46
472.827	4.49
473.178	4.5
473.53	4.51
473.882	4.48
474.233	4.48
474.585	4.45
474.936	4.45
475.288	4.44
475.639	4.47
475.99	4.44
476.342	4.44
476.693	4.44
477.044	4.43
477.395	4.41
477.746	4.39
478.097	4.38
478.448	4.36
478.8	4.35
479.15	4.35
479.501	4.34
479.852	4.35
480.203	4.34
480.554	4.34
480.905	4.33
481.255	4.35
481.606	4.35
481.957	4.38
482.307	4.38
482.658	4.38
483.009	4.37
483.359	4.38
483.709	4.39
484.06	4.39
484.41	4.4
484.761	4.42
485.111	4.42
485.461	4.42
485.811	4.42
486.162	4.42
486.512	4.43
486.862	4.44
487.212	4.44
487.562	4.43
487.912	4.45
488.262	4.46
488.612	4.45
488.961	4.46
489.311	4.46
489.661	4.47
490.011	4.48
490.36	4.48
490.71	4.49
491.06	4.5
491.409	4.51
491.759	4.52
492.108	4.52
492.458	4.54
492.807	4.55
493.157	4.58
493.506	4.61
493.855	4.61
494.204	4.62
494.554	4.64
494.903	4.68
495.252	4.68
495.601	4.7
495.95	4.73
496.299	4.76
496.648	4.79
496.997	4.8
497.346	4.84
497.695	4.86
498.043	4.9
498.392	4.92
498.741	4.95
499.09	5
499.438	5.01
499.787	5.04
500.135	5.1
500.484	5.13
500.832	5.15
501.181	5.19
501.529	5.23
501.878	5.26
502.226	5.31
502.574	5.38
502.923	5.39
503.271	5.43
503.619	5.46
503.967	5.49
504.315	5.53
504.663	5.57
505.011	5.63
505.359	5.67
505.707	5.72
506.055	5.75
506.403	5.79
506.751	5.84
507.098	5.89
507.446	5.95
507.794	5.99
508.141	6.08
508.489	6.15
508.837	6.19
509.184	6.26
509.531	6.31
509.879	6.37
510.226	6.44
510.574	6.5
510.921	6.56
511.268	6.65
511.616	6.73
511.963	6.81
512.31	6.89
512.657	6.95
513.004	7.01
513.351	7.11
513.698	7.18
514.045	7.25
514.392	7.34
514.739	7.4
515.086	7.47
515.432	7.53
515.779	7.6
516.126	7.71
516.473	7.78
516.819	7.86
517.166	7.94
517.512	8.01
517.859	8.1
518.205	8.16
518.552	8.24
518.898	8.29
519.245	8.36
519.591	8.4
519.937	8.49
520.283	8.61
520.629	8.67
520.976	8.75
521.322	8.86
521.668	8.94
522.014	9.05
522.36	9.17
522.706	9.3
523.052	9.45
523.398	9.58
523.743	9.74
524.089	9.87
524.435	10.01
524.781	10.16
525.126	10.28
525.472	10.41
525.817	10.5
526.163	10.64
526.509	10.74
526.854	10.85
527.199	10.94
527.545	11.01
527.89	11.11
528.235	11.22
528.581	11.32
528.926	11.42
529.271	11.51
529.616	11.62
529.961	11.72
530.306	11.84
530.651	11.94
530.996	12.05
531.341	12.2
531.686	12.32
532.031	12.45
532.376	12.58
532.721	12.74
533.065	12.89
533.41	13.04
533.755	13.18
534.099	13.35
534.444	13.54
534.788	13.69
535.133	13.87
535.477	14.05
535.822	14.24
536.166	14.44
536.51	14.66
536.855	14.88
537.199	15.1
537.543	15.32
537.887	15.6
538.231	15.83
538.576	16.08
538.92	16.32
539.264	16.55
539.608	16.76
539.951	16.95
540.295	17.16
540.639	17.36
540.983	17.58
541.327	17.77
541.671	17.95
542.014	18.16
542.358	18.34
542.701	18.51
543.045	18.69
543.389	18.88
543.732	19.09
544.075	19.31
544.419	19.52
544.762	19.72
545.105	19.93
545.449	20.18
545.792	20.43
546.135	20.7
546.478	20.97
546.821	21.29
547.165	21.6
547.508	21.92
547.851	22.19
548.194	22.5
548.536	22.81
548.879	23.11
549.222	23.37
549.565	23.7
549.908	24.01
550.25	24.35
550.593	24.67
550.936	24.96
551.278	25.28
551.621	25.64
551.963	26.01
552.306	26.29
552.648	26.59
552.991	26.82
553.333	27.09
553.675	27.35
554.017	27.64
554.36	27.95
554.702	28.22
555.044	28.51
555.386	28.8
555.728	29.08
556.07	29.38
556.412	29.75
556.754	30.05
557.096	30.36
557.438	30.63
557.78	30.95
558.121	31.31
558.463	31.61
558.805	31.88
559.147	32.17
559.488	32.45
559.83	32.74
560.171	33.05
560.513	33.37
560.854	33.78
561.196	34.02
561.537	34.31
561.878	34.59
562.22	34.85
562.561	35.12
562.902	35.35
563.243	35.63
563.584	35.86
563.925	36.15
564.266	36.4
564.607	36.67
564.948	36.92
565.289	37.09
565.63	37.3
565.971	37.52
566.312	37.72
566.653	37.93
566.993	38.13
567.334	38.34
567.675	38.52
568.015	38.62
568.356	38.82
568.696	39
569.037	39.21
569.377	39.5
569.718	39.67
570.058	39.93
570.398	40.17
570.739	40.36
571.079	40.57
571.419	40.78
571.759	40.94
572.099	41.07
572.439	41.3
572.779	41.49
573.119	41.69
573.459	41.86
573.799	42.02
574.139	42.19
574.479	42.4
574.819	42.58
575.158	42.82
575.498	43.05
575.838	43.21
576.177	43.35
576.517	43.45
576.856	43.64
577.196	43.77
577.535	43.84
577.875	44
578.214	44.1
578.553	44.21
578.893	44.41
579.232	44.68
579.571	44.82
579.91	44.93
580.25	45.04
580.589	45.16
580.928	45.43
581.267	45.57
581.606	45.72
581.945	45.9
582.283	45.99
582.622	46.11
582.961	46.3
583.3	46.54
583.639	46.68
583.977	46.83
584.316	47
584.654	47.15
584.993	47.29
585.332	47.42
585.67	47.56
586.008	47.71
586.347	47.87
586.685	47.95
587.024	48.13
587.362	48.27
587.7	48.34
588.038	48.35
588.376	48.46
588.715	48.55
589.053	48.57
589.391	48.69
589.729	48.79
590.067	48.85
590.404	48.85
590.742	48.94
591.08	49.07
591.418	49.19
591.756	49.28
592.093	49.45
592.431	49.55
592.769	49.71
593.106	49.78
593.444	49.87
593.781	49.98
594.119	50.07
594.456	50.18
594.793	50.25
595.131	50.4
595.468	50.5
595.805	50.6
596.143	50.67
596.48	50.73
596.817	50.76
597.154	50.79
597.491	50.97
597.828	51
598.165	50.95
598.502	51.06
598.839	51.15
599.176	51.17
599.512	51.27
599.849	51.31
600.186	51.39
600.523	51.39
600.859	51.45
601.196	51.52
601.532	51.61
601.869	51.79
602.205	51.83
602.542	51.94
602.878	52.04
603.215	52.19
603.551	52.24
603.887	52.23
604.223	52.35
604.56	52.36
604.896	52.46
605.232	52.57
605.568	52.6
605.904	52.59
606.24	52.66
606.576	52.66
606.912	52.64
607.248	52.76
607.583	52.79
607.919	52.84
608.255	52.92
608.591	52.96
608.926	52.97
609.262	52.96
609.597	52.99
609.933	52.98
610.268	53.03
610.604	53.09
610.939	53.29
611.275	53.24
611.61	53.2
611.945	53.25
612.281	53.23
612.616	53.21
612.951	53.36
613.286	53.36
613.621	53.46
613.956	53.62
614.291	53.62
614.626	53.66
614.961	53.73
615.296	53.79
615.631	53.77
615.966	53.82
616.3	53.93
616.635	53.84
616.97	53.9
617.304	53.87
617.639	53.91
617.973	53.83
618.308	53.89
618.642	53.96
618.977	53.91
619.311	54.08
619.646	54.17
619.98	54.15
620.314	54.19
620.648	54.27
620.983	54.3
621.317	54.26
621.651	54.27
621.985	54.31
622.319	54.29
622.653	54.35
622.987	54.29
623.321	54.3
623.655	54.36
623.988	54.38
624.322	54.44
624.656	54.44
624.99	54.54
625.323	54.54
625.657	54.64
625.99	54.68
626.324	54.65
626.657	54.63
626.991	54.73
627.324	54.84
627.658	54.86
627.991	54.8
628.324	54.79
628.657	54.79
628.991	54.81
629.324	54.89
629.657	54.9
629.99	54.99
630.323	54.98
630.656	55.01
630.989	55.05
631.322	55.08
631.655	55.16
631.987	55.17
632.32	55.27
632.653	55.26
632.986	55.28
633.318	55.27
633.651	55.32
633.984	55.31
634.316	55.17
634.649	55.22
634.981	55.24
635.313	55.38
635.646	55.51
635.978	55.53
636.31	55.52
636.643	55.53
636.975	55.49
637.307	55.6
637.639	55.61
637.971	55.59
638.303	55.46
638.635	55.5
638.967	55.55
639.299	55.57
639.631	55.55
639.963	55.58
640.295	55.71
640.626	55.62
640.958	55.52
641.29	55.66
641.621	55.54
641.953	55.59
642.285	55.43
642.616	55.39
642.948	55.34
643.279	55.32
643.61	55.22
643.942	55.32
644.273	55.36
644.604	55.49
644.936	55.46
645.267	55.47
645.598	55.51
645.929	55.39
646.26	55.35
646.591	55.35
646.922	55.41
647.253	55.28
647.584	55.39
647.915	55.5
648.245	55.48
648.576	55.56
648.907	55.58
649.238	55.82
649.568	55.88
649.899	55.94
650.229	55.89
650.56	56.04
650.89	56.08
651.221	56.12
651.551	56.05
651.882	56.14
652.212	56.18
652.542	56.1
652.872	56.11
653.203	56.11
653.533	56.19
653.863	56.17
654.193	56.28
654.523	56.17
654.853	56.29
655.183	56.29
655.513	56.25
655.843	56.3
656.172	56.13
656.502	56.13
656.832	56.23
657.162	56.33
657.491	56.32
657.821	56.28
658.15	56.26
658.48	56.26
658.809	56.19
659.139	56.27
659.468	56.32
659.798	56.38
660.127	56.45
660.456	56.49
660.785	56.52
661.115	56.61
661.444	56.73
661.773	56.67
662.102	56.65
662.431	56.67
662.76	56.69
663.089	56.8
663.418	56.87
663.747	56.94
664.076	56.91
664.404	57.06
664.733	57.05
665.062	56.93
665.39	56.96
665.719	57.1
666.048	57.03
666.376	56.98
666.705	56.99
667.033	56.93
667.362	56.83
667.69	56.91
668.018	56.82
668.347	56.89
668.675	56.87
669.003	57.03
669.331	57.19
669.659	57.01
669.987	56.97
670.315	56.92
670.643	56.73
670.971	56.76
671.299	56.6
671.627	56.62
671.955	56.73
672.283	56.63
672.61	56.62
672.938	56.72
673.266	56.79
673.593	56.82
673.921	56.89
674.249	56.97
674.576	56.98
674.904	57.06
675.231	57
675.558	57.03
675.886	57.04
676.213	56.89
676.54	57.01
676.867	56.88
677.195	56.93
677.522	56.95
677.849	57.01
678.176	57.11
678.503	57.11
678.83	57.15
679.157	57.33
679.484	57.34
679.81	57.23
680.137	57.18
680.464	57.22
680.791	57.2
681.117	57.1
681.444	57.08
681.771	57
682.097	56.98
682.424	56.9
682.75	56.77
683.077	56.87
683.403	56.85
683.729	56.95
684.056	56.95
684.382	56.89
684.708	56.87
685.034	56.85
685.36	56.85
685.686	56.9
686.012	56.79
686.339	56.72
686.664	56.86
686.99	56.87
687.316	56.88
687.642	56.8
687.968	57.03
688.294	57.15
688.619	57.31
688.945	57.21
689.271	57.45
689.596	57.51
689.922	57.51
690.247	57.46
690.573	57.44
690.898	57.43
691.224	57.69
691.549	57.79
691.874	57.86
692.2	58.09
692.525	58.01
692.85	58.14
693.175	58.3
693.5	58.31
693.825	58.26
694.15	57.9
694.475	58.03
694.8	57.77
695.125	57.68
695.45	57.55
695.775	57.7
696.099	57.71
696.424	57.76
696.749	57.73
697.073	57.89
697.398	58.04
697.723	58.01
698.047	57.98
698.372	57.86
698.696	57.75
699.02	57.56
699.345	57.58
699.669	57.46
699.993	57.34
700.318	57.31
700.642	57.49
700.966	57.66
701.29	57.55
701.614	57.71
701.938	57.74
702.262	57.65
702.586	57.64
702.91	57.43
703.234	57.27
703.557	57.17
703.881	57.11
704.205	57.14
704.529	57.28
704.852	57.11
705.176	57.17
705.499	57.25
705.823	57.23
706.146	57.11
706.47	57.31
706.793	57.42
707.117	57.34
707.44	57.31
707.763	57.38
708.086	57.65
708.409	57.56
708.733	57.34
709.056	57.51
709.379	57.56
709.702	57.75
710.025	57.82
710.348	57.84
710.671	57.99
710.993	58
711.316	58.01
711.639	58.12
711.962	58.07
712.284	57.95
712.607	57.8
712.93	58.02
713.252	57.82
713.575	57.73
713.897	57.67
714.22	57.59
714.542	57.81
714.864	57.67
715.187	57.47
715.509	57.68
715.831	57.78
716.153	57.72
716.475	57.8
716.798	57.75
717.12	57.88
717.442	57.6
717.764	57.49
718.085	57.4
718.407	57.18
718.729	57.08
719.051	57.16
719.373	57.41
719.695	57.26
720.016	57.4
720.338	57.48
720.659	57.72
720.981	57.49
721.302	57.39
721.624	57.48
721.945	57.93
722.267	57.77
722.588	57.59
722.909	57.71
723.231	57.47
723.552	57.67
723.873	57.74
724.194	58.07
724.515	58.17
724.836	58.24
725.157	58.49
725.478	58.72
725.799	58.81
726.12	58.81
726.441	58.91
726.762	58.95
727.083	58.73
727.403	58.56
727.724	58.88
728.045	58.77
728.365	58.75
728.686	58.65
729.006	58.85
729.327	59.06
729.647	59.24
729.967	59.13
730.288	59.09
730.608	59.09
730.928	58.91
731.249	58.66
731.569	58.71
731.889	58.85
732.209	58.91
732.529	58.87
732.849	58.62
733.169	58.53
733.489	58.41
733.809	58.56
734.129	58.48
734.448	58.69
734.768	58.84
735.088	58.56
735.408	58.69
735.727	58.44
736.047	58.22
736.366	58.08
736.686	58.13
737.005	57.92
737.325	57.73
737.644	57.67
737.963	57.78
738.283	57.34
738.602	57.07
738.921	57.03
739.24	56.95
739.56	57.44
739.879	57.75
740.198	57.95
740.517	58.1
740.836	58.17
741.155	57.87
741.473	58.11
741.792	58.24
742.111	57.84
742.43	57.73
742.748	57.93
743.067	57.83
743.386	57.66
743.704	57.77
744.023	57.96
744.341	58.09
744.66	58.18
744.978	58.53
745.297	58.36
745.615	58.16
745.933	58.33
746.252	57.94
746.57	57.6
746.888	57.38
747.206	57.26
747.524	57.51
747.842	57.51
748.16	57
748.478	57.69
748.796	57.67
749.114	58.18
749.432	57.82
749.749	57.68
750.067	57.96
750.385	58.03
750.703	57.82
751.02	57.78
751.338	57.66
751.655	57.4
751.973	57.53
752.29	57.2
752.608	56.89
752.925	56.95
753.242	56.82
753.56	56.93
753.877	56.82
754.194	56.85
754.511	56.93
754.828	57.34
755.145	56.85
755.462	56.85
755.779	56.3
756.096	56.42
756.413	56.8
756.73	56.79
757.047	56.79
757.364	56.97
757.68	56.96
757.997	56.96
758.314	56.97
758.63	57.2
758.947	57.5
759.264	57.47
759.58	57.31
759.896	57.84
760.213	58
760.529	58.36
760.846	58.22
761.162	57.99
761.478	57.82
761.794	57.91
762.11	58.16
762.426	58.46
762.743	58.45
763.059	58.22
763.375	58.17
763.69	58.28
764.006	58.12
764.322	58.12
764.638	58.38
764.954	58.62
765.27	58.55
765.585	58.67
765.901	59.09
766.216	59.23
766.532	59.1
766.848	59.02
767.163	58.85
767.478	58.82
767.794	58.83
768.109	58.99
768.424	58.95
768.74	58.84
769.055	58.87
769.37	58.73
769.685	58.79
770	58.85
770.315	58.6
770.63	59.01
770.945	59.05
771.26	58.61
771.575	58.45
771.89	58.29
772.205	57.92
772.52	57.62
772.834	57.85
773.149	57.5
773.464	57.65
773.778	57.59
774.093	57.62
774.407	57.1
774.722	56.82
775.036	56.85
775.351	56.96
775.665	56.71
775.979	57.38
776.293	57.05
776.608	57.02
776.922	57.26
777.236	56.87
777.55	56.54
777.864	56.84
778.178	56.88
778.492	57.28
778.806	57.52
779.12	57.44
779.434	57.07
779.747	57.44
780.061	56.67
780.375	56.6
780.689	56.32
781.002	56.89
781.316	56.4
781.629	56.43
781.943	56.37
782.256	56.45
782.57	56.38
782.883	56.76
783.196	56.58
783.51	56.23
783.823	56.08
784.136	56.42
784.449	56.02
784.762	56.21
785.075	56
785.388	56.72
785.701	56.45
786.014	56.83
786.327	56.67
786.64	57.07
786.953	57.57
787.266	58.16
787.578	58.2
787.891	58.65
788.204	58.52
788.516	58.35
788.829	58.86
789.141	58.17
789.454	58.11
789.766	58.77
790.079	58.84
790.391	59.31
790.703	59.19
791.016	59.68
791.328	59.57
791.64	59.13
791.952	58.41
792.264	58.5
792.576	58.73
792.888	58.87
793.2	58.75
793.512	58.52
793.824	57.98
794.136	58.69
794.448	58.72
794.76	58.92
795.071	59.24
795.383	59.02
795.695	58.89
796.006	58.93
796.318	58.51
796.629	58.46
796.941	58.35
797.252	58.69
797.564	58.67
797.875	58.67
798.186	59.38
798.497	59.57
798.809	59.47
799.12	58.76
799.431	58.46
799.742	58.76
800.053	58.46
800.364	59.23
800.675	59.13
800.986	59.26
801.297	58.88
801.608	59.33
801.918	58.96
802.229	59.25
802.54	59.4
802.851	59.54
803.161	59.9
803.472	59.68
803.782	59.62
804.093	59.38
804.403	59.9
804.714	59.75
805.024	59.82
805.334	59.96
805.645	60.4
805.955	60.68
806.265	60.66
806.575	60.84
806.885	60.51
807.195	60.23
807.505	59.91
807.815	59.77
808.125	58.38
808.435	58.89
808.745	59.48
809.055	59.44
809.365	59.59
809.674	59.38
809.984	59.4
810.294	59.36
810.603	59.44
810.913	58.61
811.222	58.59
811.532	58.12
811.841	57.64
812.151	57.7
812.46	58.07
812.769	58
813.079	58.1
813.388	57.72
813.697	56.98
814.006	57.56
814.315	57.63
814.624	58.91
814.933	58.13
815.242	56.95
815.551	56.51
815.86	56.93
816.169	57.38
816.478	57.42
816.786	56.88
817.095	56.72
817.404	56.92
817.712	57.19
818.021	57.8
818.33	58.41
818.638	58.83
818.947	58.69
819.255	58.42
819.563	57.82
819.872	58.14
820.18	58.47
820.488	58.26
820.796	58.47
821.105	58.46
821.413	58.65
821.721	59.2
822.029	58.89
822.337	58.77
822.645	58.72
822.953	58.75
823.26	58.88
823.568	59.02
823.876	59.08
824.184	58.84
824.491	58.61
824.799	58.66
825.107	58.55
825.414	58.54
825.722	58.76
826.029	59.09
826.337	59.02
826.644	59.16
826.951	59.29
827.259	59.41
827.566	59.21
827.873	59.28
828.18	59
828.488	59.71
828.795	59.83
829.102	59.73
829.409	59.66
829.716	59.65
830.023	59.51
830.329	59.5
830.636	59.77
830.943	60.16
831.25	60.55
831.557	60.39
831.863	60.3
832.17	60.01
832.476	59.56
832.783	59.44
833.089	59.17
833.396	58.93
833.702	58.54
834.009	59.57
834.315	59.56
834.621	59.84
834.928	59.46
835.234	58.83
835.54	58.92
835.846	59.21
836.152	59.15
836.458	58.77
836.764	58.97
837.07	59.26
837.376	59.35
837.682	58.88
837.988	59.53
838.293	59.87
838.599	59.4
838.905	59.86
839.211	60.23
839.516	60.55
839.822	60.66
840.127	60.76
840.433	59.53
840.738	58.81
841.044	57.88
841.349	57.67
841.654	58.11
841.959	59.58
842.265	60.19
842.57	60.38
842.875	61.34
843.18	59.93
843.485	59.9
843.79	59.55
844.095	60.75
844.4	59.84
844.705	60.03
845.01	60.54
845.315	60.14
845.619	59.43
845.924	58.75
846.229	58.61
846.533	58.51
846.838	57.78
847.142	57.64
847.447	58.21
847.751	57.18
848.056	56.36
848.36	54.18
848.664	53.48
848.969	53.32
849.273	53.35
849.577	54.17
849.881	52.98
850.185	52.78
850.489	50.78
850.794	49.99
851.097	47.53
851.401	46.95
851.705	46.32
852.009	47.33
852.313	48.85
852.617	50.7
852.92	53.47
853.224	54.19
853.528	55.62
853.831	54.95
854.135	55.7
854.438	55.06
854.742	55.18
855.045	53.62
855.349	55.2
855.652	54.2
855.955	54.51
856.259	56.4
856.562	57.18
856.865	58.62
857.168	60.18
857.471	61.94
857.774	62.22
858.077	61.13
858.38	61.33
858.683	57.87
858.986	55.81
859.289	54.03
859.592	54.85
859.894	53.4
860.197	53.41
860.5	53.44
860.802	54.09
861.105	52.91
861.407	54.37
861.71	54.75
862.012	55.7
862.315	55.46
862.617	53.56
862.919	51.77
863.222	49.59
863.524	47.34
863.826	46.57
864.128	47.85
864.43	48.62
864.732	47.43
865.034	49.78
865.336	50.38
865.638	51.98
865.94	53.17
866.242	54.89
866.544	56.06
866.846	56.51
867.147	57.75
867.449	57.64
867.751	56.44
868.052	53.11
868.354	54.7
868.655	53.11
868.957	51.63
869.258	51.32
869.56	52.46
869.861	55.45
870.162	55.78
870.463	56.92
870.765	56.62
871.066	59.6
871.367	58.34
871.668	57.81
871.969	53.9
872.27	51.59
872.571	50.83
872.872	49.07
873.173	48.93
873.473	46.54
873.774	49.22
874.075	49.56
874.376	49.95
874.676	48.69
874.977	51.24
875.277	55.14
875.578	56.6
875.878	55.67
876.179	54.01
876.479	53.35
876.78	52.14
877.08	53.13
877.38	50.07
877.68	50.5
877.981	51.18
878.281	53.23
878.581	53.71
