Data from BA28472_Reflection_00013.txt Node
Date: Mon Nov 18 15:24:45 EST 2019
User: vgr7
Spectrometer: USB2G7710
Scans to average: 3
Trigger mode: 4
Integration Time (sec): 2.000000E-2
Electric dark correction enabled: true
Boxcar width: 10
XAxis mode: Wavelengths
Number of Pixels in Spectrum: 2048
>>>>>Begin Spectral Data<<<<<
177.721	-73.45
178.105	-27.8
178.488	-44.54
178.871	-12.48
179.254	31.71
179.636	-535.51
180.019	18190.91
180.402	157.69
180.785	4.33
181.168	232.65
181.55	-37.72
181.933	98.92
182.316	111.6
182.698	79.42
183.081	80.32
183.463	66.38
183.846	50.33
184.228	43.21
184.611	16.36
184.993	1.45
185.376	18.1
185.758	16.51
186.14	37.15
186.522	44.32
186.904	42
187.287	37.32
187.669	-28.58
188.051	-18.19
188.433	18.4
188.815	8.84
189.197	2.06
189.579	7.92
189.961	25.9
190.342	-20.44
190.724	-151.56
191.106	-91.76
191.488	-66.25
191.869	144.88
192.251	39.76
192.633	15.61
193.014	2.76
193.396	27.07
193.777	101
194.159	173.68
194.54	173.06
194.922	142.39
195.303	91.85
195.684	34.4
196.065	117.16
196.447	103.6
196.828	94.79
197.209	88.45
197.59	64.87
197.971	65.05
198.352	63.63
198.733	39.76
199.114	70.03
199.495	82.38
199.876	83.32
200.257	159.77
200.638	123.94
201.018	116.48
201.399	92.45
201.78	52.69
202.16	33.68
202.541	40.11
202.922	3.3
203.302	-8.29
203.683	-14.95
204.063	-30.87
204.444	-43.87
204.824	-72.79
205.204	-50.63
205.585	-43.31
205.965	-80.31
206.345	-128.4
206.725	-210.5
207.106	-238.28
207.486	-239.84
207.866	-158.38
208.246	-145.46
208.626	-172.55
209.006	-149.29
209.386	-166.32
209.766	-316.53
210.145	-533.44
210.525	-546.19
210.905	-511.86
211.285	-703.64
211.664	-437.28
212.044	734.04
212.424	-950.42
212.803	-185.92
213.183	-102.26
213.562	-308.87
213.942	-242.47
214.321	193.67
214.701	389.55
215.08	382.19
215.459	252.6
215.838	117.64
216.218	61.76
216.597	48.57
216.976	33.41
217.355	67.85
217.734	71.23
218.113	104.05
218.492	100.55
218.871	77.44
219.25	76.56
219.629	85.17
220.008	71.81
220.387	46.62
220.766	29.91
221.144	40.48
221.523	44.79
221.902	28.76
222.28	-18.05
222.659	-20.63
223.037	-17.46
223.416	-31.89
223.794	-34.15
224.173	-22.79
224.551	-6.95
224.929	-18.4
225.308	-29.37
225.686	-23.05
226.064	-21.62
226.442	-13.33
226.821	-8.47
227.199	-5.56
227.577	-3.99
227.955	1.24
228.333	1.02
228.711	2.96
229.089	1.82
229.467	-2.85
229.845	-2.15
230.222	2.75
230.6	2.99
230.978	4.08
231.356	8.66
231.733	7.49
232.111	8.3
232.488	5.74
232.866	6.76
233.243	8.12
233.621	7.41
233.998	8.98
234.376	7.53
234.753	9.05
235.13	8.35
235.508	7.92
235.885	6.24
236.262	6.12
236.639	6.5
237.016	5.75
237.393	7.03
237.77	6.69
238.147	6.51
238.524	6.08
238.901	5.39
239.278	4.15
239.655	5.64
240.032	5.14
240.409	4.69
240.785	4.31
241.162	4.43
241.539	4.56
241.915	4.5
242.292	4.34
242.668	3.74
243.045	4.24
243.421	4.1
243.798	3.76
244.174	3.96
244.551	3.96
244.927	3.86
245.303	3.99
245.679	4.44
246.056	4.35
246.432	4.55
246.808	4.71
247.184	4.63
247.56	4.32
247.936	4.17
248.312	4.54
248.688	4.81
249.064	4.93
249.44	5.07
249.815	4.8
250.191	5
250.567	5.29
250.943	5.06
251.318	5.09
251.694	5.56
252.069	5.37
252.445	5.32
252.82	5.21
253.196	5.12
253.571	4.65
253.947	4.65
254.322	4.57
254.697	4.54
255.073	4.51
255.448	4.41
255.823	4.5
256.198	4.57
256.573	4.53
256.948	4.57
257.323	4.64
257.698	4.9
258.073	4.94
258.448	4.72
258.823	4.78
259.198	4.7
259.573	4.47
259.948	4.57
260.322	4.74
260.697	4.79
261.072	4.73
261.446	4.74
261.821	4.8
262.195	4.93
262.57	4.92
262.944	4.94
263.319	5.06
263.693	5.06
264.067	4.85
264.442	4.93
264.816	4.84
265.19	4.71
265.564	4.7
265.938	4.71
266.313	4.81
266.687	4.87
267.061	4.85
267.435	4.85
267.809	4.92
268.183	4.75
268.556	4.79
268.93	4.88
269.304	5.02
269.678	5.12
270.051	5.01
270.425	5.06
270.799	5.09
271.172	5.19
271.546	5.04
271.919	5.1
272.293	4.98
272.666	5
273.04	5
273.413	4.93
273.787	4.78
274.16	4.81
274.533	4.8
274.906	4.96
275.279	5.06
275.653	4.91
276.026	4.86
276.399	4.82
276.772	4.74
277.145	4.5
277.518	4.54
277.891	4.55
278.263	4.5
278.636	4.55
279.009	4.38
279.382	4.58
279.755	4.55
280.127	4.76
280.5	4.88
280.872	4.93
281.245	4.8
281.617	4.9
281.99	4.99
282.362	5.01
282.735	4.94
283.107	4.98
283.479	5.03
283.852	5.09
284.224	5.12
284.596	5.11
284.968	5.21
285.34	5.1
285.713	5.01
286.085	4.94
286.457	5.13
286.829	5.18
287.201	5.08
287.572	5.05
287.944	4.96
288.316	4.79
288.688	4.75
289.06	4.79
289.431	4.72
289.803	4.74
290.175	4.74
290.546	4.8
290.918	4.84
291.289	4.84
291.661	4.81
292.032	4.91
292.403	5.05
292.775	5.23
293.146	5.13
293.517	5.11
293.889	5.23
294.26	5.2
294.631	5.24
295.002	5.3
295.373	5.48
295.744	5.61
296.115	5.7
296.486	5.67
296.857	5.77
297.228	5.89
297.599	5.82
297.97	5.78
298.34	5.79
298.711	5.8
299.082	5.92
299.452	6.11
299.823	6.21
300.194	6.25
300.564	6.16
300.935	6.4
301.305	6.55
301.676	6.59
302.046	6.62
302.416	6.64
302.787	6.77
303.157	6.84
303.527	6.81
303.897	6.96
304.267	7.22
304.637	7.39
305.008	7.51
305.378	7.62
305.748	7.74
306.117	7.82
306.487	7.9
306.857	7.92
307.227	7.89
307.597	7.82
307.967	7.87
308.336	7.99
308.706	7.99
309.076	8.1
309.445	8.13
309.815	8.09
310.184	8.06
310.554	8.18
310.923	8.14
311.293	8.32
311.662	8.26
312.031	8.24
312.401	8.14
312.77	8.28
313.139	8.35
313.508	8.32
313.877	8.31
314.246	8.33
314.616	8.27
314.985	8.33
315.353	8.42
315.722	8.51
316.091	8.53
316.46	8.53
316.829	8.52
317.198	8.65
317.567	8.72
317.935	8.78
318.304	8.7
318.672	8.85
319.041	8.8
319.41	8.81
319.778	8.97
320.147	9.09
320.515	9.18
320.883	9.23
321.252	9.48
321.62	9.39
321.988	9.31
322.357	9.63
322.725	9.66
323.093	9.9
323.461	9.98
323.829	10.02
324.197	10.19
324.565	10.25
324.933	10.14
325.301	10.16
325.669	10.35
326.037	10.44
326.405	10.43
326.772	10.53
327.14	10.64
327.508	10.54
327.875	10.61
328.243	10.55
328.61	10.62
328.978	10.57
329.346	10.81
329.713	10.93
330.08	10.94
330.448	10.92
330.815	10.87
331.182	10.69
331.55	10.84
331.917	10.76
332.284	10.89
332.651	11.01
333.018	11.13
333.385	11.03
333.752	11.03
334.119	11.07
334.486	11.08
334.853	11.19
335.22	11.21
335.587	11.26
335.954	11.25
336.32	11.26
336.687	11.29
337.054	11.26
337.42	11.32
337.787	11.27
338.153	11.44
338.52	11.48
338.886	11.49
339.253	11.34
339.619	11.49
339.986	11.49
340.352	11.54
340.718	11.65
341.084	11.7
341.451	11.79
341.817	11.79
342.183	11.76
342.549	11.7
342.915	11.71
343.281	11.65
343.647	11.65
344.013	11.71
344.379	11.82
344.745	11.83
345.11	11.8
345.476	11.84
345.842	11.77
346.208	11.68
346.573	11.76
346.939	11.91
347.304	11.8
347.67	11.74
348.035	11.7
348.401	11.58
348.766	11.61
349.132	11.62
349.497	11.65
349.862	11.68
350.228	11.68
350.593	11.71
350.958	11.85
351.323	11.86
351.688	11.85
352.053	11.84
352.418	11.89
352.783	12.01
353.148	11.9
353.513	11.92
353.878	11.96
354.243	11.97
354.608	11.97
354.972	11.92
355.337	11.89
355.702	11.94
356.066	12.03
356.431	11.97
356.795	11.96
357.16	11.91
357.524	11.9
357.889	11.91
358.253	11.92
358.618	11.87
358.982	11.8
359.346	11.75
359.71	11.6
360.075	11.62
360.439	11.48
360.803	11.44
361.167	11.35
361.531	11.33
361.895	11.34
362.259	11.29
362.623	11.36
362.987	11.4
363.351	11.37
363.714	11.37
364.078	11.39
364.442	11.3
364.806	11.25
365.169	11.24
365.533	11.17
365.896	11.12
366.26	11.02
366.623	10.99
366.987	10.96
367.35	11.05
367.714	10.99
368.077	10.97
368.44	11.05
368.803	11.05
369.167	10.95
369.53	10.8
369.893	10.79
370.256	10.71
370.619	10.55
370.982	10.45
371.345	10.34
371.708	10.23
372.071	10.21
372.434	10.15
372.797	10.01
373.159	9.97
373.522	9.91
373.885	9.91
374.247	9.96
374.61	9.86
374.973	9.75
375.335	9.6
375.698	9.56
376.06	9.4
376.423	9.34
376.785	9.36
377.147	9.39
377.51	9.26
377.872	9.21
378.234	9.22
378.596	9.17
378.958	9.09
379.321	9.07
379.683	9.01
380.045	9.02
380.407	8.99
380.769	8.97
381.13	8.95
381.492	8.83
381.854	8.69
382.216	8.67
382.578	8.59
382.939	8.54
383.301	8.53
383.663	8.53
384.024	8.43
384.386	8.39
384.747	8.31
385.109	8.3
385.47	8.21
385.832	8.15
386.193	8.12
386.554	8.1
386.916	8.06
387.277	8.04
387.638	7.98
387.999	7.94
388.36	7.87
388.721	7.77
389.082	7.77
389.443	7.7
389.804	7.65
390.165	7.59
390.526	7.59
390.887	7.55
391.248	7.54
391.609	7.51
391.969	7.42
392.33	7.37
392.691	7.28
393.051	7.26
393.412	7.22
393.772	7.15
394.133	7.1
394.493	7.03
394.854	6.94
395.214	6.89
395.574	6.83
395.935	6.79
396.295	6.77
396.655	6.7
397.015	6.72
397.376	6.65
397.736	6.62
398.096	6.62
398.456	6.53
398.816	6.47
399.176	6.44
399.535	6.4
399.895	6.33
400.255	6.32
400.615	6.25
400.975	6.2
401.334	6.18
401.694	6.11
402.054	6.09
402.413	6.06
402.773	6.01
403.132	5.94
403.492	5.95
403.851	5.92
404.211	5.91
404.57	5.81
404.929	5.81
405.288	5.81
405.648	5.74
406.007	5.73
406.366	5.71
406.725	5.7
407.084	5.7
407.443	5.69
407.802	5.68
408.161	5.65
408.52	5.61
408.879	5.59
409.238	5.6
409.596	5.59
409.955	5.59
410.314	5.6
410.673	5.59
411.031	5.54
411.39	5.53
411.748	5.5
412.107	5.53
412.465	5.52
412.824	5.47
413.182	5.45
413.54	5.44
413.899	5.42
414.257	5.39
414.615	5.35
414.974	5.33
415.332	5.31
415.69	5.28
416.048	5.26
416.406	5.22
416.764	5.18
417.122	5.14
417.48	5.09
417.838	5.07
418.195	5.07
418.553	5.04
418.911	5.02
419.269	5
419.626	4.97
419.984	4.94
420.342	4.94
420.699	4.91
421.057	4.88
421.414	4.86
421.772	4.83
422.129	4.8
422.486	4.79
422.844	4.78
423.201	4.76
423.558	4.74
423.915	4.73
424.273	4.72
424.63	4.7
424.987	4.69
425.344	4.68
425.701	4.64
426.058	4.62
426.415	4.6
426.772	4.58
427.128	4.55
427.485	4.53
427.842	4.51
428.199	4.49
428.555	4.48
428.912	4.46
429.269	4.46
429.625	4.46
429.982	4.42
430.338	4.41
430.695	4.41
431.051	4.4
431.407	4.38
431.764	4.38
432.12	4.37
432.476	4.36
432.832	4.34
433.189	4.34
433.545	4.35
433.901	4.33
434.257	4.33
434.613	4.35
434.969	4.34
435.325	4.33
435.681	4.33
436.036	4.33
436.392	4.33
436.748	4.32
437.104	4.31
437.459	4.33
437.815	4.33
438.171	4.33
438.526	4.35
438.882	4.35
439.237	4.35
439.593	4.36
439.948	4.36
440.304	4.37
440.659	4.37
441.014	4.36
441.369	4.37
441.725	4.37
442.08	4.37
442.435	4.36
442.79	4.36
443.145	4.37
443.5	4.36
443.855	4.36
444.21	4.35
444.565	4.36
444.92	4.34
445.275	4.32
445.629	4.32
445.984	4.3
446.339	4.29
446.693	4.25
447.048	4.25
447.403	4.23
447.757	4.21
448.112	4.2
448.466	4.18
448.82	4.17
449.175	4.15
449.529	4.12
449.883	4.11
450.238	4.08
450.592	4.07
450.946	4.05
451.3	4.03
451.654	4.02
452.008	4.01
452.362	4
452.716	3.97
453.07	3.95
453.424	3.94
453.778	3.94
454.132	3.95
454.486	3.93
454.839	3.91
455.193	3.92
455.547	3.92
455.9	3.91
456.254	3.9
456.607	3.9
456.961	3.9
457.314	3.9
457.668	3.92
458.021	3.9
458.375	3.9
458.728	3.9
459.081	3.9
459.434	3.89
459.787	3.89
460.141	3.91
460.494	3.92
460.847	3.92
461.2	3.91
461.553	3.93
461.906	3.95
462.259	3.97
462.611	3.97
462.964	3.98
463.317	3.99
463.67	4.03
464.022	4.04
464.375	4.05
464.728	4.08
465.08	4.09
465.433	4.11
465.785	4.11
466.138	4.13
466.49	4.16
466.843	4.17
467.195	4.21
467.547	4.24
467.899	4.27
468.252	4.3
468.604	4.33
468.956	4.33
469.308	4.36
469.66	4.38
470.012	4.4
470.364	4.43
470.716	4.45
471.068	4.46
471.42	4.48
471.772	4.51
472.123	4.52
472.475	4.55
472.827	4.59
473.178	4.62
473.53	4.64
473.882	4.64
474.233	4.64
474.585	4.64
474.936	4.61
475.288	4.61
475.639	4.59
475.99	4.6
476.342	4.6
476.693	4.6
477.044	4.6
477.395	4.61
477.746	4.58
478.097	4.56
478.448	4.56
478.8	4.56
479.15	4.54
479.501	4.51
479.852	4.49
480.203	4.5
480.554	4.5
480.905	4.49
481.255	4.49
481.606	4.51
481.957	4.5
482.307	4.52
482.658	4.51
483.009	4.51
483.359	4.5
483.709	4.49
484.06	4.48
484.41	4.48
484.761	4.46
485.111	4.45
485.461	4.46
485.811	4.45
486.162	4.44
486.512	4.44
486.862	4.43
487.212	4.43
487.562	4.43
487.912	4.42
488.262	4.41
488.612	4.4
488.961	4.39
489.311	4.38
489.661	4.36
490.011	4.35
490.36	4.35
490.71	4.35
491.06	4.36
491.409	4.37
491.759	4.37
492.108	4.39
492.458	4.41
492.807	4.41
493.157	4.41
493.506	4.44
493.855	4.45
494.204	4.49
494.554	4.5
494.903	4.5
495.252	4.53
495.601	4.55
495.95	4.6
496.299	4.62
496.648	4.67
496.997	4.72
497.346	4.76
497.695	4.8
498.043	4.85
498.392	4.88
498.741	4.93
499.09	4.97
499.438	5.02
499.787	5.07
500.135	5.14
500.484	5.21
500.832	5.28
501.181	5.35
501.529	5.39
501.878	5.47
502.226	5.58
502.574	5.65
502.923	5.75
503.271	5.82
503.619	5.92
503.967	6.03
504.315	6.11
504.663	6.19
505.011	6.28
505.359	6.38
505.707	6.48
506.055	6.58
506.403	6.68
506.751	6.77
507.098	6.86
507.446	6.97
507.794	7.07
508.141	7.17
508.489	7.28
508.837	7.39
509.184	7.51
509.531	7.58
509.879	7.7
510.226	7.81
510.574	7.91
510.921	8.02
511.268	8.1
511.616	8.23
511.963	8.36
512.31	8.48
512.657	8.59
513.004	8.74
513.351	8.89
513.698	9.03
514.045	9.18
514.392	9.34
514.739	9.49
515.086	9.64
515.432	9.78
515.779	9.93
516.126	10.1
516.473	10.24
516.819	10.39
517.166	10.51
517.512	10.65
517.859	10.79
518.205	10.92
518.552	11.06
518.898	11.19
519.245	11.32
519.591	11.45
519.937	11.58
520.283	11.69
520.629	11.84
520.976	11.97
521.322	12.14
521.668	12.29
522.014	12.47
522.36	12.64
522.706	12.83
523.052	13.02
523.398	13.22
523.743	13.4
524.089	13.61
524.435	13.83
524.781	14.04
525.126	14.21
525.472	14.37
525.817	14.52
526.163	14.65
526.509	14.77
526.854	14.89
527.199	15.02
527.545	15.15
527.89	15.27
528.235	15.41
528.581	15.54
528.926	15.67
529.271	15.8
529.616	15.92
529.961	16.06
530.306	16.18
530.651	16.33
530.996	16.48
531.341	16.62
531.686	16.78
532.031	16.91
532.376	17.08
532.721	17.28
533.065	17.46
533.41	17.66
533.755	17.88
534.099	18.11
534.444	18.33
534.788	18.54
535.133	18.73
535.477	18.94
535.822	19.15
536.166	19.39
536.51	19.63
536.855	19.92
537.199	20.18
537.543	20.49
537.887	20.78
538.231	21.09
538.576	21.39
538.92	21.67
539.264	21.98
539.608	22.26
539.951	22.49
540.295	22.72
540.639	22.95
540.983	23.18
541.327	23.38
541.671	23.57
542.014	23.77
542.358	23.99
542.701	24.21
543.045	24.44
543.389	24.66
543.732	24.88
544.075	25.09
544.419	25.34
544.762	25.58
545.105	25.83
545.449	26.07
545.792	26.33
546.135	26.58
546.478	26.83
546.821	27.12
547.165	27.39
547.508	27.71
547.851	28.03
548.194	28.31
548.536	28.63
548.879	28.97
549.222	29.34
549.565	29.63
549.908	29.93
550.25	30.22
550.593	30.52
550.936	30.85
551.278	31.16
551.621	31.46
551.963	31.73
552.306	32
552.648	32.32
552.991	32.64
553.333	32.91
553.675	33.24
554.017	33.51
554.36	33.8
554.702	34.09
555.044	34.31
555.386	34.55
555.728	34.82
556.07	35.09
556.412	35.3
556.754	35.59
557.096	35.78
557.438	36.08
557.78	36.36
558.121	36.61
558.463	36.88
558.805	37.1
559.147	37.35
559.488	37.58
559.83	37.78
560.171	38
560.513	38.31
560.854	38.46
561.196	38.65
561.537	38.88
561.878	39.07
562.22	39.31
562.561	39.52
562.902	39.72
563.243	39.92
563.584	40.15
563.925	40.4
564.266	40.67
564.607	40.89
564.948	41.07
565.289	41.21
565.63	41.38
565.971	41.59
566.312	41.83
566.653	42
566.993	42.14
567.334	42.37
567.675	42.54
568.015	42.76
568.356	42.96
568.696	43.2
569.037	43.35
569.377	43.54
569.718	43.73
570.058	43.83
570.398	44
570.739	44.11
571.079	44.25
571.419	44.34
571.759	44.42
572.099	44.55
572.439	44.73
572.779	44.87
573.119	44.95
573.459	45.02
573.799	45.18
574.139	45.32
574.479	45.44
574.819	45.55
575.158	45.69
575.498	45.81
575.838	45.91
576.177	46.05
576.517	46.2
576.856	46.36
577.196	46.47
577.535	46.56
577.875	46.76
578.214	46.87
578.553	47.05
578.893	47.19
579.232	47.31
579.571	47.45
579.91	47.57
580.25	47.71
580.589	47.88
580.928	48
581.267	48.14
581.606	48.17
581.945	48.27
582.283	48.38
582.622	48.48
582.961	48.49
583.3	48.6
583.639	48.65
583.977	48.74
584.316	48.95
584.654	49.12
584.993	49.19
585.332	49.32
585.67	49.44
586.008	49.53
586.347	49.63
586.685	49.65
587.024	49.68
587.362	49.75
587.7	49.8
588.038	49.9
588.376	49.95
588.715	50.04
589.053	50.09
589.391	50.15
589.729	50.21
590.067	50.33
590.404	50.34
590.742	50.41
591.08	50.47
591.418	50.52
591.756	50.49
592.093	50.59
592.431	50.62
592.769	50.67
593.106	50.71
593.444	50.74
593.781	50.8
594.119	50.94
594.456	50.93
594.793	51.04
595.131	51.06
595.468	51.12
595.805	51.19
596.143	51.28
596.48	51.32
596.817	51.32
597.154	51.32
597.491	51.43
597.828	51.48
598.165	51.49
598.502	51.54
598.839	51.71
599.176	51.7
599.512	51.73
599.849	51.75
600.186	51.88
600.523	52
600.859	52.11
601.196	52.15
601.532	52.31
601.869	52.32
602.205	52.39
602.542	52.44
602.878	52.44
603.215	52.47
603.551	52.46
603.887	52.55
604.223	52.61
604.56	52.62
604.896	52.66
605.232	52.75
605.568	52.85
605.904	52.85
606.24	52.97
606.576	53.05
606.912	53.08
607.248	53.09
607.583	53.08
607.919	53.03
608.255	53.06
608.591	53.19
608.926	53.22
609.262	53.26
609.597	53.34
609.933	53.47
610.268	53.51
610.604	53.62
610.939	53.64
611.275	53.67
611.61	53.7
611.945	53.67
612.281	53.71
612.616	53.72
612.951	53.78
613.286	53.75
613.621	53.76
613.956	53.82
614.291	53.9
614.626	53.97
614.961	54.11
615.296	54.19
615.631	54.12
615.966	54.15
616.3	54.14
616.635	54.17
616.97	54.14
617.304	54.16
617.639	54.2
617.973	54.25
618.308	54.2
618.642	54.25
618.977	54.28
619.311	54.26
619.646	54.22
619.98	54.12
620.314	54.12
620.648	54.16
620.983	54.17
621.317	54.11
621.651	54.06
621.985	54.09
622.319	53.99
622.653	53.97
622.987	53.99
623.321	53.94
623.655	53.9
623.988	53.82
624.322	53.76
624.656	53.75
624.99	53.82
625.323	53.92
625.657	53.95
625.99	54.01
626.324	54.02
626.657	54.02
626.991	54.12
627.324	54.1
627.658	54.12
627.991	54.22
628.324	54.4
628.657	54.46
628.991	54.37
629.324	54.49
629.657	54.54
629.99	54.54
630.323	54.74
630.656	54.86
630.989	54.99
631.322	55.14
631.655	55.15
631.987	55.13
632.32	55.17
632.653	55.21
632.986	55.3
633.318	55.34
633.651	55.32
633.984	55.36
634.316	55.42
634.649	55.38
634.981	55.33
635.313	55.12
635.646	55.14
635.978	55.32
636.31	55.23
636.643	55.27
636.975	55.33
637.307	55.27
637.639	55.23
637.971	55.23
638.303	55.16
638.635	55.24
638.967	55.31
639.299	55.33
639.631	55.29
639.963	55.22
640.295	55.21
640.626	55.31
640.958	55.33
641.29	55.3
641.621	55.33
641.953	55.34
642.285	55.5
642.616	55.5
642.948	55.4
643.279	55.35
643.61	55.34
643.942	55.27
644.273	55.35
644.604	55.36
644.936	55.3
645.267	55.39
645.598	55.37
645.929	55.34
646.26	55.35
646.591	55.37
646.922	55.36
647.253	55.44
647.584	55.45
647.915	55.44
648.245	55.45
648.576	55.54
648.907	55.51
649.238	55.39
649.568	55.41
649.899	55.44
650.229	55.53
650.56	55.58
650.89	55.62
651.221	55.58
651.551	55.56
651.882	55.62
652.212	55.66
652.542	55.62
652.872	55.68
653.203	55.76
653.533	55.78
653.863	55.88
654.193	55.83
654.523	55.89
654.853	55.97
655.183	56.02
655.513	56.01
655.843	56.05
656.172	56.1
656.502	56.11
656.832	56.22
657.162	56.24
657.491	56.13
657.821	56.13
658.15	56.01
658.48	56.03
658.809	56.02
659.139	56.07
659.468	56.13
659.798	56.13
660.127	56.07
660.456	56.08
660.785	56.03
661.115	56.09
661.444	56.03
661.773	55.98
662.102	55.96
662.431	55.92
662.76	56.11
663.089	56.13
663.418	56.15
663.747	56.09
664.076	56.11
664.404	56.18
664.733	56.23
665.062	56.39
665.39	56.43
665.719	56.5
666.048	56.38
666.376	56.42
666.705	56.27
667.033	56.24
667.362	56.23
667.69	56.16
668.018	56.17
668.347	56.22
668.675	56.2
669.003	56.12
669.331	56.33
669.659	56.21
669.987	56.27
670.315	56.3
670.643	56.29
670.971	56.25
671.299	56.27
671.627	56.24
671.955	56.23
672.283	56.28
672.61	56.1
672.938	56.19
673.266	56.06
673.593	56.19
673.921	56.23
674.249	56.23
674.576	56.3
674.904	56.31
675.231	56.2
675.558	56.23
675.886	56.37
676.213	56.3
676.54	56.48
676.867	56.46
677.195	56.38
677.522	56.46
677.849	56.46
678.176	56.44
678.503	56.49
678.83	56.51
679.157	56.55
679.484	56.67
679.81	56.65
680.137	56.76
680.464	56.67
680.791	56.69
681.117	56.61
681.444	56.52
681.771	56.68
682.097	56.81
682.424	56.87
682.75	56.87
683.077	56.83
683.403	56.55
683.729	56.5
684.056	56.63
684.382	56.59
684.708	56.64
685.034	56.6
685.36	56.61
685.686	56.51
686.012	56.47
686.339	56.53
686.664	56.54
686.99	56.58
687.316	56.6
687.642	56.64
687.968	56.78
688.294	57.03
688.619	56.9
688.945	56.88
689.271	56.93
689.596	56.97
689.922	56.99
690.247	57.05
690.573	57.02
690.898	56.94
691.224	56.98
691.549	56.98
691.874	57.12
692.2	57.01
692.525	57
692.85	56.88
693.175	56.81
693.5	56.8
693.825	56.6
694.15	56.63
694.475	56.6
694.8	56.77
695.125	56.57
695.45	56.45
695.775	56.49
696.099	56.34
696.424	56.28
696.749	56.29
697.073	56.32
697.398	56.48
697.723	56.48
698.047	56.5
698.372	56.53
698.696	56.49
699.02	56.55
699.345	56.66
699.669	56.73
699.993	56.84
700.318	56.82
700.642	57.03
700.966	56.96
701.29	56.94
701.614	56.77
701.938	56.8
702.262	56.93
702.586	56.9
702.91	56.98
703.234	57.08
703.557	57.07
703.881	57.07
704.205	57.17
704.529	57.22
704.852	57.17
705.176	57.19
705.499	57.29
705.823	57.2
706.146	57.17
706.47	57.21
706.793	57.09
707.117	57.11
707.44	56.98
707.763	57.22
708.086	57.24
708.409	57.44
708.733	57.42
709.056	57.44
709.379	57.5
709.702	57.52
710.025	57.44
710.348	57.32
710.671	57.4
710.993	57.29
711.316	57.29
711.639	57.39
711.962	57.42
712.284	57.57
712.607	57.47
712.93	57.45
713.252	57.46
713.575	57.34
713.897	57.55
714.22	57.62
714.542	57.54
714.864	57.5
715.187	57.4
715.509	57.52
715.831	57.34
716.153	57.35
716.475	57.15
716.798	57.14
717.12	57.02
717.442	56.91
717.764	56.91
718.085	56.77
718.407	56.72
718.729	56.83
719.051	56.44
719.373	56.63
719.695	56.88
720.016	56.92
720.338	57.14
720.659	56.92
720.981	56.94
721.302	57
721.624	56.93
721.945	57.11
722.267	57.12
722.588	57.06
722.909	57.01
723.231	57.13
723.552	57.15
723.873	57.42
724.194	57.47
724.515	57.32
724.836	57.47
725.157	57.3
725.478	57.35
725.799	57.65
726.12	57.71
726.441	57.44
726.762	57.24
727.083	57.24
727.403	57.31
727.724	57.14
728.045	57.17
728.365	57.26
728.686	57.15
729.006	57.06
729.327	57.27
729.647	57.12
729.967	57.02
730.288	57.1
730.608	57.04
730.928	57.26
731.249	57.66
731.569	57.57
731.889	57.93
732.209	57.69
732.529	57.58
732.849	57.49
733.169	57.59
733.489	57.96
733.809	57.84
734.129	57.71
734.448	57.84
734.768	57.69
735.088	57.63
735.408	57.39
735.727	57.28
736.047	57.19
736.366	57.26
736.686	57.41
737.005	57.43
737.325	57.58
737.644	57.42
737.963	57.08
738.283	57.06
738.602	56.87
738.921	56.92
739.24	56.97
739.56	57.11
739.879	56.66
740.198	56.48
740.517	56.39
740.836	56.3
741.155	56.22
741.473	56.2
741.792	56.11
742.111	56.06
742.43	56.15
742.748	56.18
743.067	56.2
743.386	56.34
743.704	56.15
744.023	55.74
744.341	55.65
744.66	55.62
744.978	55.63
745.297	55.56
745.615	55.69
745.933	55.64
746.252	55.69
746.57	56.14
746.888	56.06
747.206	56.17
747.524	56.09
747.842	56.36
748.16	56.48
748.478	56.82
748.796	57.45
749.114	57.65
749.432	57.44
749.749	57.54
750.067	57.39
750.385	57.6
750.703	57.83
751.02	57.99
751.338	58.06
751.655	58.11
751.973	58.09
752.29	57.99
752.608	57.93
752.925	57.93
753.242	57.75
753.56	57.75
753.877	57.78
754.194	57.93
754.511	57.87
754.828	57.95
755.145	57.87
755.462	57.57
755.779	57.48
756.096	57.77
756.413	57.47
756.73	57.36
757.047	57.23
757.364	57.44
757.68	57.32
757.997	56.99
758.314	57.01
758.63	56.99
758.947	57.06
759.264	57.04
759.58	56.77
759.896	56.87
760.213	56.87
760.529	56.81
760.846	56.93
761.162	56.74
761.478	56.58
761.794	56.65
762.11	56.71
762.426	56.6
762.743	56.47
763.059	56.73
763.375	57.01
763.69	57.01
764.006	56.85
764.322	56.94
764.638	57.47
764.954	57.67
765.27	57.73
765.585	57.64
765.901	57.98
766.216	58.12
766.532	58.27
766.848	58.29
767.163	58.58
767.478	58.39
767.794	58.21
768.109	58.19
768.424	58.33
768.74	58.1
769.055	58.36
769.37	58.68
769.685	58.38
770	58.13
770.315	58.3
770.63	58.42
770.945	58.17
771.26	57.48
771.575	57.49
771.89	57.8
772.205	58.04
772.52	57.61
772.834	57.18
773.149	56.97
773.464	56.82
773.778	56.8
774.093	56.99
774.407	57.2
774.722	57.69
775.036	57.46
775.351	57.88
775.665	57.19
775.979	56.84
776.293	56.89
776.608	56.96
776.922	56.74
777.236	56.95
777.55	57.1
777.864	57.42
778.178	57.53
778.492	57.23
778.806	57.06
779.12	56.99
779.434	57.56
779.747	57.74
780.061	57.83
780.375	57.17
780.689	57.42
781.002	57.44
781.316	57.17
781.629	57.24
781.943	57.27
782.256	58
782.57	58.09
782.883	58.52
783.196	58.48
783.51	58.91
783.823	58.62
784.136	58.8
784.449	58.69
784.762	58.51
785.075	58.27
785.388	57.96
785.701	57.92
786.014	57.87
786.327	58.25
786.64	57.95
786.953	58.57
787.266	58.21
787.578	58.1
787.891	57.96
788.204	57.96
788.516	57.57
788.829	57.47
789.141	57.82
789.454	58.02
789.766	57.96
790.079	57.95
790.391	58.27
790.703	58.29
791.016	58.23
791.328	57.68
791.64	57.86
791.952	58.28
792.264	58.22
792.576	57.57
792.888	56.93
793.2	57.33
793.512	57.01
793.824	57.23
794.136	57.57
794.448	57.62
794.76	56.95
795.071	56.88
795.383	56.61
795.695	56.42
796.006	55.7
796.318	56.15
796.629	56.1
796.941	56.26
797.252	56.39
797.564	56.81
797.875	57.15
798.186	56.75
798.497	56.81
798.809	57.26
799.12	58.14
799.431	58.1
799.742	58.39
800.053	58.61
800.364	58.39
800.675	58.7
800.986	58.82
801.297	59.28
801.608	59.74
801.918	60.14
802.229	60.05
802.54	60.96
802.851	60.67
803.161	60.89
803.472	60.1
803.782	59.61
804.093	59.62
804.403	59.74
804.714	60.1
805.024	59.14
805.334	58.58
805.645	58.35
805.955	58.37
806.265	58.11
806.575	57.48
806.885	57.77
807.195	57.78
807.505	57.49
807.815	57.46
808.125	57.53
808.435	57.45
808.745	57.17
809.055	56.74
809.365	57.3
809.674	56.71
809.984	56.76
810.294	56.88
810.603	57.09
810.913	57.3
811.222	57.33
811.532	58.1
811.841	58.28
812.151	58.03
812.46	58.31
812.769	58.76
813.079	59.11
813.388	58.24
813.697	57.5
814.006	58.33
814.315	57.97
814.624	57.44
814.933	58.08
815.242	58.75
815.551	58.51
815.86	58.04
816.169	58.08
816.478	57.9
816.786	56.58
817.095	56.15
817.404	55.54
817.712	55.19
818.021	55.12
818.33	55.21
818.638	55.17
818.947	55.3
819.255	54.71
819.563	54.87
819.872	55.24
820.18	55.47
820.488	55.33
820.796	55.7
821.105	56.25
821.413	56.02
821.721	55.78
822.029	55.86
822.337	55.85
822.645	56.07
822.953	56.31
823.26	56.71
823.568	56.67
823.876	56.82
824.184	57.02
824.491	57.01
824.799	57.04
825.107	57.26
825.414	57.18
825.722	57.46
826.029	57.6
826.337	57.6
826.644	57.43
826.951	57.42
827.259	57.47
827.566	57.27
827.873	57.4
828.18	57.59
828.488	57.78
828.795	58.03
829.102	57.75
829.409	57.81
829.716	57.81
830.023	57.98
830.329	57.87
830.636	57.78
830.943	57.93
831.25	57.48
831.557	57.11
831.863	57.13
832.17	56.89
832.476	56.8
832.783	57.14
833.089	57.71
833.396	57.92
833.702	57.62
834.009	57.58
834.315	57.76
834.621	57.68
834.928	57.78
835.234	57.52
835.54	57.43
835.846	56.76
836.152	56.89
836.458	56.85
836.764	56.67
837.07	56.48
837.376	56.05
837.682	56.64
837.988	56.63
838.293	57.15
838.599	56.99
838.905	56.88
839.211	56.48
839.516	56.04
839.822	55.73
840.127	56.1
840.433	55.97
840.738	56.42
841.044	56.6
841.349	57.23
841.654	56.91
841.959	57.47
842.265	58.52
842.57	59.11
842.875	58.92
843.18	59.85
843.485	59.77
843.79	59.95
844.095	60.79
844.4	61.81
844.705	60.98
845.01	60.95
845.315	61.46
845.619	61.26
845.924	62.69
846.229	62.97
846.533	64.11
846.838	64.3
847.142	64
847.447	63.11
847.751	61.51
848.056	59.78
848.36	61.34
848.664	62.68
848.969	62.1
849.273	62.62
849.577	61.53
849.881	62.11
850.185	63.64
850.489	61.49
850.794	61.18
851.097	59.76
851.401	60.88
851.705	60.56
852.009	61.19
852.313	60.03
852.617	62.08
852.92	58.89
853.224	60.23
853.528	57.93
853.831	60.07
854.135	59.76
854.438	63.25
854.742	59.55
855.045	57.57
855.349	57.67
855.652	56.77
855.955	55.75
856.259	55.52
856.562	54.75
856.865	54.74
857.168	53.86
857.471	55.93
857.774	56.16
858.077	57.13
858.38	58.15
858.683	60.33
858.986	58.05
859.289	59.27
859.592	58.33
859.894	58.08
860.197	56.19
860.5	56.33
860.802	55.38
861.105	57.95
861.407	58.4
861.71	56.53
862.012	57.93
862.315	58.3
862.617	60.73
862.919	61.02
863.222	62.55
863.524	63.34
863.826	62.68
864.128	62.44
864.43	60.3
864.732	60.55
865.034	58.23
865.336	57.1
865.638	54.8
865.94	54.3
866.242	53.91
866.544	54.31
866.846	54.99
867.147	55.58
867.449	56.66
867.751	58.07
868.052	59.07
868.354	57.99
868.655	59.07
868.957	57.21
869.258	59.63
869.56	57.9
869.861	57.65
870.162	57.29
870.463	56.6
870.765	58.02
871.066	56.21
871.367	56.89
871.668	58.2
871.969	61.09
872.27	59.32
872.571	61.73
872.872	64.55
873.173	62.76
873.473	63.77
873.774	60.79
874.075	64.16
874.376	64.44
874.676	62.5
874.977	61.17
875.277	60.11
875.578	57.96
875.878	59.1
876.179	58.5
876.479	58.75
876.78	59.4
877.08	59.8
877.38	60.63
877.68	61.14
877.981	61.61
878.281	62.7
878.581	65.4
