Data from BA28299_Reflection_00007.txt Node
Date: Mon Nov 18 15:42:21 EST 2019
User: vgr7
Spectrometer: USB2G7710
Scans to average: 3
Trigger mode: 4
Integration Time (sec): 2.000000E-2
Electric dark correction enabled: true
Boxcar width: 10
XAxis mode: Wavelengths
Number of Pixels in Spectrum: 2048
>>>>>Begin Spectral Data<<<<<
177.721	72.65
178.105	-221.84
178.488	1136.53
178.871	-710.61
179.254	159.36
179.636	48.84
180.019	71.84
180.402	84.62
180.785	-1212.93
181.168	1641.67
181.55	-985.47
181.933	265.03
182.316	164.53
182.698	162.9
183.081	232.72
183.463	368.95
183.846	217.33
184.228	1057.67
184.611	15366.67
184.993	-393.76
185.376	-294.91
185.758	-451.2
186.14	-395.28
186.522	-477.5
186.904	-226.1
187.287	-382.42
187.669	-84.33
188.051	-95.55
188.433	-85.42
188.815	-53.33
189.197	-31.68
189.579	-18.93
189.961	-31.87
190.342	-29.51
190.724	-6.46
191.106	-2.83
191.488	-6.36
191.869	-2.34
192.251	-21.51
192.633	-13.43
193.014	-12.2
193.396	-13.54
193.777	1.94
194.159	8.61
194.54	3.63
194.922	3.27
195.303	0.51
195.684	1.42
196.065	17.85
196.447	20.08
196.828	5.46
197.209	3.72
197.59	2.56
197.971	0.57
198.352	0.25
198.733	-7.86
199.114	-2.78
199.495	-6.42
199.876	-12.21
200.257	-1.81
200.638	0.46
201.018	-8.54
201.399	-15.16
201.78	-28.98
202.16	-35.87
202.541	-40.43
202.922	-39.2
203.302	-43.8
203.683	-61.82
204.063	-75.03
204.444	-68.41
204.824	-67.66
205.204	-63.32
205.585	-69.87
205.965	-56.36
206.345	-50.12
206.725	-49.01
207.106	-69.49
207.486	-80.57
207.866	-90.05
208.246	-86.24
208.626	-65.34
209.006	-33.61
209.386	-29.89
209.766	-6.58
210.145	-1.56
210.525	8.51
210.905	-4.06
211.285	3.7
211.664	18.41
212.044	31.58
212.424	30.05
212.803	29.68
213.183	35.84
213.562	38.76
213.942	35.56
214.321	25.85
214.701	29.09
215.08	30.99
215.459	29.46
215.838	47.4
216.218	46.86
216.597	48.87
216.976	37.94
217.355	43.41
217.734	32.49
218.113	33.06
218.492	30.18
218.871	18.49
219.25	16.04
219.629	10.14
220.008	-23.21
220.387	-27.68
220.766	-15.13
221.144	-33.84
221.523	-47.61
221.902	-43.92
222.28	-37.12
222.659	-31.89
223.037	-33.42
223.416	-34.87
223.794	-33.7
224.173	-36.82
224.551	-30.61
224.929	-32.49
225.308	-28.3
225.686	-25.93
226.064	-23.41
226.442	-19.3
226.821	-13.88
227.199	-12.98
227.577	-11.04
227.955	-6.01
228.333	-7.1
228.711	-8.12
229.089	-4.61
229.467	-6.03
229.845	-5.28
230.222	-3.62
230.6	-1.69
230.978	0.44
231.356	2.73
231.733	4.05
232.111	6.17
232.488	4.22
232.866	6.01
233.243	6.91
233.621	6.34
233.998	8.11
234.376	7.03
234.753	6.43
235.13	6.45
235.508	6.01
235.885	5.18
236.262	3.93
236.639	4.88
237.016	3.72
237.393	4.68
237.77	4.89
238.147	5.8
238.524	4.99
238.901	5.16
239.278	5.33
239.655	5.19
240.032	5
240.409	4.88
240.785	4.88
241.162	4.72
241.539	5.14
241.915	4.96
242.292	4.73
242.668	4.88
243.045	4.95
243.421	4.94
243.798	4.86
244.174	5.22
244.551	4.95
244.927	5.27
245.303	5.16
245.679	5.3
246.056	5.17
246.432	5.27
246.808	5.07
247.184	4.79
247.56	4.44
247.936	4.38
248.312	4.4
248.688	4.41
249.064	4.25
249.44	4.1
249.815	4.22
250.191	4.43
250.567	4.54
250.943	4.38
251.318	4.52
251.694	4.63
252.069	4.7
252.445	4.76
252.82	4.52
253.196	4.61
253.571	4.47
253.947	4.23
254.322	4.28
254.697	3.99
255.073	4.08
255.448	4.54
255.823	4.52
256.198	4.58
256.573	4.28
256.948	4.58
257.323	4.89
257.698	4.71
258.073	4.67
258.448	4.46
258.823	4.44
259.198	4.23
259.573	4.11
259.948	4.2
260.322	4.15
260.697	4.05
261.072	4.16
261.446	4.36
261.821	4.51
262.195	4.45
262.57	4.56
262.944	4.47
263.319	4.44
263.693	4.37
264.067	4.49
264.442	4.66
264.816	4.45
265.19	4.12
265.564	4.08
265.938	3.94
266.313	4.01
266.687	4.11
267.061	4.28
267.435	4.35
267.809	4.19
268.183	4.16
268.556	4.25
268.93	4.23
269.304	4.05
269.678	3.94
270.051	3.83
270.425	3.78
270.799	3.91
271.172	3.84
271.546	3.89
271.919	3.74
272.293	3.88
272.666	3.99
273.04	4.27
273.413	4.21
273.787	4.16
274.16	4.24
274.533	4.32
274.906	4.1
275.279	4.05
275.653	4.03
276.026	4.07
276.399	4.22
276.772	4.25
277.145	4.19
277.518	4.29
277.891	4.37
278.263	4.32
278.636	4.3
279.009	4.33
279.382	4.29
279.755	4.29
280.127	4.08
280.5	3.99
280.872	4.07
281.245	4.19
281.617	4.31
281.99	4.3
282.362	4.26
282.735	4.25
283.107	4.25
283.479	4.18
283.852	4.12
284.224	3.9
284.596	3.87
284.968	3.95
285.34	3.93
285.713	3.93
286.085	4.08
286.457	4.1
286.829	4.11
287.201	4.25
287.572	4.18
287.944	4.34
288.316	4.39
288.688	4.27
289.06	4.24
289.431	4.14
289.803	4.11
290.175	4.05
290.546	4.25
290.918	4.28
291.289	4.28
291.661	4.37
292.032	4.57
292.403	4.5
292.775	4.46
293.146	4.5
293.517	4.44
293.889	4.51
294.26	4.61
294.631	4.56
295.002	4.44
295.373	4.67
295.744	4.56
296.115	4.51
296.486	4.46
296.857	4.45
297.228	4.57
297.599	4.54
297.97	4.68
298.34	4.57
298.711	4.68
299.082	4.87
299.452	4.99
299.823	5.1
300.194	5.12
300.564	5.13
300.935	5.14
301.305	5.23
301.676	5.19
302.046	5.23
302.416	5.43
302.787	5.41
303.157	5.27
303.527	5.26
303.897	5.49
304.267	5.65
304.637	5.79
305.008	5.7
305.378	5.9
305.748	5.76
306.117	5.85
306.487	5.85
306.857	5.8
307.227	5.72
307.597	5.66
307.967	5.69
308.336	5.68
308.706	5.64
309.076	5.74
309.445	5.62
309.815	5.44
310.184	5.37
310.554	5.48
310.923	5.61
311.293	5.71
311.662	5.61
312.031	5.54
312.401	5.46
312.77	5.66
313.139	5.67
313.508	5.71
313.877	5.74
314.246	5.72
314.616	5.65
314.985	5.64
315.353	5.47
315.722	5.57
316.091	5.43
316.46	5.44
316.829	5.41
317.198	5.59
317.567	5.55
317.935	5.51
318.304	5.48
318.672	5.37
319.041	5.45
319.41	5.46
319.778	5.51
320.147	5.56
320.515	5.62
320.883	5.39
321.252	5.56
321.62	5.51
321.988	5.57
322.357	5.77
322.725	5.8
323.093	6.06
323.461	6.03
323.829	6.36
324.197	6.5
324.565	6.44
324.933	6.41
325.301	6.71
325.669	6.81
326.037	6.85
326.405	7.04
326.772	7.12
327.14	7.34
327.508	7.25
327.875	7.22
328.243	7.13
328.61	7.36
328.978	7.3
329.346	7.46
329.713	7.5
330.08	7.47
330.448	7.45
330.815	7.37
331.182	7.52
331.55	7.5
331.917	7.56
332.284	7.69
332.651	7.77
333.018	7.74
333.385	7.69
333.752	7.78
334.119	7.77
334.486	7.73
334.853	7.61
335.22	7.7
335.587	7.88
335.954	8.02
336.32	8.01
336.687	8.03
337.054	8.03
337.42	8.03
337.787	8.02
338.153	8.12
338.52	8.23
338.886	8.16
339.253	8.16
339.619	8.04
339.986	8.06
340.352	8.16
340.718	8.15
341.084	8.15
341.451	8.16
341.817	8.18
342.183	8.09
342.549	8.13
342.915	8.23
343.281	8.23
343.647	8.12
344.013	8.14
344.379	8.19
344.745	8.19
345.11	8.28
345.476	8.36
345.842	8.38
346.208	8.25
346.573	8.3
346.939	8.37
347.304	8.41
347.67	8.43
348.035	8.36
348.401	8.44
348.766	8.43
349.132	8.38
349.497	8.2
349.862	8.35
350.228	8.36
350.593	8.38
350.958	8.42
351.323	8.49
351.688	8.52
352.053	8.55
352.418	8.62
352.783	8.58
353.148	8.56
353.513	8.54
353.878	8.66
354.243	8.64
354.608	8.66
354.972	8.61
355.337	8.59
355.702	8.63
356.066	8.62
356.431	8.64
356.795	8.7
357.16	8.87
357.524	8.72
357.889	8.68
358.253	8.61
358.618	8.62
358.982	8.46
359.346	8.48
359.71	8.45
360.075	8.45
360.439	8.43
360.803	8.42
361.167	8.35
361.531	8.37
361.895	8.36
362.259	8.35
362.623	8.43
362.987	8.44
363.351	8.42
363.714	8.44
364.078	8.47
364.442	8.48
364.806	8.38
365.169	8.41
365.533	8.44
365.896	8.42
366.26	8.33
366.623	8.41
366.987	8.37
367.35	8.35
367.714	8.28
368.077	8.22
368.44	8.15
368.803	8.12
369.167	7.99
369.53	7.93
369.893	7.9
370.256	7.85
370.619	7.82
370.982	7.75
371.345	7.65
371.708	7.62
372.071	7.55
372.434	7.52
372.797	7.56
373.159	7.46
373.522	7.47
373.885	7.47
374.247	7.47
374.61	7.45
374.973	7.38
375.335	7.34
375.698	7.33
376.06	7.34
376.423	7.36
376.785	7.4
377.147	7.39
377.51	7.36
377.872	7.29
378.234	7.22
378.596	7.24
378.958	7.17
379.321	7.13
379.683	7.12
380.045	7.14
380.407	7.01
380.769	7
381.13	6.94
381.492	6.87
381.854	6.78
382.216	6.71
382.578	6.73
382.939	6.74
383.301	6.71
383.663	6.68
384.024	6.59
384.386	6.57
384.747	6.58
385.109	6.53
385.47	6.48
385.832	6.5
386.193	6.43
386.554	6.42
386.916	6.37
387.277	6.31
387.638	6.27
387.999	6.25
388.36	6.18
388.721	6.14
389.082	6.14
389.443	6.12
389.804	6.11
390.165	6.03
390.526	5.98
390.887	5.94
391.248	5.93
391.609	5.92
391.969	5.89
392.33	5.81
392.691	5.77
393.051	5.77
393.412	5.75
393.772	5.69
394.133	5.66
394.493	5.65
394.854	5.6
395.214	5.54
395.574	5.52
395.935	5.48
396.295	5.51
396.655	5.43
397.015	5.4
397.376	5.38
397.736	5.38
398.096	5.37
398.456	5.34
398.816	5.29
399.176	5.27
399.535	5.18
399.895	5.17
400.255	5.13
400.615	5.11
400.975	5.05
401.334	5.06
401.694	5.04
402.054	4.99
402.413	4.99
402.773	4.95
403.132	4.92
403.492	4.92
403.851	4.87
404.211	4.89
404.57	4.89
404.929	4.82
405.288	4.81
405.648	4.75
406.007	4.74
406.366	4.7
406.725	4.68
407.084	4.69
407.443	4.68
407.802	4.7
408.161	4.66
408.52	4.64
408.879	4.64
409.238	4.61
409.596	4.6
409.955	4.58
410.314	4.59
410.673	4.58
411.031	4.58
411.39	4.54
411.748	4.52
412.107	4.5
412.465	4.5
412.824	4.46
413.182	4.43
413.54	4.39
413.899	4.41
414.257	4.4
414.615	4.37
414.974	4.33
415.332	4.27
415.69	4.24
416.048	4.22
416.406	4.2
416.764	4.18
417.122	4.18
417.48	4.13
417.838	4.12
418.195	4.11
418.553	4.09
418.911	4.06
419.269	4.04
419.626	4.02
419.984	4
420.342	4
420.699	4
421.057	4
421.414	3.95
421.772	3.94
422.129	3.92
422.486	3.92
422.844	3.92
423.201	3.9
423.558	3.89
423.915	3.88
424.273	3.87
424.63	3.87
424.987	3.86
425.344	3.85
425.701	3.83
426.058	3.83
426.415	3.84
426.772	3.85
427.128	3.84
427.485	3.84
427.842	3.81
428.199	3.8
428.555	3.77
428.912	3.79
429.269	3.78
429.625	3.79
429.982	3.78
430.338	3.78
430.695	3.8
431.051	3.79
431.407	3.78
431.764	3.76
432.12	3.73
432.476	3.73
432.832	3.73
433.189	3.72
433.545	3.72
433.901	3.73
434.257	3.7
434.613	3.71
434.969	3.72
435.325	3.74
435.681	3.75
436.036	3.77
436.392	3.77
436.748	3.75
437.104	3.75
437.459	3.74
437.815	3.72
438.171	3.71
438.526	3.72
438.882	3.72
439.237	3.71
439.593	3.72
439.948	3.73
440.304	3.73
440.659	3.73
441.014	3.73
441.369	3.72
441.725	3.71
442.08	3.69
442.435	3.67
442.79	3.65
443.145	3.64
443.5	3.63
443.855	3.62
444.21	3.62
444.565	3.63
444.92	3.61
445.275	3.6
445.629	3.58
445.984	3.57
446.339	3.56
446.693	3.55
447.048	3.53
447.403	3.51
447.757	3.5
448.112	3.48
448.466	3.46
448.82	3.45
449.175	3.45
449.529	3.45
449.883	3.44
450.238	3.43
450.592	3.42
450.946	3.41
451.3	3.4
451.654	3.4
452.008	3.37
452.362	3.35
452.716	3.35
453.07	3.36
453.424	3.36
453.778	3.37
454.132	3.39
454.486	3.4
454.839	3.41
455.193	3.41
455.547	3.43
455.9	3.46
456.254	3.47
456.607	3.47
456.961	3.46
457.314	3.45
457.668	3.46
458.021	3.45
458.375	3.47
458.728	3.47
459.081	3.47
459.434	3.47
459.787	3.5
460.141	3.52
460.494	3.52
460.847	3.53
461.2	3.52
461.553	3.52
461.906	3.53
462.259	3.54
462.611	3.56
462.964	3.55
463.317	3.54
463.67	3.54
464.022	3.53
464.375	3.54
464.728	3.55
465.08	3.57
465.433	3.59
465.785	3.6
466.138	3.61
466.49	3.62
466.843	3.63
467.195	3.63
467.547	3.63
467.899	3.65
468.252	3.65
468.604	3.66
468.956	3.66
469.308	3.66
469.66	3.64
470.012	3.65
470.364	3.66
470.716	3.67
471.068	3.68
471.42	3.71
471.772	3.74
472.123	3.75
472.475	3.76
472.827	3.77
473.178	3.77
473.53	3.77
473.882	3.77
474.233	3.79
474.585	3.76
474.936	3.77
475.288	3.78
475.639	3.79
475.99	3.78
476.342	3.77
476.693	3.8
477.044	3.81
477.395	3.8
477.746	3.79
478.097	3.79
478.448	3.76
478.8	3.73
479.15	3.7
479.501	3.71
479.852	3.69
480.203	3.69
480.554	3.71
480.905	3.69
481.255	3.69
481.606	3.69
481.957	3.69
482.307	3.69
482.658	3.68
483.009	3.67
483.359	3.68
483.709	3.68
484.06	3.67
484.41	3.68
484.761	3.68
485.111	3.68
485.461	3.68
485.811	3.7
486.162	3.7
486.512	3.72
486.862	3.72
487.212	3.73
487.562	3.72
487.912	3.71
488.262	3.72
488.612	3.72
488.961	3.73
489.311	3.74
489.661	3.74
490.011	3.75
490.36	3.76
490.71	3.76
491.06	3.77
491.409	3.78
491.759	3.79
492.108	3.8
492.458	3.81
492.807	3.81
493.157	3.83
493.506	3.85
493.855	3.87
494.204	3.88
494.554	3.92
494.903	3.94
495.252	3.97
495.601	4
495.95	4.04
496.299	4.07
496.648	4.09
496.997	4.12
497.346	4.17
497.695	4.21
498.043	4.25
498.392	4.28
498.741	4.32
499.09	4.34
499.438	4.39
499.787	4.43
500.135	4.5
500.484	4.54
500.832	4.58
501.181	4.61
501.529	4.66
501.878	4.69
502.226	4.75
502.574	4.78
502.923	4.84
503.271	4.89
503.619	4.93
503.967	4.98
504.315	5.04
504.663	5.08
505.011	5.14
505.359	5.2
505.707	5.3
506.055	5.34
506.403	5.43
506.751	5.47
507.098	5.52
507.446	5.58
507.794	5.65
508.141	5.71
508.489	5.79
508.837	5.86
509.184	5.92
509.531	5.99
509.879	6.08
510.226	6.16
510.574	6.23
510.921	6.3
511.268	6.38
511.616	6.45
511.963	6.52
512.31	6.61
512.657	6.67
513.004	6.74
513.351	6.86
513.698	6.93
514.045	7.01
514.392	7.13
514.739	7.22
515.086	7.32
515.432	7.41
515.779	7.49
516.126	7.59
516.473	7.69
516.819	7.8
517.166	7.89
517.512	7.98
517.859	8.07
518.205	8.16
518.552	8.27
518.898	8.35
519.245	8.45
519.591	8.52
519.937	8.61
520.283	8.73
520.629	8.82
520.976	8.93
521.322	9.08
521.668	9.2
522.014	9.33
522.36	9.47
522.706	9.61
523.052	9.78
523.398	9.94
523.743	10.11
524.089	10.28
524.435	10.46
524.781	10.61
525.126	10.78
525.472	10.96
525.817	11.1
526.163	11.23
526.509	11.38
526.854	11.51
527.199	11.63
527.545	11.75
527.89	11.88
528.235	12.01
528.581	12.14
528.926	12.26
529.271	12.4
529.616	12.53
529.961	12.68
530.306	12.83
530.651	12.98
530.996	13.13
531.341	13.3
531.686	13.47
532.031	13.65
532.376	13.82
532.721	14.01
533.065	14.2
533.41	14.41
533.755	14.62
534.099	14.86
534.444	15.08
534.788	15.32
535.133	15.55
535.477	15.78
535.822	16.01
536.166	16.29
536.51	16.58
536.855	16.9
537.199	17.21
537.543	17.51
537.887	17.85
538.231	18.16
538.576	18.5
538.92	18.84
539.264	19.18
539.608	19.49
539.951	19.77
540.295	20.07
540.639	20.36
540.983	20.61
541.327	20.86
541.671	21.13
542.014	21.36
542.358	21.62
542.701	21.88
543.045	22.15
543.389	22.4
543.732	22.68
544.075	22.93
544.419	23.25
544.762	23.54
545.105	23.84
545.449	24.19
545.792	24.52
546.135	24.86
546.478	25.21
546.821	25.61
547.165	26.01
547.508	26.36
547.851	26.72
548.194	27.13
548.536	27.53
548.879	27.94
549.222	28.38
549.565	28.77
549.908	29.18
550.25	29.61
550.593	30.04
550.936	30.45
551.278	30.87
551.621	31.24
551.963	31.62
552.306	32.03
552.648	32.39
552.991	32.72
553.333	33.14
553.675	33.52
554.017	33.87
554.36	34.18
554.702	34.54
555.044	34.87
555.386	35.23
555.728	35.61
556.07	35.99
556.412	36.35
556.754	36.72
557.096	37.11
557.438	37.44
557.78	37.79
558.121	38.13
558.463	38.54
558.805	38.89
559.147	39.29
559.488	39.62
559.83	40.02
560.171	40.42
560.513	40.77
560.854	41.08
561.196	41.37
561.537	41.73
561.878	42.04
562.22	42.42
562.561	42.76
562.902	43.03
563.243	43.32
563.584	43.63
563.925	43.89
564.266	44.1
564.607	44.35
564.948	44.63
565.289	44.88
565.63	45.13
565.971	45.4
566.312	45.64
566.653	45.85
566.993	46.09
567.334	46.33
567.675	46.46
568.015	46.72
568.356	47
568.696	47.25
569.037	47.5
569.377	47.73
569.718	47.95
570.058	48.16
570.398	48.39
570.739	48.58
571.079	48.78
571.419	49.06
571.759	49.31
572.099	49.5
572.439	49.7
572.779	49.87
573.119	49.98
573.459	50.19
573.799	50.35
574.139	50.5
574.479	50.67
574.819	50.84
575.158	50.97
575.498	51.15
575.838	51.35
576.177	51.51
576.517	51.7
576.856	51.84
577.196	52.02
577.535	52.15
577.875	52.31
578.214	52.52
578.553	52.63
578.893	52.79
579.232	52.98
579.571	53.14
579.91	53.33
580.25	53.59
580.589	53.79
580.928	54.04
581.267	54.23
581.606	54.39
581.945	54.54
582.283	54.74
582.622	54.9
582.961	55.01
583.3	55.14
583.639	55.32
583.977	55.44
584.316	55.56
584.654	55.64
584.993	55.78
585.332	55.88
585.67	56.04
586.008	56.05
586.347	56.22
586.685	56.28
587.024	56.37
587.362	56.45
587.7	56.46
588.038	56.54
588.376	56.61
588.715	56.7
589.053	56.82
589.391	56.9
589.729	57.02
590.067	57.13
590.404	57.26
590.742	57.24
591.08	57.36
591.418	57.51
591.756	57.64
592.093	57.62
592.431	57.69
592.769	57.75
593.106	57.88
593.444	57.82
593.781	57.95
594.119	57.98
594.456	58.06
594.793	58.13
595.131	58.14
595.468	58.27
595.805	58.28
596.143	58.37
596.48	58.55
596.817	58.55
597.154	58.62
597.491	58.6
597.828	58.68
598.165	58.71
598.502	58.69
598.839	58.79
599.176	58.93
599.512	59.08
599.849	59.13
600.186	59.28
600.523	59.42
600.859	59.46
601.196	59.56
601.532	59.69
601.869	59.71
602.205	59.88
602.542	59.92
602.878	60
603.215	60.03
603.551	59.93
603.887	59.99
604.223	60.03
604.56	60.1
604.896	60.1
605.232	60.2
605.568	60.28
605.904	60.25
606.24	60.34
606.576	60.36
606.912	60.38
607.248	60.42
607.583	60.45
607.919	60.55
608.255	60.63
608.591	60.59
608.926	60.72
609.262	60.73
609.597	60.75
609.933	60.81
610.268	60.85
610.604	60.97
610.939	61.02
611.275	61.06
611.61	61.21
611.945	61.28
612.281	61.28
612.616	61.35
612.951	61.52
613.286	61.52
613.621	61.53
613.956	61.71
614.291	61.75
614.626	61.82
614.961	61.8
615.296	61.8
615.631	61.88
615.966	61.89
616.3	61.78
616.635	61.85
616.97	61.88
617.304	61.99
617.639	62
617.973	62.02
618.308	62.07
618.642	62.07
618.977	62.09
619.311	62.25
619.646	62.31
619.98	62.34
620.314	62.37
620.648	62.47
620.983	62.46
621.317	62.55
621.651	62.62
621.985	62.72
622.319	62.82
622.653	62.83
622.987	62.89
623.321	63.08
623.655	63.11
623.988	63.18
624.322	63.23
624.656	63.23
624.99	63.24
625.323	63.23
625.657	63.15
625.99	63.14
626.324	63.04
626.657	63.11
626.991	63.03
627.324	63.05
627.658	63.09
627.991	63.09
628.324	63.09
628.657	63.1
628.991	63.16
629.324	63.16
629.657	63.25
629.99	63.29
630.323	63.25
630.656	63.33
630.989	63.47
631.322	63.47
631.655	63.49
631.987	63.54
632.32	63.55
632.653	63.57
632.986	63.67
633.318	63.73
633.651	63.67
633.984	63.78
634.316	63.77
634.649	63.73
634.981	63.84
635.313	63.84
635.646	63.86
635.978	63.81
636.31	63.82
636.643	63.74
636.975	63.77
637.307	63.88
637.639	63.79
637.971	63.65
638.303	63.65
638.635	63.69
638.967	63.59
639.299	63.6
639.631	63.7
639.963	63.78
640.295	63.76
640.626	63.72
640.958	63.74
641.29	63.82
641.621	63.93
641.953	63.78
642.285	63.71
642.616	63.72
642.948	63.71
643.279	63.76
643.61	63.81
643.942	63.81
644.273	63.72
644.604	63.76
644.936	63.76
645.267	63.76
645.598	63.83
645.929	63.95
646.26	64.07
646.591	64.17
646.922	64.15
647.253	64.2
647.584	64.39
647.915	64.55
648.245	64.52
648.576	64.5
648.907	64.63
649.238	64.84
649.568	64.8
649.899	65.03
650.229	64.95
650.56	65.05
650.89	65.04
651.221	65.11
651.551	65.14
651.882	65.16
652.212	65.09
652.542	65.1
652.872	65.15
653.203	65.13
653.533	65.09
653.863	65.12
654.193	65.18
654.523	65.16
654.853	65.04
655.183	65.07
655.513	65.02
655.843	65.04
656.172	64.88
656.502	64.94
656.832	64.77
657.162	64.92
657.491	64.89
657.821	64.92
658.15	64.84
658.48	64.88
658.809	64.89
659.139	64.98
659.468	64.99
659.798	64.99
660.127	65.02
660.456	65.07
660.785	65.04
661.115	64.97
661.444	64.95
661.773	64.99
662.102	64.98
662.431	65.05
662.76	65.02
663.089	65.09
663.418	65.06
663.747	65.13
664.076	65
664.404	65.08
664.733	65.12
665.062	65.13
665.39	65.2
665.719	65.4
666.048	65.45
666.376	65.4
666.705	65.34
667.033	65.29
667.362	65.28
667.69	65.25
668.018	65.36
668.347	65.33
668.675	65.42
669.003	65.52
669.331	65.54
669.659	65.67
669.987	65.72
670.315	65.81
670.643	65.79
670.971	65.96
671.299	65.94
671.627	65.89
671.955	66.02
672.283	65.93
672.61	65.88
672.938	65.79
673.266	65.81
673.593	66.03
673.921	66.18
674.249	66.17
674.576	66.4
674.904	66.44
675.231	66.48
675.558	66.2
675.886	66.2
676.213	66.15
676.54	66.12
676.867	66.17
677.195	66.16
677.522	66.23
677.849	66.2
678.176	66.12
678.503	66.2
678.83	66.3
679.157	66.38
679.484	66.19
679.81	66.22
680.137	66.19
680.464	66.09
680.791	66.05
681.117	66.06
681.444	66.02
681.771	65.92
682.097	65.93
682.424	66.11
682.75	66.14
683.077	66.15
683.403	66.28
683.729	66.28
684.056	66.34
684.382	66.29
684.708	66.26
685.034	66.35
685.36	66.43
685.686	66.32
686.012	66.21
686.339	66.33
686.664	66.41
686.99	66.54
687.316	66.58
687.642	66.68
687.968	66.72
688.294	66.66
688.619	66.69
688.945	66.78
689.271	66.63
689.596	66.52
689.922	66.53
690.247	66.45
690.573	66.46
690.898	66.4
691.224	66.33
691.549	66.3
691.874	66.25
692.2	66.09
692.525	66.1
692.85	66.22
693.175	66.22
693.5	66.13
693.825	66.18
694.15	65.97
694.475	65.81
694.8	65.65
695.125	65.44
695.45	65.48
695.775	65.46
696.099	65.62
696.424	65.81
696.749	65.79
697.073	65.81
697.398	65.8
697.723	65.82
698.047	66
698.372	66.04
698.696	66.23
699.02	66.35
699.345	66.28
699.669	66.34
699.993	66.4
700.318	66.59
700.642	66.56
700.966	66.81
701.29	66.8
701.614	67.01
701.938	67.23
702.262	67.36
702.586	67.31
702.91	67.3
703.234	67.19
703.557	67.33
703.881	67.26
704.205	67.39
704.529	67.28
704.852	67.26
705.176	67.34
705.499	67.03
705.823	66.95
706.146	66.99
706.47	66.85
706.793	66.82
707.117	66.58
707.44	66.55
707.763	66.53
708.086	66.7
708.409	66.65
708.733	66.49
709.056	66.43
709.379	66.53
709.702	66.5
710.025	66.44
710.348	66.34
710.671	66.29
710.993	66.13
711.316	66.22
711.639	66.26
711.962	66.18
712.284	66.34
712.607	66.37
712.93	66.44
713.252	66.31
713.575	66.51
713.897	66.65
714.22	66.54
714.542	66.39
714.864	66.27
715.187	66.49
715.509	66.32
715.831	66.27
716.153	66.04
716.475	66.1
716.798	66.3
717.12	66.32
717.442	66.52
717.764	66.37
718.085	66.33
718.407	66.3
718.729	66.25
719.051	65.92
719.373	66.09
719.695	66.06
720.016	66.22
720.338	66.04
720.659	66.08
720.981	66.22
721.302	66.23
721.624	66.31
721.945	65.98
722.267	66.4
722.588	66.67
722.909	67.01
723.231	66.97
723.552	66.74
723.873	66.65
724.194	66.49
724.515	66.55
724.836	66.65
725.157	66.64
725.478	66.98
725.799	67.18
726.12	66.83
726.441	66.89
726.762	67
727.083	66.86
727.403	66.7
727.724	66.63
728.045	66.82
728.365	66.79
728.686	66.88
729.006	66.76
729.327	66.66
729.647	66.76
729.967	66.8
730.288	66.65
730.608	66.71
730.928	66.88
731.249	66.93
731.569	66.72
731.889	66.64
732.209	66.53
732.529	66.8
732.849	66.87
733.169	66.6
733.489	66.36
733.809	66.57
734.129	66.52
734.448	66.46
734.768	66.1
735.088	66.18
735.408	66.06
735.727	66.31
736.047	66.23
736.366	66.06
736.686	66.14
737.005	66.31
737.325	66.32
737.644	66.2
737.963	66.2
738.283	66.42
738.602	66.41
738.921	66.31
739.24	66.39
739.56	66.43
739.879	66.6
740.198	66.77
740.517	66.69
740.836	66.75
741.155	66.93
741.473	67.23
741.792	66.97
742.111	66.99
742.43	66.93
742.748	66.89
743.067	67.01
743.386	67
743.704	67.03
744.023	66.99
744.341	67.01
744.66	67.11
744.978	67
745.297	66.79
745.615	66.92
745.933	66.63
746.252	66.63
746.57	66.94
746.888	66.68
747.206	66.69
747.524	66.79
747.842	66.76
748.16	67.06
748.478	66.95
748.796	67.35
749.114	67.15
749.432	67.27
749.749	67.11
750.067	67.1
750.385	67.24
750.703	67.2
751.02	67.11
751.338	67.19
751.655	67.17
751.973	67.35
752.29	67.34
752.608	67.37
752.925	67.5
753.242	67.21
753.56	67.33
753.877	67.03
754.194	67.21
754.511	67.06
754.828	66.59
755.145	67.02
755.462	66.85
755.779	66.86
756.096	66.72
756.413	66.71
756.73	66.73
757.047	66.98
757.364	67.12
757.68	67.14
757.997	67.45
758.314	67.66
758.63	67.57
758.947	67.67
759.264	67.54
759.58	67.59
759.896	67.57
760.213	67.37
760.529	67.48
760.846	67.3
761.162	67.34
761.478	67.56
761.794	67.39
762.11	67.29
762.426	67.56
762.743	67.64
763.059	67.42
763.375	67.4
763.69	67.16
764.006	67.33
764.322	67.22
764.638	67.01
764.954	67.11
765.27	66.97
765.585	66.87
765.901	67
766.216	66.85
766.532	67.08
766.848	67.3
767.163	67.24
767.478	67.28
767.794	67.41
768.109	67.11
768.424	67.27
768.74	66.89
769.055	66.78
769.37	66.86
769.685	67.04
770	67.19
770.315	66.94
770.63	66.72
770.945	67.02
771.26	66.77
771.575	66.52
771.89	67.01
772.205	66.91
772.52	66.58
772.834	66.79
773.149	66.59
773.464	67.26
773.778	67.68
774.093	67.58
774.407	67.5
774.722	67.87
775.036	67.8
775.351	68.41
775.665	68.5
775.979	68.08
776.293	68.45
776.608	68.14
776.922	68.5
777.236	68.43
777.55	68.21
777.864	68.45
778.178	68.64
778.492	68.75
778.806	68.6
779.12	68.69
779.434	68.8
779.747	68.68
780.061	67.9
780.375	67.55
780.689	68
781.002	68.23
781.316	67.97
781.629	68.07
781.943	67.99
782.256	67.76
782.57	68.41
782.883	68.27
783.196	68.4
783.51	68.18
783.823	68.27
784.136	68.26
784.449	68.67
784.762	68.77
785.075	68.59
785.388	68.56
785.701	68.5
786.014	68.29
786.327	68.86
786.64	69.3
786.953	69.21
787.266	68.62
787.578	68.2
787.891	68.2
788.204	67.89
788.516	67.62
788.829	67.86
789.141	67.56
789.454	67.79
789.766	68.01
790.079	68.12
790.391	68.39
790.703	69.09
791.016	68.94
791.328	69.12
791.64	69.43
791.952	69.36
792.264	69.6
792.576	68.96
792.888	68.52
793.2	68.7
793.512	68.64
793.824	68.53
794.136	68.77
794.448	68.93
794.76	69.32
795.071	69.06
795.383	69.03
795.695	69.13
796.006	68.56
796.318	68.45
796.629	68.61
796.941	68.16
797.252	67.99
797.564	67.81
797.875	67.46
798.186	67.62
798.497	67.61
798.809	67.66
799.12	68.35
799.431	68.7
799.742	68.1
800.053	68.08
800.364	68.62
800.675	68.64
800.986	68.78
801.297	68.49
801.608	69.27
801.918	68.82
802.229	69.37
802.54	69.46
802.851	69.23
803.161	69.16
803.472	68.98
803.782	68.31
804.093	67.95
804.403	67.42
804.714	67.18
805.024	67.64
805.334	67.58
805.645	67.28
805.955	66.85
806.265	66.78
806.575	67.23
806.885	67.19
807.195	66.79
807.505	66.85
807.815	66.97
808.125	66.62
808.435	66.88
808.745	66.05
809.055	65.77
809.365	65.84
809.674	66.44
809.984	66.75
810.294	66.76
810.603	66.93
810.913	67.41
811.222	67.03
811.532	66.95
811.841	67.38
812.151	68.02
812.46	68.25
812.769	68.09
813.079	67.74
813.388	67.73
813.697	67.65
814.006	66.67
814.315	67.48
814.624	67.64
814.933	67.95
815.242	67.73
815.551	68.82
815.86	69.35
816.169	68.84
816.478	68.78
816.786	68.97
817.095	69.09
817.404	69.73
817.712	69.48
818.021	69.63
818.33	69.47
818.638	69.4
818.947	68.94
819.255	69.21
819.563	69.05
819.872	68.71
820.18	69.22
820.488	70
820.796	69.41
821.105	69.19
821.413	69.27
821.721	69.29
822.029	68.94
822.337	68.92
822.645	69.05
822.953	68.94
823.26	68.85
823.568	68.83
823.876	68.63
824.184	68.77
824.491	68.54
824.799	68.38
825.107	68.15
825.414	68.41
825.722	68.45
826.029	68.48
826.337	68.43
826.644	68.19
826.951	68.01
827.259	68.02
827.566	67.8
827.873	67.43
828.18	67.46
828.488	67.39
828.795	67.11
829.102	66.61
829.409	66.74
829.716	66.7
830.023	66.53
830.329	66.32
830.636	66.23
830.943	66.37
831.25	66.33
831.557	66.49
831.863	65.96
832.17	65.87
832.476	66.14
832.783	66.83
833.089	66.64
833.396	66.14
833.702	66.42
834.009	66.35
834.315	66.44
834.621	66.36
834.928	66.83
835.234	66.87
835.54	67.24
835.846	66.66
836.152	66.93
836.458	67.42
836.764	67.74
837.07	67.57
837.376	67.69
837.682	67.75
837.988	67.19
838.293	67.74
838.599	67.32
838.905	67.02
839.211	66.64
839.516	66.56
839.822	66.48
840.127	66.22
840.433	67.23
840.738	66.59
841.044	66.15
841.349	65.77
841.654	65.86
841.959	66.12
842.265	67.12
842.57	66.59
842.875	65.48
843.18	66.5
843.485	65.85
843.79	66.05
844.095	65.83
844.4	67.26
844.705	65.89
845.01	66.09
845.315	65.58
845.619	65.05
845.924	65.67
846.229	67.02
846.533	66.64
846.838	66.27
847.142	67.27
847.447	67.62
847.751	66.76
848.056	65.55
848.36	63.05
848.664	62.46
848.969	62.92
849.273	62.95
849.577	59.43
849.881	60
850.185	58.95
850.489	60.41
850.794	59.65
851.097	61.34
851.401	60.08
851.705	61.14
852.009	60.12
852.313	61.65
852.617	61.05
852.92	61.94
853.224	62.37
853.528	62.7
853.831	62.01
854.135	62.92
854.438	63.86
854.742	64.09
855.045	62.77
855.349	63.07
855.652	64.89
855.955	67.48
856.259	68.35
856.562	69.65
856.865	68.1
857.168	68.41
857.471	67.25
857.774	70
858.077	68.75
858.38	72.06
858.683	70.14
858.986	66.98
859.289	65.41
859.592	64.83
859.894	65.18
860.197	64.96
860.5	65.96
860.802	65.82
861.105	67.04
861.407	69.96
861.71	68.26
862.012	65.18
862.315	63.36
862.617	62.48
862.919	60.62
863.222	62.08
863.524	62.01
863.826	62.25
864.128	62.15
864.43	63.97
864.732	62.05
865.034	61.83
865.336	63.44
865.638	64.42
865.94	64.8
866.242	64.81
866.544	66.97
866.846	65.37
867.147	66
867.449	65.84
867.751	64.99
868.052	64.98
868.354	68.06
868.655	69.48
868.957	70.99
869.258	73.66
869.56	72.8
869.861	72.16
870.162	72.91
870.463	71.24
870.765	69.06
871.066	69.21
871.367	68.65
871.668	69.28
871.969	69.26
872.27	68.27
872.571	68.73
872.872	69.53
873.173	68.23
873.473	67.64
873.774	66.77
874.075	67.58
874.376	68.54
874.676	67.16
874.977	67.82
875.277	67.59
875.578	64.92
875.878	65
876.179	65.66
876.479	64.94
876.78	66.24
877.08	66.79
877.38	66.03
877.68	67.72
877.981	67.91
878.281	68.13
878.581	70.09
