Data from BA28472_Reflection_00004.txt Node
Date: Mon Nov 18 15:24:18 EST 2019
User: vgr7
Spectrometer: USB2G7710
Scans to average: 3
Trigger mode: 4
Integration Time (sec): 2.000000E-2
Electric dark correction enabled: true
Boxcar width: 10
XAxis mode: Wavelengths
Number of Pixels in Spectrum: 2048
>>>>>Begin Spectral Data<<<<<
177.721	73.07
178.105	115.97
178.488	108.5
178.871	13.04
179.254	20.49
179.636	-30.84
180.019	-3081.82
180.402	111.54
180.785	75.1
181.168	-180.61
181.55	321.56
181.933	105.41
182.316	111.6
182.698	79.42
183.081	72.08
183.463	45.31
183.846	47.99
184.228	45.47
184.611	50.08
184.993	70.62
185.376	99.6
185.758	106.36
186.14	135.33
186.522	139.02
186.904	99.63
187.287	107.47
187.669	135.45
188.051	209.61
188.433	183.85
188.815	202.12
189.197	215.41
189.579	215.54
189.961	218.41
190.342	161.25
190.724	472.14
191.106	412.2
191.488	722.83
191.869	-436.8
192.251	-249.4
192.633	-142.04
193.014	-267.45
193.396	-328.92
193.777	-198.7
194.159	-223.31
194.54	-206.43
194.922	-124.46
195.303	-112.75
195.684	-79.64
196.065	-59.92
196.447	-32.27
196.828	-27.43
197.209	-23.05
197.59	-65.76
197.971	-73.89
198.352	-59.52
198.733	-60.51
199.114	-36.34
199.495	-33.65
199.876	-47.79
200.257	-65.03
200.638	-24.32
201.018	-6.13
201.399	22.44
201.78	2.11
202.16	-21.9
202.541	-14.52
202.922	6.77
203.302	16.18
203.683	18.01
204.063	-13.66
204.444	-41.51
204.824	-83.62
205.204	-44.58
205.585	17.42
205.965	23.08
206.345	8.24
206.725	48.07
207.106	-4.73
207.486	-21.56
207.866	-46.69
208.246	-4.24
208.626	13.68
209.006	38.39
209.386	-35.75
209.766	-83.14
210.145	-109
210.525	-162.9
210.905	-398.65
211.285	-594.55
211.664	-437.28
212.044	555.32
212.424	-597.48
212.803	-90.13
213.183	-136.21
213.562	-693.1
213.942	1647.95
214.321	-292.41
214.701	-595.52
215.08	-604.11
215.459	-436.8
215.838	-362.69
216.218	-260.46
216.597	-169.09
216.976	-184.83
217.355	-154.5
217.734	-127.69
218.113	-135.67
218.492	-133.13
218.871	-133.9
219.25	-101.24
219.629	-148.08
220.008	-123.12
220.387	-123.43
220.766	-105.92
221.144	-136.71
221.523	-119.71
221.902	-145.8
222.28	-183.42
222.659	-120.02
223.037	-100.14
223.416	-95.88
223.794	-76.18
224.173	-61.69
224.551	-42.14
224.929	-35.52
225.308	-35.4
225.686	-19.78
226.064	-18.93
226.442	-15
226.821	-8.47
227.199	-11.96
227.577	-10.38
227.955	-11.34
228.333	-9.42
228.711	-7.74
229.089	-1.3
229.467	-2.18
229.845	2.18
230.222	3.61
230.6	1.92
230.978	0.59
231.356	1.01
231.733	0.14
232.111	0.07
232.488	0.36
232.866	0.31
233.243	2.33
233.621	-1.05
233.998	2.56
234.376	2.59
234.753	1.75
235.13	1.18
235.508	2.4
235.885	2.1
236.262	0.41
236.639	-0.92
237.016	-1.29
237.393	0.39
237.77	0.55
238.147	1.1
238.524	1.59
238.901	3.1
239.278	3.45
239.655	4.28
240.032	3.81
240.409	3.64
240.785	3.85
241.162	4.15
241.539	4.45
241.915	3.78
242.292	3.4
242.668	3.36
243.045	3.93
243.421	3.52
243.798	3.4
244.174	3.8
244.551	4.39
244.927	4.02
245.303	4.09
245.679	4.26
246.056	4.39
246.432	4.19
246.808	4.04
247.184	3.81
247.56	3.61
247.936	3.8
248.312	3.76
248.688	3.56
249.064	3.18
249.44	3.27
249.815	3.18
250.191	3.37
250.567	3.48
250.943	3.43
251.318	3.66
251.694	4.01
252.069	3.88
252.445	3.64
252.82	3.94
253.196	3.75
253.571	3.77
253.947	3.69
254.322	4
254.697	3.83
255.073	3.9
255.448	3.86
255.823	3.69
256.198	3.93
256.573	4.01
256.948	4.27
257.323	4.26
257.698	4.38
258.073	4.23
258.448	4.11
258.823	4.1
259.198	3.95
259.573	3.76
259.948	3.83
260.322	3.73
260.697	3.77
261.072	3.78
261.446	3.77
261.821	3.46
262.195	3.51
262.57	3.5
262.944	3.5
263.319	3.38
263.693	3.36
264.067	3.3
264.442	3.39
264.816	3.34
265.19	3.36
265.564	3.25
265.938	3.2
266.313	3.14
266.687	3.12
267.061	3.33
267.435	3.28
267.809	3.05
268.183	3.15
268.556	3.01
268.93	3.06
269.304	2.87
269.678	3.19
270.051	3.06
270.425	3.08
270.799	3.17
271.172	3.16
271.546	3.18
271.919	3.16
272.293	3.08
272.666	3.11
273.04	2.97
273.413	3.02
273.787	3.08
274.16	3.16
274.533	3.11
274.906	3.01
275.279	3.14
275.653	3.3
276.026	3.15
276.399	3.24
276.772	3.25
277.145	3.35
277.518	3.21
277.891	3.37
278.263	3.27
278.636	3.14
279.009	3.22
279.382	3.19
279.755	3.22
280.127	3.4
280.5	3.47
280.872	3.67
281.245	3.73
281.617	3.87
281.99	3.87
282.362	3.88
282.735	3.91
283.107	3.85
283.479	3.68
283.852	3.81
284.224	3.69
284.596	3.73
284.968	3.77
285.34	3.88
285.713	3.89
286.085	4
286.457	4.04
286.829	4.21
287.201	4.24
287.572	4.15
287.944	4.03
288.316	4
288.688	3.96
289.06	3.99
289.431	3.98
289.803	3.99
290.175	4.01
290.546	4.07
290.918	4.17
291.289	4.32
291.661	4.32
292.032	4.47
292.403	4.46
292.775	4.46
293.146	4.3
293.517	4.21
293.889	4.21
294.26	4.28
294.631	4.16
295.002	4.1
295.373	4.12
295.744	4.21
296.115	4.24
296.486	4.1
296.857	3.98
297.228	3.97
297.599	3.93
297.97	3.98
298.34	3.89
298.711	3.82
299.082	3.75
299.452	3.79
299.823	3.84
300.194	3.71
300.564	3.59
300.935	3.64
301.305	3.66
301.676	3.68
302.046	3.62
302.416	3.7
302.787	3.68
303.157	3.69
303.527	3.61
303.897	3.53
304.267	3.67
304.637	3.85
305.008	3.9
305.378	4.04
305.748	4.03
306.117	3.92
306.487	3.91
306.857	3.97
307.227	3.97
307.597	3.82
307.967	3.87
308.336	4.02
308.706	3.95
309.076	3.93
309.445	3.91
309.815	3.89
310.184	3.9
310.554	4.06
310.923	4.02
311.293	4.1
311.662	4.08
312.031	4
312.401	3.88
312.77	3.95
313.139	3.97
313.508	3.92
313.877	4.06
314.246	4.12
314.616	4.18
314.985	4.18
315.353	4.11
315.722	4.17
316.091	4
316.46	3.96
316.829	3.99
317.198	4
317.567	4.03
317.935	3.98
318.304	3.95
318.672	3.94
319.041	3.98
319.41	3.97
319.778	4.04
320.147	4.1
320.515	3.83
320.883	3.71
321.252	3.79
321.62	3.83
321.988	3.65
322.357	3.65
322.725	3.57
323.093	3.73
323.461	3.84
323.829	3.89
324.197	4.03
324.565	3.99
324.933	4.03
325.301	4.03
325.669	4.02
326.037	3.96
326.405	3.99
326.772	3.99
327.14	4.09
327.508	4.09
327.875	3.97
328.243	4.16
328.61	4.07
328.978	4.05
329.346	4.09
329.713	4.14
330.08	4.1
330.448	4.03
330.815	3.89
331.182	3.78
331.55	3.78
331.917	3.84
332.284	3.88
332.651	3.77
333.018	3.81
333.385	3.77
333.752	3.76
334.119	3.74
334.486	3.6
334.853	3.52
335.22	3.5
335.587	3.58
335.954	3.55
336.32	3.6
336.687	3.55
337.054	3.48
337.42	3.46
337.787	3.58
338.153	3.64
338.52	3.84
338.886	3.82
339.253	3.8
339.619	3.76
339.986	3.79
340.352	3.84
340.718	3.72
341.084	3.76
341.451	3.8
341.817	3.88
342.183	3.88
342.549	3.92
342.915	4
343.281	4
343.647	3.93
344.013	3.95
344.379	3.95
344.745	4
345.11	4.02
345.476	3.93
345.842	3.98
346.208	3.86
346.573	3.87
346.939	4
347.304	3.9
347.67	3.83
348.035	3.8
348.401	3.81
348.766	3.84
349.132	3.89
349.497	3.81
349.862	3.87
350.228	3.88
350.593	3.87
350.958	3.91
351.323	3.97
351.688	3.97
352.053	3.95
352.418	3.97
352.783	4.08
353.148	4.1
353.513	4.01
353.878	4.02
354.243	4.12
354.608	4.06
354.972	4.07
355.337	4.16
355.702	4.23
356.066	4.31
356.431	4.25
356.795	4.28
357.16	4.3
357.524	4.29
357.889	4.29
358.253	4.18
358.618	4.19
358.982	4.13
359.346	4.04
359.71	4.09
360.075	4.1
360.439	4.01
360.803	4
361.167	4.05
361.531	4.05
361.895	3.99
362.259	4.01
362.623	4.05
362.987	3.95
363.351	3.93
363.714	3.88
364.078	3.89
364.442	3.81
364.806	3.84
365.169	3.86
365.533	3.82
365.896	3.9
366.26	3.87
366.623	3.93
366.987	4
367.35	4.02
367.714	3.96
368.077	4.03
368.44	4.05
368.803	3.99
369.167	3.96
369.53	3.91
369.893	3.87
370.256	3.84
370.619	3.89
370.982	3.85
371.345	3.8
371.708	3.83
372.071	3.89
372.434	3.84
372.797	3.81
373.159	3.8
373.522	3.78
373.885	3.82
374.247	3.73
374.61	3.76
374.973	3.68
375.335	3.7
375.698	3.64
376.06	3.62
376.423	3.62
376.785	3.67
377.147	3.75
377.51	3.78
377.872	3.82
378.234	3.82
378.596	3.79
378.958	3.79
379.321	3.74
379.683	3.73
380.045	3.77
380.407	3.76
380.769	3.77
381.13	3.8
381.492	3.77
381.854	3.82
382.216	3.81
382.578	3.85
382.939	3.82
383.301	3.82
383.663	3.82
384.024	3.84
384.386	3.82
384.747	3.8
385.109	3.79
385.47	3.79
385.832	3.77
386.193	3.78
386.554	3.8
386.916	3.8
387.277	3.79
387.638	3.8
387.999	3.8
388.36	3.82
388.721	3.8
389.082	3.8
389.443	3.8
389.804	3.78
390.165	3.75
390.526	3.77
390.887	3.79
391.248	3.79
391.609	3.79
391.969	3.82
392.33	3.8
392.691	3.78
393.051	3.75
393.412	3.74
393.772	3.75
394.133	3.79
394.493	3.82
394.854	3.81
395.214	3.77
395.574	3.81
395.935	3.8
396.295	3.81
396.655	3.8
397.015	3.78
397.376	3.78
397.736	3.8
398.096	3.82
398.456	3.81
398.816	3.81
399.176	3.78
399.535	3.76
399.895	3.75
400.255	3.74
400.615	3.74
400.975	3.74
401.334	3.71
401.694	3.68
402.054	3.65
402.413	3.67
402.773	3.67
403.132	3.65
403.492	3.65
403.851	3.64
404.211	3.64
404.57	3.64
404.929	3.67
405.288	3.67
405.648	3.65
406.007	3.64
406.366	3.65
406.725	3.64
407.084	3.64
407.443	3.65
407.802	3.67
408.161	3.68
408.52	3.69
408.879	3.72
409.238	3.74
409.596	3.75
409.955	3.74
410.314	3.73
410.673	3.74
411.031	3.73
411.39	3.73
411.748	3.76
412.107	3.77
412.465	3.74
412.824	3.74
413.182	3.73
413.54	3.75
413.899	3.76
414.257	3.79
414.615	3.77
414.974	3.81
415.332	3.78
415.69	3.79
416.048	3.78
416.406	3.76
416.764	3.74
417.122	3.76
417.48	3.75
417.838	3.77
418.195	3.75
418.553	3.74
418.911	3.75
419.269	3.74
419.626	3.73
419.984	3.73
420.342	3.74
420.699	3.76
421.057	3.74
421.414	3.72
421.772	3.72
422.129	3.73
422.486	3.72
422.844	3.73
423.201	3.72
423.558	3.71
423.915	3.73
424.273	3.73
424.63	3.71
424.987	3.71
425.344	3.71
425.701	3.73
426.058	3.73
426.415	3.72
426.772	3.72
427.128	3.72
427.485	3.72
427.842	3.71
428.199	3.7
428.555	3.71
428.912	3.72
429.269	3.73
429.625	3.71
429.982	3.7
430.338	3.69
430.695	3.71
431.051	3.71
431.407	3.71
431.764	3.71
432.12	3.7
432.476	3.7
432.832	3.68
433.189	3.67
433.545	3.68
433.901	3.68
434.257	3.66
434.613	3.69
434.969	3.67
435.325	3.68
435.681	3.68
436.036	3.69
436.392	3.68
436.748	3.67
437.104	3.66
437.459	3.67
437.815	3.68
438.171	3.67
438.526	3.68
438.882	3.68
439.237	3.69
439.593	3.7
439.948	3.68
440.304	3.69
440.659	3.68
441.014	3.67
441.369	3.65
441.725	3.64
442.08	3.63
442.435	3.63
442.79	3.62
443.145	3.63
443.5	3.62
443.855	3.62
444.21	3.62
444.565	3.63
444.92	3.62
445.275	3.6
445.629	3.6
445.984	3.59
446.339	3.6
446.693	3.58
447.048	3.59
447.403	3.59
447.757	3.59
448.112	3.59
448.466	3.59
448.82	3.62
449.175	3.63
449.529	3.61
449.883	3.61
450.238	3.62
450.592	3.6
450.946	3.59
451.3	3.6
451.654	3.6
452.008	3.6
452.362	3.61
452.716	3.6
453.07	3.61
453.424	3.61
453.778	3.62
454.132	3.62
454.486	3.6
454.839	3.6
455.193	3.61
455.547	3.62
455.9	3.62
456.254	3.6
456.607	3.61
456.961	3.64
457.314	3.64
457.668	3.65
458.021	3.64
458.375	3.65
458.728	3.67
459.081	3.68
459.434	3.68
459.787	3.69
460.141	3.71
460.494	3.71
460.847	3.72
461.2	3.7
461.553	3.71
461.906	3.72
462.259	3.75
462.611	3.75
462.964	3.76
463.317	3.76
463.67	3.77
464.022	3.77
464.375	3.76
464.728	3.76
465.08	3.77
465.433	3.77
465.785	3.76
466.138	3.75
466.49	3.73
466.843	3.73
467.195	3.72
467.547	3.71
467.899	3.7
468.252	3.69
468.604	3.72
468.956	3.71
469.308	3.69
469.66	3.67
470.012	3.68
470.364	3.66
470.716	3.65
471.068	3.63
471.42	3.65
471.772	3.67
472.123	3.67
472.475	3.68
472.827	3.71
473.178	3.73
473.53	3.73
473.882	3.72
474.233	3.73
474.585	3.71
474.936	3.7
475.288	3.72
475.639	3.76
475.99	3.77
476.342	3.78
476.693	3.8
477.044	3.82
477.395	3.8
477.746	3.8
478.097	3.83
478.448	3.83
478.8	3.84
479.15	3.81
479.501	3.79
479.852	3.79
480.203	3.77
480.554	3.77
480.905	3.78
481.255	3.78
481.606	3.79
481.957	3.8
482.307	3.81
482.658	3.81
483.009	3.8
483.359	3.8
483.709	3.81
484.06	3.81
484.41	3.81
484.761	3.81
485.111	3.81
485.461	3.81
485.811	3.81
486.162	3.81
486.512	3.83
486.862	3.83
487.212	3.83
487.562	3.86
487.912	3.86
488.262	3.86
488.612	3.87
488.961	3.87
489.311	3.87
489.661	3.87
490.011	3.88
490.36	3.87
490.71	3.87
491.06	3.86
491.409	3.86
491.759	3.87
492.108	3.88
492.458	3.88
492.807	3.88
493.157	3.9
493.506	3.9
493.855	3.89
494.204	3.9
494.554	3.91
494.903	3.89
495.252	3.88
495.601	3.89
495.95	3.88
496.299	3.87
496.648	3.87
496.997	3.88
497.346	3.88
497.695	3.88
498.043	3.88
498.392	3.87
498.741	3.86
499.09	3.85
499.438	3.86
499.787	3.86
500.135	3.85
500.484	3.85
500.832	3.85
501.181	3.86
501.529	3.85
501.878	3.86
502.226	3.87
502.574	3.88
502.923	3.87
503.271	3.86
503.619	3.88
503.967	3.89
504.315	3.9
504.663	3.88
505.011	3.92
505.359	3.92
505.707	3.94
506.055	3.94
506.403	3.95
506.751	3.97
507.098	3.98
507.446	4
507.794	3.99
508.141	4
508.489	4.02
508.837	4.02
509.184	4.02
509.531	4.01
509.879	4.03
510.226	4.05
510.574	4.07
510.921	4.06
511.268	4.09
511.616	4.07
511.963	4.08
512.31	4.07
512.657	4.07
513.004	4.08
513.351	4.09
513.698	4.07
514.045	4.07
514.392	4.09
514.739	4.08
515.086	4.08
515.432	4.09
515.779	4.09
516.126	4.11
516.473	4.12
516.819	4.14
517.166	4.13
517.512	4.11
517.859	4.11
518.205	4.11
518.552	4.12
518.898	4.13
519.245	4.14
519.591	4.13
519.937	4.13
520.283	4.13
520.629	4.13
520.976	4.14
521.322	4.15
521.668	4.15
522.014	4.15
522.36	4.15
522.706	4.16
523.052	4.17
523.398	4.16
523.743	4.14
524.089	4.14
524.435	4.14
524.781	4.18
525.126	4.2
525.472	4.21
525.817	4.2
526.163	4.21
526.509	4.22
526.854	4.22
527.199	4.24
527.545	4.24
527.89	4.23
528.235	4.25
528.581	4.25
528.926	4.26
529.271	4.26
529.616	4.27
529.961	4.27
530.306	4.27
530.651	4.27
530.996	4.29
531.341	4.29
531.686	4.3
532.031	4.3
532.376	4.29
532.721	4.3
533.065	4.3
533.41	4.3
533.755	4.3
534.099	4.32
534.444	4.31
534.788	4.33
535.133	4.34
535.477	4.34
535.822	4.33
536.166	4.33
536.51	4.33
536.855	4.34
537.199	4.35
537.543	4.36
537.887	4.36
538.231	4.36
538.576	4.37
538.92	4.35
539.264	4.35
539.608	4.34
539.951	4.33
540.295	4.33
540.639	4.35
540.983	4.33
541.327	4.34
541.671	4.33
542.014	4.34
542.358	4.34
542.701	4.33
543.045	4.34
543.389	4.35
543.732	4.34
544.075	4.32
544.419	4.31
544.762	4.32
545.105	4.32
545.449	4.33
545.792	4.34
546.135	4.34
546.478	4.36
546.821	4.36
547.165	4.37
547.508	4.38
547.851	4.37
548.194	4.37
548.536	4.35
548.879	4.38
549.222	4.37
549.565	4.36
549.908	4.38
550.25	4.36
550.593	4.36
550.936	4.39
551.278	4.4
551.621	4.41
551.963	4.39
552.306	4.38
552.648	4.36
552.991	4.36
553.333	4.37
553.675	4.34
554.017	4.35
554.36	4.36
554.702	4.37
555.044	4.37
555.386	4.38
555.728	4.38
556.07	4.36
556.412	4.36
556.754	4.34
557.096	4.34
557.438	4.33
557.78	4.33
558.121	4.34
558.463	4.34
558.805	4.32
559.147	4.33
559.488	4.35
559.83	4.36
560.171	4.34
560.513	4.34
560.854	4.35
561.196	4.32
561.537	4.3
561.878	4.27
562.22	4.29
562.561	4.27
562.902	4.29
563.243	4.29
563.584	4.29
563.925	4.33
564.266	4.31
564.607	4.32
564.948	4.32
565.289	4.32
565.63	4.34
565.971	4.31
566.312	4.31
566.653	4.31
566.993	4.31
567.334	4.29
567.675	4.32
568.015	4.32
568.356	4.35
568.696	4.39
569.037	4.42
569.377	4.42
569.718	4.47
570.058	4.43
570.398	4.46
570.739	4.47
571.079	4.46
571.419	4.48
571.759	4.51
572.099	4.5
572.439	4.48
572.779	4.47
573.119	4.52
573.459	4.53
573.799	4.53
574.139	4.52
574.479	4.56
574.819	4.54
575.158	4.54
575.498	4.54
575.838	4.53
576.177	4.5
576.517	4.51
576.856	4.52
577.196	4.54
577.535	4.51
577.875	4.53
578.214	4.52
578.553	4.52
578.893	4.51
579.232	4.54
579.571	4.54
579.91	4.54
580.25	4.53
580.589	4.54
580.928	4.55
581.267	4.56
581.606	4.52
581.945	4.5
582.283	4.51
582.622	4.51
582.961	4.54
583.3	4.54
583.639	4.54
583.977	4.52
584.316	4.55
584.654	4.56
584.993	4.56
585.332	4.59
585.67	4.57
586.008	4.6
586.347	4.56
586.685	4.58
587.024	4.57
587.362	4.57
587.7	4.56
588.038	4.58
588.376	4.56
588.715	4.61
589.053	4.62
589.391	4.63
589.729	4.63
590.067	4.63
590.404	4.63
590.742	4.64
591.08	4.63
591.418	4.62
591.756	4.62
592.093	4.62
592.431	4.59
592.769	4.58
593.106	4.56
593.444	4.54
593.781	4.51
594.119	4.55
594.456	4.53
594.793	4.57
595.131	4.56
595.468	4.57
595.805	4.6
596.143	4.61
596.48	4.6
596.817	4.6
597.154	4.61
597.491	4.61
597.828	4.59
598.165	4.58
598.502	4.55
598.839	4.57
599.176	4.55
599.512	4.6
599.849	4.64
600.186	4.67
600.523	4.72
600.859	4.77
601.196	4.75
601.532	4.73
601.869	4.7
602.205	4.7
602.542	4.71
602.878	4.66
603.215	4.66
603.551	4.64
603.887	4.65
604.223	4.6
604.56	4.65
604.896	4.66
605.232	4.69
605.568	4.71
605.904	4.69
606.24	4.73
606.576	4.72
606.912	4.7
607.248	4.67
607.583	4.67
607.919	4.62
608.255	4.62
608.591	4.71
608.926	4.72
609.262	4.76
609.597	4.74
609.933	4.78
610.268	4.78
610.604	4.83
610.939	4.82
611.275	4.84
611.61	4.82
611.945	4.83
612.281	4.8
612.616	4.79
612.951	4.81
613.286	4.79
613.621	4.77
613.956	4.77
614.291	4.82
614.626	4.8
614.961	4.84
615.296	4.84
615.631	4.8
615.966	4.78
616.3	4.74
616.635	4.76
616.97	4.74
617.304	4.76
617.639	4.73
617.973	4.72
618.308	4.74
618.642	4.74
618.977	4.7
619.311	4.7
619.646	4.71
619.98	4.7
620.314	4.71
620.648	4.71
620.983	4.72
621.317	4.75
621.651	4.74
621.985	4.74
622.319	4.75
622.653	4.74
622.987	4.78
623.321	4.79
623.655	4.77
623.988	4.75
624.322	4.73
624.656	4.73
624.99	4.75
625.323	4.77
625.657	4.79
625.99	4.84
626.324	4.86
626.657	4.83
626.991	4.88
627.324	4.9
627.658	4.88
627.991	4.9
628.324	4.86
628.657	4.87
628.991	4.91
629.324	4.92
629.657	4.93
629.99	4.92
630.323	4.92
630.656	4.99
630.989	5.03
631.322	5.05
631.655	5.07
631.987	5.14
632.32	5.13
632.653	5.1
632.986	5.08
633.318	5.14
633.651	5.18
633.984	5.14
634.316	5.1
634.649	5.09
634.981	5.11
635.313	5.11
635.646	5.14
635.978	5.1
636.31	5.09
636.643	5.14
636.975	5.12
637.307	5.12
637.639	5.02
637.971	5
638.303	5
638.635	5
638.967	4.94
639.299	4.96
639.631	4.94
639.963	4.92
640.295	4.87
640.626	4.88
640.958	4.87
641.29	4.84
641.621	4.9
641.953	4.9
642.285	4.89
642.616	4.9
642.948	4.86
643.279	4.92
643.61	4.88
643.942	4.88
644.273	4.89
644.604	4.93
644.936	4.88
645.267	4.89
645.598	4.86
645.929	4.87
646.26	4.94
646.591	4.96
646.922	4.99
647.253	4.97
647.584	5
647.915	5.02
648.245	5.07
648.576	5.14
648.907	5.11
649.238	5.12
649.568	5.1
649.899	5.2
650.229	5.22
650.56	5.21
650.89	5.2
651.221	5.23
651.551	5.26
651.882	5.33
652.212	5.27
652.542	5.33
652.872	5.28
653.203	5.21
653.533	5.26
653.863	5.27
654.193	5.28
654.523	5.26
654.853	5.29
655.183	5.28
655.513	5.23
655.843	5.26
656.172	5.27
656.502	5.23
656.832	5.22
657.162	5.19
657.491	5.2
657.821	5.24
658.15	5.24
658.48	5.25
658.809	5.23
659.139	5.27
659.468	5.29
659.798	5.32
660.127	5.34
660.456	5.37
660.785	5.39
661.115	5.39
661.444	5.41
661.773	5.44
662.102	5.44
662.431	5.46
662.76	5.42
663.089	5.45
663.418	5.51
663.747	5.47
664.076	5.49
664.404	5.52
664.733	5.49
665.062	5.51
665.39	5.46
665.719	5.46
666.048	5.49
666.376	5.41
666.705	5.38
667.033	5.29
667.362	5.22
667.69	5.18
668.018	5.19
668.347	5.16
668.675	5.14
669.003	5.13
669.331	5.15
669.659	5.23
669.987	5.2
670.315	5.26
670.643	5.25
670.971	5.21
671.299	5.16
671.627	5.17
671.955	5.13
672.283	5.18
672.61	5.21
672.938	5.25
673.266	5.3
673.593	5.39
673.921	5.47
674.249	5.52
674.576	5.48
674.904	5.5
675.231	5.52
675.558	5.48
675.886	5.48
676.213	5.41
676.54	5.33
676.867	5.3
677.195	5.25
677.522	5.31
677.849	5.32
678.176	5.37
678.503	5.33
678.83	5.34
679.157	5.28
679.484	5.31
679.81	5.18
680.137	5.21
680.464	5.08
680.791	5.05
681.117	4.99
681.444	5.07
681.771	5.04
682.097	5.08
682.424	5.18
682.75	5.2
683.077	5.23
683.403	5.28
683.729	5.29
684.056	5.33
684.382	5.33
684.708	5.36
685.034	5.37
685.36	5.46
685.686	5.43
686.012	5.5
686.339	5.53
686.664	5.68
686.99	5.72
687.316	5.74
687.642	5.8
687.968	5.96
688.294	5.93
688.619	5.98
688.945	5.89
689.271	5.83
689.596	5.81
689.922	5.84
690.247	5.87
690.573	5.83
690.898	5.74
691.224	5.77
691.549	5.72
691.874	5.63
692.2	5.7
692.525	5.71
692.85	5.75
693.175	5.64
693.5	5.68
693.825	5.65
694.15	5.67
694.475	5.66
694.8	5.59
695.125	5.65
695.45	5.57
695.775	5.61
696.099	5.56
696.424	5.52
696.749	5.44
697.073	5.47
697.398	5.59
697.723	5.68
698.047	5.6
698.372	5.58
698.696	5.57
699.02	5.46
699.345	5.48
699.669	5.46
699.993	5.44
700.318	5.32
700.642	5.29
700.966	5.36
701.29	5.31
701.614	5.28
701.938	5.22
702.262	5.28
702.586	5.22
702.91	5.25
703.234	5.38
703.557	5.44
703.881	5.44
704.205	5.32
704.529	5.18
704.852	5.29
705.176	5.49
705.499	5.65
705.823	5.56
706.146	5.55
706.47	5.63
706.793	5.7
707.117	5.76
707.44	5.83
707.763	5.82
708.086	5.9
708.409	5.95
708.733	5.95
709.056	6.05
709.379	6.16
709.702	6.27
710.025	6.18
710.348	6.19
710.671	6.09
710.993	6.1
711.316	6.15
711.639	6.19
711.962	6.1
712.284	6.1
712.607	6.22
712.93	6.33
713.252	6.24
713.575	6.32
713.897	6.29
714.22	6.14
714.542	6.2
714.864	6.19
715.187	6.16
715.509	6.22
715.831	6.25
716.153	6.27
716.475	6.19
716.798	6.37
717.12	6.44
717.442	6.52
717.764	6.65
718.085	6.62
718.407	6.47
718.729	6.46
719.051	6.37
719.373	6.4
719.695	6.16
720.016	6.26
720.338	6.3
720.659	6.44
720.981	6.5
721.302	6.62
721.624	6.6
721.945	6.72
722.267	6.78
722.588	6.62
722.909	6.49
723.231	6.29
723.552	6.08
723.873	6.05
724.194	5.94
724.515	6.04
724.836	6.15
725.157	6.4
725.478	6.35
725.799	6.28
726.12	6.34
726.441	6.5
726.762	6.44
727.083	6.36
727.403	6.31
727.724	6.42
728.045	6.28
728.365	6.32
728.686	6.18
729.006	6.35
729.327	6.42
729.647	6.43
729.967	6.45
730.288	6.54
730.608	6.53
730.928	6.61
731.249	6.46
731.569	6.65
731.889	6.48
732.209	6.52
732.529	6.57
732.849	6.54
733.169	6.53
733.489	6.55
733.809	6.7
734.129	6.67
734.448	6.71
734.768	6.61
735.088	6.66
735.408	6.74
735.727	6.63
736.047	6.73
736.366	6.71
736.686	6.97
737.005	7.05
737.325	7.02
737.644	7.04
737.963	7.13
738.283	6.86
738.602	6.9
738.921	7.1
739.24	7.24
739.56	7.28
739.879	7.3
740.198	7.45
740.517	7.32
740.836	7.43
741.155	7.28
741.473	7.42
741.792	7.4
742.111	7.44
742.43	7.3
742.748	7.08
743.067	7.35
743.386	7.31
743.704	7.15
744.023	7.12
744.341	6.98
744.66	7.07
744.978	7.09
745.297	7.31
745.615	7.02
745.933	6.93
746.252	6.83
746.57	6.89
746.888	6.68
747.206	6.66
747.524	6.57
747.842	6.76
748.16	7.08
748.478	7.25
748.796	7.27
749.114	7.43
749.432	7.4
749.749	7.31
750.067	7.19
750.385	7.21
750.703	7.39
751.02	7.41
751.338	7.36
751.655	7.39
751.973	7.14
752.29	7.46
752.608	7.59
752.925	7.96
753.242	8.09
753.56	8.1
753.877	8.34
754.194	8.45
754.511	8.56
754.828	8.24
755.145	7.95
755.462	7.92
755.779	8.1
756.096	8.23
756.413	8.28
756.73	8.27
757.047	8.21
757.364	7.98
757.68	8.23
757.997	8.07
758.314	7.82
758.63	7.79
758.947	7.7
759.264	7.58
759.58	7.54
759.896	7.74
760.213	7.95
760.529	7.91
760.846	7.96
761.162	7.82
761.478	7.68
761.794	7.86
762.11	7.77
762.426	7.49
762.743	7.46
763.059	7.52
763.375	7.68
763.69	7.91
764.006	7.88
764.322	7.87
764.638	8.06
764.954	8.24
765.27	8.23
765.585	8.01
765.901	8.07
766.216	7.83
766.532	7.52
766.848	7.25
767.163	7.15
767.478	7.23
767.794	7.08
768.109	7.11
768.424	6.97
768.74	6.88
769.055	6.8
769.37	6.67
769.685	6.32
770	6.21
770.315	5.76
770.63	5.95
770.945	5.77
771.26	5.66
771.575	5.61
771.89	5.83
772.205	6.05
772.52	6.07
772.834	5.93
773.149	5.99
773.464	6.23
773.778	6.35
774.093	5.78
774.407	5.97
774.722	6.25
775.036	6.37
775.351	6.86
775.665	7.18
775.979	7.26
776.293	7.59
776.608	7.25
776.922	7.53
777.236	7.29
777.55	7.16
777.864	7.17
778.178	7.57
778.492	7.72
778.806	7.54
779.12	7.65
779.434	8
779.747	8.15
780.061	8.19
780.375	8.16
780.689	8.63
781.002	8.83
781.316	8.85
781.629	8.71
781.943	8.5
782.256	8.56
782.57	8.82
782.883	8.56
783.196	8.56
783.51	8.77
783.823	8.9
784.136	9.14
784.449	9.12
784.762	9.05
785.075	8.75
785.388	9.11
785.701	8.92
786.014	8.44
786.327	8.23
786.64	8.34
786.953	8.12
787.266	8.04
787.578	7.99
787.891	7.82
788.204	7.99
788.516	8.13
788.829	8.46
789.141	8.4
789.454	8.67
789.766	9.07
790.079	9.27
790.391	9.47
790.703	9.65
791.016	9.38
791.328	9.1
791.64	9.23
791.952	9.28
792.264	9.13
792.576	9.54
792.888	9.69
793.2	9.59
793.512	9.46
793.824	9.61
794.136	9.44
794.448	9.67
794.76	9.56
795.071	9.28
795.383	8.76
795.695	9
796.006	8.99
796.318	9.31
796.629	9.09
796.941	8.98
797.252	8.91
797.564	9.13
797.875	9.46
798.186	9.09
798.497	9.06
798.809	9.58
799.12	9.73
799.431	9.95
799.742	9.89
800.053	10.19
800.364	10.39
800.675	10.61
800.986	10.82
801.297	10.41
801.608	10.52
801.918	10.33
802.229	10.13
802.54	10.19
802.851	10.01
803.161	9.75
803.472	9.53
803.782	9.46
804.093	9.18
804.403	9.03
804.714	9.34
805.024	8.75
805.334	8.73
805.645	8.82
805.955	9.07
806.265	8.87
806.575	8.84
806.885	8.44
807.195	8.61
807.505	8.17
807.815	9.09
808.125	8.64
808.435	8.35
808.745	8.34
809.055	8.59
809.365	7.96
809.674	7.92
809.984	7.98
810.294	8.08
810.603	8.31
810.913	8.89
811.222	9.01
811.532	9.71
811.841	9.77
812.151	10.26
812.46	9.49
812.769	10.08
813.079	9.86
813.388	9.66
813.697	9.25
814.006	9.93
814.315	9.74
814.624	10.34
814.933	11.34
815.242	11.69
815.551	11.23
815.86	11.97
816.169	11.78
816.478	12.33
816.786	12.26
817.095	12.46
817.404	12.35
817.712	12.32
818.021	12.26
818.33	12.06
818.638	11.4
818.947	11.77
819.255	11.62
819.563	11.64
819.872	11.41
820.18	11.56
820.488	10.96
820.796	10.94
821.105	10.8
821.413	10.76
821.721	10.55
822.029	10.58
822.337	10.62
822.645	10.58
822.953	10.48
823.26	10.64
823.568	10.58
823.876	10.43
824.184	10.42
824.491	10.36
824.799	10.32
825.107	10.27
825.414	10.18
825.722	10.04
826.029	10.21
826.337	10.36
826.644	10.33
826.951	10.47
827.259	10.26
827.566	10.3
827.873	10.23
828.18	10.23
828.488	10.09
828.795	9.99
829.102	10.23
829.409	10.37
829.716	10.24
830.023	10.3
830.329	10.21
830.636	10.4
830.943	10.39
831.25	10.26
831.557	10.49
831.863	10.47
832.17	10.34
832.476	10.15
832.783	10.28
833.089	9.95
833.396	10.29
833.702	10.67
834.009	10.89
834.315	11.04
834.621	11.28
834.928	11.56
835.234	11.88
835.54	11.66
835.846	11.46
836.152	11.22
836.458	10.99
836.764	10.97
837.07	10.57
837.376	10.67
837.682	11.03
837.988	10.83
838.293	10.95
838.599	11.69
838.905	11.49
839.211	11.21
839.516	11.91
839.822	11.85
840.127	11.62
840.433	11.87
840.738	11.33
841.044	10.98
841.349	11
841.654	11.03
841.959	11.17
842.265	11.15
842.57	11.84
842.875	12.32
843.18	13.56
843.485	13.2
843.79	13.43
844.095	12.6
844.4	12.97
844.705	12.16
845.01	11.59
845.315	11.37
845.619	9.99
845.924	9.19
846.229	8.73
846.533	8.98
846.838	7.24
847.142	7.48
847.447	7.81
847.751	8.32
848.056	5.48
848.36	6.64
848.664	6.23
848.969	5.51
849.273	6.29
849.577	5.26
849.881	5.85
850.185	5.99
850.489	7.34
850.794	6.47
851.097	7.85
851.401	9.54
851.705	10.52
852.009	13.78
852.313	13.41
852.617	12.25
852.92	13.67
853.224	13.61
853.528	15.51
853.831	15.1
854.135	14.95
854.438	15.24
854.742	15.27
855.045	15.79
855.349	14.96
855.652	14.04
855.955	11.64
856.259	11.88
856.562	12.26
856.865	10.52
857.168	12.26
857.471	12.55
857.774	11.77
858.077	10.87
858.38	10.38
858.683	10.3
858.986	12.53
859.289	12.94
859.592	15.37
859.894	13.08
860.197	12.89
860.5	11.74
860.802	12.84
861.105	13.54
861.407	13.48
861.71	14.68
862.012	13.82
862.315	16.94
862.617	17.19
862.919	16.31
863.222	17.86
863.524	15.87
863.826	15.94
864.128	15.26
864.43	15.57
864.732	16.57
865.034	15.32
865.336	12.68
865.638	10.32
865.94	8.01
866.242	7.01
866.544	6.65
866.846	6.99
867.147	6.01
867.449	4.8
867.751	4.79
868.052	5.31
868.354	6.88
868.655	6.49
868.957	6.99
869.258	8.21
869.56	7.17
869.861	6.82
870.162	6.85
870.463	6.07
870.765	7.95
871.066	6.62
871.367	8.53
871.668	11.56
871.969	12.81
872.27	13.33
872.571	12.28
872.872	15.22
873.173	14.62
873.473	15.27
873.774	15.58
874.075	15.31
874.376	14.43
874.676	17.02
874.977	15.86
875.277	15.47
875.578	13.84
875.878	14.35
876.179	16.1
876.479	15.37
876.78	16.06
877.08	14.8
877.38	14.18
877.68	14.7
877.981	12.84
878.281	12.3
878.581	14.07
