Data from BA28305_Reflection_00013.txt Node
Date: Mon Nov 18 15:57:15 EST 2019
User: vgr7
Spectrometer: USB2G7710
Scans to average: 3
Trigger mode: 4
Integration Time (sec): 2.000000E-2
Electric dark correction enabled: true
Boxcar width: 10
XAxis mode: Wavelengths
Number of Pixels in Spectrum: 2048
>>>>>Begin Spectral Data<<<<<
177.721	-97.47
178.105	-408.77
178.488	-538.63
178.871	380.7
179.254	172.68
179.636	-22.02
180.019	74.95
180.402	200
180.785	-35.34
181.168	-175.16
181.55	-39.21
181.933	45.17
182.316	33.93
182.698	45.46
183.081	32.4
183.463	33.69
183.846	48.13
184.228	77.97
184.611	110.23
184.993	109.2
185.376	156.52
185.758	206.35
186.14	192.92
186.522	295.14
186.904	540.54
187.287	257.98
187.669	518.26
188.051	351.6
188.433	512.23
188.815	756.96
189.197	2367.97
189.579	-513.68
189.961	-714.06
190.342	-635.57
190.724	-236.64
191.106	-189.12
191.488	-283
191.869	-167.8
192.251	-116.69
192.633	-52.35
193.014	-48.19
193.396	-85.43
193.777	-126.84
194.159	-144.44
194.54	-143
194.922	-153.77
195.303	-262.32
195.684	-240.3
196.065	-219.95
196.447	-122.56
196.828	-170.36
197.209	-153.64
197.59	-246.41
197.971	-181.4
198.352	-108.27
198.733	-145.16
199.114	-120.01
199.495	-97.86
199.876	-96.68
200.257	-63.78
200.638	-90.02
201.018	-194.04
201.399	-117.14
201.78	-96.72
202.16	-132.89
202.541	-182.78
202.922	-382.79
203.302	-423.81
203.683	-199.46
204.063	-213.32
204.444	-288.73
204.824	-345.85
205.204	-537.33
205.585	-440.05
205.965	-308.13
206.345	-1452.85
206.725	427.54
207.106	157.47
207.486	105.23
207.866	152.3
208.246	128.45
208.626	205.73
209.006	345.98
209.386	225.93
209.766	389.18
210.145	-219.4
210.525	-181.09
210.905	-100.4
211.285	-79.24
211.664	-106.39
212.044	-115.35
212.424	-148.5
212.803	-180.67
213.183	-116.14
213.562	-116.98
213.942	-96.02
214.321	-98.92
214.701	-94.16
215.08	-67.24
215.459	-68.05
215.838	-75.43
216.218	-77.96
216.597	-50.56
216.976	-58.08
217.355	-44.72
217.734	-45.68
218.113	-45.64
218.492	-53.17
218.871	-68.48
219.25	-68.38
219.629	-106.35
220.008	-85.1
220.387	-56.6
220.766	-58.83
221.144	-131.82
221.523	-126.54
221.902	-219.49
222.28	-564.08
222.659	-252.07
223.037	-290.61
223.416	-541.87
223.794	-255.15
224.173	-202.49
224.551	-204.3
224.929	-124.9
225.308	-85.07
225.686	-74.09
226.064	-54.35
226.442	-41.49
226.821	-34.74
227.199	-32.18
227.577	-28.69
227.955	-28.37
228.333	-23.83
228.711	-14.52
229.089	-8.45
229.467	-12.65
229.845	-12.04
230.222	-10.18
230.6	-11.2
230.978	-9.64
231.356	-6.38
231.733	-3.97
232.111	-2.06
232.488	0.2
232.866	1.82
233.243	2.06
233.621	1.53
233.998	2.5
234.376	1.48
234.753	1.82
235.13	1.63
235.508	2.79
235.885	3.83
236.262	0.98
236.639	0.27
237.016	-0.8
237.393	1.41
237.77	1.13
238.147	1.78
238.524	2.38
238.901	2.66
239.278	2.16
239.655	2.01
240.032	2.26
240.409	2.57
240.785	2.25
241.162	2.05
241.539	2.58
241.915	3.09
242.292	2.83
242.668	2.91
243.045	3.48
243.421	3.41
243.798	3.66
244.174	3.99
244.551	3.83
244.927	3.73
245.303	3.81
245.679	3.82
246.056	3.74
246.432	3.71
246.808	3.7
247.184	3.63
247.56	3.56
247.936	3.29
248.312	3.09
248.688	3.27
249.064	3.24
249.44	3.32
249.815	3
250.191	3.37
250.567	3.16
250.943	2.79
251.318	2.74
251.694	2.68
252.069	2.53
252.445	2.8
252.82	3.02
253.196	3.02
253.571	3.02
253.947	3.07
254.322	2.9
254.697	2.75
255.073	2.42
255.448	2.11
255.823	2.25
256.198	2.5
256.573	2.6
256.948	2.79
257.323	2.73
257.698	2.93
258.073	2.83
258.448	3
258.823	3.19
259.198	3.27
259.573	3.08
259.948	2.96
260.322	2.95
260.697	2.91
261.072	2.84
261.446	2.92
261.821	2.98
262.195	3.08
262.57	3.05
262.944	3.25
263.319	3.49
263.693	3.53
264.067	3.52
264.442	3.52
264.816	3.43
265.19	3.23
265.564	3.1
265.938	3.02
266.313	3.02
266.687	3.03
267.061	3.15
267.435	3.09
267.809	3.34
268.183	3.2
268.556	3.02
268.93	2.95
269.304	2.86
269.678	2.89
270.051	2.9
270.425	2.94
270.799	3.04
271.172	3.03
271.546	2.97
271.919	2.88
272.293	2.67
272.666	2.8
273.04	2.89
273.413	2.83
273.787	2.91
274.16	2.9
274.533	2.85
274.906	2.77
275.279	2.95
275.653	2.81
276.026	2.87
276.399	2.98
276.772	3.01
277.145	2.87
277.518	2.78
277.891	2.79
278.263	2.72
278.636	2.49
279.009	2.48
279.382	2.82
279.755	2.73
280.127	2.94
280.5	2.84
280.872	2.88
281.245	2.9
281.617	2.84
281.99	2.84
282.362	2.89
282.735	2.79
283.107	2.91
283.479	2.9
283.852	2.84
284.224	2.91
284.596	2.92
284.968	2.99
285.34	3.01
285.713	3.06
286.085	3.17
286.457	3.27
286.829	3.27
287.201	3.2
287.572	3.25
287.944	3.17
288.316	3.16
288.688	3.09
289.06	3.16
289.431	3.22
289.803	3.31
290.175	3.26
290.546	3.33
290.918	3.26
291.289	3.46
291.661	3.56
292.032	3.65
292.403	3.59
292.775	3.54
293.146	3.5
293.517	3.47
293.889	3.63
294.26	3.64
294.631	3.6
295.002	3.46
295.373	3.57
295.744	3.61
296.115	3.63
296.486	3.67
296.857	3.6
297.228	3.61
297.599	3.61
297.97	3.67
298.34	3.69
298.711	3.66
299.082	3.59
299.452	3.53
299.823	3.44
300.194	3.56
300.564	3.69
300.935	3.82
301.305	3.86
301.676	3.65
302.046	3.68
302.416	3.92
302.787	3.99
303.157	4
303.527	4.06
303.897	4.02
304.267	4.12
304.637	4.25
305.008	4.35
305.378	4.35
305.748	4.36
306.117	4.43
306.487	4.53
306.857	4.65
307.227	4.73
307.597	4.85
307.967	4.83
308.336	4.99
308.706	5.01
309.076	5
309.445	5.16
309.815	5.23
310.184	5.14
310.554	5.24
310.923	5.21
311.293	5.26
311.662	5.35
312.031	5.3
312.401	5.28
312.77	5.38
313.139	5.52
313.508	5.58
313.877	5.54
314.246	5.58
314.616	5.55
314.985	5.65
315.353	5.59
315.722	5.74
316.091	5.66
316.46	5.6
316.829	5.67
317.198	5.68
317.567	5.6
317.935	5.58
318.304	5.53
318.672	5.62
319.041	5.76
319.41	5.87
319.778	5.92
320.147	6
320.515	5.85
320.883	5.85
321.252	5.91
321.62	5.95
321.988	6.16
322.357	6.11
322.725	6.09
323.093	6.33
323.461	6.36
323.829	6.36
324.197	6.49
324.565	6.52
324.933	6.49
325.301	6.58
325.669	6.69
326.037	6.71
326.405	6.82
326.772	6.8
327.14	6.84
327.508	6.94
327.875	7.02
328.243	7.03
328.61	7.06
328.978	7.12
329.346	7.2
329.713	6.96
330.08	7.07
330.448	6.96
330.815	6.87
331.182	6.91
331.55	6.96
331.917	7
332.284	7
332.651	7.16
333.018	7.24
333.385	7.25
333.752	7.3
334.119	7.3
334.486	7.13
334.853	7.11
335.22	7.1
335.587	7.17
335.954	7.25
336.32	7.19
336.687	7.27
337.054	7.33
337.42	7.42
337.787	7.47
338.153	7.49
338.52	7.47
338.886	7.38
339.253	7.37
339.619	7.29
339.986	7.31
340.352	7.32
340.718	7.33
341.084	7.29
341.451	7.45
341.817	7.51
342.183	7.58
342.549	7.6
342.915	7.78
343.281	7.87
343.647	7.88
344.013	7.92
344.379	7.75
344.745	7.74
345.11	7.75
345.476	7.78
345.842	7.9
346.208	7.93
346.573	8
346.939	8.05
347.304	8.14
347.67	8.17
348.035	8.21
348.401	8.22
348.766	8.3
349.132	8.19
349.497	8.12
349.862	8.2
350.228	8.3
350.593	8.09
350.958	7.91
351.323	7.89
351.688	7.88
352.053	8.06
352.418	8.14
352.783	8.21
353.148	8.2
353.513	8.18
353.878	8.23
354.243	8.3
354.608	8.37
354.972	8.43
355.337	8.46
355.702	8.44
356.066	8.4
356.431	8.38
356.795	8.41
357.16	8.37
357.524	8.37
357.889	8.29
358.253	8.31
358.618	8.33
358.982	8.33
359.346	8.28
359.71	8.27
360.075	8.17
360.439	8.16
360.803	8.15
361.167	8.1
361.531	8.08
361.895	7.96
362.259	7.84
362.623	7.8
362.987	7.74
363.351	7.71
363.714	7.71
364.078	7.68
364.442	7.67
364.806	7.71
365.169	7.64
365.533	7.65
365.896	7.67
366.26	7.62
366.623	7.56
366.987	7.6
367.35	7.5
367.714	7.5
368.077	7.41
368.44	7.26
368.803	7.24
369.167	7.15
369.53	7.13
369.893	7.17
370.256	7.09
370.619	7.08
370.982	6.94
371.345	6.88
371.708	6.78
372.071	6.66
372.434	6.54
372.797	6.53
373.159	6.45
373.522	6.44
373.885	6.41
374.247	6.36
374.61	6.3
374.973	6.27
375.335	6.18
375.698	6.16
376.06	6.18
376.423	6.16
376.785	6.15
377.147	6.11
377.51	6.05
377.872	6
378.234	5.95
378.596	6
378.958	5.91
379.321	5.92
379.683	5.9
380.045	5.91
380.407	5.83
380.769	5.81
381.13	5.73
381.492	5.7
381.854	5.76
382.216	5.77
382.578	5.76
382.939	5.75
383.301	5.66
383.663	5.59
384.024	5.56
384.386	5.5
384.747	5.51
385.109	5.46
385.47	5.42
385.832	5.38
386.193	5.34
386.554	5.33
386.916	5.29
387.277	5.24
387.638	5.23
387.999	5.21
388.36	5.17
388.721	5.17
389.082	5.21
389.443	5.12
389.804	5.02
390.165	4.96
390.526	4.89
390.887	4.88
391.248	4.92
391.609	4.87
391.969	4.86
392.33	4.81
392.691	4.78
393.051	4.75
393.412	4.73
393.772	4.67
394.133	4.62
394.493	4.55
394.854	4.5
395.214	4.44
395.574	4.41
395.935	4.36
396.295	4.28
396.655	4.2
397.015	4.16
397.376	4.16
397.736	4.15
398.096	4.14
398.456	4.14
398.816	4.08
399.176	4.08
399.535	4.05
399.895	4.04
400.255	3.96
400.615	3.94
400.975	3.92
401.334	3.88
401.694	3.86
402.054	3.87
402.413	3.87
402.773	3.82
403.132	3.78
403.492	3.77
403.851	3.78
404.211	3.73
404.57	3.72
404.929	3.7
405.288	3.66
405.648	3.65
406.007	3.59
406.366	3.6
406.725	3.59
407.084	3.58
407.443	3.56
407.802	3.6
408.161	3.59
408.52	3.56
408.879	3.55
409.238	3.58
409.596	3.58
409.955	3.59
410.314	3.64
410.673	3.65
411.031	3.61
411.39	3.6
411.748	3.63
412.107	3.64
412.465	3.64
412.824	3.63
413.182	3.61
413.54	3.62
413.899	3.58
414.257	3.57
414.615	3.53
414.974	3.52
415.332	3.5
415.69	3.47
416.048	3.45
416.406	3.43
416.764	3.38
417.122	3.36
417.48	3.33
417.838	3.3
418.195	3.29
418.553	3.28
418.911	3.24
419.269	3.21
419.626	3.18
419.984	3.16
420.342	3.13
420.699	3.11
421.057	3.11
421.414	3.09
421.772	3.07
422.129	3.06
422.486	3.04
422.844	3.03
423.201	3.02
423.558	3.02
423.915	3
424.273	3.01
424.63	2.98
424.987	2.98
425.344	2.98
425.701	2.96
426.058	2.95
426.415	2.95
426.772	2.96
427.128	2.94
427.485	2.93
427.842	2.94
428.199	2.94
428.555	2.92
428.912	2.94
429.269	2.92
429.625	2.91
429.982	2.89
430.338	2.87
430.695	2.87
431.051	2.88
431.407	2.9
431.764	2.9
432.12	2.88
432.476	2.86
432.832	2.82
433.189	2.83
433.545	2.83
433.901	2.83
434.257	2.81
434.613	2.84
434.969	2.85
435.325	2.85
435.681	2.85
436.036	2.85
436.392	2.85
436.748	2.83
437.104	2.83
437.459	2.83
437.815	2.84
438.171	2.85
438.526	2.83
438.882	2.83
439.237	2.85
439.593	2.87
439.948	2.87
440.304	2.89
440.659	2.89
441.014	2.89
441.369	2.88
441.725	2.87
442.08	2.86
442.435	2.84
442.79	2.84
443.145	2.84
443.5	2.82
443.855	2.82
444.21	2.82
444.565	2.83
444.92	2.84
445.275	2.83
445.629	2.81
445.984	2.8
446.339	2.8
446.693	2.77
447.048	2.75
447.403	2.74
447.757	2.73
448.112	2.72
448.466	2.69
448.82	2.7
449.175	2.71
449.529	2.7
449.883	2.7
450.238	2.67
450.592	2.67
450.946	2.66
451.3	2.64
451.654	2.63
452.008	2.63
452.362	2.61
452.716	2.61
453.07	2.62
453.424	2.63
453.778	2.62
454.132	2.62
454.486	2.63
454.839	2.63
455.193	2.62
455.547	2.63
455.9	2.65
456.254	2.65
456.607	2.64
456.961	2.63
457.314	2.63
457.668	2.66
458.021	2.67
458.375	2.68
458.728	2.7
459.081	2.71
459.434	2.69
459.787	2.71
460.141	2.7
460.494	2.7
460.847	2.71
461.2	2.71
461.553	2.71
461.906	2.71
462.259	2.74
462.611	2.75
462.964	2.76
463.317	2.76
463.67	2.77
464.022	2.79
464.375	2.78
464.728	2.79
465.08	2.8
465.433	2.8
465.785	2.8
466.138	2.81
466.49	2.81
466.843	2.83
467.195	2.83
467.547	2.85
467.899	2.85
468.252	2.84
468.604	2.85
468.956	2.85
469.308	2.86
469.66	2.84
470.012	2.86
470.364	2.85
470.716	2.86
471.068	2.86
471.42	2.86
471.772	2.9
472.123	2.91
472.475	2.93
472.827	2.95
473.178	2.95
473.53	2.93
473.882	2.94
474.233	2.93
474.585	2.92
474.936	2.91
475.288	2.91
475.639	2.94
475.99	2.95
476.342	2.94
476.693	2.94
477.044	2.94
477.395	2.92
477.746	2.9
478.097	2.87
478.448	2.87
478.8	2.86
479.15	2.83
479.501	2.81
479.852	2.78
480.203	2.75
480.554	2.77
480.905	2.79
481.255	2.79
481.606	2.8
481.957	2.8
482.307	2.79
482.658	2.79
483.009	2.78
483.359	2.78
483.709	2.79
484.06	2.79
484.41	2.8
484.761	2.8
485.111	2.81
485.461	2.82
485.811	2.83
486.162	2.85
486.512	2.86
486.862	2.88
487.212	2.89
487.562	2.91
487.912	2.91
488.262	2.91
488.612	2.93
488.961	2.93
489.311	2.94
489.661	2.96
490.011	2.97
490.36	3
490.71	3.01
491.06	3.02
491.409	3.05
491.759	3.07
492.108	3.09
492.458	3.11
492.807	3.11
493.157	3.13
493.506	3.14
493.855	3.15
494.204	3.15
494.554	3.18
494.903	3.21
495.252	3.22
495.601	3.25
495.95	3.29
496.299	3.32
496.648	3.36
496.997	3.4
497.346	3.44
497.695	3.46
498.043	3.49
498.392	3.5
498.741	3.51
499.09	3.54
499.438	3.58
499.787	3.6
500.135	3.67
500.484	3.71
500.832	3.76
501.181	3.81
501.529	3.87
501.878	3.92
502.226	3.99
502.574	4.04
502.923	4.08
503.271	4.1
503.619	4.16
503.967	4.23
504.315	4.27
504.663	4.35
505.011	4.43
505.359	4.51
505.707	4.59
506.055	4.68
506.403	4.76
506.751	4.82
507.098	4.91
507.446	4.98
507.794	5.04
508.141	5.11
508.489	5.2
508.837	5.27
509.184	5.35
509.531	5.42
509.879	5.53
510.226	5.6
510.574	5.72
510.921	5.79
511.268	5.88
511.616	5.97
511.963	6.04
512.31	6.14
512.657	6.24
513.004	6.33
513.351	6.46
513.698	6.55
514.045	6.67
514.392	6.78
514.739	6.88
515.086	7.01
515.432	7.11
515.779	7.2
516.126	7.35
516.473	7.48
516.819	7.59
517.166	7.69
517.512	7.81
517.859	7.88
518.205	8.01
518.552	8.12
518.898	8.25
519.245	8.36
519.591	8.47
519.937	8.57
520.283	8.71
520.629	8.83
520.976	8.98
521.322	9.1
521.668	9.26
522.014	9.4
522.36	9.56
522.706	9.76
523.052	9.96
523.398	10.16
523.743	10.37
524.089	10.57
524.435	10.79
524.781	11.01
525.126	11.2
525.472	11.37
525.817	11.55
526.163	11.69
526.509	11.86
526.854	12
527.199	12.15
527.545	12.28
527.89	12.4
528.235	12.54
528.581	12.7
528.926	12.85
529.271	13.01
529.616	13.17
529.961	13.32
530.306	13.47
530.651	13.62
530.996	13.8
531.341	13.99
531.686	14.19
532.031	14.36
532.376	14.57
532.721	14.78
533.065	14.99
533.41	15.23
533.755	15.45
534.099	15.7
534.444	15.94
534.788	16.17
535.133	16.43
535.477	16.69
535.822	16.96
536.166	17.22
536.51	17.53
536.855	17.82
537.199	18.12
537.543	18.47
537.887	18.8
538.231	19.14
538.576	19.48
538.92	19.8
539.264	20.12
539.608	20.43
539.951	20.72
540.295	20.99
540.639	21.25
540.983	21.49
541.327	21.73
541.671	21.99
542.014	22.27
542.358	22.54
542.701	22.79
543.045	23.01
543.389	23.28
543.732	23.55
544.075	23.82
544.419	24.11
544.762	24.39
545.105	24.68
545.449	24.99
545.792	25.3
546.135	25.63
546.478	25.99
546.821	26.35
547.165	26.71
547.508	27.06
547.851	27.43
548.194	27.83
548.536	28.23
548.879	28.62
549.222	29.01
549.565	29.35
549.908	29.73
550.25	30.13
550.593	30.53
550.936	30.92
551.278	31.32
551.621	31.69
551.963	32.07
552.306	32.48
552.648	32.83
552.991	33.2
553.333	33.54
553.675	33.86
554.017	34.2
554.36	34.54
554.702	34.92
555.044	35.21
555.386	35.53
555.728	35.89
556.07	36.26
556.412	36.54
556.754	36.88
557.096	37.25
557.438	37.55
557.78	37.87
558.121	38.21
558.463	38.53
558.805	38.89
559.147	39.2
559.488	39.5
559.83	39.81
560.171	40.05
560.513	40.32
560.854	40.67
561.196	40.97
561.537	41.27
561.878	41.57
562.22	41.94
562.561	42.21
562.902	42.5
563.243	42.73
563.584	43.04
563.925	43.28
564.266	43.47
564.607	43.74
564.948	44.02
565.289	44.26
565.63	44.53
565.971	44.7
566.312	44.96
566.653	45.17
566.993	45.4
567.334	45.64
567.675	45.91
568.015	46.11
568.356	46.33
568.696	46.56
569.037	46.74
569.377	46.96
569.718	47.18
570.058	47.38
570.398	47.63
570.739	47.8
571.079	48.04
571.419	48.25
571.759	48.46
572.099	48.63
572.439	48.78
572.779	48.97
573.119	49.19
573.459	49.4
573.799	49.55
574.139	49.75
574.479	49.95
574.819	50.14
575.158	50.3
575.498	50.46
575.838	50.62
576.177	50.81
576.517	51.01
576.856	51.19
577.196	51.37
577.535	51.56
577.875	51.78
578.214	51.97
578.553	52.18
578.893	52.32
579.232	52.53
579.571	52.68
579.91	52.82
580.25	52.93
580.589	53.05
580.928	53.2
581.267	53.32
581.606	53.55
581.945	53.69
582.283	53.9
582.622	54.03
582.961	54.22
583.3	54.33
583.639	54.46
583.977	54.61
584.316	54.61
584.654	54.64
584.993	54.71
585.332	54.83
585.67	54.95
586.008	55.12
586.347	55.17
586.685	55.32
587.024	55.43
587.362	55.63
587.7	55.73
588.038	55.94
588.376	56.09
588.715	56.14
589.053	56.22
589.391	56.31
589.729	56.38
590.067	56.39
590.404	56.49
590.742	56.55
591.08	56.65
591.418	56.88
591.756	57.04
592.093	57.26
592.431	57.43
592.769	57.49
593.106	57.58
593.444	57.68
593.781	57.75
594.119	57.85
594.456	57.89
594.793	58.04
595.131	58.06
595.468	58.06
595.805	58.13
596.143	58.16
596.48	58.2
596.817	58.29
597.154	58.44
597.491	58.52
597.828	58.57
598.165	58.58
598.502	58.56
598.839	58.58
599.176	58.61
599.512	58.6
599.849	58.66
600.186	58.77
600.523	58.86
600.859	59
601.196	59.08
601.532	59.21
601.869	59.25
602.205	59.29
602.542	59.44
602.878	59.46
603.215	59.56
603.551	59.59
603.887	59.67
604.223	59.65
604.56	59.62
604.896	59.71
605.232	59.74
605.568	59.81
605.904	59.87
606.24	59.92
606.576	59.98
606.912	60.08
607.248	60.05
607.583	60.12
607.919	60.1
608.255	60.18
608.591	60.22
608.926	60.29
609.262	60.39
609.597	60.42
609.933	60.55
610.268	60.58
610.604	60.72
610.939	60.66
611.275	60.75
611.61	60.89
611.945	60.9
612.281	61.03
612.616	61.13
612.951	61.25
613.286	61.39
613.621	61.45
613.956	61.44
614.291	61.55
614.626	61.56
614.961	61.62
615.296	61.53
615.631	61.55
615.966	61.59
616.3	61.5
616.635	61.51
616.97	61.58
617.304	61.61
617.639	61.54
617.973	61.67
618.308	61.63
618.642	61.7
618.977	61.78
619.311	61.76
619.646	61.73
619.98	61.74
620.314	61.6
620.648	61.59
620.983	61.59
621.317	61.71
621.651	61.84
621.985	61.84
622.319	61.94
622.653	61.92
622.987	61.93
623.321	62.09
623.655	62.11
623.988	62.17
624.322	62.19
624.656	62.23
624.99	62.27
625.323	62.37
625.657	62.39
625.99	62.44
626.324	62.53
626.657	62.56
626.991	62.51
627.324	62.56
627.658	62.67
627.991	62.76
628.324	62.78
628.657	62.74
628.991	62.82
629.324	62.93
629.657	63.01
629.99	63.01
630.323	63.03
630.656	63.06
630.989	63.03
631.322	63.12
631.655	63.23
631.987	63.26
632.32	63.33
632.653	63.36
632.986	63.38
633.318	63.26
633.651	63.3
633.984	63.36
634.316	63.36
634.649	63.32
634.981	63.41
635.313	63.34
635.646	63.36
635.978	63.32
636.31	63.27
636.643	63.19
636.975	63.25
637.307	63.26
637.639	63.34
637.971	63.27
638.303	63.25
638.635	63.23
638.967	63.31
639.299	63.24
639.631	63.26
639.963	63.26
640.295	63.47
640.626	63.43
640.958	63.42
641.29	63.57
641.621	63.58
641.953	63.5
642.285	63.44
642.616	63.43
642.948	63.45
643.279	63.42
643.61	63.5
643.942	63.46
644.273	63.41
644.604	63.37
644.936	63.44
645.267	63.47
645.598	63.48
645.929	63.48
646.26	63.53
646.591	63.62
646.922	63.61
647.253	63.47
647.584	63.46
647.915	63.59
648.245	63.43
648.576	63.44
648.907	63.36
649.238	63.5
649.568	63.54
649.899	63.69
650.229	63.93
650.56	63.92
650.89	63.95
651.221	64.08
651.551	64.09
651.882	63.96
652.212	63.96
652.542	63.99
652.872	64.01
653.203	64
653.533	63.99
653.863	64.07
654.193	64.22
654.523	64.32
654.853	64.24
655.183	64.34
655.513	64.39
655.843	64.43
656.172	64.34
656.502	64.41
656.832	64.43
657.162	64.34
657.491	64.4
657.821	64.49
658.15	64.54
658.48	64.53
658.809	64.74
659.139	64.88
659.468	64.83
659.798	64.88
660.127	64.86
660.456	64.78
660.785	64.86
661.115	64.78
661.444	64.81
661.773	64.83
662.102	64.75
662.431	64.68
662.76	64.77
663.089	64.76
663.418	64.78
663.747	64.81
664.076	64.87
664.404	64.82
664.733	64.61
665.062	64.59
665.39	64.65
665.719	64.58
666.048	64.46
666.376	64.56
666.705	64.61
667.033	64.68
667.362	64.82
667.69	64.67
668.018	64.75
668.347	64.78
668.675	64.81
669.003	64.91
669.331	64.99
669.659	65.08
669.987	65.21
670.315	65.22
670.643	65.15
670.971	64.96
671.299	65.06
671.627	65.25
671.955	65.24
672.283	65.18
672.61	65.23
672.938	65.29
673.266	65.3
673.593	65.23
673.921	65.29
674.249	65.12
674.576	65.21
674.904	65.3
675.231	65.28
675.558	65.27
675.886	65.26
676.213	65.18
676.54	65.19
676.867	65.21
677.195	65.16
677.522	65.07
677.849	65.12
678.176	65.16
678.503	65.25
678.83	65.15
679.157	65.06
679.484	65
679.81	64.98
680.137	64.95
680.464	64.9
680.791	64.88
681.117	64.99
681.444	65.09
681.771	65
682.097	64.95
682.424	65.03
682.75	65.06
683.077	65.21
683.403	65.15
683.729	65.09
684.056	65.18
684.382	65.37
684.708	65.45
685.034	65.42
685.36	65.36
685.686	65.4
686.012	65.63
686.339	65.65
686.664	65.63
686.99	65.59
687.316	65.63
687.642	65.49
687.968	65.52
688.294	65.37
688.619	65.32
688.945	65.36
689.271	65.21
689.596	65.35
689.922	65.27
690.247	65.27
690.573	65.33
690.898	65.32
691.224	65.36
691.549	65.38
691.874	65.33
692.2	65.23
692.525	65.33
692.85	65.34
693.175	65.29
693.5	65.21
693.825	65.31
694.15	65.35
694.475	65.58
694.8	65.57
695.125	65.61
695.45	65.65
695.775	65.62
696.099	65.68
696.424	65.53
696.749	65.61
697.073	65.56
697.398	65.59
697.723	65.64
698.047	65.56
698.372	65.58
698.696	65.68
699.02	65.72
699.345	65.77
699.669	65.7
699.993	65.7
700.318	65.64
700.642	65.47
700.966	65.44
701.29	65.42
701.614	65.33
701.938	65.35
702.262	65.52
702.586	65.52
702.91	65.58
703.234	65.69
703.557	65.58
703.881	65.66
704.205	65.62
704.529	65.56
704.852	65.49
705.176	65.55
705.499	65.5
705.823	65.53
706.146	65.59
706.47	65.65
706.793	65.84
707.117	66.06
707.44	66.2
707.763	66.29
708.086	66.19
708.409	66.33
708.733	66.35
709.056	66.13
709.379	66.25
709.702	66.09
710.025	65.93
710.348	66.03
710.671	66
710.993	66.14
711.316	66.07
711.639	66.24
711.962	66.16
712.284	66.09
712.607	66.04
712.93	65.9
713.252	65.82
713.575	65.89
713.897	65.97
714.22	66.11
714.542	66.21
714.864	66.15
715.187	66.14
715.509	66.11
715.831	66.24
716.153	66.27
716.475	66.35
716.798	66.34
717.12	66.36
717.442	66.45
717.764	66.41
718.085	66.41
718.407	66.41
718.729	66.45
719.051	66.48
719.373	66.27
719.695	66.22
720.016	66.27
720.338	66.2
720.659	66.14
720.981	65.92
721.302	65.89
721.624	65.91
721.945	66.03
722.267	66
722.588	66.11
722.909	65.97
723.231	66.05
723.552	66.28
723.873	66.37
724.194	66.12
724.515	65.89
724.836	65.84
725.157	65.82
725.478	65.46
725.799	65.61
726.12	65.82
726.441	65.76
726.762	65.94
727.083	65.75
727.403	65.63
727.724	65.74
728.045	65.75
728.365	66.04
728.686	66.03
729.006	66.04
729.327	65.93
729.647	66.03
729.967	66.16
730.288	66.2
730.608	66.06
730.928	66.29
731.249	66.29
731.569	66.43
731.889	66.32
732.209	66.41
732.529	66.47
732.849	66.51
733.169	66.63
733.489	66.53
733.809	66.73
734.129	66.81
734.448	66.81
734.768	66.62
735.088	66.43
735.408	66.4
735.727	66.52
736.047	66.41
736.366	66.26
736.686	66.34
737.005	65.87
737.325	65.88
737.644	65.75
737.963	65.63
738.283	65.55
738.602	65.72
738.921	65.85
739.24	65.62
739.56	65.51
739.879	65.45
740.198	65.68
740.517	65.7
740.836	65.65
741.155	65.6
741.473	65.64
741.792	65.72
742.111	65.76
742.43	65.54
742.748	65.42
743.067	65.5
743.386	65.29
743.704	65.7
744.023	65.69
744.341	65.8
744.66	65.87
744.978	65.83
745.297	65.83
745.615	65.79
745.933	65.68
746.252	65.88
746.57	65.88
746.888	65.55
747.206	65.48
747.524	65.45
747.842	65.45
748.16	65.55
748.478	65.48
748.796	65.07
749.114	65.04
749.432	65.41
749.749	65.75
750.067	65.58
750.385	65.42
750.703	65.36
751.02	65.46
751.338	65.75
751.655	65.68
751.973	65.87
752.29	65.92
752.608	66.34
752.925	66.12
753.242	66.31
753.56	66.64
753.877	66.63
754.194	66.93
754.511	67.06
754.828	67.16
755.145	67.05
755.462	67.27
755.779	67.56
756.096	67.48
756.413	67.19
756.73	67.42
757.047	67.63
757.364	67.84
757.68	67.64
757.997	67.51
758.314	67.76
758.63	67.7
758.947	67.68
759.264	67.37
759.58	67.54
759.896	67.43
760.213	67.35
760.529	67.42
760.846	67.15
761.162	67.23
761.478	67.38
761.794	67.57
762.11	67.61
762.426	67.53
762.743	67.37
763.059	67.32
763.375	67.1
763.69	66.98
764.006	66.95
764.322	67.07
764.638	67.25
764.954	67.48
765.27	67.24
765.585	67.28
765.901	67.48
766.216	67.52
766.532	67.47
766.848	67.38
767.163	67.54
767.478	67.61
767.794	67.55
768.109	67.43
768.424	67.23
768.74	67.3
769.055	67.27
769.37	67.46
769.685	67.59
770	67.95
770.315	67.95
770.63	67.9
770.945	67.75
771.26	67.66
771.575	67.27
771.89	67.12
772.205	67.43
772.52	67.16
772.834	67.08
773.149	67.03
773.464	66.68
773.778	65.82
774.093	65.91
774.407	65.88
774.722	65.77
775.036	65.68
775.351	65.09
775.665	64.59
775.979	64.58
776.293	64.1
776.608	64.12
776.922	63.97
777.236	63.88
777.55	63.95
777.864	64.22
778.178	64.65
778.492	64.99
778.806	64.64
779.12	64.9
779.434	65.07
779.747	65.28
780.061	65.55
780.375	66.26
780.689	65.73
781.002	65.53
781.316	65.71
781.629	65.95
781.943	66.61
782.256	66.83
782.57	66.5
782.883	66.85
783.196	66.19
783.51	66.73
783.823	67.09
784.136	67.17
784.449	66.82
784.762	66.8
785.075	66.36
785.388	66.71
785.701	66.29
786.014	66.14
786.327	65.64
786.64	65.8
786.953	65.79
787.266	66.05
787.578	65.7
787.891	65.23
788.204	64.92
788.516	64.94
788.829	65.29
789.141	65.81
789.454	65.45
789.766	65.96
790.079	65.74
790.391	65.41
790.703	65.34
791.016	65.62
791.328	65.16
791.64	65.55
791.952	65.27
792.264	65.53
792.576	65.78
792.888	66.47
793.2	66.44
793.512	66.83
793.824	67.22
794.136	67.61
794.448	67.45
794.76	67.6
795.071	67.89
795.383	67.48
795.695	67.32
796.006	67.82
796.318	67.8
796.629	67.78
796.941	68.27
797.252	68.14
797.564	67.65
797.875	67.68
798.186	67.59
798.497	66.76
798.809	66.63
799.12	66.17
799.431	65.97
799.742	65.9
800.053	65.71
800.364	65.33
800.675	65.55
800.986	65.75
801.297	65.78
801.608	65.53
801.918	65.49
802.229	64.95
802.54	65.47
802.851	65.51
803.161	65.84
803.472	65.32
803.782	65.26
804.093	65.61
804.403	65.29
804.714	65.66
805.024	66.28
805.334	65.81
805.645	65.75
805.955	65.99
806.265	66.01
806.575	65.21
806.885	65.74
807.195	66.34
807.505	66.23
807.815	66.3
808.125	66.17
808.435	66.72
808.745	66.57
809.055	65.82
809.365	65.83
809.674	65.36
809.984	65.8
810.294	66.27
810.603	66.1
810.913	67.47
811.222	66.7
811.532	66.98
811.841	67.15
812.151	67.27
812.46	67.42
812.769	66.89
813.079	67.03
813.388	66.8
813.697	65.87
814.006	66.81
814.315	67.23
814.624	66.8
814.933	66.39
815.242	66.93
815.551	67.75
815.86	67.59
816.169	67.92
816.478	67.96
816.786	68.25
817.095	68.18
817.404	67.3
817.712	67.71
818.021	67.96
818.33	68.91
818.638	68.68
818.947	67.94
819.255	68.04
819.563	67.86
819.872	67.49
820.18	67.35
820.488	67.08
820.796	66.77
821.105	66.83
821.413	66.92
821.721	66.86
822.029	66.64
822.337	66.62
822.645	66.64
822.953	66.71
823.26	66.59
823.568	66.56
823.876	66.44
824.184	66.59
824.491	66.47
824.799	66.29
825.107	66.41
825.414	66.65
825.722	66.75
826.029	66.99
826.337	67.03
826.644	67.17
826.951	67.1
827.259	67.29
827.566	67.44
827.873	67.43
828.18	67.58
828.488	67.76
828.795	67.85
829.102	67.92
829.409	67.52
829.716	67.29
830.023	67.47
830.329	67.42
830.636	67.18
830.943	67.33
831.25	67.16
831.557	66.96
831.863	66.5
832.17	66.39
832.476	65.91
832.783	66.26
833.089	66.43
833.396	66.61
833.702	66.45
834.009	66.09
834.315	66.75
834.621	66.39
834.928	66.15
835.234	66.29
835.54	66.3
835.846	66.93
836.152	67.08
836.458	66.98
836.764	67.45
837.07	67.52
837.376	67.96
837.682	68.44
837.988	68.97
838.293	68.88
838.599	68.63
838.905	68.7
839.211	68.92
839.516	68.67
839.822	68.98
840.127	69.11
840.433	69.2
840.738	67.75
841.044	67.61
841.349	67.89
841.654	67.99
841.959	67.64
842.265	66.6
842.57	67.31
842.875	67.26
843.18	66.53
843.485	65.74
843.79	63.74
844.095	63
844.4	62.66
844.705	63.36
845.01	64.74
845.315	64.96
845.619	64.19
845.924	63.64
846.229	63.59
846.533	63.32
846.838	63.04
847.142	64.21
847.447	65.13
847.751	65.2
848.056	64.31
848.36	65.51
848.664	67.14
848.969	67.9
849.273	69.34
849.577	71.78
849.881	74.12
850.185	76.51
850.489	78.15
850.794	78.24
851.097	78.63
851.401	76.74
851.705	77.46
852.009	77.71
852.313	78.54
852.617	77.37
852.92	78.28
853.224	79.99
853.528	78.99
853.831	78.7
854.135	77.43
854.438	77.91
854.742	76.15
855.045	74.31
855.349	71.91
855.652	71.91
855.955	71.39
856.259	69.02
856.562	68.25
856.865	68.41
857.168	67.24
857.471	66.26
857.774	65.21
858.077	63.86
858.38	63.39
858.683	63.4
858.986	63.39
859.289	63.47
859.592	64.89
859.894	65.45
860.197	65.17
860.5	65.7
860.802	63.81
861.105	63.11
861.407	64.25
861.71	65.39
862.012	63.73
862.315	62.66
862.617	61.96
862.919	59.97
863.222	58.44
863.524	59.37
863.826	60.26
864.128	61.53
864.43	61.48
864.732	62.07
865.034	62.1
865.336	62.89
865.638	62.06
865.94	60.44
866.242	61.51
866.544	61.41
866.846	62.16
867.147	66.6
867.449	69.14
867.751	67.36
868.052	66.16
868.354	66.69
868.655	67.84
868.957	69.93
869.258	72.11
869.56	73.02
869.861	73.03
870.162	71.96
870.463	72.48
870.765	75.97
871.066	75.87
871.367	77.06
871.668	75.04
871.969	76.6
872.27	76.32
872.571	74.16
872.872	75.78
873.173	76.89
873.473	72.24
873.774	70.69
874.075	71.84
874.376	70.99
874.676	69.87
874.977	66.83
875.277	66.67
875.578	65.12
875.878	64.11
876.179	64.36
876.479	64.2
876.78	62.87
877.08	59.96
877.38	59.13
877.68	57.45
877.981	59.07
878.281	55.77
878.581	55.31
