Data from BA28299_Reflection_00015.txt Node
Date: Mon Nov 18 15:42:55 EST 2019
User: vgr7
Spectrometer: USB2G7710
Scans to average: 3
Trigger mode: 4
Integration Time (sec): 2.000000E-2
Electric dark correction enabled: true
Boxcar width: 10
XAxis mode: Wavelengths
Number of Pixels in Spectrum: 2048
>>>>>Begin Spectral Data<<<<<
177.721	-135.77
178.105	-428.74
178.488	752.97
178.871	-415.15
179.254	186.76
179.636	14.19
180.019	-4.45
180.402	73.08
180.785	419.73
181.168	-295.83
181.55	-113.68
181.933	160.11
182.316	94.13
182.698	109.41
183.081	151.99
183.463	300.42
183.846	245.3
184.228	1565.61
184.611	24166.67
184.993	-554.19
185.376	-415.39
185.758	-686.49
186.14	-395.28
186.522	-345.82
186.904	-161.03
187.287	-416.17
187.669	-114.99
188.051	-134.06
188.433	-112.76
188.815	-132.18
189.197	-132.87
189.579	-129.48
189.961	-161.05
190.342	-133.24
190.724	-103
191.106	-114.66
191.488	-100.46
191.869	-75.86
192.251	-82.91
192.633	-75.97
193.014	-91.98
193.396	-89.53
193.777	-79.81
194.159	-91.08
194.54	-85.92
194.922	-86.69
195.303	-80.84
195.684	-102.96
196.065	-75.86
196.447	-74.18
196.828	-72.18
197.209	-67.48
197.59	-65.16
197.971	-61.34
198.352	-43.71
198.733	-50.94
199.114	-48.57
199.495	-44.72
199.876	-40.42
200.257	-34.66
200.638	-36.33
201.018	-38.83
201.399	-36.22
201.78	-26.46
202.16	-42.69
202.541	-51.22
202.922	-62.37
203.302	-69.56
203.683	-61.82
204.063	-72.67
204.444	-81.91
204.824	-83.48
205.204	-82.74
205.585	-87.1
205.965	-69.57
206.345	-80.87
206.725	-82.69
207.106	-119.35
207.486	-167.33
207.866	-206.36
208.246	-184.3
208.626	-157.62
209.006	-129.08
209.386	-159.47
209.766	-157.16
210.145	-154.38
210.525	-116.58
210.905	-110.77
211.285	-76.58
211.664	-54.06
212.044	-43.17
212.424	-26
212.803	-29.73
213.183	-12.81
213.562	-13.9
213.942	-24.97
214.321	-25.63
214.701	-23.2
215.08	-19.53
215.459	0.43
215.838	18.55
216.218	16.17
216.597	20.97
216.976	23.23
217.355	32.42
217.734	42.3
218.113	53.9
218.492	50.9
218.871	54.6
219.25	39.37
219.629	24.86
220.008	16.51
220.387	-3.46
220.766	-11.25
221.144	-26.88
221.523	-30.72
221.902	-21.51
222.28	-32.44
222.659	-27.87
223.037	-16.99
223.416	-37.48
223.794	-40.23
224.173	-38.25
224.551	-34.41
224.929	-37.2
225.308	-32.54
225.686	-35.28
226.064	-31.58
226.442	-29.72
226.821	-25.64
227.199	-21.9
227.577	-21.79
227.955	-23.77
228.333	-20.61
228.711	-16.4
229.089	-13.14
229.467	-11.42
229.845	-10.53
230.222	-7.32
230.6	-7.61
230.978	-6.84
231.356	-1.69
231.733	-0.85
232.111	0.75
232.488	1.54
232.866	3.21
233.243	2.34
233.621	1.88
233.998	2.86
234.376	3.63
234.753	2.91
235.13	2.24
235.508	2.42
235.885	3.85
236.262	3.22
236.639	2.6
237.016	2.45
237.393	4.09
237.77	4.46
238.147	4.83
238.524	5.43
238.901	5.64
239.278	5.7
239.655	6.13
240.032	5.06
240.409	4.93
240.785	5.32
241.162	5.72
241.539	6.42
241.915	6.26
242.292	5.82
242.668	5.93
243.045	6.15
243.421	6.47
243.798	6.72
244.174	6.76
244.551	6.65
244.927	6.53
245.303	6.55
245.679	6.43
246.056	6.26
246.432	6.2
246.808	6.12
247.184	5.83
247.56	5.6
247.936	5.94
248.312	6.06
248.688	5.8
249.064	5.63
249.44	5.42
249.815	5.49
250.191	5.88
250.567	6.02
250.943	5.75
251.318	5.69
251.694	5.4
252.069	5.52
252.445	5.8
252.82	6.02
253.196	5.62
253.571	5.49
253.947	5.57
254.322	5.64
254.697	5.55
255.073	5.45
255.448	5.57
255.823	5.39
256.198	5.46
256.573	5.58
256.948	5.73
257.323	5.97
257.698	5.96
258.073	5.58
258.448	5.71
258.823	5.88
259.198	5.68
259.573	5.7
259.948	5.55
260.322	5.63
260.697	5.49
261.072	5.48
261.446	5.54
261.821	5.36
262.195	5.46
262.57	5.36
262.944	5.31
263.319	5.26
263.693	5.21
264.067	5.22
264.442	5.17
264.816	5.15
265.19	5.02
265.564	4.84
265.938	4.91
266.313	4.63
266.687	4.41
267.061	4.64
267.435	4.67
267.809	4.66
268.183	4.44
268.556	4.32
268.93	4.47
269.304	4.4
269.678	4.74
270.051	4.56
270.425	4.55
270.799	4.81
271.172	4.84
271.546	4.83
271.919	4.87
272.293	4.99
272.666	4.92
273.04	5
273.413	5.05
273.787	5.09
274.16	5.15
274.533	5.24
274.906	5.18
275.279	5.15
275.653	5.26
276.026	5.23
276.399	5.26
276.772	5.24
277.145	5.32
277.518	5.25
277.891	5.35
278.263	5.47
278.636	5.25
279.009	5.21
279.382	5.24
279.755	5.27
280.127	5.18
280.5	5.4
280.872	5.47
281.245	5.45
281.617	5.63
281.99	5.65
282.362	5.71
282.735	5.69
283.107	5.66
283.479	5.69
283.852	5.69
284.224	5.75
284.596	5.68
284.968	5.69
285.34	5.64
285.713	5.66
286.085	5.71
286.457	5.91
286.829	6.1
287.201	6.24
287.572	6.09
287.944	5.97
288.316	5.86
288.688	5.83
289.06	5.97
289.431	5.89
289.803	5.92
290.175	5.97
290.546	6.09
290.918	6.21
291.289	6.28
291.661	6.45
292.032	6.65
292.403	6.75
292.775	6.88
293.146	6.92
293.517	6.99
293.889	7
294.26	6.98
294.631	6.97
295.002	6.91
295.373	7.08
295.744	7.42
296.115	7.62
296.486	7.63
296.857	7.65
297.228	7.74
297.599	7.72
297.97	7.8
298.34	7.91
298.711	7.97
299.082	7.96
299.452	7.98
299.823	8
300.194	8.09
300.564	8.04
300.935	8.23
301.305	8.3
301.676	8.52
302.046	8.68
302.416	8.82
302.787	9.04
303.157	9.09
303.527	9.08
303.897	9.08
304.267	9.13
304.637	9.24
305.008	9.26
305.378	9.4
305.748	9.43
306.117	9.32
306.487	9.51
306.857	9.71
307.227	9.93
307.597	10.04
307.967	10.04
308.336	10.2
308.706	10.19
309.076	10.25
309.445	10.29
309.815	10.35
310.184	10.34
310.554	10.46
310.923	10.49
311.293	10.55
311.662	10.47
312.031	10.61
312.401	10.74
312.77	10.97
313.139	11.05
313.508	11.2
313.877	11.29
314.246	11.24
314.616	11.22
314.985	11.22
315.353	11.13
315.722	11.3
316.091	11.37
316.46	11.51
316.829	11.58
317.198	11.71
317.567	11.68
317.935	11.69
318.304	11.7
318.672	11.82
319.041	11.94
319.41	12
319.778	11.99
320.147	11.93
320.515	11.89
320.883	12.06
321.252	12.14
321.62	12.33
321.988	12.46
322.357	12.5
322.725	12.7
323.093	12.9
323.461	13.09
323.829	13.2
324.197	13.34
324.565	13.38
324.933	13.42
325.301	13.61
325.669	13.76
326.037	13.78
326.405	13.81
326.772	13.92
327.14	14.18
327.508	14.27
327.875	14.35
328.243	14.37
328.61	14.36
328.978	14.38
329.346	14.45
329.713	14.52
330.08	14.68
330.448	14.46
330.815	14.52
331.182	14.46
331.55	14.55
331.917	14.47
332.284	14.65
332.651	14.68
333.018	14.78
333.385	14.85
333.752	14.97
334.119	15.07
334.486	15.07
334.853	15.11
335.22	15.28
335.587	15.33
335.954	15.51
336.32	15.59
336.687	15.65
337.054	15.73
337.42	15.96
337.787	15.92
338.153	16.13
338.52	16.24
338.886	16.26
339.253	16.26
339.619	16.47
339.986	16.4
340.352	16.41
340.718	16.42
341.084	16.55
341.451	16.61
341.817	16.61
342.183	16.57
342.549	16.63
342.915	16.73
343.281	16.88
343.647	16.84
344.013	16.9
344.379	16.99
344.745	17.02
345.11	16.99
345.476	17.04
345.842	17.06
346.208	17.02
346.573	17.18
346.939	17.21
347.304	17.14
347.67	17.2
348.035	17.22
348.401	17.23
348.766	17.11
349.132	17.19
349.497	17.14
349.862	17.26
350.228	17.24
350.593	17.18
350.958	17.21
351.323	17.26
351.688	17.29
352.053	17.26
352.418	17.31
352.783	17.26
353.148	17.35
353.513	17.39
353.878	17.47
354.243	17.39
354.608	17.46
354.972	17.54
355.337	17.64
355.702	17.79
356.066	17.75
356.431	17.88
356.795	17.89
357.16	18.02
357.524	18.07
357.889	18.08
358.253	18.04
358.618	18.04
358.982	18
359.346	17.96
359.71	17.96
360.075	18.04
360.439	18.1
360.803	18.05
361.167	18.09
361.531	18.07
361.895	18.07
362.259	18.03
362.623	18
362.987	17.96
363.351	17.91
363.714	17.98
364.078	17.92
364.442	17.83
364.806	17.83
365.169	17.76
365.533	17.76
365.896	17.75
366.26	17.65
366.623	17.63
366.987	17.67
367.35	17.72
367.714	17.62
368.077	17.49
368.44	17.5
368.803	17.46
369.167	17.37
369.53	17.37
369.893	17.39
370.256	17.31
370.619	17.23
370.982	17.13
371.345	17.09
371.708	17.02
372.071	16.97
372.434	16.94
372.797	16.96
373.159	16.89
373.522	16.86
373.885	16.93
374.247	16.95
374.61	16.87
374.973	16.72
375.335	16.65
375.698	16.61
376.06	16.61
376.423	16.55
376.785	16.56
377.147	16.55
377.51	16.51
377.872	16.53
378.234	16.47
378.596	16.46
378.958	16.37
379.321	16.36
379.683	16.37
380.045	16.21
380.407	16.1
380.769	16.05
381.13	16
381.492	15.92
381.854	15.87
382.216	15.76
382.578	15.75
382.939	15.64
383.301	15.6
383.663	15.5
384.024	15.42
384.386	15.32
384.747	15.25
385.109	15.2
385.47	15.13
385.832	15.11
386.193	15.08
386.554	15.03
386.916	14.99
387.277	14.91
387.638	14.91
387.999	14.86
388.36	14.78
388.721	14.73
389.082	14.66
389.443	14.58
389.804	14.56
390.165	14.48
390.526	14.47
390.887	14.41
391.248	14.33
391.609	14.3
391.969	14.29
392.33	14.21
392.691	14.12
393.051	14.02
393.412	13.96
393.772	13.81
394.133	13.74
394.493	13.64
394.854	13.55
395.214	13.49
395.574	13.37
395.935	13.33
396.295	13.25
396.655	13.15
397.015	13.07
397.376	12.94
397.736	12.85
398.096	12.73
398.456	12.65
398.816	12.56
399.176	12.41
399.535	12.32
399.895	12.25
400.255	12.15
400.615	12.09
400.975	11.97
401.334	11.94
401.694	11.87
402.054	11.8
402.413	11.75
402.773	11.65
403.132	11.63
403.492	11.54
403.851	11.47
404.211	11.44
404.57	11.38
404.929	11.34
405.288	11.3
405.648	11.27
406.007	11.22
406.366	11.16
406.725	11.16
407.084	11.1
407.443	11.1
407.802	11.07
408.161	11
408.52	10.98
408.879	10.93
409.238	10.89
409.596	10.85
409.955	10.77
410.314	10.76
410.673	10.7
411.031	10.68
411.39	10.61
411.748	10.53
412.107	10.51
412.465	10.46
412.824	10.4
413.182	10.34
413.54	10.29
413.899	10.27
414.257	10.24
414.615	10.22
414.974	10.1
415.332	10.04
415.69	10
416.048	9.93
416.406	9.89
416.764	9.82
417.122	9.78
417.48	9.73
417.838	9.67
418.195	9.63
418.553	9.56
418.911	9.53
419.269	9.51
419.626	9.47
419.984	9.43
420.342	9.39
420.699	9.33
421.057	9.3
421.414	9.24
421.772	9.17
422.129	9.13
422.486	9.11
422.844	9.07
423.201	9.04
423.558	9.01
423.915	8.96
424.273	8.93
424.63	8.88
424.987	8.85
425.344	8.82
425.701	8.77
426.058	8.75
426.415	8.73
426.772	8.68
427.128	8.64
427.485	8.62
427.842	8.58
428.199	8.58
428.555	8.55
428.912	8.54
429.269	8.54
429.625	8.48
429.982	8.43
430.338	8.41
430.695	8.37
431.051	8.36
431.407	8.35
431.764	8.35
432.12	8.34
432.476	8.32
432.832	8.31
433.189	8.33
433.545	8.31
433.901	8.28
434.257	8.29
434.613	8.3
434.969	8.27
435.325	8.28
435.681	8.27
436.036	8.27
436.392	8.25
436.748	8.24
437.104	8.24
437.459	8.24
437.815	8.22
438.171	8.23
438.526	8.24
438.882	8.24
439.237	8.23
439.593	8.23
439.948	8.21
440.304	8.2
440.659	8.18
441.014	8.16
441.369	8.17
441.725	8.14
442.08	8.1
442.435	8.09
442.79	8.06
443.145	8.03
443.5	7.99
443.855	7.97
444.21	7.94
444.565	7.92
444.92	7.91
445.275	7.91
445.629	7.88
445.984	7.85
446.339	7.8
446.693	7.76
447.048	7.73
447.403	7.73
447.757	7.69
448.112	7.67
448.466	7.64
448.82	7.61
449.175	7.59
449.529	7.57
449.883	7.55
450.238	7.54
450.592	7.51
450.946	7.49
451.3	7.47
451.654	7.43
452.008	7.44
452.362	7.4
452.716	7.35
453.07	7.34
453.424	7.34
453.778	7.34
454.132	7.34
454.486	7.34
454.839	7.32
455.193	7.32
455.547	7.32
455.9	7.33
456.254	7.33
456.607	7.33
456.961	7.32
457.314	7.32
457.668	7.32
458.021	7.36
458.375	7.39
458.728	7.41
459.081	7.43
459.434	7.43
459.787	7.44
460.141	7.46
460.494	7.47
460.847	7.49
461.2	7.5
461.553	7.53
461.906	7.54
462.259	7.57
462.611	7.62
462.964	7.66
463.317	7.67
463.67	7.73
464.022	7.75
464.375	7.78
464.728	7.82
465.08	7.88
465.433	7.9
465.785	7.91
466.138	7.95
466.49	7.97
466.843	7.99
467.195	8.03
467.547	8.08
467.899	8.13
468.252	8.15
468.604	8.19
468.956	8.22
469.308	8.25
469.66	8.26
470.012	8.27
470.364	8.32
470.716	8.35
471.068	8.39
471.42	8.42
471.772	8.48
472.123	8.5
472.475	8.5
472.827	8.5
473.178	8.54
473.53	8.54
473.882	8.57
474.233	8.59
474.585	8.59
474.936	8.58
475.288	8.58
475.639	8.57
475.99	8.56
476.342	8.54
476.693	8.54
477.044	8.52
477.395	8.51
477.746	8.47
478.097	8.45
478.448	8.4
478.8	8.38
479.15	8.34
479.501	8.31
479.852	8.29
480.203	8.26
480.554	8.25
480.905	8.25
481.255	8.26
481.606	8.26
481.957	8.26
482.307	8.25
482.658	8.24
483.009	8.25
483.359	8.24
483.709	8.25
484.06	8.25
484.41	8.26
484.761	8.27
485.111	8.29
485.461	8.3
485.811	8.32
486.162	8.33
486.512	8.35
486.862	8.38
487.212	8.39
487.562	8.43
487.912	8.45
488.262	8.46
488.612	8.47
488.961	8.5
489.311	8.53
489.661	8.56
490.011	8.61
490.36	8.64
490.71	8.68
491.06	8.71
491.409	8.76
491.759	8.79
492.108	8.82
492.458	8.86
492.807	8.91
493.157	8.96
493.506	9.02
493.855	9.06
494.204	9.12
494.554	9.19
494.903	9.26
495.252	9.32
495.601	9.42
495.95	9.51
496.299	9.59
496.648	9.7
496.997	9.79
497.346	9.86
497.695	9.98
498.043	10.1
498.392	10.2
498.741	10.3
499.09	10.39
499.438	10.53
499.787	10.66
500.135	10.8
500.484	10.88
500.832	11.02
501.181	11.17
501.529	11.28
501.878	11.44
502.226	11.6
502.574	11.77
502.923	11.92
503.271	12.05
503.619	12.22
503.967	12.36
504.315	12.54
504.663	12.7
505.011	12.86
505.359	13
505.707	13.18
506.055	13.37
506.403	13.57
506.751	13.75
507.098	13.86
507.446	14
507.794	14.17
508.141	14.33
508.489	14.52
508.837	14.71
509.184	14.86
509.531	15
509.879	15.19
510.226	15.35
510.574	15.56
510.921	15.74
511.268	15.93
511.616	16.1
511.963	16.27
512.31	16.46
512.657	16.64
513.004	16.81
513.351	16.99
513.698	17.17
514.045	17.35
514.392	17.61
514.739	17.82
515.086	18.06
515.432	18.26
515.779	18.41
516.126	18.6
516.473	18.8
516.819	19.01
517.166	19.18
517.512	19.36
517.859	19.53
518.205	19.67
518.552	19.84
518.898	19.99
519.245	20.15
519.591	20.33
519.937	20.52
520.283	20.71
520.629	20.93
520.976	21.14
521.322	21.37
521.668	21.57
522.014	21.81
522.36	22.03
522.706	22.28
523.052	22.56
523.398	22.88
523.743	23.17
524.089	23.48
524.435	23.75
524.781	24.03
525.126	24.29
525.472	24.54
525.817	24.78
526.163	25.03
526.509	25.22
526.854	25.39
527.199	25.56
527.545	25.72
527.89	25.89
528.235	26.1
528.581	26.27
528.926	26.45
529.271	26.64
529.616	26.82
529.961	27
530.306	27.19
530.651	27.39
530.996	27.63
531.341	27.83
531.686	28.06
532.031	28.25
532.376	28.48
532.721	28.74
533.065	28.97
533.41	29.19
533.755	29.46
534.099	29.76
534.444	30.01
534.788	30.32
535.133	30.6
535.477	30.85
535.822	31.15
536.166	31.44
536.51	31.75
536.855	32.1
537.199	32.48
537.543	32.87
537.887	33.22
538.231	33.54
538.576	33.89
538.92	34.27
539.264	34.62
539.608	34.93
539.951	35.21
540.295	35.5
540.639	35.81
540.983	36.06
541.327	36.31
541.671	36.61
542.014	36.85
542.358	37.11
542.701	37.34
543.045	37.59
543.389	37.89
543.732	38.18
544.075	38.44
544.419	38.69
544.762	38.95
545.105	39.22
545.449	39.53
545.792	39.85
546.135	40.16
546.478	40.51
546.821	40.87
547.165	41.23
547.508	41.57
547.851	41.94
548.194	42.31
548.536	42.67
548.879	43.01
549.222	43.36
549.565	43.69
549.908	44.1
550.25	44.51
550.593	44.83
550.936	45.18
551.278	45.56
551.621	45.92
551.963	46.24
552.306	46.58
552.648	46.91
552.991	47.23
553.333	47.51
553.675	47.82
554.017	48.14
554.36	48.45
554.702	48.73
555.044	48.94
555.386	49.28
555.728	49.56
556.07	49.87
556.412	50.19
556.754	50.5
557.096	50.71
557.438	50.88
557.78	51.11
558.121	51.36
558.463	51.62
558.805	51.9
559.147	52.23
559.488	52.51
559.83	52.76
560.171	53
560.513	53.28
560.854	53.51
561.196	53.69
561.537	53.89
561.878	54.09
562.22	54.31
562.561	54.4
562.902	54.63
563.243	54.83
563.584	54.99
563.925	55.2
564.266	55.36
564.607	55.51
564.948	55.75
565.289	55.92
565.63	56.06
565.971	56.27
566.312	56.36
566.653	56.49
566.993	56.63
567.334	56.79
567.675	56.92
568.015	57.05
568.356	57.24
568.696	57.39
569.037	57.6
569.377	57.8
569.718	58.01
570.058	58.18
570.398	58.33
570.739	58.49
571.079	58.59
571.419	58.84
571.759	59.04
572.099	59.15
572.439	59.31
572.779	59.41
573.119	59.45
573.459	59.51
573.799	59.65
574.139	59.77
574.479	59.85
574.819	59.93
575.158	60.02
575.498	60.12
575.838	60.21
576.177	60.32
576.517	60.43
576.856	60.55
577.196	60.56
577.535	60.65
577.875	60.7
578.214	60.84
578.553	60.79
578.893	60.9
579.232	61.01
579.571	61.1
579.91	61.27
580.25	61.45
580.589	61.7
580.928	61.82
581.267	61.89
581.606	62.05
581.945	62.17
582.283	62.3
582.622	62.52
582.961	62.64
583.3	62.72
583.639	62.84
583.977	62.85
584.316	63.03
584.654	63.03
584.993	63.16
585.332	63.27
585.67	63.38
586.008	63.37
586.347	63.48
586.685	63.47
587.024	63.44
587.362	63.42
587.7	63.45
588.038	63.49
588.376	63.55
588.715	63.58
589.053	63.68
589.391	63.75
589.729	63.73
590.067	63.77
590.404	63.84
590.742	63.86
591.08	63.98
591.418	63.99
591.756	64.13
592.093	64.14
592.431	64.17
592.769	64.3
593.106	64.4
593.444	64.29
593.781	64.35
594.119	64.39
594.456	64.42
594.793	64.48
595.131	64.5
595.468	64.58
595.805	64.68
596.143	64.72
596.48	64.74
596.817	64.71
597.154	64.74
597.491	64.71
597.828	64.69
598.165	64.71
598.502	64.75
598.839	64.81
599.176	64.92
599.512	64.99
599.849	65.03
600.186	65.12
600.523	65.35
600.859	65.4
601.196	65.45
601.532	65.55
601.869	65.6
602.205	65.65
602.542	65.61
602.878	65.64
603.215	65.53
603.551	65.52
603.887	65.64
604.223	65.65
604.56	65.69
604.896	65.72
605.232	65.75
605.568	65.78
605.904	65.75
606.24	65.77
606.576	65.74
606.912	65.68
607.248	65.65
607.583	65.63
607.919	65.7
608.255	65.76
608.591	65.74
608.926	65.78
609.262	65.79
609.597	65.89
609.933	65.88
610.268	66
610.604	66.12
610.939	66.14
611.275	66.14
611.61	66.19
611.945	66.29
612.281	66.35
612.616	66.29
612.951	66.38
613.286	66.36
613.621	66.4
613.956	66.45
614.291	66.54
614.626	66.58
614.961	66.58
615.296	66.62
615.631	66.61
615.966	66.57
616.3	66.53
616.635	66.5
616.97	66.51
617.304	66.52
617.639	66.48
617.973	66.46
618.308	66.52
618.642	66.66
618.977	66.57
619.311	66.64
619.646	66.79
619.98	66.77
620.314	66.83
620.648	66.81
620.983	66.87
621.317	66.92
621.651	66.98
621.985	67.08
622.319	67.14
622.653	67.18
622.987	67.26
623.321	67.27
623.655	67.27
623.988	67.36
624.322	67.38
624.656	67.43
624.99	67.45
625.323	67.45
625.657	67.36
625.99	67.39
626.324	67.27
626.657	67.26
626.991	67.23
627.324	67.23
627.658	67.23
627.991	67.3
628.324	67.36
628.657	67.31
628.991	67.27
629.324	67.29
629.657	67.38
629.99	67.3
630.323	67.32
630.656	67.43
630.989	67.52
631.322	67.56
631.655	67.58
631.987	67.6
632.32	67.65
632.653	67.64
632.986	67.74
633.318	67.81
633.651	67.84
633.984	67.88
634.316	67.88
634.649	67.93
634.981	67.81
635.313	67.74
635.646	67.83
635.978	67.86
636.31	67.8
636.643	67.71
636.975	67.83
637.307	67.87
637.639	67.84
637.971	67.64
638.303	67.59
638.635	67.61
638.967	67.6
639.299	67.6
639.631	67.69
639.963	67.68
640.295	67.7
640.626	67.61
640.958	67.72
641.29	67.75
641.621	67.78
641.953	67.88
642.285	67.86
642.616	67.85
642.948	67.82
643.279	67.82
643.61	67.8
643.942	67.71
644.273	67.8
644.604	67.82
644.936	67.86
645.267	67.97
645.598	67.98
645.929	67.97
646.26	68.05
646.591	68.02
646.922	67.99
647.253	68.02
647.584	68.31
647.915	68.33
648.245	68.36
648.576	68.28
648.907	68.27
649.238	68.41
649.568	68.27
649.899	68.39
650.229	68.52
650.56	68.65
650.89	68.65
651.221	68.74
651.551	68.66
651.882	68.72
652.212	68.67
652.542	68.61
652.872	68.69
653.203	68.65
653.533	68.66
653.863	68.65
654.193	68.74
654.523	68.6
654.853	68.49
655.183	68.54
655.513	68.53
655.843	68.58
656.172	68.47
656.502	68.4
656.832	68.26
657.162	68.24
657.491	68.31
657.821	68.34
658.15	68.26
658.48	68.29
658.809	68.35
659.139	68.38
659.468	68.41
659.798	68.37
660.127	68.39
660.456	68.34
660.785	68.31
661.115	68.29
661.444	68.27
661.773	68.33
662.102	68.28
662.431	68.39
662.76	68.34
663.089	68.51
663.418	68.71
663.747	68.8
664.076	68.7
664.404	68.75
664.733	68.73
665.062	68.66
665.39	68.81
665.719	68.77
666.048	68.81
666.376	68.76
666.705	68.7
667.033	68.73
667.362	68.78
667.69	68.9
668.018	68.75
668.347	68.77
668.675	68.84
669.003	68.89
669.331	68.87
669.659	68.93
669.987	68.72
670.315	68.67
670.643	68.74
670.971	68.87
671.299	68.67
671.627	68.78
671.955	68.97
672.283	68.99
672.61	68.96
672.938	69.01
673.266	69.05
673.593	69.18
673.921	69.19
674.249	69.11
674.576	69.18
674.904	69.25
675.231	69.24
675.558	69.21
675.886	69.06
676.213	69.02
676.54	69.05
676.867	69.17
677.195	69.36
677.522	69.3
677.849	69.31
678.176	69.39
678.503	69.3
678.83	69.32
679.157	69.24
679.484	69.2
679.81	69.14
680.137	69.04
680.464	68.95
680.791	68.91
681.117	69.06
681.444	69.11
681.771	69.05
682.097	68.98
682.424	68.81
682.75	68.94
683.077	68.91
683.403	68.94
683.729	68.93
684.056	68.84
684.382	68.74
684.708	68.62
685.034	68.68
685.36	68.87
685.686	68.89
686.012	68.82
686.339	68.97
686.664	68.92
686.99	69.1
687.316	69.15
687.642	69.34
687.968	69.31
688.294	69.03
688.619	69.12
688.945	69.26
689.271	69.35
689.596	69.31
689.922	69.38
690.247	69.15
690.573	69.21
690.898	69.19
691.224	69.3
691.549	69.29
691.874	69.26
692.2	69.2
692.525	69.12
692.85	69.14
693.175	69.17
693.5	69.26
693.825	69.45
694.15	69.49
694.475	69.35
694.8	69.26
695.125	69.27
695.45	69.24
695.775	69.11
696.099	69.15
696.424	69.18
696.749	69.18
697.073	69.29
697.398	69.32
697.723	69.3
698.047	69.29
698.372	69.25
698.696	69.28
699.02	69.44
699.345	69.24
699.669	69.34
699.993	69.24
700.318	69.32
700.642	69.19
700.966	69.21
701.29	69.3
701.614	69.32
701.938	69.5
702.262	69.48
702.586	69.48
702.91	69.48
703.234	69.41
703.557	69.58
703.881	69.55
704.205	69.48
704.529	69.37
704.852	69.44
705.176	69.41
705.499	69.26
705.823	68.97
706.146	69.06
706.47	68.94
706.793	68.85
707.117	68.73
707.44	68.85
707.763	68.76
708.086	68.67
708.409	68.65
708.733	68.64
709.056	68.53
709.379	68.76
709.702	68.76
710.025	68.78
710.348	68.45
710.671	68.55
710.993	68.58
711.316	68.72
711.639	68.75
711.962	69.02
712.284	69.17
712.607	69.25
712.93	69.38
713.252	69.38
713.575	69.55
713.897	69.53
714.22	69.32
714.542	69.3
714.864	69.35
715.187	69.39
715.509	69.16
715.831	69.39
716.153	69.17
716.475	69.4
716.798	69.57
717.12	69.66
717.442	69.6
717.764	69.52
718.085	69.62
718.407	69.56
718.729	69.51
719.051	69.24
719.373	69.3
719.695	69.11
720.016	69.27
720.338	69.2
720.659	69.31
720.981	69.56
721.302	69.74
721.624	69.69
721.945	69.74
722.267	70.17
722.588	70.18
722.909	70.35
723.231	70.23
723.552	69.99
723.873	69.9
724.194	69.91
724.515	69.87
724.836	69.54
725.157	69.41
725.478	69.56
725.799	69.62
726.12	69.3
726.441	69.38
726.762	69.24
727.083	69.01
727.403	68.78
727.724	68.47
728.045	68.36
728.365	68.26
728.686	68.46
729.006	68.11
729.327	68.12
729.647	68.3
729.967	68.2
730.288	68.17
730.608	68.42
730.928	68.52
731.249	68.51
731.569	68.5
731.889	68.56
732.209	68.44
732.529	68.58
732.849	68.73
733.169	68.83
733.489	68.76
733.809	68.96
734.129	68.97
734.448	68.99
734.768	68.78
735.088	68.74
735.408	68.46
735.727	68.67
736.047	68.51
736.366	68.3
736.686	68.35
737.005	68.48
737.325	68.23
737.644	68.28
737.963	68.14
738.283	68.37
738.602	68.45
738.921	68.67
739.24	68.67
739.56	68.71
739.879	68.41
740.198	68.36
740.517	68.32
740.836	68.34
741.155	68.55
741.473	68.87
741.792	68.7
742.111	69.16
742.43	69.04
742.748	69.11
743.067	69.3
743.386	69.49
743.704	69.54
744.023	69.6
744.341	69.45
744.66	69.65
744.978	69.46
745.297	69.16
745.615	68.83
745.933	69.01
746.252	69.06
746.57	69.51
746.888	69.61
747.206	69.57
747.524	69.81
747.842	69.72
748.16	69.61
748.478	69.76
748.796	69.5
749.114	69.57
749.432	69.89
749.749	69.8
750.067	69.74
750.385	69.78
750.703	69.99
751.02	69.78
751.338	69.95
751.655	70.36
751.973	70.71
752.29	70.81
752.608	70.82
752.925	70.6
753.242	70.3
753.56	70.25
753.877	70.69
754.194	70.55
754.511	70.48
754.828	70.62
755.145	71.04
755.462	71.07
755.779	71.15
756.096	70.88
756.413	70.93
756.73	70.72
757.047	70.76
757.364	70.72
757.68	71.03
757.997	70.8
758.314	70.41
758.63	70.24
758.947	70.28
759.264	69.88
759.58	70.05
759.896	69.99
760.213	70.05
760.529	69.92
760.846	69.97
761.162	69.92
761.478	69.94
761.794	69.6
762.11	69.43
762.426	69.52
762.743	69.56
763.059	69.32
763.375	69.29
763.69	69.34
764.006	69.54
764.322	69.46
764.638	69.7
764.954	69.84
765.27	69.84
765.585	69.87
765.901	70.17
766.216	70.08
766.532	70.3
766.848	70.48
767.163	70.21
767.478	70.16
767.794	70.21
768.109	70.13
768.424	70.4
768.74	70.45
769.055	70.36
769.37	70.59
769.685	70.79
770	70.62
770.315	70.3
770.63	70.05
770.945	70.21
771.26	69.81
771.575	69.59
771.89	69.52
772.205	69
772.52	68.58
772.834	68.73
773.149	68.39
773.464	68.28
773.778	68.85
774.093	68.63
774.407	68.81
774.722	69.17
775.036	68.88
775.351	68.94
775.665	68.74
775.979	68.35
776.293	68.39
776.608	68.86
776.922	69.08
777.236	69.11
777.55	69.23
777.864	69.44
778.178	69.8
778.492	70.11
778.806	70.22
779.12	70.52
779.434	70.5
779.747	70.36
780.061	69.65
780.375	69.24
780.689	70.07
781.002	70.15
781.316	69.85
781.629	69.9
781.943	69.59
782.256	69.91
782.57	70.15
782.883	69.97
783.196	69.77
783.51	69.7
783.823	69.56
784.136	69.41
784.449	69.33
784.762	69.02
785.075	68.73
785.388	69.23
785.701	69.14
786.014	68.89
786.327	69.08
786.64	69.59
786.953	69.42
787.266	68.69
787.578	68.9
787.891	68.59
788.204	68.31
788.516	68.25
788.829	68.66
789.141	69.13
789.454	69.65
789.766	69.85
790.079	69.75
790.391	69.81
790.703	69.88
791.016	70.09
791.328	71.04
791.64	71.63
791.952	71.16
792.264	71.05
792.576	70.86
792.888	71.17
793.2	71.3
793.512	71.45
793.824	71.43
794.136	70.73
794.448	71.01
794.76	71.03
795.071	71.29
795.383	71
795.695	70.27
796.006	69.97
796.318	70.06
796.629	70.06
796.941	69.76
797.252	69.67
797.564	69.57
797.875	68.52
798.186	68.01
798.497	67.85
798.809	67.74
799.12	67.6
799.431	67.42
799.742	67.22
800.053	66.68
800.364	67.13
800.675	66.97
800.986	67.42
801.297	67.78
801.608	67.72
801.918	67.51
802.229	67.79
802.54	67.4
802.851	67.48
803.161	67.27
803.472	67.48
803.782	67.38
804.093	66.87
804.403	66.65
804.714	66.91
805.024	66.91
805.334	67.08
805.645	67.33
805.955	67.45
806.265	67.47
806.575	68.7
806.885	68.33
807.195	68.26
807.505	67.66
807.815	67.59
808.125	67.68
808.435	67.61
808.745	67.22
809.055	66.99
809.365	66.72
809.674	67.19
809.984	67.05
810.294	66.65
810.603	66.93
810.913	67.26
811.222	67.23
811.532	67.68
811.841	68.17
812.151	68.81
812.46	68.89
812.769	68.41
813.079	67.26
813.388	67.03
813.697	67.43
814.006	66.94
814.315	67.26
814.624	66.94
814.933	66.82
815.242	66.81
815.551	67.3
815.86	66.96
816.169	67.11
816.478	66.95
816.786	67.11
817.095	67.2
817.404	67.6
817.712	66.7
818.021	66.63
818.33	66.65
818.638	66.98
818.947	67.34
819.255	68.05
819.563	68.92
819.872	69.34
820.18	69.82
820.488	70.9
820.796	71.02
821.105	71.1
821.413	71.12
821.721	71.07
822.029	70.63
822.337	70.88
822.645	70.77
822.953	71.06
823.26	71.23
823.568	71.28
823.876	71.22
824.184	71.42
824.491	71.29
824.799	71.41
825.107	71.44
825.414	71.49
825.722	71.51
826.029	71.45
826.337	71.37
826.644	71.25
826.951	70.87
827.259	70.95
827.566	70.79
827.873	70.56
828.18	70.63
828.488	70.92
828.795	70.8
829.102	70.88
829.409	70.69
829.716	70.63
830.023	70.39
830.329	70.59
830.636	70.45
830.943	70.27
831.25	69.57
831.557	69.18
831.863	69.15
832.17	69.29
832.476	69.03
832.783	69.63
833.089	69.6
833.396	69.42
833.702	69.01
834.009	69.29
834.315	69.58
834.621	69.31
834.928	69.92
835.234	69.71
835.54	69.72
835.846	69.9
836.152	69.92
836.458	69.89
836.764	69.57
837.07	69.61
837.376	70.36
837.682	70.88
837.988	70.9
838.293	70.61
838.599	70.25
838.905	70.79
839.211	70.08
839.516	69.39
839.822	68.97
840.127	68.36
840.433	68.55
840.738	67.83
841.044	67.72
841.349	66.77
841.654	66.38
841.959	65.66
842.265	65.64
842.57	65.15
842.875	65.65
843.18	65.66
843.485	65.34
843.79	64.81
844.095	63.21
844.4	63.41
844.705	63.05
845.01	63.65
845.315	61.43
845.619	60.04
845.924	61.13
846.229	62.84
846.533	63.05
846.838	61.76
847.142	63.5
847.447	63.93
847.751	62.67
848.056	63.47
848.36	64.1
848.664	61.94
848.969	61.97
849.273	60.9
849.577	61.09
849.881	60.98
850.185	62.43
850.489	65.55
850.794	64.78
851.097	65.34
851.401	63.92
851.705	65.32
852.009	67.23
852.313	66.8
852.617	65.29
852.92	66.22
853.224	66.17
853.528	64.81
853.831	65.42
854.135	67.95
854.438	69.75
854.742	69.78
855.045	71.46
855.349	70.68
855.652	73.29
855.955	74.24
856.259	75.79
856.562	75.19
856.865	74.13
857.168	74.27
857.471	73.9
857.774	75.72
858.077	74.3
858.38	73.98
858.683	73.24
858.986	71.91
859.289	70.95
859.592	71.82
859.894	73.1
860.197	72.62
860.5	72.56
860.802	68.92
861.105	70.47
861.407	70.66
861.71	71.78
862.012	71.27
862.315	69.23
862.617	69.44
862.919	69.26
863.222	69.34
863.524	68.86
863.826	69.13
864.128	66.32
864.43	68.34
864.732	68.72
865.034	68.48
865.336	67.6
865.638	67.04
865.94	67.23
866.242	64.24
866.544	63.61
866.846	62.04
867.147	63.79
867.449	62.66
867.751	64.05
868.052	63.89
868.354	61.87
868.655	62.23
868.957	62.77
869.258	61.35
869.56	60.73
869.861	60.07
870.162	61.74
870.463	64.26
870.765	64.47
871.066	63.46
871.367	62.67
871.668	65.51
871.969	65.47
872.27	66.27
872.571	67.11
872.872	67.52
873.173	67.42
873.473	66.04
873.774	65.81
874.075	62.05
874.376	62.05
874.676	61.69
874.977	60.11
875.277	57.97
875.578	58.53
875.878	58.03
876.179	59.13
876.479	57.01
876.78	55.6
877.08	54.06
877.38	53.86
877.68	55.36
877.981	53.16
878.281	54.12
878.581	52.74
