Data from BA28470_Reflection_00013.txt Node
Date: Mon Nov 18 15:10:23 EST 2019
User: vgr7
Spectrometer: USB2G7710
Scans to average: 3
Trigger mode: 4
Integration Time (sec): 2.000000E-2
Electric dark correction enabled: true
Boxcar width: 10
XAxis mode: Wavelengths
Number of Pixels in Spectrum: 2048
>>>>>Begin Spectral Data<<<<<
177.721	50.13
178.105	-104.72
178.488	196.07
178.871	-58.09
179.254	-40.22
179.636	144.25
180.019	278.17
180.402	109.09
180.785	-2062.16
181.168	-196.36
181.55	-336.48
181.933	224.84
182.316	240.09
182.698	339.8
183.081	134.46
183.463	202.52
183.846	150.79
184.228	85.85
184.611	90.37
184.993	127.69
185.376	222.72
185.758	357.18
186.14	346.73
186.522	280.66
186.904	271.36
187.287	430.8
187.669	320.2
188.051	211.54
188.433	309.16
188.815	503.64
189.197	268.74
189.579	301.27
189.961	409.31
190.342	3986.79
190.724	-556.37
191.106	2325.35
191.488	1162.94
191.869	-311.38
192.251	-114.61
192.633	-65.29
193.014	-90.21
193.396	-321.05
193.777	-151.82
194.159	-242.2
194.54	-157.33
194.922	-150.2
195.303	-107.45
195.684	-61.83
196.065	-23.81
196.447	-27.6
196.828	-37.84
197.209	-28.79
197.59	-33.98
197.971	-34.08
198.352	-22.26
198.733	-36.43
199.114	-39.37
199.495	-24.91
199.876	-26.55
200.257	-30.91
200.638	-37.41
201.018	-44.98
201.399	-33.62
201.78	-33.53
202.16	-34.32
202.541	-44.75
202.922	-57.41
203.302	-85.95
203.683	-98.96
204.063	-230.3
204.444	-87.18
204.824	-97.31
205.204	-102.58
205.585	-140.3
205.965	-460
206.345	-677.48
206.725	783.64
207.106	-1468.35
207.486	321.6
207.866	1267.51
208.246	1923.01
208.626	567.87
209.006	-631.43
209.386	-607.69
209.766	-333.29
210.145	-310.12
210.525	-256.55
210.905	-189.44
211.285	-111.61
211.664	-78.14
212.044	-64.52
212.424	-68.88
212.803	-71.66
213.183	-77.5
213.562	-43.87
213.942	-27.28
214.321	2.94
214.701	-8.89
215.08	-11.51
215.459	-19.99
215.838	-7.08
216.218	-7.9
216.597	-0.28
216.976	-18.44
217.355	-5.26
217.734	-0.98
218.113	-2.54
218.492	0.46
218.871	-11.83
219.25	-7.54
219.629	-11.09
220.008	-14.07
220.387	-10.38
220.766	-6.95
221.144	-22.67
221.523	-30.94
221.902	-35.58
222.28	-48.56
222.659	-35.97
223.037	-28.24
223.416	-26.32
223.794	-25.96
224.173	-26.62
224.551	-18.47
224.929	-15.82
225.308	-1.9
225.686	6.66
226.064	5.09
226.442	9.33
226.821	10.19
227.199	6.73
227.577	6.61
227.955	7.27
228.333	5.57
228.711	6.71
229.089	13.16
229.467	12.6
229.845	13.85
230.222	13.74
230.6	11.18
230.978	12.75
231.356	13.59
231.733	13.48
232.111	14.4
232.488	15.09
232.866	14.28
233.243	11.19
233.621	7.14
233.998	8.11
234.376	5.98
234.753	7.85
235.13	8.26
235.508	9.08
235.885	6.78
236.262	6.84
236.639	7.19
237.016	6.38
237.393	6.87
237.77	6.4
238.147	7.06
238.524	6.81
238.901	6.32
239.278	6.19
239.655	7.23
240.032	7.3
240.409	6.5
240.785	6.14
241.162	6.54
241.539	7.15
241.915	7.11
242.292	6.78
242.668	6.51
243.045	6.78
243.421	6.45
243.798	6.59
244.174	6.53
244.551	6.16
244.927	6.26
245.303	6.27
245.679	6.5
246.056	6.44
246.432	6.31
246.808	6.41
247.184	6.18
247.56	5.79
247.936	5.66
248.312	5.65
248.688	6.01
249.064	5.94
249.44	6.09
249.815	6.05
250.191	6.22
250.567	6.39
250.943	6.06
251.318	6.29
251.694	6.46
252.069	6.5
252.445	6.75
252.82	6.54
253.196	6.67
253.571	6.44
253.947	6.35
254.322	6.63
254.697	6.2
255.073	6.23
255.448	6.17
255.823	6.23
256.198	6.49
256.573	6.29
256.948	6.37
257.323	6.29
257.698	6.3
258.073	6.17
258.448	5.95
258.823	5.92
259.198	5.66
259.573	5.62
259.948	5.52
260.322	5.55
260.697	5.53
261.072	5.45
261.446	5.58
261.821	5.59
262.195	5.55
262.57	5.65
262.944	5.68
263.319	5.61
263.693	5.52
264.067	5.4
264.442	5.27
264.816	5.21
265.19	5.02
265.564	4.88
265.938	4.97
266.313	4.95
266.687	5.16
267.061	5.28
267.435	5.31
267.809	5.26
268.183	5.2
268.556	5.27
268.93	5.22
269.304	5.11
269.678	5.11
270.051	5.15
270.425	5.13
270.799	5.08
271.172	5.23
271.546	5.28
271.919	5.24
272.293	5.27
272.666	5.19
273.04	5.23
273.413	5.27
273.787	5.25
274.16	5.23
274.533	5.07
274.906	4.91
275.279	4.87
275.653	4.89
276.026	4.76
276.399	4.7
276.772	4.72
277.145	4.68
277.518	4.64
277.891	4.64
278.263	4.6
278.636	4.72
279.009	4.64
279.382	4.67
279.755	4.76
280.127	4.95
280.5	5.03
280.872	5.09
281.245	5.15
281.617	5.1
281.99	5.2
282.362	5.31
282.735	5.35
283.107	5.32
283.479	5.38
283.852	5.44
284.224	5.4
284.596	5.45
284.968	5.58
285.34	5.62
285.713	5.62
286.085	5.67
286.457	5.68
286.829	5.73
287.201	5.72
287.572	5.62
287.944	5.46
288.316	5.4
288.688	5.32
289.06	5.33
289.431	5.34
289.803	5.29
290.175	5.31
290.546	5.46
290.918	5.49
291.289	5.6
291.661	5.72
292.032	5.93
292.403	5.88
292.775	5.86
293.146	5.83
293.517	5.82
293.889	5.93
294.26	6
294.631	5.94
295.002	5.89
295.373	5.99
295.744	6.12
296.115	6.21
296.486	6.13
296.857	6.14
297.228	6.31
297.599	6.34
297.97	6.38
298.34	6.39
298.711	6.52
299.082	6.48
299.452	6.52
299.823	6.54
300.194	6.59
300.564	6.64
300.935	6.69
301.305	6.73
301.676	6.68
302.046	6.7
302.416	6.98
302.787	7.1
303.157	7.13
303.527	7.14
303.897	7.16
304.267	7.61
304.637	7.66
305.008	7.61
305.378	7.8
305.748	7.91
306.117	7.94
306.487	7.98
306.857	8.05
307.227	8.03
307.597	8.02
307.967	8.05
308.336	7.98
308.706	8.04
309.076	8.12
309.445	8.28
309.815	8.37
310.184	8.38
310.554	8.5
310.923	8.61
311.293	8.69
311.662	8.72
312.031	8.53
312.401	8.68
312.77	8.89
313.139	8.85
313.508	8.8
313.877	8.8
314.246	8.86
314.616	8.9
314.985	9.01
315.353	9.06
315.722	9.33
316.091	9.5
316.46	9.58
316.829	9.64
317.198	9.72
317.567	9.71
317.935	9.63
318.304	9.77
318.672	9.7
319.041	9.99
319.41	10.04
319.778	10.16
320.147	10.22
320.515	9.97
320.883	10.11
321.252	10.37
321.62	10.49
321.988	10.51
322.357	10.58
322.725	10.51
323.093	10.56
323.461	10.51
323.829	10.5
324.197	10.64
324.565	10.82
324.933	10.74
325.301	10.86
325.669	10.94
326.037	10.94
326.405	11.06
326.772	11.02
327.14	11.07
327.508	11.23
327.875	11.21
328.243	11.3
328.61	11.2
328.978	11.16
329.346	11.25
329.713	11.25
330.08	11.3
330.448	11.41
330.815	11.44
331.182	11.52
331.55	11.57
331.917	11.6
332.284	11.53
332.651	11.56
333.018	11.59
333.385	11.66
333.752	11.65
334.119	11.61
334.486	11.51
334.853	11.57
335.22	11.48
335.587	11.51
335.954	11.63
336.32	11.78
336.687	11.82
337.054	11.88
337.42	12.06
337.787	12.13
338.153	12.27
338.52	12.28
338.886	12.27
339.253	12.39
339.619	12.36
339.986	12.39
340.352	12.48
340.718	12.46
341.084	12.48
341.451	12.54
341.817	12.72
342.183	12.73
342.549	12.7
342.915	12.74
343.281	12.76
343.647	12.78
344.013	12.84
344.379	12.77
344.745	12.8
345.11	12.78
345.476	12.76
345.842	12.65
346.208	12.74
346.573	12.84
346.939	12.8
347.304	12.79
347.67	12.72
348.035	12.73
348.401	12.67
348.766	12.67
349.132	12.61
349.497	12.54
349.862	12.65
350.228	12.7
350.593	12.71
350.958	12.77
351.323	12.73
351.688	12.67
352.053	12.84
352.418	12.77
352.783	12.73
353.148	12.74
353.513	12.8
353.878	12.84
354.243	12.84
354.608	12.88
354.972	12.9
355.337	12.96
355.702	12.96
356.066	13.03
356.431	13.01
356.795	13
357.16	12.91
357.524	12.78
357.889	12.71
358.253	12.75
358.618	12.76
358.982	12.66
359.346	12.59
359.71	12.51
360.075	12.53
360.439	12.49
360.803	12.38
361.167	12.34
361.531	12.24
361.895	12.08
362.259	11.99
362.623	11.95
362.987	11.96
363.351	11.92
363.714	11.9
364.078	11.84
364.442	11.81
364.806	11.82
365.169	11.85
365.533	11.89
365.896	11.8
366.26	11.67
366.623	11.75
366.987	11.74
367.35	11.67
367.714	11.58
368.077	11.52
368.44	11.55
368.803	11.51
369.167	11.48
369.53	11.49
369.893	11.5
370.256	11.44
370.619	11.38
370.982	11.29
371.345	11.22
371.708	11.19
372.071	11.09
372.434	11.08
372.797	11.01
373.159	10.92
373.522	10.9
373.885	10.9
374.247	10.85
374.61	10.82
374.973	10.78
375.335	10.72
375.698	10.69
376.06	10.61
376.423	10.57
376.785	10.51
377.147	10.47
377.51	10.39
377.872	10.42
378.234	10.35
378.596	10.33
378.958	10.27
379.321	10.19
379.683	10.12
380.045	10.04
380.407	10
380.769	9.98
381.13	9.9
381.492	9.83
381.854	9.76
382.216	9.77
382.578	9.73
382.939	9.65
383.301	9.59
383.663	9.57
384.024	9.49
384.386	9.48
384.747	9.46
385.109	9.4
385.47	9.27
385.832	9.23
386.193	9.22
386.554	9.15
386.916	9.13
387.277	9.14
387.638	9.15
387.999	9.09
388.36	9.03
388.721	8.98
389.082	8.93
389.443	8.86
389.804	8.73
390.165	8.67
390.526	8.66
390.887	8.66
391.248	8.61
391.609	8.59
391.969	8.54
392.33	8.47
392.691	8.41
393.051	8.38
393.412	8.34
393.772	8.26
394.133	8.26
394.493	8.24
394.854	8.18
395.214	8.12
395.574	8.05
395.935	7.97
396.295	7.94
396.655	7.93
397.015	7.92
397.376	7.89
397.736	7.83
398.096	7.8
398.456	7.73
398.816	7.7
399.176	7.66
399.535	7.6
399.895	7.54
400.255	7.53
400.615	7.5
400.975	7.5
401.334	7.46
401.694	7.41
402.054	7.36
402.413	7.34
402.773	7.3
403.132	7.26
403.492	7.28
403.851	7.23
404.211	7.17
404.57	7.1
404.929	7.12
405.288	7.07
405.648	7.04
406.007	7.01
406.366	6.94
406.725	6.91
407.084	6.89
407.443	6.91
407.802	6.92
408.161	6.88
408.52	6.83
408.879	6.82
409.238	6.77
409.596	6.75
409.955	6.72
410.314	6.7
410.673	6.69
411.031	6.66
411.39	6.63
411.748	6.62
412.107	6.64
412.465	6.57
412.824	6.57
413.182	6.51
413.54	6.49
413.899	6.51
414.257	6.48
414.615	6.47
414.974	6.4
415.332	6.37
415.69	6.36
416.048	6.31
416.406	6.25
416.764	6.23
417.122	6.2
417.48	6.19
417.838	6.16
418.195	6.15
418.553	6.13
418.911	6.13
419.269	6.1
419.626	6.06
419.984	6.04
420.342	6.02
420.699	6.01
421.057	5.99
421.414	5.96
421.772	5.95
422.129	5.93
422.486	5.91
422.844	5.88
423.201	5.87
423.558	5.87
423.915	5.85
424.273	5.84
424.63	5.83
424.987	5.81
425.344	5.79
425.701	5.77
426.058	5.75
426.415	5.74
426.772	5.72
427.128	5.69
427.485	5.69
427.842	5.69
428.199	5.7
428.555	5.69
428.912	5.69
429.269	5.68
429.625	5.67
429.982	5.66
430.338	5.66
430.695	5.64
431.051	5.64
431.407	5.63
431.764	5.63
432.12	5.61
432.476	5.6
432.832	5.59
433.189	5.6
433.545	5.6
433.901	5.58
434.257	5.57
434.613	5.57
434.969	5.58
435.325	5.57
435.681	5.54
436.036	5.54
436.392	5.52
436.748	5.52
437.104	5.51
437.459	5.51
437.815	5.49
438.171	5.5
438.526	5.48
438.882	5.49
439.237	5.48
439.593	5.51
439.948	5.52
440.304	5.52
440.659	5.49
441.014	5.49
441.369	5.47
441.725	5.48
442.08	5.5
442.435	5.47
442.79	5.48
443.145	5.48
443.5	5.46
443.855	5.46
444.21	5.45
444.565	5.43
444.92	5.43
445.275	5.41
445.629	5.41
445.984	5.41
446.339	5.4
446.693	5.38
447.048	5.35
447.403	5.32
447.757	5.3
448.112	5.29
448.466	5.29
448.82	5.28
449.175	5.28
449.529	5.25
449.883	5.24
450.238	5.24
450.592	5.23
450.946	5.22
451.3	5.21
451.654	5.18
452.008	5.18
452.362	5.18
452.716	5.2
453.07	5.19
453.424	5.15
453.778	5.18
454.132	5.19
454.486	5.19
454.839	5.19
455.193	5.18
455.547	5.2
455.9	5.19
456.254	5.2
456.607	5.18
456.961	5.18
457.314	5.18
457.668	5.16
458.021	5.14
458.375	5.14
458.728	5.16
459.081	5.17
459.434	5.17
459.787	5.18
460.141	5.16
460.494	5.16
460.847	5.19
461.2	5.16
461.553	5.17
461.906	5.19
462.259	5.21
462.611	5.22
462.964	5.22
463.317	5.23
463.67	5.24
464.022	5.27
464.375	5.28
464.728	5.3
465.08	5.32
465.433	5.34
465.785	5.37
466.138	5.38
466.49	5.41
466.843	5.42
467.195	5.44
467.547	5.46
467.899	5.46
468.252	5.46
468.604	5.49
468.956	5.5
469.308	5.5
469.66	5.49
470.012	5.49
470.364	5.51
470.716	5.52
471.068	5.54
471.42	5.55
471.772	5.57
472.123	5.6
472.475	5.63
472.827	5.64
473.178	5.65
473.53	5.65
473.882	5.65
474.233	5.62
474.585	5.59
474.936	5.6
475.288	5.6
475.639	5.6
475.99	5.58
476.342	5.58
476.693	5.58
477.044	5.59
477.395	5.6
477.746	5.6
478.097	5.58
478.448	5.59
478.8	5.58
479.15	5.56
479.501	5.54
479.852	5.53
480.203	5.51
480.554	5.51
480.905	5.51
481.255	5.51
481.606	5.52
481.957	5.53
482.307	5.53
482.658	5.54
483.009	5.54
483.359	5.54
483.709	5.54
484.06	5.54
484.41	5.53
484.761	5.51
485.111	5.5
485.461	5.51
485.811	5.5
486.162	5.5
486.512	5.52
486.862	5.52
487.212	5.52
487.562	5.53
487.912	5.53
488.262	5.54
488.612	5.54
488.961	5.54
489.311	5.55
489.661	5.56
490.011	5.57
490.36	5.57
490.71	5.57
491.06	5.59
491.409	5.6
491.759	5.62
492.108	5.64
492.458	5.68
492.807	5.68
493.157	5.71
493.506	5.74
493.855	5.75
494.204	5.78
494.554	5.8
494.903	5.81
495.252	5.82
495.601	5.85
495.95	5.88
496.299	5.92
496.648	5.95
496.997	5.98
497.346	6.02
497.695	6.08
498.043	6.13
498.392	6.15
498.741	6.22
499.09	6.26
499.438	6.31
499.787	6.33
500.135	6.39
500.484	6.44
500.832	6.5
501.181	6.56
501.529	6.58
501.878	6.65
502.226	6.74
502.574	6.81
502.923	6.86
503.271	6.93
503.619	7.02
503.967	7.09
504.315	7.15
504.663	7.2
505.011	7.28
505.359	7.35
505.707	7.44
506.055	7.51
506.403	7.59
506.751	7.65
507.098	7.72
507.446	7.82
507.794	7.9
508.141	7.99
508.489	8.08
508.837	8.18
509.184	8.27
509.531	8.35
509.879	8.45
510.226	8.55
510.574	8.64
510.921	8.7
511.268	8.78
511.616	8.86
511.963	8.96
512.31	9.04
512.657	9.14
513.004	9.24
513.351	9.36
513.698	9.48
514.045	9.6
514.392	9.72
514.739	9.85
515.086	9.97
515.432	10.07
515.779	10.15
516.126	10.26
516.473	10.34
516.819	10.42
517.166	10.52
517.512	10.6
517.859	10.71
518.205	10.81
518.552	10.89
518.898	10.97
519.245	11.06
519.591	11.14
519.937	11.24
520.283	11.34
520.629	11.43
520.976	11.54
521.322	11.67
521.668	11.78
522.014	11.9
522.36	12.02
522.706	12.13
523.052	12.3
523.398	12.48
523.743	12.64
524.089	12.82
524.435	12.99
524.781	13.16
525.126	13.29
525.472	13.43
525.817	13.56
526.163	13.68
526.509	13.79
526.854	13.89
527.199	13.98
527.545	14.07
527.89	14.17
528.235	14.27
528.581	14.37
528.926	14.49
529.271	14.6
529.616	14.7
529.961	14.82
530.306	14.94
530.651	15.04
530.996	15.18
531.341	15.31
531.686	15.44
532.031	15.58
532.376	15.74
532.721	15.88
533.065	16.06
533.41	16.27
533.755	16.46
534.099	16.66
534.444	16.85
534.788	17.02
535.133	17.22
535.477	17.41
535.822	17.61
536.166	17.86
536.51	18.1
536.855	18.39
537.199	18.68
537.543	18.97
537.887	19.26
538.231	19.52
538.576	19.8
538.92	20.09
539.264	20.37
539.608	20.62
539.951	20.91
540.295	21.17
540.639	21.4
540.983	21.63
541.327	21.86
541.671	22.11
542.014	22.38
542.358	22.62
542.701	22.84
543.045	23.11
543.389	23.32
543.732	23.55
544.075	23.79
544.419	24.03
544.762	24.28
545.105	24.57
545.449	24.89
545.792	25.22
546.135	25.54
546.478	25.88
546.821	26.28
547.165	26.62
547.508	26.95
547.851	27.28
548.194	27.65
548.536	28.06
548.879	28.45
549.222	28.81
549.565	29.16
549.908	29.59
550.25	29.98
550.593	30.4
550.936	30.81
551.278	31.23
551.621	31.65
551.963	32.08
552.306	32.49
552.648	32.87
552.991	33.25
553.333	33.61
553.675	33.97
554.017	34.28
554.36	34.62
554.702	35.01
555.044	35.39
555.386	35.75
555.728	36.14
556.07	36.54
556.412	36.95
556.754	37.38
557.096	37.76
557.438	38.15
557.78	38.5
558.121	38.9
558.463	39.28
558.805	39.66
559.147	40.03
559.488	40.38
559.83	40.73
560.171	41.1
560.513	41.56
560.854	41.96
561.196	42.31
561.537	42.75
561.878	43.14
562.22	43.53
562.561	43.83
562.902	44.11
563.243	44.39
563.584	44.69
563.925	45.04
564.266	45.37
564.607	45.66
564.948	45.98
565.289	46.31
565.63	46.61
565.971	46.9
566.312	47.18
566.653	47.42
566.993	47.69
567.334	47.92
567.675	48.16
568.015	48.46
568.356	48.79
568.696	49.06
569.037	49.28
569.377	49.54
569.718	49.85
570.058	50.08
570.398	50.36
570.739	50.63
571.079	50.89
571.419	51.12
571.759	51.35
572.099	51.59
572.439	51.81
572.779	51.98
573.119	52.21
573.459	52.47
573.799	52.74
574.139	52.99
574.479	53.29
574.819	53.52
575.158	53.63
575.498	53.86
575.838	54
576.177	54.2
576.517	54.38
576.856	54.58
577.196	54.82
577.535	55
577.875	55.22
578.214	55.41
578.553	55.64
578.893	55.87
579.232	56.1
579.571	56.27
579.91	56.47
580.25	56.67
580.589	56.83
580.928	57.04
581.267	57.26
581.606	57.3
581.945	57.44
582.283	57.63
582.622	57.72
582.961	57.95
583.3	58.11
583.639	58.28
583.977	58.51
584.316	58.63
584.654	58.84
584.993	59.01
585.332	59.13
585.67	59.24
586.008	59.36
586.347	59.39
586.685	59.63
587.024	59.78
587.362	59.89
587.7	59.89
588.038	59.95
588.376	60.02
588.715	60.23
589.053	60.31
589.391	60.43
589.729	60.49
590.067	60.53
590.404	60.66
590.742	60.72
591.08	60.77
591.418	60.91
591.756	61
592.093	61.08
592.431	61.24
592.769	61.35
593.106	61.5
593.444	61.7
593.781	61.69
594.119	61.86
594.456	61.95
594.793	62.17
595.131	62.23
595.468	62.26
595.805	62.31
596.143	62.46
596.48	62.56
596.817	62.69
597.154	62.75
597.491	62.84
597.828	62.95
598.165	63.1
598.502	63.21
598.839	63.29
599.176	63.38
599.512	63.4
599.849	63.49
600.186	63.54
600.523	63.56
600.859	63.74
601.196	63.79
601.532	63.9
601.869	63.95
602.205	64.05
602.542	64.18
602.878	64.21
603.215	64.24
603.551	64.29
603.887	64.31
604.223	64.37
604.56	64.45
604.896	64.52
605.232	64.57
605.568	64.62
605.904	64.68
606.24	64.74
606.576	64.79
606.912	64.89
607.248	64.88
607.583	64.97
607.919	64.98
608.255	65
608.591	65.05
608.926	65.13
609.262	65.2
609.597	65.23
609.933	65.27
610.268	65.34
610.604	65.43
610.939	65.45
611.275	65.54
611.61	65.58
611.945	65.62
612.281	65.62
612.616	65.76
612.951	65.84
613.286	65.92
613.621	65.95
613.956	65.98
614.291	66.04
614.626	66.1
614.961	66.18
615.296	66.23
615.631	66.26
615.966	66.28
616.3	66.36
616.635	66.52
616.97	66.73
617.304	66.8
617.639	66.86
617.973	67.07
618.308	67.19
618.642	67.23
618.977	67.21
619.311	67.23
619.646	67.2
619.98	67.16
620.314	67.13
620.648	67.22
620.983	67.29
621.317	67.36
621.651	67.39
621.985	67.41
622.319	67.44
622.653	67.46
622.987	67.47
623.321	67.46
623.655	67.38
623.988	67.3
624.322	67.28
624.656	67.27
624.99	67.26
625.323	67.13
625.657	67.21
625.99	67.33
626.324	67.44
626.657	67.45
626.991	67.39
627.324	67.39
627.658	67.4
627.991	67.4
628.324	67.44
628.657	67.46
628.991	67.36
629.324	67.38
629.657	67.42
629.99	67.54
630.323	67.54
630.656	67.63
630.989	67.71
631.322	67.87
631.655	67.96
631.987	68.02
632.32	68.13
632.653	68.04
632.986	68.07
633.318	68.04
633.651	68.01
633.984	68.04
634.316	68.01
634.649	68.04
634.981	68.02
635.313	68.03
635.646	67.97
635.978	68.16
636.31	68.24
636.643	68.38
636.975	68.32
637.307	68.27
637.639	68.25
637.971	68.2
638.303	67.98
638.635	67.95
638.967	67.91
639.299	67.93
639.631	68.05
639.963	67.98
640.295	67.99
640.626	68.05
640.958	68.19
641.29	68.44
641.621	68.44
641.953	68.45
642.285	68.5
642.616	68.56
642.948	68.48
643.279	68.47
643.61	68.29
643.942	68.3
644.273	68.34
644.604	68.37
644.936	68.46
645.267	68.54
645.598	68.56
645.929	68.57
646.26	68.64
646.591	68.62
646.922	68.68
647.253	68.68
647.584	68.75
647.915	68.99
648.245	68.88
648.576	68.97
648.907	69.02
649.238	69.09
649.568	69.17
649.899	69.16
650.229	69.21
650.56	69.34
650.89	69.45
651.221	69.62
651.551	69.65
651.882	69.62
652.212	69.59
652.542	69.51
652.872	69.55
653.203	69.54
653.533	69.51
653.863	69.58
654.193	69.59
654.523	69.41
654.853	69.28
655.183	69.33
655.513	69.33
655.843	69.45
656.172	69.26
656.502	69.24
656.832	69.39
657.162	69.41
657.491	69.34
657.821	69.28
658.15	69.25
658.48	69.34
658.809	69.41
659.139	69.53
659.468	69.59
659.798	69.66
660.127	69.71
660.456	69.7
660.785	69.72
661.115	69.63
661.444	69.7
661.773	69.66
662.102	69.62
662.431	69.6
662.76	69.58
663.089	69.65
663.418	69.57
663.747	69.59
664.076	69.63
664.404	69.77
664.733	69.76
665.062	69.83
665.39	69.77
665.719	69.79
666.048	69.94
666.376	69.93
666.705	69.8
667.033	69.83
667.362	69.93
667.69	69.92
668.018	70.08
668.347	70.25
668.675	70.25
669.003	70.37
669.331	70.44
669.659	70.43
669.987	70.63
670.315	70.82
670.643	70.78
670.971	70.79
671.299	70.83
671.627	70.82
671.955	70.71
672.283	70.69
672.61	70.59
672.938	70.42
673.266	70.49
673.593	70.55
673.921	70.49
674.249	70.5
674.576	70.44
674.904	70.57
675.231	70.38
675.558	70.39
675.886	70.35
676.213	70.26
676.54	70.25
676.867	70.11
677.195	70.07
677.522	70.16
677.849	70.15
678.176	70.07
678.503	70.21
678.83	70.25
679.157	70.32
679.484	70.41
679.81	70.48
680.137	70.49
680.464	70.45
680.791	70.45
681.117	70.33
681.444	70.27
681.771	70.11
682.097	70.37
682.424	70.38
682.75	70.35
683.077	70.41
683.403	70.46
683.729	70.53
684.056	70.57
684.382	70.57
684.708	70.37
685.034	70.39
685.36	70.29
685.686	70.1
686.012	70.01
686.339	70.04
686.664	69.92
686.99	69.83
687.316	69.88
687.642	69.8
687.968	69.9
688.294	70.32
688.619	70.45
688.945	70.24
689.271	70.4
689.596	70.23
689.922	70.3
690.247	70.14
690.573	70.23
690.898	70.29
691.224	70.19
691.549	70.4
691.874	70.38
692.2	70.37
692.525	70.39
692.85	70.51
693.175	70.24
693.5	70.17
693.825	70.19
694.15	70.28
694.475	70.37
694.8	70.51
695.125	70.13
695.45	70.01
695.775	70.09
696.099	69.95
696.424	70.2
696.749	70.3
697.073	70.4
697.398	70.4
697.723	70.35
698.047	70.43
698.372	70.5
698.696	70.49
699.02	70.61
699.345	70.71
699.669	70.62
699.993	70.81
700.318	70.9
700.642	70.93
700.966	70.79
701.29	70.66
701.614	70.62
701.938	70.81
702.262	70.88
702.586	70.82
702.91	70.86
703.234	70.77
703.557	70.79
703.881	70.95
704.205	70.79
704.529	70.86
704.852	70.83
705.176	70.67
705.499	70.7
705.823	70.58
706.146	70.66
706.47	70.85
706.793	70.84
707.117	70.88
707.44	70.92
707.763	71.06
708.086	71.2
708.409	71.17
708.733	71.09
709.056	71.18
709.379	71.19
709.702	71.13
710.025	71.03
710.348	70.84
710.671	70.72
710.993	70.7
711.316	70.7
711.639	70.64
711.962	70.59
712.284	70.68
712.607	70.8
712.93	70.83
713.252	70.84
713.575	70.68
713.897	70.81
714.22	70.71
714.542	70.78
714.864	70.86
715.187	70.79
715.509	70.76
715.831	70.64
716.153	70.65
716.475	70.74
716.798	70.91
717.12	70.95
717.442	70.93
717.764	71.19
718.085	71.12
718.407	71.1
718.729	71.18
719.051	71.18
719.373	70.92
719.695	71.01
720.016	70.88
720.338	71.11
720.659	71.15
720.981	71.34
721.302	70.98
721.624	71.02
721.945	71.32
722.267	71.37
722.588	71.58
722.909	71.45
723.231	71.43
723.552	71.42
723.873	71.47
724.194	71.47
724.515	71.3
724.836	71.35
725.157	71.45
725.478	71.37
725.799	71.33
726.12	71.59
726.441	71.61
726.762	71.61
727.083	71.5
727.403	71.22
727.724	71.2
728.045	71.56
728.365	71.61
728.686	71.32
729.006	71.32
729.327	71.33
729.647	71.53
729.967	71.35
730.288	71.3
730.608	71.21
730.928	71.07
731.249	71.22
731.569	71.11
731.889	70.96
732.209	71.13
732.529	70.88
732.849	70.69
733.169	70.7
733.489	70.79
733.809	70.76
734.129	70.98
734.448	71.02
734.768	71.13
735.088	71.21
735.408	71.31
735.727	71.51
736.047	71.55
736.366	71.48
736.686	71.53
737.005	71.84
737.325	71.8
737.644	72.06
737.963	71.89
738.283	72.04
738.602	72.03
738.921	71.99
739.24	72.23
739.56	72.27
739.879	72.31
740.198	72.41
740.517	72.61
740.836	72.4
741.155	71.87
741.473	71.69
741.792	71.59
742.111	71.38
742.43	70.98
742.748	70.8
743.067	70.89
743.386	71.08
743.704	70.74
744.023	70.5
744.341	70.33
744.66	70.53
744.978	70.48
745.297	70.57
745.615	70.3
745.933	70.35
746.252	70.59
746.57	70.51
746.888	70.06
747.206	70.08
747.524	70.29
747.842	70.78
748.16	70.55
748.478	70.7
748.796	70.93
749.114	71.26
749.432	71.16
749.749	71.24
750.067	71.63
750.385	71.61
750.703	71.82
751.02	71.93
751.338	71.84
751.655	71.92
751.973	71.88
752.29	72.1
752.608	71.95
752.925	71.55
753.242	71.61
753.56	71.8
753.877	71.77
754.194	71.75
754.511	72.06
754.828	71.99
755.145	71.71
755.462	71.34
755.779	71.26
756.096	71.51
756.413	71.19
756.73	70.69
757.047	70.8
757.364	71.06
757.68	70.94
757.997	71.16
758.314	71.21
758.63	71.23
758.947	71.27
759.264	71.61
759.58	72.11
759.896	72
760.213	71.87
760.529	71.9
760.846	71.83
761.162	71.57
761.478	71.83
761.794	72
762.11	72.29
762.426	72.26
762.743	72.03
763.059	72.31
763.375	72.41
763.69	72.28
764.006	71.99
764.322	72.13
764.638	71.97
764.954	71.69
765.27	71.64
765.585	71.68
765.901	71.55
766.216	71.56
766.532	71.42
766.848	71.5
767.163	71.53
767.478	71.63
767.794	71.57
768.109	71.63
768.424	71.74
768.74	72.08
769.055	72.47
769.37	72.42
769.685	72.29
770	72.31
770.315	72.5
770.63	73.01
770.945	73.15
771.26	73.1
771.575	73.39
771.89	73.53
772.205	73.58
772.52	73.24
772.834	73.01
773.149	73.18
773.464	73.22
773.778	73
774.093	72.88
774.407	73.14
774.722	73.19
775.036	73.08
775.351	72.58
775.665	72.07
775.979	72.54
776.293	72.24
776.608	71.97
776.922	71.87
777.236	71.79
777.55	71.45
777.864	71.38
778.178	71.49
778.492	71.71
778.806	71.26
779.12	71.66
779.434	71.2
779.747	71.28
780.061	71.41
780.375	71.53
780.689	71.74
781.002	71.55
781.316	71.39
781.629	71.49
781.943	71.56
782.256	71.52
782.57	71.08
782.883	71.09
783.196	71.69
783.51	71.88
783.823	71.81
784.136	71.95
784.449	72.09
784.762	72.07
785.075	72.15
785.388	72.46
785.701	72.35
786.014	72.41
786.327	71.95
786.64	72
786.953	72.14
787.266	71.83
787.578	71.93
787.891	71.83
788.204	71.57
788.516	71.89
788.829	72.09
789.141	72.13
789.454	73.05
789.766	72.73
790.079	72.93
790.391	73.04
790.703	73.03
791.016	72.93
791.328	72.85
791.64	72.67
791.952	72.54
792.264	71.94
792.576	72.46
792.888	72.48
793.2	72.05
793.512	71.95
793.824	71.74
794.136	71.75
794.448	71.88
794.76	71.63
795.071	71.63
795.383	71.72
795.695	71.64
796.006	71.16
796.318	70.95
796.629	70.7
796.941	70.63
797.252	70.55
797.564	70.81
797.875	70.88
798.186	70.87
798.497	71.09
798.809	72.03
799.12	72.2
799.431	73.43
799.742	73.84
800.053	74.43
800.364	75.25
800.675	75.29
800.986	75.6
801.297	75.42
801.608	74.84
801.918	74.12
802.229	74.18
802.54	74.35
802.851	75.02
803.161	75.03
803.472	75.26
803.782	74.99
804.093	74.93
804.403	74.73
804.714	74.58
805.024	74.42
805.334	74.03
805.645	73.72
805.955	72.48
806.265	72.45
806.575	71.29
806.885	70.46
807.195	70.69
807.505	70.25
807.815	70.51
808.125	70.33
808.435	70.67
808.745	70.99
809.055	70.53
809.365	70.41
809.674	69.98
809.984	69.69
810.294	70.37
810.603	69.79
810.913	69.56
811.222	69.95
811.532	70.42
811.841	70.76
812.151	70.87
812.46	71.57
812.769	71.52
813.079	72.47
813.388	72.51
813.697	72.41
814.006	72.68
814.315	72.85
814.624	73.25
814.933	72.98
815.242	72.8
815.551	73.48
815.86	72.94
816.169	72.69
816.478	72.92
816.786	72.31
817.095	72.79
817.404	72.64
817.712	72.3
818.021	72.18
818.33	71.85
818.638	72.42
818.947	71.92
819.255	71.99
819.563	72.17
819.872	72.44
820.18	72.69
820.488	72.57
820.796	72.97
821.105	73.21
821.413	73.62
821.721	73.29
822.029	73.08
822.337	73.23
822.645	73
822.953	72.94
823.26	72.97
823.568	73.1
823.876	73.14
824.184	72.99
824.491	73.03
824.799	73.14
825.107	72.82
825.414	72.98
825.722	72.77
826.029	72.64
826.337	72.62
826.644	72.29
826.951	72.15
827.259	71.88
827.566	71.67
827.873	71.38
828.18	71.81
828.488	71.83
828.795	71.68
829.102	71.76
829.409	71.75
829.716	71.85
830.023	71.41
830.329	71.65
830.636	72.37
830.943	72.06
831.25	71.61
831.557	71.82
831.863	71.9
832.17	72.11
832.476	72.1
832.783	72.19
833.089	72.77
833.396	72.99
833.702	73.28
834.009	73.11
834.315	72.49
834.621	72.22
834.928	72.45
835.234	72.43
835.54	72.96
835.846	72.33
836.152	72.24
836.458	72.31
836.764	72.29
837.07	71.76
837.376	71.79
837.682	72.47
837.988	71.78
838.293	70.9
838.599	70.76
838.905	70.56
839.211	70.5
839.516	70.1
839.822	69.94
840.127	69.41
840.433	69.53
840.738	71.19
841.044	71.1
841.349	69.92
841.654	69.13
841.959	68.82
842.265	69.08
842.57	68.49
842.875	69.12
843.18	69.02
843.485	68.58
843.79	68.77
844.095	68.24
844.4	69.29
844.705	70.07
845.01	71.02
845.315	70.39
845.619	69.54
845.924	68.38
846.229	68.52
846.533	69.13
846.838	68.95
847.142	68.7
847.447	67.38
847.751	67.07
848.056	67.72
848.36	69.17
848.664	71.39
848.969	72.7
849.273	71.88
849.577	70.53
849.881	70.57
850.185	68.78
850.489	67.91
850.794	66.89
851.097	66.92
851.401	66.88
851.705	65.89
852.009	68.1
852.313	69.05
852.617	70.71
852.92	69.67
853.224	68.68
853.528	69.14
853.831	69.02
854.135	70.92
854.438	70.97
854.742	69.19
855.045	67.82
855.349	67.15
855.652	67.53
855.955	67.49
856.259	67.61
856.562	69.07
856.865	68.66
857.168	70.74
857.471	71.62
857.774	72.22
858.077	75.16
858.38	71.39
858.683	71.15
858.986	67.18
859.289	67.11
859.592	69.62
859.894	68.41
860.197	70.81
860.5	68.5
860.802	68.21
861.105	69.01
861.407	68.64
861.71	66.47
862.012	67.47
862.315	66.78
862.617	67.62
862.919	68.08
863.222	68.54
863.524	69.47
863.826	68.92
864.128	68.59
864.43	69.74
864.732	71.72
865.034	73.84
865.336	75.57
865.638	78.73
865.94	75.12
866.242	73.57
866.544	71.48
866.846	71.69
867.147	71.17
867.449	69.43
867.751	68.46
868.052	71.54
868.354	69.06
868.655	70.48
868.957	69.17
869.258	70.14
869.56	70.57
869.861	68.89
870.162	69.14
870.463	68.94
870.765	68.09
871.066	68.36
871.367	64.46
871.668	63.35
871.969	57.93
872.27	59.2
872.571	60.17
872.872	58.98
873.173	59.08
873.473	59.66
873.774	60.54
874.075	63.9
874.376	62.98
874.676	65.57
874.977	65.45
875.277	66.09
875.578	62.3
875.878	62.1
876.179	62.27
876.479	61.09
876.78	59.98
877.08	58.59
877.38	57.61
877.68	60.18
877.981	61.62
878.281	65.05
878.581	66.04
