Data from BA28306_Reflection_00013.txt Node
Date: Mon Nov 18 15:54:00 EST 2019
User: vgr7
Spectrometer: USB2G7710
Scans to average: 3
Trigger mode: 4
Integration Time (sec): 2.000000E-2
Electric dark correction enabled: true
Boxcar width: 10
XAxis mode: Wavelengths
Number of Pixels in Spectrum: 2048
>>>>>Begin Spectral Data<<<<<
177.721	-1793.2
178.105	-224.84
178.488	-494.11
178.871	-763.21
179.254	-1053.85
179.636	-297.96
180.019	189.63
180.402	268.18
180.785	-26.87
181.168	-3.92
181.55	-27.92
181.933	128.16
182.316	139.54
182.698	166
183.081	207.05
183.463	522.14
183.846	1607.61
184.228	-1640.33
184.611	-2482.61
184.993	-430.65
185.376	-338.63
185.758	-743.52
186.14	-503.47
186.522	-341.77
186.904	-326.91
187.287	-330.16
187.669	-247.01
188.051	-316.74
188.433	-171.37
188.815	-202.25
189.197	-190.83
189.579	-208.37
189.961	-207.95
190.342	-123.35
190.724	-93.96
191.106	-160.64
191.488	-141.42
191.869	-111.83
192.251	-161.43
192.633	-130.77
193.014	-163.08
193.396	-151.85
193.777	-115.61
194.159	-92.66
194.54	-121.98
194.922	-123.32
195.303	-119.27
195.684	-116.36
196.065	-77.16
196.447	-120.31
196.828	-176.9
197.209	-176.12
197.59	-209.07
197.971	-224.04
198.352	-202.44
198.733	-303.48
199.114	-131.88
199.495	-92.64
199.876	-97.26
200.257	-111.16
200.638	-71.85
201.018	-89.39
201.399	-91.03
201.78	-85.58
202.16	-99.64
202.541	-116.44
202.922	-170.61
203.302	-305.14
203.683	-286.71
204.063	-450.06
204.444	-327.04
204.824	-201.5
205.204	-178.51
205.585	-175.16
205.965	-118.97
206.345	-171.6
206.725	-148.66
207.106	-204.27
207.486	-275.26
207.866	-235
208.246	-227.99
208.626	-232.53
209.006	-135.12
209.386	-179.29
209.766	-167.13
210.145	-150.49
210.525	-108.03
210.905	-100.94
211.285	-37.12
211.664	-36.64
212.044	-33.65
212.424	-25.12
212.803	-25.28
213.183	-32.92
213.562	-25.14
213.942	-34.66
214.321	-37.02
214.701	-58.4
215.08	-46.69
215.459	-48.39
215.838	-48.89
216.218	-61.77
216.597	-72.03
216.976	-84.17
217.355	-50.14
217.734	-64.71
218.113	-62.89
218.492	-63.95
218.871	-62.98
219.25	-82.87
219.629	-83.12
220.008	-85.65
220.387	-75.82
220.766	-72.09
221.144	-78.2
221.523	-85.94
221.902	-89.04
222.28	-85.63
222.659	-61.88
223.037	-74.48
223.416	-83.07
223.794	-91.05
224.173	-70.17
224.551	-53.65
224.929	-48.9
225.308	-50.6
225.686	-36.49
226.064	-32.52
226.442	-30.17
226.821	-26.27
227.199	-23.65
227.577	-26.28
227.955	-21.39
228.333	-23
228.711	-18.58
229.089	-13.19
229.467	-11.12
229.845	-10.93
230.222	-9.11
230.6	-9.5
230.978	-7.38
231.356	-7.7
231.733	-7.33
232.111	-8.15
232.488	-6.81
232.866	-5.62
233.243	-5.37
233.621	-3.52
233.998	-4.3
234.376	-4.89
234.753	-4.78
235.13	-4.42
235.508	-0.82
235.885	-0.68
236.262	-0.88
236.639	-2.66
237.016	-2.64
237.393	-1.57
237.77	0.55
238.147	0.59
238.524	1.54
238.901	2.89
239.278	4.35
239.655	5.17
240.032	5.73
240.409	4.88
240.785	5.02
241.162	5.42
241.539	5.78
241.915	6.24
242.292	6.46
242.668	6.96
243.045	6.82
243.421	6.27
243.798	6.15
244.174	6.08
244.551	6.83
244.927	6.9
245.303	7.22
245.679	7.32
246.056	7.52
246.432	7.4
246.808	7.22
247.184	6.95
247.56	6.76
247.936	6.61
248.312	6.66
248.688	6.8
249.064	6.83
249.44	6.64
249.815	6.59
250.191	6.51
250.567	6.35
250.943	6.38
251.318	6.48
251.694	6.4
252.069	6.61
252.445	5.99
252.82	6.15
253.196	5.73
253.571	5.42
253.947	5.47
254.322	5.57
254.697	5.34
255.073	5.34
255.448	5.28
255.823	5.43
256.198	5.88
256.573	5.81
256.948	5.76
257.323	5.85
257.698	5.95
258.073	6.07
258.448	6.02
258.823	6.12
259.198	6
259.573	5.97
259.948	5.98
260.322	6.12
260.697	5.89
261.072	5.82
261.446	5.82
261.821	5.69
262.195	5.75
262.57	5.88
262.944	5.91
263.319	5.94
263.693	5.98
264.067	5.84
264.442	5.8
264.816	5.65
265.19	5.58
265.564	5.54
265.938	5.5
266.313	5.49
266.687	5.31
267.061	5.29
267.435	5.25
267.809	5.16
268.183	5.19
268.556	5.22
268.93	5.43
269.304	5.62
269.678	5.82
270.051	5.81
270.425	5.64
270.799	5.67
271.172	5.7
271.546	5.73
271.919	5.58
272.293	5.5
272.666	5.57
273.04	5.64
273.413	5.65
273.787	5.63
274.16	5.66
274.533	5.78
274.906	5.81
275.279	5.84
275.653	5.91
276.026	5.86
276.399	5.94
276.772	6.02
277.145	5.93
277.518	5.59
277.891	5.67
278.263	5.88
278.636	5.87
279.009	5.99
279.382	5.93
279.755	5.93
280.127	6
280.5	6.03
280.872	6.05
281.245	5.98
281.617	6.06
281.99	6.06
282.362	5.98
282.735	5.98
283.107	6.06
283.479	6.08
283.852	6.17
284.224	6.16
284.596	5.96
284.968	5.99
285.34	6.22
285.713	6.23
286.085	6.21
286.457	6.23
286.829	6.18
287.201	6.24
287.572	6.29
287.944	6.31
288.316	6.19
288.688	6.12
289.06	6.1
289.431	6.06
289.803	6.25
290.175	6.27
290.546	6.42
290.918	6.49
291.289	6.48
291.661	6.59
292.032	6.58
292.403	6.72
292.775	6.81
293.146	6.69
293.517	6.57
293.889	6.62
294.26	6.8
294.631	6.92
295.002	6.95
295.373	6.97
295.744	7.03
296.115	7.17
296.486	7.16
296.857	7.32
297.228	7.41
297.599	7.35
297.97	7.5
298.34	7.52
298.711	7.52
299.082	7.6
299.452	7.64
299.823	7.8
300.194	7.84
300.564	7.86
300.935	8.01
301.305	8.08
301.676	8.19
302.046	8.15
302.416	8.32
302.787	8.27
303.157	8.42
303.527	8.39
303.897	8.56
304.267	8.73
304.637	8.82
305.008	8.81
305.378	8.96
305.748	9.09
306.117	9.17
306.487	9.4
306.857	9.29
307.227	9.3
307.597	9.34
307.967	9.39
308.336	9.4
308.706	9.5
309.076	9.73
309.445	9.86
309.815	9.9
310.184	9.75
310.554	9.81
310.923	9.78
311.293	9.91
311.662	9.83
312.031	9.92
312.401	9.82
312.77	10
313.139	9.99
313.508	9.88
313.877	9.89
314.246	9.78
314.616	9.84
314.985	9.92
315.353	9.99
315.722	10.08
316.091	10.24
316.46	10.2
316.829	10.23
317.198	10.14
317.567	10.11
317.935	10.4
318.304	10.61
318.672	10.77
319.041	10.84
319.41	10.89
319.778	10.98
320.147	11.19
320.515	11.23
320.883	11.26
321.252	11.44
321.62	11.4
321.988	11.49
322.357	11.69
322.725	11.67
323.093	11.68
323.461	11.69
323.829	11.76
324.197	11.88
324.565	11.78
324.933	11.87
325.301	11.96
325.669	11.87
326.037	11.88
326.405	12.04
326.772	12.13
327.14	12.28
327.508	12.24
327.875	12.12
328.243	12.06
328.61	12.13
328.978	12.14
329.346	12.35
329.713	12.4
330.08	12.48
330.448	12.49
330.815	12.65
331.182	12.62
331.55	12.5
331.917	12.57
332.284	12.7
332.651	12.71
333.018	12.74
333.385	12.68
333.752	12.73
334.119	12.65
334.486	12.64
334.853	12.53
335.22	12.58
335.587	12.85
335.954	12.94
336.32	12.86
336.687	12.84
337.054	12.83
337.42	12.79
337.787	12.9
338.153	12.98
338.52	12.9
338.886	12.99
339.253	13.09
339.619	13.11
339.986	13.11
340.352	13.16
340.718	13.2
341.084	13.31
341.451	13.33
341.817	13.4
342.183	13.42
342.549	13.53
342.915	13.65
343.281	13.71
343.647	13.76
344.013	13.83
344.379	13.99
344.745	13.99
345.11	14.11
345.476	13.96
345.842	14
346.208	14.1
346.573	14.22
346.939	14.27
347.304	14.19
347.67	14.14
348.035	14.17
348.401	14.23
348.766	14.25
349.132	14.18
349.497	14.12
349.862	14.16
350.228	14.16
350.593	14.15
350.958	14.04
351.323	14.05
351.688	14.09
352.053	13.99
352.418	14.17
352.783	14.09
353.148	14.14
353.513	14.12
353.878	14.12
354.243	14.02
354.608	14.06
354.972	14.16
355.337	14.23
355.702	14.23
356.066	14.27
356.431	14.23
356.795	14.31
357.16	14.27
357.524	14.11
357.889	14.11
358.253	14.12
358.618	14.14
358.982	14.13
359.346	14.16
359.71	14.14
360.075	13.97
360.439	13.99
360.803	14.04
361.167	13.94
361.531	13.9
361.895	13.9
362.259	13.87
362.623	13.86
362.987	13.82
363.351	13.79
363.714	13.73
364.078	13.71
364.442	13.63
364.806	13.64
365.169	13.71
365.533	13.65
365.896	13.57
366.26	13.54
366.623	13.44
366.987	13.36
367.35	13.31
367.714	13.35
368.077	13.29
368.44	13.21
368.803	13.2
369.167	13.18
369.53	13.17
369.893	13.13
370.256	13.04
370.619	13.03
370.982	12.97
371.345	12.86
371.708	12.87
372.071	12.82
372.434	12.81
372.797	12.83
373.159	12.78
373.522	12.78
373.885	12.61
374.247	12.56
374.61	12.5
374.973	12.42
375.335	12.36
375.698	12.26
376.06	12.15
376.423	12.17
376.785	12.08
377.147	12.01
377.51	11.9
377.872	11.86
378.234	11.78
378.596	11.76
378.958	11.74
379.321	11.68
379.683	11.66
380.045	11.58
380.407	11.49
380.769	11.51
381.13	11.4
381.492	11.42
381.854	11.44
382.216	11.39
382.578	11.37
382.939	11.33
383.301	11.37
383.663	11.36
384.024	11.28
384.386	11.28
384.747	11.24
385.109	11.25
385.47	11.17
385.832	11.16
386.193	11.15
386.554	11.13
386.916	11.05
387.277	10.98
387.638	10.95
387.999	10.89
388.36	10.8
388.721	10.76
389.082	10.76
389.443	10.74
389.804	10.69
390.165	10.69
390.526	10.61
390.887	10.57
391.248	10.52
391.609	10.5
391.969	10.46
392.33	10.39
392.691	10.33
393.051	10.35
393.412	10.35
393.772	10.26
394.133	10.21
394.493	10.2
394.854	10.2
395.214	10.14
395.574	10.13
395.935	10.12
396.295	10.13
396.655	10.04
397.015	9.93
397.376	9.87
397.736	9.8
398.096	9.76
398.456	9.7
398.816	9.66
399.176	9.59
399.535	9.52
399.895	9.49
400.255	9.45
400.615	9.4
400.975	9.36
401.334	9.3
401.694	9.27
402.054	9.23
402.413	9.17
402.773	9.13
403.132	9.07
403.492	9.03
403.851	8.98
404.211	8.98
404.57	8.97
404.929	8.97
405.288	8.93
405.648	8.94
406.007	8.89
406.366	8.87
406.725	8.88
407.084	8.87
407.443	8.88
407.802	8.86
408.161	8.84
408.52	8.78
408.879	8.78
409.238	8.77
409.596	8.73
409.955	8.72
410.314	8.71
410.673	8.7
411.031	8.66
411.39	8.66
411.748	8.63
412.107	8.63
412.465	8.63
412.824	8.6
413.182	8.53
413.54	8.53
413.899	8.52
414.257	8.47
414.615	8.44
414.974	8.4
415.332	8.34
415.69	8.28
416.048	8.28
416.406	8.25
416.764	8.21
417.122	8.2
417.48	8.16
417.838	8.13
418.195	8.1
418.553	8.07
418.911	8.03
419.269	8.01
419.626	7.99
419.984	7.94
420.342	7.93
420.699	7.92
421.057	7.88
421.414	7.84
421.772	7.81
422.129	7.79
422.486	7.74
422.844	7.73
423.201	7.7
423.558	7.67
423.915	7.65
424.273	7.63
424.63	7.59
424.987	7.58
425.344	7.57
425.701	7.55
426.058	7.53
426.415	7.5
426.772	7.48
427.128	7.44
427.485	7.43
427.842	7.43
428.199	7.41
428.555	7.39
428.912	7.41
429.269	7.4
429.625	7.38
429.982	7.38
430.338	7.36
430.695	7.37
431.051	7.35
431.407	7.35
431.764	7.33
432.12	7.32
432.476	7.29
432.832	7.29
433.189	7.3
433.545	7.3
433.901	7.32
434.257	7.31
434.613	7.3
434.969	7.31
435.325	7.3
435.681	7.3
436.036	7.32
436.392	7.31
436.748	7.3
437.104	7.31
437.459	7.32
437.815	7.33
438.171	7.32
438.526	7.32
438.882	7.31
439.237	7.31
439.593	7.33
439.948	7.34
440.304	7.33
440.659	7.32
441.014	7.31
441.369	7.28
441.725	7.28
442.08	7.3
442.435	7.26
442.79	7.26
443.145	7.23
443.5	7.21
443.855	7.18
444.21	7.18
444.565	7.16
444.92	7.16
445.275	7.13
445.629	7.13
445.984	7.12
446.339	7.09
446.693	7.08
447.048	7.05
447.403	7.03
447.757	7.01
448.112	6.99
448.466	6.97
448.82	6.98
449.175	6.97
449.529	6.94
449.883	6.94
450.238	6.9
450.592	6.89
450.946	6.87
451.3	6.84
451.654	6.83
452.008	6.81
452.362	6.78
452.716	6.78
453.07	6.78
453.424	6.78
453.778	6.78
454.132	6.77
454.486	6.77
454.839	6.75
455.193	6.75
455.547	6.76
455.9	6.77
456.254	6.75
456.607	6.74
456.961	6.76
457.314	6.76
457.668	6.78
458.021	6.78
458.375	6.81
458.728	6.82
459.081	6.82
459.434	6.82
459.787	6.83
460.141	6.82
460.494	6.84
460.847	6.85
461.2	6.84
461.553	6.85
461.906	6.86
462.259	6.9
462.611	6.92
462.964	6.93
463.317	6.93
463.67	6.95
464.022	6.97
464.375	6.97
464.728	6.99
465.08	6.99
465.433	7.02
465.785	7.05
466.138	7.08
466.49	7.11
466.843	7.16
467.195	7.18
467.547	7.23
467.899	7.23
468.252	7.23
468.604	7.28
468.956	7.29
469.308	7.31
469.66	7.31
470.012	7.35
470.364	7.37
470.716	7.38
471.068	7.39
471.42	7.41
471.772	7.43
472.123	7.44
472.475	7.45
472.827	7.44
473.178	7.42
473.53	7.42
473.882	7.39
474.233	7.37
474.585	7.36
474.936	7.34
475.288	7.32
475.639	7.33
475.99	7.34
476.342	7.33
476.693	7.31
477.044	7.31
477.395	7.27
477.746	7.26
478.097	7.25
478.448	7.22
478.8	7.2
479.15	7.18
479.501	7.19
479.852	7.2
480.203	7.22
480.554	7.22
480.905	7.23
481.255	7.26
481.606	7.27
481.957	7.29
482.307	7.29
482.658	7.29
483.009	7.29
483.359	7.29
483.709	7.3
484.06	7.31
484.41	7.31
484.761	7.32
485.111	7.33
485.461	7.34
485.811	7.35
486.162	7.36
486.512	7.38
486.862	7.39
487.212	7.4
487.562	7.4
487.912	7.42
488.262	7.43
488.612	7.44
488.961	7.43
489.311	7.44
489.661	7.46
490.011	7.47
490.36	7.49
490.71	7.51
491.06	7.51
491.409	7.53
491.759	7.55
492.108	7.56
492.458	7.58
492.807	7.61
493.157	7.64
493.506	7.68
493.855	7.7
494.204	7.75
494.554	7.78
494.903	7.81
495.252	7.84
495.601	7.88
495.95	7.91
496.299	7.97
496.648	8
496.997	8.05
497.346	8.13
497.695	8.17
498.043	8.22
498.392	8.27
498.741	8.32
499.09	8.36
499.438	8.44
499.787	8.5
500.135	8.55
500.484	8.6
500.832	8.66
501.181	8.72
501.529	8.77
501.878	8.84
502.226	8.92
502.574	8.99
502.923	9.04
503.271	9.13
503.619	9.22
503.967	9.32
504.315	9.37
504.663	9.44
505.011	9.54
505.359	9.62
505.707	9.72
506.055	9.82
506.403	9.93
506.751	10.02
507.098	10.11
507.446	10.2
507.794	10.31
508.141	10.39
508.489	10.48
508.837	10.58
509.184	10.67
509.531	10.76
509.879	10.86
510.226	10.97
510.574	11.07
510.921	11.15
511.268	11.23
511.616	11.34
511.963	11.42
512.31	11.52
512.657	11.63
513.004	11.7
513.351	11.79
513.698	11.88
514.045	11.98
514.392	12.07
514.739	12.18
515.086	12.29
515.432	12.39
515.779	12.48
516.126	12.58
516.473	12.67
516.819	12.74
517.166	12.83
517.512	12.92
517.859	13
518.205	13.09
518.552	13.18
518.898	13.26
519.245	13.35
519.591	13.42
519.937	13.48
520.283	13.58
520.629	13.65
520.976	13.75
521.322	13.85
521.668	13.98
522.014	14.1
522.36	14.23
522.706	14.35
523.052	14.49
523.398	14.66
523.743	14.82
524.089	14.99
524.435	15.12
524.781	15.27
525.126	15.41
525.472	15.56
525.817	15.69
526.163	15.82
526.509	15.92
526.854	16.02
527.199	16.12
527.545	16.23
527.89	16.34
528.235	16.41
528.581	16.51
528.926	16.59
529.271	16.71
529.616	16.8
529.961	16.88
530.306	17.01
530.651	17.1
530.996	17.2
531.341	17.32
531.686	17.47
532.031	17.58
532.376	17.71
532.721	17.85
533.065	17.98
533.41	18.12
533.755	18.28
534.099	18.45
534.444	18.65
534.788	18.79
535.133	18.96
535.477	19.17
535.822	19.36
536.166	19.57
536.51	19.78
536.855	19.98
537.199	20.23
537.543	20.45
537.887	20.71
538.231	20.97
538.576	21.22
538.92	21.47
539.264	21.75
539.608	21.98
539.951	22.2
540.295	22.42
540.639	22.64
540.983	22.86
541.327	23.07
541.671	23.26
542.014	23.48
542.358	23.7
542.701	23.91
543.045	24.13
543.389	24.35
543.732	24.54
544.075	24.82
544.419	25.09
544.762	25.35
545.105	25.58
545.449	25.87
545.792	26.19
546.135	26.47
546.478	26.78
546.821	27.11
547.165	27.43
547.508	27.8
547.851	28.14
548.194	28.48
548.536	28.87
548.879	29.22
549.222	29.6
549.565	29.95
549.908	30.29
550.25	30.68
550.593	31
550.936	31.4
551.278	31.75
551.621	32.12
551.963	32.5
552.306	32.9
552.648	33.26
552.991	33.6
553.333	33.97
553.675	34.3
554.017	34.6
554.36	34.96
554.702	35.25
555.044	35.6
555.386	35.94
555.728	36.24
556.07	36.61
556.412	36.89
556.754	37.2
557.096	37.59
557.438	37.92
557.78	38.35
558.121	38.71
558.463	39.07
558.805	39.4
559.147	39.73
559.488	40.08
559.83	40.45
560.171	40.76
560.513	41.15
560.854	41.46
561.196	41.81
561.537	42.1
561.878	42.4
562.22	42.76
562.561	43.1
562.902	43.44
563.243	43.76
563.584	44.11
563.925	44.48
564.266	44.73
564.607	45.04
564.948	45.29
565.289	45.62
565.63	45.86
565.971	46.09
566.312	46.4
566.653	46.65
566.993	46.89
567.334	47.2
567.675	47.42
568.015	47.76
568.356	48.05
568.696	48.4
569.037	48.64
569.377	48.89
569.718	49.09
570.058	49.28
570.398	49.55
570.739	49.82
571.079	50
571.419	50.3
571.759	50.55
572.099	50.74
572.439	50.92
572.779	51.14
573.119	51.43
573.459	51.59
573.799	51.75
574.139	51.93
574.479	52.06
574.819	52.25
575.158	52.37
575.498	52.58
575.838	52.71
576.177	52.93
576.517	53.13
576.856	53.3
577.196	53.57
577.535	53.75
577.875	53.99
578.214	54.26
578.553	54.43
578.893	54.52
579.232	54.77
579.571	54.95
579.91	55.17
580.25	55.3
580.589	55.53
580.928	55.72
581.267	55.92
581.606	56.11
581.945	56.27
582.283	56.42
582.622	56.61
582.961	56.74
583.3	56.9
583.639	57.08
583.977	57.31
584.316	57.4
584.654	57.51
584.993	57.59
585.332	57.74
585.67	57.83
586.008	58.02
586.347	58.16
586.685	58.28
587.024	58.39
587.362	58.47
587.7	58.53
588.038	58.74
588.376	58.87
588.715	59.01
589.053	59.12
589.391	59.28
589.729	59.33
590.067	59.48
590.404	59.61
590.742	59.65
591.08	59.71
591.418	59.81
591.756	59.9
592.093	59.98
592.431	60.06
592.769	60.23
593.106	60.4
593.444	60.45
593.781	60.56
594.119	60.66
594.456	60.72
594.793	60.84
595.131	60.83
595.468	60.89
595.805	60.92
596.143	61.02
596.48	61.08
596.817	61.13
597.154	61.14
597.491	61.21
597.828	61.28
598.165	61.33
598.502	61.38
598.839	61.42
599.176	61.52
599.512	61.57
599.849	61.61
600.186	61.73
600.523	61.97
600.859	62.07
601.196	62.18
601.532	62.39
601.869	62.45
602.205	62.61
602.542	62.71
602.878	62.79
603.215	62.86
603.551	62.88
603.887	63.01
604.223	63.08
604.56	63.2
604.896	63.31
605.232	63.44
605.568	63.55
605.904	63.74
606.24	63.73
606.576	63.75
606.912	63.78
607.248	63.8
607.583	63.79
607.919	63.88
608.255	63.9
608.591	63.91
608.926	63.98
609.262	64.05
609.597	64.03
609.933	64.21
610.268	64.29
610.604	64.44
610.939	64.46
611.275	64.57
611.61	64.55
611.945	64.59
612.281	64.64
612.616	64.62
612.951	64.64
613.286	64.75
613.621	64.96
613.956	65.05
614.291	65.04
614.626	65.11
614.961	65.16
615.296	65.26
615.631	65.32
615.966	65.39
616.3	65.41
616.635	65.52
616.97	65.45
617.304	65.49
617.639	65.52
617.973	65.57
618.308	65.58
618.642	65.61
618.977	65.63
619.311	65.64
619.646	65.79
619.98	65.75
620.314	65.83
620.648	65.78
620.983	65.77
621.317	65.82
621.651	65.81
621.985	65.74
622.319	65.7
622.653	65.74
622.987	65.84
623.321	65.85
623.655	66.06
623.988	66.13
624.322	66.15
624.656	66.15
624.99	66.15
625.323	66.26
625.657	66.28
625.99	66.28
626.324	66.28
626.657	66.33
626.991	66.42
627.324	66.37
627.658	66.41
627.991	66.46
628.324	66.58
628.657	66.62
628.991	66.72
629.324	66.76
629.657	66.71
629.99	66.67
630.323	66.65
630.656	66.55
630.989	66.53
631.322	66.45
631.655	66.44
631.987	66.49
632.32	66.44
632.653	66.56
632.986	66.67
633.318	66.8
633.651	66.71
633.984	66.67
634.316	66.76
634.649	66.75
634.981	66.83
635.313	66.81
635.646	66.82
635.978	66.78
636.31	66.85
636.643	66.91
636.975	66.89
637.307	67.12
637.639	67.19
637.971	67.22
638.303	67.38
638.635	67.57
638.967	67.58
639.299	67.6
639.631	67.5
639.963	67.53
640.295	67.4
640.626	67.5
640.958	67.64
641.29	67.61
641.621	67.69
641.953	67.72
642.285	67.79
642.616	67.8
642.948	67.9
643.279	67.91
643.61	68.04
643.942	68.09
644.273	67.97
644.604	68.01
644.936	68.03
645.267	68.01
645.598	67.85
645.929	67.85
646.26	67.8
646.591	67.9
646.922	67.85
647.253	67.92
647.584	67.85
647.915	67.76
648.245	67.75
648.576	67.61
648.907	67.58
649.238	67.51
649.568	67.53
649.899	67.55
650.229	67.65
650.56	67.57
650.89	67.52
651.221	67.6
651.551	67.57
651.882	67.62
652.212	67.59
652.542	67.59
652.872	67.66
653.203	67.74
653.533	67.71
653.863	67.76
654.193	67.77
654.523	67.9
654.853	67.96
655.183	68.04
655.513	68.2
655.843	68.22
656.172	68.34
656.502	68.39
656.832	68.48
657.162	68.46
657.491	68.28
657.821	68.41
658.15	68.36
658.48	68.37
658.809	68.33
659.139	68.45
659.468	68.51
659.798	68.58
660.127	68.67
660.456	68.69
660.785	68.61
661.115	68.62
661.444	68.63
661.773	68.68
662.102	68.72
662.431	68.72
662.76	68.71
663.089	68.59
663.418	68.57
663.747	68.4
664.076	68.26
664.404	68.47
664.733	68.45
665.062	68.55
665.39	68.52
665.719	68.47
666.048	68.33
666.376	68.31
666.705	68.25
667.033	68.08
667.362	68.1
667.69	68.17
668.018	68.28
668.347	68.26
668.675	68.19
669.003	68.2
669.331	68.24
669.659	68.16
669.987	68.25
670.315	68.21
670.643	68.32
670.971	68.46
671.299	68.55
671.627	68.73
671.955	68.74
672.283	68.75
672.61	68.99
672.938	69.13
673.266	69.17
673.593	69.17
673.921	69.26
674.249	69.28
674.576	69.28
674.904	69.12
675.231	69.19
675.558	69.21
675.886	69.23
676.213	69.23
676.54	69.42
676.867	69.45
677.195	69.46
677.522	69.42
677.849	69.39
678.176	69.27
678.503	69.04
678.83	68.96
679.157	68.95
679.484	68.81
679.81	68.81
680.137	68.73
680.464	68.59
680.791	68.58
681.117	68.53
681.444	68.62
681.771	68.68
682.097	68.69
682.424	68.8
682.75	68.85
683.077	68.85
683.403	68.81
683.729	68.8
684.056	68.82
684.382	68.92
684.708	68.9
685.034	68.93
685.36	69.14
685.686	69.02
686.012	69.17
686.339	69.22
686.664	69.2
686.99	69.21
687.316	69.46
687.642	69.48
687.968	69.48
688.294	69.44
688.619	69.41
688.945	69.41
689.271	69.39
689.596	69.19
689.922	69.23
690.247	69.17
690.573	69
690.898	69.04
691.224	68.86
691.549	68.87
691.874	68.92
692.2	68.73
692.525	68.91
692.85	68.81
693.175	68.58
693.5	68.43
693.825	68.41
694.15	68.21
694.475	68.31
694.8	68.38
695.125	68.3
695.45	68.37
695.775	68.33
696.099	68.31
696.424	68.45
696.749	68.41
697.073	68.38
697.398	68.52
697.723	68.51
698.047	68.7
698.372	68.62
698.696	68.71
699.02	68.78
699.345	68.69
699.669	68.79
699.993	68.94
700.318	69.08
700.642	69.19
700.966	69.32
701.29	69.26
701.614	69.18
701.938	69.37
702.262	69.3
702.586	69.3
702.91	69.28
703.234	69.2
703.557	69.1
703.881	69.29
704.205	69.28
704.529	69.24
704.852	69.14
705.176	69.62
705.499	69.54
705.823	69.36
706.146	69.29
706.47	69.05
706.793	69.18
707.117	69.17
707.44	69.08
707.763	68.98
708.086	68.93
708.409	69.03
708.733	69.05
709.056	69.2
709.379	69.28
709.702	69.22
710.025	69.28
710.348	69.56
710.671	69.32
710.993	69.25
711.316	69.45
711.639	69.44
711.962	69.23
712.284	69.3
712.607	69.5
712.93	69.32
713.252	69.56
713.575	69.48
713.897	69.37
714.22	69.71
714.542	69.7
714.864	69.77
715.187	69.71
715.509	69.55
715.831	69.59
716.153	69.5
716.475	69.51
716.798	69.45
717.12	69.22
717.442	69.32
717.764	69.19
718.085	69.16
718.407	69.05
718.729	68.9
719.051	68.8
719.373	68.82
719.695	69.13
720.016	69.19
720.338	69.04
720.659	69.3
720.981	68.89
721.302	68.88
721.624	68.87
721.945	69.01
722.267	69.06
722.588	68.96
722.909	69.07
723.231	69.15
723.552	69.04
723.873	69.21
724.194	69.22
724.515	69.36
724.836	69.44
725.157	69.66
725.478	69.63
725.799	69.58
726.12	69.6
726.441	69.69
726.762	69.39
727.083	69.8
727.403	69.62
727.724	69.86
728.045	69.93
728.365	70.03
728.686	69.98
729.006	69.97
729.327	70.08
729.647	70.04
729.967	69.95
730.288	70.24
730.608	70.19
730.928	70.05
731.249	69.99
731.569	69.71
731.889	69.6
732.209	69.67
732.529	69.89
732.849	69.69
733.169	69.62
733.489	69.65
733.809	69.41
734.129	69.59
734.448	69.49
734.768	69.42
735.088	69.42
735.408	69.4
735.727	69.43
736.047	69.54
736.366	69.6
736.686	69.66
737.005	69.69
737.325	69.88
737.644	70.24
737.963	70.46
738.283	70.49
738.602	70.51
738.921	70.59
739.24	70.4
739.56	70.58
739.879	70.56
740.198	70.76
740.517	70.85
740.836	70.72
741.155	70.82
741.473	71.1
741.792	70.88
742.111	70.8
742.43	70.83
742.748	70.65
743.067	70.75
743.386	70.75
743.704	70.77
744.023	70.42
744.341	70.13
744.66	70.21
744.978	70.41
745.297	70.51
745.615	70.47
745.933	70.41
746.252	70.6
746.57	70.66
746.888	70.44
747.206	70.29
747.524	70.36
747.842	70.32
748.16	70.25
748.478	70.85
748.796	71.12
749.114	70.98
749.432	71.19
749.749	70.97
750.067	71.05
750.385	70.7
750.703	70.84
751.02	71.04
751.338	71.01
751.655	70.84
751.973	71.01
752.29	70.95
752.608	71.15
752.925	70.9
753.242	71.07
753.56	71.24
753.877	71.24
754.194	71.18
754.511	70.92
754.828	71.04
755.145	70.28
755.462	70.08
755.779	70.56
756.096	70.49
756.413	70.43
756.73	70.39
757.047	70.59
757.364	70.37
757.68	70.38
757.997	70.25
758.314	70.77
758.63	70.81
758.947	70.59
759.264	70.49
759.58	70.88
759.896	70.67
760.213	70.38
760.529	70.3
760.846	70.23
761.162	70.46
761.478	70.33
761.794	70.76
762.11	71.2
762.426	71.03
762.743	70.93
763.059	70.95
763.375	71.08
763.69	71.02
764.006	71.1
764.322	71.12
764.638	71.16
764.954	70.97
765.27	71.03
765.585	71.29
765.901	71.28
766.216	70.92
766.532	70.94
766.848	71.16
767.163	71.28
767.478	71.51
767.794	71.38
768.109	71.11
768.424	70.98
768.74	70.62
769.055	70.3
769.37	70.22
769.685	70.28
770	69.99
770.315	70.1
770.63	70.15
770.945	70.18
771.26	69.85
771.575	70.18
771.89	69.63
772.205	69.54
772.52	69.56
772.834	69.85
773.149	69.83
773.464	69.64
773.778	69.76
774.093	69.5
774.407	69.74
774.722	70.08
775.036	70.19
775.351	70.14
775.665	70.23
775.979	70.2
776.293	69.9
776.608	70
776.922	69.48
777.236	69.6
777.55	69.58
777.864	69.77
778.178	69.65
778.492	69.64
778.806	69.68
779.12	69.47
779.434	69.38
779.747	69.37
780.061	69.64
780.375	69.45
780.689	68.86
781.002	68.82
781.316	68.77
781.629	68.88
781.943	69.07
782.256	69.47
782.57	69.75
782.883	70.4
783.196	70.58
783.51	70.9
783.823	70.62
784.136	70.53
784.449	70.66
784.762	70.47
785.075	70.76
785.388	70.57
785.701	70.89
786.014	70.88
786.327	70.68
786.64	70.52
786.953	70.97
787.266	71.44
787.578	71.33
787.891	71.57
788.204	71.16
788.516	70.8
788.829	70.67
789.141	70.27
789.454	70.25
789.766	70.19
790.079	69.93
790.391	70.07
790.703	70
791.016	69.83
791.328	69.57
791.64	69.53
791.952	69.55
792.264	69.19
792.576	68.89
792.888	68.93
793.2	69.35
793.512	68.96
793.824	68.88
794.136	69.12
794.448	69.01
794.76	69.27
795.071	69.63
795.383	69.06
795.695	68.78
796.006	68.42
796.318	68.7
796.629	68.83
796.941	69.38
797.252	69.81
797.564	70.5
797.875	69.91
798.186	70.04
798.497	69.73
798.809	69.84
799.12	69.63
799.431	69.68
799.742	69.18
800.053	69.1
800.364	69.67
800.675	69.24
800.986	68.34
801.297	68.19
801.608	68.05
801.918	68.37
802.229	69.02
802.54	68.47
802.851	67.82
803.161	67.97
803.472	67.35
803.782	67.34
804.093	66.4
804.403	67.57
804.714	67.79
805.024	68.39
805.334	68.79
805.645	69.13
805.955	69.23
806.265	69.61
806.575	69.75
806.885	69.71
807.195	70.44
807.505	71.07
807.815	70.75
808.125	70.7
808.435	70.95
808.745	70.25
809.055	70.82
809.365	70.72
809.674	70.64
809.984	70.93
810.294	69.64
810.603	69.95
810.913	68.91
811.222	69.08
811.532	69.09
811.841	68.66
812.151	69.12
812.46	69.13
812.769	68.82
813.079	69.29
813.388	68.45
813.697	67.74
814.006	67.85
814.315	67.2
814.624	67.03
814.933	67.11
815.242	67.9
815.551	67.72
815.86	68.23
816.169	68.82
816.478	68.46
816.786	69.05
817.095	69.57
817.404	70.27
817.712	69.38
818.021	69.6
818.33	69.6
818.638	69.02
818.947	69.52
819.255	69.89
819.563	69.43
819.872	69.73
820.18	70.01
820.488	70.25
820.796	70.65
821.105	70.96
821.413	70.81
821.721	70.68
822.029	71.02
822.337	71.24
822.645	71.29
822.953	71.41
823.26	71.64
823.568	71.44
823.876	71.41
824.184	71.65
824.491	71.86
824.799	71.91
825.107	71.94
825.414	72.08
825.722	71.93
826.029	72.3
826.337	72.32
826.644	72.31
826.951	72.16
827.259	72.39
827.566	72.08
827.873	72.33
828.18	72.45
828.488	72.65
828.795	72.47
829.102	72.52
829.409	72.44
829.716	72.37
830.023	72.44
830.329	72.62
830.636	72.53
830.943	71.82
831.25	71.82
831.557	72.24
831.863	71.65
832.17	71.85
832.476	71.13
832.783	71.2
833.089	70.74
833.396	71.22
833.702	71.15
834.009	71.42
834.315	70.83
834.621	70.67
834.928	70.06
835.234	70.3
835.54	70.36
835.846	70.53
836.152	69.86
836.458	70.13
836.764	69.84
837.07	69.68
837.376	69.95
837.682	69.74
837.988	69.68
838.293	69.66
838.599	69.66
838.905	69.52
839.211	69.29
839.516	70.3
839.822	69.28
840.127	68.76
840.433	68.8
840.738	69.18
841.044	68.69
841.349	68.21
841.654	66.75
841.959	65.35
842.265	65.45
842.57	64.73
842.875	63.94
843.18	63.51
843.485	62.51
843.79	63.27
844.095	63.6
844.4	63.19
844.705	61.79
845.01	60.98
845.315	61.49
845.619	61.04
845.924	60.27
846.229	61.44
846.533	61.42
846.838	60.94
847.142	59.52
847.447	59.73
847.751	60.36
848.056	62.45
848.36	64.62
848.664	61.88
848.969	64.91
849.273	65.67
849.577	65.3
849.881	66.8
850.185	63.55
850.489	62.82
850.794	64.11
851.097	66.68
851.401	66.84
851.705	65.81
852.009	67.62
852.313	69.08
852.617	68.44
852.92	67.54
853.224	68.18
853.528	69.5
853.831	67.84
854.135	67.17
854.438	64.54
854.742	63.09
855.045	66.04
855.349	63.7
855.652	63.44
855.955	62.71
856.259	62.53
856.562	64.15
856.865	65.15
857.168	61.69
857.471	61.05
857.774	62.17
858.077	63.69
858.38	63.83
858.683	60.19
858.986	61.55
859.289	61.91
859.592	61.61
859.894	60.73
860.197	63.16
860.5	62.94
860.802	63.83
861.105	63.3
861.407	60.9
861.71	61.25
862.012	60.69
862.315	60.98
862.617	60.72
862.919	61.2
863.222	60.59
863.524	62.62
863.826	63.68
864.128	62.47
864.43	62.92
864.732	62.64
865.034	63.44
865.336	63.29
865.638	62.33
865.94	61.03
866.242	61.53
866.544	58.44
866.846	56.08
867.147	58.26
867.449	61.03
867.751	63.98
868.052	62.58
868.354	61.85
868.655	63.67
868.957	64.38
869.258	64.59
869.56	63.73
869.861	62.66
870.162	59.81
870.463	59.82
870.765	59.3
871.066	59.17
871.367	58.6
871.668	58.02
871.969	57.62
872.27	59.05
872.571	62.09
872.872	65.05
873.173	66.42
873.473	65.8
873.774	63.86
874.075	62.19
874.376	61.95
874.676	64.35
874.977	63.48
875.277	63.24
875.578	61.39
875.878	61.82
876.179	62.18
876.479	64.35
876.78	64.72
877.08	64.15
877.38	62.97
877.68	65.9
877.981	65.5
878.281	67.48
878.581	67.64
