Data from BA28301_Reflection_00015.txt Node
Date: Mon Nov 18 15:45:32 EST 2019
User: vgr7
Spectrometer: USB2G7710
Scans to average: 3
Trigger mode: 4
Integration Time (sec): 2.000000E-2
Electric dark correction enabled: true
Boxcar width: 10
XAxis mode: Wavelengths
Number of Pixels in Spectrum: 2048
>>>>>Begin Spectral Data<<<<<
177.721	-316.96
178.105	-2614.29
178.488	-49.25
178.871	-18.35
179.254	-81.82
179.636	400.7
180.019	359.82
180.402	400
180.785	183.65
181.168	422.03
181.55	298.3
181.933	142.11
182.316	209.9
182.698	193.84
183.081	162.82
183.463	184.88
183.846	152.91
184.228	157.04
184.611	170.31
184.993	262.01
185.376	239.7
185.758	367.84
186.14	560.46
186.522	545.3
186.904	-843.7
187.287	2301.68
187.669	-551.48
188.051	-766.51
188.433	-511.66
188.815	-628.28
189.197	-1605.07
189.579	-392.9
189.961	-487.55
190.342	-758.32
190.724	-550.96
191.106	-341.53
191.488	-507.1
191.869	-226.39
192.251	-205
192.633	-328.68
193.014	-558.51
193.396	-786.87
193.777	-1767.11
194.159	-7005.88
194.54	-1247.92
194.922	-1044.9
195.303	-2176.82
195.684	1935.87
196.065	-1261.05
196.447	32452.94
196.828	-1797.28
197.209	-866.72
197.59	-4891.74
197.971	-10663.64
198.352	-829.36
198.733	-427.62
199.114	-1007.75
199.495	-289.67
199.876	-385.64
200.257	-275.4
200.638	-194.65
201.018	-177.18
201.399	-138.71
201.78	-122.71
202.16	-148.83
202.541	-231.49
202.922	-294.22
203.302	-318.49
203.683	-232.22
204.063	-324.79
204.444	-287.59
204.824	-325.37
205.204	-310.94
205.585	-312.49
205.965	-233.17
206.345	-472.14
206.725	-1610.77
207.106	12782.93
207.486	668.87
207.866	518.32
208.246	548.37
208.626	582.24
209.006	701.5
209.386	324.35
209.766	258.26
210.145	255.98
210.525	320.52
210.905	680.55
211.285	99300
211.664	-4615.6
212.044	1925.45
212.424	-866.07
212.803	-389.41
213.183	-537.02
213.562	-288.86
213.942	-211.63
214.321	-118.43
214.701	-106.29
215.08	-77.3
215.459	-63.76
215.838	-50.72
216.218	-47.94
216.597	-50.46
216.976	-48.55
217.355	-46.72
217.734	-32.76
218.113	-24.42
218.492	-19.23
218.871	-10.91
219.25	-14.35
219.629	-15.86
220.008	-4.35
220.387	-3.39
220.766	-8.11
221.144	-13.01
221.523	-17.2
221.902	-19.16
222.28	-42.01
222.659	-38.87
223.037	-41.57
223.416	-45.85
223.794	-45.28
224.173	-43.35
224.551	-32.39
224.929	-33.23
225.308	-30.82
225.686	-29.42
226.064	-27.61
226.442	-30.28
226.821	-27.35
227.199	-24.06
227.577	-21.23
227.955	-23.44
228.333	-21.09
228.711	-16.08
229.089	-13.09
229.467	-14.99
229.845	-13.94
230.222	-13.18
230.6	-13.9
230.978	-12.14
231.356	-9.36
231.733	-8.24
232.111	-7.38
232.488	-9.42
232.866	-10.96
233.243	-9.8
233.621	-10.95
233.998	-8.43
234.376	-7.79
234.753	-8.83
235.13	-7.32
235.508	-7.87
235.885	-6.35
236.262	-6.58
236.639	-7.17
237.016	-6.73
237.393	-4.09
237.77	-2.32
238.147	0.52
238.524	1.64
238.901	2.42
239.278	2.35
239.655	2.96
240.032	2.96
240.409	3.42
240.785	4.09
241.162	4.28
241.539	4.63
241.915	4.49
242.292	4.21
242.668	4.09
243.045	4.12
243.421	4.29
243.798	4.08
244.174	4.21
244.551	4.4
244.927	4.35
245.303	4.33
245.679	4.06
246.056	3.74
246.432	3.38
246.808	3.27
247.184	3.09
247.56	2.86
247.936	2.66
248.312	2.5
248.688	2.45
249.064	2.31
249.44	2.27
249.815	2.2
250.191	2.33
250.567	2.49
250.943	2.35
251.318	2.51
251.694	2.39
252.069	2.28
252.445	2.28
252.82	2.37
253.196	2.17
253.571	1.82
253.947	1.66
254.322	1.97
254.697	1.84
255.073	1.92
255.448	1.87
255.823	2.36
256.198	2.55
256.573	2.59
256.948	2.94
257.323	3.19
257.698	3.17
258.073	3.16
258.448	2.92
258.823	2.88
259.198	2.64
259.573	2.7
259.948	2.64
260.322	2.55
260.697	2.47
261.072	2.46
261.446	2.61
261.821	2.68
262.195	2.64
262.57	2.78
262.944	2.66
263.319	2.68
263.693	2.62
264.067	2.57
264.442	2.61
264.816	2.4
265.19	2.11
265.564	2.09
265.938	1.95
266.313	2.1
266.687	2.03
267.061	2.18
267.435	2.27
267.809	2.31
268.183	2.28
268.556	2.01
268.93	2.22
269.304	2.42
269.678	2.48
270.051	2.46
270.425	2.42
270.799	2.36
271.172	2.37
271.546	2.2
271.919	2.19
272.293	2.11
272.666	2.13
273.04	2.29
273.413	2.28
273.787	2.48
274.16	2.41
274.533	2.5
274.906	2.34
275.279	2.22
275.653	2.22
276.026	2.14
276.399	2.29
276.772	2.12
277.145	2
277.518	1.92
277.891	2
278.263	1.8
278.636	2.11
279.009	2.21
279.382	2.51
279.755	2.48
280.127	2.59
280.5	2.59
280.872	2.53
281.245	2.5
281.617	2.59
281.99	2.81
282.362	2.85
282.735	2.89
283.107	2.97
283.479	2.94
283.852	3.06
284.224	3.26
284.596	3.31
284.968	3.38
285.34	3.43
285.713	3.34
286.085	3.48
286.457	3.52
286.829	3.55
287.201	3.52
287.572	3.59
287.944	3.62
288.316	3.63
288.688	3.75
289.06	3.75
289.431	3.67
289.803	3.67
290.175	3.71
290.546	3.8
290.918	3.83
291.289	3.99
291.661	4.12
292.032	4.09
292.403	4.16
292.775	4.13
293.146	4.2
293.517	4.31
293.889	4.42
294.26	4.33
294.631	4.22
295.002	4.18
295.373	4.22
295.744	4.06
296.115	4.17
296.486	3.98
296.857	4.06
297.228	4.14
297.599	4.05
297.97	4.05
298.34	4.04
298.711	4.03
299.082	4.06
299.452	4.03
299.823	4.18
300.194	4.1
300.564	4.11
300.935	4.14
301.305	4.15
301.676	4.11
302.046	4.21
302.416	4.46
302.787	4.41
303.157	4.38
303.527	4.51
303.897	4.53
304.267	4.93
304.637	4.95
305.008	5.05
305.378	5.2
305.748	5.27
306.117	5.26
306.487	5.38
306.857	5.16
307.227	5.2
307.597	5.18
307.967	5.34
308.336	5.42
308.706	5.42
309.076	5.5
309.445	5.56
309.815	5.55
310.184	5.48
310.554	5.53
310.923	5.61
311.293	5.67
311.662	5.65
312.031	5.49
312.401	5.57
312.77	5.61
313.139	5.62
313.508	5.66
313.877	5.77
314.246	5.87
314.616	6.04
314.985	5.99
315.353	5.93
315.722	6.05
316.091	5.94
316.46	5.93
316.829	5.86
317.198	5.92
317.567	6.03
317.935	6.11
318.304	6.18
318.672	6.19
319.041	6.3
319.41	6.36
319.778	6.29
320.147	6.38
320.515	6.19
320.883	6.14
321.252	6.21
321.62	6.25
321.988	6.25
322.357	6.5
322.725	6.58
323.093	6.61
323.461	6.55
323.829	6.76
324.197	6.85
324.565	6.9
324.933	6.94
325.301	7.04
325.669	7.1
326.037	7.13
326.405	7.34
326.772	7.43
327.14	7.58
327.508	7.72
327.875	7.66
328.243	7.76
328.61	7.91
328.978	7.98
329.346	8.14
329.713	8.03
330.08	7.97
330.448	8.04
330.815	8.07
331.182	8.17
331.55	8.12
331.917	8.28
332.284	8.47
332.651	8.53
333.018	8.5
333.385	8.55
333.752	8.71
334.119	8.69
334.486	8.68
334.853	8.63
335.22	8.76
335.587	8.79
335.954	8.91
336.32	8.77
336.687	8.85
337.054	8.7
337.42	8.83
337.787	8.85
338.153	8.91
338.52	9
338.886	8.91
339.253	8.94
339.619	9
339.986	9.02
340.352	9.02
340.718	9.03
341.084	8.97
341.451	8.99
341.817	9.01
342.183	9.03
342.549	9.03
342.915	9.06
343.281	9.21
343.647	9.17
344.013	9.33
344.379	9.24
344.745	9.4
345.11	9.48
345.476	9.56
345.842	9.59
346.208	9.52
346.573	9.55
346.939	9.67
347.304	9.6
347.67	9.56
348.035	9.52
348.401	9.45
348.766	9.45
349.132	9.42
349.497	9.29
349.862	9.42
350.228	9.49
350.593	9.36
350.958	9.3
351.323	9.37
351.688	9.37
352.053	9.45
352.418	9.48
352.783	9.44
353.148	9.3
353.513	9.33
353.878	9.42
354.243	9.52
354.608	9.58
354.972	9.62
355.337	9.59
355.702	9.74
356.066	9.91
356.431	10
356.795	10.08
357.16	10.09
357.524	10
357.889	9.95
358.253	9.93
358.618	9.88
358.982	9.82
359.346	9.74
359.71	9.68
360.075	9.63
360.439	9.64
360.803	9.65
361.167	9.6
361.531	9.57
361.895	9.51
362.259	9.38
362.623	9.3
362.987	9.3
363.351	9.23
363.714	9.17
364.078	9.11
364.442	9
364.806	8.96
365.169	8.93
365.533	8.94
365.896	9
366.26	8.99
366.623	8.94
366.987	8.99
367.35	8.95
367.714	8.94
368.077	8.78
368.44	8.71
368.803	8.65
369.167	8.54
369.53	8.51
369.893	8.5
370.256	8.48
370.619	8.45
370.982	8.39
371.345	8.29
371.708	8.27
372.071	8.22
372.434	8.21
372.797	8.17
373.159	8.1
373.522	8
373.885	7.93
374.247	7.86
374.61	7.76
374.973	7.74
375.335	7.66
375.698	7.59
376.06	7.6
376.423	7.51
376.785	7.5
377.147	7.46
377.51	7.41
377.872	7.39
378.234	7.34
378.596	7.26
378.958	7.19
379.321	7.07
379.683	7.11
380.045	7.03
380.407	6.97
380.769	6.88
381.13	6.84
381.492	6.8
381.854	6.81
382.216	6.75
382.578	6.66
382.939	6.6
383.301	6.6
383.663	6.57
384.024	6.56
384.386	6.59
384.747	6.57
385.109	6.57
385.47	6.49
385.832	6.42
386.193	6.41
386.554	6.35
386.916	6.36
387.277	6.24
387.638	6.28
387.999	6.22
388.36	6.21
388.721	6.14
389.082	6.12
389.443	6.08
389.804	6.03
390.165	5.98
390.526	5.97
390.887	5.95
391.248	5.89
391.609	5.83
391.969	5.73
392.33	5.65
392.691	5.58
393.051	5.55
393.412	5.54
393.772	5.44
394.133	5.41
394.493	5.37
394.854	5.33
395.214	5.25
395.574	5.23
395.935	5.18
396.295	5.18
396.655	5.13
397.015	5.07
397.376	5.06
397.736	5.01
398.096	4.97
398.456	4.92
398.816	4.9
399.176	4.86
399.535	4.86
399.895	4.83
400.255	4.8
400.615	4.76
400.975	4.72
401.334	4.73
401.694	4.71
402.054	4.65
402.413	4.63
402.773	4.53
403.132	4.49
403.492	4.44
403.851	4.39
404.211	4.32
404.57	4.3
404.929	4.3
405.288	4.29
405.648	4.23
406.007	4.22
406.366	4.18
406.725	4.17
407.084	4.14
407.443	4.1
407.802	4.05
408.161	4.07
408.52	4.04
408.879	4.02
409.238	4.03
409.596	4.04
409.955	4.03
410.314	4.08
410.673	4.07
411.031	4.07
411.39	4.08
411.748	4.08
412.107	4.09
412.465	4.07
412.824	4.05
413.182	4.04
413.54	4.03
413.899	4.01
414.257	3.97
414.615	3.97
414.974	3.96
415.332	3.95
415.69	3.92
416.048	3.88
416.406	3.85
416.764	3.81
417.122	3.78
417.48	3.76
417.838	3.75
418.195	3.75
418.553	3.72
418.911	3.7
419.269	3.71
419.626	3.7
419.984	3.68
420.342	3.67
420.699	3.67
421.057	3.66
421.414	3.63
421.772	3.64
422.129	3.63
422.486	3.62
422.844	3.6
423.201	3.59
423.558	3.59
423.915	3.58
424.273	3.58
424.63	3.58
424.987	3.57
425.344	3.56
425.701	3.55
426.058	3.56
426.415	3.55
426.772	3.51
427.128	3.49
427.485	3.48
427.842	3.46
428.199	3.46
428.555	3.45
428.912	3.46
429.269	3.45
429.625	3.43
429.982	3.42
430.338	3.42
430.695	3.44
431.051	3.43
431.407	3.44
431.764	3.44
432.12	3.43
432.476	3.41
432.832	3.41
433.189	3.4
433.545	3.4
433.901	3.4
434.257	3.41
434.613	3.42
434.969	3.41
435.325	3.42
435.681	3.41
436.036	3.42
436.392	3.42
436.748	3.4
437.104	3.38
437.459	3.38
437.815	3.4
438.171	3.37
438.526	3.36
438.882	3.35
439.237	3.35
439.593	3.33
439.948	3.33
440.304	3.34
440.659	3.33
441.014	3.31
441.369	3.31
441.725	3.31
442.08	3.29
442.435	3.3
442.79	3.29
443.145	3.27
443.5	3.25
443.855	3.23
444.21	3.22
444.565	3.23
444.92	3.23
445.275	3.2
445.629	3.2
445.984	3.19
446.339	3.17
446.693	3.16
447.048	3.16
447.403	3.14
447.757	3.12
448.112	3.11
448.466	3.12
448.82	3.1
449.175	3.09
449.529	3.09
449.883	3.07
450.238	3.05
450.592	3.06
450.946	3.07
451.3	3.06
451.654	3.07
452.008	3.07
452.362	3.07
452.716	3.07
453.07	3.07
453.424	3.08
453.778	3.1
454.132	3.11
454.486	3.12
454.839	3.14
455.193	3.13
455.547	3.12
455.9	3.14
456.254	3.15
456.607	3.15
456.961	3.15
457.314	3.15
457.668	3.16
458.021	3.15
458.375	3.16
458.728	3.17
459.081	3.18
459.434	3.18
459.787	3.17
460.141	3.17
460.494	3.17
460.847	3.17
461.2	3.17
461.553	3.18
461.906	3.19
462.259	3.19
462.611	3.22
462.964	3.24
463.317	3.24
463.67	3.22
464.022	3.22
464.375	3.21
464.728	3.23
465.08	3.24
465.433	3.27
465.785	3.27
466.138	3.27
466.49	3.27
466.843	3.28
467.195	3.27
467.547	3.3
467.899	3.31
468.252	3.3
468.604	3.31
468.956	3.3
469.308	3.3
469.66	3.29
470.012	3.28
470.364	3.3
470.716	3.31
471.068	3.35
471.42	3.36
471.772	3.38
472.123	3.38
472.475	3.39
472.827	3.39
473.178	3.39
473.53	3.38
473.882	3.38
474.233	3.37
474.585	3.36
474.936	3.34
475.288	3.34
475.639	3.36
475.99	3.35
476.342	3.35
476.693	3.34
477.044	3.36
477.395	3.34
477.746	3.32
478.097	3.31
478.448	3.3
478.8	3.31
479.15	3.3
479.501	3.3
479.852	3.29
480.203	3.29
480.554	3.31
480.905	3.33
481.255	3.33
481.606	3.34
481.957	3.34
482.307	3.36
482.658	3.36
483.009	3.37
483.359	3.38
483.709	3.39
484.06	3.39
484.41	3.4
484.761	3.4
485.111	3.41
485.461	3.43
485.811	3.42
486.162	3.43
486.512	3.43
486.862	3.45
487.212	3.45
487.562	3.46
487.912	3.46
488.262	3.47
488.612	3.48
488.961	3.49
489.311	3.5
489.661	3.5
490.011	3.51
490.36	3.51
490.71	3.51
491.06	3.52
491.409	3.53
491.759	3.53
492.108	3.53
492.458	3.53
492.807	3.54
493.157	3.57
493.506	3.58
493.855	3.6
494.204	3.61
494.554	3.62
494.903	3.62
495.252	3.65
495.601	3.66
495.95	3.69
496.299	3.71
496.648	3.72
496.997	3.75
497.346	3.77
497.695	3.81
498.043	3.86
498.392	3.87
498.741	3.9
499.09	3.94
499.438	3.99
499.787	4.04
500.135	4.05
500.484	4.07
500.832	4.12
501.181	4.16
501.529	4.2
501.878	4.28
502.226	4.34
502.574	4.39
502.923	4.42
503.271	4.47
503.619	4.53
503.967	4.58
504.315	4.63
504.663	4.69
505.011	4.76
505.359	4.81
505.707	4.87
506.055	4.93
506.403	5.01
506.751	5.06
507.098	5.11
507.446	5.2
507.794	5.26
508.141	5.3
508.489	5.38
508.837	5.46
509.184	5.54
509.531	5.61
509.879	5.69
510.226	5.78
510.574	5.88
510.921	5.94
511.268	6.01
511.616	6.09
511.963	6.15
512.31	6.21
512.657	6.29
513.004	6.38
513.351	6.46
513.698	6.54
514.045	6.64
514.392	6.73
514.739	6.83
515.086	6.94
515.432	7.04
515.779	7.11
516.126	7.2
516.473	7.27
516.819	7.33
517.166	7.38
517.512	7.46
517.859	7.51
518.205	7.6
518.552	7.69
518.898	7.79
519.245	7.88
519.591	7.97
519.937	8.05
520.283	8.12
520.629	8.22
520.976	8.31
521.322	8.39
521.668	8.52
522.014	8.63
522.36	8.75
522.706	8.88
523.052	9.04
523.398	9.19
523.743	9.33
524.089	9.5
524.435	9.68
524.781	9.83
525.126	9.96
525.472	10.09
525.817	10.24
526.163	10.35
526.509	10.46
526.854	10.59
527.199	10.7
527.545	10.81
527.89	10.91
528.235	11.05
528.581	11.16
528.926	11.28
529.271	11.4
529.616	11.52
529.961	11.64
530.306	11.76
530.651	11.9
530.996	12.05
531.341	12.2
531.686	12.36
532.031	12.51
532.376	12.69
532.721	12.86
533.065	13.01
533.41	13.18
533.755	13.36
534.099	13.53
534.444	13.72
534.788	13.91
535.133	14.09
535.477	14.25
535.822	14.46
536.166	14.67
536.51	14.89
536.855	15.14
537.199	15.4
537.543	15.67
537.887	15.92
538.231	16.21
538.576	16.48
538.92	16.75
539.264	17.03
539.608	17.28
539.951	17.5
540.295	17.74
540.639	17.97
540.983	18.2
541.327	18.42
541.671	18.64
542.014	18.86
542.358	19.09
542.701	19.32
543.045	19.55
543.389	19.74
543.732	19.99
544.075	20.23
544.419	20.46
544.762	20.68
545.105	20.95
545.449	21.19
545.792	21.44
546.135	21.72
546.478	22.01
546.821	22.32
547.165	22.65
547.508	22.98
547.851	23.31
548.194	23.6
548.536	23.97
548.879	24.3
549.222	24.66
549.565	24.99
549.908	25.31
550.25	25.64
550.593	26.01
550.936	26.33
551.278	26.69
551.621	27.03
551.963	27.39
552.306	27.71
552.648	28.04
552.991	28.42
553.333	28.73
553.675	29
554.017	29.33
554.36	29.67
554.702	29.97
555.044	30.28
555.386	30.61
555.728	30.91
556.07	31.24
556.412	31.52
556.754	31.85
557.096	32.22
557.438	32.57
557.78	32.97
558.121	33.27
558.463	33.62
558.805	33.98
559.147	34.31
559.488	34.66
559.83	34.98
560.171	35.23
560.513	35.59
560.854	35.92
561.196	36.17
561.537	36.44
561.878	36.72
562.22	36.99
562.561	37.25
562.902	37.54
563.243	37.83
563.584	38.11
563.925	38.42
564.266	38.69
564.607	38.91
564.948	39.12
565.289	39.44
565.63	39.66
565.971	39.84
566.312	40.05
566.653	40.24
566.993	40.49
567.334	40.7
567.675	40.85
568.015	41.11
568.356	41.36
568.696	41.6
569.037	41.86
569.377	42.06
569.718	42.3
570.058	42.47
570.398	42.66
570.739	42.86
571.079	43.04
571.419	43.21
571.759	43.46
572.099	43.61
572.439	43.78
572.779	43.93
573.119	44.12
573.459	44.34
573.799	44.52
574.139	44.63
574.479	44.85
574.819	45.05
575.158	45.21
575.498	45.39
575.838	45.54
576.177	45.73
576.517	45.94
576.856	46.06
577.196	46.27
577.535	46.43
577.875	46.58
578.214	46.68
578.553	46.84
578.893	46.94
579.232	47.14
579.571	47.29
579.91	47.44
580.25	47.58
580.589	47.71
580.928	47.8
581.267	48.02
581.606	48.12
581.945	48.24
582.283	48.39
582.622	48.52
582.961	48.64
583.3	48.73
583.639	48.92
583.977	49.07
584.316	49.15
584.654	49.28
584.993	49.44
585.332	49.59
585.67	49.65
586.008	49.81
586.347	49.84
586.685	49.93
587.024	49.99
587.362	50.13
587.7	50.17
588.038	50.35
588.376	50.42
588.715	50.6
589.053	50.68
589.391	50.7
589.729	50.79
590.067	50.87
590.404	50.92
590.742	50.95
591.08	51.12
591.418	51.23
591.756	51.29
592.093	51.44
592.431	51.54
592.769	51.66
593.106	51.69
593.444	51.84
593.781	51.87
594.119	51.98
594.456	52.04
594.793	52.15
595.131	52.2
595.468	52.27
595.805	52.25
596.143	52.36
596.48	52.45
596.817	52.47
597.154	52.55
597.491	52.63
597.828	52.68
598.165	52.69
598.502	52.75
598.839	52.81
599.176	52.8
599.512	52.85
599.849	52.95
600.186	53.05
600.523	53.1
600.859	53.15
601.196	53.3
601.532	53.32
601.869	53.35
602.205	53.44
602.542	53.43
602.878	53.55
603.215	53.62
603.551	53.62
603.887	53.69
604.223	53.7
604.56	53.78
604.896	53.85
605.232	53.95
605.568	53.99
605.904	54.04
606.24	54.12
606.576	54.19
606.912	54.23
607.248	54.25
607.583	54.28
607.919	54.31
608.255	54.23
608.591	54.32
608.926	54.4
609.262	54.44
609.597	54.56
609.933	54.61
610.268	54.56
610.604	54.69
610.939	54.68
611.275	54.77
611.61	54.75
611.945	54.77
612.281	54.73
612.616	54.71
612.951	54.75
613.286	54.72
613.621	54.72
613.956	54.72
614.291	54.79
614.626	54.84
614.961	54.96
615.296	54.99
615.631	55.03
615.966	55.05
616.3	55.02
616.635	55
616.97	54.94
617.304	55.1
617.639	55.11
617.973	55.15
618.308	55.03
618.642	55.05
618.977	55.01
619.311	55.15
619.646	55.25
619.98	55.33
620.314	55.48
620.648	55.52
620.983	55.66
621.317	55.66
621.651	55.62
621.985	55.71
622.319	55.79
622.653	55.92
622.987	55.81
623.321	55.78
623.655	55.83
623.988	55.94
624.322	55.87
624.656	55.85
624.99	55.89
625.323	56.01
625.657	56.06
625.99	56.13
626.324	56.07
626.657	56.05
626.991	56
627.324	55.97
627.658	56.04
627.991	55.99
628.324	55.97
628.657	55.99
628.991	56.01
629.324	56
629.657	55.97
629.99	56.14
630.323	56.31
630.656	56.36
630.989	56.27
631.322	56.29
631.655	56.32
631.987	56.31
632.32	56.3
632.653	56.34
632.986	56.43
633.318	56.48
633.651	56.46
633.984	56.5
634.316	56.43
634.649	56.37
634.981	56.39
635.313	56.5
635.646	56.59
635.978	56.57
636.31	56.61
636.643	56.58
636.975	56.64
637.307	56.59
637.639	56.54
637.971	56.59
638.303	56.63
638.635	56.65
638.967	56.71
639.299	56.82
639.631	56.76
639.963	56.66
640.295	56.57
640.626	56.74
640.958	56.74
641.29	56.81
641.621	56.92
641.953	56.88
642.285	56.86
642.616	56.88
642.948	56.87
643.279	56.89
643.61	56.82
643.942	56.7
644.273	56.65
644.604	56.75
644.936	56.72
645.267	56.7
645.598	56.77
645.929	56.86
646.26	56.86
646.591	56.9
646.922	56.84
647.253	56.96
647.584	56.88
647.915	56.88
648.245	56.96
648.576	56.98
648.907	57.04
649.238	56.92
649.568	57.01
649.899	56.97
650.229	56.95
650.56	57.01
650.89	57.11
651.221	57.21
651.551	57.08
651.882	57.15
652.212	57.27
652.542	57.18
652.872	57.1
653.203	57.09
653.533	57.14
653.863	57.19
654.193	57.14
654.523	57.25
654.853	57.35
655.183	57.3
655.513	57.25
655.843	57.2
656.172	57.3
656.502	57.18
656.832	57.31
657.162	57.36
657.491	57.36
657.821	57.29
658.15	57.22
658.48	57.27
658.809	57.32
659.139	57.17
659.468	57.25
659.798	57.23
660.127	57.29
660.456	57.23
660.785	57.3
661.115	57.43
661.444	57.31
661.773	57.29
662.102	57.34
662.431	57.32
662.76	57.43
663.089	57.41
663.418	57.37
663.747	57.36
664.076	57.46
664.404	57.5
664.733	57.6
665.062	57.66
665.39	57.7
665.719	57.66
666.048	57.77
666.376	57.77
666.705	57.76
667.033	57.62
667.362	57.62
667.69	57.62
668.018	57.56
668.347	57.61
668.675	57.68
669.003	57.58
669.331	57.61
669.659	57.64
669.987	57.71
670.315	57.84
670.643	57.78
670.971	57.76
671.299	57.82
671.627	57.78
671.955	57.71
672.283	57.68
672.61	57.68
672.938	57.73
673.266	57.69
673.593	57.71
673.921	57.78
674.249	57.88
674.576	57.81
674.904	57.84
675.231	57.82
675.558	57.62
675.886	57.6
676.213	57.71
676.54	57.71
676.867	57.71
677.195	57.71
677.522	57.77
677.849	57.58
678.176	57.6
678.503	57.45
678.83	57.48
679.157	57.48
679.484	57.42
679.81	57.55
680.137	57.68
680.464	57.73
680.791	57.78
681.117	57.73
681.444	57.87
681.771	57.95
682.097	58.16
682.424	58.28
682.75	58.45
683.077	58.35
683.403	58.32
683.729	58.31
684.056	58.21
684.382	58.16
684.708	58.28
685.034	58.25
685.36	58.51
685.686	58.55
686.012	58.57
686.339	58.62
686.664	58.38
686.99	58.34
687.316	58.31
687.642	58.26
687.968	58.23
688.294	58.13
688.619	57.97
688.945	57.78
689.271	57.73
689.596	57.68
689.922	57.71
690.247	57.52
690.573	57.57
690.898	57.48
691.224	57.45
691.549	57.38
691.874	57.41
692.2	57.41
692.525	57.39
692.85	57.47
693.175	57.44
693.5	57.49
693.825	57.3
694.15	57.45
694.475	57.58
694.8	57.47
695.125	57.54
695.45	57.59
695.775	57.6
696.099	57.64
696.424	57.76
696.749	57.71
697.073	57.85
697.398	57.88
697.723	58.06
698.047	58.15
698.372	58.22
698.696	58.29
699.02	58.11
699.345	58.1
699.669	58.02
699.993	58.04
700.318	58.08
700.642	58.24
700.966	58.11
701.29	58.1
701.614	58.14
701.938	58.06
702.262	58.04
702.586	58.11
702.91	58.14
703.234	57.9
703.557	57.83
703.881	57.87
704.205	57.83
704.529	57.81
704.852	57.77
705.176	57.7
705.499	57.52
705.823	57.61
706.146	57.54
706.47	57.59
706.793	57.46
707.117	57.4
707.44	57.18
707.763	57.35
708.086	57.11
708.409	57.34
708.733	57.35
709.056	57.28
709.379	57.13
709.702	57.12
710.025	57.11
710.348	57.31
710.671	57.27
710.993	57.35
711.316	57.14
711.639	57.1
711.962	57.11
712.284	57.13
712.607	57.06
712.93	57.16
713.252	57.34
713.575	57.52
713.897	57.65
714.22	57.86
714.542	57.83
714.864	57.87
715.187	57.64
715.509	57.59
715.831	57.67
716.153	57.8
716.475	57.8
716.798	57.94
717.12	57.79
717.442	57.73
717.764	57.59
718.085	57.77
718.407	57.79
718.729	57.84
719.051	58.01
719.373	58.01
719.695	57.83
720.016	57.73
720.338	57.69
720.659	57.55
720.981	57.34
721.302	57.34
721.624	57.43
721.945	57.52
722.267	57.46
722.588	57.4
722.909	57.27
723.231	57.32
723.552	57.12
723.873	56.94
724.194	56.92
724.515	56.91
724.836	56.75
725.157	56.73
725.478	56.8
725.799	56.68
726.12	56.77
726.441	57.06
726.762	56.96
727.083	57.04
727.403	57.04
727.724	57.26
728.045	57.28
728.365	57.2
728.686	57.36
729.006	57.52
729.327	57.66
729.647	57.56
729.967	57.47
730.288	57.72
730.608	57.88
730.928	57.97
731.249	58.09
731.569	58.25
731.889	58.22
732.209	58.5
732.529	58.49
732.849	58.63
733.169	58.49
733.489	58.59
733.809	58.64
734.129	58.56
734.448	58.34
734.768	58.23
735.088	58.25
735.408	58.17
735.727	58.27
736.047	58.23
736.366	58.46
736.686	58.47
737.005	58.4
737.325	58.45
737.644	58.51
737.963	58.32
738.283	58.14
738.602	58.2
738.921	57.84
739.24	57.83
739.56	57.58
739.879	57.75
740.198	57.81
740.517	57.59
740.836	57.66
741.155	57.71
741.473	57.74
741.792	58.09
742.111	58.11
742.43	58.02
742.748	58.09
743.067	58.2
743.386	58.46
743.704	58.47
744.023	58.65
744.341	58.72
744.66	59.15
744.978	59.52
745.297	59.66
745.615	59.76
745.933	60.06
746.252	60.29
746.57	60.52
746.888	60.41
747.206	60.45
747.524	60.56
747.842	60.78
748.16	60.83
748.478	60.66
748.796	60.85
749.114	61.05
749.432	61.06
749.749	60.85
750.067	60.69
750.385	60.63
750.703	60.07
751.02	59.89
751.338	59.55
751.655	59.14
751.973	59.04
752.29	59.04
752.608	59.11
752.925	58.89
753.242	58.52
753.56	58.19
753.877	58.1
754.194	57.92
754.511	57.93
754.828	57.77
755.145	57.66
755.462	57.35
755.779	57.19
756.096	56.91
756.413	57.02
756.73	56.86
757.047	57.06
757.364	57.45
757.68	57.26
757.997	57.5
758.314	57.78
758.63	57.56
758.947	57.81
759.264	57.18
759.58	57.23
759.896	57.38
760.213	57.92
760.529	57.83
760.846	57.89
761.162	57.82
761.478	57.8
761.794	57.75
762.11	58.01
762.426	58.1
762.743	58.29
763.059	58.24
763.375	58.27
763.69	58.27
764.006	58.18
764.322	58.29
764.638	58.25
764.954	58.42
765.27	58.58
765.585	58.29
765.901	58.72
766.216	58.98
766.532	58.94
766.848	58.84
767.163	59.07
767.478	59.25
767.794	59.18
768.109	59.2
768.424	59.24
768.74	59.06
769.055	58.85
769.37	58.98
769.685	59.22
770	59.47
770.315	59.12
770.63	59.28
770.945	59.32
771.26	59.36
771.575	59.28
771.89	58.96
772.205	59.21
772.52	58.96
772.834	58.88
773.149	58.97
773.464	58.68
773.778	58.68
774.093	58.65
774.407	58.45
774.722	58.21
775.036	58.12
775.351	58.33
775.665	58.33
775.979	58.31
776.293	58.12
776.608	57.62
776.922	57.94
777.236	58.16
777.55	57.93
777.864	57.72
778.178	57.44
778.492	57.96
778.806	57.52
779.12	57.22
779.434	57.19
779.747	56.57
780.061	57.15
780.375	56.98
780.689	57.06
781.002	57.42
781.316	57.61
781.629	57.76
781.943	57.63
782.256	57.68
782.57	57.23
782.883	57.39
783.196	57.86
783.51	57.94
783.823	57.87
784.136	57.97
784.449	57.54
784.762	57.8
785.075	57.2
785.388	57.58
785.701	58.29
786.014	57.51
786.327	57.99
786.64	57.6
786.953	57.67
787.266	57.19
787.578	57.19
787.891	57.38
788.204	57.52
788.516	57.73
788.829	57.74
789.141	58.09
789.454	57.77
789.766	57.64
790.079	57.22
790.391	56.65
790.703	57.22
791.016	57.5
791.328	57.39
791.64	57.44
791.952	57.45
792.264	56.53
792.576	57.12
792.888	57.33
793.2	57.36
793.512	57.38
793.824	57.54
794.136	57.29
794.448	57.67
794.76	57.65
795.071	57.56
795.383	57.73
795.695	57.66
796.006	57.39
796.318	57.01
796.629	57.02
796.941	58.17
797.252	58.35
797.564	58.72
797.875	58.56
798.186	58.45
798.497	58.11
798.809	58.3
799.12	57.96
799.431	57.77
799.742	57.67
800.053	57.8
800.364	57.79
800.675	58.27
800.986	58.01
801.297	58.08
801.608	57.51
801.918	57.06
802.229	57.34
802.54	57.61
802.851	58.05
803.161	58.34
803.472	57.62
803.782	56.68
804.093	56.55
804.403	56.59
804.714	56.96
805.024	56.97
805.334	57.35
805.645	57.71
805.955	58.75
806.265	58.86
806.575	59.21
806.885	59.39
807.195	59.05
807.505	58.88
807.815	58.78
808.125	59.11
808.435	58.97
808.745	58.07
809.055	58.89
809.365	58.61
809.674	58.19
809.984	57.76
810.294	57.83
810.603	57.68
810.913	57.69
811.222	57.56
811.532	57.16
811.841	57.56
812.151	57.63
812.46	56.62
812.769	56.68
813.079	55.98
813.388	55.67
813.697	55.63
814.006	55.86
814.315	55.6
814.624	55.83
814.933	56.52
815.242	57.44
815.551	56.42
815.86	56.12
816.169	56.5
816.478	56.3
816.786	56.83
817.095	56.96
817.404	57
817.712	57.68
818.021	58.51
818.33	57.68
818.638	57.18
818.947	56.98
819.255	57.11
819.563	57.66
819.872	57.42
820.18	57.5
820.488	57.4
820.796	57.87
821.105	57.61
821.413	57.59
821.721	57.72
822.029	57.68
822.337	57.96
822.645	58
822.953	58.33
823.26	58.45
823.568	58.46
823.876	58.49
824.184	58.24
824.491	58.38
824.799	58.53
825.107	58.77
825.414	59
825.722	59.16
826.029	59.07
826.337	59.48
826.644	59.53
826.951	59.55
827.259	59.35
827.566	59.68
827.873	59.58
828.18	59.48
828.488	59.7
828.795	59.59
829.102	59.37
829.409	58.9
829.716	58.56
830.023	58.58
830.329	58.31
830.636	58.8
830.943	58.38
831.25	58.23
831.557	58.17
831.863	57.6
832.17	57.04
832.476	56.69
832.783	56.13
833.089	56.53
833.396	56.93
833.702	57.19
834.009	56.7
834.315	56.98
834.621	56.9
834.928	56.98
835.234	57.28
835.54	57.66
835.846	58.2
836.152	58.4
836.458	57.71
836.764	58.31
837.07	57.84
837.376	58.11
837.682	58.68
837.988	58.64
838.293	58.83
838.599	59.05
838.905	59.51
839.211	59.74
839.516	59.1
839.822	58.97
840.127	58.93
840.433	59
840.738	59
841.044	58.9
841.349	58.48
841.654	57.64
841.959	57.83
842.265	58.09
842.57	58.57
842.875	60.81
843.18	59.21
843.485	59.8
843.79	58.56
844.095	58.95
844.4	59.12
844.705	58.61
845.01	58.58
845.315	58.24
845.619	58.75
845.924	58.93
846.229	58.27
846.533	57.81
846.838	57.7
847.142	58.18
847.447	56.89
847.751	58.52
848.056	58.08
848.36	58.57
848.664	58.13
848.969	56.15
849.273	53.37
849.577	53.39
849.881	52.01
850.185	54.66
850.489	52.08
850.794	48.86
851.097	50.11
851.401	51.12
851.705	50.94
852.009	49.74
852.313	48.72
852.617	48.63
852.92	50.96
853.224	52.52
853.528	52.16
853.831	52.07
854.135	50.22
854.438	51.39
854.742	49.53
855.045	49.03
855.349	49.37
855.652	51.02
855.955	52.25
856.259	52.37
856.562	50.09
856.865	51.5
857.168	53.99
857.471	54.07
857.774	52.64
858.077	53.58
858.38	52.88
858.683	53.22
858.986	53.29
859.289	49.7
859.592	50.09
859.894	51.67
860.197	53.12
860.5	54.32
860.802	53.76
861.105	54.5
861.407	53.46
861.71	53.17
862.012	53
862.315	53.1
862.617	53.96
862.919	54.74
863.222	51.81
863.524	51.67
863.826	51.18
864.128	51.64
864.43	51.44
864.732	51.18
865.034	49.85
865.336	50.94
865.638	49.08
865.94	47.25
866.242	44.23
866.544	43.31
866.846	42.32
867.147	44.01
867.449	43.79
867.751	45.24
868.052	45.08
868.354	46.97
868.655	46.44
868.957	47.02
869.258	48.15
869.56	51.66
869.861	50.23
870.162	47.88
870.463	48.39
870.765	51.47
871.066	52.21
871.367	52.63
871.668	50.55
871.969	52.31
872.27	54.93
872.571	54.89
872.872	58.01
873.173	57
873.473	55.41
873.774	56.7
874.075	56.65
874.376	59.28
874.676	54.71
874.977	55.34
875.277	54.77
875.578	54.05
875.878	51.98
876.179	54.2
876.479	57.31
876.78	55.57
877.08	52.14
877.38	53.01
877.68	54.74
877.981	56.23
878.281	58.04
878.581	54.74
