Data from BA28420_Reflection_00009.txt Node
Date: Mon Nov 18 16:08:31 EST 2019
User: vgr7
Spectrometer: USB2G7710
Scans to average: 3
Trigger mode: 4
Integration Time (sec): 2.000000E-2
Electric dark correction enabled: true
Boxcar width: 10
XAxis mode: Wavelengths
Number of Pixels in Spectrum: 2048
>>>>>Begin Spectral Data<<<<<
177.721	70.25
178.105	-122.22
178.488	-192.4
178.871	47.27
179.254	15.07
179.636	-4.62
180.019	23.44
180.402	200
180.785	-479.12
181.168	-404.27
181.55	-290.8
181.933	106.23
182.316	98.84
182.698	120.16
183.081	145.77
183.463	107.73
183.846	143.29
184.228	102.11
184.611	102.81
184.993	48.58
185.376	-9.83
185.758	322.22
186.14	74.11
186.522	269.15
186.904	-24.54
187.287	200.63
187.669	-910.1
188.051	96.51
188.433	174.49
188.815	8.99
189.197	4.47
189.579	4.27
189.961	64.33
190.342	38.9
190.724	7.62
191.106	-2.87
191.488	-35.55
191.869	-316.08
192.251	-344.44
192.633	-149.55
193.014	-38.6
193.396	-41.82
193.777	-25.05
194.159	-22.79
194.54	-55.94
194.922	-52.5
195.303	-36.05
195.684	-92.48
196.065	-201.52
196.447	-152.3
196.828	-110.09
197.209	-166.3
197.59	-95.08
197.971	-187.01
198.352	316.01
198.733	141.07
199.114	182.1
199.495	92.23
199.876	68.66
200.257	84.1
200.638	57.94
201.018	49.55
201.399	18.03
201.78	23.63
202.16	12.78
202.541	-15.21
202.922	-5.35
203.302	-0.5
203.683	-7.15
204.063	-9.38
204.444	-25.84
204.824	-19.52
205.204	-35.22
205.585	-44.03
205.965	-62.61
206.345	-101.14
206.725	-106.06
207.106	-89.81
207.486	-222.95
207.866	-202.86
208.246	-273.25
208.626	-340.99
209.006	-214.4
209.386	-238.31
209.766	-280.36
210.145	-532.7
210.525	-162.43
210.905	-93.62
211.285	-94.49
211.664	-113.39
212.044	-162.15
212.424	-54.15
212.803	-147.72
213.183	-13.48
213.562	47.09
213.942	82.36
214.321	101.07
214.701	73.79
215.08	46.06
215.459	23.24
215.838	20.26
216.218	30.91
216.597	39.13
216.976	55.51
217.355	43.22
217.734	51.43
218.113	50.79
218.492	50.54
218.871	53.18
219.25	54.16
219.629	40.49
220.008	17.09
220.387	15.13
220.766	11.67
221.144	-12.12
221.523	-20.78
221.902	-43.71
222.28	-51.33
222.659	-46
223.037	-56.75
223.416	-55.02
223.794	-49.14
224.173	-46.04
224.551	-35.48
224.929	-49
225.308	-37.35
225.686	-32.01
226.064	-27.65
226.442	-27.17
226.821	-23.9
227.199	-20.81
227.577	-20.78
227.955	-19.43
228.333	-18.22
228.711	-15.64
229.089	-9.34
229.467	-11.85
229.845	-10.23
230.222	-10.73
230.6	-9.32
230.978	-8.19
231.356	-2.58
231.733	-1.42
232.111	-0.7
232.488	-1.05
232.866	1.42
233.243	0.84
233.621	0.08
233.998	-0.52
234.376	-0.1
234.753	0.23
235.13	-0.49
235.508	0.76
235.885	1.39
236.262	0.26
236.639	0.85
237.016	0.63
237.393	1.6
237.77	2.25
238.147	2.95
238.524	2.88
238.901	3.36
239.278	2.78
239.655	3.45
240.032	3.43
240.409	2.95
240.785	2.55
241.162	2.74
241.539	2.45
241.915	2.34
242.292	2.03
242.668	2.06
243.045	2.3
243.421	2.3
243.798	2.44
244.174	2.56
244.551	2.51
244.927	2.2
245.303	2.37
245.679	2.27
246.056	2.33
246.432	2.26
246.808	2.17
247.184	2
247.56	1.52
247.936	1.34
248.312	1.28
248.688	1.45
249.064	1.42
249.44	1.3
249.815	1.33
250.191	1.69
250.567	1.62
250.943	1.48
251.318	1.6
251.694	1.55
252.069	1.49
252.445	1.52
252.82	1.66
253.196	1.49
253.571	1.66
253.947	1.88
254.322	2.26
254.697	2.09
255.073	1.99
255.448	2.12
255.823	2
256.198	2
256.573	1.7
256.948	1.79
257.323	2.01
257.698	1.89
258.073	1.79
258.448	1.82
258.823	1.68
259.198	1.66
259.573	1.65
259.948	1.72
260.322	1.76
260.697	1.73
261.072	1.83
261.446	1.84
261.821	1.72
262.195	1.58
262.57	1.75
262.944	1.77
263.319	1.7
263.693	1.87
264.067	2
264.442	2.33
264.816	2.29
265.19	2.22
265.564	2.25
265.938	2.17
266.313	2.06
266.687	2.38
267.061	2.44
267.435	2.37
267.809	2.29
268.183	2.24
268.556	2.15
268.93	2.07
269.304	2.06
269.678	2.01
270.051	2.05
270.425	2.01
270.799	2.04
271.172	2.12
271.546	2.13
271.919	1.88
272.293	1.6
272.666	1.58
273.04	1.71
273.413	1.63
273.787	1.52
274.16	1.61
274.533	1.47
274.906	1.32
275.279	1.5
275.653	1.46
276.026	1.38
276.399	1.51
276.772	1.45
277.145	1.42
277.518	1.37
277.891	1.43
278.263	1.35
278.636	1.25
279.009	1.26
279.382	1.2
279.755	1.31
280.127	1.57
280.5	1.79
280.872	1.67
281.245	1.75
281.617	1.95
281.99	1.99
282.362	2.1
282.735	1.96
283.107	1.82
283.479	1.97
283.852	2.05
284.224	1.92
284.596	1.91
284.968	2
285.34	2.06
285.713	2.08
286.085	2.13
286.457	2.18
286.829	2.16
287.201	2.15
287.572	2.14
287.944	2.07
288.316	1.91
288.688	1.85
289.06	1.8
289.431	1.68
289.803	1.72
290.175	1.72
290.546	1.94
290.918	1.93
291.289	1.79
291.661	1.79
292.032	1.87
292.403	1.97
292.775	1.87
293.146	1.72
293.517	1.72
293.889	1.8
294.26	1.73
294.631	1.67
295.002	1.67
295.373	1.64
295.744	1.6
296.115	1.6
296.486	1.64
296.857	1.74
297.228	1.87
297.599	1.91
297.97	1.85
298.34	1.82
298.711	1.84
299.082	1.86
299.452	1.93
299.823	1.92
300.194	1.9
300.564	1.95
300.935	2.17
301.305	2.04
301.676	2.03
302.046	2.15
302.416	2.25
302.787	2.33
303.157	2.48
303.527	2.46
303.897	2.48
304.267	2.61
304.637	2.55
305.008	2.54
305.378	2.57
305.748	2.65
306.117	2.6
306.487	2.65
306.857	2.8
307.227	2.72
307.597	2.77
307.967	2.83
308.336	2.76
308.706	2.6
309.076	2.7
309.445	2.54
309.815	2.51
310.184	2.56
310.554	2.46
310.923	2.4
311.293	2.41
311.662	2.42
312.031	2.34
312.401	2.31
312.77	2.3
313.139	2.29
313.508	2.22
313.877	2.19
314.246	2.2
314.616	2.08
314.985	2.02
315.353	1.99
315.722	2.07
316.091	1.98
316.46	2.06
316.829	1.99
317.198	2.18
317.567	2.14
317.935	2.1
318.304	2.34
318.672	2.45
319.041	2.5
319.41	2.42
319.778	2.46
320.147	2.57
320.515	2.44
320.883	2.33
321.252	2.45
321.62	2.54
321.988	2.56
322.357	2.61
322.725	2.66
323.093	2.76
323.461	2.69
323.829	2.9
324.197	2.96
324.565	2.96
324.933	3.03
325.301	3
325.669	3.13
326.037	2.96
326.405	2.93
326.772	3.01
327.14	3.1
327.508	3.12
327.875	3.01
328.243	3.18
328.61	3.29
328.978	3.34
329.346	3.5
329.713	3.47
330.08	3.54
330.448	3.67
330.815	3.55
331.182	3.62
331.55	3.51
331.917	3.51
332.284	3.72
332.651	3.67
333.018	3.73
333.385	3.61
333.752	3.56
334.119	3.63
334.486	3.51
334.853	3.48
335.22	3.58
335.587	3.86
335.954	3.83
336.32	3.81
336.687	3.75
337.054	3.74
337.42	3.72
337.787	3.74
338.153	3.69
338.52	3.86
338.886	3.73
339.253	3.74
339.619	3.7
339.986	3.61
340.352	3.65
340.718	3.68
341.084	3.74
341.451	4.01
341.817	3.98
342.183	4
342.549	4.05
342.915	4.02
343.281	3.88
343.647	3.91
344.013	3.81
344.379	3.77
344.745	3.73
345.11	3.78
345.476	3.76
345.842	3.71
346.208	3.72
346.573	3.82
346.939	3.93
347.304	4.06
347.67	3.98
348.035	3.85
348.401	3.92
348.766	3.92
349.132	3.74
349.497	3.77
349.862	3.88
350.228	3.99
350.593	4.04
350.958	4.11
351.323	4.15
351.688	4.2
352.053	4.38
352.418	4.47
352.783	4.46
353.148	4.45
353.513	4.52
353.878	4.55
354.243	4.6
354.608	4.59
354.972	4.59
355.337	4.69
355.702	4.89
356.066	4.87
356.431	4.87
356.795	5.02
357.16	5.04
357.524	5.03
357.889	4.92
358.253	4.87
358.618	4.87
358.982	4.81
359.346	4.79
359.71	4.71
360.075	4.66
360.439	4.7
360.803	4.7
361.167	4.66
361.531	4.6
361.895	4.53
362.259	4.49
362.623	4.46
362.987	4.43
363.351	4.34
363.714	4.37
364.078	4.34
364.442	4.27
364.806	4.25
365.169	4.23
365.533	4.28
365.896	4.27
366.26	4.24
366.623	4.25
366.987	4.27
367.35	4.26
367.714	4.24
368.077	4.24
368.44	4.17
368.803	4.15
369.167	4.14
369.53	4.11
369.893	4.16
370.256	4.14
370.619	4.11
370.982	4.08
371.345	4.02
371.708	4.05
372.071	4.01
372.434	3.96
372.797	3.93
373.159	3.85
373.522	3.86
373.885	3.83
374.247	3.87
374.61	3.91
374.973	3.87
375.335	3.85
375.698	3.83
376.06	3.87
376.423	3.93
376.785	3.91
377.147	4.01
377.51	3.98
377.872	3.99
378.234	3.99
378.596	4.02
378.958	3.99
379.321	3.95
379.683	3.96
380.045	3.99
380.407	3.98
380.769	3.99
381.13	3.98
381.492	4.02
381.854	3.95
382.216	3.83
382.578	3.84
382.939	3.81
383.301	3.73
383.663	3.74
384.024	3.7
384.386	3.66
384.747	3.6
385.109	3.58
385.47	3.56
385.832	3.51
386.193	3.52
386.554	3.53
386.916	3.51
387.277	3.48
387.638	3.46
387.999	3.43
388.36	3.41
388.721	3.39
389.082	3.32
389.443	3.31
389.804	3.34
390.165	3.26
390.526	3.27
390.887	3.26
391.248	3.25
391.609	3.25
391.969	3.25
392.33	3.24
392.691	3.17
393.051	3.13
393.412	3.15
393.772	3.07
394.133	3.07
394.493	3.04
394.854	3.03
395.214	2.99
395.574	2.96
395.935	2.96
396.295	2.93
396.655	2.92
397.015	2.88
397.376	2.86
397.736	2.87
398.096	2.85
398.456	2.87
398.816	2.84
399.176	2.77
399.535	2.73
399.895	2.7
400.255	2.75
400.615	2.72
400.975	2.71
401.334	2.72
401.694	2.66
402.054	2.65
402.413	2.63
402.773	2.61
403.132	2.6
403.492	2.58
403.851	2.59
404.211	2.6
404.57	2.65
404.929	2.64
405.288	2.62
405.648	2.61
406.007	2.57
406.366	2.55
406.725	2.59
407.084	2.61
407.443	2.6
407.802	2.58
408.161	2.57
408.52	2.53
408.879	2.52
409.238	2.54
409.596	2.56
409.955	2.53
410.314	2.54
410.673	2.53
411.031	2.51
411.39	2.48
411.748	2.44
412.107	2.42
412.465	2.4
412.824	2.4
413.182	2.38
413.54	2.39
413.899	2.39
414.257	2.36
414.615	2.33
414.974	2.32
415.332	2.27
415.69	2.26
416.048	2.26
416.406	2.26
416.764	2.24
417.122	2.23
417.48	2.24
417.838	2.23
418.195	2.21
418.553	2.22
418.911	2.22
419.269	2.21
419.626	2.19
419.984	2.18
420.342	2.17
420.699	2.17
421.057	2.16
421.414	2.14
421.772	2.14
422.129	2.15
422.486	2.14
422.844	2.15
423.201	2.14
423.558	2.13
423.915	2.13
424.273	2.13
424.63	2.12
424.987	2.11
425.344	2.08
425.701	2.09
426.058	2.07
426.415	2.06
426.772	2.06
427.128	2.07
427.485	2.08
427.842	2.08
428.199	2.1
428.555	2.1
428.912	2.12
429.269	2.11
429.625	2.08
429.982	2.08
430.338	2.08
430.695	2.08
431.051	2.07
431.407	2.06
431.764	2.05
432.12	2.03
432.476	2.03
432.832	2.05
433.189	2.07
433.545	2.07
433.901	2.06
434.257	2.04
434.613	2.04
434.969	2.03
435.325	2.02
435.681	2.01
436.036	2
436.392	1.99
436.748	1.98
437.104	1.99
437.459	2
437.815	1.99
438.171	1.99
438.526	2.01
438.882	2
439.237	1.99
439.593	2.01
439.948	2.01
440.304	2.01
440.659	1.99
441.014	1.99
441.369	2
441.725	1.99
442.08	1.98
442.435	1.99
442.79	1.99
443.145	1.98
443.5	1.98
443.855	1.98
444.21	1.98
444.565	1.98
444.92	1.98
445.275	1.97
445.629	1.97
445.984	1.97
446.339	1.97
446.693	1.97
447.048	1.97
447.403	1.96
447.757	1.95
448.112	1.94
448.466	1.94
448.82	1.93
449.175	1.95
449.529	1.96
449.883	1.93
450.238	1.93
450.592	1.93
450.946	1.91
451.3	1.9
451.654	1.91
452.008	1.92
452.362	1.9
452.716	1.89
453.07	1.89
453.424	1.89
453.778	1.88
454.132	1.88
454.486	1.88
454.839	1.87
455.193	1.89
455.547	1.89
455.9	1.91
456.254	1.92
456.607	1.92
456.961	1.9
457.314	1.92
457.668	1.93
458.021	1.92
458.375	1.92
458.728	1.92
459.081	1.9
459.434	1.9
459.787	1.92
460.141	1.93
460.494	1.93
460.847	1.93
461.2	1.92
461.553	1.92
461.906	1.93
462.259	1.95
462.611	1.95
462.964	1.95
463.317	1.93
463.67	1.93
464.022	1.93
464.375	1.95
464.728	1.95
465.08	1.98
465.433	1.99
465.785	2.01
466.138	2.03
466.49	2.05
466.843	2.06
467.195	2.06
467.547	2.06
467.899	2.07
468.252	2.09
468.604	2.11
468.956	2.11
469.308	2.11
469.66	2.1
470.012	2.09
470.364	2.11
470.716	2.14
471.068	2.15
471.42	2.15
471.772	2.16
472.123	2.17
472.475	2.13
472.827	2.15
473.178	2.13
473.53	2.12
473.882	2.13
474.233	2.12
474.585	2.11
474.936	2.11
475.288	2.1
475.639	2.1
475.99	2.09
476.342	2.11
476.693	2.11
477.044	2.11
477.395	2.12
477.746	2.11
478.097	2.09
478.448	2.08
478.8	2.08
479.15	2.05
479.501	2.05
479.852	2.06
480.203	2.05
480.554	2.05
480.905	2.06
481.255	2.06
481.606	2.06
481.957	2.07
482.307	2.09
482.658	2.09
483.009	2.07
483.359	2.07
483.709	2.07
484.06	2.06
484.41	2.06
484.761	2.07
485.111	2.06
485.461	2.07
485.811	2.07
486.162	2.07
486.512	2.09
486.862	2.09
487.212	2.1
487.562	2.11
487.912	2.13
488.262	2.13
488.612	2.14
488.961	2.15
489.311	2.15
489.661	2.16
490.011	2.17
490.36	2.19
490.71	2.2
491.06	2.21
491.409	2.24
491.759	2.25
492.108	2.25
492.458	2.28
492.807	2.29
493.157	2.31
493.506	2.33
493.855	2.34
494.204	2.35
494.554	2.37
494.903	2.38
495.252	2.38
495.601	2.41
495.95	2.42
496.299	2.44
496.648	2.47
496.997	2.47
497.346	2.5
497.695	2.54
498.043	2.55
498.392	2.57
498.741	2.61
499.09	2.64
499.438	2.69
499.787	2.71
500.135	2.74
500.484	2.77
500.832	2.8
501.181	2.85
501.529	2.88
501.878	2.91
502.226	2.95
502.574	2.99
502.923	3
503.271	3.06
503.619	3.09
503.967	3.13
504.315	3.15
504.663	3.21
505.011	3.24
505.359	3.29
505.707	3.32
506.055	3.37
506.403	3.43
506.751	3.48
507.098	3.52
507.446	3.57
507.794	3.63
508.141	3.68
508.489	3.73
508.837	3.8
509.184	3.86
509.531	3.93
509.879	3.99
510.226	4.07
510.574	4.12
510.921	4.17
511.268	4.23
511.616	4.31
511.963	4.38
512.31	4.45
512.657	4.53
513.004	4.6
513.351	4.66
513.698	4.72
514.045	4.79
514.392	4.89
514.739	4.96
515.086	5.03
515.432	5.11
515.779	5.15
516.126	5.23
516.473	5.31
516.819	5.39
517.166	5.47
517.512	5.53
517.859	5.61
518.205	5.71
518.552	5.79
518.898	5.87
519.245	5.93
519.591	5.99
519.937	6.05
520.283	6.15
520.629	6.26
520.976	6.35
521.322	6.46
521.668	6.56
522.014	6.68
522.36	6.79
522.706	6.93
523.052	7.08
523.398	7.21
523.743	7.36
524.089	7.5
524.435	7.66
524.781	7.82
525.126	7.94
525.472	8.05
525.817	8.17
526.163	8.29
526.509	8.41
526.854	8.53
527.199	8.64
527.545	8.74
527.89	8.84
528.235	8.95
528.581	9.04
528.926	9.16
529.271	9.25
529.616	9.37
529.961	9.47
530.306	9.62
530.651	9.76
530.996	9.89
531.341	10.05
531.686	10.18
532.031	10.32
532.376	10.49
532.721	10.65
533.065	10.82
533.41	10.97
533.755	11.16
534.099	11.33
534.444	11.51
534.788	11.69
535.133	11.85
535.477	12.05
535.822	12.27
536.166	12.48
536.51	12.72
536.855	12.95
537.199	13.21
537.543	13.43
537.887	13.68
538.231	13.92
538.576	14.16
538.92	14.43
539.264	14.65
539.608	14.87
539.951	15.13
540.295	15.33
540.639	15.56
540.983	15.74
541.327	15.94
541.671	16.15
542.014	16.36
542.358	16.6
542.701	16.77
543.045	16.95
543.389	17.14
543.732	17.33
544.075	17.55
544.419	17.77
544.762	17.99
545.105	18.2
545.449	18.45
545.792	18.68
546.135	18.93
546.478	19.2
546.821	19.48
547.165	19.74
547.508	20.05
547.851	20.33
548.194	20.6
548.536	20.89
548.879	21.18
549.222	21.42
549.565	21.69
549.908	22.02
550.25	22.3
550.593	22.6
550.936	22.9
551.278	23.14
551.621	23.43
551.963	23.74
552.306	24.02
552.648	24.28
552.991	24.59
553.333	24.84
553.675	25.13
554.017	25.39
554.36	25.6
554.702	25.83
555.044	26.07
555.386	26.34
555.728	26.59
556.07	26.83
556.412	27.1
556.754	27.35
557.096	27.56
557.438	27.85
557.78	28.12
558.121	28.42
558.463	28.68
558.805	28.89
559.147	29.11
559.488	29.39
559.83	29.61
560.171	29.8
560.513	30.03
560.854	30.24
561.196	30.46
561.537	30.72
561.878	30.87
562.22	31.06
562.561	31.27
562.902	31.46
563.243	31.65
563.584	31.91
563.925	32.09
564.266	32.28
564.607	32.44
564.948	32.62
565.289	32.76
565.63	32.98
565.971	33.19
566.312	33.36
566.653	33.49
566.993	33.68
567.334	33.86
567.675	34.03
568.015	34.23
568.356	34.39
568.696	34.54
569.037	34.76
569.377	34.91
569.718	35.1
570.058	35.29
570.398	35.44
570.739	35.5
571.079	35.63
571.419	35.8
571.759	35.95
572.099	36.06
572.439	36.19
572.779	36.31
573.119	36.41
573.459	36.55
573.799	36.68
574.139	36.76
574.479	36.85
574.819	37
575.158	37.08
575.498	37.24
575.838	37.32
576.177	37.39
576.517	37.55
576.856	37.61
577.196	37.67
577.535	37.77
577.875	37.99
578.214	38.12
578.553	38.24
578.893	38.32
579.232	38.44
579.571	38.55
579.91	38.65
580.25	38.79
580.589	38.85
580.928	39.01
581.267	39.2
581.606	39.37
581.945	39.48
582.283	39.64
582.622	39.76
582.961	39.89
583.3	39.97
583.639	40.13
583.977	40.22
584.316	40.35
584.654	40.47
584.993	40.58
585.332	40.62
585.67	40.68
586.008	40.85
586.347	41.01
586.685	41.11
587.024	41.22
587.362	41.27
587.7	41.39
588.038	41.38
588.376	41.42
588.715	41.46
589.053	41.53
589.391	41.51
589.729	41.54
590.067	41.58
590.404	41.71
590.742	41.7
591.08	41.81
591.418	41.88
591.756	42.02
592.093	42
592.431	42.15
592.769	42.21
593.106	42.22
593.444	42.25
593.781	42.39
594.119	42.46
594.456	42.54
594.793	42.59
595.131	42.67
595.468	42.78
595.805	42.82
596.143	42.85
596.48	42.95
596.817	42.96
597.154	43.06
597.491	43.08
597.828	43.16
598.165	43.19
598.502	43.29
598.839	43.29
599.176	43.42
599.512	43.43
599.849	43.51
600.186	43.55
600.523	43.63
600.859	43.61
601.196	43.59
601.532	43.59
601.869	43.6
602.205	43.65
602.542	43.7
602.878	43.7
603.215	43.75
603.551	43.79
603.887	43.84
604.223	43.85
604.56	43.9
604.896	43.92
605.232	44.01
605.568	44.05
605.904	44
606.24	43.95
606.576	44
606.912	44.05
607.248	44.13
607.583	44.12
607.919	44.15
608.255	44.26
608.591	44.31
608.926	44.42
609.262	44.44
609.597	44.47
609.933	44.65
610.268	44.74
610.604	44.78
610.939	44.82
611.275	44.89
611.61	44.88
611.945	44.89
612.281	44.85
612.616	44.82
612.951	44.92
613.286	45.05
613.621	45.1
613.956	45.07
614.291	45.02
614.626	45.07
614.961	45.14
615.296	45.13
615.631	45.18
615.966	45.22
616.3	45.28
616.635	45.24
616.97	45.15
617.304	45.15
617.639	45.2
617.973	45.28
618.308	45.3
618.642	45.43
618.977	45.53
619.311	45.62
619.646	45.65
619.98	45.73
620.314	45.72
620.648	45.67
620.983	45.76
621.317	45.88
621.651	45.96
621.985	45.97
622.319	46.09
622.653	46.13
622.987	46.09
623.321	46.11
623.655	46.09
623.988	46.17
624.322	46.14
624.656	46.12
624.99	46.14
625.323	46.17
625.657	46.14
625.99	46.12
626.324	46.14
626.657	46.24
626.991	46.21
627.324	46.25
627.658	46.32
627.991	46.38
628.324	46.39
628.657	46.32
628.991	46.3
629.324	46.29
629.657	46.33
629.99	46.44
630.323	46.45
630.656	46.58
630.989	46.51
631.322	46.48
631.655	46.49
631.987	46.54
632.32	46.53
632.653	46.54
632.986	46.59
633.318	46.59
633.651	46.63
633.984	46.67
634.316	46.71
634.649	46.77
634.981	46.76
635.313	46.75
635.646	46.82
635.978	46.93
636.31	46.91
636.643	46.92
636.975	46.83
637.307	46.82
637.639	46.75
637.971	46.79
638.303	46.89
638.635	47.03
638.967	46.94
639.299	46.95
639.631	47
639.963	46.97
640.295	46.94
640.626	46.83
640.958	46.93
641.29	46.9
641.621	46.9
641.953	46.96
642.285	47.14
642.616	47.14
642.948	47.09
643.279	47.03
643.61	47.1
643.942	47.19
644.273	47.26
644.604	47.31
644.936	47.34
645.267	47.39
645.598	47.34
645.929	47.49
646.26	47.58
646.591	47.55
646.922	47.66
647.253	47.71
647.584	47.81
647.915	47.66
648.245	47.67
648.576	47.67
648.907	47.55
649.238	47.47
649.568	47.57
649.899	47.63
650.229	47.72
650.56	47.77
650.89	47.82
651.221	47.75
651.551	47.75
651.882	47.73
652.212	47.74
652.542	47.8
652.872	47.79
653.203	47.7
653.533	47.84
653.863	47.73
654.193	47.84
654.523	47.77
654.853	47.97
655.183	48.04
655.513	48.1
655.843	48.11
656.172	48.19
656.502	48.19
656.832	48.15
657.162	48.07
657.491	48.07
657.821	48
658.15	48
658.48	48.07
658.809	48.11
659.139	48.1
659.468	48.07
659.798	48.04
660.127	48.13
660.456	48.05
660.785	48.11
661.115	48.05
661.444	48.02
661.773	48.04
662.102	48.02
662.431	47.98
662.76	48.04
663.089	47.94
663.418	47.95
663.747	47.94
664.076	48.09
664.404	48.06
664.733	48.1
665.062	48.24
665.39	48.27
665.719	48.26
666.048	48.31
666.376	48.34
666.705	48.39
667.033	48.29
667.362	48.43
667.69	48.49
668.018	48.53
668.347	48.7
668.675	48.58
669.003	48.52
669.331	48.54
669.659	48.59
669.987	48.71
670.315	48.61
670.643	48.72
670.971	48.73
671.299	48.75
671.627	48.76
671.955	48.67
672.283	48.69
672.61	48.73
672.938	48.74
673.266	48.74
673.593	48.91
673.921	49.01
674.249	48.97
674.576	48.83
674.904	48.77
675.231	48.73
675.558	48.76
675.886	48.77
676.213	48.66
676.54	48.67
676.867	48.59
677.195	48.68
677.522	48.71
677.849	48.72
678.176	48.7
678.503	48.64
678.83	48.72
679.157	48.61
679.484	48.72
679.81	48.59
680.137	48.54
680.464	48.34
680.791	48.43
681.117	48.33
681.444	48.51
681.771	48.6
682.097	48.6
682.424	48.64
682.75	48.78
683.077	48.93
683.403	48.88
683.729	48.91
684.056	48.99
684.382	48.81
684.708	48.73
685.034	48.72
685.36	48.85
685.686	48.76
686.012	48.77
686.339	48.72
686.664	48.83
686.99	48.87
687.316	48.82
687.642	48.71
687.968	48.91
688.294	48.87
688.619	48.84
688.945	48.81
689.271	48.77
689.596	48.81
689.922	48.76
690.247	48.81
690.573	48.79
690.898	48.67
691.224	48.77
691.549	48.96
691.874	48.88
692.2	48.82
692.525	48.93
692.85	49.15
693.175	49.2
693.5	49.24
693.825	49.4
694.15	49.53
694.475	49.6
694.8	49.47
695.125	49.53
695.45	49.4
695.775	49.45
696.099	49.35
696.424	49.21
696.749	49.23
697.073	49.11
697.398	49.04
697.723	49.14
698.047	49.18
698.372	49.21
698.696	49.33
699.02	49.44
699.345	49.49
699.669	49.41
699.993	49.34
700.318	49.4
700.642	49.24
700.966	49.29
701.29	49.21
701.614	49.22
701.938	49
702.262	49.16
702.586	49.11
702.91	49.37
703.234	49.57
703.557	49.76
703.881	49.98
704.205	50.19
704.529	50.18
704.852	50.12
705.176	50.03
705.499	50.02
705.823	49.82
706.146	49.74
706.47	49.67
706.793	49.64
707.117	49.47
707.44	49.6
707.763	49.7
708.086	49.8
708.409	49.78
708.733	49.83
709.056	49.74
709.379	49.81
709.702	49.8
710.025	49.54
710.348	49.34
710.671	49.09
710.993	49.05
711.316	48.99
711.639	49.01
711.962	48.82
712.284	48.66
712.607	48.7
712.93	48.84
713.252	48.86
713.575	49
713.897	49
714.22	48.98
714.542	48.75
714.864	48.72
715.187	48.85
715.509	48.9
715.831	49.02
716.153	48.85
716.475	48.79
716.798	48.87
717.12	48.89
717.442	49.04
717.764	48.96
718.085	49.03
718.407	48.96
718.729	48.96
719.051	49.21
719.373	49.3
719.695	48.95
720.016	48.94
720.338	48.8
720.659	48.81
720.981	48.86
721.302	48.89
721.624	48.87
721.945	48.73
722.267	48.79
722.588	48.88
722.909	49.22
723.231	49.31
723.552	49.21
723.873	49.21
724.194	49.46
724.515	49.48
724.836	49.39
725.157	49.43
725.478	49.56
725.799	49.44
726.12	49.54
726.441	49.72
726.762	49.78
727.083	49.79
727.403	49.93
727.724	49.99
728.045	50.03
728.365	49.93
728.686	49.94
729.006	49.85
729.327	49.72
729.647	49.56
729.967	49.51
730.288	49.89
730.608	49.9
730.928	49.86
731.249	49.96
731.569	50.11
731.889	50.49
732.209	50.62
732.529	50.65
732.849	50.5
733.169	50.29
733.489	50.38
733.809	50.45
734.129	50.5
734.448	50.55
734.768	50.55
735.088	50.73
735.408	50.78
735.727	50.94
736.047	50.92
736.366	51.01
736.686	51.04
737.005	50.81
737.325	50.78
737.644	50.59
737.963	50.49
738.283	50.31
738.602	49.81
738.921	49.76
739.24	49.9
739.56	49.9
739.879	50.18
740.198	50.09
740.517	50.15
740.836	49.92
741.155	49.88
741.473	49.85
741.792	49.8
742.111	49.77
742.43	49.8
742.748	49.65
743.067	49.83
743.386	49.96
743.704	50.01
744.023	50.01
744.341	50.25
744.66	50.67
744.978	50.72
745.297	50.94
745.615	51.05
745.933	51.09
746.252	51.3
746.57	51.69
746.888	51.69
747.206	51.63
747.524	52.04
747.842	52
748.16	52.28
748.478	52.05
748.796	52.26
749.114	52.39
749.432	52.41
749.749	52.31
750.067	52.02
750.385	51.94
750.703	52.08
751.02	51.83
751.338	51.62
751.655	51.51
751.973	51.41
752.29	51.25
752.608	51.01
752.925	51.11
753.242	50.82
753.56	50.93
753.877	50.68
754.194	50.42
754.511	50.23
754.828	49.72
755.145	49.78
755.462	49.37
755.779	49.31
756.096	49.31
756.413	49.09
756.73	48.94
757.047	48.83
757.364	48.64
757.68	48.85
757.997	48.68
758.314	48.96
758.63	48.97
758.947	49.03
759.264	48.88
759.58	48.74
759.896	48.79
760.213	48.69
760.529	48.94
760.846	48.9
761.162	48.99
761.478	49.21
761.794	49.29
762.11	49.47
762.426	49.41
762.743	49.46
763.059	49.51
763.375	49.63
763.69	49.98
764.006	50.08
764.322	50.01
764.638	50.22
764.954	50.41
765.27	50.36
765.585	50.29
765.901	50.6
766.216	50.62
766.532	50.65
766.848	50.54
767.163	50.65
767.478	50.68
767.794	50.71
768.109	50.68
768.424	50.77
768.74	50.94
769.055	50.81
769.37	50.73
769.685	50.94
770	51.1
770.315	50.79
770.63	50.72
770.945	50.55
771.26	50.18
771.575	49.55
771.89	49.56
772.205	49.83
772.52	49.67
772.834	49.82
773.149	49.77
773.464	50.33
773.778	50.03
774.093	49.97
774.407	50.05
774.722	50.28
775.036	49.98
775.351	49.83
775.665	50.3
775.979	50.26
776.293	49.82
776.608	49.73
776.922	49.62
777.236	50.02
777.55	50.2
777.864	50.71
778.178	51.39
778.492	51.83
778.806	51.71
779.12	51.58
779.434	51.33
779.747	51.21
780.061	50.77
780.375	51.25
780.689	51.13
781.002	51.07
781.316	50.76
781.629	51.3
781.943	51.84
782.256	51.72
782.57	52.14
782.883	52.02
783.196	51.89
783.51	52.06
783.823	51.79
784.136	51.9
784.449	51.2
784.762	51.14
785.075	51.02
785.388	50.57
785.701	50.37
786.014	50.65
786.327	50.59
786.64	51.08
786.953	50.57
787.266	50.65
787.578	50.49
787.891	50.73
788.204	50.9
788.516	50.58
788.829	50.53
789.141	50.52
789.454	51.33
789.766	51.4
790.079	51.26
790.391	51.45
790.703	51.41
791.016	51.76
791.328	51.11
791.64	51.09
791.952	51.54
792.264	51.65
792.576	50.98
792.888	50.94
793.2	50.41
793.512	50.58
793.824	50.46
794.136	50.69
794.448	51.02
794.76	50.28
795.071	50.04
795.383	49.75
795.695	49.88
796.006	49.56
796.318	49.89
796.629	49.68
796.941	50.13
797.252	50.05
797.564	50.42
797.875	50.94
798.186	51.09
798.497	51.02
798.809	51.09
799.12	51.21
799.431	51.41
799.742	51.89
800.053	52.18
800.364	52.66
800.675	52.3
800.986	52.03
801.297	52.67
801.608	52.87
801.918	53.48
802.229	53.37
802.54	53.44
802.851	54.02
803.161	53.86
803.472	53.1
803.782	53.4
804.093	52.83
804.403	53.1
804.714	52.62
805.024	52.21
805.334	52.76
805.645	52.99
805.955	52.37
806.265	52.19
806.575	51.91
806.885	51.73
807.195	51.96
807.505	52.09
807.815	52.01
808.125	52.19
808.435	51.86
808.745	52.21
809.055	52.21
809.365	51.15
809.674	51.6
809.984	51.87
810.294	51.05
810.603	51.76
810.913	51.85
811.222	51.88
811.532	52.94
811.841	52.42
812.151	52.97
812.46	53.5
812.769	52.99
813.079	53.16
813.388	53.26
813.697	53.59
814.006	52.94
814.315	52.75
814.624	51.99
814.933	52.15
815.242	51.27
815.551	51.18
815.86	50.94
816.169	51.23
816.478	50.78
816.786	51.54
817.095	51.06
817.404	50.26
817.712	49.62
818.021	48.98
818.33	48.59
818.638	48.07
818.947	48.02
819.255	48.52
819.563	48.64
819.872	48.74
820.18	48.77
820.488	49.03
820.796	49.31
821.105	49.45
821.413	49.5
821.721	49.67
822.029	49.69
822.337	49.74
822.645	49.77
822.953	49.88
823.26	49.81
823.568	49.72
823.876	49.79
824.184	50.05
824.491	50.13
824.799	50.28
825.107	50.32
825.414	50.51
825.722	50.65
826.029	50.72
826.337	50.72
826.644	50.73
826.951	50.93
827.259	50.94
827.566	50.85
827.873	50.79
828.18	50.98
828.488	51.16
828.795	51.23
829.102	51.31
829.409	51.36
829.716	51.12
830.023	50.94
830.329	50.68
830.636	50.79
830.943	50.87
831.25	51.42
831.557	51.68
831.863	51.32
832.17	50.9
832.476	50.87
832.783	51.21
833.089	51.45
833.396	50.98
833.702	50.81
834.009	51.27
834.315	51.25
834.621	50.86
834.928	50.34
835.234	50.69
835.54	50.54
835.846	50.47
836.152	51.08
836.458	51.77
836.764	52.43
837.07	52.39
837.376	52.39
837.682	52.06
837.988	51.96
838.293	52.2
838.599	51.94
838.905	51.55
839.211	51.1
839.516	50.7
839.822	50.68
840.127	50.85
840.433	50.71
840.738	50.76
841.044	50.85
841.349	51.43
841.654	51.33
841.959	51.14
842.265	51.63
842.57	52.04
842.875	51.83
843.18	51.8
843.485	52.31
843.79	51.52
844.095	50.13
844.4	50.01
844.705	50.09
845.01	51.57
845.315	51.39
845.619	51.42
845.924	51.22
846.229	51.96
846.533	50.86
846.838	49.44
847.142	49.17
847.447	48.22
847.751	48.35
848.056	47.08
848.36	47.4
848.664	47.42
848.969	45.21
849.273	46.05
849.577	44.04
849.881	41.17
850.185	42.57
850.489	44.41
850.794	44.83
851.097	44.93
851.401	43.25
851.705	43.76
852.009	45.74
852.313	46.09
852.617	45.02
852.92	45.57
853.224	47.89
853.528	47.73
853.831	49.32
854.135	50.07
854.438	51.1
854.742	51.91
855.045	50.33
855.349	52.68
855.652	52.02
855.955	55.59
856.259	57.06
856.562	54.67
856.865	53
857.168	51.73
857.471	51.08
857.774	51.65
858.077	51.94
858.38	49.86
858.683	50.82
858.986	53.03
859.289	53.19
859.592	54.02
859.894	55.74
860.197	55.42
860.5	54.63
860.802	55.17
861.105	54.38
861.407	55.14
861.71	55.02
862.012	53.36
862.315	52.23
862.617	51.86
862.919	55.13
863.222	56.76
863.524	58.81
863.826	61.67
864.128	61.4
864.43	60.99
864.732	61.6
865.034	62.98
865.336	61.78
865.638	60.92
865.94	61.35
866.242	59.18
866.544	59.98
866.846	59.25
867.147	59.71
867.449	60.49
867.751	62.67
868.052	61.47
868.354	61.18
868.655	60.33
868.957	62.87
869.258	60.81
869.56	59.76
869.861	58.24
870.162	55.43
870.463	56.45
870.765	55.76
871.066	53.63
871.367	50.05
871.668	51.32
871.969	51.28
872.27	50.07
872.571	51.48
872.872	51.2
873.173	49.79
873.473	49.74
873.774	49.34
874.075	47.18
874.376	47.34
874.676	48.76
874.977	47.27
875.277	45.67
875.578	46.56
875.878	45.92
876.179	46.13
876.479	46.87
876.78	45.99
877.08	47.16
877.38	50.09
877.68	52.87
877.981	51.2
878.281	53.35
878.581	53.37
