Data from BA28299_Reflection_00008.txt Node
Date: Mon Nov 18 15:42:24 EST 2019
User: vgr7
Spectrometer: USB2G7710
Scans to average: 3
Trigger mode: 4
Integration Time (sec): 2.000000E-2
Electric dark correction enabled: true
Boxcar width: 10
XAxis mode: Wavelengths
Number of Pixels in Spectrum: 2048
>>>>>Begin Spectral Data<<<<<
177.721	-60.38
178.105	-14.94
178.488	-589.5
178.871	380.3
179.254	-196.8
179.636	167.66
180.019	22.8
180.402	80.77
180.785	-1825.17
181.168	1829.17
181.55	-1036.75
181.933	297.81
182.316	106.93
182.698	133.18
183.081	170.34
183.463	238.11
183.846	166.05
184.228	1311.64
184.611	18966.67
184.993	-425.85
185.376	-270.82
185.758	-398.91
186.14	-217.14
186.522	-172.98
186.904	-121.98
187.287	-205.2
187.669	-53.68
188.051	-82.71
188.433	-77.01
188.815	-58.1
189.197	-72.59
189.579	-75.21
189.961	-75.7
190.342	-80.47
190.724	-51.52
191.106	-66.2
191.488	-57.68
191.869	-48.63
192.251	-58.35
192.633	-68.53
193.014	-75.18
193.396	-86.95
193.777	-89.02
194.159	-99.59
194.54	-88.13
194.922	-77.91
195.303	-88.24
195.684	-94.56
196.065	-67.07
196.447	-61.75
196.828	-55.42
197.209	-39.89
197.59	-48.94
197.971	-57.41
198.352	-43.71
198.733	-47.49
199.114	-47.78
199.495	-51.75
199.876	-52.62
200.257	-58.91
200.638	-41.81
201.018	-33.25
201.399	-32.98
201.78	-28.14
202.16	-29.89
202.541	-39.45
202.922	-53.94
203.302	-45.78
203.683	-62.88
204.063	-84.49
204.444	-90.51
204.824	-92.7
205.204	-102.16
205.585	-95.05
205.965	-85.19
206.345	-97.52
206.725	-102.34
207.106	-121.13
207.486	-162.88
207.866	-158.32
208.246	-112.8
208.626	-127.45
209.006	-137.31
209.386	-174.49
209.766	-167.79
210.145	-186.85
210.525	-143.07
210.905	-119.42
211.285	-109.56
211.664	-88.39
212.044	-99.56
212.424	-106.65
212.803	-115.03
213.183	-104.54
213.562	-89.31
213.942	-74.39
214.321	-77.12
214.701	-81.15
215.08	-84.09
215.459	-83.6
215.838	-96.87
216.218	-82.72
216.597	-62.7
216.976	-54.77
217.355	-26.69
217.734	-27.77
218.113	-10.03
218.492	-5.35
218.871	-17.63
219.25	-18.28
219.629	-19.29
220.008	-7.84
220.387	-18.76
220.766	-24.17
221.144	-28.28
221.523	-52.21
221.902	-57.11
222.28	-59.35
222.659	-51
223.037	-47.12
223.416	-49.65
223.794	-46.04
224.173	-48.21
224.551	-43.28
224.929	-42.49
225.308	-41.55
225.686	-34.81
226.064	-31.58
226.442	-29.72
226.821	-25.64
227.199	-25.86
227.577	-26.22
227.955	-24.66
228.333	-20.06
228.711	-16.91
229.089	-14.12
229.467	-12.36
229.845	-13.04
230.222	-9.93
230.6	-9.51
230.978	-7.85
231.356	-7.46
231.733	-6.13
232.111	-5.92
232.488	-5.26
232.866	-4.3
233.243	-4.07
233.621	-2.91
233.998	-1.74
234.376	-2.83
234.753	-2.37
235.13	-2.28
235.508	-2.07
235.885	-1.78
236.262	-2.91
236.639	-3.97
237.016	-3.91
237.393	-1.52
237.77	-0.34
238.147	0.45
238.524	0.52
238.901	1.09
239.278	2.59
239.655	2.55
240.032	2.66
240.409	2.34
240.785	3.17
241.162	3.31
241.539	3.21
241.915	3.11
242.292	3.25
242.668	3.06
243.045	3.57
243.421	3.73
243.798	3.58
244.174	3.82
244.551	4.14
244.927	4.07
245.303	4
245.679	3.68
246.056	3.34
246.432	3.19
246.808	2.99
247.184	2.72
247.56	2.59
247.936	2.7
248.312	3
248.688	2.66
249.064	2.58
249.44	2.46
249.815	2.45
250.191	2.65
250.567	2.66
250.943	2.47
251.318	2.74
251.694	2.82
252.069	2.77
252.445	2.72
252.82	2.74
253.196	2.82
253.571	3.15
253.947	3.51
254.322	3.96
254.697	4.15
255.073	4.19
255.448	4.11
255.823	4.07
256.198	3.91
256.573	4.05
256.948	4.08
257.323	4.09
257.698	3.9
258.073	3.77
258.448	3.71
258.823	3.82
259.198	3.62
259.573	3.59
259.948	3.52
260.322	3.44
260.697	3.55
261.072	3.51
261.446	3.52
261.821	3.37
262.195	3.41
262.57	3.35
262.944	3.23
263.319	3.25
263.693	3.08
264.067	2.97
264.442	3.05
264.816	2.93
265.19	2.95
265.564	3.06
265.938	2.94
266.313	2.94
266.687	2.83
267.061	2.85
267.435	2.82
267.809	3.04
268.183	3.15
268.556	2.93
268.93	2.85
269.304	2.81
269.678	2.94
270.051	2.83
270.425	2.82
270.799	2.88
271.172	2.95
271.546	3.15
271.919	3.09
272.293	2.83
272.666	3.01
273.04	2.99
273.413	2.9
273.787	3.06
274.16	3.09
274.533	3.1
274.906	3.17
275.279	3.25
275.653	3.2
276.026	3.1
276.399	3.1
276.772	3.15
277.145	3.11
277.518	3.13
277.891	3.06
278.263	3.05
278.636	3.1
279.009	3.11
279.382	3.25
279.755	3.24
280.127	3.47
280.5	3.34
280.872	3.28
281.245	3.33
281.617	3.45
281.99	3.61
282.362	3.67
282.735	3.43
283.107	3.4
283.479	3.33
283.852	3.47
284.224	3.58
284.596	3.55
284.968	3.56
285.34	3.5
285.713	3.62
286.085	3.68
286.457	3.76
286.829	3.77
287.201	3.73
287.572	3.8
287.944	3.86
288.316	4.03
288.688	3.99
289.06	3.96
289.431	3.79
289.803	3.7
290.175	3.6
290.546	3.91
290.918	3.86
291.289	3.77
291.661	3.79
292.032	3.82
292.403	3.93
292.775	3.98
293.146	3.88
293.517	3.86
293.889	3.92
294.26	3.86
294.631	3.92
295.002	3.81
295.373	3.78
295.744	3.71
296.115	3.69
296.486	3.74
296.857	3.76
297.228	3.85
297.599	3.78
297.97	3.87
298.34	3.75
298.711	3.87
299.082	3.95
299.452	3.94
299.823	4.06
300.194	4.04
300.564	4
300.935	4.01
301.305	3.95
301.676	3.9
302.046	4.07
302.416	4.15
302.787	4.19
303.157	4.21
303.527	4.28
303.897	4.18
304.267	4.32
304.637	4.32
305.008	4.4
305.378	4.55
305.748	4.49
306.117	4.5
306.487	4.54
306.857	4.65
307.227	4.62
307.597	4.54
307.967	4.59
308.336	4.79
308.706	5.02
309.076	5.15
309.445	5.11
309.815	4.99
310.184	4.93
310.554	5.08
310.923	5.07
311.293	5.08
311.662	5.15
312.031	5.09
312.401	5.22
312.77	5.24
313.139	5.32
313.508	5.38
313.877	5.47
314.246	5.46
314.616	5.46
314.985	5.49
315.353	5.33
315.722	5.4
316.091	5.25
316.46	5.16
316.829	5.09
317.198	5.2
317.567	5.33
317.935	5.33
318.304	5.21
318.672	5.25
319.041	5.37
319.41	5.46
319.778	5.52
320.147	5.51
320.515	5.44
320.883	5.39
321.252	5.52
321.62	5.52
321.988	5.71
322.357	5.82
322.725	5.94
323.093	6.1
323.461	6.11
323.829	6.26
324.197	6.37
324.565	6.45
324.933	6.52
325.301	6.42
325.669	6.48
326.037	6.54
326.405	6.64
326.772	6.7
327.14	6.64
327.508	6.59
327.875	6.58
328.243	6.67
328.61	6.72
328.978	6.67
329.346	6.77
329.713	6.7
330.08	6.67
330.448	6.65
330.815	6.74
331.182	6.76
331.55	6.74
331.917	6.85
332.284	6.91
332.651	6.94
333.018	7.06
333.385	7.02
333.752	7.08
334.119	7.13
334.486	7.01
334.853	7.17
335.22	7.24
335.587	7.37
335.954	7.5
336.32	7.54
336.687	7.61
337.054	7.72
337.42	7.76
337.787	7.75
338.153	7.76
338.52	7.79
338.886	7.79
339.253	7.87
339.619	7.83
339.986	7.84
340.352	7.81
340.718	7.92
341.084	7.87
341.451	7.95
341.817	8.05
342.183	8.11
342.549	8.08
342.915	8.19
343.281	8.23
343.647	8.22
344.013	8.2
344.379	8.16
344.745	8.06
345.11	8.05
345.476	8.16
345.842	8.17
346.208	8.25
346.573	8.29
346.939	8.39
347.304	8.36
347.67	8.37
348.035	8.39
348.401	8.33
348.766	8.48
349.132	8.42
349.497	8.36
349.862	8.32
350.228	8.29
350.593	8.24
350.958	8.24
351.323	8.19
351.688	8.25
352.053	8.41
352.418	8.51
352.783	8.48
353.148	8.45
353.513	8.49
353.878	8.45
354.243	8.5
354.608	8.48
354.972	8.59
355.337	8.69
355.702	8.72
356.066	8.84
356.431	8.84
356.795	8.93
357.16	8.97
357.524	8.98
357.889	9
358.253	9.04
358.618	9.1
358.982	9.06
359.346	9
359.71	8.94
360.075	8.88
360.439	8.93
360.803	8.93
361.167	8.92
361.531	8.9
361.895	8.92
362.259	8.81
362.623	8.71
362.987	8.67
363.351	8.62
363.714	8.58
364.078	8.53
364.442	8.42
364.806	8.38
365.169	8.34
365.533	8.35
365.896	8.31
366.26	8.26
366.623	8.23
366.987	8.21
367.35	8.14
367.714	8.17
368.077	8.15
368.44	8.11
368.803	8.07
369.167	8.01
369.53	7.9
369.893	7.95
370.256	7.96
370.619	7.88
370.982	7.86
371.345	7.79
371.708	7.78
372.071	7.79
372.434	7.72
372.797	7.81
373.159	7.69
373.522	7.71
373.885	7.64
374.247	7.64
374.61	7.63
374.973	7.63
375.335	7.61
375.698	7.53
376.06	7.48
376.423	7.42
376.785	7.39
377.147	7.42
377.51	7.41
377.872	7.42
378.234	7.39
378.596	7.36
378.958	7.31
379.321	7.3
379.683	7.28
380.045	7.26
380.407	7.19
380.769	7.2
381.13	7.06
381.492	7.04
381.854	6.98
382.216	6.97
382.578	6.98
382.939	6.89
383.301	6.9
383.663	6.86
384.024	6.87
384.386	6.88
384.747	6.83
385.109	6.75
385.47	6.67
385.832	6.67
386.193	6.68
386.554	6.65
386.916	6.6
387.277	6.59
387.638	6.57
387.999	6.47
388.36	6.47
388.721	6.46
389.082	6.44
389.443	6.42
389.804	6.34
390.165	6.29
390.526	6.23
390.887	6.2
391.248	6.21
391.609	6.18
391.969	6.12
392.33	6.09
392.691	6.08
393.051	6.02
393.412	5.99
393.772	5.93
394.133	5.88
394.493	5.88
394.854	5.82
395.214	5.77
395.574	5.8
395.935	5.72
396.295	5.72
396.655	5.67
397.015	5.67
397.376	5.66
397.736	5.58
398.096	5.6
398.456	5.55
398.816	5.5
399.176	5.41
399.535	5.37
399.895	5.32
400.255	5.29
400.615	5.3
400.975	5.25
401.334	5.24
401.694	5.23
402.054	5.17
402.413	5.15
402.773	5.11
403.132	5.08
403.492	5.06
403.851	5.03
404.211	4.99
404.57	4.91
404.929	4.91
405.288	4.91
405.648	4.88
406.007	4.86
406.366	4.82
406.725	4.87
407.084	4.9
407.443	4.9
407.802	4.88
408.161	4.83
408.52	4.8
408.879	4.78
409.238	4.76
409.596	4.74
409.955	4.7
410.314	4.73
410.673	4.69
411.031	4.68
411.39	4.66
411.748	4.66
412.107	4.66
412.465	4.64
412.824	4.61
413.182	4.57
413.54	4.56
413.899	4.55
414.257	4.51
414.615	4.45
414.974	4.44
415.332	4.42
415.69	4.41
416.048	4.36
416.406	4.34
416.764	4.29
417.122	4.27
417.48	4.26
417.838	4.22
418.195	4.21
418.553	4.19
418.911	4.17
419.269	4.14
419.626	4.11
419.984	4.09
420.342	4.07
420.699	4.06
421.057	4.05
421.414	4.02
421.772	3.99
422.129	3.98
422.486	3.95
422.844	3.92
423.201	3.9
423.558	3.91
423.915	3.92
424.273	3.91
424.63	3.89
424.987	3.87
425.344	3.87
425.701	3.86
426.058	3.84
426.415	3.83
426.772	3.82
427.128	3.82
427.485	3.79
427.842	3.78
428.199	3.77
428.555	3.73
428.912	3.73
429.269	3.73
429.625	3.71
429.982	3.72
430.338	3.75
430.695	3.75
431.051	3.71
431.407	3.68
431.764	3.68
432.12	3.68
432.476	3.68
432.832	3.66
433.189	3.66
433.545	3.66
433.901	3.64
434.257	3.63
434.613	3.65
434.969	3.66
435.325	3.67
435.681	3.66
436.036	3.66
436.392	3.67
436.748	3.65
437.104	3.65
437.459	3.62
437.815	3.59
438.171	3.59
438.526	3.6
438.882	3.61
439.237	3.6
439.593	3.61
439.948	3.61
440.304	3.6
440.659	3.58
441.014	3.58
441.369	3.57
441.725	3.56
442.08	3.54
442.435	3.54
442.79	3.55
443.145	3.54
443.5	3.53
443.855	3.5
444.21	3.5
444.565	3.5
444.92	3.51
445.275	3.49
445.629	3.49
445.984	3.48
446.339	3.46
446.693	3.43
447.048	3.41
447.403	3.4
447.757	3.4
448.112	3.38
448.466	3.38
448.82	3.38
449.175	3.39
449.529	3.38
449.883	3.35
450.238	3.33
450.592	3.33
450.946	3.32
451.3	3.33
451.654	3.31
452.008	3.31
452.362	3.29
452.716	3.29
453.07	3.28
453.424	3.28
453.778	3.29
454.132	3.29
454.486	3.3
454.839	3.3
455.193	3.31
455.547	3.33
455.9	3.35
456.254	3.36
456.607	3.36
456.961	3.35
457.314	3.36
457.668	3.37
458.021	3.36
458.375	3.36
458.728	3.36
459.081	3.39
459.434	3.37
459.787	3.39
460.141	3.38
460.494	3.39
460.847	3.39
461.2	3.41
461.553	3.43
461.906	3.43
462.259	3.46
462.611	3.47
462.964	3.48
463.317	3.47
463.67	3.48
464.022	3.48
464.375	3.51
464.728	3.51
465.08	3.52
465.433	3.54
465.785	3.57
466.138	3.56
466.49	3.55
466.843	3.56
467.195	3.54
467.547	3.56
467.899	3.56
468.252	3.56
468.604	3.56
468.956	3.56
469.308	3.57
469.66	3.56
470.012	3.54
470.364	3.54
470.716	3.53
471.068	3.54
471.42	3.56
471.772	3.57
472.123	3.59
472.475	3.61
472.827	3.62
473.178	3.63
473.53	3.64
473.882	3.67
474.233	3.7
474.585	3.73
474.936	3.72
475.288	3.72
475.639	3.72
475.99	3.72
476.342	3.72
476.693	3.71
477.044	3.73
477.395	3.73
477.746	3.71
478.097	3.73
478.448	3.72
478.8	3.69
479.15	3.66
479.501	3.63
479.852	3.62
480.203	3.6
480.554	3.6
480.905	3.6
481.255	3.59
481.606	3.58
481.957	3.58
482.307	3.6
482.658	3.6
483.009	3.61
483.359	3.61
483.709	3.62
484.06	3.62
484.41	3.63
484.761	3.63
485.111	3.63
485.461	3.63
485.811	3.63
486.162	3.64
486.512	3.65
486.862	3.67
487.212	3.68
487.562	3.69
487.912	3.7
488.262	3.7
488.612	3.71
488.961	3.72
489.311	3.72
489.661	3.72
490.011	3.73
490.36	3.74
490.71	3.75
491.06	3.77
491.409	3.78
491.759	3.78
492.108	3.8
492.458	3.81
492.807	3.82
493.157	3.84
493.506	3.87
493.855	3.89
494.204	3.9
494.554	3.92
494.903	3.94
495.252	3.95
495.601	4
495.95	4.04
496.299	4.08
496.648	4.12
496.997	4.17
497.346	4.21
497.695	4.26
498.043	4.3
498.392	4.31
498.741	4.36
499.09	4.4
499.438	4.44
499.787	4.49
500.135	4.53
500.484	4.58
500.832	4.63
501.181	4.7
501.529	4.76
501.878	4.8
502.226	4.88
502.574	4.95
502.923	5
503.271	5.03
503.619	5.11
503.967	5.15
504.315	5.23
504.663	5.27
505.011	5.31
505.359	5.35
505.707	5.41
506.055	5.49
506.403	5.55
506.751	5.62
507.098	5.69
507.446	5.8
507.794	5.86
508.141	5.93
508.489	6
508.837	6.07
509.184	6.15
509.531	6.21
509.879	6.31
510.226	6.38
510.574	6.46
510.921	6.51
511.268	6.59
511.616	6.67
511.963	6.77
512.31	6.86
512.657	6.97
513.004	7.08
513.351	7.18
513.698	7.29
514.045	7.39
514.392	7.48
514.739	7.57
515.086	7.7
515.432	7.8
515.779	7.88
516.126	7.98
516.473	8.09
516.819	8.19
517.166	8.27
517.512	8.37
517.859	8.48
518.205	8.57
518.552	8.69
518.898	8.77
519.245	8.87
519.591	8.96
519.937	9.03
520.283	9.14
520.629	9.26
520.976	9.36
521.322	9.49
521.668	9.64
522.014	9.78
522.36	9.92
522.706	10.07
523.052	10.24
523.398	10.42
523.743	10.6
524.089	10.78
524.435	10.94
524.781	11.1
525.126	11.27
525.472	11.43
525.817	11.55
526.163	11.7
526.509	11.85
526.854	11.98
527.199	12.11
527.545	12.21
527.89	12.32
528.235	12.45
528.581	12.57
528.926	12.69
529.271	12.81
529.616	12.93
529.961	13.06
530.306	13.21
530.651	13.36
530.996	13.52
531.341	13.67
531.686	13.85
532.031	14.02
532.376	14.19
532.721	14.37
533.065	14.56
533.41	14.74
533.755	14.93
534.099	15.13
534.444	15.34
534.788	15.58
535.133	15.81
535.477	16.04
535.822	16.29
536.166	16.53
536.51	16.83
536.855	17.13
537.199	17.43
537.543	17.72
537.887	18
538.231	18.31
538.576	18.64
538.92	18.95
539.264	19.27
539.608	19.55
539.951	19.83
540.295	20.14
540.639	20.39
540.983	20.65
541.327	20.92
541.671	21.2
542.014	21.42
542.358	21.65
542.701	21.89
543.045	22.11
543.389	22.39
543.732	22.64
544.075	22.9
544.419	23.17
544.762	23.46
545.105	23.75
545.449	24.05
545.792	24.36
546.135	24.72
546.478	25.07
546.821	25.45
547.165	25.81
547.508	26.14
547.851	26.52
548.194	26.89
548.536	27.27
548.879	27.63
549.222	28.01
549.565	28.37
549.908	28.72
550.25	29.14
550.593	29.51
550.936	29.84
551.278	30.26
551.621	30.65
551.963	30.98
552.306	31.34
552.648	31.76
552.991	32.12
553.333	32.44
553.675	32.72
554.017	33.04
554.36	33.36
554.702	33.64
555.044	33.94
555.386	34.26
555.728	34.54
556.07	34.85
556.412	35.2
556.754	35.56
557.096	35.94
557.438	36.23
557.78	36.53
558.121	36.89
558.463	37.13
558.805	37.43
559.147	37.81
559.488	38.13
559.83	38.38
560.171	38.7
560.513	39.01
560.854	39.32
561.196	39.6
561.537	39.88
561.878	40.19
562.22	40.49
562.561	40.77
562.902	41.04
563.243	41.34
563.584	41.61
563.925	41.81
564.266	42.03
564.607	42.23
564.948	42.46
565.289	42.65
565.63	42.9
565.971	43.18
566.312	43.34
566.653	43.56
566.993	43.79
567.334	43.94
567.675	44.1
568.015	44.29
568.356	44.55
568.696	44.73
569.037	44.98
569.377	45.17
569.718	45.39
570.058	45.56
570.398	45.74
570.739	45.89
571.079	46.07
571.419	46.29
571.759	46.46
572.099	46.66
572.439	46.85
572.779	47.03
573.119	47.09
573.459	47.26
573.799	47.37
574.139	47.54
574.479	47.69
574.819	47.87
575.158	48.08
575.498	48.21
575.838	48.37
576.177	48.47
576.517	48.62
576.856	48.82
577.196	49.01
577.535	49.16
577.875	49.28
578.214	49.43
578.553	49.48
578.893	49.69
579.232	49.88
579.571	50.03
579.91	50.14
580.25	50.39
580.589	50.61
580.928	50.78
581.267	50.86
581.606	51.11
581.945	51.13
582.283	51.15
582.622	51.29
582.961	51.49
583.3	51.69
583.639	51.91
583.977	51.94
584.316	52.07
584.654	52.13
584.993	52.34
585.332	52.59
585.67	52.76
586.008	52.81
586.347	52.9
586.685	52.95
587.024	53.04
587.362	53.13
587.7	53.18
588.038	53.31
588.376	53.43
588.715	53.36
589.053	53.51
589.391	53.65
589.729	53.76
590.067	53.83
590.404	53.9
590.742	53.91
591.08	53.98
591.418	54.02
591.756	54.07
592.093	54.17
592.431	54.21
592.769	54.31
593.106	54.42
593.444	54.43
593.781	54.55
594.119	54.67
594.456	54.7
594.793	54.79
595.131	54.82
595.468	54.87
595.805	54.99
596.143	55.06
596.48	55.18
596.817	55.16
597.154	55.19
597.491	55.17
597.828	55.21
598.165	55.23
598.502	55.27
598.839	55.38
599.176	55.4
599.512	55.41
599.849	55.41
600.186	55.53
600.523	55.61
600.859	55.66
601.196	55.68
601.532	55.73
601.869	55.75
602.205	55.8
602.542	55.86
602.878	55.88
603.215	55.92
603.551	55.9
603.887	56
604.223	56.02
604.56	56.08
604.896	56.1
605.232	56.23
605.568	56.31
605.904	56.33
606.24	56.33
606.576	56.38
606.912	56.46
607.248	56.44
607.583	56.46
607.919	56.58
608.255	56.62
608.591	56.68
608.926	56.74
609.262	56.77
609.597	56.84
609.933	56.91
610.268	56.93
610.604	57
610.939	57.05
611.275	57.09
611.61	57.13
611.945	57.25
612.281	57.21
612.616	57.23
612.951	57.31
613.286	57.38
613.621	57.51
613.956	57.55
614.291	57.68
614.626	57.72
614.961	57.73
615.296	57.84
615.631	57.86
615.966	57.82
616.3	57.86
616.635	57.87
616.97	57.88
617.304	58.02
617.639	58.01
617.973	58
618.308	58.05
618.642	58.13
618.977	58.06
619.311	58.12
619.646	58.14
619.98	58.15
620.314	58.26
620.648	58.26
620.983	58.27
621.317	58.27
621.651	58.29
621.985	58.19
622.319	58.24
622.653	58.21
622.987	58.37
623.321	58.49
623.655	58.57
623.988	58.65
624.322	58.6
624.656	58.71
624.99	58.72
625.323	58.78
625.657	58.83
625.99	58.89
626.324	58.89
626.657	58.98
626.991	58.98
627.324	58.93
627.658	58.87
627.991	58.91
628.324	58.97
628.657	59.05
628.991	59.21
629.324	59.22
629.657	59.24
629.99	59.23
630.323	59.19
630.656	59.22
630.989	59.39
631.322	59.39
631.655	59.4
631.987	59.4
632.32	59.34
632.653	59.29
632.986	59.31
633.318	59.29
633.651	59.28
633.984	59.31
634.316	59.38
634.649	59.35
634.981	59.42
635.313	59.39
635.646	59.47
635.978	59.44
636.31	59.48
636.643	59.55
636.975	59.58
637.307	59.69
637.639	59.65
637.971	59.5
638.303	59.6
638.635	59.56
638.967	59.61
639.299	59.65
639.631	59.73
639.963	59.75
640.295	59.78
640.626	59.7
640.958	59.82
641.29	59.81
641.621	59.98
641.953	59.8
642.285	59.75
642.616	59.76
642.948	59.77
643.279	59.7
643.61	59.68
643.942	59.69
644.273	59.58
644.604	59.64
644.936	59.64
645.267	59.57
645.598	59.69
645.929	59.55
646.26	59.62
646.591	59.69
646.922	59.74
647.253	59.84
647.584	59.99
647.915	59.93
648.245	59.92
648.576	59.99
648.907	60.23
649.238	60.42
649.568	60.3
649.899	60.45
650.229	60.54
650.56	60.71
650.89	60.68
651.221	60.81
651.551	60.72
651.882	60.67
652.212	60.62
652.542	60.52
652.872	60.69
653.203	60.72
653.533	60.72
653.863	60.68
654.193	60.62
654.523	60.6
654.853	60.56
655.183	60.56
655.513	60.36
655.843	60.28
656.172	60.18
656.502	60.22
656.832	59.99
657.162	59.91
657.491	59.87
657.821	59.88
658.15	59.77
658.48	59.78
658.809	59.82
659.139	59.88
659.468	59.89
659.798	59.9
660.127	59.91
660.456	59.87
660.785	59.9
661.115	59.88
661.444	59.93
661.773	59.95
662.102	59.9
662.431	60.02
662.76	60.05
663.089	60.11
663.418	60.02
663.747	60.14
664.076	60.23
664.404	60.17
664.733	60.14
665.062	60.15
665.39	60.18
665.719	60.19
666.048	60.26
666.376	60.28
666.705	60.29
667.033	60.25
667.362	60.26
667.69	60.25
668.018	60.31
668.347	60.22
668.675	60.28
669.003	60.46
669.331	60.52
669.659	60.56
669.987	60.55
670.315	60.59
670.643	60.65
670.971	60.62
671.299	60.63
671.627	60.71
671.955	60.83
672.283	60.88
672.61	60.97
672.938	60.97
673.266	60.81
673.593	60.83
673.921	60.87
674.249	60.93
674.576	60.98
674.904	61.16
675.231	61.18
675.558	61.17
675.886	61.06
676.213	60.98
676.54	60.86
676.867	60.93
677.195	61.1
677.522	61.11
677.849	61.25
678.176	61.3
678.503	61.2
678.83	61.24
679.157	61.18
679.484	61.01
679.81	61
680.137	61.15
680.464	61.1
680.791	61.09
681.117	61.07
681.444	61.06
681.771	60.83
682.097	60.78
682.424	60.69
682.75	60.78
683.077	60.88
683.403	61.1
683.729	61.11
684.056	61.06
684.382	60.98
684.708	60.85
685.034	60.96
685.36	61.17
685.686	61.16
686.012	61.27
686.339	61.49
686.664	61.61
686.99	61.61
687.316	61.61
687.642	61.68
687.968	61.63
688.294	61.61
688.619	61.7
688.945	61.78
689.271	61.96
689.596	61.99
689.922	62
690.247	61.81
690.573	61.7
690.898	61.8
691.224	61.77
691.549	61.84
691.874	61.68
692.2	61.53
692.525	61.42
692.85	61.48
693.175	61.47
693.5	61.35
693.825	61.53
694.15	61.55
694.475	61.45
694.8	61.35
695.125	61.4
695.45	61.41
695.775	61.38
696.099	61.42
696.424	61.4
696.749	61.44
697.073	61.53
697.398	61.51
697.723	61.42
698.047	61.45
698.372	61.35
698.696	61.36
699.02	61.37
699.345	61.43
699.669	61.42
699.993	61.39
700.318	61.46
700.642	61.36
700.966	61.42
701.29	61.49
701.614	61.59
701.938	61.54
702.262	61.65
702.586	61.59
702.91	61.51
703.234	61.39
703.557	61.26
703.881	61.17
704.205	61.35
704.529	61.32
704.852	61.35
705.176	61.39
705.499	61.33
705.823	61.3
706.146	61.24
706.47	61.21
706.793	61.16
707.117	61.02
707.44	61.15
707.763	61.08
708.086	60.99
708.409	61.06
708.733	60.96
709.056	60.89
709.379	61.07
709.702	61
710.025	61.16
710.348	61.17
710.671	61.31
710.993	61.23
711.316	61.2
711.639	61.39
711.962	61.45
712.284	61.58
712.607	61.61
712.93	61.62
713.252	61.57
713.575	61.78
713.897	61.91
714.22	61.72
714.542	61.68
714.864	61.65
715.187	61.88
715.509	61.96
715.831	62.02
716.153	61.84
716.475	62.08
716.798	62.06
717.12	62
717.442	61.9
717.764	61.75
718.085	61.89
718.407	61.61
718.729	61.65
719.051	61.38
719.373	61.45
719.695	61.47
720.016	61.45
720.338	61.37
720.659	61.34
720.981	61.24
721.302	61.37
721.624	61.63
721.945	61.44
722.267	61.54
722.588	61.39
722.909	61.71
723.231	61.43
723.552	61.38
723.873	61.33
724.194	61.29
724.515	61.4
724.836	61.34
725.157	61.37
725.478	61.6
725.799	61.81
726.12	61.79
726.441	61.8
726.762	61.99
727.083	62
727.403	61.9
727.724	62.03
728.045	62.08
728.365	61.88
728.686	61.79
729.006	61.67
729.327	61.8
729.647	61.69
729.967	61.84
730.288	61.92
730.608	62.08
730.928	62.13
731.249	62.26
731.569	62.32
731.889	62.43
732.209	62.31
732.529	62.47
732.849	62.37
733.169	62.16
733.489	62.11
733.809	62.14
734.129	62.01
734.448	61.76
734.768	61.58
735.088	61.72
735.408	61.67
735.727	61.8
736.047	61.74
736.366	61.6
736.686	61.53
737.005	61.36
737.325	61.38
737.644	61.45
737.963	61.03
738.283	61.11
738.602	61.24
738.921	61.16
739.24	61.19
739.56	61.3
739.879	61.49
740.198	61.38
740.517	61.36
740.836	61.74
741.155	62.02
741.473	62.16
741.792	62
742.111	62.16
742.43	62.25
742.748	62.4
743.067	62.5
743.386	62.45
743.704	62.64
744.023	62.42
744.341	62.45
744.66	63.08
744.978	62.53
745.297	62.11
745.615	62
745.933	61.91
746.252	61.91
746.57	62.29
746.888	62.46
747.206	62.26
747.524	62.41
747.842	62.61
748.16	62.66
748.478	62.32
748.796	62.26
749.114	62.2
749.432	62.1
749.749	61.89
750.067	62
750.385	62.1
750.703	62.55
751.02	62.24
751.338	61.87
751.655	61.9
751.973	61.8
752.29	62.04
752.608	61.98
752.925	62.15
753.242	62.01
753.56	61.78
753.877	61.82
754.194	61.48
754.511	61.01
754.828	61.13
755.145	61.67
755.462	61.9
755.779	61.84
756.096	62.03
756.413	62.63
756.73	62.39
757.047	62.24
757.364	61.89
757.68	62.08
757.997	62.17
758.314	62.26
758.63	62.61
758.947	62.59
759.264	62.2
759.58	62.11
759.896	62.02
760.213	62.1
760.529	61.97
760.846	61.81
761.162	62.07
761.478	61.86
761.794	61.67
762.11	61.43
762.426	61.53
762.743	61.47
763.059	61.13
763.375	61.36
763.69	61.47
764.006	61.79
764.322	61.52
764.638	61.5
764.954	61.69
765.27	61.76
765.585	61.53
765.901	61.84
766.216	61.7
766.532	61.76
766.848	61.67
767.163	61.77
767.478	61.88
767.794	61.93
768.109	61.86
768.424	61.86
768.74	61.99
769.055	61.71
769.37	61.74
769.685	61.64
770	61.44
770.315	61.12
770.63	60.82
770.945	61.22
771.26	61.13
771.575	61.29
771.89	61.17
772.205	61.05
772.52	60.74
772.834	60.65
773.149	60.64
773.464	60.8
773.778	60.93
774.093	61
774.407	60.85
774.722	61.27
775.036	61.45
775.351	61.5
775.665	61.75
775.979	61.44
776.293	61.72
776.608	61.63
776.922	61.77
777.236	61.83
777.55	61.64
777.864	61.99
778.178	61.94
778.492	61.59
778.806	61.77
779.12	62.33
779.434	62.69
779.747	62.23
780.061	62.01
780.375	62.15
780.689	62.17
781.002	62.35
781.316	62.19
781.629	61.99
781.943	61.48
782.256	61.34
782.57	61.75
782.883	61.42
783.196	61.43
783.51	61.4
783.823	61.25
784.136	61.26
784.449	60.87
784.762	60.93
785.075	61.36
785.388	61.44
785.701	61.26
786.014	61.08
786.327	61.22
786.64	61.94
786.953	61.42
787.266	61.14
787.578	61.27
787.891	61.18
788.204	60.93
788.516	61.05
788.829	61.26
789.141	60.85
789.454	61.18
789.766	61.39
790.079	61.17
790.391	61.41
790.703	61.76
791.016	61.97
791.328	61.88
791.64	62.19
791.952	62.09
792.264	61.65
792.576	61.41
792.888	61.22
793.2	60.64
793.512	60.52
793.824	60.78
794.136	60.43
794.448	60.23
794.76	60.68
795.071	60.71
795.383	60.74
795.695	61.06
796.006	61.01
796.318	60.82
796.629	60.99
796.941	60.04
797.252	59.87
797.564	59.83
797.875	59.28
798.186	59.02
798.497	58.71
798.809	59.19
799.12	59.07
799.431	59.13
799.742	58.67
800.053	59.16
800.364	59.34
800.675	59.52
800.986	59.85
801.297	59.8
801.608	60.02
801.918	59.92
802.229	59.6
802.54	59.79
802.851	59.99
803.161	60.49
803.472	60.87
803.782	61.01
804.093	60.4
804.403	61
804.714	60.85
805.024	61.41
805.334	60.68
805.645	61.01
805.955	61.43
806.265	62.09
806.575	62.5
806.885	62.49
807.195	62.09
807.505	62.04
807.815	62.18
808.125	62.09
808.435	61.79
808.745	62.19
809.055	61.79
809.365	61.16
809.674	60.33
809.984	60.73
810.294	60.99
810.603	61.23
810.913	61.22
811.222	61.96
811.532	62.03
811.841	63.35
812.151	63.58
812.46	63.45
812.769	63.09
813.079	62.33
813.388	61.73
813.697	61.83
814.006	61.04
814.315	61.21
814.624	61.3
814.933	60.93
815.242	60.37
815.551	61.15
815.86	62.08
816.169	62.21
816.478	62.18
816.786	61.47
817.095	61.72
817.404	61.9
817.712	61.45
818.021	61.96
818.33	61.2
818.638	61.71
818.947	61.65
819.255	61.92
819.563	61.62
819.872	61.9
820.18	62.07
820.488	62.69
820.796	62.22
821.105	62.34
821.413	62.62
821.721	62.59
822.029	62.45
822.337	62.59
822.645	62.79
822.953	62.83
823.26	62.75
823.568	62.86
823.876	62.75
824.184	62.56
824.491	62.46
824.799	62.45
825.107	62.4
825.414	62.52
825.722	62.65
826.029	62.93
826.337	62.75
826.644	62.75
826.951	62.61
827.259	63.03
827.566	62.78
827.873	62.62
828.18	62.79
828.488	63.05
828.795	62.94
829.102	62.7
829.409	62.83
829.716	62.85
830.023	62.49
830.329	62.19
830.636	62.76
830.943	62.19
831.25	62.53
831.557	62.07
831.863	62.07
832.17	61.63
832.476	61.43
832.783	61.91
833.089	61.77
833.396	61.38
833.702	61.05
834.009	61.31
834.315	61.76
834.621	61.51
834.928	60.99
835.234	60.43
835.54	60.9
835.846	60.65
836.152	60.92
836.458	61.05
836.764	61.48
837.07	60.85
837.376	61.02
837.682	60.83
837.988	60.85
838.293	60.78
838.599	61.04
838.905	60.86
839.211	60.38
839.516	60.25
839.822	60.1
840.127	59.86
840.433	60.19
840.738	58.79
841.044	58.3
841.349	59.5
841.654	59.33
841.959	58.6
842.265	58.53
842.57	58.51
842.875	58.75
843.18	57.92
843.485	57.88
843.79	59.44
844.095	58.51
844.4	59.02
844.705	59.28
845.01	57.79
845.315	57.57
845.619	58.41
845.924	58.28
846.229	59.55
846.533	59.23
846.838	58.4
847.142	59.97
847.447	61.51
847.751	58.71
848.056	58.93
848.36	58.05
848.664	58.1
848.969	58.47
849.273	57.89
849.577	58.6
849.881	59.02
850.185	57
850.489	58.84
850.794	58.92
851.097	57.49
851.401	59.04
851.705	58.9
852.009	58.19
852.313	58.92
852.617	58.32
852.92	59.2
853.224	58.56
853.528	58.34
853.831	58.16
854.135	58.65
854.438	58.59
854.742	58.88
855.045	56.81
855.349	55.63
855.652	56.49
855.955	56.26
856.259	56.17
856.562	57.52
856.865	56.22
857.168	55.48
857.471	55.5
857.774	55.97
858.077	56.09
858.38	56.19
858.683	55.48
858.986	54.4
859.289	51.82
859.592	52.88
859.894	53.47
860.197	53.29
860.5	52.08
860.802	53.4
861.105	54.51
861.407	56.8
861.71	56.99
862.012	55.09
862.315	55.9
862.617	56.41
862.919	56.03
863.222	55.53
863.524	56.03
863.826	55.91
864.128	53.83
864.43	53.14
864.732	55.73
865.034	56.06
865.336	57.11
865.638	59.37
865.94	57.88
866.242	56.01
866.544	55.04
866.846	56.68
867.147	56.45
867.449	57.22
867.751	56.94
868.052	58.39
868.354	59.24
868.655	60
868.957	60.71
869.258	60.59
869.56	60.92
869.861	60.46
870.162	60.76
870.463	62.66
870.765	63.87
871.066	62.07
871.367	62.07
871.668	60.96
871.969	61.49
872.27	62.86
872.571	61.47
872.872	63.52
873.173	61.35
873.473	62.45
873.774	58.71
874.075	58.81
874.376	57.14
874.676	57.73
874.977	55.22
875.277	55.57
875.578	56.15
875.878	55.99
876.179	56.47
876.479	56.39
876.78	55.89
877.08	55.84
877.38	54.36
877.68	54.12
877.981	55.06
878.281	53.51
878.581	52.52
