Data from BA28416_Reflection_00008.txt Node
Date: Mon Nov 18 16:05:28 EST 2019
User: vgr7
Spectrometer: USB2G7710
Scans to average: 3
Trigger mode: 4
Integration Time (sec): 2.000000E-2
Electric dark correction enabled: true
Boxcar width: 10
XAxis mode: Wavelengths
Number of Pixels in Spectrum: 2048
>>>>>Begin Spectral Data<<<<<
177.721	132.46
178.105	119.7
178.488	89.12
178.871	2048.28
179.254	-627.27
179.636	9.57
180.019	-1637.7
180.402	55.56
180.785	10.91
181.168	-33.69
181.55	-23.82
181.933	54.2
182.316	55.05
182.698	32.22
183.081	21.65
183.463	29.87
183.846	25.45
184.228	42.74
184.611	33.42
184.993	17.24
185.376	15.3
185.758	22.18
186.14	19.75
186.522	17.85
186.904	44.33
187.287	70.02
187.669	58.32
188.051	73.15
188.433	56.62
188.815	71.3
189.197	121.73
189.579	99.27
189.961	130.49
190.342	136.56
190.724	242.03
191.106	246.38
191.488	262.4
191.869	392.92
192.251	175.11
192.633	198.17
193.014	275.49
193.396	278.64
193.777	219.57
194.159	417.16
194.54	408.56
194.922	-287.52
195.303	-439.18
195.684	-459.56
196.065	-166.82
196.447	-200.13
196.828	-138.51
197.209	-71.22
197.59	-81.55
197.971	-137.22
198.352	-76.44
198.733	-129.71
199.114	-103.2
199.495	-72.64
199.876	-75.58
200.257	-65.68
200.638	-28.98
201.018	-47.21
201.399	-60.16
201.78	-89.75
202.16	-93.38
202.541	-136.43
202.922	-357.9
203.302	-266.97
203.683	-756.49
204.063	-1059.87
204.444	-499.7
204.824	-662.15
205.204	-1244.68
205.585	-521.57
205.965	-431.09
206.345	-468.99
206.725	-5645.45
207.106	777.49
207.486	381.05
207.866	384.01
208.246	236.23
208.626	211.89
209.006	287.23
209.386	324.88
209.766	346.36
210.145	308.96
210.525	252.33
210.905	199.01
211.285	193.73
211.664	359.3
212.044	238.87
212.424	197.95
212.803	149.54
213.183	103.67
213.562	93.17
213.942	102
214.321	107.07
214.701	91.84
215.08	108.58
215.459	129.13
215.838	198.64
216.218	907.45
216.597	298.93
216.976	465.33
217.355	2785.71
217.734	334.11
218.113	-312.37
218.492	297.63
218.871	115.44
219.25	134.37
219.629	129.2
220.008	93.78
220.387	58.63
220.766	45.59
221.144	5.15
221.523	-9.34
221.902	6.29
222.28	-390.57
222.659	59.78
223.037	57.13
223.416	43.68
223.794	6.38
224.173	-5.51
224.551	9.6
224.929	-7.28
225.308	-13.77
225.686	-16.51
226.064	-9.41
226.442	-10.95
226.821	-10.1
227.199	-12.78
227.577	-13
227.955	-10.92
228.333	-10.9
228.711	-7.56
229.089	-0.54
229.467	-3.41
229.845	-6.47
230.222	-8.12
230.6	-7.66
230.978	-5.9
231.356	-1.53
231.733	1.04
232.111	-0.34
232.488	-2.07
232.866	-1.26
233.243	0.77
233.621	2.56
233.998	1.76
234.376	-0.06
234.753	0.8
235.13	1.38
235.508	2.47
235.885	2.16
236.262	1.1
236.639	-0.86
237.016	-1.27
237.393	-0.11
237.77	1.23
238.147	1.98
238.524	2.61
238.901	2.59
239.278	1.9
239.655	2.52
240.032	2.84
240.409	2.31
240.785	2.5
241.162	2.28
241.539	1.86
241.915	1.55
242.292	1.71
242.668	1.32
243.045	1.21
243.421	1.33
243.798	1.38
244.174	1.47
244.551	1.69
244.927	1.81
245.303	2.19
245.679	2.21
246.056	2.15
246.432	2.09
246.808	1.99
247.184	1.76
247.56	1.35
247.936	1.19
248.312	1.45
248.688	1.57
249.064	1.48
249.44	1.57
249.815	1.67
250.191	1.62
250.567	1.75
250.943	1.79
251.318	2.01
251.694	2.01
252.069	2.33
252.445	2.52
252.82	2.44
253.196	2.24
253.571	2.15
253.947	1.98
254.322	2.08
254.697	2.13
255.073	2.24
255.448	2.48
255.823	2.84
256.198	3.14
256.573	2.91
256.948	3.1
257.323	3.15
257.698	3.19
258.073	3.31
258.448	3.28
258.823	3.29
259.198	3.08
259.573	3.1
259.948	2.91
260.322	2.87
260.697	2.71
261.072	2.57
261.446	2.6
261.821	2.68
262.195	2.64
262.57	2.48
262.944	2.42
263.319	2.51
263.693	2.29
264.067	2.15
264.442	2.23
264.816	2.03
265.19	1.99
265.564	1.89
265.938	1.84
266.313	1.84
266.687	1.79
267.061	1.97
267.435	2.1
267.809	2.15
268.183	2.1
268.556	2.33
268.93	2.63
269.304	2.59
269.678	2.6
270.051	2.53
270.425	2.69
270.799	2.91
271.172	2.8
271.546	2.85
271.919	2.77
272.293	2.67
272.666	2.74
273.04	2.88
273.413	3.01
273.787	2.99
274.16	2.97
274.533	2.87
274.906	2.61
275.279	2.54
275.653	2.64
276.026	2.64
276.399	2.5
276.772	2.42
277.145	2.48
277.518	2.58
277.891	2.75
278.263	2.77
278.636	2.67
279.009	2.6
279.382	2.83
279.755	2.93
280.127	3.18
280.5	3.16
280.872	3.15
281.245	3
281.617	3.17
281.99	3.31
282.362	3.47
282.735	3.45
283.107	3.43
283.479	3.35
283.852	3.33
284.224	3.4
284.596	3.38
284.968	3.35
285.34	3.27
285.713	3.19
286.085	3.2
286.457	3.24
286.829	3.34
287.201	3.26
287.572	3.23
287.944	3.11
288.316	3.11
288.688	3.07
289.06	3.03
289.431	2.94
289.803	2.85
290.175	2.76
290.546	3.05
290.918	3.01
291.289	3.1
291.661	3.13
292.032	3.16
292.403	3.28
292.775	3.35
293.146	3.41
293.517	3.38
293.889	3.29
294.26	3.33
294.631	3.4
295.002	3.36
295.373	3.4
295.744	3.49
296.115	3.47
296.486	3.46
296.857	3.59
297.228	3.69
297.599	3.73
297.97	3.8
298.34	3.74
298.711	3.77
299.082	3.67
299.452	3.67
299.823	3.73
300.194	3.7
300.564	3.61
300.935	3.58
301.305	3.63
301.676	3.59
302.046	3.56
302.416	3.72
302.787	3.8
303.157	3.75
303.527	3.62
303.897	3.71
304.267	3.83
304.637	3.85
305.008	3.8
305.378	3.87
305.748	3.95
306.117	3.85
306.487	3.89
306.857	3.9
307.227	3.97
307.597	3.88
307.967	3.84
308.336	3.88
308.706	3.94
309.076	4.04
309.445	4.14
309.815	4.15
310.184	3.95
310.554	3.97
310.923	4.13
311.293	4.32
311.662	4.41
312.031	4.38
312.401	4.33
312.77	4.42
313.139	4.4
313.508	4.36
313.877	4.37
314.246	4.38
314.616	4.49
314.985	4.53
315.353	4.5
315.722	4.65
316.091	4.72
316.46	4.84
316.829	4.81
317.198	4.97
317.567	4.94
317.935	4.92
318.304	5.03
318.672	4.87
319.041	4.95
319.41	4.96
319.778	5.01
320.147	5.18
320.515	5.12
320.883	5.22
321.252	5.31
321.62	5.42
321.988	5.47
322.357	5.44
322.725	5.35
323.093	5.45
323.461	5.3
323.829	5.33
324.197	5.35
324.565	5.39
324.933	5.41
325.301	5.43
325.669	5.54
326.037	5.4
326.405	5.49
326.772	5.47
327.14	5.5
327.508	5.35
327.875	5.12
328.243	5.11
328.61	5.04
328.978	5
329.346	5.04
329.713	4.88
330.08	5
330.448	5.02
330.815	4.88
331.182	5.01
331.55	5.06
331.917	5.02
332.284	5.01
332.651	4.98
333.018	5.16
333.385	5.18
333.752	5.18
334.119	5.14
334.486	5.05
334.853	5.13
335.22	5.23
335.587	5.52
335.954	5.58
336.32	5.68
336.687	5.81
337.054	5.84
337.42	5.93
337.787	5.83
338.153	5.82
338.52	6.11
338.886	6.05
339.253	6.02
339.619	5.98
339.986	6.01
340.352	6.14
340.718	5.98
341.084	5.98
341.451	6.14
341.817	6.3
342.183	6.4
342.549	6.3
342.915	6.34
343.281	6.19
343.647	6.18
344.013	6.18
344.379	6.12
344.745	6.22
345.11	6.37
345.476	6.45
345.842	6.53
346.208	6.45
346.573	6.53
346.939	6.67
347.304	6.72
347.67	6.74
348.035	6.54
348.401	6.67
348.766	6.63
349.132	6.59
349.497	6.51
349.862	6.5
350.228	6.59
350.593	6.53
350.958	6.64
351.323	6.6
351.688	6.57
352.053	6.65
352.418	6.55
352.783	6.57
353.148	6.55
353.513	6.57
353.878	6.56
354.243	6.53
354.608	6.45
354.972	6.43
355.337	6.45
355.702	6.52
356.066	6.52
356.431	6.46
356.795	6.5
357.16	6.48
357.524	6.4
357.889	6.33
358.253	6.39
358.618	6.33
358.982	6.28
359.346	6.23
359.71	6.08
360.075	6.12
360.439	6.07
360.803	6.07
361.167	6.02
361.531	5.96
361.895	5.93
362.259	5.86
362.623	5.84
362.987	5.79
363.351	5.81
363.714	5.82
364.078	5.88
364.442	5.83
364.806	5.83
365.169	5.82
365.533	5.77
365.896	5.68
366.26	5.7
366.623	5.69
366.987	5.68
367.35	5.76
367.714	5.66
368.077	5.63
368.44	5.55
368.803	5.59
369.167	5.55
369.53	5.55
369.893	5.6
370.256	5.58
370.619	5.58
370.982	5.5
371.345	5.39
371.708	5.37
372.071	5.33
372.434	5.25
372.797	5.15
373.159	5.17
373.522	5.23
373.885	5.19
374.247	5.2
374.61	5.17
374.973	5.11
375.335	5.13
375.698	5.05
376.06	5.05
376.423	4.94
376.785	4.95
377.147	4.93
377.51	4.9
377.872	4.88
378.234	4.92
378.596	4.89
378.958	4.86
379.321	4.84
379.683	4.82
380.045	4.79
380.407	4.83
380.769	4.77
381.13	4.7
381.492	4.65
381.854	4.64
382.216	4.64
382.578	4.63
382.939	4.55
383.301	4.54
383.663	4.51
384.024	4.53
384.386	4.51
384.747	4.48
385.109	4.43
385.47	4.39
385.832	4.28
386.193	4.31
386.554	4.31
386.916	4.28
387.277	4.29
387.638	4.32
387.999	4.26
388.36	4.27
388.721	4.24
389.082	4.21
389.443	4.15
389.804	4.12
390.165	4.12
390.526	4.13
390.887	4.06
391.248	4.08
391.609	4.01
391.969	4.02
392.33	3.98
392.691	3.96
393.051	3.93
393.412	3.91
393.772	3.83
394.133	3.81
394.493	3.8
394.854	3.75
395.214	3.7
395.574	3.67
395.935	3.64
396.295	3.67
396.655	3.61
397.015	3.61
397.376	3.54
397.736	3.49
398.096	3.46
398.456	3.5
398.816	3.46
399.176	3.44
399.535	3.36
399.895	3.31
400.255	3.28
400.615	3.27
400.975	3.24
401.334	3.23
401.694	3.21
402.054	3.18
402.413	3.17
402.773	3.15
403.132	3.14
403.492	3.12
403.851	3.05
404.211	3.05
404.57	3
404.929	3.01
405.288	3
405.648	2.97
406.007	2.97
406.366	2.97
406.725	2.98
407.084	3
407.443	3.03
407.802	3.06
408.161	3.03
408.52	3.01
408.879	2.98
409.238	2.97
409.596	2.93
409.955	2.94
410.314	2.94
410.673	2.93
411.031	2.9
411.39	2.92
411.748	2.93
412.107	2.96
412.465	2.96
412.824	2.96
413.182	2.94
413.54	2.9
413.899	2.88
414.257	2.88
414.615	2.86
414.974	2.86
415.332	2.81
415.69	2.83
416.048	2.84
416.406	2.86
416.764	2.83
417.122	2.85
417.48	2.83
417.838	2.85
418.195	2.83
418.553	2.83
418.911	2.81
419.269	2.81
419.626	2.8
419.984	2.77
420.342	2.76
420.699	2.75
421.057	2.74
421.414	2.73
421.772	2.72
422.129	2.71
422.486	2.71
422.844	2.7
423.201	2.69
423.558	2.69
423.915	2.67
424.273	2.68
424.63	2.67
424.987	2.66
425.344	2.64
425.701	2.63
426.058	2.63
426.415	2.63
426.772	2.62
427.128	2.6
427.485	2.61
427.842	2.61
428.199	2.62
428.555	2.64
428.912	2.64
429.269	2.64
429.625	2.63
429.982	2.61
430.338	2.62
430.695	2.63
431.051	2.59
431.407	2.59
431.764	2.58
432.12	2.56
432.476	2.57
432.832	2.57
433.189	2.58
433.545	2.57
433.901	2.57
434.257	2.57
434.613	2.58
434.969	2.57
435.325	2.58
435.681	2.57
436.036	2.57
436.392	2.59
436.748	2.58
437.104	2.58
437.459	2.58
437.815	2.56
438.171	2.56
438.526	2.61
438.882	2.61
439.237	2.62
439.593	2.65
439.948	2.64
440.304	2.63
440.659	2.63
441.014	2.63
441.369	2.62
441.725	2.63
442.08	2.62
442.435	2.63
442.79	2.63
443.145	2.63
443.5	2.62
443.855	2.6
444.21	2.6
444.565	2.6
444.92	2.62
445.275	2.62
445.629	2.61
445.984	2.58
446.339	2.59
446.693	2.57
447.048	2.54
447.403	2.54
447.757	2.54
448.112	2.52
448.466	2.52
448.82	2.52
449.175	2.5
449.529	2.49
449.883	2.46
450.238	2.44
450.592	2.43
450.946	2.43
451.3	2.44
451.654	2.42
452.008	2.41
452.362	2.39
452.716	2.39
453.07	2.39
453.424	2.4
453.778	2.39
454.132	2.4
454.486	2.39
454.839	2.4
455.193	2.39
455.547	2.41
455.9	2.42
456.254	2.43
456.607	2.43
456.961	2.45
457.314	2.47
457.668	2.48
458.021	2.48
458.375	2.47
458.728	2.46
459.081	2.47
459.434	2.47
459.787	2.48
460.141	2.49
460.494	2.49
460.847	2.47
461.2	2.47
461.553	2.49
461.906	2.52
462.259	2.52
462.611	2.54
462.964	2.56
463.317	2.56
463.67	2.56
464.022	2.57
464.375	2.55
464.728	2.54
465.08	2.55
465.433	2.55
465.785	2.55
466.138	2.57
466.49	2.56
466.843	2.57
467.195	2.55
467.547	2.56
467.899	2.57
468.252	2.61
468.604	2.62
468.956	2.61
469.308	2.59
469.66	2.57
470.012	2.58
470.364	2.57
470.716	2.58
471.068	2.59
471.42	2.6
471.772	2.6
472.123	2.66
472.475	2.66
472.827	2.68
473.178	2.7
473.53	2.69
473.882	2.69
474.233	2.69
474.585	2.69
474.936	2.69
475.288	2.69
475.639	2.7
475.99	2.68
476.342	2.68
476.693	2.68
477.044	2.7
477.395	2.71
477.746	2.7
478.097	2.66
478.448	2.66
478.8	2.66
479.15	2.65
479.501	2.63
479.852	2.63
480.203	2.62
480.554	2.63
480.905	2.64
481.255	2.63
481.606	2.64
481.957	2.65
482.307	2.64
482.658	2.64
483.009	2.64
483.359	2.64
483.709	2.65
484.06	2.65
484.41	2.65
484.761	2.64
485.111	2.64
485.461	2.65
485.811	2.65
486.162	2.65
486.512	2.67
486.862	2.67
487.212	2.66
487.562	2.67
487.912	2.66
488.262	2.66
488.612	2.66
488.961	2.66
489.311	2.66
489.661	2.67
490.011	2.67
490.36	2.68
490.71	2.68
491.06	2.68
491.409	2.69
491.759	2.7
492.108	2.71
492.458	2.71
492.807	2.72
493.157	2.73
493.506	2.75
493.855	2.75
494.204	2.75
494.554	2.78
494.903	2.78
495.252	2.79
495.601	2.82
495.95	2.84
496.299	2.85
496.648	2.87
496.997	2.87
497.346	2.89
497.695	2.9
498.043	2.92
498.392	2.93
498.741	2.96
499.09	2.97
499.438	3
499.787	3.02
500.135	3.06
500.484	3.1
500.832	3.12
501.181	3.15
501.529	3.19
501.878	3.22
502.226	3.29
502.574	3.32
502.923	3.34
503.271	3.38
503.619	3.44
503.967	3.5
504.315	3.53
504.663	3.58
505.011	3.66
505.359	3.7
505.707	3.75
506.055	3.8
506.403	3.88
506.751	3.93
507.098	3.99
507.446	4.06
507.794	4.11
508.141	4.18
508.489	4.26
508.837	4.33
509.184	4.4
509.531	4.46
509.879	4.54
510.226	4.63
510.574	4.7
510.921	4.78
511.268	4.86
511.616	4.97
511.963	5.05
512.31	5.12
512.657	5.21
513.004	5.31
513.351	5.43
513.698	5.52
514.045	5.63
514.392	5.75
514.739	5.85
515.086	5.95
515.432	6.06
515.779	6.15
516.126	6.25
516.473	6.38
516.819	6.5
517.166	6.59
517.512	6.7
517.859	6.8
518.205	6.9
518.552	6.97
518.898	7.05
519.245	7.15
519.591	7.24
519.937	7.34
520.283	7.45
520.629	7.54
520.976	7.67
521.322	7.79
521.668	7.92
522.014	8.07
522.36	8.2
522.706	8.35
523.052	8.53
523.398	8.72
523.743	8.88
524.089	9.06
524.435	9.25
524.781	9.43
525.126	9.6
525.472	9.76
525.817	9.91
526.163	10.06
526.509	10.2
526.854	10.33
527.199	10.46
527.545	10.58
527.89	10.72
528.235	10.89
528.581	11.02
528.926	11.15
529.271	11.29
529.616	11.43
529.961	11.57
530.306	11.72
530.651	11.86
530.996	12.02
531.341	12.18
531.686	12.36
532.031	12.53
532.376	12.72
532.721	12.91
533.065	13.11
533.41	13.32
533.755	13.53
534.099	13.77
534.444	13.99
534.788	14.2
535.133	14.39
535.477	14.57
535.822	14.79
536.166	15.04
536.51	15.3
536.855	15.58
537.199	15.86
537.543	16.16
537.887	16.47
538.231	16.79
538.576	17.11
538.92	17.4
539.264	17.68
539.608	17.93
539.951	18.21
540.295	18.45
540.639	18.67
540.983	18.89
541.327	19.11
541.671	19.34
542.014	19.57
542.358	19.8
542.701	20.03
543.045	20.26
543.389	20.48
543.732	20.72
544.075	20.98
544.419	21.21
544.762	21.46
545.105	21.74
545.449	21.99
545.792	22.25
546.135	22.53
546.478	22.84
546.821	23.17
547.165	23.48
547.508	23.8
547.851	24.15
548.194	24.46
548.536	24.8
548.879	25.14
549.222	25.48
549.565	25.8
549.908	26.11
550.25	26.47
550.593	26.77
550.936	27.08
551.278	27.38
551.621	27.73
551.963	28.05
552.306	28.36
552.648	28.69
552.991	28.99
553.333	29.28
553.675	29.55
554.017	29.79
554.36	30.1
554.702	30.36
555.044	30.65
555.386	30.9
555.728	31.19
556.07	31.41
556.412	31.68
556.754	31.99
557.096	32.26
557.438	32.56
557.78	32.92
558.121	33.21
558.463	33.51
558.805	33.75
559.147	34
559.488	34.19
559.83	34.39
560.171	34.65
560.513	34.9
560.854	35.2
561.196	35.47
561.537	35.7
561.878	35.94
562.22	36.13
562.561	36.4
562.902	36.59
563.243	36.86
563.584	37.09
563.925	37.28
564.266	37.51
564.607	37.68
564.948	37.78
565.289	37.97
565.63	38.14
565.971	38.38
566.312	38.55
566.653	38.74
566.993	38.97
567.334	39.1
567.675	39.29
568.015	39.42
568.356	39.59
568.696	39.74
569.037	39.98
569.377	40.22
569.718	40.37
570.058	40.53
570.398	40.64
570.739	40.81
571.079	40.99
571.419	41.18
571.759	41.34
572.099	41.54
572.439	41.69
572.779	41.85
573.119	41.97
573.459	42.16
573.799	42.34
574.139	42.44
574.479	42.58
574.819	42.72
575.158	42.88
575.498	42.99
575.838	43.13
576.177	43.2
576.517	43.26
576.856	43.46
577.196	43.63
577.535	43.81
577.875	43.97
578.214	44.11
578.553	44.2
578.893	44.33
579.232	44.46
579.571	44.58
579.91	44.75
580.25	44.85
580.589	44.98
580.928	45.04
581.267	45.23
581.606	45.39
581.945	45.5
582.283	45.59
582.622	45.79
582.961	45.95
583.3	46.06
583.639	46.27
583.977	46.31
584.316	46.4
584.654	46.51
584.993	46.57
585.332	46.64
585.67	46.8
586.008	46.89
586.347	46.96
586.685	47.08
587.024	47.13
587.362	47.27
587.7	47.32
588.038	47.46
588.376	47.5
588.715	47.57
589.053	47.7
589.391	47.84
589.729	47.93
590.067	48.02
590.404	48.19
590.742	48.26
591.08	48.37
591.418	48.5
591.756	48.59
592.093	48.73
592.431	48.83
592.769	48.82
593.106	48.87
593.444	49
593.781	49.07
594.119	49.19
594.456	49.24
594.793	49.34
595.131	49.45
595.468	49.54
595.805	49.61
596.143	49.68
596.48	49.67
596.817	49.75
597.154	49.85
597.491	49.88
597.828	49.9
598.165	49.9
598.502	49.96
598.839	50.08
599.176	50.12
599.512	50.17
599.849	50.33
600.186	50.51
600.523	50.47
600.859	50.54
601.196	50.53
601.532	50.54
601.869	50.55
602.205	50.6
602.542	50.71
602.878	50.8
603.215	50.87
603.551	50.92
603.887	50.94
604.223	50.98
604.56	50.99
604.896	50.97
605.232	51.09
605.568	51.06
605.904	51.07
606.24	51.13
606.576	51.18
606.912	51.24
607.248	51.25
607.583	51.39
607.919	51.41
608.255	51.5
608.591	51.69
608.926	51.79
609.262	51.79
609.597	51.76
609.933	51.77
610.268	51.81
610.604	51.89
610.939	51.9
611.275	51.9
611.61	52.07
611.945	52.25
612.281	52.25
612.616	52.3
612.951	52.33
613.286	52.36
613.621	52.4
613.956	52.35
614.291	52.36
614.626	52.47
614.961	52.51
615.296	52.66
615.631	52.64
615.966	52.68
616.3	52.8
616.635	52.85
616.97	52.95
617.304	52.93
617.639	53.01
617.973	53.05
618.308	53.04
618.642	52.92
618.977	52.93
619.311	52.93
619.646	53.01
619.98	53.13
620.314	53.24
620.648	53.29
620.983	53.45
621.317	53.5
621.651	53.43
621.985	53.52
622.319	53.45
622.653	53.42
622.987	53.47
623.321	53.51
623.655	53.53
623.988	53.46
624.322	53.5
624.656	53.48
624.99	53.49
625.323	53.54
625.657	53.64
625.99	53.59
626.324	53.63
626.657	53.64
626.991	53.56
627.324	53.54
627.658	53.62
627.991	53.51
628.324	53.5
628.657	53.6
628.991	53.57
629.324	53.56
629.657	53.61
629.99	53.59
630.323	53.64
630.656	53.62
630.989	53.72
631.322	53.79
631.655	53.76
631.987	53.9
632.32	53.96
632.653	53.86
632.986	53.91
633.318	54.02
633.651	54.07
633.984	54.14
634.316	54.18
634.649	54.16
634.981	54.23
635.313	54.24
635.646	54.14
635.978	54.14
636.31	54.18
636.643	54.23
636.975	54.22
637.307	54.05
637.639	54.17
637.971	54.17
638.303	54.14
638.635	54.23
638.967	54.13
639.299	54.2
639.631	54.18
639.963	54.2
640.295	54.19
640.626	54.17
640.958	54.17
641.29	54.11
641.621	54.08
641.953	54.05
642.285	54.03
642.616	54.15
642.948	54.15
643.279	54.14
643.61	54.1
643.942	54.19
644.273	54.27
644.604	54.3
644.936	54.32
645.267	54.32
645.598	54.29
645.929	54.33
646.26	54.31
646.591	54.46
646.922	54.51
647.253	54.58
647.584	54.54
647.915	54.54
648.245	54.44
648.576	54.46
648.907	54.59
649.238	54.65
649.568	54.68
649.899	54.7
650.229	54.78
650.56	54.9
650.89	54.87
651.221	54.95
651.551	54.89
651.882	54.91
652.212	54.95
652.542	54.95
652.872	54.91
653.203	54.88
653.533	54.83
653.863	54.83
654.193	54.79
654.523	54.77
654.853	54.74
655.183	54.79
655.513	54.86
655.843	54.79
656.172	54.81
656.502	54.76
656.832	54.8
657.162	54.95
657.491	54.91
657.821	54.95
658.15	54.95
658.48	54.98
658.809	54.95
659.139	54.9
659.468	54.86
659.798	55
660.127	54.92
660.456	55
660.785	55
661.115	54.93
661.444	55.11
661.773	55.2
662.102	55.33
662.431	55.29
662.76	55.35
663.089	55.33
663.418	55.31
663.747	55.31
664.076	55.18
664.404	55.12
664.733	55.19
665.062	55.16
665.39	55.33
665.719	55.48
666.048	55.64
666.376	55.73
666.705	55.61
667.033	55.65
667.362	55.67
667.69	55.62
668.018	55.79
668.347	55.68
668.675	55.59
669.003	55.53
669.331	55.59
669.659	55.57
669.987	55.68
670.315	55.77
670.643	55.83
670.971	55.84
671.299	55.96
671.627	55.92
671.955	55.95
672.283	55.73
672.61	55.55
672.938	55.43
673.266	55.36
673.593	55.5
673.921	55.61
674.249	55.61
674.576	55.72
674.904	55.66
675.231	55.66
675.558	55.75
675.886	55.8
676.213	55.66
676.54	55.62
676.867	55.68
677.195	55.7
677.522	55.63
677.849	55.64
678.176	55.64
678.503	55.62
678.83	55.55
679.157	55.62
679.484	55.69
679.81	55.74
680.137	55.82
680.464	55.72
680.791	55.69
681.117	55.65
681.444	55.63
681.771	55.56
682.097	55.47
682.424	55.51
682.75	55.46
683.077	55.52
683.403	55.55
683.729	55.49
684.056	55.42
684.382	55.5
684.708	55.46
685.034	55.33
685.36	55.38
685.686	55.54
686.012	55.59
686.339	55.55
686.664	55.47
686.99	55.49
687.316	55.48
687.642	55.57
687.968	55.55
688.294	55.61
688.619	55.67
688.945	55.87
689.271	55.88
689.596	56.01
689.922	56.12
690.247	56.06
690.573	56.11
690.898	56.12
691.224	56.15
691.549	56.09
691.874	56.13
692.2	56.14
692.525	56.19
692.85	56.14
693.175	56.16
693.5	56.31
693.825	56.43
694.15	56.56
694.475	56.51
694.8	56.49
695.125	56.32
695.45	56.31
695.775	56.18
696.099	56.14
696.424	56.04
696.749	55.85
697.073	56.01
697.398	55.93
697.723	55.82
698.047	55.73
698.372	55.75
698.696	55.81
699.02	55.7
699.345	55.51
699.669	55.63
699.993	55.66
700.318	55.54
700.642	55.38
700.966	55.36
701.29	55.5
701.614	55.53
701.938	55.7
702.262	55.67
702.586	55.77
702.91	55.74
703.234	55.78
703.557	56.06
703.881	55.94
704.205	55.99
704.529	56.2
704.852	56.12
705.176	56.31
705.499	56.26
705.823	56.22
706.146	56.3
706.47	56.24
706.793	56.13
707.117	56.22
707.44	56.23
707.763	56.21
708.086	55.98
708.409	56.07
708.733	55.84
709.056	55.91
709.379	55.98
709.702	56.15
710.025	56.12
710.348	55.99
710.671	55.96
710.993	55.94
711.316	56.05
711.639	56.24
711.962	56.13
712.284	56.26
712.607	56.31
712.93	56.51
713.252	56.23
713.575	56.46
713.897	56.54
714.22	56.71
714.542	56.69
714.864	56.8
715.187	56.8
715.509	56.97
715.831	56.95
716.153	57.05
716.475	56.95
716.798	57.16
717.12	57
717.442	57.06
717.764	57.33
718.085	57.24
718.407	57.2
718.729	57.16
719.051	57.11
719.373	57.26
719.695	57.16
720.016	57.27
720.338	57.04
720.659	56.85
720.981	56.55
721.302	56.51
721.624	56.21
721.945	56.09
722.267	56.14
722.588	56.08
722.909	55.94
723.231	55.85
723.552	55.71
723.873	56.1
724.194	56.19
724.515	55.98
724.836	55.83
725.157	56.12
725.478	56.1
725.799	56.24
726.12	56.13
726.441	56.1
726.762	56.17
727.083	56.25
727.403	56.43
727.724	56.8
728.045	56.78
728.365	56.78
728.686	56.92
729.006	56.85
729.327	56.97
729.647	56.91
729.967	56.86
730.288	56.77
730.608	56.5
730.928	56.28
731.249	55.94
731.569	56.18
731.889	55.94
732.209	55.98
732.529	55.74
732.849	55.74
733.169	55.66
733.489	55.59
733.809	55.72
734.129	55.79
734.448	55.56
734.768	55.46
735.088	55.77
735.408	55.69
735.727	55.6
736.047	55.63
736.366	55.59
736.686	55.53
737.005	55.61
737.325	55.84
737.644	56.07
737.963	56.32
738.283	56.23
738.602	56.2
738.921	56.24
739.24	56.44
739.56	56.43
739.879	56.55
740.198	56.7
740.517	56.56
740.836	56.29
741.155	56.17
741.473	56.24
741.792	56.24
742.111	56.28
742.43	56.26
742.748	56.15
743.067	56.03
743.386	56.32
743.704	56.4
744.023	56.44
744.341	56.4
744.66	56.33
744.978	56.22
745.297	56.15
745.615	56.07
745.933	55.92
746.252	56.05
746.57	55.68
746.888	55.79
747.206	55.76
747.524	55.89
747.842	55.88
748.16	55.74
748.478	55.67
748.796	55.81
749.114	55.93
749.432	55.62
749.749	55.75
750.067	55.65
750.385	55.58
750.703	55.35
751.02	55.4
751.338	55.34
751.655	55.38
751.973	55.39
752.29	55.58
752.608	56.02
752.925	55.72
753.242	56.13
753.56	55.97
753.877	56.21
754.194	56.04
754.511	56.2
754.828	56.44
755.145	56.27
755.462	56.21
755.779	56.33
756.096	56.87
756.413	57.05
756.73	57.15
757.047	56.83
757.364	56.74
757.68	56.64
757.997	56.81
758.314	56.89
758.63	57.02
758.947	56.85
759.264	56.23
759.58	56.59
759.896	56.8
760.213	56.63
760.529	56.38
760.846	56.82
761.162	56.72
761.478	56.83
761.794	56.82
762.11	56.55
762.426	56.5
762.743	56.17
763.059	56.28
763.375	56.1
763.69	56.15
764.006	56.33
764.322	56.42
764.638	56.41
764.954	56.43
765.27	56.52
765.585	56.49
765.901	56.78
766.216	56.49
766.532	56.32
766.848	56.31
767.163	56.54
767.478	56.4
767.794	56.51
768.109	56.24
768.424	56.37
768.74	56.63
769.055	56.51
769.37	56.71
769.685	56.29
770	56.52
770.315	56.52
770.63	56.38
770.945	56.19
771.26	56.29
771.575	56.43
771.89	56.38
772.205	56.48
772.52	56.26
772.834	56.77
773.149	56.73
773.464	57.26
773.778	57.13
774.093	57.06
774.407	56.96
774.722	57.17
775.036	57.06
775.351	57.08
775.665	57.36
775.979	57.7
776.293	57.7
776.608	57.69
776.922	57.88
777.236	58.04
777.55	58.12
777.864	58.02
778.178	57.99
778.492	57.63
778.806	57.45
779.12	57.67
779.434	57.18
779.747	57.07
780.061	56.68
780.375	56.05
780.689	56.42
781.002	56.59
781.316	56.67
781.629	57.18
781.943	57
782.256	56.81
782.57	55.99
782.883	56.47
783.196	56.13
783.51	56.24
783.823	55.98
784.136	56.48
784.449	56.23
784.762	56.13
785.075	56.54
785.388	56.4
785.701	56.52
786.014	56.56
786.327	56.55
786.64	56.73
786.953	57.2
787.266	56.74
787.578	56.88
787.891	56.84
788.204	56.57
788.516	56.83
788.829	56.75
789.141	57.42
789.454	56.96
789.766	57.31
790.079	56.83
790.391	57.06
790.703	56.83
791.016	56.83
791.328	56.58
791.64	56.77
791.952	57.06
792.264	56.7
792.576	56.4
792.888	56.5
793.2	56.56
793.512	56.79
793.824	57.06
794.136	57.31
794.448	56.99
794.76	56.39
795.071	56
795.383	55.68
795.695	55.38
796.006	55.4
796.318	55.3
796.629	55.23
796.941	55.07
797.252	55.04
797.564	55.62
797.875	55.25
798.186	55.36
798.497	55.48
798.809	55.47
799.12	56.13
799.431	56.33
799.742	56.02
800.053	56.31
800.364	56
800.675	55.22
800.986	55.94
801.297	56.44
801.608	56.49
801.918	57.14
802.229	57.25
802.54	57.8
802.851	57.83
803.161	58.92
803.472	58.72
803.782	58.72
804.093	58.75
804.403	59.35
804.714	58.62
805.024	58.58
805.334	58.93
805.645	59.04
805.955	59.17
806.265	59.42
806.575	59.23
806.885	58.46
807.195	58.28
807.505	58.29
807.815	58.43
808.125	58.68
808.435	58.46
808.745	58.16
809.055	57.92
809.365	57.47
809.674	56.89
809.984	57.23
810.294	57.3
810.603	56.67
810.913	56.88
811.222	57.75
811.532	57.28
811.841	57.02
812.151	56.92
812.46	56.39
812.769	56.25
813.079	55.82
813.388	56.69
813.697	57.15
814.006	56.6
814.315	56.66
814.624	56.71
814.933	56.73
815.242	56.99
815.551	57.42
815.86	57.6
816.169	57.56
816.478	57.11
816.786	57.52
817.095	58.48
817.404	58.88
817.712	58.65
818.021	59.88
818.33	59.54
818.638	59.03
818.947	59.17
819.255	58.84
819.563	58.65
819.872	58.37
820.18	58.48
820.488	58.42
820.796	58.7
821.105	58.67
821.413	58.32
821.721	58.35
822.029	58.11
822.337	58.35
822.645	58.38
822.953	58.67
823.26	58.43
823.568	58.32
823.876	58.19
824.184	57.98
824.491	57.84
824.799	57.9
825.107	58.08
825.414	57.97
825.722	58.04
826.029	58.14
826.337	58.18
826.644	58.36
826.951	58.31
827.259	58.19
827.566	58.13
827.873	58.31
828.18	58.35
828.488	58.6
828.795	58.33
829.102	58.48
829.409	58.35
829.716	58.45
830.023	58.43
830.329	58.52
830.636	58.9
830.943	58.58
831.25	58.7
831.557	58.65
831.863	59.06
832.17	59.43
832.476	59.56
832.783	59.61
833.089	59.15
833.396	59.19
833.702	58.96
834.009	59.03
834.315	59.32
834.621	59.38
834.928	59.1
835.234	59.4
835.54	59.12
835.846	59.26
836.152	59.03
836.458	59.14
836.764	59.08
837.07	58.82
837.376	58.89
837.682	58.72
837.988	58.24
838.293	58.07
838.599	58.17
838.905	57.9
839.211	58.13
839.516	58.38
839.822	58.86
840.127	58.54
840.433	58.45
840.738	58.55
841.044	58.1
841.349	58.64
841.654	58.46
841.959	59.81
842.265	59.48
842.57	59.76
842.875	59.17
843.18	58.95
843.485	58.69
843.79	59.4
844.095	60.55
844.4	61.38
844.705	61.09
845.01	59.32
845.315	58.89
845.619	59.95
845.924	59.67
846.229	58.94
846.533	60.28
846.838	59.14
847.142	58.3
847.447	57.19
847.751	56.44
848.056	56.46
848.36	55.52
848.664	54.84
848.969	56.13
849.273	56.88
849.577	57.89
849.881	58.8
850.185	59.06
850.489	58.37
850.794	56.21
851.097	56.19
851.401	56.71
851.705	55.31
852.009	54.45
852.313	52.8
852.617	54.41
852.92	53.62
853.224	55.35
853.528	53.05
853.831	55.15
854.135	53.93
854.438	53.25
854.742	52.35
855.045	52.9
855.349	51.54
855.652	49.37
855.955	48.2
856.259	47.28
856.562	45.67
856.865	43.86
857.168	42.87
857.471	41.03
857.774	41.51
858.077	44.23
858.38	44.36
858.683	46.21
858.986	45.27
859.289	45.94
859.592	45.03
859.894	48.57
860.197	47.31
860.5	48.46
860.802	48.22
861.105	47.93
861.407	46.98
861.71	48.16
862.012	50.37
862.315	50.01
862.617	50.31
862.919	50.98
863.222	51.75
863.524	54.54
863.826	56.21
864.128	57.08
864.43	58.14
864.732	59.52
865.034	60.95
865.336	62.73
865.638	62.08
865.94	60.32
866.242	58.31
866.544	58.47
866.846	59.5
867.147	60.21
867.449	60.29
867.751	62.05
868.052	60.42
868.354	60.42
868.655	61.35
868.957	62.35
869.258	62.54
869.56	63.24
869.861	62.18
870.162	61.57
870.463	60.48
870.765	59.91
871.066	56.22
871.367	55.09
871.668	54.8
871.969	54.98
872.27	58.84
872.571	61.08
872.872	59.89
873.173	57.91
873.473	58.73
873.774	60.18
874.075	60.9
874.376	61.77
874.676	60.21
874.977	60.4
875.277	59.83
875.578	61.27
875.878	61.43
876.179	62.77
876.479	64.85
876.78	65.25
877.08	64.54
877.38	66.68
877.68	65.68
877.981	63.4
878.281	63.6
878.581	63.74
