Data from BA28308_Reflection_00015.txt Node
Date: Mon Nov 18 15:39:14 EST 2019
User: vgr7
Spectrometer: USB2G7710
Scans to average: 3
Trigger mode: 4
Integration Time (sec): 2.000000E-2
Electric dark correction enabled: true
Boxcar width: 10
XAxis mode: Wavelengths
Number of Pixels in Spectrum: 2048
>>>>>Begin Spectral Data<<<<<
177.721	-10.98
178.105	-36.22
178.488	-122.31
178.871	-43.45
179.254	61.6
179.636	-270.54
180.019	-43.65
180.402	170.59
180.785	77.91
181.168	8.03
181.55	54.27
181.933	92.84
182.316	67.51
182.698	76.95
183.081	41.27
183.463	46.58
183.846	120.03
184.228	113.67
184.611	97.72
184.993	131.18
185.376	151.26
185.758	243.23
186.14	417.42
186.522	137.26
186.904	116.31
187.287	190.23
187.669	14.7
188.051	55.61
188.433	-160.05
188.815	-45.29
189.197	-72.3
189.579	-74.76
189.961	-34.42
190.342	-43.82
190.724	-28.52
191.106	-47.68
191.488	-54.08
191.869	-35.02
192.251	-50.85
192.633	-38.95
193.014	-63.36
193.396	-95.32
193.777	-120.12
194.159	-101.52
194.54	-60.47
194.922	-59.66
195.303	-69.27
195.684	-77.06
196.065	-67.94
196.447	-75.08
196.828	-63.75
197.209	-49.08
197.59	-57.71
197.971	-87.95
198.352	-79.89
198.733	-110.63
199.114	-92.78
199.495	-64.33
199.876	-55.58
200.257	-33.84
200.638	-41.15
201.018	-40.01
201.399	-17.73
201.78	-37.42
202.16	-114.25
202.541	-188.64
202.922	-283.18
203.302	-269.09
203.683	-295.48
204.063	-534.64
204.444	-682.54
204.824	-763.4
205.204	-1895.74
205.585	-59185.71
205.965	5192.31
206.345	435.14
206.725	346.41
207.106	212.34
207.486	210.55
207.866	220.88
208.246	236.4
208.626	228.13
209.006	770.89
209.386	597.74
209.766	597.47
210.145	482.3
210.525	-9170.27
210.905	-425.66
211.285	-1103.77
211.664	-1201.51
212.044	-668.67
212.424	-293.05
212.803	-276.32
213.183	-140.78
213.562	-118.11
213.942	-74.34
214.321	-78.24
214.701	-86.65
215.08	-85.37
215.459	-73.13
215.838	-73.71
216.218	-89.95
216.597	-83.83
216.976	-77.57
217.355	-51.25
217.734	-43.22
218.113	-31.56
218.492	-37.68
218.871	-45.28
219.25	-31.43
219.629	-43.55
220.008	-50.17
220.387	-26.45
220.766	-36.97
221.144	-72.22
221.523	-67.1
221.902	-141.33
222.28	-181.9
222.659	-157.77
223.037	-81.3
223.416	-68.55
223.794	-57.57
224.173	-41.79
224.551	-36.37
224.929	-33
225.308	-25.62
225.686	-26.91
226.064	-25.01
226.442	-15.56
226.821	-12.49
227.199	-11.99
227.577	-7.92
227.955	-8.34
228.333	-12.03
228.711	-11.52
229.089	-3.69
229.467	-3.53
229.845	-1.52
230.222	2.39
230.6	4.12
230.978	4.5
231.356	5.74
231.733	4.14
232.111	4.71
232.488	4.67
232.866	4.68
233.243	4.07
233.621	2.62
233.998	1.83
234.376	0.74
234.753	0.69
235.13	2.31
235.508	1.48
235.885	2.96
236.262	3.07
236.639	5.43
237.016	4.66
237.393	5.35
237.77	6.01
238.147	5.19
238.524	4.08
238.901	4.75
239.278	5.78
239.655	7.58
240.032	7.23
240.409	7.56
240.785	7.28
241.162	7.19
241.539	7.9
241.915	8.21
242.292	7.97
242.668	8.15
243.045	7.77
243.421	7.75
243.798	7.3
244.174	7.39
244.551	7.12
244.927	6.74
245.303	6.93
245.679	6.85
246.056	6.96
246.432	7.11
246.808	6.75
247.184	6.2
247.56	5.88
247.936	5.85
248.312	5.81
248.688	5.55
249.064	5.52
249.44	5.41
249.815	5.33
250.191	5.29
250.567	5.14
250.943	4.94
251.318	5.13
251.694	5.18
252.069	5.14
252.445	5.23
252.82	5.38
253.196	4.84
253.571	4.74
253.947	4.8
254.322	4.9
254.697	4.99
255.073	4.92
255.448	4.55
255.823	4.83
256.198	4.81
256.573	4.95
256.948	5.12
257.323	5.24
257.698	5.21
258.073	5.34
258.448	5.39
258.823	5.48
259.198	5.31
259.573	5.38
259.948	5.29
260.322	5.24
260.697	5.17
261.072	5.21
261.446	5.08
261.821	4.93
262.195	4.83
262.57	4.84
262.944	4.98
263.319	5.01
263.693	4.89
264.067	4.94
264.442	5.13
264.816	5.03
265.19	4.94
265.564	4.92
265.938	4.8
266.313	4.54
266.687	4.49
267.061	4.43
267.435	4.29
267.809	4.43
268.183	4.44
268.556	4.52
268.93	4.65
269.304	4.81
269.678	5.08
270.051	5.14
270.425	5.08
270.799	4.94
271.172	5.03
271.546	4.86
271.919	4.71
272.293	4.69
272.666	4.72
273.04	4.92
273.413	4.88
273.787	4.77
274.16	4.91
274.533	4.94
274.906	4.84
275.279	4.93
275.653	4.93
276.026	4.99
276.399	5.04
276.772	5.08
277.145	4.99
277.518	4.92
277.891	4.94
278.263	4.93
278.636	4.98
279.009	5.01
279.382	5.32
279.755	5.25
280.127	5.36
280.5	5.26
280.872	5.1
281.245	5.1
281.617	5.31
281.99	5.45
282.362	5.51
282.735	5.63
283.107	5.43
283.479	5.51
283.852	5.46
284.224	5.47
284.596	5.38
284.968	5.41
285.34	5.38
285.713	5.32
286.085	5.34
286.457	5.56
286.829	5.61
287.201	5.61
287.572	5.75
287.944	5.58
288.316	5.62
288.688	5.55
289.06	5.63
289.431	5.59
289.803	5.47
290.175	5.53
290.546	5.6
290.918	5.86
291.289	5.82
291.661	5.87
292.032	6
292.403	6.05
292.775	6.14
293.146	6.05
293.517	6.06
293.889	6.1
294.26	5.96
294.631	5.92
295.002	5.88
295.373	5.79
295.744	5.88
296.115	5.89
296.486	5.88
296.857	5.92
297.228	6.01
297.599	5.95
297.97	5.83
298.34	5.78
298.711	5.75
299.082	5.71
299.452	5.65
299.823	5.57
300.194	5.59
300.564	5.6
300.935	5.75
301.305	5.83
301.676	5.96
302.046	5.94
302.416	6.08
302.787	6.02
303.157	6.14
303.527	6.12
303.897	6.2
304.267	6.41
304.637	6.49
305.008	6.52
305.378	6.58
305.748	6.69
306.117	6.67
306.487	6.74
306.857	6.81
307.227	6.95
307.597	6.89
307.967	6.77
308.336	6.76
308.706	6.59
309.076	6.56
309.445	6.53
309.815	6.47
310.184	6.37
310.554	6.39
310.923	6.43
311.293	6.46
311.662	6.45
312.031	6.42
312.401	6.3
312.77	6.38
313.139	6.53
313.508	6.51
313.877	6.54
314.246	6.58
314.616	6.62
314.985	6.54
315.353	6.53
315.722	6.74
316.091	6.73
316.46	6.95
316.829	7.01
317.198	7.01
317.567	7.21
317.935	7.25
318.304	7.45
318.672	7.43
319.041	7.77
319.41	7.83
319.778	7.63
320.147	7.67
320.515	7.48
320.883	7.44
321.252	7.62
321.62	7.56
321.988	7.54
322.357	7.6
322.725	7.65
323.093	7.7
323.461	7.75
323.829	7.73
324.197	7.84
324.565	7.81
324.933	7.8
325.301	7.77
325.669	7.73
326.037	7.59
326.405	7.65
326.772	7.46
327.14	7.54
327.508	7.73
327.875	7.73
328.243	7.94
328.61	7.98
328.978	7.95
329.346	8.01
329.713	7.98
330.08	7.95
330.448	7.94
330.815	7.86
331.182	7.91
331.55	7.9
331.917	7.69
332.284	7.79
332.651	7.83
333.018	7.93
333.385	8.03
333.752	8.24
334.119	8.24
334.486	8.29
334.853	8.21
335.22	8.24
335.587	8.42
335.954	8.47
336.32	8.5
336.687	8.49
337.054	8.65
337.42	8.72
337.787	8.77
338.153	8.88
338.52	9.08
338.886	8.99
339.253	9.03
339.619	9.15
339.986	9.17
340.352	9.28
340.718	9.3
341.084	9.28
341.451	9.25
341.817	9.31
342.183	9.33
342.549	9.38
342.915	9.36
343.281	9.33
343.647	9.28
344.013	9.24
344.379	9.16
344.745	9.09
345.11	9.07
345.476	9.03
345.842	8.96
346.208	8.95
346.573	9.02
346.939	9.04
347.304	9.04
347.67	8.96
348.035	8.93
348.401	8.84
348.766	8.93
349.132	8.9
349.497	8.81
349.862	8.77
350.228	8.73
350.593	8.69
350.958	8.76
351.323	8.72
351.688	8.79
352.053	8.92
352.418	8.88
352.783	8.98
353.148	9.02
353.513	9.1
353.878	9.11
354.243	9.12
354.608	9.09
354.972	9.14
355.337	9.3
355.702	9.32
356.066	9.36
356.431	9.25
356.795	9.32
357.16	9.34
357.524	9.32
357.889	9.32
358.253	9.4
358.618	9.34
358.982	9.32
359.346	9.27
359.71	9.23
360.075	9.31
360.439	9.28
360.803	9.26
361.167	9.26
361.531	9.2
361.895	9.08
362.259	9.11
362.623	9.07
362.987	8.94
363.351	8.91
363.714	8.93
364.078	8.99
364.442	8.82
364.806	8.82
365.169	8.83
365.533	8.8
365.896	8.76
366.26	8.73
366.623	8.74
366.987	8.73
367.35	8.81
367.714	8.76
368.077	8.67
368.44	8.66
368.803	8.57
369.167	8.54
369.53	8.58
369.893	8.52
370.256	8.46
370.619	8.46
370.982	8.39
371.345	8.31
371.708	8.2
372.071	8.21
372.434	8.13
372.797	8.11
373.159	8.08
373.522	8.06
373.885	8.07
374.247	8.01
374.61	7.99
374.973	7.83
375.335	7.74
375.698	7.67
376.06	7.57
376.423	7.55
376.785	7.51
377.147	7.46
377.51	7.42
377.872	7.46
378.234	7.43
378.596	7.41
378.958	7.34
379.321	7.39
379.683	7.46
380.045	7.45
380.407	7.33
380.769	7.29
381.13	7.23
381.492	7.12
381.854	7.11
382.216	7.08
382.578	7.06
382.939	6.99
383.301	6.97
383.663	6.96
384.024	6.91
384.386	6.96
384.747	6.96
385.109	6.94
385.47	6.8
385.832	6.76
386.193	6.75
386.554	6.73
386.916	6.61
387.277	6.54
387.638	6.55
387.999	6.58
388.36	6.57
388.721	6.52
389.082	6.51
389.443	6.43
389.804	6.35
390.165	6.33
390.526	6.31
390.887	6.27
391.248	6.23
391.609	6.21
391.969	6.1
392.33	6.04
392.691	6.05
393.051	6.08
393.412	6.05
393.772	5.99
394.133	5.96
394.493	5.95
394.854	5.92
395.214	5.89
395.574	5.85
395.935	5.81
396.295	5.81
396.655	5.77
397.015	5.76
397.376	5.74
397.736	5.73
398.096	5.75
398.456	5.75
398.816	5.74
399.176	5.67
399.535	5.66
399.895	5.62
400.255	5.55
400.615	5.49
400.975	5.46
401.334	5.43
401.694	5.42
402.054	5.4
402.413	5.38
402.773	5.32
403.132	5.3
403.492	5.29
403.851	5.25
404.211	5.26
404.57	5.23
404.929	5.24
405.288	5.22
405.648	5.14
406.007	5.13
406.366	5.12
406.725	5.14
407.084	5.16
407.443	5.17
407.802	5.14
408.161	5.15
408.52	5.13
408.879	5.12
409.238	5.09
409.596	5.08
409.955	5.07
410.314	5.09
410.673	5.07
411.031	5.06
411.39	5.08
411.748	5.04
412.107	5.02
412.465	4.99
412.824	4.99
413.182	5.02
413.54	5
413.899	5.03
414.257	5.04
414.615	5.01
414.974	4.99
415.332	5
415.69	4.99
416.048	4.98
416.406	4.98
416.764	4.96
417.122	4.96
417.48	4.91
417.838	4.89
418.195	4.87
418.553	4.84
418.911	4.83
419.269	4.81
419.626	4.81
419.984	4.81
420.342	4.8
420.699	4.78
421.057	4.75
421.414	4.72
421.772	4.7
422.129	4.7
422.486	4.67
422.844	4.67
423.201	4.64
423.558	4.62
423.915	4.6
424.273	4.61
424.63	4.58
424.987	4.58
425.344	4.58
425.701	4.57
426.058	4.56
426.415	4.54
426.772	4.53
427.128	4.51
427.485	4.5
427.842	4.48
428.199	4.48
428.555	4.49
428.912	4.5
429.269	4.5
429.625	4.48
429.982	4.47
430.338	4.46
430.695	4.48
431.051	4.48
431.407	4.49
431.764	4.46
432.12	4.44
432.476	4.44
432.832	4.41
433.189	4.43
433.545	4.42
433.901	4.42
434.257	4.44
434.613	4.45
434.969	4.45
435.325	4.47
435.681	4.46
436.036	4.45
436.392	4.43
436.748	4.41
437.104	4.41
437.459	4.42
437.815	4.42
438.171	4.43
438.526	4.42
438.882	4.43
439.237	4.42
439.593	4.44
439.948	4.44
440.304	4.47
440.659	4.45
441.014	4.47
441.369	4.46
441.725	4.43
442.08	4.41
442.435	4.4
442.79	4.37
443.145	4.37
443.5	4.36
443.855	4.35
444.21	4.36
444.565	4.36
444.92	4.36
445.275	4.35
445.629	4.35
445.984	4.36
446.339	4.33
446.693	4.32
447.048	4.3
447.403	4.31
447.757	4.28
448.112	4.28
448.466	4.25
448.82	4.25
449.175	4.26
449.529	4.25
449.883	4.25
450.238	4.25
450.592	4.25
450.946	4.24
451.3	4.24
451.654	4.22
452.008	4.21
452.362	4.19
452.716	4.17
453.07	4.17
453.424	4.16
453.778	4.16
454.132	4.17
454.486	4.17
454.839	4.15
455.193	4.15
455.547	4.17
455.9	4.18
456.254	4.18
456.607	4.18
456.961	4.21
457.314	4.21
457.668	4.21
458.021	4.19
458.375	4.19
458.728	4.2
459.081	4.21
459.434	4.21
459.787	4.21
460.141	4.21
460.494	4.2
460.847	4.2
461.2	4.21
461.553	4.19
461.906	4.2
462.259	4.22
462.611	4.23
462.964	4.21
463.317	4.2
463.67	4.21
464.022	4.2
464.375	4.18
464.728	4.19
465.08	4.19
465.433	4.2
465.785	4.21
466.138	4.23
466.49	4.25
466.843	4.26
467.195	4.28
467.547	4.3
467.899	4.3
468.252	4.31
468.604	4.33
468.956	4.36
469.308	4.37
469.66	4.37
470.012	4.38
470.364	4.4
470.716	4.42
471.068	4.42
471.42	4.43
471.772	4.45
472.123	4.45
472.475	4.46
472.827	4.46
473.178	4.47
473.53	4.44
473.882	4.41
474.233	4.43
474.585	4.42
474.936	4.4
475.288	4.39
475.639	4.4
475.99	4.4
476.342	4.4
476.693	4.4
477.044	4.37
477.395	4.38
477.746	4.36
478.097	4.35
478.448	4.34
478.8	4.34
479.15	4.33
479.501	4.35
479.852	4.36
480.203	4.35
480.554	4.35
480.905	4.36
481.255	4.38
481.606	4.38
481.957	4.4
482.307	4.41
482.658	4.42
483.009	4.42
483.359	4.42
483.709	4.42
484.06	4.42
484.41	4.44
484.761	4.44
485.111	4.44
485.461	4.44
485.811	4.44
486.162	4.44
486.512	4.45
486.862	4.43
487.212	4.43
487.562	4.43
487.912	4.44
488.262	4.44
488.612	4.44
488.961	4.44
489.311	4.43
489.661	4.43
490.011	4.43
490.36	4.42
490.71	4.42
491.06	4.42
491.409	4.42
491.759	4.42
492.108	4.41
492.458	4.42
492.807	4.43
493.157	4.42
493.506	4.44
493.855	4.44
494.204	4.46
494.554	4.48
494.903	4.48
495.252	4.51
495.601	4.52
495.95	4.53
496.299	4.55
496.648	4.57
496.997	4.59
497.346	4.6
497.695	4.64
498.043	4.65
498.392	4.66
498.741	4.68
499.09	4.7
499.438	4.76
499.787	4.79
500.135	4.8
500.484	4.85
500.832	4.88
501.181	4.93
501.529	4.97
501.878	5.02
502.226	5.06
502.574	5.08
502.923	5.11
503.271	5.14
503.619	5.18
503.967	5.23
504.315	5.24
504.663	5.27
505.011	5.33
505.359	5.36
505.707	5.41
506.055	5.46
506.403	5.5
506.751	5.54
507.098	5.56
507.446	5.62
507.794	5.64
508.141	5.68
508.489	5.71
508.837	5.75
509.184	5.79
509.531	5.82
509.879	5.86
510.226	5.9
510.574	5.92
510.921	5.97
511.268	5.99
511.616	6.04
511.963	6.11
512.31	6.15
512.657	6.23
513.004	6.3
513.351	6.36
513.698	6.43
514.045	6.47
514.392	6.54
514.739	6.6
515.086	6.67
515.432	6.73
515.779	6.79
516.126	6.85
516.473	6.91
516.819	6.98
517.166	7.05
517.512	7.11
517.859	7.19
518.205	7.23
518.552	7.31
518.898	7.37
519.245	7.42
519.591	7.48
519.937	7.52
520.283	7.59
520.629	7.65
520.976	7.71
521.322	7.8
521.668	7.88
522.014	7.99
522.36	8.08
522.706	8.18
523.052	8.3
523.398	8.42
523.743	8.54
524.089	8.67
524.435	8.79
524.781	8.92
525.126	9.04
525.472	9.17
525.817	9.27
526.163	9.37
526.509	9.47
526.854	9.57
527.199	9.66
527.545	9.74
527.89	9.82
528.235	9.9
528.581	10
528.926	10.1
529.271	10.19
529.616	10.29
529.961	10.39
530.306	10.49
530.651	10.59
530.996	10.7
531.341	10.82
531.686	10.95
532.031	11.08
532.376	11.21
532.721	11.34
533.065	11.5
533.41	11.64
533.755	11.8
534.099	11.96
534.444	12.13
534.788	12.31
535.133	12.49
535.477	12.67
535.822	12.84
536.166	13.07
536.51	13.28
536.855	13.53
537.199	13.76
537.543	14.03
537.887	14.31
538.231	14.59
538.576	14.84
538.92	15.11
539.264	15.35
539.608	15.61
539.951	15.84
540.295	16.07
540.639	16.33
540.983	16.55
541.327	16.77
541.671	17
542.014	17.23
542.358	17.46
542.701	17.7
543.045	17.93
543.389	18.14
543.732	18.4
544.075	18.64
544.419	18.92
544.762	19.17
545.105	19.45
545.449	19.74
545.792	20.05
546.135	20.36
546.478	20.72
546.821	21.05
547.165	21.41
547.508	21.8
547.851	22.13
548.194	22.53
548.536	22.9
548.879	23.29
549.222	23.68
549.565	24.07
549.908	24.45
550.25	24.85
550.593	25.29
550.936	25.7
551.278	26.06
551.621	26.44
551.963	26.85
552.306	27.27
552.648	27.67
552.991	28.04
553.333	28.43
553.675	28.79
554.017	29.21
554.36	29.56
554.702	29.92
555.044	30.27
555.386	30.61
555.728	31
556.07	31.32
556.412	31.72
556.754	32.09
557.096	32.47
557.438	32.89
557.78	33.31
558.121	33.74
558.463	34.15
558.805	34.54
559.147	34.88
559.488	35.21
559.83	35.63
560.171	36.02
560.513	36.43
560.854	36.77
561.196	37.13
561.537	37.49
561.878	37.84
562.22	38.23
562.561	38.54
562.902	38.89
563.243	39.3
563.584	39.63
563.925	39.92
564.266	40.22
564.607	40.52
564.948	40.77
565.289	41.05
565.63	41.34
565.971	41.61
566.312	41.93
566.653	42.19
566.993	42.42
567.334	42.7
567.675	42.98
568.015	43.23
568.356	43.51
568.696	43.8
569.037	44.04
569.377	44.3
569.718	44.58
570.058	44.82
570.398	45.07
570.739	45.31
571.079	45.59
571.419	45.86
571.759	46.07
572.099	46.32
572.439	46.52
572.779	46.81
573.119	47.05
573.459	47.27
573.799	47.56
574.139	47.71
574.479	47.94
574.819	48.09
575.158	48.31
575.498	48.49
575.838	48.72
576.177	48.94
576.517	49.15
576.856	49.39
577.196	49.59
577.535	49.74
577.875	50
578.214	50.21
578.553	50.39
578.893	50.59
579.232	50.76
579.571	51
579.91	51.12
580.25	51.32
580.589	51.49
580.928	51.55
581.267	51.81
581.606	51.97
581.945	52.18
582.283	52.37
582.622	52.57
582.961	52.7
583.3	52.85
583.639	53.05
583.977	53.15
584.316	53.34
584.654	53.52
584.993	53.56
585.332	53.68
585.67	53.87
586.008	54.07
586.347	54.14
586.685	54.25
587.024	54.4
587.362	54.43
587.7	54.55
588.038	54.79
588.376	54.9
588.715	55.01
589.053	55.1
589.391	55.26
589.729	55.34
590.067	55.42
590.404	55.54
590.742	55.6
591.08	55.71
591.418	55.83
591.756	55.95
592.093	56.1
592.431	56.19
592.769	56.26
593.106	56.41
593.444	56.54
593.781	56.66
594.119	56.79
594.456	56.96
594.793	57.02
595.131	57.09
595.468	57.23
595.805	57.35
596.143	57.47
596.48	57.55
596.817	57.62
597.154	57.76
597.491	57.79
597.828	57.91
598.165	58.03
598.502	58.11
598.839	58.2
599.176	58.34
599.512	58.41
599.849	58.54
600.186	58.6
600.523	58.7
600.859	58.83
601.196	58.92
601.532	59.04
601.869	59.1
602.205	59.14
602.542	59.18
602.878	59.23
603.215	59.27
603.551	59.4
603.887	59.43
604.223	59.51
604.56	59.63
604.896	59.66
605.232	59.65
605.568	59.65
605.904	59.69
606.24	59.71
606.576	59.8
606.912	59.84
607.248	59.9
607.583	59.99
607.919	60
608.255	60.07
608.591	60.1
608.926	60.22
609.262	60.28
609.597	60.35
609.933	60.49
610.268	60.54
610.604	60.42
610.939	60.49
611.275	60.52
611.61	60.59
611.945	60.71
612.281	60.92
612.616	61.04
612.951	61.06
613.286	61.11
613.621	61.2
613.956	61.22
614.291	61.19
614.626	61.3
614.961	61.39
615.296	61.39
615.631	61.4
615.966	61.45
616.3	61.53
616.635	61.56
616.97	61.52
617.304	61.58
617.639	61.74
617.973	61.79
618.308	61.79
618.642	61.81
618.977	61.84
619.311	61.78
619.646	61.81
619.98	61.91
620.314	61.99
620.648	62.06
620.983	62.14
621.317	62.29
621.651	62.33
621.985	62.37
622.319	62.4
622.653	62.48
622.987	62.57
623.321	62.59
623.655	62.68
623.988	62.73
624.322	62.81
624.656	62.88
624.99	62.98
625.323	63.01
625.657	63
625.99	63
626.324	62.99
626.657	63.03
626.991	63.12
627.324	63.17
627.658	63.07
627.991	63.11
628.324	63.18
628.657	63.07
628.991	63.07
629.324	63.2
629.657	63.24
629.99	63.26
630.323	63.35
630.656	63.36
630.989	63.48
631.322	63.55
631.655	63.59
631.987	63.62
632.32	63.64
632.653	63.74
632.986	63.79
633.318	63.88
633.651	63.9
633.984	63.84
634.316	63.84
634.649	63.93
634.981	63.94
635.313	63.87
635.646	63.95
635.978	63.93
636.31	63.91
636.643	64.03
636.975	63.94
637.307	63.87
637.639	63.86
637.971	63.7
638.303	63.61
638.635	63.52
638.967	63.57
639.299	63.7
639.631	63.61
639.963	63.63
640.295	63.58
640.626	63.67
640.958	63.71
641.29	63.72
641.621	63.84
641.953	63.8
642.285	63.91
642.616	64.1
642.948	64.28
643.279	64.4
643.61	64.35
643.942	64.55
644.273	64.61
644.604	64.62
644.936	64.71
645.267	64.8
645.598	64.9
645.929	64.8
646.26	64.81
646.591	64.9
646.922	64.87
647.253	65.01
647.584	64.93
647.915	64.87
648.245	64.83
648.576	64.84
648.907	65.01
649.238	65.09
649.568	64.98
649.899	64.86
650.229	64.66
650.56	64.66
650.89	64.6
651.221	64.67
651.551	64.66
651.882	64.73
652.212	64.68
652.542	64.64
652.872	64.71
653.203	64.73
653.533	64.82
653.863	64.91
654.193	64.82
654.523	64.89
654.853	65.11
655.183	65.14
655.513	65.13
655.843	65
656.172	64.94
656.502	64.96
656.832	65
657.162	65.07
657.491	65.15
657.821	65.29
658.15	65.31
658.48	65.38
658.809	65.33
659.139	65.39
659.468	65.62
659.798	65.53
660.127	65.46
660.456	65.48
660.785	65.46
661.115	65.51
661.444	65.48
661.773	65.37
662.102	65.4
662.431	65.44
662.76	65.52
663.089	65.52
663.418	65.61
663.747	65.63
664.076	65.67
664.404	65.6
664.733	65.52
665.062	65.66
665.39	65.56
665.719	65.54
666.048	65.49
666.376	65.19
666.705	65.37
667.033	65.38
667.362	65.3
667.69	65.24
668.018	65.23
668.347	65.46
668.675	65.55
669.003	65.58
669.331	65.55
669.659	65.48
669.987	65.45
670.315	65.36
670.643	65.27
670.971	65.2
671.299	65.25
671.627	65.12
671.955	65.08
672.283	65.23
672.61	65.32
672.938	65.34
673.266	65.34
673.593	65.21
673.921	65.31
674.249	65.28
674.576	65.5
674.904	65.54
675.231	65.41
675.558	65.33
675.886	65.3
676.213	65.31
676.54	65.31
676.867	65.31
677.195	65.24
677.522	65.37
677.849	65.55
678.176	65.63
678.503	65.73
678.83	65.66
679.157	65.52
679.484	65.47
679.81	65.54
680.137	65.52
680.464	65.58
680.791	65.44
681.117	65.56
681.444	65.41
681.771	65.45
682.097	65.46
682.424	65.47
682.75	65.58
683.077	65.63
683.403	65.73
683.729	65.88
684.056	66.14
684.382	66.11
684.708	66.08
685.034	65.82
685.36	65.85
685.686	65.89
686.012	66.02
686.339	66.11
686.664	66.07
686.99	66.32
687.316	66.4
687.642	66.62
687.968	66.53
688.294	66.67
688.619	66.59
688.945	66.57
689.271	66.61
689.596	66.53
689.922	66.48
690.247	66.39
690.573	66.42
690.898	66.28
691.224	66.39
691.549	66.39
691.874	66.5
692.2	66.51
692.525	66.55
692.85	66.67
693.175	66.61
693.5	66.6
693.825	66.5
694.15	66.37
694.475	66.3
694.8	66.38
695.125	66.15
695.45	66.31
695.775	66.29
696.099	66.32
696.424	66.28
696.749	66.35
697.073	66.3
697.398	66.08
697.723	66.02
698.047	65.9
698.372	65.7
698.696	65.8
699.02	65.75
699.345	65.58
699.669	65.49
699.993	65.5
700.318	65.55
700.642	65.56
700.966	65.77
701.29	65.72
701.614	65.77
701.938	65.74
702.262	65.66
702.586	65.57
702.91	65.34
703.234	65.43
703.557	65.45
703.881	65.51
704.205	65.61
704.529	65.61
704.852	65.79
705.176	66.06
705.499	66.03
705.823	65.95
706.146	66.03
706.47	66.24
706.793	66.31
707.117	66.28
707.44	66.15
707.763	65.99
708.086	66.13
708.409	66.17
708.733	66.35
709.056	66.19
709.379	66.31
709.702	66.49
710.025	66.55
710.348	66.57
710.671	66.44
710.993	66.55
711.316	66.66
711.639	66.71
711.962	66.73
712.284	66.71
712.607	66.85
712.93	66.75
713.252	66.58
713.575	66.52
713.897	66.5
714.22	66.61
714.542	66.6
714.864	66.3
715.187	66.31
715.509	66.3
715.831	66.45
716.153	66.45
716.475	66.42
716.798	66.33
717.12	66.13
717.442	66.35
717.764	66.25
718.085	66.16
718.407	65.96
718.729	65.89
719.051	65.85
719.373	65.77
719.695	65.94
720.016	65.7
720.338	65.9
720.659	65.9
720.981	65.78
721.302	65.77
721.624	66.09
721.945	65.87
722.267	65.76
722.588	65.5
722.909	65.5
723.231	65.69
723.552	65.6
723.873	65.72
724.194	65.76
724.515	65.75
724.836	65.78
725.157	65.74
725.478	65.86
725.799	65.81
726.12	66.09
726.441	66.11
726.762	66.49
727.083	66.33
727.403	66.41
727.724	66.58
728.045	66.59
728.365	66.54
728.686	66.73
729.006	66.93
729.327	66.9
729.647	66.75
729.967	66.53
730.288	66.71
730.608	66.67
730.928	66.6
731.249	66.67
731.569	66.79
731.889	66.95
732.209	66.84
732.529	66.88
732.849	66.58
733.169	66.69
733.489	66.52
733.809	66.69
734.129	66.61
734.448	66.67
734.768	66.72
735.088	66.66
735.408	66.66
735.727	66.62
736.047	66.87
736.366	67.03
736.686	67.15
737.005	66.88
737.325	66.93
737.644	67.19
737.963	67.24
738.283	67.18
738.602	67.06
738.921	67.16
739.24	67.34
739.56	67.37
739.879	67.31
740.198	67.41
740.517	67.24
740.836	67
741.155	67.03
741.473	67.22
741.792	67.14
742.111	66.89
742.43	66.94
742.748	66.92
743.067	66.69
743.386	66.48
743.704	66.93
744.023	66.83
744.341	66.51
744.66	66.56
744.978	66.36
745.297	66.43
745.615	66.28
745.933	66.28
746.252	66.15
746.57	65.92
746.888	65.85
747.206	65.67
747.524	65.78
747.842	65.58
748.16	65.23
748.478	65.57
748.796	65.75
749.114	65.78
749.432	65.75
749.749	66.2
750.067	66.75
750.385	66.58
750.703	66.69
751.02	66.55
751.338	66.38
751.655	66.64
751.973	66.53
752.29	66.51
752.608	66.52
752.925	66.4
753.242	66.58
753.56	66.56
753.877	66.52
754.194	66.64
754.511	66.69
754.828	66.75
755.145	66.69
755.462	66.76
755.779	66.6
756.096	66.73
756.413	66.68
756.73	66.45
757.047	66.39
757.364	66.47
757.68	66.41
757.997	66.47
758.314	66.37
758.63	66.73
758.947	66.84
759.264	66.73
759.58	67.02
759.896	67.52
760.213	67.78
760.529	67.83
760.846	67.8
761.162	67.61
761.478	67.71
761.794	67.73
762.11	67.49
762.426	67.55
762.743	67.57
763.059	67.46
763.375	67.2
763.69	67.2
764.006	67.04
764.322	67.41
764.638	67.3
764.954	67.4
765.27	67.35
765.585	67.21
765.901	67.25
766.216	67.34
766.532	66.9
766.848	66.49
767.163	66.64
767.478	66.84
767.794	66.88
768.109	66.52
768.424	66.43
768.74	66.68
769.055	66.93
769.37	66.79
769.685	66.54
770	66.56
770.315	66.67
770.63	66.76
770.945	66.62
771.26	66.9
771.575	66.75
771.89	66.7
772.205	67.23
772.52	67.34
772.834	67.44
773.149	67.44
773.464	68.14
773.778	68.14
774.093	67.83
774.407	68.03
774.722	68.47
775.036	68.58
775.351	68.32
775.665	67.99
775.979	68.24
776.293	68.73
776.608	69.13
776.922	68.95
777.236	69.04
777.55	69.05
777.864	69.23
778.178	68.8
778.492	68.87
778.806	68.31
779.12	68.25
779.434	67.95
779.747	68.38
780.061	67.57
780.375	67.54
780.689	67.92
781.002	67.77
781.316	68.18
781.629	68.08
781.943	68.46
782.256	68.47
782.57	68.01
782.883	67.98
783.196	67.63
783.51	66.81
783.823	67.22
784.136	67.05
784.449	66.65
784.762	67.27
785.075	67.08
785.388	66.94
785.701	66.58
786.014	66.76
786.327	66.48
786.64	66.83
786.953	66.55
787.266	66.29
787.578	66.34
787.891	65.69
788.204	65.34
788.516	65.21
788.829	65.32
789.141	65.63
789.454	65.92
789.766	66.25
790.079	66.88
790.391	66.84
790.703	66.52
791.016	66.53
791.328	66.55
791.64	66.81
791.952	67.18
792.264	67.12
792.576	67.3
792.888	67.02
793.2	66.97
793.512	67.49
793.824	67.91
794.136	68.2
794.448	68.88
794.76	69.32
795.071	69.04
795.383	69.2
795.695	69.28
796.006	68.29
796.318	68.32
796.629	68.61
796.941	67.9
797.252	68.28
797.564	68.18
797.875	68.26
798.186	68.57
798.497	68.86
798.809	69.14
799.12	69.04
799.431	69.09
799.742	69.02
800.053	68.81
800.364	67.8
800.675	67.42
800.986	67.78
801.297	67.52
801.608	67.68
801.918	67.41
802.229	67.57
802.54	68.19
802.851	67.84
803.161	67.75
803.472	68.06
803.782	67.96
804.093	68.71
804.403	68.9
804.714	67.83
805.024	67.35
805.334	66.83
805.645	67.2
805.955	67.68
806.265	68.26
806.575	68.29
806.885	69.32
807.195	69.97
807.505	69.06
807.815	69.51
808.125	69.45
808.435	69.77
808.745	69.3
809.055	69.34
809.365	69.75
809.674	69.27
809.984	69.58
810.294	69.37
810.603	68.99
810.913	68.2
811.222	68.63
811.532	68.67
811.841	69.22
812.151	68.6
812.46	67.86
812.769	67.27
813.079	67.37
813.388	66.85
813.697	66.71
814.006	66.65
814.315	66.72
814.624	65.97
814.933	65.54
815.242	65.88
815.551	65.85
815.86	66.5
816.169	67.58
816.478	67.45
816.786	67.47
817.095	67
817.404	67.67
817.712	68.07
818.021	68.66
818.33	68.53
818.638	68.49
818.947	68.74
819.255	68.33
819.563	67.99
819.872	68.4
820.18	68.34
820.488	68.53
820.796	68.31
821.105	68.82
821.413	68.68
821.721	68.8
822.029	68.77
822.337	68.65
822.645	68.59
822.953	68.45
823.26	68.41
823.568	68.57
823.876	68.52
824.184	68.58
824.491	68.53
824.799	68.52
825.107	68.7
825.414	68.82
825.722	69.04
826.029	69.34
826.337	69.26
826.644	69.36
826.951	69.03
827.259	69.04
827.566	68.88
827.873	68.97
828.18	68.78
828.488	68.79
828.795	68.47
829.102	68.19
829.409	68.53
829.716	68.69
830.023	68.67
830.329	68.49
830.636	67.96
830.943	67.7
831.25	67.65
831.557	67.48
831.863	67.22
832.17	67.08
832.476	66.74
832.783	66.84
833.089	66.44
833.396	67.22
833.702	67.25
834.009	67.57
834.315	67.24
834.621	67.56
834.928	67.29
835.234	67.09
835.54	67
835.846	66.53
836.152	66.67
836.458	66.64
836.764	66.47
837.07	66.8
837.376	66.83
837.682	67.08
837.988	66.48
838.293	66.72
838.599	66.8
838.905	66.54
839.211	66.38
839.516	66.23
839.822	65.86
840.127	65.8
840.433	65.74
840.738	66.93
841.044	67.36
841.349	68.19
841.654	69.14
841.959	69.6
842.265	69.45
842.57	68.68
842.875	68.36
843.18	69.91
843.485	69.47
843.79	70.06
844.095	69.36
844.4	69.78
844.705	69.88
845.01	70.36
845.315	70.73
845.619	70.09
845.924	70.85
846.229	71.22
846.533	71.87
846.838	70.31
847.142	69.19
847.447	64.96
847.751	64.39
848.056	63.42
848.36	63.5
848.664	64.08
848.969	65.84
849.273	65.25
849.577	63.1
849.881	63.42
850.185	62.53
850.489	62.72
850.794	62.72
851.097	61.49
851.401	59.12
851.705	57.73
852.009	57.26
852.313	58
852.617	58.35
852.92	58.76
853.224	59.12
853.528	60.06
853.831	62.33
854.135	61.51
854.438	63.83
854.742	62.91
855.045	62.39
855.349	62.43
855.652	63.3
855.955	62.98
856.259	63.48
856.562	62.32
856.865	63.12
857.168	65.43
857.471	65.93
857.774	65.52
858.077	66.59
858.38	69.29
858.683	67.67
858.986	66.33
859.289	66.68
859.592	66.27
859.894	65.11
860.197	63.94
860.5	65.3
860.802	62.17
861.105	62.85
861.407	63.86
861.71	64.28
862.012	62.94
862.315	64.47
862.617	61.48
862.919	61.05
863.222	61.09
863.524	59.67
863.826	59.1
864.128	61.04
864.43	60.38
864.732	59.75
865.034	60.06
865.336	58.91
865.638	56.83
865.94	56.09
866.242	55.39
866.544	55.31
866.846	55.46
867.147	56.17
867.449	55.45
867.751	54.73
868.052	52.77
868.354	53.03
868.655	53.67
868.957	56.71
869.258	57.79
869.56	57.72
869.861	54.94
870.162	54.43
870.463	52.84
870.765	52.91
871.066	51.88
871.367	51.64
871.668	51.41
871.969	51.81
872.27	52.69
872.571	52.21
872.872	52.64
873.173	50
873.473	50.4
873.774	50.67
874.075	50.02
874.376	51.24
874.676	52.78
874.977	50.56
875.277	51.45
875.578	51.19
875.878	50.53
876.179	52.03
876.479	52.45
876.78	53.59
877.08	53.92
877.38	53.32
877.68	53.3
877.981	54.6
878.281	54.35
878.581	54.2
