Data from BA28304_Reflection_00006.txt Node
Date: Mon Nov 18 15:36:04 EST 2019
User: vgr7
Spectrometer: USB2G7710
Scans to average: 3
Trigger mode: 4
Integration Time (sec): 2.000000E-2
Electric dark correction enabled: true
Boxcar width: 10
XAxis mode: Wavelengths
Number of Pixels in Spectrum: 2048
>>>>>Begin Spectral Data<<<<<
177.721	66.57
178.105	16.46
178.488	32.44
178.871	149.5
179.254	17.89
179.636	96.18
180.019	208.46
180.402	83.87
180.785	2566.17
181.168	8787.5
181.55	-7194.12
181.933	231.84
182.316	166.92
182.698	120.01
183.081	185.86
183.463	3820.93
183.846	-691.81
184.228	-702.78
184.611	5300
184.993	2884.81
185.376	-2068.22
185.758	-417.53
186.14	-281.62
186.522	-387.02
186.904	-1781.77
187.287	-1565.34
187.669	-418.02
188.051	-812.03
188.433	-788.21
188.815	-477.39
189.197	-444.23
189.579	-284.99
189.961	-302.69
190.342	-252.85
190.724	-198.54
191.106	-192.35
191.488	-189.81
191.869	-195.44
192.251	-164.76
192.633	-140.63
193.014	-166.11
193.396	-260.23
193.777	-256.39
194.159	-311.45
194.54	-229.25
194.922	-161.45
195.303	-165.3
195.684	-186.84
196.065	-143.13
196.447	-137.6
196.828	-167.99
197.209	-182
197.59	-223.56
197.971	-229.5
198.352	-194.14
198.733	-265.49
199.114	-237.42
199.495	-214.81
199.876	-197.59
200.257	-299.69
200.638	-216.31
201.018	-177.56
201.399	-90.44
201.78	-108.32
202.16	-114.08
202.541	-242.78
202.922	-833.57
203.302	-1783.27
203.683	-706.68
204.063	508100
204.444	-1052.03
204.824	-441.71
205.204	-193.8
205.585	-226.33
205.965	-259.01
206.345	-678.92
206.725	-571.66
207.106	-1110.22
207.486	2700.9
207.866	-3980.92
208.246	-551.69
208.626	-758.66
209.006	-552.96
209.386	-1079.86
209.766	-1034.37
210.145	-634.97
210.525	-349.67
210.905	-273.98
211.285	-204.47
211.664	-208.58
212.044	-226.59
212.424	-240.86
212.803	-218.69
213.183	-331.65
213.562	-315.15
213.942	-269.24
214.321	-225.99
214.701	-331.95
215.08	-338.31
215.459	-256.78
215.838	-198.4
216.218	-249.31
216.597	-261.38
216.976	-241.31
217.355	-194.27
217.734	-194.54
218.113	-182.17
218.492	-228.71
218.871	-236.91
219.25	-240.12
219.629	-247.6
220.008	-152.79
220.387	-140.42
220.766	-150.46
221.144	-157.25
221.523	-130.08
221.902	-123.64
222.28	-128.21
222.659	-97.81
223.037	-76.71
223.416	-74.75
223.794	-65.93
224.173	-63.66
224.551	-52.31
224.929	-57.09
225.308	-48.29
225.686	-42.41
226.064	-40.22
226.442	-33.51
226.821	-28.59
227.199	-31.17
227.577	-35.97
227.955	-33.97
228.333	-31.54
228.711	-28.13
229.089	-21.37
229.467	-24.82
229.845	-23.85
230.222	-19.89
230.6	-19.06
230.978	-17.89
231.356	-12.91
231.733	-12.03
232.111	-10.4
232.488	-10.77
232.866	-9.37
233.243	-8.04
233.621	-6.85
233.998	-6.1
234.376	-6.2
234.753	-6.81
235.13	-5.9
235.508	-3.08
235.885	-3.15
236.262	-3.73
236.639	-2.81
237.016	-4.13
237.393	-1.34
237.77	-0.16
238.147	0.36
238.524	0.25
238.901	0.63
239.278	0.71
239.655	0.99
240.032	1.48
240.409	0.79
240.785	1.13
241.162	1.5
241.539	1.35
241.915	1.47
242.292	1.68
242.668	2.45
243.045	2.49
243.421	2.27
243.798	2.21
244.174	2.47
244.551	2.33
244.927	2.48
245.303	2.46
245.679	2.54
246.056	2.26
246.432	2.22
246.808	1.93
247.184	1.72
247.56	1.6
247.936	1.6
248.312	1.72
248.688	1.75
249.064	1.7
249.44	1.83
249.815	1.61
250.191	1.51
250.567	1.26
250.943	1.43
251.318	1.58
251.694	1.55
252.069	1.48
252.445	1.37
252.82	1.2
253.196	1.32
253.571	1.24
253.947	1.46
254.322	1.58
254.697	1.87
255.073	1.84
255.448	1.76
255.823	1.82
256.198	1.86
256.573	1.96
256.948	2.11
257.323	2.26
257.698	2.5
258.073	2.69
258.448	2.75
258.823	2.87
259.198	2.67
259.573	2.72
259.948	2.73
260.322	2.87
260.697	3.07
261.072	2.82
261.446	2.68
261.821	2.65
262.195	2.72
262.57	2.61
262.944	2.69
263.319	2.61
263.693	2.54
264.067	2.59
264.442	2.69
264.816	2.6
265.19	2.4
265.564	2.33
265.938	2.17
266.313	1.96
266.687	1.81
267.061	2.05
267.435	2.08
267.809	2.08
268.183	2.03
268.556	2.08
268.93	2.39
269.304	2.51
269.678	2.61
270.051	2.61
270.425	2.84
270.799	2.82
271.172	2.96
271.546	2.86
271.919	2.83
272.293	2.7
272.666	2.71
273.04	2.76
273.413	2.66
273.787	2.56
274.16	2.63
274.533	2.61
274.906	2.49
275.279	2.54
275.653	2.33
276.026	2.29
276.399	2.14
276.772	2.12
277.145	2.02
277.518	1.88
277.891	1.83
278.263	1.71
278.636	1.69
279.009	1.7
279.382	1.81
279.755	1.85
280.127	2.09
280.5	2.1
280.872	2.23
281.245	2.22
281.617	2.3
281.99	2.44
282.362	2.6
282.735	2.53
283.107	2.51
283.479	2.72
283.852	2.78
284.224	2.81
284.596	2.86
284.968	2.88
285.34	2.96
285.713	2.84
286.085	2.8
286.457	2.91
286.829	2.94
287.201	3.02
287.572	2.95
287.944	2.83
288.316	2.9
288.688	2.88
289.06	3
289.431	3.04
289.803	3.04
290.175	2.99
290.546	3.25
290.918	3.21
291.289	3.16
291.661	3.25
292.032	3.38
292.403	3.25
292.775	3.27
293.146	3.22
293.517	3.38
293.889	3.57
294.26	3.52
294.631	3.48
295.002	3.39
295.373	3.48
295.744	3.35
296.115	3.26
296.486	3.13
296.857	3.14
297.228	3.18
297.599	3.04
297.97	3.01
298.34	2.89
298.711	2.92
299.082	2.99
299.452	2.9
299.823	2.86
300.194	2.96
300.564	2.89
300.935	2.92
301.305	2.9
301.676	2.8
302.046	2.84
302.416	2.93
302.787	2.89
303.157	2.77
303.527	2.97
303.897	3.01
304.267	3.18
304.637	3.25
305.008	3.2
305.378	3.41
305.748	3.42
306.117	3.3
306.487	3.41
306.857	3.36
307.227	3.4
307.597	3.28
307.967	3.24
308.336	3.45
308.706	3.4
309.076	3.34
309.445	3.24
309.815	3.16
310.184	3.01
310.554	3.05
310.923	3.11
311.293	3
311.662	2.93
312.031	2.78
312.401	2.7
312.77	2.75
313.139	2.75
313.508	2.78
313.877	2.88
314.246	2.71
314.616	2.57
314.985	2.53
315.353	2.56
315.722	2.49
316.091	2.23
316.46	2.21
316.829	2.19
317.198	2.1
317.567	2
317.935	2.05
318.304	2.16
318.672	2.17
319.041	2.24
319.41	2.31
319.778	2.36
320.147	2.48
320.515	2.35
320.883	2.25
321.252	2.28
321.62	2.22
321.988	2.18
322.357	2.28
322.725	2.23
323.093	2.21
323.461	2.18
323.829	2.28
324.197	2.22
324.565	2.3
324.933	2.45
325.301	2.57
325.669	2.52
326.037	2.37
326.405	2.38
326.772	2.41
327.14	2.45
327.508	2.41
327.875	2.24
328.243	2.39
328.61	2.26
328.978	2.19
329.346	2.34
329.713	2.38
330.08	2.55
330.448	2.67
330.815	2.58
331.182	2.59
331.55	2.54
331.917	2.68
332.284	2.71
332.651	2.8
333.018	2.82
333.385	2.84
333.752	3
334.119	3.07
334.486	2.92
334.853	2.93
335.22	2.9
335.587	2.88
335.954	2.82
336.32	2.95
336.687	2.99
337.054	2.89
337.42	2.97
337.787	2.89
338.153	2.81
338.52	2.96
338.886	2.9
339.253	2.94
339.619	2.99
339.986	2.92
340.352	2.87
340.718	2.78
341.084	2.72
341.451	2.74
341.817	2.72
342.183	2.78
342.549	2.73
342.915	2.76
343.281	2.8
343.647	2.74
344.013	2.78
344.379	2.72
344.745	2.72
345.11	2.61
345.476	2.5
345.842	2.51
346.208	2.46
346.573	2.58
346.939	2.66
347.304	2.62
347.67	2.55
348.035	2.58
348.401	2.63
348.766	2.75
349.132	2.67
349.497	2.66
349.862	2.75
350.228	2.84
350.593	2.86
350.958	2.92
351.323	2.91
351.688	2.9
352.053	2.98
352.418	3.02
352.783	3.01
353.148	3.07
353.513	3.1
353.878	3.08
354.243	3.1
354.608	3.12
354.972	3.11
355.337	3.26
355.702	3.17
356.066	3.16
356.431	3.15
356.795	3.2
357.16	3.19
357.524	3.15
357.889	3.16
358.253	3.19
358.618	3.16
358.982	3.14
359.346	3.1
359.71	3.03
360.075	3.06
360.439	3.11
360.803	3.1
361.167	3.04
361.531	3.03
361.895	3
362.259	2.95
362.623	2.96
362.987	2.88
363.351	2.92
363.714	2.96
364.078	2.94
364.442	2.9
364.806	2.86
365.169	2.87
365.533	2.74
365.896	2.76
366.26	2.75
366.623	2.76
366.987	2.84
367.35	2.91
367.714	2.89
368.077	2.89
368.44	2.94
368.803	2.94
369.167	2.99
369.53	2.95
369.893	2.99
370.256	3.04
370.619	3.09
370.982	3.06
371.345	2.99
371.708	2.95
372.071	2.93
372.434	2.95
372.797	2.96
373.159	3
373.522	3
373.885	3.02
374.247	3.07
374.61	3.02
374.973	2.97
375.335	2.91
375.698	2.9
376.06	2.88
376.423	2.89
376.785	2.85
377.147	2.9
377.51	2.9
377.872	2.85
378.234	2.86
378.596	2.88
378.958	2.89
379.321	2.93
379.683	2.97
380.045	2.97
380.407	2.92
380.769	2.98
381.13	2.92
381.492	2.88
381.854	2.87
382.216	2.87
382.578	2.9
382.939	2.92
383.301	2.92
383.663	2.89
384.024	2.92
384.386	2.94
384.747	2.94
385.109	2.92
385.47	2.91
385.832	2.89
386.193	2.9
386.554	2.9
386.916	2.87
387.277	2.86
387.638	2.87
387.999	2.87
388.36	2.86
388.721	2.87
389.082	2.92
389.443	2.87
389.804	2.88
390.165	2.88
390.526	2.9
390.887	2.92
391.248	2.97
391.609	2.96
391.969	2.98
392.33	2.97
392.691	2.98
393.051	2.99
393.412	3.02
393.772	3
394.133	3.05
394.493	3.06
394.854	3.05
395.214	3.08
395.574	3.11
395.935	3.11
396.295	3.13
396.655	3.09
397.015	3.14
397.376	3.13
397.736	3.12
398.096	3.12
398.456	3.12
398.816	3.11
399.176	3.13
399.535	3.12
399.895	3.14
400.255	3.16
400.615	3.14
400.975	3.12
401.334	3.13
401.694	3.1
402.054	3.13
402.413	3.14
402.773	3.11
403.132	3.07
403.492	3.05
403.851	3.06
404.211	3.09
404.57	3.06
404.929	3.09
405.288	3.1
405.648	3.08
406.007	3.05
406.366	3.04
406.725	3.02
407.084	3
407.443	3.01
407.802	3
408.161	2.98
408.52	2.98
408.879	3
409.238	3
409.596	2.98
409.955	2.98
410.314	2.96
410.673	2.99
411.031	3.01
411.39	3.01
411.748	2.98
412.107	3.02
412.465	3
412.824	2.98
413.182	2.97
413.54	2.99
413.899	3.01
414.257	3.02
414.615	3.03
414.974	3.03
415.332	3.02
415.69	3.04
416.048	3.04
416.406	3.03
416.764	3.02
417.122	3.04
417.48	3.04
417.838	3.06
418.195	3.07
418.553	3.07
418.911	3.06
419.269	3.08
419.626	3.07
419.984	3.07
420.342	3.09
420.699	3.1
421.057	3.11
421.414	3.1
421.772	3.09
422.129	3.1
422.486	3.1
422.844	3.1
423.201	3.09
423.558	3.08
423.915	3.08
424.273	3.09
424.63	3.08
424.987	3.08
425.344	3.08
425.701	3.07
426.058	3.07
426.415	3.08
426.772	3.07
427.128	3.06
427.485	3.06
427.842	3.04
428.199	3.05
428.555	3.03
428.912	3.06
429.269	3.06
429.625	3.05
429.982	3.05
430.338	3.08
430.695	3.08
431.051	3.08
431.407	3.1
431.764	3.1
432.12	3.09
432.476	3.08
432.832	3.08
433.189	3.09
433.545	3.08
433.901	3.08
434.257	3.08
434.613	3.1
434.969	3.12
435.325	3.13
435.681	3.12
436.036	3.13
436.392	3.12
436.748	3.1
437.104	3.1
437.459	3.1
437.815	3.08
438.171	3.08
438.526	3.08
438.882	3.06
439.237	3.08
439.593	3.1
439.948	3.1
440.304	3.09
440.659	3.09
441.014	3.1
441.369	3.08
441.725	3.09
442.08	3.08
442.435	3.07
442.79	3.06
443.145	3.06
443.5	3.07
443.855	3.07
444.21	3.07
444.565	3.07
444.92	3.08
445.275	3.08
445.629	3.08
445.984	3.08
446.339	3.08
446.693	3.06
447.048	3.05
447.403	3.06
447.757	3.05
448.112	3.04
448.466	3.05
448.82	3.05
449.175	3.08
449.529	3.07
449.883	3.05
450.238	3.05
450.592	3.06
450.946	3.03
451.3	3.03
451.654	3.03
452.008	3.04
452.362	3.03
452.716	3.03
453.07	3.04
453.424	3.03
453.778	3.04
454.132	3.04
454.486	3.04
454.839	3.02
455.193	3.02
455.547	3.03
455.9	3.04
456.254	3.03
456.607	3.02
456.961	3.02
457.314	3.03
457.668	3.03
458.021	3.02
458.375	3.04
458.728	3.05
459.081	3.05
459.434	3.05
459.787	3.07
460.141	3.07
460.494	3.07
460.847	3.08
461.2	3.09
461.553	3.08
461.906	3.09
462.259	3.11
462.611	3.12
462.964	3.12
463.317	3.12
463.67	3.11
464.022	3.11
464.375	3.1
464.728	3.11
465.08	3.11
465.433	3.13
465.785	3.12
466.138	3.11
466.49	3.1
466.843	3.09
467.195	3.08
467.547	3.09
467.899	3.07
468.252	3.09
468.604	3.09
468.956	3.09
469.308	3.09
469.66	3.08
470.012	3.09
470.364	3.09
470.716	3.08
471.068	3.09
471.42	3.08
471.772	3.12
472.123	3.12
472.475	3.13
472.827	3.12
473.178	3.13
473.53	3.12
473.882	3.12
474.233	3.12
474.585	3.1
474.936	3.09
475.288	3.11
475.639	3.11
475.99	3.11
476.342	3.11
476.693	3.09
477.044	3.11
477.395	3.11
477.746	3.11
478.097	3.12
478.448	3.12
478.8	3.12
479.15	3.11
479.501	3.12
479.852	3.12
480.203	3.13
480.554	3.13
480.905	3.16
481.255	3.18
481.606	3.19
481.957	3.2
482.307	3.21
482.658	3.22
483.009	3.21
483.359	3.21
483.709	3.22
484.06	3.22
484.41	3.22
484.761	3.22
485.111	3.23
485.461	3.24
485.811	3.25
486.162	3.25
486.512	3.25
486.862	3.26
487.212	3.26
487.562	3.26
487.912	3.26
488.262	3.25
488.612	3.25
488.961	3.25
489.311	3.25
489.661	3.24
490.011	3.23
490.36	3.23
490.71	3.24
491.06	3.24
491.409	3.25
491.759	3.25
492.108	3.25
492.458	3.24
492.807	3.22
493.157	3.21
493.506	3.23
493.855	3.23
494.204	3.23
494.554	3.23
494.903	3.22
495.252	3.22
495.601	3.22
495.95	3.22
496.299	3.23
496.648	3.23
496.997	3.24
497.346	3.27
497.695	3.3
498.043	3.31
498.392	3.31
498.741	3.3
499.09	3.28
499.438	3.29
499.787	3.29
500.135	3.32
500.484	3.33
500.832	3.31
501.181	3.31
501.529	3.3
501.878	3.31
502.226	3.31
502.574	3.32
502.923	3.31
503.271	3.32
503.619	3.33
503.967	3.32
504.315	3.32
504.663	3.31
505.011	3.29
505.359	3.28
505.707	3.29
506.055	3.28
506.403	3.29
506.751	3.29
507.098	3.3
507.446	3.29
507.794	3.27
508.141	3.3
508.489	3.31
508.837	3.32
509.184	3.32
509.531	3.33
509.879	3.36
510.226	3.36
510.574	3.35
510.921	3.33
511.268	3.33
511.616	3.35
511.963	3.36
512.31	3.37
512.657	3.35
513.004	3.34
513.351	3.38
513.698	3.38
514.045	3.39
514.392	3.38
514.739	3.37
515.086	3.39
515.432	3.37
515.779	3.36
516.126	3.38
516.473	3.39
516.819	3.39
517.166	3.36
517.512	3.38
517.859	3.39
518.205	3.39
518.552	3.41
518.898	3.4
519.245	3.4
519.591	3.38
519.937	3.4
520.283	3.41
520.629	3.4
520.976	3.4
521.322	3.4
521.668	3.4
522.014	3.41
522.36	3.41
522.706	3.42
523.052	3.42
523.398	3.43
523.743	3.44
524.089	3.45
524.435	3.47
524.781	3.45
525.126	3.45
525.472	3.47
525.817	3.46
526.163	3.47
526.509	3.47
526.854	3.48
527.199	3.49
527.545	3.49
527.89	3.49
528.235	3.51
528.581	3.51
528.926	3.52
529.271	3.53
529.616	3.54
529.961	3.55
530.306	3.55
530.651	3.55
530.996	3.55
531.341	3.55
531.686	3.56
532.031	3.58
532.376	3.59
532.721	3.59
533.065	3.61
533.41	3.62
533.755	3.62
534.099	3.63
534.444	3.62
534.788	3.63
535.133	3.64
535.477	3.63
535.822	3.63
536.166	3.62
536.51	3.61
536.855	3.61
537.199	3.63
537.543	3.61
537.887	3.61
538.231	3.59
538.576	3.59
538.92	3.59
539.264	3.58
539.608	3.58
539.951	3.59
540.295	3.58
540.639	3.57
540.983	3.57
541.327	3.58
541.671	3.57
542.014	3.58
542.358	3.56
542.701	3.56
543.045	3.56
543.389	3.57
543.732	3.58
544.075	3.59
544.419	3.59
544.762	3.61
545.105	3.6
545.449	3.6
545.792	3.6
546.135	3.61
546.478	3.63
546.821	3.63
547.165	3.63
547.508	3.64
547.851	3.65
548.194	3.63
548.536	3.61
548.879	3.64
549.222	3.62
549.565	3.65
549.908	3.68
550.25	3.68
550.593	3.66
550.936	3.63
551.278	3.62
551.621	3.62
551.963	3.63
552.306	3.64
552.648	3.68
552.991	3.69
553.333	3.68
553.675	3.67
554.017	3.68
554.36	3.66
554.702	3.66
555.044	3.66
555.386	3.7
555.728	3.69
556.07	3.71
556.412	3.68
556.754	3.66
557.096	3.64
557.438	3.63
557.78	3.64
558.121	3.67
558.463	3.64
558.805	3.63
559.147	3.6
559.488	3.6
559.83	3.57
560.171	3.56
560.513	3.58
560.854	3.57
561.196	3.58
561.537	3.59
561.878	3.57
562.22	3.59
562.561	3.56
562.902	3.57
563.243	3.56
563.584	3.6
563.925	3.61
564.266	3.59
564.607	3.6
564.948	3.61
565.289	3.61
565.63	3.64
565.971	3.64
566.312	3.62
566.653	3.62
566.993	3.64
567.334	3.65
567.675	3.63
568.015	3.64
568.356	3.62
568.696	3.63
569.037	3.63
569.377	3.6
569.718	3.63
570.058	3.64
570.398	3.63
570.739	3.63
571.079	3.61
571.419	3.63
571.759	3.63
572.099	3.61
572.439	3.62
572.779	3.62
573.119	3.64
573.459	3.67
573.799	3.67
574.139	3.63
574.479	3.62
574.819	3.61
575.158	3.6
575.498	3.59
575.838	3.59
576.177	3.58
576.517	3.56
576.856	3.54
577.196	3.52
577.535	3.52
577.875	3.55
578.214	3.55
578.553	3.54
578.893	3.55
579.232	3.57
579.571	3.57
579.91	3.55
580.25	3.54
580.589	3.54
580.928	3.54
581.267	3.6
581.606	3.6
581.945	3.6
582.283	3.58
582.622	3.6
582.961	3.63
583.3	3.69
583.639	3.74
583.977	3.77
584.316	3.77
584.654	3.76
584.993	3.74
585.332	3.76
585.67	3.81
586.008	3.78
586.347	3.8
586.685	3.79
587.024	3.8
587.362	3.84
587.7	3.81
588.038	3.82
588.376	3.77
588.715	3.77
589.053	3.81
589.391	3.86
589.729	3.85
590.067	3.82
590.404	3.79
590.742	3.76
591.08	3.75
591.418	3.77
591.756	3.81
592.093	3.83
592.431	3.83
592.769	3.8
593.106	3.79
593.444	3.77
593.781	3.78
594.119	3.79
594.456	3.73
594.793	3.75
595.131	3.76
595.468	3.79
595.805	3.83
596.143	3.8
596.48	3.79
596.817	3.77
597.154	3.79
597.491	3.78
597.828	3.8
598.165	3.78
598.502	3.75
598.839	3.77
599.176	3.71
599.512	3.69
599.849	3.7
600.186	3.73
600.523	3.74
600.859	3.77
601.196	3.79
601.532	3.79
601.869	3.78
602.205	3.76
602.542	3.77
602.878	3.75
603.215	3.8
603.551	3.78
603.887	3.81
604.223	3.82
604.56	3.84
604.896	3.84
605.232	3.91
605.568	3.92
605.904	3.89
606.24	3.94
606.576	3.95
606.912	3.94
607.248	3.96
607.583	3.97
607.919	3.94
608.255	3.9
608.591	3.95
608.926	3.93
609.262	3.96
609.597	3.92
609.933	3.91
610.268	3.9
610.604	3.9
610.939	3.92
611.275	3.89
611.61	3.9
611.945	3.89
612.281	3.86
612.616	3.89
612.951	3.91
613.286	3.89
613.621	3.88
613.956	3.85
614.291	3.86
614.626	3.89
614.961	3.88
615.296	3.88
615.631	3.87
615.966	3.91
616.3	3.86
616.635	3.93
616.97	3.93
617.304	3.89
617.639	3.89
617.973	3.88
618.308	3.91
618.642	3.91
618.977	3.88
619.311	3.83
619.646	3.77
619.98	3.74
620.314	3.74
620.648	3.78
620.983	3.83
621.317	3.8
621.651	3.78
621.985	3.78
622.319	3.83
622.653	3.84
622.987	3.82
623.321	3.87
623.655	3.81
623.988	3.88
624.322	3.88
624.656	3.92
624.99	3.95
625.323	3.93
625.657	3.92
625.99	3.97
626.324	3.99
626.657	4.04
626.991	4.05
627.324	4.07
627.658	4.06
627.991	4.11
628.324	4.11
628.657	4.11
628.991	4.13
629.324	4.12
629.657	4.11
629.99	4.17
630.323	4.18
630.656	4.18
630.989	4.14
631.322	4.2
631.655	4.18
631.987	4.16
632.32	4.15
632.653	4.14
632.986	4.1
633.318	4.1
633.651	4.14
633.984	4.12
634.316	4.12
634.649	4.12
634.981	4.06
635.313	4.03
635.646	4
635.978	4.06
636.31	4.06
636.643	4.01
636.975	4
637.307	4.04
637.639	4.04
637.971	4.02
638.303	3.97
638.635	3.96
638.967	3.94
639.299	4.01
639.631	4.03
639.963	4.06
640.295	4.09
640.626	4.06
640.958	4.13
641.29	4.13
641.621	4.09
641.953	4.09
642.285	4.12
642.616	4.15
642.948	4.08
643.279	4.06
643.61	4.07
643.942	4.03
644.273	4.02
644.604	4.07
644.936	4.07
645.267	4.08
645.598	4.15
645.929	4.16
646.26	4.1
646.591	4.02
646.922	3.99
647.253	3.98
647.584	4.03
647.915	3.96
648.245	3.99
648.576	4.02
648.907	4.07
649.238	4.04
649.568	4.01
649.899	4.05
650.229	4.06
650.56	4.12
650.89	4.16
651.221	4.12
651.551	4.15
651.882	4.15
652.212	4.21
652.542	4.17
652.872	4.18
653.203	4.19
653.533	4.27
653.863	4.27
654.193	4.2
654.523	4.14
654.853	4.18
655.183	4.12
655.513	4.12
655.843	4.11
656.172	4.18
656.502	4.24
656.832	4.23
657.162	4.29
657.491	4.3
657.821	4.23
658.15	4.23
658.48	4.23
658.809	4.21
659.139	4.2
659.468	4.23
659.798	4.32
660.127	4.36
660.456	4.38
660.785	4.42
661.115	4.45
661.444	4.44
661.773	4.45
662.102	4.45
662.431	4.5
662.76	4.48
663.089	4.45
663.418	4.42
663.747	4.36
664.076	4.31
664.404	4.36
664.733	4.42
665.062	4.39
665.39	4.33
665.719	4.34
666.048	4.31
666.376	4.25
666.705	4.18
667.033	4.12
667.362	4.12
667.69	4.08
668.018	4.09
668.347	4.13
668.675	4.14
669.003	4.26
669.331	4.3
669.659	4.3
669.987	4.28
670.315	4.28
670.643	4.3
670.971	4.32
671.299	4.27
671.627	4.23
671.955	4.22
672.283	4.27
672.61	4.28
672.938	4.32
673.266	4.38
673.593	4.42
673.921	4.44
674.249	4.37
674.576	4.39
674.904	4.44
675.231	4.42
675.558	4.42
675.886	4.4
676.213	4.38
676.54	4.48
676.867	4.51
677.195	4.49
677.522	4.5
677.849	4.55
678.176	4.57
678.503	4.58
678.83	4.66
679.157	4.62
679.484	4.59
679.81	4.56
680.137	4.53
680.464	4.47
680.791	4.48
681.117	4.54
681.444	4.51
681.771	4.5
682.097	4.51
682.424	4.58
682.75	4.55
683.077	4.48
683.403	4.44
683.729	4.37
684.056	4.38
684.382	4.43
684.708	4.41
685.034	4.4
685.36	4.37
685.686	4.32
686.012	4.36
686.339	4.47
686.664	4.47
686.99	4.44
687.316	4.45
687.642	4.45
687.968	4.39
688.294	4.43
688.619	4.47
688.945	4.45
689.271	4.32
689.596	4.32
689.922	4.38
690.247	4.33
690.573	4.49
690.898	4.59
691.224	4.63
691.549	4.59
691.874	4.56
692.2	4.61
692.525	4.72
692.85	4.8
693.175	4.83
693.5	4.84
693.825	4.92
694.15	4.88
694.475	4.87
694.8	4.94
695.125	4.93
695.45	4.88
695.775	4.99
696.099	5.02
696.424	4.99
696.749	4.85
697.073	4.82
697.398	4.74
697.723	4.68
698.047	4.62
698.372	4.58
698.696	4.53
699.02	4.58
699.345	4.47
699.669	4.42
699.993	4.3
700.318	4.29
700.642	4.33
700.966	4.36
701.29	4.38
701.614	4.38
701.938	4.45
702.262	4.55
702.586	4.5
702.91	4.5
703.234	4.52
703.557	4.64
703.881	4.69
704.205	4.71
704.529	4.66
704.852	4.63
705.176	4.68
705.499	4.79
705.823	4.76
706.146	4.8
706.47	4.85
706.793	4.92
707.117	5
707.44	4.9
707.763	4.98
708.086	4.94
708.409	4.93
708.733	4.82
709.056	4.71
709.379	4.88
709.702	4.83
710.025	4.8
710.348	4.88
710.671	5
710.993	5.04
711.316	5.2
711.639	5.28
711.962	5.25
712.284	5.28
712.607	5.3
712.93	5.32
713.252	5.26
713.575	5.28
713.897	5.24
714.22	5.28
714.542	5.25
714.864	5.18
715.187	5.31
715.509	5.35
715.831	5.29
716.153	5.21
716.475	5.35
716.798	5.51
717.12	5.44
717.442	5.29
717.764	5.3
718.085	5.15
718.407	5.18
718.729	5.24
719.051	5.18
719.373	5.09
719.695	5.13
720.016	5.21
720.338	5.23
720.659	5.31
720.981	5.4
721.302	5.32
721.624	5.47
721.945	5.24
722.267	5.17
722.588	5.26
722.909	5.06
723.231	4.89
723.552	4.69
723.873	4.81
724.194	4.77
724.515	4.71
724.836	4.75
725.157	4.84
725.478	4.86
725.799	4.86
726.12	5.06
726.441	5.02
726.762	5.09
727.083	5.04
727.403	5.01
727.724	5
728.045	4.96
728.365	5.03
728.686	5.09
729.006	5.31
729.327	5.18
729.647	5.31
729.967	5.4
730.288	5.45
730.608	5.35
730.928	5.48
731.249	5.6
731.569	5.71
731.889	5.46
732.209	5.48
732.529	5.55
732.849	5.44
733.169	5.53
733.489	5.47
733.809	5.46
734.129	5.39
734.448	5.31
734.768	5.42
735.088	5.3
735.408	5.33
735.727	5.27
736.047	5.43
736.366	5.36
736.686	5.26
737.005	5.35
737.325	5.35
737.644	5.33
737.963	5.38
738.283	5.17
738.602	5.39
738.921	5.3
739.24	5.21
739.56	5.04
739.879	4.92
740.198	4.92
740.517	4.96
740.836	5.05
741.155	5.04
741.473	5.02
741.792	5.02
742.111	4.94
742.43	4.84
742.748	4.73
743.067	4.63
743.386	4.74
743.704	4.7
744.023	4.69
744.341	4.58
744.66	4.63
744.978	4.6
745.297	4.38
745.615	4.49
745.933	4.52
746.252	4.8
746.57	4.84
746.888	4.84
747.206	4.63
747.524	4.49
747.842	4.61
748.16	4.8
748.478	4.92
748.796	5.14
749.114	5.29
749.432	5.17
749.749	5.37
750.067	5.36
750.385	5.2
750.703	5.3
751.02	5.34
751.338	5.08
751.655	5.37
751.973	5.55
752.29	5.64
752.608	5.79
752.925	5.66
753.242	5.65
753.56	5.45
753.877	5.68
754.194	5.85
754.511	5.73
754.828	5.41
755.145	5.33
755.462	5.3
755.779	5.34
756.096	5.82
756.413	5.76
756.73	5.7
757.047	5.95
757.364	5.94
757.68	6.07
757.997	5.86
758.314	5.73
758.63	5.93
758.947	5.84
759.264	5.74
759.58	5.68
759.896	5.59
760.213	5.82
760.529	5.85
760.846	5.8
761.162	5.96
761.478	6.1
761.794	6.03
762.11	6.02
762.426	5.83
762.743	5.63
763.059	5.64
763.375	5.98
763.69	5.97
764.006	5.86
764.322	6.03
764.638	6.19
764.954	6.44
765.27	6.22
765.585	6.16
765.901	6.13
766.216	6.36
766.532	6.38
766.848	6.15
767.163	5.94
767.478	5.87
767.794	5.73
768.109	5.65
768.424	5.79
768.74	5.76
769.055	5.86
769.37	5.94
769.685	5.61
770	5.35
770.315	5.25
770.63	5.35
770.945	4.93
771.26	5.13
771.575	4.89
771.89	4.84
772.205	4.95
772.52	5.01
772.834	4.79
773.149	4.87
773.464	5.14
773.778	5.63
774.093	5.41
774.407	5.56
774.722	5.36
775.036	5.15
775.351	5.2
775.665	5.13
775.979	5.02
776.293	5.28
776.608	5.15
776.922	5.04
777.236	5.14
777.55	5.54
777.864	5.41
778.178	5.42
778.492	5.65
778.806	5.58
779.12	5.55
779.434	5.6
779.747	5.59
780.061	5.65
780.375	5.47
780.689	5.91
781.002	5.85
781.316	5.98
781.629	6.31
781.943	6.26
782.256	6.54
782.57	6.63
782.883	6.79
783.196	6.78
783.51	6.81
783.823	6.83
784.136	6.64
784.449	6.38
784.762	6.32
785.075	6.44
785.388	6.65
785.701	6.9
786.014	6.99
786.327	6.76
786.64	7.13
786.953	7.09
787.266	6.93
787.578	7.17
787.891	7.73
788.204	7.3
788.516	7.36
788.829	7.09
789.141	7.13
789.454	7.06
789.766	7.12
790.079	7.23
790.391	7.07
790.703	7.35
791.016	7.58
791.328	7.46
791.64	7.66
791.952	7.85
792.264	7.78
792.576	7.66
792.888	8.04
793.2	7.48
793.512	7.34
793.824	7.26
794.136	6.55
794.448	6.16
794.76	6.34
795.071	6.62
795.383	6.93
795.695	6.97
796.006	6.95
796.318	6.75
796.629	6.98
796.941	6.99
797.252	6.77
797.564	6.55
797.875	6.8
798.186	6.27
798.497	6.04
798.809	5.91
799.12	5.82
799.431	5.67
799.742	5.68
800.053	5.51
800.364	6.09
800.675	6.49
800.986	6.89
801.297	6.79
801.608	6.03
801.918	5.35
802.229	5.23
802.54	5.54
802.851	5.83
803.161	5.72
803.472	5.44
803.782	5.24
804.093	6.03
804.403	5.83
804.714	6.15
805.024	5.74
805.334	5.85
805.645	6.05
805.955	6.17
806.265	6.73
806.575	7.09
806.885	6.94
807.195	7.53
807.505	7.06
807.815	7.33
808.125	7.93
808.435	7.94
808.745	8.25
809.055	8.3
809.365	8.11
809.674	7.57
809.984	7.63
810.294	7.64
810.603	7.35
810.913	7.29
811.222	7.01
811.532	7.3
811.841	7.39
812.151	7.62
812.46	7.04
812.769	6.18
813.079	6.08
813.388	5.76
813.697	5.24
814.006	5.57
814.315	5.18
814.624	3.92
814.933	5.31
815.242	4.59
815.551	4.86
815.86	5.26
816.169	5.4
816.478	5.59
816.786	5.44
817.095	5.65
817.404	6.33
817.712	6.29
818.021	6.57
818.33	6.69
818.638	6.98
818.947	7.71
819.255	8.34
819.563	8.69
819.872	8.69
820.18	8.75
820.488	8.69
820.796	8.88
821.105	9.17
821.413	8.95
821.721	8.99
822.029	9.06
822.337	9.11
822.645	9.26
822.953	9.4
823.26	9.51
823.568	9.4
823.876	9.4
824.184	9.44
824.491	9.45
824.799	9.34
825.107	9.24
825.414	9.32
825.722	9.34
826.029	9.31
826.337	9.38
826.644	9.52
826.951	9.54
827.259	9.5
827.566	9.55
827.873	9.55
828.18	9.74
828.488	9.74
828.795	9.73
829.102	9.65
829.409	9.7
829.716	9.58
830.023	9.58
830.329	9.2
830.636	9.29
830.943	9.02
831.25	9.04
831.557	9.01
831.863	8.71
832.17	8.52
832.476	8.38
832.783	8.45
833.089	8.34
833.396	8.63
833.702	8.72
834.009	8.97
834.315	8.95
834.621	9.06
834.928	8.4
835.234	8.37
835.54	8.29
835.846	7.76
836.152	7.74
836.458	7.99
836.764	8.1
837.07	7.55
837.376	7.14
837.682	7.6
837.988	7.32
838.293	6.98
838.599	6.6
838.905	6.58
839.211	6.17
839.516	5.16
839.822	4.06
840.127	3.77
840.433	3.4
840.738	3.03
841.044	2.76
841.349	3.14
841.654	3.61
841.959	4.46
842.265	5.52
842.57	5.5
842.875	3.92
843.18	3.4
843.485	4.59
843.79	5.28
844.095	3.83
844.4	4.89
844.705	5.53
845.01	5.62
845.315	5.4
845.619	4.35
845.924	5.27
846.229	5.7
846.533	6.3
846.838	4.68
847.142	4.59
847.447	1.8
847.751	1.93
848.056	0.34
848.36	-0.92
848.664	-2.22
848.969	-2.41
849.273	-1.13
849.577	-0.12
849.881	-0.68
850.185	0.57
850.489	1.2
850.794	-0.84
851.097	-0.91
851.401	0.07
851.705	0.52
852.009	2.71
852.313	1.8
852.617	1.8
852.92	1.06
853.224	3.07
853.528	1.84
853.831	2.84
854.135	2.98
854.438	2.38
854.742	1.44
855.045	0.09
855.349	1.14
855.652	1.72
855.955	3.04
856.259	1.43
856.562	-0.03
856.865	0.23
857.168	1.85
857.471	2.02
857.774	2.38
858.077	2.41
858.38	1.06
858.683	-0.45
858.986	1.22
859.289	1.4
859.592	-0.95
859.894	0.61
860.197	1.05
860.5	0
860.802	-1.21
861.105	0.29
861.407	1.2
861.71	-0.31
862.012	-2.33
862.315	-4.42
862.617	-5.35
862.919	-5.7
863.222	-5.43
863.524	-6.89
863.826	-7.13
864.128	-7.84
864.43	-8.2
864.732	-4.54
865.034	-1.51
865.336	-4.97
865.638	-7.18
865.94	-5.82
866.242	-6.63
866.544	-9.04
866.846	-7.47
867.147	-6.54
867.449	-9.44
867.751	-9.5
868.052	-6.87
868.354	-6.77
868.655	-6.38
868.957	-5.72
869.258	-4.1
869.56	-3.53
869.861	-2.56
870.162	-3.85
870.463	-4.42
870.765	-4.8
871.066	-9.02
871.367	-10.53
871.668	-8.32
871.969	-5.67
872.27	-4.87
872.571	-5.73
872.872	-2.25
873.173	-4.14
873.473	-2.01
873.774	-1.15
874.075	0.11
874.376	-3.36
874.676	-1.28
874.977	-0.75
875.277	2.31
875.578	3.46
875.878	1.97
876.179	2.18
876.479	3.52
876.78	3.39
877.08	3.81
877.38	4.72
877.68	6.03
877.981	6.18
878.281	5.22
878.581	5.85
