Data from BA28468_Reflection_00002.txt Node
Date: Mon Nov 18 15:14:41 EST 2019
User: vgr7
Spectrometer: USB2G7710
Scans to average: 3
Trigger mode: 4
Integration Time (sec): 2.000000E-2
Electric dark correction enabled: true
Boxcar width: 10
XAxis mode: Wavelengths
Number of Pixels in Spectrum: 2048
>>>>>Begin Spectral Data<<<<<
177.721	-189.57
178.105	-4471.43
178.488	15.73
178.871	64.44
179.254	48.05
179.636	271.05
180.019	48.65
180.402	30.91
180.785	136.24
181.168	93.09
181.55	127.73
181.933	-347.06
182.316	-107.79
182.698	-153.64
183.081	-78.1
183.463	78.02
183.846	9176.92
184.228	762.25
184.611	181.42
184.993	103.92
185.376	34.97
185.758	29.43
186.14	47.77
186.522	119.01
186.904	93.81
187.287	86.15
187.669	70.2
188.051	64.6
188.433	68.19
188.815	57.74
189.197	64.79
189.579	60.87
189.961	67.85
190.342	60.47
190.724	39.95
191.106	39.84
191.488	34.58
191.869	19.75
192.251	4.78
192.633	-5.7
193.014	-10.63
193.396	-20.63
193.777	-12.63
194.159	-19.4
194.54	-29.18
194.922	-22.87
195.303	-23.9
195.684	-21.66
196.065	0.67
196.447	-4.6
196.828	-6.01
197.209	-10.29
197.59	-7.84
197.971	1.7
198.352	2.38
198.733	11.71
199.114	13.94
199.495	10.29
199.876	10.65
200.257	22.49
200.638	42.51
201.018	55.27
201.399	63.34
201.78	52.54
202.16	48.01
202.541	43.03
202.922	35.94
203.302	25.9
203.683	38.21
204.063	22.12
204.444	20.47
204.824	13.39
205.204	18.57
205.585	19.7
205.965	17.73
206.345	24.67
206.725	31.91
207.106	32.2
207.486	34.43
207.866	40.87
208.246	36.7
208.626	41.56
209.006	43.29
209.386	33.71
209.766	37.85
210.145	41.04
210.525	60.74
210.905	62.05
211.285	76.92
211.664	73.51
212.044	86.26
212.424	77.86
212.803	93.52
213.183	99.56
213.562	89.74
213.942	89.4
214.321	82.55
214.701	64.7
215.08	54.72
215.459	49.17
215.838	48.62
216.218	45.67
216.597	40.42
216.976	46.08
217.355	52.13
217.734	54.58
218.113	58.2
218.492	53.97
218.871	43.84
219.25	32.25
219.629	23.95
220.008	16.62
220.387	19.81
220.766	11.47
221.144	7.56
221.523	7.98
221.902	-1.56
222.28	-6.9
222.659	-13.33
223.037	-12.27
223.416	-12.15
223.794	-11.88
224.173	-10.29
224.551	-14.02
224.929	-14.5
225.308	-14.21
225.686	-10.04
226.064	-5.1
226.442	-6.89
226.821	-2.45
227.199	-1.38
227.577	-2.83
227.955	-1.57
228.333	-2.17
228.711	-0.53
229.089	2.9
229.467	-0.05
229.845	3.09
230.222	3.5
230.6	5.36
230.978	6.75
231.356	9.45
231.733	7.55
232.111	8.6
232.488	8.93
232.866	8.44
233.243	8.29
233.621	7.25
233.998	7.03
234.376	6.82
234.753	6.88
235.13	6.47
235.508	7.63
235.885	7.1
236.262	5.5
236.639	4.27
237.016	2.87
237.393	3.77
237.77	3.78
238.147	4.42
238.524	4.53
238.901	4.49
239.278	4.73
239.655	6.31
240.032	5.94
240.409	5.71
240.785	5.61
241.162	5.71
241.539	5.86
241.915	6.04
242.292	5.79
242.668	5.95
243.045	6.36
243.421	6.44
243.798	6.68
244.174	6.76
244.551	6.85
244.927	6.86
245.303	6.99
245.679	7.01
246.056	7.01
246.432	6.93
246.808	6.91
247.184	6.58
247.56	6.15
247.936	6.13
248.312	6.33
248.688	6.44
249.064	6.5
249.44	6.49
249.815	6.32
250.191	6.58
250.567	6.6
250.943	6.38
251.318	6.32
251.694	6.25
252.069	6.53
252.445	6.82
252.82	6.84
253.196	6.61
253.571	6.47
253.947	6.19
254.322	6.15
254.697	6.38
255.073	6.52
255.448	6.71
255.823	6.82
256.198	6.6
256.573	6.57
256.948	6.49
257.323	6.72
257.698	6.64
258.073	6.56
258.448	6.45
258.823	6.51
259.198	6.55
259.573	6.47
259.948	6.21
260.322	6.21
260.697	6.26
261.072	6.23
261.446	6.37
261.821	6.46
262.195	6.47
262.57	6.35
262.944	6.36
263.319	6.39
263.693	6.25
264.067	6.36
264.442	6.37
264.816	6.46
265.19	6.22
265.564	6.29
265.938	6.26
266.313	6.3
266.687	6.51
267.061	6.45
267.435	6.53
267.809	6.6
268.183	6.51
268.556	6.52
268.93	6.82
269.304	6.65
269.678	6.7
270.051	6.52
270.425	6.62
270.799	6.7
271.172	6.61
271.546	6.7
271.919	6.54
272.293	6.55
272.666	6.53
273.04	6.68
273.413	6.65
273.787	6.76
274.16	6.81
274.533	6.67
274.906	6.62
275.279	6.59
275.653	6.67
276.026	6.7
276.399	6.69
276.772	6.68
277.145	6.92
277.518	6.88
277.891	7.21
278.263	7.06
278.636	7.04
279.009	7.01
279.382	6.9
279.755	7.01
280.127	7.17
280.5	7.06
280.872	6.96
281.245	6.89
281.617	6.77
281.99	6.73
282.362	6.72
282.735	6.67
283.107	6.71
283.479	6.69
283.852	6.6
284.224	6.55
284.596	6.38
284.968	6.39
285.34	6.39
285.713	6.27
286.085	6.29
286.457	6.3
286.829	6.43
287.201	6.43
287.572	6.29
287.944	6.25
288.316	6.23
288.688	6.3
289.06	6.38
289.431	6.47
289.803	6.48
290.175	6.42
290.546	6.58
290.918	6.53
291.289	6.45
291.661	6.49
292.032	6.68
292.403	6.69
292.775	6.67
293.146	6.74
293.517	6.78
293.889	6.88
294.26	6.85
294.631	6.76
295.002	6.77
295.373	6.95
295.744	6.83
296.115	6.87
296.486	6.8
296.857	6.81
297.228	6.88
297.599	6.94
297.97	7.02
298.34	6.98
298.711	7.04
299.082	7.07
299.452	7.12
299.823	7.1
300.194	7.21
300.564	7.23
300.935	7.21
301.305	7.19
301.676	7.27
302.046	7.43
302.416	7.53
302.787	7.5
303.157	7.5
303.527	7.49
303.897	7.52
304.267	7.6
304.637	7.64
305.008	7.65
305.378	7.64
305.748	7.8
306.117	7.81
306.487	7.81
306.857	7.91
307.227	7.91
307.597	7.89
307.967	7.93
308.336	7.88
308.706	7.89
309.076	7.9
309.445	7.82
309.815	7.69
310.184	7.72
310.554	7.77
310.923	7.69
311.293	7.69
311.662	7.8
312.031	7.73
312.401	7.66
312.77	7.57
313.139	7.56
313.508	7.46
313.877	7.5
314.246	7.47
314.616	7.53
314.985	7.58
315.353	7.5
315.722	7.52
316.091	7.53
316.46	7.45
316.829	7.47
317.198	7.43
317.567	7.28
317.935	7.21
318.304	7.21
318.672	7.33
319.041	7.59
319.41	7.57
319.778	7.56
320.147	7.55
320.515	7.71
320.883	7.7
321.252	7.66
321.62	7.63
321.988	7.6
322.357	7.54
322.725	7.56
323.093	7.64
323.461	7.52
323.829	7.59
324.197	7.72
324.565	7.75
324.933	7.85
325.301	7.94
325.669	8
326.037	7.9
326.405	7.92
326.772	7.92
327.14	7.92
327.508	8.02
327.875	8.01
328.243	7.98
328.61	7.98
328.978	8.03
329.346	8.18
329.713	8.27
330.08	8.28
330.448	8.29
330.815	8.23
331.182	8.34
331.55	8.21
331.917	8.17
332.284	8.22
332.651	8.17
333.018	8.27
333.385	8.32
333.752	8.48
334.119	8.51
334.486	8.33
334.853	8.23
335.22	8.07
335.587	8.15
335.954	8.13
336.32	8.13
336.687	8.15
337.054	8.1
337.42	8.05
337.787	7.93
338.153	7.87
338.52	7.98
338.886	7.85
339.253	7.84
339.619	7.83
339.986	7.73
340.352	7.7
340.718	7.59
341.084	7.44
341.451	7.52
341.817	7.58
342.183	7.5
342.549	7.61
342.915	7.81
343.281	7.82
343.647	7.71
344.013	7.64
344.379	7.61
344.745	7.5
345.11	7.49
345.476	7.58
345.842	7.59
346.208	7.57
346.573	7.62
346.939	7.7
347.304	7.67
347.67	7.73
348.035	7.79
348.401	7.92
348.766	7.99
349.132	8
349.497	7.82
349.862	8.01
350.228	7.91
350.593	7.76
350.958	7.67
351.323	7.73
351.688	7.76
352.053	7.75
352.418	7.85
352.783	7.95
353.148	7.92
353.513	7.9
353.878	7.85
354.243	7.86
354.608	7.81
354.972	7.81
355.337	7.85
355.702	7.85
356.066	7.83
356.431	7.88
356.795	7.78
357.16	7.85
357.524	7.72
357.889	7.65
358.253	7.72
358.618	7.72
358.982	7.67
359.346	7.62
359.71	7.59
360.075	7.55
360.439	7.54
360.803	7.55
361.167	7.54
361.531	7.5
361.895	7.54
362.259	7.52
362.623	7.57
362.987	7.56
363.351	7.59
363.714	7.63
364.078	7.55
364.442	7.55
364.806	7.48
365.169	7.56
365.533	7.66
365.896	7.61
366.26	7.65
366.623	7.68
366.987	7.72
367.35	7.78
367.714	7.76
368.077	7.67
368.44	7.66
368.803	7.64
369.167	7.65
369.53	7.61
369.893	7.65
370.256	7.63
370.619	7.55
370.982	7.54
371.345	7.5
371.708	7.54
372.071	7.6
372.434	7.66
372.797	7.59
373.159	7.58
373.522	7.59
373.885	7.61
374.247	7.62
374.61	7.62
374.973	7.56
375.335	7.6
375.698	7.67
376.06	7.68
376.423	7.67
376.785	7.75
377.147	7.76
377.51	7.77
377.872	7.81
378.234	7.83
378.596	7.83
378.958	7.78
379.321	7.76
379.683	7.7
380.045	7.71
380.407	7.72
380.769	7.73
381.13	7.75
381.492	7.75
381.854	7.75
382.216	7.8
382.578	7.86
382.939	7.82
383.301	7.79
383.663	7.75
384.024	7.74
384.386	7.75
384.747	7.77
385.109	7.75
385.47	7.7
385.832	7.67
386.193	7.7
386.554	7.75
386.916	7.78
387.277	7.78
387.638	7.8
387.999	7.82
388.36	7.85
388.721	7.83
389.082	7.82
389.443	7.8
389.804	7.78
390.165	7.76
390.526	7.77
390.887	7.75
391.248	7.81
391.609	7.84
391.969	7.79
392.33	7.74
392.691	7.72
393.051	7.72
393.412	7.73
393.772	7.67
394.133	7.64
394.493	7.63
394.854	7.61
395.214	7.59
395.574	7.58
395.935	7.56
396.295	7.56
396.655	7.52
397.015	7.54
397.376	7.55
397.736	7.56
398.096	7.57
398.456	7.6
398.816	7.58
399.176	7.55
399.535	7.55
399.895	7.57
400.255	7.59
400.615	7.59
400.975	7.6
401.334	7.6
401.694	7.6
402.054	7.55
402.413	7.57
402.773	7.56
403.132	7.57
403.492	7.56
403.851	7.57
404.211	7.59
404.57	7.56
404.929	7.55
405.288	7.53
405.648	7.51
406.007	7.53
406.366	7.54
406.725	7.59
407.084	7.61
407.443	7.64
407.802	7.66
408.161	7.7
408.52	7.67
408.879	7.67
409.238	7.68
409.596	7.75
409.955	7.77
410.314	7.8
410.673	7.78
411.031	7.77
411.39	7.75
411.748	7.76
412.107	7.78
412.465	7.78
412.824	7.79
413.182	7.79
413.54	7.75
413.899	7.77
414.257	7.75
414.615	7.72
414.974	7.68
415.332	7.67
415.69	7.64
416.048	7.67
416.406	7.68
416.764	7.68
417.122	7.66
417.48	7.64
417.838	7.65
418.195	7.66
418.553	7.65
418.911	7.66
419.269	7.66
419.626	7.68
419.984	7.68
420.342	7.7
420.699	7.7
421.057	7.7
421.414	7.69
421.772	7.67
422.129	7.68
422.486	7.69
422.844	7.68
423.201	7.68
423.558	7.69
423.915	7.71
424.273	7.71
424.63	7.69
424.987	7.71
425.344	7.68
425.701	7.68
426.058	7.68
426.415	7.68
426.772	7.69
427.128	7.66
427.485	7.67
427.842	7.65
428.199	7.65
428.555	7.68
428.912	7.71
429.269	7.72
429.625	7.74
429.982	7.72
430.338	7.74
430.695	7.73
431.051	7.71
431.407	7.7
431.764	7.72
432.12	7.71
432.476	7.7
432.832	7.72
433.189	7.74
433.545	7.75
433.901	7.76
434.257	7.75
434.613	7.76
434.969	7.75
435.325	7.75
435.681	7.78
436.036	7.78
436.392	7.76
436.748	7.76
437.104	7.74
437.459	7.74
437.815	7.73
438.171	7.73
438.526	7.73
438.882	7.75
439.237	7.73
439.593	7.75
439.948	7.75
440.304	7.75
440.659	7.74
441.014	7.73
441.369	7.73
441.725	7.74
442.08	7.73
442.435	7.74
442.79	7.76
443.145	7.72
443.5	7.71
443.855	7.72
444.21	7.72
444.565	7.75
444.92	7.74
445.275	7.74
445.629	7.75
445.984	7.75
446.339	7.72
446.693	7.72
447.048	7.73
447.403	7.72
447.757	7.73
448.112	7.72
448.466	7.73
448.82	7.73
449.175	7.73
449.529	7.74
449.883	7.73
450.238	7.71
450.592	7.73
450.946	7.73
451.3	7.72
451.654	7.71
452.008	7.69
452.362	7.7
452.716	7.71
453.07	7.71
453.424	7.72
453.778	7.73
454.132	7.72
454.486	7.7
454.839	7.71
455.193	7.72
455.547	7.73
455.9	7.74
456.254	7.74
456.607	7.72
456.961	7.74
457.314	7.74
457.668	7.74
458.021	7.75
458.375	7.75
458.728	7.74
459.081	7.75
459.434	7.77
459.787	7.76
460.141	7.77
460.494	7.77
460.847	7.78
461.2	7.77
461.553	7.79
461.906	7.81
462.259	7.81
462.611	7.8
462.964	7.81
463.317	7.81
463.67	7.82
464.022	7.82
464.375	7.82
464.728	7.83
465.08	7.82
465.433	7.81
465.785	7.82
466.138	7.81
466.49	7.8
466.843	7.78
467.195	7.77
467.547	7.75
467.899	7.75
468.252	7.77
468.604	7.79
468.956	7.78
469.308	7.78
469.66	7.77
470.012	7.78
470.364	7.76
470.716	7.75
471.068	7.75
471.42	7.74
471.772	7.76
472.123	7.77
472.475	7.78
472.827	7.78
473.178	7.81
473.53	7.81
473.882	7.81
474.233	7.82
474.585	7.82
474.936	7.84
475.288	7.83
475.639	7.8
475.99	7.81
476.342	7.81
476.693	7.79
477.044	7.79
477.395	7.79
477.746	7.79
478.097	7.79
478.448	7.78
478.8	7.79
479.15	7.79
479.501	7.79
479.852	7.79
480.203	7.78
480.554	7.78
480.905	7.78
481.255	7.79
481.606	7.79
481.957	7.81
482.307	7.82
482.658	7.82
483.009	7.82
483.359	7.82
483.709	7.82
484.06	7.82
484.41	7.83
484.761	7.83
485.111	7.83
485.461	7.83
485.811	7.83
486.162	7.83
486.512	7.82
486.862	7.82
487.212	7.81
487.562	7.83
487.912	7.83
488.262	7.85
488.612	7.85
488.961	7.85
489.311	7.85
489.661	7.84
490.011	7.84
490.36	7.84
490.71	7.83
491.06	7.83
491.409	7.83
491.759	7.83
492.108	7.83
492.458	7.83
492.807	7.82
493.157	7.82
493.506	7.84
493.855	7.83
494.204	7.83
494.554	7.83
494.903	7.81
495.252	7.81
495.601	7.79
495.95	7.79
496.299	7.78
496.648	7.76
496.997	7.76
497.346	7.76
497.695	7.77
498.043	7.78
498.392	7.77
498.741	7.78
499.09	7.78
499.438	7.77
499.787	7.78
500.135	7.8
500.484	7.82
500.832	7.83
501.181	7.82
501.529	7.81
501.878	7.83
502.226	7.82
502.574	7.79
502.923	7.8
503.271	7.79
503.619	7.81
503.967	7.83
504.315	7.84
504.663	7.86
505.011	7.86
505.359	7.87
505.707	7.86
506.055	7.87
506.403	7.86
506.751	7.86
507.098	7.83
507.446	7.84
507.794	7.83
508.141	7.82
508.489	7.85
508.837	7.86
509.184	7.86
509.531	7.87
509.879	7.9
510.226	7.92
510.574	7.93
510.921	7.91
511.268	7.9
511.616	7.88
511.963	7.88
512.31	7.9
512.657	7.9
513.004	7.91
513.351	7.91
513.698	7.93
514.045	7.91
514.392	7.94
514.739	7.93
515.086	7.94
515.432	7.93
515.779	7.92
516.126	7.96
516.473	7.96
516.819	7.98
517.166	7.97
517.512	7.98
517.859	7.99
518.205	7.99
518.552	8
518.898	8.03
519.245	8.01
519.591	8.01
519.937	8.01
520.283	8.01
520.629	8.01
520.976	8
521.322	8.02
521.668	8.01
522.014	8.01
522.36	8.03
522.706	8.04
523.052	8.05
523.398	8.02
523.743	8.01
524.089	8.03
524.435	8.02
524.781	8.02
525.126	8.01
525.472	8.03
525.817	8.03
526.163	8.02
526.509	8.05
526.854	8.04
527.199	8.06
527.545	8.07
527.89	8.06
528.235	8.07
528.581	8.07
528.926	8.08
529.271	8.1
529.616	8.1
529.961	8.09
530.306	8.11
530.651	8.11
530.996	8.11
531.341	8.1
531.686	8.11
532.031	8.1
532.376	8.1
532.721	8.1
533.065	8.09
533.41	8.11
533.755	8.12
534.099	8.12
534.444	8.12
534.788	8.12
535.133	8.11
535.477	8.13
535.822	8.14
536.166	8.13
536.51	8.12
536.855	8.12
537.199	8.14
537.543	8.14
537.887	8.15
538.231	8.15
538.576	8.17
538.92	8.19
539.264	8.2
539.608	8.21
539.951	8.21
540.295	8.22
540.639	8.21
540.983	8.2
541.327	8.21
541.671	8.19
542.014	8.2
542.358	8.23
542.701	8.21
543.045	8.21
543.389	8.21
543.732	8.22
544.075	8.22
544.419	8.2
544.762	8.2
545.105	8.2
545.449	8.22
545.792	8.22
546.135	8.21
546.478	8.2
546.821	8.21
547.165	8.2
547.508	8.21
547.851	8.23
548.194	8.22
548.536	8.22
548.879	8.25
549.222	8.25
549.565	8.25
549.908	8.29
550.25	8.33
550.593	8.34
550.936	8.33
551.278	8.35
551.621	8.37
551.963	8.4
552.306	8.39
552.648	8.39
552.991	8.42
553.333	8.39
553.675	8.42
554.017	8.43
554.36	8.45
554.702	8.46
555.044	8.47
555.386	8.49
555.728	8.5
556.07	8.52
556.412	8.5
556.754	8.48
557.096	8.45
557.438	8.44
557.78	8.44
558.121	8.45
558.463	8.46
558.805	8.47
559.147	8.41
559.488	8.42
559.83	8.42
560.171	8.4
560.513	8.44
560.854	8.43
561.196	8.43
561.537	8.46
561.878	8.43
562.22	8.42
562.561	8.4
562.902	8.4
563.243	8.36
563.584	8.4
563.925	8.4
564.266	8.38
564.607	8.37
564.948	8.41
565.289	8.43
565.63	8.46
565.971	8.45
566.312	8.47
566.653	8.46
566.993	8.46
567.334	8.46
567.675	8.46
568.015	8.46
568.356	8.45
568.696	8.43
569.037	8.45
569.377	8.46
569.718	8.49
570.058	8.47
570.398	8.47
570.739	8.49
571.079	8.51
571.419	8.55
571.759	8.55
572.099	8.51
572.439	8.49
572.779	8.48
573.119	8.49
573.459	8.51
573.799	8.53
574.139	8.54
574.479	8.55
574.819	8.58
575.158	8.58
575.498	8.57
575.838	8.55
576.177	8.56
576.517	8.55
576.856	8.55
577.196	8.6
577.535	8.61
577.875	8.61
578.214	8.6
578.553	8.61
578.893	8.63
579.232	8.63
579.571	8.64
579.91	8.64
580.25	8.66
580.589	8.63
580.928	8.61
581.267	8.59
581.606	8.59
581.945	8.52
582.283	8.52
582.622	8.56
582.961	8.61
583.3	8.59
583.639	8.61
583.977	8.64
584.316	8.63
584.654	8.62
584.993	8.61
585.332	8.61
585.67	8.58
586.008	8.55
586.347	8.55
586.685	8.55
587.024	8.55
587.362	8.52
587.7	8.55
588.038	8.6
588.376	8.63
588.715	8.64
589.053	8.68
589.391	8.71
589.729	8.71
590.067	8.69
590.404	8.73
590.742	8.74
591.08	8.68
591.418	8.67
591.756	8.7
592.093	8.75
592.431	8.8
592.769	8.83
593.106	8.84
593.444	8.82
593.781	8.8
594.119	8.83
594.456	8.8
594.793	8.83
595.131	8.81
595.468	8.79
595.805	8.78
596.143	8.82
596.48	8.8
596.817	8.78
597.154	8.77
597.491	8.73
597.828	8.74
598.165	8.77
598.502	8.75
598.839	8.72
599.176	8.67
599.512	8.64
599.849	8.63
600.186	8.63
600.523	8.66
600.859	8.69
601.196	8.7
601.532	8.72
601.869	8.73
602.205	8.72
602.542	8.76
602.878	8.76
603.215	8.71
603.551	8.72
603.887	8.75
604.223	8.77
604.56	8.8
604.896	8.77
605.232	8.78
605.568	8.82
605.904	8.82
606.24	8.84
606.576	8.84
606.912	8.87
607.248	8.87
607.583	8.89
607.919	8.91
608.255	8.88
608.591	8.93
608.926	8.92
609.262	8.94
609.597	8.95
609.933	8.96
610.268	8.97
610.604	9
610.939	9.01
611.275	9.01
611.61	9.01
611.945	9.07
612.281	9.05
612.616	9.07
612.951	9.1
613.286	9.11
613.621	9.1
613.956	9.07
614.291	9.13
614.626	9.13
614.961	9.09
615.296	9.12
615.631	9.1
615.966	9.06
616.3	9.07
616.635	9.07
616.97	9.05
617.304	9.05
617.639	9.08
617.973	9.08
618.308	9.06
618.642	9.07
618.977	9.02
619.311	9.05
619.646	8.98
619.98	8.98
620.314	9.05
620.648	9.05
620.983	9.06
621.317	9.01
621.651	9.08
621.985	9.16
622.319	9.17
622.653	9.18
622.987	9.25
623.321	9.25
623.655	9.25
623.988	9.29
624.322	9.28
624.656	9.22
624.99	9.24
625.323	9.27
625.657	9.3
625.99	9.36
626.324	9.33
626.657	9.39
626.991	9.39
627.324	9.37
627.658	9.38
627.991	9.4
628.324	9.43
628.657	9.37
628.991	9.39
629.324	9.4
629.657	9.41
629.99	9.42
630.323	9.37
630.656	9.34
630.989	9.37
631.322	9.39
631.655	9.37
631.987	9.37
632.32	9.36
632.653	9.36
632.986	9.31
633.318	9.32
633.651	9.34
633.984	9.34
634.316	9.3
634.649	9.31
634.981	9.28
635.313	9.28
635.646	9.29
635.978	9.26
636.31	9.25
636.643	9.25
636.975	9.18
637.307	9.26
637.639	9.29
637.971	9.33
638.303	9.37
638.635	9.44
638.967	9.43
639.299	9.52
639.631	9.43
639.963	9.5
640.295	9.51
640.626	9.5
640.958	9.59
641.29	9.65
641.621	9.63
641.953	9.68
642.285	9.7
642.616	9.73
642.948	9.74
643.279	9.76
643.61	9.74
643.942	9.81
644.273	9.83
644.604	9.87
644.936	9.76
645.267	9.75
645.598	9.76
645.929	9.77
646.26	9.72
646.591	9.73
646.922	9.72
647.253	9.76
647.584	9.75
647.915	9.67
648.245	9.63
648.576	9.64
648.907	9.59
649.238	9.57
649.568	9.62
649.899	9.62
650.229	9.54
650.56	9.53
650.89	9.5
651.221	9.52
651.551	9.42
651.882	9.49
652.212	9.46
652.542	9.46
652.872	9.43
653.203	9.38
653.533	9.44
653.863	9.43
654.193	9.39
654.523	9.37
654.853	9.36
655.183	9.44
655.513	9.47
655.843	9.51
656.172	9.52
656.502	9.47
656.832	9.47
657.162	9.52
657.491	9.54
657.821	9.61
658.15	9.55
658.48	9.58
658.809	9.61
659.139	9.65
659.468	9.61
659.798	9.61
660.127	9.7
660.456	9.7
660.785	9.7
661.115	9.71
661.444	9.73
661.773	9.76
662.102	9.69
662.431	9.66
662.76	9.65
663.089	9.66
663.418	9.6
663.747	9.58
664.076	9.67
664.404	9.64
664.733	9.6
665.062	9.59
665.39	9.64
665.719	9.54
666.048	9.59
666.376	9.62
666.705	9.63
667.033	9.53
667.362	9.53
667.69	9.51
668.018	9.52
668.347	9.58
668.675	9.59
669.003	9.63
669.331	9.65
669.659	9.73
669.987	9.72
670.315	9.8
670.643	9.81
670.971	9.81
671.299	9.85
671.627	9.8
671.955	9.89
672.283	9.86
672.61	9.95
672.938	9.88
673.266	9.92
673.593	10.03
673.921	10.1
674.249	10.1
674.576	10.09
674.904	10.16
675.231	10.06
675.558	10.1
675.886	10.12
676.213	10.14
676.54	10.11
676.867	10.16
677.195	10.16
677.522	10.15
677.849	10.13
678.176	10.13
678.503	10.23
678.83	10.26
679.157	10.28
679.484	10.21
679.81	10.2
680.137	10.15
680.464	10.09
680.791	10.1
681.117	10.03
681.444	10.12
681.771	10.05
682.097	10.08
682.424	10.03
682.75	10.03
683.077	10.05
683.403	10.07
683.729	10.1
684.056	10.08
684.382	10.12
684.708	10.1
685.034	10.03
685.36	10.05
685.686	10.01
686.012	9.98
686.339	10.08
686.664	10.1
686.99	10.11
687.316	10.03
687.642	10.05
687.968	10.15
688.294	10.21
688.619	10.26
688.945	10.26
689.271	10.29
689.596	10.27
689.922	10.34
690.247	10.35
690.573	10.32
690.898	10.41
691.224	10.43
691.549	10.45
691.874	10.43
692.2	10.32
692.525	10.3
692.85	10.31
693.175	10.25
693.5	10.33
693.825	10.44
694.15	10.52
694.475	10.45
694.8	10.48
695.125	10.36
695.45	10.37
695.775	10.4
696.099	10.38
696.424	10.44
696.749	10.37
697.073	10.4
697.398	10.44
697.723	10.36
698.047	10.27
698.372	10.24
698.696	10.37
699.02	10.39
699.345	10.52
699.669	10.56
699.993	10.51
700.318	10.53
700.642	10.53
700.966	10.59
701.29	10.66
701.614	10.68
701.938	10.72
702.262	10.74
702.586	10.83
702.91	10.87
703.234	10.96
703.557	10.98
703.881	10.94
704.205	10.93
704.529	10.87
704.852	11.02
705.176	11.04
705.499	11.12
705.823	11.19
706.146	11.06
706.47	11.01
706.793	11.02
707.117	10.95
707.44	10.89
707.763	10.82
708.086	10.68
708.409	10.72
708.733	10.74
709.056	10.65
709.379	10.69
709.702	10.68
710.025	10.55
710.348	10.48
710.671	10.38
710.993	10.42
711.316	10.64
711.639	10.67
711.962	10.83
712.284	10.77
712.607	10.81
712.93	10.9
713.252	10.9
713.575	11.01
713.897	10.94
714.22	11
714.542	11.09
714.864	11.16
715.187	11.11
715.509	11.2
715.831	11.32
716.153	11.25
716.475	11.28
716.798	11.46
717.12	11.67
717.442	11.7
717.764	11.69
718.085	11.62
718.407	11.5
718.729	11.36
719.051	11.26
719.373	11.18
719.695	11.03
720.016	11.13
720.338	11.2
720.659	11.28
720.981	11.2
721.302	11.22
721.624	11.29
721.945	11.25
722.267	11.18
722.588	11.03
722.909	11.2
723.231	11.1
723.552	10.99
723.873	10.94
724.194	11.08
724.515	11.18
724.836	11.08
725.157	11.29
725.478	11.38
725.799	11.48
726.12	11.47
726.441	11.49
726.762	11.45
727.083	11.41
727.403	11.45
727.724	11.63
728.045	11.77
728.365	11.7
728.686	11.69
729.006	11.69
729.327	11.73
729.647	11.7
729.967	11.84
730.288	11.87
730.608	11.89
730.928	11.79
731.249	11.62
731.569	11.78
731.889	11.7
732.209	11.82
732.529	11.89
732.849	12.06
733.169	12.01
733.489	12.07
733.809	11.92
734.129	11.86
734.448	11.96
734.768	11.91
735.088	11.97
735.408	12.14
735.727	12.19
736.047	12.39
736.366	12.31
736.686	12.43
737.005	12.36
737.325	12.38
737.644	12.45
737.963	12.53
738.283	12.32
738.602	12.29
738.921	12.21
739.24	12.23
739.56	12.03
739.879	12.19
740.198	12.32
740.517	12.53
740.836	12.63
741.155	12.46
741.473	12.39
741.792	12.5
742.111	12.51
742.43	12.55
742.748	12.28
743.067	12.28
743.386	12.3
743.704	12.35
744.023	12.39
744.341	12.21
744.66	12.59
744.978	12.88
745.297	12.86
745.615	12.98
745.933	13.07
746.252	13.29
746.57	13.29
746.888	13.17
747.206	13.28
747.524	13.39
747.842	13.47
748.16	13.56
748.478	13.59
748.796	13.44
749.114	13.41
749.432	13.36
749.749	13.48
750.067	13.24
750.385	13.39
750.703	13.29
751.02	13.5
751.338	13.14
751.655	13.07
751.973	13.33
752.29	13.18
752.608	13.19
752.925	13.19
753.242	13.13
753.56	13.02
753.877	12.86
754.194	12.52
754.511	12.57
754.828	12.55
755.145	12.41
755.462	12.61
755.779	12.52
756.096	12.7
756.413	12.9
756.73	12.94
757.047	12.79
757.364	13.07
757.68	13.12
757.997	13.04
758.314	12.77
758.63	12.5
758.947	12.47
759.264	12.11
759.58	12.07
759.896	12.14
760.213	12.33
760.529	12.25
760.846	12.5
761.162	12.47
761.478	12.36
761.794	12.32
762.11	12.36
762.426	12.41
762.743	12.3
763.059	12.17
763.375	12.33
763.69	12.3
764.006	12.35
764.322	12.34
764.638	12.52
764.954	12.69
765.27	12.67
765.585	12.82
765.901	12.95
766.216	12.85
766.532	12.89
766.848	12.75
767.163	12.87
767.478	12.94
767.794	12.9
768.109	12.97
768.424	13.19
768.74	13.12
769.055	12.98
769.37	13.17
769.685	13.1
770	13.24
770.315	13.3
770.63	13.15
770.945	13.08
771.26	13.02
771.575	12.97
771.89	12.94
772.205	12.74
772.52	13.01
772.834	12.97
773.149	12.97
773.464	12.95
773.778	13.02
774.093	12.73
774.407	12.68
774.722	12.52
775.036	12.64
775.351	12.82
775.665	13.15
775.979	13.2
776.293	13.29
776.608	13.09
776.922	13.1
777.236	13.11
777.55	13.35
777.864	12.97
778.178	13.26
778.492	13.6
778.806	13.66
779.12	13.53
779.434	13.85
779.747	13.99
780.061	14.44
780.375	14.69
780.689	15.13
781.002	15.38
781.316	15.51
781.629	15.43
781.943	15.02
782.256	14.87
782.57	15.19
782.883	14.84
783.196	14.71
783.51	14.57
783.823	14.65
784.136	14.95
784.449	15.41
784.762	15.11
785.075	15.27
785.388	15.18
785.701	15.31
786.014	15.13
786.327	15.27
786.64	15.47
786.953	15.37
787.266	15.31
787.578	15.34
787.891	15.31
788.204	14.94
788.516	15.37
788.829	15.78
789.141	15.73
789.454	16.26
789.766	16.39
790.079	16.6
790.391	16.5
790.703	16.12
791.016	16.37
791.328	16.63
791.64	16.58
791.952	16.83
792.264	16.24
792.576	15.94
792.888	15.64
793.2	15.41
793.512	15.09
793.824	14.79
794.136	14.89
794.448	15.12
794.76	15.54
795.071	15.44
795.383	15.06
795.695	14.68
796.006	14.44
796.318	14.63
796.629	14.83
796.941	14.72
797.252	15.1
797.564	15
797.875	14.72
798.186	14.58
798.497	14.8
798.809	15.31
799.12	15.96
799.431	16.12
799.742	16.55
800.053	17.25
800.364	17.56
800.675	17.67
800.986	17.66
801.297	17.34
801.608	17.58
801.918	17.57
802.229	17.95
802.54	18.11
802.851	18.29
803.161	18.09
803.472	18.67
803.782	18.68
804.093	18.4
804.403	18.58
804.714	18.36
805.024	18.17
805.334	18.44
805.645	18.06
805.955	18.08
806.265	18.19
806.575	17.78
806.885	17.49
807.195	17.28
807.505	17.24
807.815	17.42
808.125	16.79
808.435	16.79
808.745	16.83
809.055	17.01
809.365	16.73
809.674	16.58
809.984	16.16
810.294	16.08
810.603	16.57
810.913	16.44
811.222	16.87
811.532	16.31
811.841	16.43
812.151	17.11
812.46	17.07
812.769	16.36
813.079	16.39
813.388	17.02
813.697	16.75
814.006	16.45
814.315	16.54
814.624	16.82
814.933	17.82
815.242	17.71
815.551	17.63
815.86	17.77
816.169	18.16
816.478	18.05
816.786	17.85
817.095	17.45
817.404	18.23
817.712	17.46
818.021	17.55
818.33	17.14
818.638	16.6
818.947	16.71
819.255	16.49
819.563	16.56
819.872	16.25
820.18	16.14
820.488	16.21
820.796	16.06
821.105	16.21
821.413	15.66
821.721	15.53
822.029	15.52
822.337	15.46
822.645	15.51
822.953	15.52
823.26	15.66
823.568	15.62
823.876	15.57
824.184	15.64
824.491	15.76
824.799	15.77
825.107	15.78
825.414	15.74
825.722	15.86
826.029	15.81
826.337	15.89
826.644	15.89
826.951	15.96
827.259	16
827.566	15.71
827.873	15.87
828.18	15.92
828.488	15.93
828.795	15.88
829.102	15.99
829.409	16.13
829.716	15.8
830.023	15.77
830.329	15.51
830.636	15.88
830.943	15.88
831.25	15.82
831.557	16.09
831.863	16.21
832.17	16.25
832.476	16.63
832.783	16.51
833.089	16.84
833.396	16.88
833.702	17.24
834.009	17.79
834.315	17.79
834.621	17.69
834.928	17.58
835.234	18.05
835.54	17.65
835.846	17.48
836.152	17.58
836.458	17.69
836.764	17.93
837.07	17.57
837.376	17.66
837.682	18.14
837.988	17.79
838.293	17.84
838.599	17.58
838.905	17
839.211	17.05
839.516	17.11
839.822	17.38
840.127	17.08
840.433	17.44
840.738	18.28
841.044	18.95
841.349	19.66
841.654	19.11
841.959	19.15
842.265	18.97
842.57	20.01
842.875	20.24
843.18	21.07
843.485	21.91
843.79	21.59
844.095	21.2
844.4	22.48
844.705	21.21
845.01	21.56
845.315	21.79
845.619	21.26
845.924	21.89
846.229	21.79
846.533	22.55
846.838	20.87
847.142	19.47
847.447	18.55
847.751	17.31
848.056	17.08
848.36	17.91
848.664	18.75
848.969	17.75
849.273	18.16
849.577	17.17
849.881	16.76
850.185	17.23
850.489	16.87
850.794	14.57
851.097	17.14
851.401	17.86
851.705	17.28
852.009	19.44
852.313	18.11
852.617	17.89
852.92	18.47
853.224	18.37
853.528	19.95
853.831	21.45
854.135	22.08
854.438	21.32
854.742	21.75
855.045	21.39
855.349	22.29
855.652	22.48
855.955	23.07
856.259	22.83
856.562	24.64
856.865	23.85
857.168	25.21
857.471	24.47
857.774	25.7
858.077	27.39
858.38	27.55
858.683	27.88
858.986	27.48
859.289	26.9
859.592	29.43
859.894	30.44
860.197	31.4
860.5	32
860.802	34.64
861.105	34.2
861.407	34.47
861.71	35.11
862.012	32.82
862.315	32.86
862.617	33.43
862.919	32.79
863.222	34.86
863.524	34.49
863.826	35.74
864.128	33.23
864.43	32.79
864.732	31.87
865.034	32.22
865.336	34.03
865.638	33.72
865.94	30.85
866.242	29.15
866.544	28.04
866.846	27.87
867.147	25.98
867.449	26.06
867.751	25.87
868.052	25.93
868.354	28.47
868.655	28.62
868.957	29.67
869.258	28.63
869.56	27.02
869.861	26.37
870.162	26.71
870.463	27.44
870.765	27.93
871.066	27.45
871.367	27.31
871.668	25.27
871.969	25.57
872.27	26.07
872.571	24.45
872.872	24.48
873.173	22.04
873.473	22.74
873.774	23.29
874.075	26.05
874.376	24.15
874.676	22.9
874.977	22.1
875.277	21.72
875.578	22.48
875.878	23.03
876.179	23.78
876.479	22.23
876.78	22
877.08	20.85
877.38	21.36
877.68	21.05
877.981	22.37
878.281	21.89
878.581	24.45
