Data from BA28299_Reflection_00010.txt Node
Date: Mon Nov 18 15:42:29 EST 2019
User: vgr7
Spectrometer: USB2G7710
Scans to average: 3
Trigger mode: 4
Integration Time (sec): 2.000000E-2
Electric dark correction enabled: true
Boxcar width: 10
XAxis mode: Wavelengths
Number of Pixels in Spectrum: 2048
>>>>>Begin Spectral Data<<<<<
177.721	-194.16
178.105	-509.2
178.488	611.42
178.871	-430.3
179.254	218.72
179.636	27.39
180.019	-54.41
180.402	23.08
180.785	45.58
181.168	839.58
181.55	-994.02
181.933	285.79
182.316	142.67
182.698	127.74
183.081	192.97
183.463	295.22
183.846	283.37
184.228	1951.85
184.611	23833.33
184.993	-662.92
185.376	-424.77
185.758	-688.67
186.14	-420.92
186.522	-404.8
186.904	-200.8
187.287	-468.21
187.669	-117.97
188.051	-142.19
188.433	-117.32
188.815	-120.63
189.197	-92.32
189.579	-77.55
189.961	-80.7
190.342	-89.87
190.724	-59.83
191.106	-62.78
191.488	-49.42
191.869	-21.62
192.251	-43.26
192.633	-41.97
193.014	-48.82
193.396	-52.39
193.777	-36.25
194.159	-45.09
194.54	-34.14
194.922	-37.5
195.303	-23.97
195.684	-22.78
196.065	-4.77
196.447	-2.88
196.828	-9.69
197.209	-6.22
197.59	3.35
197.971	-4.5
198.352	-2.59
198.733	-9.72
199.114	-13.96
199.495	-14.37
199.876	-19.2
200.257	-10.55
200.638	-8.28
201.018	-1.5
201.399	-3.15
201.78	1.19
202.16	1.55
202.541	-6.26
202.922	-9.88
203.302	-19.2
203.683	-23.97
204.063	-35.07
204.444	-29.32
204.824	-25.69
205.204	-20.82
205.585	-31.65
205.965	-16.92
206.345	-34.96
206.725	-42.22
207.106	-59.1
207.486	-78.72
207.866	-82.89
208.246	-74.33
208.626	-81.6
209.006	-70.1
209.386	-99.69
209.766	-95.45
210.145	-114.58
210.525	-81.51
210.905	-70.63
211.285	-63.92
211.664	-51.73
212.044	-53.88
212.424	-57.67
212.803	-74.16
213.183	-72.81
213.562	-58.39
213.942	-64.71
214.321	-31.13
214.701	-33.33
215.08	-25.38
215.459	-33.44
215.838	-35.86
216.218	-36.97
216.597	-23.6
216.976	-18.22
217.355	-6.3
217.734	-18.2
218.113	-1.92
218.492	12.16
218.871	4.69
219.25	8.95
219.629	1.9
220.008	-0.36
220.387	11.62
220.766	7.9
221.144	-2.06
221.523	-18.7
221.902	-1.96
222.28	-16.25
222.659	-12.95
223.037	-8.93
223.416	-8.07
223.794	-10.59
224.173	-8.46
224.551	-3.47
224.929	-3.17
225.308	2.34
225.686	3.47
226.064	3.89
226.442	1.86
226.821	5.44
227.199	2.15
227.577	3.14
227.955	1.93
228.333	-0.8
228.711	4.24
229.089	5.59
229.467	6.12
229.845	2.45
230.222	1.35
230.6	1.86
230.978	1.42
231.356	2.12
231.733	4.39
232.111	5.41
232.488	3.65
232.866	3.01
233.243	-0.39
233.621	-1.95
233.998	-2.43
234.376	-3.02
234.753	-4
235.13	-2.62
235.508	-1.19
235.885	-0.92
236.262	-1.65
236.639	-3.19
237.016	-2.78
237.393	-1.19
237.77	-0.36
238.147	0.04
238.524	0.23
238.901	0.99
239.278	1.03
239.655	0.99
240.032	0.87
240.409	1.33
240.785	1.44
241.162	2.31
241.539	3
241.915	2.91
242.292	2.72
242.668	3.13
243.045	2.89
243.421	2.44
243.798	2.55
244.174	2.72
244.551	2.88
244.927	2.91
245.303	3.03
245.679	3.16
246.056	3.2
246.432	3.1
246.808	2.99
247.184	3.02
247.56	2.83
247.936	2.85
248.312	2.89
248.688	2.93
249.064	2.81
249.44	2.68
249.815	2.74
250.191	2.74
250.567	2.61
250.943	2.7
251.318	2.89
251.694	2.88
252.069	2.75
252.445	2.65
252.82	2.62
253.196	2.54
253.571	2.6
253.947	2.78
254.322	3.14
254.697	3.15
255.073	3.21
255.448	3.5
255.823	3.42
256.198	3.41
256.573	3.41
256.948	3.63
257.323	3.71
257.698	3.79
258.073	4.03
258.448	4
258.823	4.09
259.198	4.05
259.573	4.01
259.948	3.89
260.322	3.9
260.697	3.85
261.072	3.72
261.446	3.56
261.821	3.45
262.195	3.45
262.57	3.32
262.944	3.24
263.319	3.08
263.693	3.08
264.067	3.05
264.442	3.09
264.816	2.93
265.19	3.03
265.564	2.91
265.938	2.43
266.313	2.18
266.687	2.12
267.061	2.06
267.435	2.02
267.809	2.16
268.183	2.04
268.556	1.97
268.93	2.2
269.304	2.32
269.678	2.4
270.051	2.26
270.425	2.52
270.799	2.61
271.172	2.85
271.546	2.96
271.919	3.04
272.293	3.1
272.666	3.09
273.04	2.82
273.413	2.85
273.787	3.14
274.16	3.25
274.533	3.33
274.906	3.17
275.279	3.29
275.653	3.51
276.026	3.57
276.399	3.65
276.772	3.59
277.145	3.5
277.518	3.49
277.891	3.51
278.263	3.21
278.636	3.22
279.009	3.04
279.382	3.01
279.755	2.9
280.127	2.79
280.5	2.88
280.872	3.13
281.245	3.07
281.617	3.1
281.99	3.13
282.362	3.05
282.735	3.09
283.107	3.09
283.479	3.01
283.852	3.18
284.224	3.18
284.596	3.18
284.968	3.22
285.34	3.28
285.713	3.19
286.085	3.29
286.457	3.35
286.829	3.42
287.201	3.39
287.572	3.33
287.944	3.27
288.316	3.22
288.688	3.22
289.06	3.26
289.431	3.27
289.803	3.26
290.175	3.18
290.546	3.33
290.918	3.3
291.289	3.23
291.661	3.2
292.032	3.23
292.403	3.15
292.775	3.35
293.146	3.22
293.517	3.25
293.889	3.4
294.26	3.47
294.631	3.47
295.002	3.51
295.373	3.55
295.744	3.61
296.115	3.56
296.486	3.52
296.857	3.52
297.228	3.51
297.599	3.45
297.97	3.48
298.34	3.47
298.711	3.53
299.082	3.58
299.452	3.62
299.823	3.7
300.194	3.78
300.564	3.68
300.935	3.73
301.305	3.83
301.676	3.73
302.046	3.65
302.416	3.66
302.787	3.65
303.157	3.73
303.527	3.74
303.897	3.8
304.267	3.87
304.637	3.78
305.008	3.82
305.378	3.98
305.748	3.96
306.117	3.94
306.487	3.87
306.857	3.74
307.227	3.6
307.597	3.62
307.967	3.69
308.336	3.71
308.706	3.8
309.076	3.81
309.445	3.78
309.815	3.86
310.184	3.75
310.554	3.7
310.923	3.64
311.293	3.62
311.662	3.66
312.031	3.71
312.401	3.79
312.77	3.78
313.139	3.71
313.508	3.77
313.877	3.71
314.246	3.8
314.616	3.91
314.985	3.93
315.353	3.89
315.722	3.82
316.091	3.75
316.46	3.64
316.829	3.7
317.198	3.9
317.567	3.78
317.935	3.81
318.304	3.92
318.672	4.02
319.041	4.15
319.41	4.07
319.778	3.9
320.147	4
320.515	3.97
320.883	4.04
321.252	4.22
321.62	4.35
321.988	4.29
322.357	4.35
322.725	4.46
323.093	4.45
323.461	4.54
323.829	4.5
324.197	4.5
324.565	4.54
324.933	4.45
325.301	4.49
325.669	4.53
326.037	4.54
326.405	4.52
326.772	4.52
327.14	4.6
327.508	4.74
327.875	4.58
328.243	4.6
328.61	4.61
328.978	4.51
329.346	4.52
329.713	4.44
330.08	4.37
330.448	4.22
330.815	4.21
331.182	4.11
331.55	4.19
331.917	4.26
332.284	4.22
332.651	4.15
333.018	4.22
333.385	4.22
333.752	4.24
334.119	4.26
334.486	4.24
334.853	4.28
335.22	4.18
335.587	4.28
335.954	4.34
336.32	4.37
336.687	4.4
337.054	4.34
337.42	4.46
337.787	4.49
338.153	4.55
338.52	4.67
338.886	4.72
339.253	4.63
339.619	4.65
339.986	4.57
340.352	4.64
340.718	4.62
341.084	4.59
341.451	4.6
341.817	4.65
342.183	4.66
342.549	4.66
342.915	4.68
343.281	4.77
343.647	4.67
344.013	4.63
344.379	4.58
344.745	4.63
345.11	4.59
345.476	4.57
345.842	4.57
346.208	4.45
346.573	4.42
346.939	4.52
347.304	4.56
347.67	4.59
348.035	4.6
348.401	4.61
348.766	4.64
349.132	4.65
349.497	4.54
349.862	4.59
350.228	4.65
350.593	4.62
350.958	4.63
351.323	4.67
351.688	4.74
352.053	4.77
352.418	4.8
352.783	4.8
353.148	4.82
353.513	4.83
353.878	4.96
354.243	4.94
354.608	4.98
354.972	4.98
355.337	4.99
355.702	5.06
356.066	5.06
356.431	5.03
356.795	5.03
357.16	5.06
357.524	4.98
357.889	4.88
358.253	4.94
358.618	4.95
358.982	4.91
359.346	4.84
359.71	4.82
360.075	4.84
360.439	4.87
360.803	4.83
361.167	4.83
361.531	4.77
361.895	4.77
362.259	4.72
362.623	4.71
362.987	4.69
363.351	4.67
363.714	4.65
364.078	4.67
364.442	4.66
364.806	4.69
365.169	4.71
365.533	4.76
365.896	4.69
366.26	4.61
366.623	4.65
366.987	4.61
367.35	4.61
367.714	4.63
368.077	4.53
368.44	4.56
368.803	4.53
369.167	4.44
369.53	4.39
369.893	4.42
370.256	4.44
370.619	4.43
370.982	4.31
371.345	4.26
371.708	4.26
372.071	4.21
372.434	4.17
372.797	4.16
373.159	4.13
373.522	4.18
373.885	4.22
374.247	4.21
374.61	4.19
374.973	4.14
375.335	4.07
375.698	4.14
376.06	4.13
376.423	4.18
376.785	4.26
377.147	4.28
377.51	4.25
377.872	4.21
378.234	4.18
378.596	4.26
378.958	4.23
379.321	4.23
379.683	4.25
380.045	4.22
380.407	4.16
380.769	4.14
381.13	4.11
381.492	4.06
381.854	4.04
382.216	4.09
382.578	4.07
382.939	4.04
383.301	3.95
383.663	3.91
384.024	3.81
384.386	3.79
384.747	3.79
385.109	3.78
385.47	3.75
385.832	3.76
386.193	3.74
386.554	3.75
386.916	3.72
387.277	3.7
387.638	3.73
387.999	3.75
388.36	3.74
388.721	3.7
389.082	3.7
389.443	3.68
389.804	3.65
390.165	3.65
390.526	3.66
390.887	3.69
391.248	3.73
391.609	3.77
391.969	3.75
392.33	3.73
392.691	3.74
393.051	3.72
393.412	3.7
393.772	3.65
394.133	3.7
394.493	3.7
394.854	3.66
395.214	3.64
395.574	3.63
395.935	3.63
396.295	3.65
396.655	3.62
397.015	3.6
397.376	3.6
397.736	3.59
398.096	3.56
398.456	3.53
398.816	3.49
399.176	3.45
399.535	3.42
399.895	3.4
400.255	3.38
400.615	3.39
400.975	3.37
401.334	3.37
401.694	3.32
402.054	3.3
402.413	3.31
402.773	3.27
403.132	3.27
403.492	3.28
403.851	3.25
404.211	3.26
404.57	3.27
404.929	3.26
405.288	3.28
405.648	3.28
406.007	3.28
406.366	3.29
406.725	3.29
407.084	3.31
407.443	3.32
407.802	3.32
408.161	3.31
408.52	3.31
408.879	3.32
409.238	3.31
409.596	3.29
409.955	3.31
410.314	3.36
410.673	3.33
411.031	3.34
411.39	3.34
411.748	3.33
412.107	3.35
412.465	3.36
412.824	3.35
413.182	3.33
413.54	3.31
413.899	3.3
414.257	3.32
414.615	3.29
414.974	3.3
415.332	3.29
415.69	3.29
416.048	3.28
416.406	3.29
416.764	3.29
417.122	3.29
417.48	3.25
417.838	3.24
418.195	3.22
418.553	3.2
418.911	3.19
419.269	3.2
419.626	3.19
419.984	3.18
420.342	3.17
420.699	3.16
421.057	3.16
421.414	3.16
421.772	3.16
422.129	3.16
422.486	3.16
422.844	3.15
423.201	3.14
423.558	3.14
423.915	3.12
424.273	3.12
424.63	3.11
424.987	3.12
425.344	3.11
425.701	3.1
426.058	3.11
426.415	3.12
426.772	3.1
427.128	3.09
427.485	3.08
427.842	3.08
428.199	3.09
428.555	3.1
428.912	3.11
429.269	3.09
429.625	3.05
429.982	3.06
430.338	3.06
430.695	3.08
431.051	3.07
431.407	3.08
431.764	3.08
432.12	3.08
432.476	3.08
432.832	3.08
433.189	3.11
433.545	3.08
433.901	3.09
434.257	3.08
434.613	3.09
434.969	3.09
435.325	3.08
435.681	3.09
436.036	3.09
436.392	3.08
436.748	3.07
437.104	3.08
437.459	3.07
437.815	3.07
438.171	3.06
438.526	3.08
438.882	3.07
439.237	3.07
439.593	3.07
439.948	3.06
440.304	3.07
440.659	3.06
441.014	3.08
441.369	3.07
441.725	3.07
442.08	3.06
442.435	3.04
442.79	3.05
443.145	3.02
443.5	3.02
443.855	3.02
444.21	3.04
444.565	3.04
444.92	3.04
445.275	3.03
445.629	3.03
445.984	3.02
446.339	3
446.693	2.99
447.048	3
447.403	3
447.757	2.98
448.112	2.99
448.466	2.96
448.82	2.96
449.175	2.97
449.529	2.99
449.883	3
450.238	3
450.592	3.03
450.946	3.03
451.3	3.04
451.654	3.03
452.008	3.03
452.362	3.02
452.716	3
453.07	3.02
453.424	3.01
453.778	3.01
454.132	3
454.486	3.01
454.839	2.99
455.193	2.98
455.547	2.97
455.9	3
456.254	3
456.607	2.97
456.961	2.97
457.314	2.96
457.668	2.96
458.021	2.95
458.375	2.96
458.728	2.95
459.081	2.96
459.434	2.96
459.787	2.97
460.141	2.98
460.494	2.98
460.847	2.99
461.2	2.99
461.553	2.99
461.906	2.99
462.259	3.01
462.611	3.04
462.964	3.06
463.317	3.04
463.67	3.06
464.022	3.08
464.375	3.07
464.728	3.09
465.08	3.07
465.433	3.09
465.785	3.08
466.138	3.09
466.49	3.1
466.843	3.1
467.195	3.12
467.547	3.12
467.899	3.13
468.252	3.12
468.604	3.13
468.956	3.14
469.308	3.15
469.66	3.13
470.012	3.12
470.364	3.1
470.716	3.13
471.068	3.12
471.42	3.13
471.772	3.14
472.123	3.15
472.475	3.18
472.827	3.16
473.178	3.18
473.53	3.14
473.882	3.14
474.233	3.17
474.585	3.14
474.936	3.16
475.288	3.14
475.639	3.16
475.99	3.14
476.342	3.14
476.693	3.13
477.044	3.15
477.395	3.15
477.746	3.15
478.097	3.14
478.448	3.14
478.8	3.12
479.15	3.11
479.501	3.11
479.852	3.11
480.203	3.12
480.554	3.12
480.905	3.13
481.255	3.13
481.606	3.13
481.957	3.14
482.307	3.15
482.658	3.16
483.009	3.16
483.359	3.17
483.709	3.18
484.06	3.19
484.41	3.18
484.761	3.18
485.111	3.19
485.461	3.2
485.811	3.2
486.162	3.2
486.512	3.21
486.862	3.21
487.212	3.21
487.562	3.22
487.912	3.22
488.262	3.22
488.612	3.23
488.961	3.22
489.311	3.22
489.661	3.21
490.011	3.21
490.36	3.21
490.71	3.21
491.06	3.21
491.409	3.2
491.759	3.22
492.108	3.23
492.458	3.22
492.807	3.2
493.157	3.21
493.506	3.22
493.855	3.22
494.204	3.22
494.554	3.22
494.903	3.22
495.252	3.23
495.601	3.26
495.95	3.26
496.299	3.28
496.648	3.3
496.997	3.33
497.346	3.34
497.695	3.37
498.043	3.39
498.392	3.39
498.741	3.41
499.09	3.4
499.438	3.41
499.787	3.43
500.135	3.47
500.484	3.48
500.832	3.52
501.181	3.53
501.529	3.54
501.878	3.56
502.226	3.57
502.574	3.59
502.923	3.59
503.271	3.6
503.619	3.62
503.967	3.65
504.315	3.65
504.663	3.69
505.011	3.72
505.359	3.74
505.707	3.78
506.055	3.81
506.403	3.87
506.751	3.89
507.098	3.91
507.446	3.93
507.794	3.96
508.141	3.98
508.489	4.04
508.837	4.07
509.184	4.11
509.531	4.15
509.879	4.2
510.226	4.25
510.574	4.28
510.921	4.31
511.268	4.34
511.616	4.41
511.963	4.43
512.31	4.46
512.657	4.49
513.004	4.53
513.351	4.59
513.698	4.62
514.045	4.67
514.392	4.72
514.739	4.78
515.086	4.84
515.432	4.9
515.779	4.94
516.126	4.99
516.473	5.05
516.819	5.1
517.166	5.14
517.512	5.17
517.859	5.23
518.205	5.29
518.552	5.33
518.898	5.36
519.245	5.42
519.591	5.45
519.937	5.5
520.283	5.55
520.629	5.61
520.976	5.67
521.322	5.74
521.668	5.81
522.014	5.89
522.36	5.95
522.706	6.02
523.052	6.12
523.398	6.25
523.743	6.34
524.089	6.44
524.435	6.54
524.781	6.64
525.126	6.74
525.472	6.83
525.817	6.92
526.163	6.99
526.509	7.07
526.854	7.16
527.199	7.23
527.545	7.29
527.89	7.36
528.235	7.44
528.581	7.53
528.926	7.6
529.271	7.68
529.616	7.75
529.961	7.84
530.306	7.93
530.651	8.01
530.996	8.11
531.341	8.21
531.686	8.32
532.031	8.43
532.376	8.53
532.721	8.65
533.065	8.77
533.41	8.9
533.755	9.04
534.099	9.18
534.444	9.33
534.788	9.49
535.133	9.64
535.477	9.79
535.822	9.96
536.166	10.14
536.51	10.31
536.855	10.52
537.199	10.72
537.543	10.95
537.887	11.16
538.231	11.35
538.576	11.58
538.92	11.82
539.264	12.03
539.608	12.26
539.951	12.48
540.295	12.68
540.639	12.9
540.983	13.09
541.327	13.28
541.671	13.47
542.014	13.64
542.358	13.82
542.701	14
543.045	14.18
543.389	14.38
543.732	14.58
544.075	14.78
544.419	15
544.762	15.2
545.105	15.43
545.449	15.71
545.792	15.95
546.135	16.2
546.478	16.47
546.821	16.74
547.165	17.03
547.508	17.32
547.851	17.6
548.194	17.88
548.536	18.2
548.879	18.5
549.222	18.82
549.565	19.11
549.908	19.44
550.25	19.74
550.593	20.06
550.936	20.38
551.278	20.74
551.621	21.08
551.963	21.39
552.306	21.7
552.648	22.02
552.991	22.36
553.333	22.65
553.675	22.95
554.017	23.29
554.36	23.58
554.702	23.86
555.044	24.13
555.386	24.43
555.728	24.73
556.07	25.05
556.412	25.37
556.754	25.72
557.096	26.05
557.438	26.35
557.78	26.63
558.121	26.97
558.463	27.27
558.805	27.57
559.147	27.9
559.488	28.22
559.83	28.49
560.171	28.78
560.513	29.07
560.854	29.35
561.196	29.61
561.537	29.89
561.878	30.16
562.22	30.48
562.561	30.76
562.902	31.03
563.243	31.31
563.584	31.55
563.925	31.81
564.266	32.03
564.607	32.28
564.948	32.58
565.289	32.82
565.63	33.03
565.971	33.27
566.312	33.47
566.653	33.73
566.993	33.97
567.334	34.18
567.675	34.42
568.015	34.7
568.356	34.94
568.696	35.19
569.037	35.48
569.377	35.72
569.718	35.92
570.058	36.15
570.398	36.39
570.739	36.63
571.079	36.83
571.419	37.1
571.759	37.37
572.099	37.58
572.439	37.78
572.779	37.99
573.119	38.14
573.459	38.34
573.799	38.54
574.139	38.76
574.479	38.99
574.819	39.19
575.158	39.36
575.498	39.5
575.838	39.7
576.177	39.85
576.517	40.06
576.856	40.32
577.196	40.46
577.535	40.67
577.875	40.86
578.214	41.08
578.553	41.24
578.893	41.41
579.232	41.61
579.571	41.79
579.91	42.01
580.25	42.28
580.589	42.57
580.928	42.74
581.267	42.87
581.606	43.01
581.945	43.12
582.283	43.28
582.622	43.56
582.961	43.75
583.3	43.91
583.639	44.11
583.977	44.25
584.316	44.53
584.654	44.64
584.993	44.78
585.332	44.94
585.67	45.14
586.008	45.26
586.347	45.35
586.685	45.48
587.024	45.55
587.362	45.65
587.7	45.73
588.038	45.84
588.376	45.93
588.715	46.09
589.053	46.28
589.391	46.41
589.729	46.46
590.067	46.52
590.404	46.7
590.742	46.8
591.08	46.91
591.418	46.95
591.756	47.06
592.093	47.17
592.431	47.27
592.769	47.41
593.106	47.58
593.444	47.68
593.781	47.83
594.119	47.94
594.456	48.03
594.793	48.19
595.131	48.26
595.468	48.42
595.805	48.52
596.143	48.6
596.48	48.76
596.817	48.8
597.154	48.89
597.491	48.9
597.828	48.96
598.165	49.01
598.502	49.13
598.839	49.23
599.176	49.42
599.512	49.52
599.849	49.57
600.186	49.67
600.523	49.82
600.859	49.94
601.196	50.04
601.532	50.16
601.869	50.18
602.205	50.3
602.542	50.41
602.878	50.51
603.215	50.58
603.551	50.59
603.887	50.76
604.223	50.78
604.56	50.91
604.896	50.91
605.232	51
605.568	51.08
605.904	51.13
606.24	51.14
606.576	51.23
606.912	51.28
607.248	51.34
607.583	51.4
607.919	51.5
608.255	51.6
608.591	51.65
608.926	51.8
609.262	51.84
609.597	51.89
609.933	51.9
610.268	52
610.604	52.1
610.939	52.14
611.275	52.29
611.61	52.34
611.945	52.5
612.281	52.56
612.616	52.64
612.951	52.78
613.286	52.85
613.621	52.98
613.956	53.06
614.291	53.07
614.626	53.12
614.961	53.2
615.296	53.31
615.631	53.42
615.966	53.39
616.3	53.49
616.635	53.56
616.97	53.66
617.304	53.65
617.639	53.77
617.973	53.81
618.308	53.81
618.642	53.91
618.977	53.92
619.311	54.04
619.646	54.06
619.98	54.19
620.314	54.24
620.648	54.25
620.983	54.34
621.317	54.47
621.651	54.47
621.985	54.44
622.319	54.45
622.653	54.51
622.987	54.64
623.321	54.77
623.655	54.8
623.988	54.89
624.322	55
624.656	55.02
624.99	55.07
625.323	55.12
625.657	55.21
625.99	55.2
626.324	55.15
626.657	55.25
626.991	55.17
627.324	55.2
627.658	55.21
627.991	55.25
628.324	55.32
628.657	55.44
628.991	55.51
629.324	55.59
629.657	55.6
629.99	55.61
630.323	55.57
630.656	55.65
630.989	55.71
631.322	55.74
631.655	55.82
631.987	55.84
632.32	55.94
632.653	55.89
632.986	56.09
633.318	56.13
633.651	56.19
633.984	56.26
634.316	56.32
634.649	56.33
634.981	56.36
635.313	56.38
635.646	56.49
635.978	56.56
636.31	56.62
636.643	56.67
636.975	56.73
637.307	56.83
637.639	56.91
637.971	56.83
638.303	56.87
638.635	56.89
638.967	56.95
639.299	56.89
639.631	56.94
639.963	56.85
640.295	56.82
640.626	56.77
640.958	56.79
641.29	56.87
641.621	57.08
641.953	57.14
642.285	57.21
642.616	57.24
642.948	57.23
643.279	57.23
643.61	57.29
643.942	57.38
644.273	57.4
644.604	57.43
644.936	57.53
645.267	57.62
645.598	57.6
645.929	57.71
646.26	57.84
646.591	57.93
646.922	58.09
647.253	58.17
647.584	58.38
647.915	58.42
648.245	58.46
648.576	58.4
648.907	58.47
649.238	58.43
649.568	58.33
649.899	58.55
650.229	58.53
650.56	58.59
650.89	58.55
651.221	58.55
651.551	58.59
651.882	58.62
652.212	58.51
652.542	58.56
652.872	58.52
653.203	58.47
653.533	58.45
653.863	58.38
654.193	58.41
654.523	58.38
654.853	58.36
655.183	58.38
655.513	58.26
655.843	58.28
656.172	58.3
656.502	58.39
656.832	58.2
657.162	58.2
657.491	58.2
657.821	58.21
658.15	58.3
658.48	58.23
658.809	58.23
659.139	58.28
659.468	58.35
659.798	58.47
660.127	58.54
660.456	58.55
660.785	58.57
661.115	58.56
661.444	58.59
661.773	58.66
662.102	58.6
662.431	58.79
662.76	58.79
663.089	58.99
663.418	59.02
663.747	59.15
664.076	59.17
664.404	59.27
664.733	59.34
665.062	59.33
665.39	59.42
665.719	59.49
666.048	59.71
666.376	59.63
666.705	59.53
667.033	59.56
667.362	59.58
667.69	59.67
668.018	59.73
668.347	59.69
668.675	59.71
669.003	59.85
669.331	59.92
669.659	59.99
669.987	59.9
670.315	60
670.643	59.98
670.971	60.06
671.299	60.1
671.627	60.12
671.955	60.15
672.283	60.18
672.61	60.23
672.938	60.17
673.266	60.1
673.593	60.19
673.921	60.18
674.249	60.26
674.576	60.25
674.904	60.46
675.231	60.44
675.558	60.5
675.886	60.53
676.213	60.5
676.54	60.51
676.867	60.52
677.195	60.55
677.522	60.66
677.849	60.77
678.176	60.72
678.503	60.68
678.83	60.7
679.157	60.77
679.484	60.66
679.81	60.55
680.137	60.68
680.464	60.65
680.791	60.79
681.117	60.88
681.444	61.02
681.771	60.83
682.097	60.87
682.424	60.79
682.75	60.8
683.077	60.7
683.403	60.74
683.729	60.83
684.056	60.84
684.382	60.81
684.708	60.69
685.034	60.78
685.36	60.91
685.686	60.91
686.012	60.83
686.339	61
686.664	61.17
686.99	61.14
687.316	61.16
687.642	61.21
687.968	61.21
688.294	61.09
688.619	61.17
688.945	61.28
689.271	61.39
689.596	61.42
689.922	61.56
690.247	61.45
690.573	61.41
690.898	61.38
691.224	61.39
691.549	61.49
691.874	61.44
692.2	61.38
692.525	61.43
692.85	61.53
693.175	61.56
693.5	61.47
693.825	61.6
694.15	61.54
694.475	61.32
694.8	61.24
695.125	61.1
695.45	61.09
695.775	60.93
696.099	60.93
696.424	60.93
696.749	61
697.073	61.11
697.398	61.15
697.723	61.12
698.047	61.21
698.372	61.06
698.696	61.3
699.02	61.31
699.345	61.23
699.669	61.15
699.993	61.01
700.318	61.06
700.642	61.06
700.966	61.17
701.29	61.3
701.614	61.21
701.938	61.36
702.262	61.35
702.586	61.4
702.91	61.37
703.234	61.5
703.557	61.58
703.881	61.47
704.205	61.29
704.529	61.03
704.852	61.07
705.176	61.29
705.499	61.03
705.823	61.1
706.146	61.3
706.47	61.31
706.793	61.35
707.117	61.26
707.44	61.18
707.763	61.21
708.086	61.04
708.409	61.07
708.733	61.18
709.056	61.28
709.379	61.49
709.702	61.53
710.025	61.24
710.348	61.13
710.671	61.19
710.993	61.32
711.316	61.59
711.639	61.56
711.962	61.52
712.284	61.66
712.607	61.67
712.93	61.65
713.252	61.77
713.575	61.81
713.897	62.01
714.22	62.2
714.542	62.18
714.864	62.33
715.187	62.68
715.509	62.51
715.831	62.67
716.153	62.5
716.475	62.6
716.798	62.77
717.12	62.78
717.442	62.82
717.764	62.71
718.085	62.68
718.407	62.67
718.729	62.69
719.051	62.4
719.373	62.2
719.695	61.99
720.016	62.04
720.338	62
720.659	61.87
720.981	61.67
721.302	61.71
721.624	61.91
721.945	61.55
722.267	61.77
722.588	61.58
722.909	61.89
723.231	61.87
723.552	61.86
723.873	61.84
724.194	61.76
724.515	61.78
724.836	61.96
725.157	61.96
725.478	62.09
725.799	62.21
726.12	62.33
726.441	62.43
726.762	62.46
727.083	62.54
727.403	62.52
727.724	62.43
728.045	62.58
728.365	62.41
728.686	62.68
729.006	62.37
729.327	62.62
729.647	62.5
729.967	62.5
730.288	62.66
730.608	62.69
730.928	62.81
731.249	63.1
731.569	63.03
731.889	63.05
732.209	63.08
732.529	63.25
732.849	63.3
733.169	63.32
733.489	63.09
733.809	63.28
734.129	63.22
734.448	63.44
734.768	63.16
735.088	63.17
735.408	62.96
735.727	63.4
736.047	63.03
736.366	62.82
736.686	62.94
737.005	62.88
737.325	62.95
737.644	62.94
737.963	62.67
738.283	62.75
738.602	62.59
738.921	62.55
739.24	62.7
739.56	62.62
739.879	62.66
740.198	62.77
740.517	62.91
740.836	63.2
741.155	63.16
741.473	63.61
741.792	63.52
742.111	63.76
742.43	63.6
742.748	63.96
743.067	64.32
743.386	64.26
743.704	64.41
744.023	64.27
744.341	64.32
744.66	64.53
744.978	64.3
745.297	64.21
745.615	64.36
745.933	64.16
746.252	64.53
746.57	64.86
746.888	64.93
747.206	64.71
747.524	64.68
747.842	64.78
748.16	64.47
748.478	64.27
748.796	64.37
749.114	64.46
749.432	64.61
749.749	64.47
750.067	64.51
750.385	64.3
750.703	64.6
751.02	64.36
751.338	64.41
751.655	64.42
751.973	64.47
752.29	64.4
752.608	64.44
752.925	64.28
753.242	64.09
753.56	64.13
753.877	64.16
754.194	64.1
754.511	63.97
754.828	63.86
755.145	64.34
755.462	64.39
755.779	64.04
756.096	63.93
756.413	64.09
756.73	63.89
757.047	63.57
757.364	63.46
757.68	63.89
757.997	63.67
758.314	63.73
758.63	63.86
758.947	63.89
759.264	63.87
759.58	63.72
759.896	63.64
760.213	63.4
760.529	63.59
760.846	63.61
761.162	63.32
761.478	63.53
761.794	63.21
762.11	62.74
762.426	63.12
762.743	63.04
763.059	63.04
763.375	63.11
763.69	63.48
764.006	63.8
764.322	63.52
764.638	63.75
764.954	63.85
765.27	63.91
765.585	63.96
765.901	64.15
766.216	64.31
766.532	64.49
766.848	64.6
767.163	64.43
767.478	64.59
767.794	64.92
768.109	64.74
768.424	65.13
768.74	65.32
769.055	65.16
769.37	65.29
769.685	65.11
770	65.3
770.315	64.98
770.63	64.7
770.945	65.08
771.26	64.92
771.575	64.81
771.89	64.79
772.205	64.51
772.52	64.04
772.834	63.92
773.149	63.58
773.464	63.81
773.778	63.97
774.093	63.76
774.407	63.96
774.722	64.42
775.036	64.39
775.351	64.67
775.665	64.59
775.979	64.09
776.293	64.18
776.608	64.17
776.922	64.35
777.236	64.38
777.55	64.17
777.864	64.33
778.178	64.47
778.492	64.39
778.806	64.08
779.12	64.15
779.434	64.13
779.747	64.29
780.061	63.85
780.375	63.74
780.689	63.77
781.002	63.54
781.316	63.18
781.629	63.08
781.943	62.61
782.256	62.71
782.57	63.17
782.883	63.01
783.196	62.46
783.51	62.43
783.823	62.35
784.136	62.9
784.449	63.18
784.762	63.42
785.075	63.82
785.388	64.11
785.701	64.12
786.014	64.22
786.327	64.84
786.64	65.49
786.953	65.49
787.266	65.05
787.578	65.24
787.891	65.25
788.204	64.66
788.516	65.03
788.829	65.06
789.141	65.35
789.454	65.95
789.766	66.35
790.079	66.46
790.391	66.39
790.703	66.55
791.016	65.99
791.328	65.97
791.64	65.81
791.952	65.72
792.264	65.58
792.576	65.05
792.888	64.62
793.2	64.29
793.512	64
793.824	64.44
794.136	64.5
794.448	64.24
794.76	64.84
795.071	64.72
795.383	64.67
795.695	64.16
796.006	63.56
796.318	63.84
796.629	63.62
796.941	63.2
797.252	62.21
797.564	62.01
797.875	61.58
798.186	61.21
798.497	60.87
798.809	60.72
799.12	61.01
799.431	61
799.742	60.62
800.053	60.51
800.364	60.58
800.675	60.17
800.986	60.66
801.297	60.29
801.608	60.26
801.918	60.38
802.229	61.13
802.54	61.07
802.851	61.24
803.161	61.59
803.472	61.48
803.782	62.2
804.093	62
804.403	62.07
804.714	62.59
805.024	63.49
805.334	63.82
805.645	63.7
805.955	63.58
806.265	64.36
806.575	64.81
806.885	64.43
807.195	64.03
807.505	63.6
807.815	64.18
808.125	64.69
808.435	64.99
808.745	64.14
809.055	64.53
809.365	63.81
809.674	63.35
809.984	63.73
810.294	62.75
810.603	62.9
810.913	63.72
811.222	63.61
811.532	62.85
811.841	62.87
812.151	63.15
812.46	63.18
812.769	62.6
813.079	62.22
813.388	61.51
813.697	61.88
814.006	61.46
814.315	61.2
814.624	60.59
814.933	60
815.242	60.47
815.551	60.54
815.86	61.2
816.169	61.66
816.478	61.69
816.786	61.99
817.095	62.5
817.404	62.52
817.712	62.4
818.021	63.87
818.33	64.77
818.638	65.04
818.947	64.93
819.255	65.1
819.563	65.43
819.872	66.05
820.18	66.62
820.488	66.75
820.796	66.35
821.105	66.57
821.413	67.14
821.721	66.96
822.029	66.73
822.337	66.64
822.645	66.52
822.953	66.4
823.26	66.47
823.568	66.3
823.876	66.23
824.184	66.18
824.491	65.78
824.799	65.48
825.107	65.38
825.414	65.62
825.722	65.76
826.029	65.73
826.337	65.68
826.644	65.31
826.951	65.28
827.259	65.63
827.566	65.26
827.873	64.5
828.18	64.45
828.488	64.39
828.795	64.31
829.102	64.07
829.409	64.02
829.716	63.89
830.023	63.96
830.329	63.93
830.636	64.03
830.943	64.2
831.25	64.55
831.557	64.87
831.863	64.52
832.17	63.98
832.476	64.21
832.783	64.5
833.089	64.59
833.396	64.82
833.702	64.53
834.009	64.59
834.315	65.32
834.621	65.09
834.928	65.2
835.234	64.91
835.54	65.36
835.846	65.52
836.152	65.93
836.458	66.14
836.764	65.71
837.07	65.69
837.376	65.95
837.682	65.53
837.988	65.03
838.293	64.59
838.599	65.12
838.905	65.01
839.211	64.48
839.516	64.52
839.822	63.99
840.127	63.84
840.433	64.89
840.738	64.22
841.044	64.23
841.349	64.33
841.654	64.44
841.959	64.2
842.265	63.99
842.57	63.38
842.875	62.51
843.18	62.87
843.485	62.67
843.79	63.04
844.095	62.38
844.4	61.93
844.705	62.47
845.01	61.87
845.315	60.12
845.619	60.43
845.924	61.33
846.229	61.29
846.533	61.01
846.838	59.77
847.142	60.07
847.447	60.6
847.751	59.46
848.056	58.64
848.36	59.34
848.664	58.48
848.969	59.66
849.273	59.92
849.577	57.74
849.881	57.03
850.185	55.03
850.489	57.96
850.794	59.77
851.097	59.1
851.401	57.99
851.705	60.82
852.009	60.84
852.313	60.87
852.617	61.02
852.92	62.07
853.224	60.66
853.528	59.97
853.831	59.17
854.135	61.06
854.438	61.67
854.742	62.33
855.045	63.38
855.349	60.78
855.652	61.4
855.955	63.49
856.259	63.59
856.562	64.94
856.865	63.6
857.168	63.04
857.471	63.99
857.774	64.78
858.077	63.52
858.38	63.83
858.683	63.9
858.986	64.4
859.289	62.7
859.592	65.65
859.894	65.5
860.197	66.32
860.5	65.41
860.802	66.48
861.105	64.26
861.407	67.65
861.71	68.76
862.012	69.15
862.315	68.84
862.617	68.7
862.919	66.06
863.222	65.06
863.524	65.14
863.826	63.28
864.128	62.47
864.43	62.9
864.732	61.84
865.034	59.7
865.336	57.08
865.638	56.72
865.94	54.29
866.242	56.73
866.544	57.24
866.846	58.31
867.147	56.97
867.449	58.5
867.751	56.35
868.052	55.43
868.354	54.15
868.655	54.58
868.957	55.07
869.258	56.4
869.56	56.17
869.861	55.63
870.162	56.61
870.463	59.43
870.765	58.45
871.066	57.47
871.367	57.05
871.668	57.56
871.969	57.86
872.27	58.21
872.571	55.79
872.872	54.07
873.173	52.02
873.473	50.25
873.774	48.5
874.075	49.83
874.376	50.43
874.676	50.54
874.977	49.55
875.277	50.54
875.578	51.19
875.878	51.3
876.179	50.92
876.479	50.54
876.78	48.57
877.08	47.56
877.38	48.44
877.68	49.03
877.981	50.67
878.281	51.18
878.581	51.89
