Data from BA28472_Reflection_00002.txt Node
Date: Mon Nov 18 15:24:10 EST 2019
User: vgr7
Spectrometer: USB2G7710
Scans to average: 3
Trigger mode: 4
Integration Time (sec): 2.000000E-2
Electric dark correction enabled: true
Boxcar width: 10
XAxis mode: Wavelengths
Number of Pixels in Spectrum: 2048
>>>>>Begin Spectral Data<<<<<
177.721	-168
178.105	-88.5
178.488	-12.49
178.871	-5.86
179.254	-19.74
179.636	-371.96
180.019	-1354.55
180.402	146.15
180.785	-20.58
181.168	273.47
181.55	4.19
181.933	117.3
182.316	131.4
182.698	81.81
183.081	49.66
183.463	35.78
183.846	52.29
184.228	-2.29
184.611	12.07
184.993	-23.47
185.376	-39.83
185.758	-31.04
186.14	-10.08
186.522	-3.46
186.904	-13.78
187.287	-13.67
187.669	-11.06
188.051	32.64
188.433	14.46
188.815	4.04
189.197	-21.02
189.579	3.81
189.961	-20.7
190.342	-4.61
190.724	-3.95
191.106	-36.29
191.488	-24.07
191.869	38.96
192.251	-59.41
192.633	-47.55
193.014	-192.73
193.396	-209.02
193.777	-173.73
194.159	-239.85
194.54	-198.8
194.922	-132.11
195.303	-178.72
195.684	-119.5
196.065	-116.88
196.447	-81.16
196.828	-98.01
197.209	-122
197.59	-118.7
197.971	-101.26
198.352	-57
198.733	-67.12
199.114	-91.64
199.495	-84.79
199.876	-116.22
200.257	-203.3
200.638	-148.65
201.018	-132.04
201.399	-133.36
201.78	-70.49
202.16	-74.88
202.541	-106.04
202.922	-159.41
203.302	-119.3
203.683	-78.11
204.063	-69.24
204.444	-76.59
204.824	-101.08
205.204	-59.19
205.585	-58.76
205.965	-57.54
206.345	-83.52
206.725	-56.91
207.106	-64.97
207.486	-116.5
207.866	-86.15
208.246	-47.95
208.626	-84.29
209.006	-34.6
209.386	-121.76
209.766	-227.39
210.145	-182.96
210.525	-189.93
210.905	-88.68
211.285	-154.55
211.664	-203.34
212.044	117.02
212.424	-185.71
212.803	-167.05
213.183	-202.69
213.562	-835.96
213.942	2209.59
214.321	-350.63
214.701	-628.36
215.08	-584.93
215.459	-305.75
215.838	-222.93
216.218	-98.54
216.597	-54.85
216.976	-53.33
217.355	-16.62
217.734	-27.74
218.113	-48.23
218.492	-4.22
218.871	-24.38
219.25	-5.26
219.629	-24.81
220.008	-42.38
220.387	-43.6
220.766	1.61
221.144	8.22
221.523	9.6
221.902	-2.2
222.28	-14.84
222.659	1.33
223.037	15.95
223.416	-5.94
223.794	-29.6
224.173	-54.84
224.551	-40.18
224.929	-36.54
225.308	-28.2
225.686	-23.73
226.064	-19.49
226.442	-17.7
226.821	-12.17
227.199	-8.22
227.577	-8.48
227.955	-4.76
228.333	-6.01
228.711	-7.68
229.089	-5.39
229.467	-8.79
229.845	-6.73
230.222	-4.4
230.6	-4.74
230.978	-5.85
231.356	-1.97
231.733	-0.93
232.111	-0.1
232.488	-0.22
232.866	0.14
233.243	-1.7
233.621	0.14
233.998	0.14
234.376	0.16
234.753	0.1
235.13	-0.05
235.508	0.42
235.885	-1.07
236.262	-1.97
236.639	0.53
237.016	0.76
237.393	3.24
237.77	3.92
238.147	4.07
238.524	4.32
238.901	4.13
239.278	4.24
239.655	5.43
240.032	5.95
240.409	6.5
240.785	6.58
241.162	6.64
241.539	5.71
241.915	6.11
242.292	5.79
242.668	5.62
243.045	5.59
243.421	5.39
243.798	5.29
244.174	5.59
244.551	5.37
244.927	5.05
245.303	5.17
245.679	4.95
246.056	4.73
246.432	4.65
246.808	4.94
247.184	4.77
247.56	4.3
247.936	4.22
248.312	3.98
248.688	4.08
249.064	4.14
249.44	4.38
249.815	4.13
250.191	4.09
250.567	4.1
250.943	3.89
251.318	4.15
251.694	4.17
252.069	4.02
252.445	4.01
252.82	4.35
253.196	3.83
253.571	3.78
253.947	3.84
254.322	4.09
254.697	3.64
255.073	3.52
255.448	3.89
255.823	3.82
256.198	3.89
256.573	3.81
256.948	3.92
257.323	4.09
257.698	4.35
258.073	4.47
258.448	4.41
258.823	4.55
259.198	4.37
259.573	4.24
259.948	4.31
260.322	4.18
260.697	4.1
261.072	4.09
261.446	4.19
261.821	4.25
262.195	4.29
262.57	4.36
262.944	4.54
263.319	4.45
263.693	4.44
264.067	4.49
264.442	4.47
264.816	4.43
265.19	4.43
265.564	4.25
265.938	4.15
266.313	4.24
266.687	4.25
267.061	4.31
267.435	4.5
267.809	4.41
268.183	4.53
268.556	4.37
268.93	4.53
269.304	4.45
269.678	4.52
270.051	4.46
270.425	4.45
270.799	4.26
271.172	4.37
271.546	4.29
271.919	4.07
272.293	4.12
272.666	4.2
273.04	4.09
273.413	4.14
273.787	4.03
274.16	4.05
274.533	3.84
274.906	3.7
275.279	3.69
275.653	3.59
276.026	3.62
276.399	3.61
276.772	3.79
277.145	3.75
277.518	3.71
277.891	3.71
278.263	3.8
278.636	3.79
279.009	3.88
279.382	4.02
279.755	4.01
280.127	4.28
280.5	4.21
280.872	4.37
281.245	4.23
281.617	4.41
281.99	4.35
282.362	4.53
282.735	4.58
283.107	4.62
283.479	4.73
283.852	4.64
284.224	4.68
284.596	4.46
284.968	4.49
285.34	4.42
285.713	4.34
286.085	4.36
286.457	4.46
286.829	4.37
287.201	4.31
287.572	4.56
287.944	4.32
288.316	4.43
288.688	4.33
289.06	4.36
289.431	4.24
289.803	4.27
290.175	4.21
290.546	4.32
290.918	4.17
291.289	4.2
291.661	4.16
292.032	4.21
292.403	4.23
292.775	4.27
293.146	4.27
293.517	4.33
293.889	4.33
294.26	4.38
294.631	4.36
295.002	4.34
295.373	4.21
295.744	4.2
296.115	4.23
296.486	4.1
296.857	4.13
297.228	4.27
297.599	4.23
297.97	4.32
298.34	4.32
298.711	4.41
299.082	4.39
299.452	4.39
299.823	4.49
300.194	4.54
300.564	4.5
300.935	4.6
301.305	4.62
301.676	4.72
302.046	4.63
302.416	4.85
302.787	4.79
303.157	4.81
303.527	4.88
303.897	4.8
304.267	5.12
304.637	5.1
305.008	5.04
305.378	5.06
305.748	5
306.117	4.93
306.487	4.9
306.857	4.93
307.227	4.94
307.597	4.81
307.967	4.72
308.336	4.74
308.706	4.65
309.076	4.66
309.445	4.45
309.815	4.4
310.184	4.28
310.554	4.36
310.923	4.39
311.293	4.32
311.662	4.25
312.031	4.11
312.401	4.16
312.77	4.22
313.139	4.34
313.508	4.35
313.877	4.23
314.246	4.26
314.616	4.1
314.985	4.09
315.353	4.05
315.722	4.2
316.091	4.16
316.46	4.1
316.829	4.08
317.198	4.15
317.567	4.18
317.935	4.06
318.304	4.05
318.672	3.93
319.041	4.06
319.41	4.22
319.778	4.14
320.147	4.08
320.515	3.93
320.883	3.85
321.252	3.9
321.62	3.93
321.988	4.06
322.357	4.12
322.725	4.19
323.093	4.13
323.461	4.03
323.829	4.14
324.197	4.15
324.565	4.13
324.933	4.13
325.301	4.23
325.669	4.27
326.037	4.19
326.405	4.24
326.772	4.15
327.14	4.15
327.508	4.24
327.875	4.16
328.243	4.35
328.61	4.4
328.978	4.22
329.346	4.33
329.713	4.09
330.08	4.1
330.448	3.96
330.815	3.93
331.182	3.93
331.55	3.79
331.917	3.9
332.284	3.86
332.651	3.79
333.018	3.67
333.385	3.62
333.752	3.88
334.119	3.94
334.486	3.87
334.853	3.8
335.22	3.69
335.587	3.78
335.954	3.63
336.32	3.57
336.687	3.84
337.054	3.9
337.42	4.02
337.787	4.11
338.153	4.27
338.52	4.3
338.886	4.31
339.253	4.27
339.619	4.25
339.986	4.26
340.352	4.32
340.718	4.43
341.084	4.52
341.451	4.45
341.817	4.42
342.183	4.53
342.549	4.51
342.915	4.55
343.281	4.51
343.647	4.55
344.013	4.5
344.379	4.42
344.745	4.37
345.11	4.4
345.476	4.39
345.842	4.38
346.208	4.47
346.573	4.56
346.939	4.63
347.304	4.67
347.67	4.61
348.035	4.62
348.401	4.56
348.766	4.53
349.132	4.51
349.497	4.52
349.862	4.54
350.228	4.56
350.593	4.6
350.958	4.69
351.323	4.73
351.688	4.76
352.053	4.73
352.418	4.72
352.783	4.7
353.148	4.68
353.513	4.6
353.878	4.59
354.243	4.54
354.608	4.54
354.972	4.48
355.337	4.54
355.702	4.52
356.066	4.53
356.431	4.47
356.795	4.54
357.16	4.48
357.524	4.4
357.889	4.44
358.253	4.4
358.618	4.4
358.982	4.38
359.346	4.35
359.71	4.34
360.075	4.35
360.439	4.33
360.803	4.36
361.167	4.36
361.531	4.36
361.895	4.36
362.259	4.33
362.623	4.35
362.987	4.35
363.351	4.39
363.714	4.39
364.078	4.33
364.442	4.28
364.806	4.32
365.169	4.35
365.533	4.37
365.896	4.39
366.26	4.37
366.623	4.38
366.987	4.4
367.35	4.46
367.714	4.47
368.077	4.46
368.44	4.45
368.803	4.48
369.167	4.37
369.53	4.36
369.893	4.38
370.256	4.35
370.619	4.39
370.982	4.34
371.345	4.3
371.708	4.37
372.071	4.35
372.434	4.34
372.797	4.36
373.159	4.31
373.522	4.38
373.885	4.4
374.247	4.35
374.61	4.39
374.973	4.35
375.335	4.37
375.698	4.42
376.06	4.42
376.423	4.42
376.785	4.53
377.147	4.62
377.51	4.62
377.872	4.67
378.234	4.66
378.596	4.67
378.958	4.67
379.321	4.75
379.683	4.71
380.045	4.66
380.407	4.62
380.769	4.6
381.13	4.56
381.492	4.53
381.854	4.53
382.216	4.49
382.578	4.49
382.939	4.46
383.301	4.43
383.663	4.42
384.024	4.41
384.386	4.42
384.747	4.37
385.109	4.42
385.47	4.41
385.832	4.37
386.193	4.35
386.554	4.39
386.916	4.35
387.277	4.38
387.638	4.41
387.999	4.42
388.36	4.44
388.721	4.45
389.082	4.46
389.443	4.44
389.804	4.43
390.165	4.45
390.526	4.45
390.887	4.44
391.248	4.42
391.609	4.43
391.969	4.42
392.33	4.42
392.691	4.39
393.051	4.38
393.412	4.43
393.772	4.42
394.133	4.42
394.493	4.42
394.854	4.38
395.214	4.39
395.574	4.43
395.935	4.41
396.295	4.45
396.655	4.42
397.015	4.44
397.376	4.47
397.736	4.46
398.096	4.49
398.456	4.53
398.816	4.54
399.176	4.55
399.535	4.51
399.895	4.5
400.255	4.5
400.615	4.55
400.975	4.55
401.334	4.53
401.694	4.51
402.054	4.5
402.413	4.56
402.773	4.54
403.132	4.51
403.492	4.53
403.851	4.49
404.211	4.52
404.57	4.53
404.929	4.52
405.288	4.52
405.648	4.51
406.007	4.49
406.366	4.48
406.725	4.49
407.084	4.53
407.443	4.53
407.802	4.52
408.161	4.46
408.52	4.43
408.879	4.46
409.238	4.5
409.596	4.52
409.955	4.5
410.314	4.52
410.673	4.49
411.031	4.44
411.39	4.45
411.748	4.46
412.107	4.45
412.465	4.43
412.824	4.42
413.182	4.42
413.54	4.41
413.899	4.41
414.257	4.39
414.615	4.36
414.974	4.37
415.332	4.37
415.69	4.4
416.048	4.42
416.406	4.44
416.764	4.42
417.122	4.41
417.48	4.41
417.838	4.43
418.195	4.44
418.553	4.44
418.911	4.42
419.269	4.43
419.626	4.43
419.984	4.45
420.342	4.46
420.699	4.46
421.057	4.46
421.414	4.45
421.772	4.45
422.129	4.46
422.486	4.45
422.844	4.45
423.201	4.43
423.558	4.42
423.915	4.42
424.273	4.43
424.63	4.42
424.987	4.42
425.344	4.42
425.701	4.42
426.058	4.43
426.415	4.44
426.772	4.45
427.128	4.46
427.485	4.45
427.842	4.44
428.199	4.46
428.555	4.47
428.912	4.5
429.269	4.52
429.625	4.48
429.982	4.51
430.338	4.51
430.695	4.53
431.051	4.52
431.407	4.52
431.764	4.51
432.12	4.51
432.476	4.5
432.832	4.48
433.189	4.48
433.545	4.47
433.901	4.47
434.257	4.44
434.613	4.45
434.969	4.44
435.325	4.43
435.681	4.42
436.036	4.42
436.392	4.39
436.748	4.36
437.104	4.36
437.459	4.35
437.815	4.35
438.171	4.34
438.526	4.35
438.882	4.36
439.237	4.37
439.593	4.36
439.948	4.35
440.304	4.35
440.659	4.36
441.014	4.37
441.369	4.37
441.725	4.37
442.08	4.37
442.435	4.37
442.79	4.37
443.145	4.37
443.5	4.37
443.855	4.39
444.21	4.39
444.565	4.41
444.92	4.42
445.275	4.42
445.629	4.41
445.984	4.4
446.339	4.4
446.693	4.38
447.048	4.39
447.403	4.39
447.757	4.39
448.112	4.38
448.466	4.38
448.82	4.37
449.175	4.36
449.529	4.38
449.883	4.37
450.238	4.36
450.592	4.37
450.946	4.34
451.3	4.33
451.654	4.34
452.008	4.33
452.362	4.32
452.716	4.31
453.07	4.32
453.424	4.34
453.778	4.32
454.132	4.34
454.486	4.34
454.839	4.35
455.193	4.35
455.547	4.37
455.9	4.4
456.254	4.41
456.607	4.41
456.961	4.39
457.314	4.42
457.668	4.43
458.021	4.41
458.375	4.42
458.728	4.43
459.081	4.43
459.434	4.45
459.787	4.45
460.141	4.46
460.494	4.46
460.847	4.47
461.2	4.46
461.553	4.46
461.906	4.45
462.259	4.44
462.611	4.47
462.964	4.46
463.317	4.44
463.67	4.44
464.022	4.45
464.375	4.44
464.728	4.42
465.08	4.41
465.433	4.42
465.785	4.44
466.138	4.42
466.49	4.42
466.843	4.41
467.195	4.4
467.547	4.4
467.899	4.39
468.252	4.36
468.604	4.4
468.956	4.39
469.308	4.41
469.66	4.41
470.012	4.39
470.364	4.41
470.716	4.43
471.068	4.43
471.42	4.44
471.772	4.46
472.123	4.48
472.475	4.48
472.827	4.48
473.178	4.45
473.53	4.47
473.882	4.48
474.233	4.49
474.585	4.51
474.936	4.52
475.288	4.53
475.639	4.55
475.99	4.53
476.342	4.56
476.693	4.56
477.044	4.57
477.395	4.59
477.746	4.56
478.097	4.54
478.448	4.54
478.8	4.53
479.15	4.52
479.501	4.52
479.852	4.53
480.203	4.54
480.554	4.56
480.905	4.56
481.255	4.57
481.606	4.58
481.957	4.6
482.307	4.6
482.658	4.6
483.009	4.61
483.359	4.61
483.709	4.6
484.06	4.6
484.41	4.6
484.761	4.61
485.111	4.62
485.461	4.62
485.811	4.62
486.162	4.62
486.512	4.63
486.862	4.63
487.212	4.63
487.562	4.64
487.912	4.64
488.262	4.65
488.612	4.65
488.961	4.65
489.311	4.64
489.661	4.64
490.011	4.64
490.36	4.63
490.71	4.63
491.06	4.62
491.409	4.62
491.759	4.61
492.108	4.6
492.458	4.61
492.807	4.61
493.157	4.62
493.506	4.62
493.855	4.61
494.204	4.62
494.554	4.61
494.903	4.6
495.252	4.6
495.601	4.58
495.95	4.58
496.299	4.57
496.648	4.54
496.997	4.55
497.346	4.56
497.695	4.57
498.043	4.57
498.392	4.58
498.741	4.59
499.09	4.59
499.438	4.59
499.787	4.58
500.135	4.59
500.484	4.6
500.832	4.59
501.181	4.58
501.529	4.57
501.878	4.59
502.226	4.59
502.574	4.6
502.923	4.6
503.271	4.61
503.619	4.6
503.967	4.62
504.315	4.62
504.663	4.62
505.011	4.63
505.359	4.65
505.707	4.66
506.055	4.65
506.403	4.65
506.751	4.65
507.098	4.64
507.446	4.65
507.794	4.65
508.141	4.65
508.489	4.68
508.837	4.69
509.184	4.69
509.531	4.69
509.879	4.68
510.226	4.7
510.574	4.7
510.921	4.72
511.268	4.71
511.616	4.7
511.963	4.71
512.31	4.7
512.657	4.71
513.004	4.71
513.351	4.74
513.698	4.76
514.045	4.78
514.392	4.79
514.739	4.79
515.086	4.79
515.432	4.79
515.779	4.8
516.126	4.81
516.473	4.81
516.819	4.83
517.166	4.82
517.512	4.81
517.859	4.82
518.205	4.83
518.552	4.85
518.898	4.84
519.245	4.85
519.591	4.86
519.937	4.86
520.283	4.87
520.629	4.86
520.976	4.83
521.322	4.84
521.668	4.84
522.014	4.84
522.36	4.86
522.706	4.87
523.052	4.87
523.398	4.89
523.743	4.9
524.089	4.9
524.435	4.92
524.781	4.94
525.126	4.96
525.472	4.95
525.817	4.96
526.163	4.96
526.509	4.96
526.854	4.96
527.199	4.97
527.545	4.96
527.89	4.98
528.235	5
528.581	5
528.926	5
529.271	4.99
529.616	4.98
529.961	4.97
530.306	4.98
530.651	4.99
530.996	5.01
531.341	5.01
531.686	5
532.031	5.02
532.376	5
532.721	5
533.065	5.02
533.41	5.03
533.755	5.03
534.099	5.04
534.444	5.04
534.788	5.06
535.133	5.04
535.477	5.04
535.822	5.03
536.166	5.05
536.51	5.07
536.855	5.1
537.199	5.09
537.543	5.1
537.887	5.1
538.231	5.08
538.576	5.09
538.92	5.09
539.264	5.08
539.608	5.1
539.951	5.11
540.295	5.09
540.639	5.09
540.983	5.08
541.327	5.08
541.671	5.07
542.014	5.06
542.358	5.07
542.701	5.08
543.045	5.1
543.389	5.1
543.732	5.1
544.075	5.09
544.419	5.1
544.762	5.1
545.105	5.09
545.449	5.09
545.792	5.08
546.135	5.07
546.478	5.07
546.821	5.06
547.165	5.04
547.508	5.05
547.851	5.06
548.194	5.07
548.536	5.05
548.879	5.06
549.222	5.07
549.565	5.07
549.908	5.05
550.25	5.05
550.593	5.05
550.936	5.03
551.278	5.02
551.621	5.05
551.963	5.04
552.306	5.02
552.648	5.01
552.991	5.04
553.333	5.03
553.675	5.03
554.017	5.04
554.36	5.04
554.702	5.03
555.044	5.02
555.386	5.02
555.728	5.02
556.07	5.04
556.412	5.05
556.754	5.05
557.096	5.06
557.438	5.03
557.78	5.04
558.121	5.06
558.463	5.07
558.805	5.05
559.147	5.06
559.488	5.07
559.83	5.07
560.171	5.05
560.513	5.09
560.854	5.12
561.196	5.13
561.537	5.14
561.878	5.15
562.22	5.18
562.561	5.19
562.902	5.19
563.243	5.16
563.584	5.19
563.925	5.16
564.266	5.12
564.607	5.11
564.948	5.12
565.289	5.11
565.63	5.13
565.971	5.13
566.312	5.13
566.653	5.12
566.993	5.13
567.334	5.14
567.675	5.15
568.015	5.13
568.356	5.12
568.696	5.17
569.037	5.19
569.377	5.18
569.718	5.18
570.058	5.19
570.398	5.22
570.739	5.2
571.079	5.22
571.419	5.25
571.759	5.3
572.099	5.29
572.439	5.3
572.779	5.27
573.119	5.28
573.459	5.31
573.799	5.31
574.139	5.32
574.479	5.32
574.819	5.31
575.158	5.29
575.498	5.31
575.838	5.26
576.177	5.23
576.517	5.25
576.856	5.23
577.196	5.24
577.535	5.26
577.875	5.25
578.214	5.24
578.553	5.24
578.893	5.2
579.232	5.19
579.571	5.2
579.91	5.21
580.25	5.19
580.589	5.15
580.928	5.16
581.267	5.17
581.606	5.16
581.945	5.16
582.283	5.17
582.622	5.18
582.961	5.18
583.3	5.21
583.639	5.21
583.977	5.23
584.316	5.2
584.654	5.16
584.993	5.15
585.332	5.18
585.67	5.19
586.008	5.21
586.347	5.2
586.685	5.2
587.024	5.26
587.362	5.28
587.7	5.32
588.038	5.33
588.376	5.29
588.715	5.32
589.053	5.33
589.391	5.32
589.729	5.33
590.067	5.32
590.404	5.3
590.742	5.3
591.08	5.28
591.418	5.33
591.756	5.37
592.093	5.39
592.431	5.41
592.769	5.42
593.106	5.41
593.444	5.39
593.781	5.42
594.119	5.39
594.456	5.39
594.793	5.36
595.131	5.34
595.468	5.37
595.805	5.34
596.143	5.34
596.48	5.33
596.817	5.32
597.154	5.33
597.491	5.34
597.828	5.33
598.165	5.34
598.502	5.29
598.839	5.3
599.176	5.3
599.512	5.29
599.849	5.3
600.186	5.28
600.523	5.34
600.859	5.34
601.196	5.38
601.532	5.39
601.869	5.39
602.205	5.38
602.542	5.42
602.878	5.42
603.215	5.43
603.551	5.47
603.887	5.49
604.223	5.52
604.56	5.56
604.896	5.57
605.232	5.56
605.568	5.58
605.904	5.56
606.24	5.58
606.576	5.6
606.912	5.62
607.248	5.62
607.583	5.6
607.919	5.58
608.255	5.54
608.591	5.57
608.926	5.55
609.262	5.58
609.597	5.54
609.933	5.57
610.268	5.55
610.604	5.58
610.939	5.56
611.275	5.56
611.61	5.53
611.945	5.53
612.281	5.54
612.616	5.55
612.951	5.56
613.286	5.55
613.621	5.48
613.956	5.47
614.291	5.51
614.626	5.52
614.961	5.5
615.296	5.52
615.631	5.54
615.966	5.59
616.3	5.59
616.635	5.62
616.97	5.61
617.304	5.62
617.639	5.56
617.973	5.55
618.308	5.52
618.642	5.52
618.977	5.48
619.311	5.5
619.646	5.49
619.98	5.47
620.314	5.48
620.648	5.52
620.983	5.57
621.317	5.59
621.651	5.59
621.985	5.65
622.319	5.64
622.653	5.6
622.987	5.55
623.321	5.56
623.655	5.56
623.988	5.61
624.322	5.56
624.656	5.58
624.99	5.6
625.323	5.6
625.657	5.62
625.99	5.73
626.324	5.74
626.657	5.75
626.991	5.8
627.324	5.77
627.658	5.8
627.991	5.77
628.324	5.73
628.657	5.74
628.991	5.72
629.324	5.72
629.657	5.74
629.99	5.77
630.323	5.77
630.656	5.77
630.989	5.79
631.322	5.89
631.655	5.86
631.987	5.88
632.32	5.91
632.653	5.92
632.986	5.87
633.318	5.87
633.651	5.85
633.984	5.82
634.316	5.84
634.649	5.81
634.981	5.75
635.313	5.77
635.646	5.79
635.978	5.82
636.31	5.83
636.643	5.84
636.975	5.85
637.307	5.86
637.639	5.87
637.971	5.77
638.303	5.75
638.635	5.76
638.967	5.73
639.299	5.77
639.631	5.71
639.963	5.66
640.295	5.66
640.626	5.72
640.958	5.71
641.29	5.74
641.621	5.73
641.953	5.82
642.285	5.81
642.616	5.83
642.948	5.79
643.279	5.79
643.61	5.76
643.942	5.76
644.273	5.75
644.604	5.72
644.936	5.81
645.267	5.76
645.598	5.79
645.929	5.87
646.26	5.85
646.591	5.95
646.922	5.97
647.253	5.95
647.584	5.89
647.915	5.93
648.245	5.89
648.576	5.93
648.907	5.85
649.238	5.89
649.568	5.93
649.899	5.99
650.229	6.01
650.56	6.01
650.89	6.03
651.221	6.02
651.551	6.05
651.882	6.01
652.212	6.1
652.542	6.11
652.872	6.03
653.203	5.94
653.533	5.87
653.863	5.9
654.193	5.93
654.523	5.96
654.853	5.98
655.183	6
655.513	5.96
655.843	6
656.172	5.97
656.502	5.96
656.832	5.87
657.162	5.88
657.491	5.87
657.821	5.8
658.15	5.85
658.48	5.84
658.809	5.85
659.139	5.77
659.468	5.75
659.798	5.77
660.127	5.82
660.456	5.82
660.785	5.81
661.115	5.81
661.444	5.79
661.773	5.79
662.102	5.78
662.431	5.8
662.76	5.81
663.089	5.77
663.418	5.69
663.747	5.77
664.076	5.78
664.404	5.81
664.733	5.94
665.062	5.89
665.39	5.91
665.719	5.88
666.048	5.99
666.376	5.97
666.705	5.96
667.033	5.97
667.362	6.02
667.69	5.98
668.018	6.03
668.347	6.07
668.675	6.04
669.003	6.09
669.331	6.08
669.659	6.02
669.987	6.08
670.315	6.12
670.643	6.09
670.971	6.15
671.299	6.16
671.627	6.07
671.955	6.08
672.283	6.05
672.61	6.04
672.938	5.98
673.266	6.01
673.593	6.16
673.921	6.16
674.249	6.16
674.576	6.21
674.904	6.24
675.231	6.28
675.558	6.27
675.886	6.26
676.213	6.32
676.54	6.47
676.867	6.48
677.195	6.51
677.522	6.54
677.849	6.49
678.176	6.46
678.503	6.47
678.83	6.47
679.157	6.46
679.484	6.48
679.81	6.54
680.137	6.42
680.464	6.32
680.791	6.36
681.117	6.3
681.444	6.32
681.771	6.29
682.097	6.31
682.424	6.38
682.75	6.39
683.077	6.38
683.403	6.27
683.729	6.26
684.056	6.26
684.382	6.22
684.708	6.19
685.034	6.2
685.36	6.2
685.686	6.25
686.012	6.24
686.339	6.3
686.664	6.32
686.99	6.45
687.316	6.42
687.642	6.36
687.968	6.38
688.294	6.37
688.619	6.39
688.945	6.3
689.271	6.29
689.596	6.32
689.922	6.34
690.247	6.37
690.573	6.31
690.898	6.41
691.224	6.43
691.549	6.43
691.874	6.43
692.2	6.46
692.525	6.38
692.85	6.4
693.175	6.37
693.5	6.26
693.825	6.27
694.15	6.32
694.475	6.47
694.8	6.51
695.125	6.48
695.45	6.37
695.775	6.45
696.099	6.4
696.424	6.35
696.749	6.32
697.073	6.29
697.398	6.41
697.723	6.32
698.047	6.27
698.372	6.4
698.696	6.47
699.02	6.53
699.345	6.57
699.669	6.64
699.993	6.66
700.318	6.66
700.642	6.63
700.966	6.66
701.29	6.56
701.614	6.59
701.938	6.59
702.262	6.71
702.586	6.67
702.91	6.7
703.234	6.75
703.557	6.82
703.881	6.91
704.205	6.88
704.529	6.83
704.852	6.8
705.176	6.72
705.499	6.67
705.823	6.51
706.146	6.6
706.47	6.66
706.793	6.6
707.117	6.6
707.44	6.63
707.763	6.59
708.086	6.64
708.409	6.61
708.733	6.65
709.056	6.62
709.379	6.74
709.702	6.75
710.025	6.7
710.348	6.59
710.671	6.58
710.993	6.59
711.316	6.68
711.639	6.73
711.962	6.72
712.284	6.73
712.607	6.84
712.93	6.8
713.252	6.7
713.575	6.79
713.897	6.8
714.22	6.88
714.542	6.95
714.864	6.92
715.187	6.95
715.509	6.89
715.831	6.99
716.153	6.86
716.475	6.79
716.798	6.83
717.12	6.89
717.442	6.84
717.764	6.69
718.085	6.55
718.407	6.52
718.729	6.52
719.051	6.57
719.373	6.41
719.695	6.35
720.016	6.4
720.338	6.42
720.659	6.43
720.981	6.3
721.302	6.35
721.624	6.35
721.945	6.2
722.267	6.33
722.588	6.13
722.909	6.2
723.231	6.27
723.552	6.24
723.873	6.33
724.194	6.4
724.515	6.44
724.836	6.46
725.157	6.68
725.478	6.69
725.799	6.68
726.12	6.77
726.441	6.85
726.762	6.9
727.083	6.93
727.403	7.12
727.724	7.22
728.045	7.33
728.365	7.22
728.686	7.27
729.006	7.4
729.327	7.52
729.647	7.44
729.967	7.47
730.288	7.29
730.608	7.22
730.928	7.15
731.249	7.29
731.569	7.6
731.889	7.53
732.209	7.43
732.529	7.35
732.849	7.37
733.169	7.31
733.489	7.18
733.809	7.16
734.129	7.04
734.448	6.96
734.768	6.62
735.088	6.72
735.408	6.87
735.727	6.79
736.047	6.76
736.366	6.83
736.686	6.87
737.005	7.14
737.325	7.03
737.644	7.12
737.963	7.1
738.283	6.7
738.602	6.62
738.921	6.77
739.24	6.99
739.56	6.79
739.879	6.87
740.198	6.87
740.517	6.87
740.836	6.8
741.155	6.79
741.473	6.94
741.792	6.85
742.111	6.97
742.43	6.9
742.748	6.89
743.067	6.88
743.386	6.84
743.704	6.84
744.023	7.17
744.341	7.13
744.66	7.24
744.978	7.51
745.297	7.51
745.615	7.53
745.933	7.28
746.252	7.56
746.57	7.39
746.888	7.45
747.206	7.38
747.524	7.38
747.842	7.47
748.16	7.78
748.478	7.91
748.796	7.79
749.114	7.89
749.432	7.9
749.749	8.08
750.067	8.18
750.385	8.11
750.703	7.82
751.02	7.88
751.338	7.83
751.655	7.76
751.973	7.77
752.29	7.7
752.608	7.85
752.925	8.03
753.242	8.09
753.56	8.04
753.877	8.13
754.194	8.3
754.511	8.33
754.828	8.14
755.145	8.02
755.462	7.72
755.779	7.76
756.096	7.72
756.413	7.44
756.73	7.43
757.047	7.32
757.364	7.43
757.68	7.61
757.997	7.59
758.314	7.49
758.63	7.7
758.947	7.57
759.264	7.41
759.58	7.23
759.896	7.47
760.213	7.55
760.529	7.6
760.846	7.49
761.162	7.49
761.478	7.36
761.794	7.27
762.11	7.55
762.426	7.53
762.743	7.6
763.059	7.7
763.375	7.58
763.69	7.69
764.006	7.76
764.322	7.74
764.638	7.72
764.954	7.9
765.27	7.79
765.585	7.77
765.901	7.86
766.216	8.03
766.532	7.99
766.848	8.09
767.163	8.04
767.478	8.2
767.794	8.26
768.109	8.41
768.424	8.82
768.74	8.64
769.055	8.66
769.37	8.76
769.685	8.6
770	8.63
770.315	8.4
770.63	8.42
770.945	8.37
771.26	8.42
771.575	8.5
771.89	8.58
772.205	8.87
772.52	8.83
772.834	8.37
773.149	8.17
773.464	8.04
773.778	8.16
774.093	7.79
774.407	7.44
774.722	7.52
775.036	7.36
775.351	7.76
775.665	7.61
775.979	7.5
776.293	7.93
776.608	8.04
776.922	8.37
777.236	8.05
777.55	7.92
777.864	8.04
778.178	7.99
778.492	8.11
778.806	7.71
779.12	7.94
779.434	8.04
779.747	8.02
780.061	7.9
780.375	7.97
780.689	8.41
781.002	8.74
781.316	8.72
781.629	8.72
781.943	8.65
782.256	8.92
782.57	9.04
782.883	8.81
783.196	8.64
783.51	8.57
783.823	8.98
784.136	9.08
784.449	9.13
784.762	9.34
785.075	9.41
785.388	9.98
785.701	10.05
786.014	10.19
786.327	10.31
786.64	10.85
786.953	10.91
787.266	10.39
787.578	10.82
787.891	10.34
788.204	10.2
788.516	10.03
788.829	9.82
789.141	9.88
789.454	9.97
789.766	10.62
790.079	10.38
790.391	10.66
790.703	10.75
791.016	10.55
791.328	10.1
791.64	10.01
791.952	9.76
792.264	9.25
792.576	9.05
792.888	9.47
793.2	9.67
793.512	9.43
793.824	9.54
794.136	9.33
794.448	9.79
794.76	10.12
795.071	10.04
795.383	9.92
795.695	9.53
796.006	9.67
796.318	9.4
796.629	10.03
796.941	9.67
797.252	9.77
797.564	10.15
797.875	10.4
798.186	10.11
798.497	10.26
798.809	10.61
799.12	11.01
799.431	10.37
799.742	9.73
800.053	9.99
800.364	10.57
800.675	10.14
800.986	9.96
801.297	9.76
801.608	9.68
801.918	9.54
802.229	9.92
802.54	10.02
802.851	9.88
803.161	9.8
803.472	9.72
803.782	9.7
804.093	9.47
804.403	9.13
804.714	9.34
805.024	9.14
805.334	9.26
805.645	9.4
805.955	9.9
806.265	10.28
806.575	9.92
806.885	9.56
807.195	9.89
807.505	10.44
807.815	10.03
808.125	10.09
808.435	10.46
808.745	10.52
809.055	10.21
809.365	9.54
809.674	9.21
809.984	9.54
810.294	9.4
810.603	9.54
810.913	10.13
811.222	11.02
811.532	11.37
811.841	11.76
812.151	11.53
812.46	11.11
812.769	10.94
813.079	10.83
813.388	10.63
813.697	11.02
814.006	10.69
814.315	11.3
814.624	11.67
814.933	11.58
815.242	11.36
815.551	11.53
815.86	13.12
816.169	13.44
816.478	13.24
816.786	13.43
817.095	13.67
817.404	13.74
817.712	12.54
818.021	12.22
818.33	11.69
818.638	11.81
818.947	12.5
819.255	12.43
819.563	12.81
819.872	12.95
820.18	12.88
820.488	12.6
820.796	12.59
821.105	12.27
821.413	12.47
821.721	12.44
822.029	12.13
822.337	11.86
822.645	11.75
822.953	11.74
823.26	11.67
823.568	11.52
823.876	11.52
824.184	11.57
824.491	11.63
824.799	11.66
825.107	11.69
825.414	11.64
825.722	11.67
826.029	11.46
826.337	11.51
826.644	11.43
826.951	11.56
827.259	11.59
827.566	11.68
827.873	11.43
828.18	11.4
828.488	11.63
828.795	11.55
829.102	11.59
829.409	11.69
829.716	11.7
830.023	11.88
830.329	11.76
830.636	11.99
830.943	11.8
831.25	11.95
831.557	11.9
831.863	11.64
832.17	11.41
832.476	11.64
832.783	11.4
833.089	11.13
833.396	11.38
833.702	10.86
834.009	11.15
834.315	11.48
834.621	11.69
834.928	12.12
835.234	12.03
835.54	12.04
835.846	12.14
836.152	12.24
836.458	12.18
836.764	12.21
837.07	12.13
837.376	12.1
837.682	11.63
837.988	11.46
838.293	11.55
838.599	11.93
838.905	11.75
839.211	11.7
839.516	12.09
839.822	12.27
840.127	12.88
840.433	12.59
840.738	13.26
841.044	12.7
841.349	12.44
841.654	12.98
841.959	13.03
842.265	12.49
842.57	12.36
842.875	12.34
843.18	12.04
843.485	11.85
843.79	12.32
844.095	13.68
844.4	15.33
844.705	14.27
845.01	14.18
845.315	14.59
845.619	14.18
845.924	14.64
846.229	13.97
846.533	14.52
846.838	14.08
847.142	11.99
847.447	12.07
847.751	12.11
848.056	12.25
848.36	12.76
848.664	15.23
848.969	15.66
849.273	12.47
849.577	11.66
849.881	13.27
850.185	14.21
850.489	15.01
850.794	14.1
851.097	15.8
851.401	15.09
851.705	14.23
852.009	15.08
852.313	12.47
852.617	11.29
852.92	10.92
853.224	11.64
853.528	13.4
853.831	13.63
854.135	12.28
854.438	10.61
854.742	8.93
855.045	4.99
855.349	4.54
855.652	7.76
855.955	9.91
856.259	7.91
856.562	6.52
856.865	4.98
857.168	3.16
857.471	4.08
857.774	6.11
858.077	8.42
858.38	9.52
858.683	12.51
858.986	12.74
859.289	13.15
859.592	14.5
859.894	14.73
860.197	14.71
860.5	15.84
860.802	17.46
861.105	18.57
861.407	19.91
861.71	19.26
862.012	19.5
862.315	18.82
862.617	18.51
862.919	18.18
863.222	19
863.524	19.92
863.826	21.02
864.128	19.45
864.43	17.82
864.732	18.29
865.034	16.82
865.336	13.65
865.638	12.96
865.94	11.43
866.242	10.11
866.544	10.56
866.846	9.78
867.147	9.58
867.449	9.96
867.751	11.07
868.052	14.01
868.354	14.41
868.655	13.41
868.957	15.03
869.258	17.63
869.56	16
869.861	13.82
870.162	9.88
870.463	11.06
870.765	12.23
871.066	11.14
871.367	10.52
871.668	13.56
871.969	12.84
872.27	13.14
872.571	16.11
872.872	15.47
873.173	13.59
873.473	14.02
873.774	15.83
874.075	15.35
874.376	13.59
874.676	13.84
874.977	14.39
875.277	12.64
875.578	11.63
875.878	11.6
876.179	13.88
876.479	15.61
876.78	14.29
877.08	13.7
877.38	13.27
877.68	14.94
877.981	16.67
878.281	18.1
878.581	18.69
