Data from BA28474_Reflection_00013.txt Node
Date: Mon Nov 18 15:31:00 EST 2019
User: vgr7
Spectrometer: USB2G7710
Scans to average: 3
Trigger mode: 4
Integration Time (sec): 2.000000E-2
Electric dark correction enabled: true
Boxcar width: 10
XAxis mode: Wavelengths
Number of Pixels in Spectrum: 2048
>>>>>Begin Spectral Data<<<<<
177.721	-52.71
178.105	-35.94
178.488	-83.4
178.871	-105.43
179.254	-487.06
179.636	-69.21
180.019	427.04
180.402	33.33
180.785	145.15
181.168	-65.42
181.55	-97.65
181.933	280.18
182.316	79.73
182.698	98.84
183.081	134.46
183.463	296.4
183.846	417.22
184.228	45211.11
184.611	-902.15
184.993	-496.49
185.376	-165.2
185.758	-166.48
186.14	-132.14
186.522	-141.2
186.904	-175.08
187.287	-233.89
187.669	-168.42
188.051	-237.83
188.433	-190.54
188.815	-148.76
189.197	-223.01
189.579	-227.02
189.961	-160.43
190.342	-118.45
190.724	-90.14
191.106	-125.95
191.488	-116.72
191.869	-80.85
192.251	-61.3
192.633	-86.43
193.014	-92.38
193.396	-174.58
193.777	-127.05
194.159	-135.9
194.54	-116.72
194.922	-90.14
195.303	-100.72
195.684	-84.52
196.065	-67.09
196.447	-64.38
196.828	-63.81
197.209	-59.46
197.59	-49.84
197.971	-43.32
198.352	-22.23
198.733	-31.11
199.114	-22.2
199.495	-17.58
199.876	-24.6
200.257	-16.68
200.638	-15.73
201.018	-31.46
201.399	-45.63
201.78	-40.35
202.16	-42.07
202.541	-56.54
202.922	-83.03
203.302	-75.85
203.683	-85.26
204.063	-128.72
204.444	-131.94
204.824	-141.48
205.204	-105.82
205.585	-150.14
205.965	-186.74
206.345	-187.12
206.725	-223.43
207.106	-405.34
207.486	-404.59
207.866	-1425.53
208.246	-669.63
208.626	-698.83
209.006	-226.73
209.386	-221.71
209.766	-212.08
210.145	-172.92
210.525	-145.39
210.905	-110.66
211.285	-103.3
211.664	-108.43
212.044	-90.41
212.424	-86.04
212.803	-88.88
213.183	-88.51
213.562	-62.15
213.942	-53.35
214.321	-38.83
214.701	-52.46
215.08	-34.76
215.459	-32.42
215.838	-18.36
216.218	-14.54
216.597	-15.03
216.976	-23.01
217.355	-21.08
217.734	-17.51
218.113	3.31
218.492	8.06
218.871	5.41
219.25	-1.44
219.629	-12.82
220.008	-7.56
220.387	-14.53
220.766	-25.91
221.144	-44.63
221.523	-73.12
221.902	-68.2
222.28	-87.41
222.659	-63.79
223.037	-46.08
223.416	-45.71
223.794	-50.6
224.173	-59.93
224.551	-47.36
224.929	-39.45
225.308	-30.82
225.686	-26.86
226.064	-28.97
226.442	-25.71
226.821	-18.37
227.199	-18.71
227.577	-17.9
227.955	-17.67
228.333	-13.1
228.711	-7.99
229.089	-4.2
229.467	-6.38
229.845	-7.04
230.222	-5.98
230.6	-5.4
230.978	-5.18
231.356	-2.65
231.733	-4.48
232.111	-3.26
232.488	-1.66
232.866	0.39
233.243	0.08
233.621	-1.68
233.998	-0.02
234.376	1.23
234.753	1.15
235.13	1.71
235.508	2.95
235.885	4.29
236.262	4.34
236.639	3.86
237.016	3.99
237.393	5.82
237.77	5.51
238.147	5.88
238.524	5.48
238.901	6.19
239.278	6.41
239.655	7.42
240.032	7.16
240.409	6.94
240.785	6.5
241.162	6.78
241.539	6.85
241.915	6.37
242.292	5.8
242.668	4.75
243.045	4.7
243.421	4.66
243.798	4.53
244.174	4.52
244.551	4.42
244.927	4.12
245.303	4.23
245.679	4.37
246.056	4.13
246.432	4.2
246.808	3.77
247.184	3.7
247.56	3.38
247.936	3.26
248.312	3.16
248.688	3.18
249.064	3.3
249.44	3.09
249.815	3.23
250.191	3.37
250.567	3.5
250.943	3.6
251.318	3.64
251.694	3.5
252.069	3.45
252.445	3.66
252.82	3.49
253.196	3.34
253.571	3.18
253.947	3.43
254.322	3.52
254.697	3.91
255.073	3.65
255.448	3.89
255.823	4.15
256.198	4.21
256.573	4.14
256.948	4.05
257.323	4.58
257.698	4.44
258.073	4.27
258.448	4.39
258.823	4.31
259.198	4.22
259.573	4.17
259.948	4.16
260.322	4.22
260.697	4.28
261.072	4.21
261.446	4.29
261.821	4.18
262.195	4.23
262.57	4.07
262.944	4.09
263.319	4.06
263.693	3.93
264.067	3.97
264.442	3.88
264.816	3.74
265.19	3.54
265.564	3.58
265.938	3.73
266.313	3.72
266.687	3.81
267.061	3.74
267.435	3.87
267.809	3.91
268.183	3.52
268.556	3.52
268.93	3.52
269.304	3.35
269.678	3.52
270.051	3.5
270.425	3.5
270.799	3.57
271.172	3.52
271.546	3.48
271.919	3.3
272.293	3.55
272.666	3.69
273.04	3.5
273.413	3.45
273.787	3.36
274.16	3.17
274.533	3.02
274.906	2.92
275.279	2.87
275.653	2.79
276.026	2.81
276.399	2.88
276.772	2.97
277.145	2.88
277.518	2.79
277.891	2.71
278.263	2.7
278.636	2.77
279.009	2.79
279.382	2.9
279.755	2.94
280.127	2.82
280.5	2.74
280.872	2.89
281.245	2.82
281.617	3
281.99	3.41
282.362	3.56
282.735	3.59
283.107	3.7
283.479	3.71
283.852	3.75
284.224	3.84
284.596	3.84
284.968	4.03
285.34	4.02
285.713	4.01
286.085	4.13
286.457	4.13
286.829	4.18
287.201	4.2
287.572	4.18
287.944	4.2
288.316	4.15
288.688	4.12
289.06	4.27
289.431	4.29
289.803	4.12
290.175	4.09
290.546	4.29
290.918	4.26
291.289	4.21
291.661	4.45
292.032	4.51
292.403	4.55
292.775	4.53
293.146	4.57
293.517	4.55
293.889	4.67
294.26	4.76
294.631	4.75
295.002	4.8
295.373	4.93
295.744	5.03
296.115	5.14
296.486	5.24
296.857	5.25
297.228	5.17
297.599	5.26
297.97	5.28
298.34	5.33
298.711	5.45
299.082	5.65
299.452	5.51
299.823	5.55
300.194	5.62
300.564	5.62
300.935	5.66
301.305	5.82
301.676	5.75
302.046	5.74
302.416	5.87
302.787	6
303.157	5.99
303.527	6.05
303.897	6.15
304.267	6.19
304.637	6.38
305.008	6.54
305.378	6.68
305.748	6.83
306.117	6.77
306.487	6.63
306.857	6.62
307.227	6.8
307.597	6.85
307.967	6.72
308.336	6.86
308.706	6.96
309.076	7.02
309.445	7.13
309.815	7.12
310.184	7.2
310.554	7.14
310.923	7.3
311.293	7.33
311.662	7.35
312.031	7.42
312.401	7.48
312.77	7.59
313.139	7.57
313.508	7.66
313.877	7.85
314.246	8.13
314.616	8.05
314.985	8.11
315.353	8.1
315.722	8.31
316.091	8.42
316.46	8.46
316.829	8.5
317.198	8.51
317.567	8.62
317.935	8.65
318.304	8.76
318.672	8.5
319.041	8.58
319.41	8.63
319.778	8.58
320.147	8.56
320.515	8.53
320.883	8.69
321.252	8.69
321.62	8.7
321.988	8.75
322.357	8.98
322.725	9.02
323.093	9.09
323.461	9.21
323.829	9.2
324.197	9.33
324.565	9.53
324.933	9.56
325.301	9.59
325.669	9.77
326.037	10.01
326.405	10.32
326.772	10.36
327.14	10.43
327.508	10.61
327.875	10.61
328.243	10.78
328.61	10.77
328.978	10.93
329.346	10.91
329.713	10.9
330.08	11.01
330.448	10.96
330.815	11.05
331.182	11.19
331.55	11.26
331.917	11.36
332.284	11.32
332.651	11.5
333.018	11.61
333.385	11.51
333.752	11.41
334.119	11.4
334.486	11.36
334.853	11.44
335.22	11.41
335.587	11.52
335.954	11.43
336.32	11.55
336.687	11.48
337.054	11.55
337.42	11.69
337.787	11.77
338.153	11.86
338.52	11.99
338.886	11.88
339.253	11.97
339.619	12
339.986	11.97
340.352	11.99
340.718	12.04
341.084	12.06
341.451	12.07
341.817	12.11
342.183	12.15
342.549	12.16
342.915	12.23
343.281	12.2
343.647	12.29
344.013	12.23
344.379	12.24
344.745	12.19
345.11	12.16
345.476	12.1
345.842	12.27
346.208	12.28
346.573	12.3
346.939	12.38
347.304	12.34
347.67	12.42
348.035	12.41
348.401	12.38
348.766	12.44
349.132	12.51
349.497	12.49
349.862	12.49
350.228	12.56
350.593	12.51
350.958	12.6
351.323	12.6
351.688	12.63
352.053	12.76
352.418	12.84
352.783	12.82
353.148	12.83
353.513	12.68
353.878	12.63
354.243	12.73
354.608	12.69
354.972	12.71
355.337	12.7
355.702	12.71
356.066	12.74
356.431	12.65
356.795	12.69
357.16	12.69
357.524	12.69
357.889	12.54
358.253	12.56
358.618	12.54
358.982	12.47
359.346	12.39
359.71	12.23
360.075	12.27
360.439	12.26
360.803	12.25
361.167	12.2
361.531	12.2
361.895	12.14
362.259	12.05
362.623	12.08
362.987	12.09
363.351	12.07
363.714	12.05
364.078	12.04
364.442	11.93
364.806	11.93
365.169	11.93
365.533	11.96
365.896	11.94
366.26	11.87
366.623	11.87
366.987	11.89
367.35	11.95
367.714	11.84
368.077	11.81
368.44	11.79
368.803	11.76
369.167	11.69
369.53	11.61
369.893	11.57
370.256	11.44
370.619	11.27
370.982	11.1
371.345	10.96
371.708	10.95
372.071	10.95
372.434	10.88
372.797	10.78
373.159	10.67
373.522	10.61
373.885	10.52
374.247	10.45
374.61	10.32
374.973	10.15
375.335	10.05
375.698	10.02
376.06	9.91
376.423	9.87
376.785	9.78
377.147	9.77
377.51	9.67
377.872	9.6
378.234	9.55
378.596	9.56
378.958	9.49
379.321	9.35
379.683	9.27
380.045	9.16
380.407	9.09
380.769	9.04
381.13	8.92
381.492	8.87
381.854	8.82
382.216	8.77
382.578	8.76
382.939	8.74
383.301	8.57
383.663	8.49
384.024	8.41
384.386	8.4
384.747	8.37
385.109	8.32
385.47	8.27
385.832	8.24
386.193	8.19
386.554	8.15
386.916	8.13
387.277	8.04
387.638	8.02
387.999	7.99
388.36	7.92
388.721	7.88
389.082	7.83
389.443	7.77
389.804	7.75
390.165	7.68
390.526	7.59
390.887	7.53
391.248	7.5
391.609	7.51
391.969	7.41
392.33	7.33
392.691	7.32
393.051	7.28
393.412	7.24
393.772	7.16
394.133	7.14
394.493	7.05
394.854	6.99
395.214	6.94
395.574	6.87
395.935	6.85
396.295	6.82
396.655	6.75
397.015	6.67
397.376	6.58
397.736	6.55
398.096	6.51
398.456	6.49
398.816	6.42
399.176	6.27
399.535	6.21
399.895	6.14
400.255	6.05
400.615	5.97
400.975	5.9
401.334	5.88
401.694	5.81
402.054	5.82
402.413	5.8
402.773	5.79
403.132	5.75
403.492	5.69
403.851	5.65
404.211	5.59
404.57	5.57
404.929	5.55
405.288	5.48
405.648	5.44
406.007	5.43
406.366	5.41
406.725	5.42
407.084	5.4
407.443	5.39
407.802	5.39
408.161	5.38
408.52	5.36
408.879	5.33
409.238	5.33
409.596	5.29
409.955	5.26
410.314	5.21
410.673	5.18
411.031	5.17
411.39	5.18
411.748	5.16
412.107	5.15
412.465	5.14
412.824	5.11
413.182	5.1
413.54	5.05
413.899	5.05
414.257	5.07
414.615	5.03
414.974	5
415.332	4.98
415.69	4.95
416.048	4.92
416.406	4.88
416.764	4.86
417.122	4.86
417.48	4.82
417.838	4.8
418.195	4.78
418.553	4.76
418.911	4.74
419.269	4.74
419.626	4.71
419.984	4.68
420.342	4.66
420.699	4.63
421.057	4.62
421.414	4.58
421.772	4.54
422.129	4.54
422.486	4.53
422.844	4.5
423.201	4.47
423.558	4.47
423.915	4.45
424.273	4.42
424.63	4.4
424.987	4.39
425.344	4.36
425.701	4.34
426.058	4.32
426.415	4.29
426.772	4.27
427.128	4.26
427.485	4.26
427.842	4.25
428.199	4.24
428.555	4.24
428.912	4.24
429.269	4.23
429.625	4.23
429.982	4.19
430.338	4.18
430.695	4.19
431.051	4.17
431.407	4.17
431.764	4.17
432.12	4.15
432.476	4.12
432.832	4.12
433.189	4.14
433.545	4.12
433.901	4.12
434.257	4.1
434.613	4.1
434.969	4.08
435.325	4.08
435.681	4.09
436.036	4.1
436.392	4.11
436.748	4.1
437.104	4.07
437.459	4.06
437.815	4.07
438.171	4.06
438.526	4.07
438.882	4.07
439.237	4.07
439.593	4.07
439.948	4.08
440.304	4.09
440.659	4.06
441.014	4.06
441.369	4.06
441.725	4.06
442.08	4.04
442.435	4.05
442.79	4.04
443.145	4.02
443.5	3.99
443.855	3.96
444.21	3.95
444.565	3.95
444.92	3.95
445.275	3.94
445.629	3.93
445.984	3.92
446.339	3.89
446.693	3.87
447.048	3.85
447.403	3.84
447.757	3.81
448.112	3.8
448.466	3.79
448.82	3.78
449.175	3.77
449.529	3.75
449.883	3.73
450.238	3.71
450.592	3.69
450.946	3.68
451.3	3.67
451.654	3.65
452.008	3.66
452.362	3.66
452.716	3.64
453.07	3.63
453.424	3.62
453.778	3.63
454.132	3.63
454.486	3.64
454.839	3.64
455.193	3.63
455.547	3.65
455.9	3.65
456.254	3.66
456.607	3.67
456.961	3.68
457.314	3.68
457.668	3.69
458.021	3.69
458.375	3.69
458.728	3.69
459.081	3.71
459.434	3.68
459.787	3.68
460.141	3.69
460.494	3.71
460.847	3.72
461.2	3.72
461.553	3.73
461.906	3.75
462.259	3.76
462.611	3.8
462.964	3.81
463.317	3.83
463.67	3.83
464.022	3.84
464.375	3.84
464.728	3.84
465.08	3.85
465.433	3.89
465.785	3.89
466.138	3.91
466.49	3.93
466.843	3.97
467.195	3.99
467.547	4.01
467.899	4.01
468.252	4.01
468.604	4.03
468.956	4.04
469.308	4.04
469.66	4.05
470.012	4.07
470.364	4.08
470.716	4.09
471.068	4.11
471.42	4.13
471.772	4.15
472.123	4.19
472.475	4.19
472.827	4.2
473.178	4.23
473.53	4.24
473.882	4.24
474.233	4.25
474.585	4.23
474.936	4.23
475.288	4.24
475.639	4.24
475.99	4.23
476.342	4.23
476.693	4.24
477.044	4.26
477.395	4.23
477.746	4.22
478.097	4.2
478.448	4.18
478.8	4.17
479.15	4.16
479.501	4.17
479.852	4.16
480.203	4.17
480.554	4.17
480.905	4.19
481.255	4.19
481.606	4.18
481.957	4.19
482.307	4.18
482.658	4.17
483.009	4.17
483.359	4.17
483.709	4.19
484.06	4.18
484.41	4.17
484.761	4.18
485.111	4.18
485.461	4.19
485.811	4.18
486.162	4.18
486.512	4.19
486.862	4.18
487.212	4.18
487.562	4.19
487.912	4.19
488.262	4.17
488.612	4.18
488.961	4.18
489.311	4.19
489.661	4.2
490.011	4.21
490.36	4.22
490.71	4.23
491.06	4.22
491.409	4.23
491.759	4.23
492.108	4.24
492.458	4.25
492.807	4.26
493.157	4.3
493.506	4.34
493.855	4.34
494.204	4.36
494.554	4.41
494.903	4.41
495.252	4.44
495.601	4.47
495.95	4.51
496.299	4.55
496.648	4.6
496.997	4.64
497.346	4.69
497.695	4.75
498.043	4.79
498.392	4.84
498.741	4.9
499.09	4.95
499.438	5.01
499.787	5.08
500.135	5.15
500.484	5.21
500.832	5.26
501.181	5.35
501.529	5.43
501.878	5.49
502.226	5.58
502.574	5.65
502.923	5.74
503.271	5.84
503.619	5.92
503.967	6.01
504.315	6.09
504.663	6.19
505.011	6.28
505.359	6.38
505.707	6.49
506.055	6.58
506.403	6.7
506.751	6.81
507.098	6.92
507.446	7.06
507.794	7.18
508.141	7.3
508.489	7.43
508.837	7.55
509.184	7.66
509.531	7.8
509.879	7.94
510.226	8.06
510.574	8.2
510.921	8.33
511.268	8.46
511.616	8.61
511.963	8.73
512.31	8.9
512.657	9.08
513.004	9.23
513.351	9.41
513.698	9.59
514.045	9.73
514.392	9.91
514.739	10.06
515.086	10.23
515.432	10.38
515.779	10.53
516.126	10.68
516.473	10.88
516.819	11.03
517.166	11.18
517.512	11.34
517.859	11.48
518.205	11.63
518.552	11.8
518.898	11.95
519.245	12.14
519.591	12.27
519.937	12.39
520.283	12.55
520.629	12.74
520.976	12.93
521.322	13.13
521.668	13.33
522.014	13.53
522.36	13.74
522.706	13.98
523.052	14.22
523.398	14.49
523.743	14.74
524.089	15.01
524.435	15.28
524.781	15.53
525.126	15.75
525.472	15.96
525.817	16.15
526.163	16.33
526.509	16.5
526.854	16.68
527.199	16.85
527.545	17.01
527.89	17.17
528.235	17.31
528.581	17.5
528.926	17.67
529.271	17.84
529.616	18.02
529.961	18.19
530.306	18.4
530.651	18.58
530.996	18.79
531.341	19
531.686	19.22
532.031	19.44
532.376	19.67
532.721	19.92
533.065	20.16
533.41	20.42
533.755	20.67
534.099	20.94
534.444	21.21
534.788	21.47
535.133	21.72
535.477	22.04
535.822	22.32
536.166	22.61
536.51	22.93
536.855	23.27
537.199	23.63
537.543	23.96
537.887	24.34
538.231	24.7
538.576	25.07
538.92	25.41
539.264	25.75
539.608	26.08
539.951	26.36
540.295	26.65
540.639	26.95
540.983	27.23
541.327	27.48
541.671	27.75
542.014	28.03
542.358	28.27
542.701	28.52
543.045	28.77
543.389	29.08
543.732	29.33
544.075	29.59
544.419	29.86
544.762	30.14
545.105	30.41
545.449	30.7
545.792	30.99
546.135	31.32
546.478	31.66
546.821	32.02
547.165	32.39
547.508	32.76
547.851	33.13
548.194	33.48
548.536	33.86
548.879	34.22
549.222	34.57
549.565	34.95
549.908	35.3
550.25	35.68
550.593	35.97
550.936	36.36
551.278	36.75
551.621	37.13
551.963	37.49
552.306	37.84
552.648	38.18
552.991	38.51
553.333	38.81
553.675	39.12
554.017	39.38
554.36	39.69
554.702	39.93
555.044	40.16
555.386	40.47
555.728	40.8
556.07	41.07
556.412	41.32
556.754	41.61
557.096	41.89
557.438	42.16
557.78	42.47
558.121	42.75
558.463	43
558.805	43.26
559.147	43.49
559.488	43.76
559.83	44.04
560.171	44.31
560.513	44.51
560.854	44.72
561.196	45.05
561.537	45.23
561.878	45.48
562.22	45.75
562.561	45.94
562.902	46.1
563.243	46.41
563.584	46.61
563.925	46.85
564.266	46.96
564.607	47.11
564.948	47.24
565.289	47.42
565.63	47.61
565.971	47.78
566.312	47.98
566.653	48.15
566.993	48.33
567.334	48.43
567.675	48.63
568.015	48.81
568.356	48.93
568.696	49.11
569.037	49.33
569.377	49.45
569.718	49.61
570.058	49.79
570.398	49.87
570.739	50.05
571.079	50.15
571.419	50.37
571.759	50.56
572.099	50.72
572.439	50.87
572.779	50.96
573.119	51.08
573.459	51.2
573.799	51.35
574.139	51.39
574.479	51.54
574.819	51.7
575.158	51.76
575.498	51.84
575.838	51.97
576.177	52.07
576.517	52.21
576.856	52.35
577.196	52.5
577.535	52.63
577.875	52.73
578.214	52.92
578.553	53.01
578.893	53.07
579.232	53.19
579.571	53.33
579.91	53.51
580.25	53.64
580.589	53.74
580.928	53.78
581.267	53.94
581.606	54.1
581.945	54.18
582.283	54.35
582.622	54.55
582.961	54.69
583.3	54.77
583.639	54.88
583.977	54.93
584.316	54.91
584.654	55.03
584.993	55.06
585.332	55.09
585.67	55.12
586.008	55.2
586.347	55.29
586.685	55.37
587.024	55.4
587.362	55.45
587.7	55.44
588.038	55.56
588.376	55.62
588.715	55.67
589.053	55.72
589.391	55.77
589.729	55.74
590.067	55.77
590.404	55.8
590.742	55.85
591.08	56.01
591.418	56.13
591.756	56.19
592.093	56.38
592.431	56.44
592.769	56.57
593.106	56.73
593.444	56.84
593.781	56.9
594.119	56.98
594.456	57.15
594.793	57.26
595.131	57.29
595.468	57.37
595.805	57.43
596.143	57.47
596.48	57.56
596.817	57.61
597.154	57.73
597.491	57.76
597.828	57.85
598.165	57.87
598.502	57.94
598.839	58.01
599.176	58.01
599.512	58.1
599.849	58.16
600.186	58.25
600.523	58.27
600.859	58.28
601.196	58.38
601.532	58.38
601.869	58.46
602.205	58.5
602.542	58.54
602.878	58.6
603.215	58.66
603.551	58.69
603.887	58.77
604.223	58.75
604.56	58.8
604.896	58.83
605.232	58.85
605.568	58.88
605.904	58.89
606.24	58.98
606.576	58.99
606.912	58.95
607.248	58.95
607.583	58.97
607.919	59.04
608.255	59.01
608.591	59.01
608.926	58.97
609.262	59.08
609.597	59.13
609.933	59.12
610.268	59.17
610.604	59.22
610.939	59.25
611.275	59.29
611.61	59.38
611.945	59.44
612.281	59.51
612.616	59.52
612.951	59.63
613.286	59.68
613.621	59.8
613.956	59.93
614.291	59.94
614.626	60.01
614.961	60.1
615.296	60.18
615.631	60.2
615.966	60.31
616.3	60.3
616.635	60.33
616.97	60.43
617.304	60.36
617.639	60.31
617.973	60.38
618.308	60.36
618.642	60.36
618.977	60.34
619.311	60.39
619.646	60.52
619.98	60.53
620.314	60.48
620.648	60.4
620.983	60.46
621.317	60.47
621.651	60.47
621.985	60.52
622.319	60.54
622.653	60.68
622.987	60.74
623.321	60.84
623.655	60.88
623.988	60.88
624.322	61.01
624.656	61.17
624.99	61.21
625.323	61.25
625.657	61.28
625.99	61.31
626.324	61.29
626.657	61.22
626.991	61.17
627.324	61.24
627.658	61.34
627.991	61.27
628.324	61.23
628.657	61.25
628.991	61.13
629.324	61.15
629.657	61.06
629.99	61.04
630.323	60.95
630.656	61.01
630.989	61.06
631.322	61
631.655	60.93
631.987	60.95
632.32	61.03
632.653	60.98
632.986	60.89
633.318	60.87
633.651	60.87
633.984	60.9
634.316	60.86
634.649	60.77
634.981	60.86
635.313	60.95
635.646	60.95
635.978	61.04
636.31	61.11
636.643	61.15
636.975	61.19
637.307	61.29
637.639	61.29
637.971	61.21
638.303	61.29
638.635	61.29
638.967	61.23
639.299	61.16
639.631	61.14
639.963	61.18
640.295	61.25
640.626	61.36
640.958	61.36
641.29	61.49
641.621	61.57
641.953	61.56
642.285	61.55
642.616	61.55
642.948	61.69
643.279	61.7
643.61	61.78
643.942	61.79
644.273	61.7
644.604	61.6
644.936	61.64
645.267	61.7
645.598	61.84
645.929	61.87
646.26	61.9
646.591	62
646.922	62.06
647.253	62.02
647.584	61.92
647.915	62.05
648.245	62.13
648.576	62.18
648.907	62.22
649.238	62.19
649.568	62.18
649.899	62.16
650.229	62.11
650.56	62.11
650.89	62.17
651.221	62.34
651.551	62.41
651.882	62.58
652.212	62.5
652.542	62.38
652.872	62.45
653.203	62.46
653.533	62.43
653.863	62.44
654.193	62.5
654.523	62.58
654.853	62.57
655.183	62.32
655.513	62.33
655.843	62.45
656.172	62.56
656.502	62.7
656.832	62.67
657.162	62.78
657.491	62.76
657.821	62.75
658.15	62.72
658.48	62.74
658.809	62.65
659.139	62.71
659.468	62.69
659.798	62.52
660.127	62.64
660.456	62.68
660.785	62.7
661.115	62.68
661.444	62.69
661.773	62.66
662.102	62.7
662.431	62.72
662.76	62.59
663.089	62.59
663.418	62.58
663.747	62.55
664.076	62.49
664.404	62.33
664.733	62.36
665.062	62.29
665.39	62.22
665.719	62.25
666.048	62.21
666.376	62.35
666.705	62.46
667.033	62.29
667.362	62.41
667.69	62.49
668.018	62.48
668.347	62.38
668.675	62.33
669.003	62.67
669.331	62.7
669.659	62.68
669.987	62.57
670.315	62.52
670.643	62.58
670.971	62.64
671.299	62.81
671.627	62.77
671.955	62.86
672.283	63.02
672.61	63.17
672.938	63.36
673.266	63.39
673.593	63.48
673.921	63.63
674.249	63.48
674.576	63.38
674.904	63.42
675.231	63.48
675.558	63.5
675.886	63.35
676.213	63.4
676.54	63.5
676.867	63.6
677.195	63.63
677.522	63.72
677.849	63.74
678.176	63.86
678.503	63.77
678.83	63.63
679.157	63.57
679.484	63.45
679.81	63.47
680.137	63.32
680.464	63.27
680.791	63.24
681.117	63.25
681.444	63.27
681.771	63.43
682.097	63.48
682.424	63.6
682.75	63.5
683.077	63.35
683.403	63.38
683.729	63.42
684.056	63.48
684.382	63.4
684.708	63.26
685.034	63.12
685.36	63.34
685.686	63.55
686.012	63.5
686.339	63.43
686.664	63.35
686.99	63.5
687.316	63.51
687.642	63.44
687.968	63.49
688.294	63.61
688.619	63.54
688.945	63.48
689.271	63.43
689.596	63.51
689.922	63.62
690.247	63.64
690.573	63.61
690.898	63.62
691.224	63.6
691.549	63.74
691.874	63.74
692.2	63.61
692.525	63.44
692.85	63.68
693.175	63.84
693.5	63.8
693.825	63.82
694.15	63.85
694.475	64.1
694.8	64.3
695.125	64.25
695.45	64.36
695.775	64.56
696.099	64.7
696.424	64.6
696.749	64.75
697.073	64.68
697.398	64.68
697.723	64.6
698.047	64.54
698.372	64.67
698.696	64.63
699.02	64.61
699.345	64.67
699.669	64.56
699.993	64.41
700.318	64.33
700.642	64.29
700.966	64.31
701.29	64.23
701.614	64.01
701.938	63.98
702.262	63.89
702.586	63.8
702.91	63.62
703.234	63.66
703.557	63.51
703.881	63.65
704.205	63.53
704.529	63.58
704.852	63.61
705.176	63.4
705.499	63.69
705.823	63.69
706.146	63.75
706.47	63.61
706.793	63.74
707.117	63.64
707.44	63.76
707.763	63.78
708.086	63.61
708.409	63.71
708.733	63.79
709.056	63.74
709.379	63.68
709.702	63.86
710.025	63.76
710.348	63.71
710.671	63.59
710.993	63.73
711.316	63.85
711.639	63.92
711.962	64.05
712.284	64
712.607	63.94
712.93	63.93
713.252	64.17
713.575	64.27
713.897	64.48
714.22	64.39
714.542	64.48
714.864	64.6
715.187	64.59
715.509	64.66
715.831	64.49
716.153	64.56
716.475	64.17
716.798	64.52
717.12	64.59
717.442	64.66
717.764	64.57
718.085	64.45
718.407	64.29
718.729	64.33
719.051	64.14
719.373	64.26
719.695	64.07
720.016	64.06
720.338	64.1
720.659	64.01
720.981	64.1
721.302	64.04
721.624	64
721.945	64.07
722.267	63.97
722.588	64.19
722.909	64.31
723.231	64.53
723.552	64.33
723.873	64.46
724.194	64.32
724.515	64.6
724.836	64.87
725.157	65.14
725.478	64.81
725.799	65.08
726.12	65.07
726.441	65.3
726.762	65.08
727.083	65.14
727.403	65.06
727.724	65.11
728.045	65.33
728.365	65.21
728.686	65
729.006	65.02
729.327	64.78
729.647	64.54
729.967	64.78
730.288	64.83
730.608	64.59
730.928	64.76
731.249	64.59
731.569	64.43
731.889	64.52
732.209	64.71
732.529	64.44
732.849	64.71
733.169	64.78
733.489	64.67
733.809	64.67
734.129	64.82
734.448	64.81
734.768	64.6
735.088	64.92
735.408	65.08
735.727	64.84
736.047	65.01
736.366	65.15
736.686	65.08
737.005	65.03
737.325	65.21
737.644	65.13
737.963	65.27
738.283	65.01
738.602	64.91
738.921	64.87
739.24	64.87
739.56	64.49
739.879	64.42
740.198	64.61
740.517	64.64
740.836	64.56
741.155	64.41
741.473	64.32
741.792	64.16
742.111	64.45
742.43	64.61
742.748	64.78
743.067	64.68
743.386	64.48
743.704	64.33
744.023	64.33
744.341	64.09
744.66	64.13
744.978	64.45
745.297	64.14
745.615	64.09
745.933	64.71
746.252	65.01
746.57	64.76
746.888	64.81
747.206	64.49
747.524	64.5
747.842	64.6
748.16	64.73
748.478	64.83
748.796	64.83
749.114	65.22
749.432	65.26
749.749	65.37
750.067	65.33
750.385	65.74
750.703	65.56
751.02	65.57
751.338	65.4
751.655	65.31
751.973	65.63
752.29	65.76
752.608	65.47
752.925	65.36
753.242	65.29
753.56	65.23
753.877	65.27
754.194	65.1
754.511	65.37
754.828	65.41
755.145	65.01
755.462	64.89
755.779	64.79
756.096	64.74
756.413	64.56
756.73	64.8
757.047	64.44
757.364	64.41
757.68	64.69
757.997	64.69
758.314	64.74
758.63	64.35
758.947	64.41
759.264	64.13
759.58	64.14
759.896	64.57
760.213	64.53
760.529	64.47
760.846	64.85
761.162	64.45
761.478	64.4
761.794	64.59
762.11	64.42
762.426	64.24
762.743	64.5
763.059	64.8
763.375	64.49
763.69	64.81
764.006	65
764.322	64.72
764.638	64.74
764.954	64.67
765.27	65.11
765.585	65.42
765.901	65.64
766.216	65.68
766.532	65.37
766.848	65.54
767.163	65.86
767.478	65.79
767.794	66.19
768.109	66.22
768.424	66.14
768.74	66.43
769.055	66.46
769.37	66.04
769.685	65.54
770	66.02
770.315	65.54
770.63	65.35
770.945	65.48
771.26	65.4
771.575	65.44
771.89	64.9
772.205	64.37
772.52	64.16
772.834	63.78
773.149	64.09
773.464	63.87
773.778	63.6
774.093	63.66
774.407	63.16
774.722	63.29
775.036	63.56
775.351	63.6
775.665	63.67
775.979	63.66
776.293	63.95
776.608	63.78
776.922	63.99
777.236	64.16
777.55	64.25
777.864	64.18
778.178	64.3
778.492	64.55
778.806	64.01
779.12	64.52
779.434	64.87
779.747	64.85
780.061	65.04
780.375	64.95
780.689	64.59
781.002	64.69
781.316	65
781.629	65.16
781.943	65.5
782.256	65.71
782.57	65.92
782.883	66.34
783.196	67.02
783.51	66.93
783.823	66.93
784.136	66.88
784.449	67.27
784.762	67.28
785.075	67.22
785.388	67.34
785.701	66.99
786.014	66.72
786.327	66.77
786.64	66.52
786.953	66.93
787.266	67.22
787.578	67.65
787.891	67.33
788.204	67.63
788.516	66.92
788.829	67.08
789.141	66.38
789.454	65.88
789.766	65.32
790.079	64.79
790.391	64.83
790.703	64.96
791.016	64.76
791.328	64.99
791.64	64.87
791.952	65.34
792.264	65.28
792.576	65.5
792.888	65.61
793.2	65.7
793.512	65.18
793.824	65.21
794.136	64.92
794.448	65.05
794.76	64.68
795.071	64.99
795.383	64.7
795.695	65.21
796.006	65.09
796.318	65.54
796.629	66.71
796.941	66.82
797.252	67.03
797.564	66.76
797.875	65.61
798.186	65.44
798.497	65.71
798.809	65.57
799.12	65.69
799.431	65.69
799.742	65.99
800.053	65.97
800.364	65.72
800.675	65.42
800.986	64.9
801.297	64.03
801.608	63.64
801.918	63.65
802.229	63.56
802.54	63.45
802.851	63.37
803.161	63.04
803.472	63.02
803.782	63.3
804.093	63.39
804.403	65.05
804.714	65.66
805.024	65.13
805.334	64.94
805.645	64.98
805.955	64.79
806.265	64.37
806.575	64.55
806.885	64.78
807.195	65.16
807.505	65.5
807.815	65.53
808.125	65.8
808.435	65.34
808.745	65.42
809.055	65.76
809.365	65.35
809.674	65.35
809.984	64.57
810.294	63.92
810.603	64.35
810.913	63.74
811.222	63.57
811.532	63.91
811.841	64.22
812.151	64.2
812.46	63.97
812.769	64.18
813.079	64.77
813.388	64.52
813.697	64.49
814.006	64.72
814.315	65.84
814.624	65.53
814.933	65.94
815.242	65.72
815.551	65.56
815.86	65.9
816.169	65.11
816.478	65.49
816.786	65.69
817.095	66.05
817.404	65.67
817.712	64.85
818.021	64.56
818.33	64.03
818.638	64.43
818.947	65.18
819.255	65.03
819.563	64.64
819.872	65.14
820.18	65.1
820.488	64.76
820.796	64.67
821.105	64.77
821.413	64.86
821.721	64.97
822.029	65.03
822.337	65.25
822.645	65.47
822.953	65.71
823.26	65.81
823.568	65.68
823.876	65.85
824.184	66.08
824.491	66.14
824.799	66.41
825.107	66.29
825.414	66.25
825.722	66.35
826.029	66.57
826.337	66.31
826.644	66.26
826.951	66.51
827.259	66.78
827.566	66.99
827.873	66.92
828.18	67.13
828.488	67.38
828.795	67.05
829.102	67.13
829.409	66.98
829.716	66.48
830.023	66.27
830.329	66.18
830.636	66.02
830.943	65.62
831.25	64.84
831.557	64.51
831.863	64.49
832.17	64.57
832.476	64.12
832.783	64.42
833.089	64.32
833.396	64.43
833.702	63.63
834.009	63.08
834.315	63.56
834.621	63.36
834.928	63.34
835.234	63.25
835.54	63.54
835.846	63.68
836.152	64.36
836.458	64.47
836.764	64.51
837.07	64.26
837.376	64.52
837.682	65.1
837.988	65.57
838.293	64.95
838.599	64.28
838.905	64.46
839.211	64.35
839.516	64.37
839.822	63.58
840.127	64.05
840.433	64.17
840.738	63.15
841.044	63.84
841.349	63.42
841.654	65.04
841.959	63.38
842.265	62.94
842.57	62.38
842.875	62.45
843.18	61.91
843.485	63.24
843.79	63.25
844.095	62.96
844.4	61.95
844.705	62.54
845.01	62.41
845.315	62.02
845.619	62.07
845.924	62.58
846.229	62.62
846.533	63.17
846.838	63.48
847.142	64.26
847.447	64.1
847.751	63.68
848.056	60.65
848.36	63.08
848.664	61.99
848.969	61.17
849.273	61.52
849.577	62.07
849.881	60.53
850.185	61.56
850.489	62.25
850.794	62.09
851.097	62.05
851.401	63.41
851.705	61.6
852.009	61.76
852.313	61.36
852.617	60.2
852.92	59.46
853.224	59.68
853.528	61.08
853.831	60.25
854.135	60.79
854.438	60.51
854.742	58.31
855.045	61.76
855.349	61.38
855.652	61.24
855.955	60.88
856.259	63.17
856.562	60.27
856.865	60.13
857.168	61
857.471	61.15
857.774	60.63
858.077	63.16
858.38	62.71
858.683	63.67
858.986	64.43
859.289	65.2
859.592	64.41
859.894	62.06
860.197	59.88
860.5	59.26
860.802	60.87
861.105	61.21
861.407	58.72
861.71	60.75
862.012	61.58
862.315	61.34
862.617	58.05
862.919	58.75
863.222	59.63
863.524	58.49
863.826	60.39
864.128	62.98
864.43	60.81
864.732	60.37
865.034	61.42
865.336	63.45
865.638	61.71
865.94	62.31
866.242	64.02
866.544	63.24
866.846	63.74
867.147	64.8
867.449	64.85
867.751	63.72
868.052	65.9
868.354	64.27
868.655	64.58
868.957	67.19
869.258	68.45
869.56	65.74
869.861	66.76
870.162	62.25
870.463	61.46
870.765	63.54
871.066	65.51
871.367	65.08
871.668	64.61
871.969	63.14
872.27	61.98
872.571	61.87
872.872	64.18
873.173	65.02
873.473	63.41
873.774	63.3
874.075	63.4
874.376	62.11
874.676	63.33
874.977	63.07
875.277	63.47
875.578	63.3
875.878	64.95
876.179	65.76
876.479	68.63
876.78	67.56
877.08	67.52
877.38	65.8
877.68	63.93
877.981	62.31
878.281	65.66
878.581	67.31
