Data from BA28471_Reflection_00010.txt Node
Date: Mon Nov 18 15:21:20 EST 2019
User: vgr7
Spectrometer: USB2G7710
Scans to average: 3
Trigger mode: 4
Integration Time (sec): 2.000000E-2
Electric dark correction enabled: true
Boxcar width: 10
XAxis mode: Wavelengths
Number of Pixels in Spectrum: 2048
>>>>>Begin Spectral Data<<<<<
177.721	-206.7
178.105	19.08
178.488	-34.4
178.871	-1.25
179.254	41.83
179.636	72.31
180.019	125.71
180.402	48.72
180.785	-213.25
181.168	-44.34
181.55	-132.56
181.933	-4.79
182.316	3.25
182.698	-13.27
183.081	-12.96
183.463	-59.5
183.846	-175.53
184.228	-170.87
184.611	-446.94
184.993	-3486.21
185.376	634.56
185.758	195.08
186.14	1384.77
186.522	10942.11
186.904	-580.12
187.287	-170.87
187.669	390.24
188.051	187.37
188.433	137.76
188.815	118.38
189.197	91.57
189.579	74.51
189.961	58.45
190.342	55.42
190.724	48.95
191.106	40.04
191.488	28.71
191.869	15.82
192.251	18.04
192.633	11.87
193.014	18.37
193.396	-111.72
193.777	-145.32
194.159	-466.15
194.54	-128.39
194.922	-77.74
195.303	1.27
195.684	-23.3
196.065	20.96
196.447	6.28
196.828	-67.99
197.209	-23.93
197.59	-81.31
197.971	-83.26
198.352	-96.96
198.733	-296.78
199.114	-215.57
199.495	-96.69
199.876	-105.09
200.257	-38.98
200.638	-19.93
201.018	-30.5
201.399	-1.7
201.78	12.03
202.16	5.79
202.541	-7.2
202.922	-34.11
203.302	-58.57
203.683	-66.02
204.063	-80.43
204.444	-56.05
204.824	-36.38
205.204	-39.13
205.585	-34.21
205.965	-14.56
206.345	-14.67
206.725	-16.46
207.106	-24.67
207.486	-33.11
207.866	-22.8
208.246	-17.57
208.626	-13.76
209.006	5.99
209.386	-10.41
209.766	-13.42
210.145	3.98
210.525	9.06
210.905	42.96
211.285	48.86
211.664	30.94
212.044	19.82
212.424	1
212.803	-1.31
213.183	21.65
213.562	26.76
213.942	17.79
214.321	22.09
214.701	39.19
215.08	17.45
215.459	32.77
215.838	34.86
216.218	27.64
216.597	29.17
216.976	18.74
217.355	17.55
217.734	16.05
218.113	17.18
218.492	18.65
218.871	8.41
219.25	8.14
219.629	20.91
220.008	29.98
220.387	50.2
220.766	54.75
221.144	26.98
221.523	32.05
221.902	16.99
222.28	9.23
222.659	-0.07
223.037	24.16
223.416	13.04
223.794	7.3
224.173	6.91
224.551	-1.99
224.929	-9.31
225.308	0.25
225.686	1.16
226.064	6.23
226.442	11.07
226.821	9.89
227.199	12.02
227.577	7.15
227.955	7.68
228.333	5.96
228.711	2.48
229.089	6.79
229.467	4.81
229.845	2.91
230.222	6.24
230.6	6.22
230.978	4.02
231.356	6.78
231.733	8.73
232.111	8.27
232.488	10.93
232.866	11.65
233.243	9.43
233.621	8.58
233.998	8.91
234.376	8.06
234.753	8.06
235.13	7.39
235.508	7.67
235.885	6.5
236.262	6.17
236.639	6.3
237.016	5.78
237.393	6.63
237.77	8.04
238.147	7.14
238.524	7.12
238.901	7.3
239.278	7.15
239.655	7.79
240.032	7.7
240.409	6.75
240.785	6.66
241.162	7.12
241.539	7.13
241.915	6.54
242.292	6.25
242.668	6.04
243.045	5.89
243.421	5.29
243.798	5.36
244.174	5.14
244.551	5.16
244.927	5.22
245.303	5.05
245.679	5.22
246.056	5.15
246.432	4.97
246.808	4.82
247.184	4.86
247.56	4.35
247.936	4.14
248.312	3.99
248.688	4.01
249.064	3.61
249.44	3.47
249.815	3.57
250.191	3.62
250.567	3.65
250.943	3.54
251.318	3.99
251.694	4.04
252.069	4.18
252.445	4.27
252.82	4.02
253.196	4.06
253.571	3.98
253.947	3.98
254.322	4.1
254.697	3.98
255.073	3.63
255.448	3.63
255.823	3.84
256.198	4.21
256.573	4.2
256.948	4.5
257.323	4.72
257.698	4.61
258.073	4.75
258.448	4.85
258.823	4.91
259.198	4.72
259.573	4.62
259.948	4.43
260.322	4.35
260.697	4.39
261.072	4.33
261.446	4.32
261.821	4.17
262.195	4.14
262.57	4.12
262.944	4.06
263.319	4.07
263.693	4.05
264.067	4
264.442	4.03
264.816	3.89
265.19	3.52
265.564	3.72
265.938	3.58
266.313	3.38
266.687	3.27
267.061	3.43
267.435	3.55
267.809	3.51
268.183	3.65
268.556	3.69
268.93	3.66
269.304	3.68
269.678	3.94
270.051	3.98
270.425	4.05
270.799	4.14
271.172	4.2
271.546	4.1
271.919	3.99
272.293	3.96
272.666	4.09
273.04	4.15
273.413	3.94
273.787	3.87
274.16	3.8
274.533	3.89
274.906	3.9
275.279	3.76
275.653	3.83
276.026	3.65
276.399	3.74
276.772	3.77
277.145	3.7
277.518	3.64
277.891	3.66
278.263	3.7
278.636	3.64
279.009	3.71
279.382	3.82
279.755	3.96
280.127	4.06
280.5	3.99
280.872	4.28
281.245	4.33
281.617	4.43
281.99	4.59
282.362	4.39
282.735	4.08
283.107	3.91
283.479	3.95
283.852	3.95
284.224	3.9
284.596	3.85
284.968	3.89
285.34	3.92
285.713	3.86
286.085	3.9
286.457	4.07
286.829	4.03
287.201	4.04
287.572	3.85
287.944	3.72
288.316	3.76
288.688	3.7
289.06	3.66
289.431	3.64
289.803	3.6
290.175	3.76
290.546	3.92
290.918	4.16
291.289	4.07
291.661	4.09
292.032	4.17
292.403	4.27
292.775	4.29
293.146	4.21
293.517	4.25
293.889	4.19
294.26	4.13
294.631	4.12
295.002	3.99
295.373	4.13
295.744	4.19
296.115	4.01
296.486	4
296.857	3.94
297.228	3.92
297.599	3.89
297.97	3.86
298.34	3.98
298.711	4.03
299.082	4.08
299.452	4.16
299.823	4.14
300.194	4.1
300.564	3.97
300.935	4.03
301.305	4
301.676	4.16
302.046	4.15
302.416	4.21
302.787	4.35
303.157	4.43
303.527	4.36
303.897	4.6
304.267	4.62
304.637	4.74
305.008	4.91
305.378	5
305.748	4.98
306.117	4.84
306.487	4.76
306.857	4.8
307.227	4.79
307.597	4.78
307.967	4.9
308.336	5.01
308.706	4.94
309.076	5
309.445	4.87
309.815	4.9
310.184	4.91
310.554	4.87
310.923	4.79
311.293	4.84
311.662	4.88
312.031	4.83
312.401	4.9
312.77	4.95
313.139	5.05
313.508	5.18
313.877	5.2
314.246	5.23
314.616	5.3
314.985	5.31
315.353	5.27
315.722	5.36
316.091	5.43
316.46	5.49
316.829	5.56
317.198	5.6
317.567	5.61
317.935	5.61
318.304	5.79
318.672	5.73
319.041	5.86
319.41	5.81
319.778	5.95
320.147	5.94
320.515	5.88
320.883	5.81
321.252	5.95
321.62	6
321.988	6.08
322.357	6.13
322.725	6.25
323.093	6.35
323.461	6.34
323.829	6.34
324.197	6.31
324.565	6.33
324.933	6.38
325.301	6.34
325.669	6.4
326.037	6.46
326.405	6.46
326.772	6.43
327.14	6.51
327.508	6.45
327.875	6.36
328.243	6.48
328.61	6.54
328.978	6.45
329.346	6.57
329.713	6.46
330.08	6.47
330.448	6.32
330.815	6.24
331.182	6.12
331.55	6.16
331.917	6.26
332.284	6.3
332.651	6.29
333.018	6.41
333.385	6.52
333.752	6.37
334.119	6.46
334.486	6.47
334.853	6.43
335.22	6.49
335.587	6.65
335.954	6.63
336.32	6.49
336.687	6.5
337.054	6.48
337.42	6.55
337.787	6.59
338.153	6.7
338.52	6.78
338.886	6.7
339.253	6.62
339.619	6.67
339.986	6.63
340.352	6.69
340.718	6.63
341.084	6.5
341.451	6.6
341.817	6.7
342.183	6.67
342.549	6.65
342.915	6.66
343.281	6.63
343.647	6.57
344.013	6.61
344.379	6.47
344.745	6.49
345.11	6.55
345.476	6.46
345.842	6.38
346.208	6.43
346.573	6.49
346.939	6.54
347.304	6.57
347.67	6.51
348.035	6.51
348.401	6.45
348.766	6.45
349.132	6.36
349.497	6.31
349.862	6.44
350.228	6.52
350.593	6.47
350.958	6.42
351.323	6.44
351.688	6.55
352.053	6.64
352.418	6.61
352.783	6.56
353.148	6.51
353.513	6.51
353.878	6.39
354.243	6.53
354.608	6.55
354.972	6.51
355.337	6.52
355.702	6.51
356.066	6.64
356.431	6.69
356.795	6.81
357.16	6.8
357.524	6.7
357.889	6.64
358.253	6.66
358.618	6.71
358.982	6.65
359.346	6.51
359.71	6.47
360.075	6.45
360.439	6.44
360.803	6.48
361.167	6.46
361.531	6.52
361.895	6.4
362.259	6.38
362.623	6.34
362.987	6.33
363.351	6.26
363.714	6.17
364.078	6.11
364.442	5.99
364.806	5.91
365.169	5.94
365.533	5.9
365.896	5.87
366.26	5.8
366.623	5.79
366.987	5.78
367.35	5.8
367.714	5.73
368.077	5.73
368.44	5.66
368.803	5.67
369.167	5.55
369.53	5.49
369.893	5.49
370.256	5.41
370.619	5.36
370.982	5.36
371.345	5.33
371.708	5.31
372.071	5.23
372.434	5.28
372.797	5.23
373.159	5.19
373.522	5.16
373.885	5.08
374.247	5.08
374.61	5.08
374.973	5.02
375.335	5.02
375.698	4.99
376.06	4.94
376.423	4.91
376.785	4.92
377.147	4.94
377.51	4.86
377.872	4.89
378.234	4.91
378.596	4.92
378.958	4.87
379.321	4.83
379.683	4.9
380.045	4.83
380.407	4.79
380.769	4.76
381.13	4.74
381.492	4.75
381.854	4.7
382.216	4.69
382.578	4.67
382.939	4.63
383.301	4.62
383.663	4.58
384.024	4.58
384.386	4.59
384.747	4.57
385.109	4.54
385.47	4.47
385.832	4.37
386.193	4.33
386.554	4.37
386.916	4.35
387.277	4.31
387.638	4.3
387.999	4.29
388.36	4.28
388.721	4.25
389.082	4.22
389.443	4.2
389.804	4.16
390.165	4.12
390.526	4.12
390.887	4.08
391.248	4.1
391.609	4.06
391.969	4.04
392.33	4.04
392.691	4.01
393.051	4.02
393.412	4.05
393.772	4.04
394.133	4
394.493	3.99
394.854	3.97
395.214	3.94
395.574	3.89
395.935	3.86
396.295	3.88
396.655	3.85
397.015	3.86
397.376	3.82
397.736	3.83
398.096	3.8
398.456	3.78
398.816	3.77
399.176	3.74
399.535	3.72
399.895	3.69
400.255	3.67
400.615	3.64
400.975	3.6
401.334	3.57
401.694	3.54
402.054	3.5
402.413	3.47
402.773	3.43
403.132	3.44
403.492	3.44
403.851	3.4
404.211	3.42
404.57	3.35
404.929	3.35
405.288	3.34
405.648	3.32
406.007	3.33
406.366	3.32
406.725	3.38
407.084	3.36
407.443	3.33
407.802	3.35
408.161	3.37
408.52	3.37
408.879	3.35
409.238	3.34
409.596	3.37
409.955	3.38
410.314	3.42
410.673	3.38
411.031	3.37
411.39	3.37
411.748	3.34
412.107	3.34
412.465	3.33
412.824	3.31
413.182	3.3
413.54	3.27
413.899	3.28
414.257	3.23
414.615	3.23
414.974	3.23
415.332	3.2
415.69	3.18
416.048	3.18
416.406	3.17
416.764	3.16
417.122	3.16
417.48	3.14
417.838	3.1
418.195	3.09
418.553	3.06
418.911	3.05
419.269	3.06
419.626	3.07
419.984	3.07
420.342	3.07
420.699	3.07
421.057	3.07
421.414	3.08
421.772	3.05
422.129	3.06
422.486	3.06
422.844	3.06
423.201	3.04
423.558	3.04
423.915	3.04
424.273	3.06
424.63	3.03
424.987	3.03
425.344	3.03
425.701	3.05
426.058	3.06
426.415	3.07
426.772	3.06
427.128	3.05
427.485	3.06
427.842	3.05
428.199	3.04
428.555	3.03
428.912	2.99
429.269	3.01
429.625	2.99
429.982	2.98
430.338	3
430.695	3.01
431.051	3.01
431.407	3
431.764	2.98
432.12	2.97
432.476	2.97
432.832	2.97
433.189	2.97
433.545	2.96
433.901	2.95
434.257	2.95
434.613	2.95
434.969	2.93
435.325	2.96
435.681	2.97
436.036	2.96
436.392	3
436.748	2.99
437.104	2.97
437.459	2.97
437.815	2.96
438.171	2.95
438.526	2.94
438.882	2.97
439.237	2.97
439.593	2.99
439.948	2.99
440.304	2.99
440.659	2.99
441.014	2.99
441.369	2.98
441.725	2.97
442.08	2.97
442.435	2.99
442.79	2.97
443.145	2.95
443.5	2.94
443.855	2.92
444.21	2.92
444.565	2.94
444.92	2.94
445.275	2.95
445.629	2.94
445.984	2.93
446.339	2.91
446.693	2.91
447.048	2.89
447.403	2.9
447.757	2.9
448.112	2.89
448.466	2.89
448.82	2.88
449.175	2.88
449.529	2.89
449.883	2.87
450.238	2.87
450.592	2.86
450.946	2.86
451.3	2.86
451.654	2.87
452.008	2.85
452.362	2.85
452.716	2.84
453.07	2.84
453.424	2.86
453.778	2.86
454.132	2.86
454.486	2.85
454.839	2.85
455.193	2.84
455.547	2.85
455.9	2.87
456.254	2.88
456.607	2.89
456.961	2.88
457.314	2.89
457.668	2.9
458.021	2.91
458.375	2.9
458.728	2.92
459.081	2.92
459.434	2.91
459.787	2.92
460.141	2.91
460.494	2.91
460.847	2.92
461.2	2.91
461.553	2.93
461.906	2.94
462.259	2.94
462.611	2.95
462.964	2.95
463.317	2.94
463.67	2.94
464.022	2.95
464.375	2.94
464.728	2.93
465.08	2.94
465.433	2.94
465.785	2.97
466.138	2.95
466.49	2.95
466.843	2.98
467.195	2.97
467.547	2.98
467.899	2.98
468.252	2.97
468.604	2.98
468.956	2.96
469.308	2.98
469.66	2.96
470.012	2.95
470.364	2.96
470.716	2.98
471.068	2.98
471.42	2.96
471.772	2.99
472.123	3.01
472.475	3
472.827	3
473.178	2.99
473.53	3.01
473.882	2.99
474.233	2.97
474.585	2.97
474.936	2.96
475.288	2.96
475.639	2.96
475.99	2.94
476.342	2.95
476.693	2.93
477.044	2.96
477.395	2.97
477.746	2.96
478.097	2.95
478.448	2.94
478.8	2.94
479.15	2.92
479.501	2.91
479.852	2.9
480.203	2.89
480.554	2.9
480.905	2.9
481.255	2.9
481.606	2.9
481.957	2.91
482.307	2.9
482.658	2.9
483.009	2.9
483.359	2.9
483.709	2.91
484.06	2.91
484.41	2.91
484.761	2.91
485.111	2.91
485.461	2.91
485.811	2.92
486.162	2.92
486.512	2.94
486.862	2.94
487.212	2.95
487.562	2.95
487.912	2.95
488.262	2.95
488.612	2.96
488.961	2.96
489.311	2.96
489.661	2.97
490.011	2.97
490.36	2.97
490.71	2.98
491.06	2.98
491.409	3
491.759	3.01
492.108	3.01
492.458	3.01
492.807	3.02
493.157	3.03
493.506	3.04
493.855	3.03
494.204	3.03
494.554	3.04
494.903	3.05
495.252	3.07
495.601	3.09
495.95	3.1
496.299	3.12
496.648	3.13
496.997	3.15
497.346	3.18
497.695	3.22
498.043	3.25
498.392	3.25
498.741	3.25
499.09	3.26
499.438	3.3
499.787	3.33
500.135	3.33
500.484	3.36
500.832	3.39
501.181	3.4
501.529	3.44
501.878	3.48
502.226	3.5
502.574	3.53
502.923	3.54
503.271	3.59
503.619	3.61
503.967	3.65
504.315	3.66
504.663	3.71
505.011	3.73
505.359	3.76
505.707	3.81
506.055	3.83
506.403	3.87
506.751	3.9
507.098	3.96
507.446	4.03
507.794	4.05
508.141	4.09
508.489	4.14
508.837	4.17
509.184	4.22
509.531	4.27
509.879	4.34
510.226	4.4
510.574	4.45
510.921	4.5
511.268	4.54
511.616	4.62
511.963	4.67
512.31	4.71
512.657	4.75
513.004	4.81
513.351	4.89
513.698	4.97
514.045	5.01
514.392	5.06
514.739	5.12
515.086	5.21
515.432	5.29
515.779	5.34
516.126	5.42
516.473	5.48
516.819	5.54
517.166	5.57
517.512	5.64
517.859	5.69
518.205	5.73
518.552	5.82
518.898	5.85
519.245	5.91
519.591	5.98
519.937	6.05
520.283	6.11
520.629	6.2
520.976	6.25
521.322	6.37
521.668	6.46
522.014	6.54
522.36	6.62
522.706	6.73
523.052	6.84
523.398	6.98
523.743	7.09
524.089	7.22
524.435	7.35
524.781	7.48
525.126	7.61
525.472	7.74
525.817	7.84
526.163	7.95
526.509	8.04
526.854	8.12
527.199	8.22
527.545	8.3
527.89	8.37
528.235	8.47
528.581	8.55
528.926	8.64
529.271	8.74
529.616	8.84
529.961	8.93
530.306	9.04
530.651	9.13
530.996	9.25
531.341	9.36
531.686	9.51
532.031	9.62
532.376	9.75
532.721	9.88
533.065	10.02
533.41	10.17
533.755	10.32
534.099	10.48
534.444	10.62
534.788	10.79
535.133	10.95
535.477	11.11
535.822	11.3
536.166	11.48
536.51	11.68
536.855	11.89
537.199	12.11
537.543	12.33
537.887	12.57
538.231	12.8
538.576	13.04
538.92	13.23
539.264	13.45
539.608	13.67
539.951	13.88
540.295	14.07
540.639	14.25
540.983	14.46
541.327	14.64
541.671	14.83
542.014	14.99
542.358	15.17
542.701	15.36
543.045	15.53
543.389	15.72
543.732	15.93
544.075	16.13
544.419	16.32
544.762	16.55
545.105	16.76
545.449	17
545.792	17.23
546.135	17.51
546.478	17.81
546.821	18.06
547.165	18.32
547.508	18.62
547.851	18.9
548.194	19.19
548.536	19.51
548.879	19.81
549.222	20.15
549.565	20.49
549.908	20.84
550.25	21.15
550.593	21.47
550.936	21.74
551.278	22.06
551.621	22.39
551.963	22.69
552.306	23
552.648	23.26
552.991	23.56
553.333	23.83
553.675	24.08
554.017	24.4
554.36	24.7
554.702	24.98
555.044	25.28
555.386	25.53
555.728	25.79
556.07	26.09
556.412	26.39
556.754	26.66
557.096	26.92
557.438	27.2
557.78	27.51
558.121	27.84
558.463	28.12
558.805	28.42
559.147	28.73
559.488	29.02
559.83	29.26
560.171	29.58
560.513	29.9
560.854	30.13
561.196	30.38
561.537	30.67
561.878	30.99
562.22	31.27
562.561	31.57
562.902	31.86
563.243	32.17
563.584	32.48
563.925	32.72
564.266	32.95
564.607	33.24
564.948	33.47
565.289	33.68
565.63	33.9
565.971	34.09
566.312	34.3
566.653	34.52
566.993	34.82
567.334	34.99
567.675	35.16
568.015	35.45
568.356	35.66
568.696	35.83
569.037	36.02
569.377	36.2
569.718	36.4
570.058	36.6
570.398	36.79
570.739	36.97
571.079	37.18
571.419	37.42
571.759	37.59
572.099	37.81
572.439	38.01
572.779	38.21
573.119	38.42
573.459	38.61
573.799	38.78
574.139	38.94
574.479	39.09
574.819	39.29
575.158	39.42
575.498	39.58
575.838	39.75
576.177	39.88
576.517	40.06
576.856	40.23
577.196	40.38
577.535	40.49
577.875	40.66
578.214	40.76
578.553	40.92
578.893	41.09
579.232	41.19
579.571	41.36
579.91	41.5
580.25	41.62
580.589	41.67
580.928	41.87
581.267	41.99
581.606	42.17
581.945	42.27
582.283	42.42
582.622	42.57
582.961	42.64
583.3	42.78
583.639	42.93
583.977	43.05
584.316	43.22
584.654	43.45
584.993	43.57
585.332	43.73
585.67	43.92
586.008	44.06
586.347	44.2
586.685	44.23
587.024	44.38
587.362	44.46
587.7	44.65
588.038	44.72
588.376	44.91
588.715	45.02
589.053	45.15
589.391	45.25
589.729	45.42
590.067	45.58
590.404	45.75
590.742	45.84
591.08	45.92
591.418	46.01
591.756	46.05
592.093	46.13
592.431	46.25
592.769	46.26
593.106	46.35
593.444	46.43
593.781	46.6
594.119	46.74
594.456	46.86
594.793	46.95
595.131	47.01
595.468	47.09
595.805	47.18
596.143	47.29
596.48	47.36
596.817	47.45
597.154	47.54
597.491	47.62
597.828	47.74
598.165	47.86
598.502	47.93
598.839	48.11
599.176	48.28
599.512	48.4
599.849	48.51
600.186	48.6
600.523	48.76
600.859	48.83
601.196	48.88
601.532	48.97
601.869	49.04
602.205	49.13
602.542	49.18
602.878	49.24
603.215	49.34
603.551	49.41
603.887	49.44
604.223	49.48
604.56	49.55
604.896	49.61
605.232	49.72
605.568	49.76
605.904	49.78
606.24	49.78
606.576	49.8
606.912	49.83
607.248	49.9
607.583	49.9
607.919	49.98
608.255	50.06
608.591	50.18
608.926	50.23
609.262	50.29
609.597	50.35
609.933	50.43
610.268	50.47
610.604	50.55
610.939	50.56
611.275	50.58
611.61	50.59
611.945	50.67
612.281	50.63
612.616	50.67
612.951	50.7
613.286	50.76
613.621	50.85
613.956	50.9
614.291	50.99
614.626	50.96
614.961	50.99
615.296	51
615.631	51
615.966	51.11
616.3	51.2
616.635	51.25
616.97	51.27
617.304	51.28
617.639	51.32
617.973	51.38
618.308	51.45
618.642	51.55
618.977	51.58
619.311	51.65
619.646	51.72
619.98	51.81
620.314	51.85
620.648	51.93
620.983	52.01
621.317	52
621.651	52.18
621.985	52.32
622.319	52.38
622.653	52.42
622.987	52.43
623.321	52.39
623.655	52.44
623.988	52.56
624.322	52.56
624.656	52.61
624.99	52.7
625.323	52.78
625.657	52.77
625.99	52.76
626.324	52.79
626.657	52.86
626.991	52.82
627.324	52.96
627.658	52.94
627.991	52.98
628.324	52.97
628.657	53
628.991	52.94
629.324	53.01
629.657	53.09
629.99	53.13
630.323	53.26
630.656	53.22
630.989	53.21
631.322	53.35
631.655	53.43
631.987	53.46
632.32	53.5
632.653	53.55
632.986	53.66
633.318	53.75
633.651	53.75
633.984	53.83
634.316	53.75
634.649	53.87
634.981	53.87
635.313	54.02
635.646	54.01
635.978	54.05
636.31	54.05
636.643	54
636.975	54
637.307	53.99
637.639	54.03
637.971	54.04
638.303	54.01
638.635	53.91
638.967	53.88
639.299	53.97
639.631	54.03
639.963	53.98
640.295	54.07
640.626	54.15
640.958	54.11
641.29	54.09
641.621	54.08
641.953	54.17
642.285	54.17
642.616	54.26
642.948	54.33
643.279	54.36
643.61	54.43
643.942	54.5
644.273	54.58
644.604	54.61
644.936	54.71
645.267	54.7
645.598	54.8
645.929	54.91
646.26	54.98
646.591	55.11
646.922	55.11
647.253	55.05
647.584	54.92
647.915	54.97
648.245	55.06
648.576	55.08
648.907	55.05
649.238	55.08
649.568	54.94
649.899	54.94
650.229	54.96
650.56	54.98
650.89	55.1
651.221	55.1
651.551	55.09
651.882	55.03
652.212	55.01
652.542	54.92
652.872	54.84
653.203	54.78
653.533	54.71
653.863	54.78
654.193	54.74
654.523	54.88
654.853	54.92
655.183	54.95
655.513	54.92
655.843	55.03
656.172	55.03
656.502	55.2
656.832	55.28
657.162	55.33
657.491	55.41
657.821	55.41
658.15	55.43
658.48	55.45
658.809	55.52
659.139	55.62
659.468	55.69
659.798	55.84
660.127	55.83
660.456	55.8
660.785	55.81
661.115	55.83
661.444	55.79
661.773	55.9
662.102	55.87
662.431	55.93
662.76	55.84
663.089	55.82
663.418	55.82
663.747	55.77
664.076	55.81
664.404	55.79
664.733	55.9
665.062	55.93
665.39	56.06
665.719	56.1
666.048	56.17
666.376	56.24
666.705	56.14
667.033	56.22
667.362	56.38
667.69	56.37
668.018	56.41
668.347	56.6
668.675	56.54
669.003	56.54
669.331	56.54
669.659	56.64
669.987	56.66
670.315	56.56
670.643	56.62
670.971	56.57
671.299	56.48
671.627	56.36
671.955	56.35
672.283	56.32
672.61	56.22
672.938	56.25
673.266	56.35
673.593	56.42
673.921	56.36
674.249	56.38
674.576	56.49
674.904	56.55
675.231	56.54
675.558	56.61
675.886	56.74
676.213	56.81
676.54	56.86
676.867	56.96
677.195	57.1
677.522	57.13
677.849	57.14
678.176	57.17
678.503	57.29
678.83	57.38
679.157	57.5
679.484	57.61
679.81	57.54
680.137	57.46
680.464	57.42
680.791	57.4
681.117	57.3
681.444	57.17
681.771	57.14
682.097	57.09
682.424	57.03
682.75	57.01
683.077	57.12
683.403	57.03
683.729	56.97
684.056	56.96
684.382	56.97
684.708	57.01
685.034	57.14
685.36	57.03
685.686	56.92
686.012	56.78
686.339	56.7
686.664	56.86
686.99	56.96
687.316	57.08
687.642	57.33
687.968	57.31
688.294	57.43
688.619	57.51
688.945	57.59
689.271	57.62
689.596	57.62
689.922	57.49
690.247	57.55
690.573	57.57
690.898	57.63
691.224	57.59
691.549	57.58
691.874	57.51
692.2	57.44
692.525	57.43
692.85	57.57
693.175	57.63
693.5	57.43
693.825	57.39
694.15	57.35
694.475	57.24
694.8	57.36
695.125	57.37
695.45	57.42
695.775	57.37
696.099	57.45
696.424	57.36
696.749	57.34
697.073	57.33
697.398	57.34
697.723	57.37
698.047	57.44
698.372	57.49
698.696	57.59
699.02	57.8
699.345	57.88
699.669	57.96
699.993	57.95
700.318	57.91
700.642	57.95
700.966	58.01
701.29	58.06
701.614	58.06
701.938	58.23
702.262	58.4
702.586	58.32
702.91	58.36
703.234	58.52
703.557	58.69
703.881	58.88
704.205	58.95
704.529	58.91
704.852	59.08
705.176	59.16
705.499	59.07
705.823	58.93
706.146	58.97
706.47	58.85
706.793	59.01
707.117	59.18
707.44	59.28
707.763	59.2
708.086	59.18
708.409	59.03
708.733	58.99
709.056	58.76
709.379	58.88
709.702	58.83
710.025	58.69
710.348	58.78
710.671	58.75
710.993	58.92
711.316	58.93
711.639	58.99
711.962	58.9
712.284	59
712.607	58.98
712.93	58.95
713.252	58.84
713.575	58.75
713.897	58.79
714.22	58.64
714.542	58.74
714.864	58.82
715.187	58.96
715.509	58.89
715.831	58.94
716.153	59.05
716.475	59.15
716.798	59.36
717.12	59.1
717.442	59.05
717.764	58.9
718.085	58.9
718.407	58.65
718.729	58.68
719.051	58.7
719.373	58.86
719.695	58.85
720.016	59.13
720.338	59.16
720.659	59.15
720.981	59.46
721.302	59.52
721.624	59.47
721.945	59.38
722.267	59.46
722.588	59.5
722.909	59.28
723.231	59.15
723.552	59.1
723.873	59.24
724.194	59.27
724.515	59.4
724.836	59.63
725.157	59.78
725.478	59.92
725.799	59.94
726.12	59.71
726.441	59.68
726.762	59.49
727.083	59.37
727.403	59.3
727.724	59.15
728.045	58.88
728.365	58.67
728.686	58.74
729.006	58.68
729.327	58.67
729.647	58.91
729.967	58.93
730.288	58.95
730.608	59.01
730.928	59.01
731.249	58.83
731.569	58.73
731.889	58.59
732.209	58.53
732.529	58.45
732.849	58.65
733.169	58.61
733.489	58.79
733.809	59.13
734.129	59.17
734.448	59.16
734.768	59.46
735.088	59.51
735.408	59.41
735.727	59.42
736.047	59.41
736.366	59.39
736.686	59.35
737.005	59.35
737.325	59.54
737.644	59.44
737.963	59.26
738.283	59.29
738.602	59.39
738.921	59.43
739.24	59.61
739.56	59.71
739.879	59.51
740.198	59.39
740.517	59.26
740.836	59.53
741.155	59.23
741.473	59.13
741.792	59.45
742.111	59.67
742.43	59.6
742.748	59.58
743.067	59.81
743.386	60.06
743.704	60.18
744.023	59.8
744.341	59.67
744.66	60.18
744.978	60.22
745.297	59.93
745.615	60.02
745.933	59.95
746.252	59.73
746.57	60.12
746.888	60.22
747.206	59.89
747.524	59.62
747.842	60.04
748.16	60.17
748.478	60.08
748.796	60
749.114	60.06
749.432	60.04
749.749	59.55
750.067	59.51
750.385	59.4
750.703	59.55
751.02	59.75
751.338	59.84
751.655	59.49
751.973	59.9
752.29	59.79
752.608	59.87
752.925	59.92
753.242	59.84
753.56	59.68
753.877	60.16
754.194	60.14
754.511	60.36
754.828	60.28
755.145	60.19
755.462	60.23
755.779	60.16
756.096	60.32
756.413	60.56
756.73	60.42
757.047	60.57
757.364	60.5
757.68	60.54
757.997	60.36
758.314	60.61
758.63	60.55
758.947	60.74
759.264	60.54
759.58	60.47
759.896	60.81
760.213	60.87
760.529	60.48
760.846	60.64
761.162	60.47
761.478	60.31
761.794	60.37
762.11	60.08
762.426	59.96
762.743	60.12
763.059	59.98
763.375	60.08
763.69	60
764.006	60.23
764.322	60.18
764.638	60.22
764.954	60.53
765.27	60.62
765.585	60.49
765.901	60.57
766.216	60.6
766.532	60.43
766.848	60.37
767.163	60.44
767.478	60.48
767.794	60.08
768.109	60.12
768.424	60.26
768.74	60.65
769.055	60.96
769.37	60.83
769.685	60.8
770	60.91
770.315	61.2
770.63	61.44
770.945	61.84
771.26	61.61
771.575	61.07
771.89	60.89
772.205	60.83
772.52	60.66
772.834	61.28
773.149	61.54
773.464	61.6
773.778	61.91
774.093	61.8
774.407	62
774.722	62.18
775.036	61.96
775.351	62.03
775.665	62.12
775.979	61.93
776.293	62.15
776.608	62.12
776.922	61.79
777.236	61.65
777.55	61.47
777.864	61.96
778.178	62.41
778.492	62.69
778.806	62.94
779.12	63.39
779.434	63.18
779.747	63.17
780.061	63.11
780.375	62.95
780.689	62.67
781.002	63.55
781.316	64
781.629	64.26
781.943	64
782.256	64.01
782.57	63.68
782.883	63.39
783.196	63.2
783.51	63.45
783.823	62.84
784.136	62.79
784.449	62.61
784.762	61.78
785.075	61.82
785.388	61.58
785.701	61.3
786.014	61.06
786.327	60.77
786.64	61.42
786.953	61.71
787.266	62.48
787.578	61.83
787.891	61.29
788.204	61.27
788.516	61.98
788.829	61.87
789.141	62.33
789.454	62.9
789.766	63.26
790.079	63.11
790.391	63.43
790.703	63.34
791.016	63.41
791.328	63.83
791.64	63.89
791.952	64.03
792.264	64.16
792.576	63.73
792.888	64.15
793.2	63.9
793.512	63.91
793.824	63.77
794.136	64.06
794.448	64.16
794.76	63.68
795.071	63.27
795.383	63.03
795.695	62.97
796.006	63.13
796.318	62.9
796.629	62.76
796.941	62.79
797.252	63.32
797.564	63.43
797.875	64.03
798.186	63.72
798.497	63.6
798.809	63.75
799.12	63.58
799.431	62.96
799.742	62.76
800.053	63.04
800.364	62.76
800.675	62.35
800.986	62.36
801.297	63.05
801.608	63.1
801.918	63.04
802.229	63.23
802.54	62.6
802.851	62.61
803.161	62.76
803.472	62.54
803.782	62.19
804.093	62.48
804.403	62.35
804.714	62.48
805.024	62.9
805.334	63.15
805.645	64.12
805.955	64.26
806.265	64.52
806.575	64.44
806.885	63.99
807.195	64.19
807.505	63.82
807.815	63.63
808.125	63.22
808.435	63.63
808.745	64.1
809.055	64.89
809.365	64.21
809.674	64.37
809.984	64.97
810.294	64.88
810.603	64.13
810.913	64.13
811.222	63.78
811.532	63.9
811.841	64.36
812.151	64.42
812.46	64.66
812.769	65.13
813.079	64.92
813.388	65.53
813.697	66.07
814.006	65.69
814.315	65.63
814.624	66.11
814.933	66.84
815.242	66.02
815.551	65.52
815.86	66.95
816.169	67.16
816.478	66.83
816.786	66.79
817.095	66.83
817.404	67.07
817.712	67.19
818.021	67.19
818.33	66.62
818.638	66.07
818.947	66.23
819.255	65.2
819.563	64.82
819.872	64.62
820.18	64.47
820.488	65.01
820.796	64.68
821.105	64.53
821.413	64.29
821.721	64.36
822.029	64.27
822.337	63.98
822.645	64.04
822.953	64.08
823.26	64.11
823.568	64.17
823.876	64.06
824.184	64.16
824.491	64.09
824.799	64.02
825.107	64.07
825.414	64.1
825.722	64.38
826.029	64.54
826.337	64.52
826.644	64.31
826.951	64.14
827.259	64.25
827.566	64.09
827.873	64.2
828.18	64.19
828.488	64.06
828.795	64.04
829.102	63.88
829.409	63.86
829.716	63.64
830.023	63.4
830.329	63.19
830.636	63.14
830.943	62.87
831.25	63.12
831.557	63.3
831.863	62.97
832.17	62.81
832.476	62.69
832.783	62.94
833.089	63.29
833.396	63.31
833.702	63.64
834.009	64.31
834.315	64.02
834.621	64.13
834.928	64.31
835.234	64.53
835.54	64.24
835.846	64.49
836.152	64.68
836.458	64.97
836.764	65.18
837.07	65.03
837.376	65.55
837.682	65.05
837.988	65.42
838.293	65.35
838.599	65.42
838.905	65.39
839.211	65.35
839.516	65.74
839.822	66.8
840.127	66.37
840.433	66.57
840.738	66.51
841.044	66.59
841.349	68.23
841.654	68.67
841.959	69.52
842.265	69.64
842.57	68.37
842.875	68.78
843.18	68.67
843.485	68.73
843.79	67.66
844.095	67.24
844.4	65.97
844.705	65.87
845.01	66.33
845.315	66.65
845.619	65.52
845.924	65.93
846.229	64.79
846.533	65.24
846.838	63.93
847.142	63.11
847.447	62.01
847.751	60.77
848.056	58.56
848.36	57.4
848.664	56.63
848.969	59.71
849.273	59.96
849.577	60.23
849.881	60.17
850.185	61.33
850.489	62.97
850.794	64.4
851.097	64.83
851.401	63.41
851.705	63.11
852.009	63.72
852.313	62.04
852.617	61.3
852.92	62.24
853.224	62.7
853.528	64.28
853.831	64.83
854.135	63.6
854.438	65.86
854.742	66.71
855.045	66.22
855.349	65.27
855.652	63.67
855.955	62.56
856.259	63.1
856.562	62.51
856.865	62.24
857.168	59.55
857.471	59.31
857.774	59.75
858.077	58.55
858.38	58.74
858.683	57.88
858.986	58.84
859.289	59.97
859.592	60.18
859.894	59.47
860.197	61.98
860.5	61.99
860.802	62.65
861.105	63.37
861.407	61.7
861.71	60.27
862.012	60.64
862.315	61.26
862.617	60.44
862.919	60.25
863.222	59
863.524	59.32
863.826	61.52
864.128	62.96
864.43	63.88
864.732	66.07
865.034	69.43
865.336	69.68
865.638	65.66
865.94	65.79
866.242	67.89
866.544	67.19
866.846	68.14
867.147	69.18
867.449	66.89
867.751	70.85
868.052	72.54
868.354	72.39
868.655	73.56
868.957	72.64
869.258	75.97
869.56	77.85
869.861	78.16
870.162	77.06
870.463	74.74
870.765	76.7
871.066	74.34
871.367	72.53
871.668	71.57
871.969	73.78
872.27	73.33
872.571	72.52
872.872	71.18
873.173	68.93
873.473	67.14
873.774	70.41
874.075	70.6
874.376	71.3
874.676	72.16
874.977	68.33
875.277	70.27
875.578	69.67
875.878	68.88
876.179	69.87
876.479	69.64
876.78	70.45
877.08	68.75
877.38	69.7
877.68	70.42
877.981	70.48
878.281	70.32
878.581	71.07
