Data from BA28300_Reflection_00011.txt Node
Date: Mon Nov 18 15:58:23 EST 2019
User: vgr7
Spectrometer: USB2G7710
Scans to average: 3
Trigger mode: 4
Integration Time (sec): 2.000000E-2
Electric dark correction enabled: true
Boxcar width: 10
XAxis mode: Wavelengths
Number of Pixels in Spectrum: 2048
>>>>>Begin Spectral Data<<<<<
177.721	-168.93
178.105	-488.24
178.488	165.51
178.871	-19.29
179.254	-104.15
179.636	56.19
180.019	-144.79
180.402	97.22
180.785	10.06
181.168	172.96
181.55	287.97
181.933	145.73
182.316	176.34
182.698	133.02
183.081	165.16
183.463	278.9
183.846	285.13
184.228	230.69
184.611	447.65
184.993	-3716.9
185.376	-14429.41
185.758	1033.58
186.14	830.1
186.522	576.09
186.904	533.26
187.287	1007.34
187.669	-402.28
188.051	-3385.98
188.433	7748.65
188.815	-358.61
189.197	-408.08
189.579	-315.83
189.961	-771.38
190.342	-1225.99
190.724	-420.49
191.106	-426.23
191.488	-300.27
191.869	-321.9
192.251	-554.6
192.633	-685.95
193.014	732.65
193.396	492.19
193.777	-1013.88
194.159	1751.43
194.54	-14782.35
194.922	1066.85
195.303	-2068.54
195.684	-2787.32
196.065	-192.64
196.447	-192.06
196.828	-481.99
197.209	-223.4
197.59	-606.74
197.971	-376.92
198.352	-73.38
198.733	-70.34
199.114	-63.69
199.495	-81.9
199.876	-37.74
200.257	-40.03
200.638	-5.18
201.018	10.75
201.399	7.55
201.78	-17.06
202.16	-27.97
202.541	-91.36
202.922	-279.93
203.302	-673.02
203.683	-730.73
204.063	-453.51
204.444	-334.68
204.824	-398.5
205.204	-497.45
205.585	-277.71
205.965	-230.35
206.345	-455.09
206.725	-1045.88
207.106	-3841.18
207.486	-1251.59
207.866	-6201.2
208.246	-1019.91
208.626	-607.25
209.006	-312.55
209.386	-404.15
209.766	-413.17
210.145	-273.72
210.525	-195.41
210.905	-94.24
211.285	-51.9
211.664	-26.16
212.044	-13.2
212.424	-8.61
212.803	-36.68
213.183	-17.18
213.562	-38.14
213.942	-17.84
214.321	3.25
214.701	-3.47
215.08	-2.08
215.459	-11.7
215.838	12.21
216.218	-2.78
216.597	-19.11
216.976	-26.62
217.355	-10.69
217.734	-44.29
218.113	-35.28
218.492	-17.94
218.871	-28.86
219.25	-22.09
219.629	-25.54
220.008	-36.43
220.387	-23.39
220.766	-11.59
221.144	-33.62
221.523	-21.25
221.902	-31.39
222.28	-39.2
222.659	-41.39
223.037	-42.41
223.416	-45.8
223.794	-50.68
224.173	-38.22
224.551	-25.82
224.929	-23.17
225.308	-15.68
225.686	-0.86
226.064	-0.76
226.442	-4.83
226.821	-0.13
227.199	-2.46
227.577	-5.36
227.955	-1.73
228.333	-5.17
228.711	-5.69
229.089	-2.26
229.467	-4.4
229.845	-1.36
230.222	-0.82
230.6	1.66
230.978	1.1
231.356	4.94
231.733	3.72
232.111	4.07
232.488	2.12
232.866	0.92
233.243	-0.93
233.621	-3.16
233.998	-3.37
234.376	-3.89
234.753	-5.3
235.13	-4.88
235.508	-3.52
235.885	-4.82
236.262	-2.97
236.639	-2.11
237.016	-2.32
237.393	0.38
237.77	0.9
238.147	2.65
238.524	2.9
238.901	4.55
239.278	4.26
239.655	4.58
240.032	4.26
240.409	4.15
240.785	4.42
241.162	4.66
241.539	4.43
241.915	4.48
242.292	4.27
242.668	4.5
243.045	4.28
243.421	4.67
243.798	4.49
244.174	4.52
244.551	4.19
244.927	4.39
245.303	4.08
245.679	4.28
246.056	3.96
246.432	4.11
246.808	3.88
247.184	3.59
247.56	3.59
247.936	3.59
248.312	3.55
248.688	3.59
249.064	3.77
249.44	3.98
249.815	4.01
250.191	4.14
250.567	4.29
250.943	4.21
251.318	3.92
251.694	4.02
252.069	3.75
252.445	4.12
252.82	3.81
253.196	4.04
253.571	3.6
253.947	3.88
254.322	3.75
254.697	3.56
255.073	3.46
255.448	3.28
255.823	3.29
256.198	3.35
256.573	3.41
256.948	3.46
257.323	3.52
257.698	3.48
258.073	3.63
258.448	3.59
258.823	3.56
259.198	3.66
259.573	3.76
259.948	3.76
260.322	3.63
260.697	3.63
261.072	3.42
261.446	3.44
261.821	3.45
262.195	3.54
262.57	3.57
262.944	3.75
263.319	3.8
263.693	3.79
264.067	3.96
264.442	3.98
264.816	3.93
265.19	3.96
265.564	3.93
265.938	3.71
266.313	3.47
266.687	3.68
267.061	3.58
267.435	3.56
267.809	3.61
268.183	3.64
268.556	3.8
268.93	4.1
269.304	3.97
269.678	4.05
270.051	3.86
270.425	3.98
270.799	4.14
271.172	4.24
271.546	4.26
271.919	4.08
272.293	4.02
272.666	3.93
273.04	3.86
273.413	3.95
273.787	3.94
274.16	3.93
274.533	3.89
274.906	3.92
275.279	3.74
275.653	3.8
276.026	3.75
276.399	3.8
276.772	3.72
277.145	3.66
277.518	3.44
277.891	3.56
278.263	3.5
278.636	3.41
279.009	3.26
279.382	3.49
279.755	3.58
280.127	3.76
280.5	3.87
280.872	3.86
281.245	3.75
281.617	4
281.99	4.23
282.362	4.17
282.735	4.26
283.107	4.44
283.479	4.55
283.852	4.7
284.224	4.6
284.596	4.45
284.968	4.59
285.34	4.63
285.713	4.61
286.085	4.6
286.457	4.49
286.829	4.54
287.201	4.44
287.572	4.4
287.944	4.4
288.316	4.33
288.688	4.24
289.06	4.29
289.431	4.21
289.803	4.27
290.175	4.29
290.546	4.29
290.918	4.32
291.289	4.4
291.661	4.42
292.032	4.53
292.403	4.65
292.775	4.65
293.146	4.77
293.517	4.67
293.889	4.74
294.26	4.75
294.631	4.74
295.002	4.62
295.373	4.63
295.744	4.51
296.115	4.52
296.486	4.49
296.857	4.56
297.228	4.6
297.599	4.41
297.97	4.45
298.34	4.43
298.711	4.44
299.082	4.21
299.452	4.07
299.823	4.19
300.194	4.16
300.564	4.06
300.935	3.97
301.305	4.02
301.676	4.01
302.046	4.12
302.416	4.22
302.787	4.41
303.157	4.37
303.527	4.41
303.897	4.5
304.267	4.73
304.637	4.68
305.008	4.62
305.378	4.91
305.748	4.9
306.117	4.88
306.487	4.84
306.857	4.91
307.227	5.07
307.597	4.95
307.967	5
308.336	5.26
308.706	5.33
309.076	5.34
309.445	5.36
309.815	5.46
310.184	5.47
310.554	5.34
310.923	5.41
311.293	5.53
311.662	5.55
312.031	5.47
312.401	5.46
312.77	5.7
313.139	5.68
313.508	5.75
313.877	5.7
314.246	5.73
314.616	5.72
314.985	5.74
315.353	5.65
315.722	5.7
316.091	5.61
316.46	5.57
316.829	5.72
317.198	5.79
317.567	5.59
317.935	5.57
318.304	5.69
318.672	5.75
319.041	5.67
319.41	5.62
319.778	5.67
320.147	5.97
320.515	5.76
320.883	5.58
321.252	5.63
321.62	5.72
321.988	5.74
322.357	5.88
322.725	5.89
323.093	6.13
323.461	6.2
323.829	6.14
324.197	6.29
324.565	6.27
324.933	6.35
325.301	6.55
325.669	6.57
326.037	6.48
326.405	6.49
326.772	6.6
327.14	6.72
327.508	6.79
327.875	6.61
328.243	6.63
328.61	6.76
328.978	6.78
329.346	6.95
329.713	6.99
330.08	6.98
330.448	6.92
330.815	6.83
331.182	6.8
331.55	6.84
331.917	6.85
332.284	6.88
332.651	6.72
333.018	6.6
333.385	6.65
333.752	6.7
334.119	6.66
334.486	6.51
334.853	6.48
335.22	6.46
335.587	6.48
335.954	6.45
336.32	6.47
336.687	6.49
337.054	6.41
337.42	6.52
337.787	6.63
338.153	6.65
338.52	6.72
338.886	6.65
339.253	6.72
339.619	6.72
339.986	6.72
340.352	6.78
340.718	6.9
341.084	6.89
341.451	6.97
341.817	7.12
342.183	7.21
342.549	7.24
342.915	7.17
343.281	7.22
343.647	7.28
344.013	7.22
344.379	7.12
344.745	7.14
345.11	7
345.476	6.98
345.842	7.03
346.208	6.89
346.573	7.04
346.939	7.15
347.304	7.1
347.67	7.04
348.035	7.05
348.401	6.93
348.766	6.92
349.132	6.89
349.497	6.74
349.862	6.77
350.228	6.68
350.593	6.69
350.958	6.66
351.323	6.64
351.688	6.66
352.053	6.76
352.418	6.8
352.783	6.84
353.148	6.85
353.513	6.9
353.878	6.99
354.243	7
354.608	6.95
354.972	6.96
355.337	7.04
355.702	7.11
356.066	7.21
356.431	7.21
356.795	7.27
357.16	7.3
357.524	7.26
357.889	7.28
358.253	7.3
358.618	7.34
358.982	7.34
359.346	7.25
359.71	7.26
360.075	7.22
360.439	7.26
360.803	7.24
361.167	7.17
361.531	7.15
361.895	7.06
362.259	6.99
362.623	6.99
362.987	6.95
363.351	6.87
363.714	6.93
364.078	6.89
364.442	6.8
364.806	6.81
365.169	6.79
365.533	6.78
365.896	6.78
366.26	6.73
366.623	6.7
366.987	6.75
367.35	6.7
367.714	6.66
368.077	6.59
368.44	6.64
368.803	6.6
369.167	6.53
369.53	6.46
369.893	6.52
370.256	6.5
370.619	6.49
370.982	6.51
371.345	6.36
371.708	6.35
372.071	6.36
372.434	6.29
372.797	6.23
373.159	6.21
373.522	6.21
373.885	6.17
374.247	6.12
374.61	6.04
374.973	6.01
375.335	5.98
375.698	5.99
376.06	5.83
376.423	5.82
376.785	5.9
377.147	5.95
377.51	5.86
377.872	5.86
378.234	5.83
378.596	5.76
378.958	5.72
379.321	5.68
379.683	5.68
380.045	5.68
380.407	5.68
380.769	5.64
381.13	5.58
381.492	5.56
381.854	5.6
382.216	5.6
382.578	5.56
382.939	5.61
383.301	5.57
383.663	5.56
384.024	5.51
384.386	5.45
384.747	5.44
385.109	5.39
385.47	5.36
385.832	5.35
386.193	5.36
386.554	5.37
386.916	5.35
387.277	5.31
387.638	5.29
387.999	5.24
388.36	5.25
388.721	5.21
389.082	5.17
389.443	5.09
389.804	5.07
390.165	5.04
390.526	4.98
390.887	4.96
391.248	4.97
391.609	4.98
391.969	4.95
392.33	4.93
392.691	4.96
393.051	4.91
393.412	4.87
393.772	4.83
394.133	4.8
394.493	4.8
394.854	4.77
395.214	4.76
395.574	4.77
395.935	4.75
396.295	4.76
396.655	4.75
397.015	4.76
397.376	4.75
397.736	4.74
398.096	4.73
398.456	4.7
398.816	4.66
399.176	4.65
399.535	4.64
399.895	4.59
400.255	4.54
400.615	4.55
400.975	4.56
401.334	4.55
401.694	4.53
402.054	4.51
402.413	4.5
402.773	4.44
403.132	4.38
403.492	4.35
403.851	4.33
404.211	4.35
404.57	4.32
404.929	4.32
405.288	4.29
405.648	4.24
406.007	4.23
406.366	4.23
406.725	4.23
407.084	4.23
407.443	4.24
407.802	4.27
408.161	4.24
408.52	4.19
408.879	4.18
409.238	4.17
409.596	4.13
409.955	4.11
410.314	4.15
410.673	4.17
411.031	4.16
411.39	4.14
411.748	4.08
412.107	4.12
412.465	4.09
412.824	4.09
413.182	4.12
413.54	4.1
413.899	4.08
414.257	4.05
414.615	4.02
414.974	3.98
415.332	3.95
415.69	3.94
416.048	3.92
416.406	3.91
416.764	3.9
417.122	3.92
417.48	3.88
417.838	3.87
418.195	3.86
418.553	3.88
418.911	3.88
419.269	3.9
419.626	3.87
419.984	3.87
420.342	3.86
420.699	3.83
421.057	3.84
421.414	3.83
421.772	3.85
422.129	3.84
422.486	3.84
422.844	3.84
423.201	3.82
423.558	3.82
423.915	3.81
424.273	3.81
424.63	3.79
424.987	3.8
425.344	3.79
425.701	3.78
426.058	3.76
426.415	3.75
426.772	3.73
427.128	3.7
427.485	3.69
427.842	3.69
428.199	3.71
428.555	3.69
428.912	3.68
429.269	3.65
429.625	3.63
429.982	3.63
430.338	3.62
430.695	3.63
431.051	3.65
431.407	3.66
431.764	3.65
432.12	3.64
432.476	3.64
432.832	3.65
433.189	3.66
433.545	3.66
433.901	3.66
434.257	3.67
434.613	3.7
434.969	3.71
435.325	3.7
435.681	3.7
436.036	3.71
436.392	3.72
436.748	3.71
437.104	3.72
437.459	3.74
437.815	3.73
438.171	3.72
438.526	3.72
438.882	3.71
439.237	3.72
439.593	3.73
439.948	3.72
440.304	3.7
440.659	3.7
441.014	3.7
441.369	3.69
441.725	3.68
442.08	3.68
442.435	3.68
442.79	3.69
443.145	3.68
443.5	3.67
443.855	3.66
444.21	3.65
444.565	3.64
444.92	3.63
445.275	3.63
445.629	3.63
445.984	3.62
446.339	3.62
446.693	3.59
447.048	3.58
447.403	3.58
447.757	3.57
448.112	3.56
448.466	3.53
448.82	3.54
449.175	3.55
449.529	3.55
449.883	3.54
450.238	3.51
450.592	3.51
450.946	3.49
451.3	3.49
451.654	3.5
452.008	3.49
452.362	3.49
452.716	3.48
453.07	3.49
453.424	3.49
453.778	3.49
454.132	3.5
454.486	3.49
454.839	3.48
455.193	3.5
455.547	3.5
455.9	3.52
456.254	3.49
456.607	3.48
456.961	3.45
457.314	3.44
457.668	3.47
458.021	3.46
458.375	3.49
458.728	3.49
459.081	3.47
459.434	3.47
459.787	3.47
460.141	3.47
460.494	3.46
460.847	3.47
461.2	3.46
461.553	3.47
461.906	3.49
462.259	3.52
462.611	3.52
462.964	3.53
463.317	3.51
463.67	3.54
464.022	3.57
464.375	3.58
464.728	3.6
465.08	3.6
465.433	3.61
465.785	3.6
466.138	3.62
466.49	3.66
466.843	3.67
467.195	3.71
467.547	3.72
467.899	3.72
468.252	3.72
468.604	3.72
468.956	3.73
469.308	3.73
469.66	3.71
470.012	3.71
470.364	3.72
470.716	3.74
471.068	3.73
471.42	3.71
471.772	3.74
472.123	3.73
472.475	3.75
472.827	3.74
473.178	3.76
473.53	3.74
473.882	3.71
474.233	3.72
474.585	3.68
474.936	3.65
475.288	3.64
475.639	3.64
475.99	3.67
476.342	3.65
476.693	3.67
477.044	3.68
477.395	3.67
477.746	3.66
478.097	3.64
478.448	3.64
478.8	3.63
479.15	3.59
479.501	3.61
479.852	3.58
480.203	3.58
480.554	3.59
480.905	3.58
481.255	3.59
481.606	3.59
481.957	3.61
482.307	3.62
482.658	3.64
483.009	3.64
483.359	3.64
483.709	3.65
484.06	3.65
484.41	3.66
484.761	3.66
485.111	3.67
485.461	3.67
485.811	3.67
486.162	3.69
486.512	3.7
486.862	3.7
487.212	3.71
487.562	3.72
487.912	3.72
488.262	3.72
488.612	3.73
488.961	3.74
489.311	3.74
489.661	3.74
490.011	3.74
490.36	3.73
490.71	3.74
491.06	3.75
491.409	3.74
491.759	3.74
492.108	3.75
492.458	3.75
492.807	3.77
493.157	3.79
493.506	3.78
493.855	3.8
494.204	3.81
494.554	3.83
494.903	3.82
495.252	3.84
495.601	3.86
495.95	3.89
496.299	3.89
496.648	3.9
496.997	3.92
497.346	3.96
497.695	3.99
498.043	4.02
498.392	4.02
498.741	4.04
499.09	4.07
499.438	4.08
499.787	4.1
500.135	4.12
500.484	4.14
500.832	4.17
501.181	4.18
501.529	4.22
501.878	4.26
502.226	4.31
502.574	4.33
502.923	4.37
503.271	4.4
503.619	4.46
503.967	4.51
504.315	4.55
504.663	4.59
505.011	4.64
505.359	4.68
505.707	4.75
506.055	4.8
506.403	4.84
506.751	4.92
507.098	4.99
507.446	5.02
507.794	5.05
508.141	5.12
508.489	5.17
508.837	5.23
509.184	5.28
509.531	5.33
509.879	5.42
510.226	5.46
510.574	5.5
510.921	5.52
511.268	5.57
511.616	5.63
511.963	5.69
512.31	5.75
512.657	5.82
513.004	5.89
513.351	5.98
513.698	6.05
514.045	6.09
514.392	6.16
514.739	6.25
515.086	6.33
515.432	6.39
515.779	6.45
516.126	6.5
516.473	6.58
516.819	6.67
517.166	6.72
517.512	6.79
517.859	6.86
518.205	6.94
518.552	7.02
518.898	7.07
519.245	7.14
519.591	7.2
519.937	7.25
520.283	7.31
520.629	7.38
520.976	7.46
521.322	7.54
521.668	7.62
522.014	7.71
522.36	7.84
522.706	7.95
523.052	8.1
523.398	8.24
523.743	8.36
524.089	8.49
524.435	8.59
524.781	8.72
525.126	8.84
525.472	8.94
525.817	9.05
526.163	9.14
526.509	9.25
526.854	9.34
527.199	9.42
527.545	9.52
527.89	9.61
528.235	9.71
528.581	9.82
528.926	9.91
529.271	10.01
529.616	10.12
529.961	10.21
530.306	10.31
530.651	10.42
530.996	10.54
531.341	10.67
531.686	10.82
532.031	10.97
532.376	11.13
532.721	11.29
533.065	11.44
533.41	11.6
533.755	11.76
534.099	11.95
534.444	12.14
534.788	12.3
535.133	12.48
535.477	12.64
535.822	12.83
536.166	13.04
536.51	13.25
536.855	13.49
537.199	13.75
537.543	14.02
537.887	14.26
538.231	14.53
538.576	14.79
538.92	15.05
539.264	15.29
539.608	15.53
539.951	15.76
540.295	15.96
540.639	16.19
540.983	16.42
541.327	16.64
541.671	16.88
542.014	17.11
542.358	17.33
542.701	17.58
543.045	17.81
543.389	18.07
543.732	18.31
544.075	18.55
544.419	18.8
544.762	19.05
545.105	19.32
545.449	19.61
545.792	19.9
546.135	20.19
546.478	20.54
546.821	20.86
547.165	21.22
547.508	21.6
547.851	21.95
548.194	22.27
548.536	22.6
548.879	22.95
549.222	23.3
549.565	23.65
549.908	23.99
550.25	24.34
550.593	24.67
550.936	25.03
551.278	25.35
551.621	25.73
551.963	26.1
552.306	26.45
552.648	26.78
552.991	27.2
553.333	27.54
553.675	27.87
554.017	28.21
554.36	28.54
554.702	28.85
555.044	29.17
555.386	29.55
555.728	29.84
556.07	30.16
556.412	30.45
556.754	30.76
557.096	31.09
557.438	31.39
557.78	31.69
558.121	32.03
558.463	32.41
558.805	32.72
559.147	33.04
559.488	33.37
559.83	33.67
560.171	33.92
560.513	34.27
560.854	34.57
561.196	34.9
561.537	35.21
561.878	35.47
562.22	35.79
562.561	36.1
562.902	36.46
563.243	36.74
563.584	37.04
563.925	37.36
564.266	37.59
564.607	37.86
564.948	38.16
565.289	38.44
565.63	38.63
565.971	38.81
566.312	39.11
566.653	39.33
566.993	39.59
567.334	39.79
567.675	40.03
568.015	40.24
568.356	40.44
568.696	40.64
569.037	40.93
569.377	41.15
569.718	41.32
570.058	41.51
570.398	41.74
570.739	41.9
571.079	42.13
571.419	42.4
571.759	42.6
572.099	42.8
572.439	42.95
572.779	43.16
573.119	43.39
573.459	43.5
573.799	43.71
574.139	43.85
574.479	44.07
574.819	44.18
575.158	44.35
575.498	44.52
575.838	44.74
576.177	44.86
576.517	45.05
576.856	45.21
577.196	45.4
577.535	45.56
577.875	45.82
578.214	45.98
578.553	46.11
578.893	46.3
579.232	46.48
579.571	46.74
579.91	46.87
580.25	47.02
580.589	47.24
580.928	47.39
581.267	47.52
581.606	47.68
581.945	47.89
582.283	48.06
582.622	48.24
582.961	48.33
583.3	48.51
583.639	48.63
583.977	48.87
584.316	49.04
584.654	49.13
584.993	49.32
585.332	49.5
585.67	49.58
586.008	49.75
586.347	49.89
586.685	50
587.024	50.16
587.362	50.33
587.7	50.45
588.038	50.66
588.376	50.74
588.715	50.83
589.053	50.98
589.391	51.11
589.729	51.21
590.067	51.34
590.404	51.49
590.742	51.62
591.08	51.66
591.418	51.73
591.756	51.9
592.093	51.95
592.431	51.97
592.769	52.11
593.106	52.18
593.444	52.25
593.781	52.34
594.119	52.51
594.456	52.53
594.793	52.56
595.131	52.55
595.468	52.74
595.805	52.85
596.143	52.9
596.48	52.94
596.817	53.05
597.154	53.17
597.491	53.25
597.828	53.33
598.165	53.46
598.502	53.49
598.839	53.54
599.176	53.61
599.512	53.75
599.849	53.89
600.186	53.97
600.523	54.14
600.859	54.22
601.196	54.24
601.532	54.34
601.869	54.47
602.205	54.6
602.542	54.68
602.878	54.78
603.215	54.84
603.551	54.98
603.887	55.04
604.223	55.06
604.56	55.17
604.896	55.17
605.232	55.28
605.568	55.41
605.904	55.46
606.24	55.5
606.576	55.58
606.912	55.6
607.248	55.74
607.583	55.74
607.919	55.76
608.255	55.87
608.591	56.04
608.926	56.16
609.262	56.23
609.597	56.28
609.933	56.28
610.268	56.34
610.604	56.4
610.939	56.47
611.275	56.59
611.61	56.54
611.945	56.67
612.281	56.67
612.616	56.76
612.951	56.94
613.286	57.08
613.621	57.16
613.956	57.3
614.291	57.24
614.626	57.34
614.961	57.45
615.296	57.48
615.631	57.5
615.966	57.54
616.3	57.62
616.635	57.62
616.97	57.69
617.304	57.78
617.639	57.79
617.973	57.93
618.308	57.89
618.642	57.92
618.977	58.04
619.311	58.04
619.646	57.98
619.98	57.96
620.314	58.07
620.648	58.12
620.983	58.08
621.317	58.17
621.651	58.17
621.985	58.2
622.319	58.24
622.653	58.29
622.987	58.28
623.321	58.27
623.655	58.36
623.988	58.43
624.322	58.49
624.656	58.54
624.99	58.44
625.323	58.43
625.657	58.51
625.99	58.5
626.324	58.52
626.657	58.59
626.991	58.68
627.324	58.63
627.658	58.6
627.991	58.7
628.324	58.76
628.657	58.84
628.991	58.99
629.324	59.02
629.657	58.99
629.99	59.04
630.323	59.05
630.656	59.07
630.989	59.1
631.322	59.09
631.655	59.11
631.987	59.12
632.32	59.21
632.653	59.3
632.986	59.39
633.318	59.56
633.651	59.65
633.984	59.65
634.316	59.72
634.649	59.77
634.981	59.72
635.313	59.76
635.646	59.84
635.978	59.79
636.31	59.85
636.643	59.97
636.975	60.03
637.307	60.21
637.639	60.16
637.971	60.21
638.303	60.3
638.635	60.36
638.967	60.43
639.299	60.49
639.631	60.51
639.963	60.48
640.295	60.4
640.626	60.41
640.958	60.47
641.29	60.42
641.621	60.5
641.953	60.67
642.285	60.75
642.616	60.78
642.948	60.81
643.279	60.85
643.61	60.76
643.942	60.84
644.273	60.83
644.604	60.93
644.936	61.09
645.267	61
645.598	60.99
645.929	61.04
646.26	61.08
646.591	61.01
646.922	61.05
647.253	61.05
647.584	61.01
647.915	60.94
648.245	60.99
648.576	60.86
648.907	60.93
649.238	60.95
649.568	60.95
649.899	60.94
650.229	61.1
650.56	61.11
650.89	61.07
651.221	61.08
651.551	61.02
651.882	60.94
652.212	61.08
652.542	61.1
652.872	61.16
653.203	61.27
653.533	61.49
653.863	61.56
654.193	61.67
654.523	61.85
654.853	61.84
655.183	61.92
655.513	62.18
655.843	62.1
656.172	62.05
656.502	62.04
656.832	62.09
657.162	62.09
657.491	62.25
657.821	62.35
658.15	62.44
658.48	62.58
658.809	62.66
659.139	62.58
659.468	62.54
659.798	62.58
660.127	62.59
660.456	62.5
660.785	62.49
661.115	62.52
661.444	62.44
661.773	62.59
662.102	62.6
662.431	62.58
662.76	62.61
663.089	62.59
663.418	62.6
663.747	62.48
664.076	62.42
664.404	62.45
664.733	62.39
665.062	62.43
665.39	62.41
665.719	62.3
666.048	62.41
666.376	62.58
666.705	62.5
667.033	62.49
667.362	62.51
667.69	62.42
668.018	62.49
668.347	62.53
668.675	62.44
669.003	62.45
669.331	62.28
669.659	62.34
669.987	62.45
670.315	62.51
670.643	62.64
670.971	62.74
671.299	62.69
671.627	62.65
671.955	62.6
672.283	62.67
672.61	62.81
672.938	62.85
673.266	62.95
673.593	63.09
673.921	63.06
674.249	62.99
674.576	63.15
674.904	63.12
675.231	63.16
675.558	63.24
675.886	63.13
676.213	63.19
676.54	63.12
676.867	63.17
677.195	63.24
677.522	63.34
677.849	63.22
678.176	63.12
678.503	63.23
678.83	63.26
679.157	63.26
679.484	63.24
679.81	63.22
680.137	63.15
680.464	63.13
680.791	63.24
681.117	63.19
681.444	63.09
681.771	63.13
682.097	63.15
682.424	63.16
682.75	63.26
683.077	63.35
683.403	63.37
683.729	63.42
684.056	63.41
684.382	63.4
684.708	63.49
685.034	63.68
685.36	63.67
685.686	63.68
686.012	63.77
686.339	63.7
686.664	63.56
686.99	63.64
687.316	63.76
687.642	63.73
687.968	63.87
688.294	64.05
688.619	63.92
688.945	63.89
689.271	63.84
689.596	63.83
689.922	63.84
690.247	63.85
690.573	63.76
690.898	63.9
691.224	63.86
691.549	63.79
691.874	63.7
692.2	63.61
692.525	63.66
692.85	63.71
693.175	63.8
693.5	63.9
693.825	63.9
694.15	63.69
694.475	63.6
694.8	63.58
695.125	63.45
695.45	63.54
695.775	63.63
696.099	63.63
696.424	63.82
696.749	63.91
697.073	64.1
697.398	64.11
697.723	64.07
698.047	64.1
698.372	64.11
698.696	64.13
699.02	64.21
699.345	64.15
699.669	64.13
699.993	64.08
700.318	64.25
700.642	64.13
700.966	64.22
701.29	64.29
701.614	64.41
701.938	64.52
702.262	64.62
702.586	64.66
702.91	64.77
703.234	64.72
703.557	64.72
703.881	64.53
704.205	64.57
704.529	64.51
704.852	64.47
705.176	64.43
705.499	64.49
705.823	64.48
706.146	64.38
706.47	64.05
706.793	64.21
707.117	64.17
707.44	64.22
707.763	64.29
708.086	64.19
708.409	64.09
708.733	63.98
709.056	63.92
709.379	63.93
709.702	64.02
710.025	64
710.348	63.83
710.671	63.85
710.993	63.71
711.316	63.7
711.639	63.79
711.962	63.89
712.284	63.93
712.607	64
712.93	63.99
713.252	64.24
713.575	64.13
713.897	64.07
714.22	64.14
714.542	64.17
714.864	64.36
715.187	64.53
715.509	64.53
715.831	64.48
716.153	64.37
716.475	64.37
716.798	64.25
717.12	64.49
717.442	64.61
717.764	64.84
718.085	64.92
718.407	64.81
718.729	64.71
719.051	64.54
719.373	64.53
719.695	64.73
720.016	64.89
720.338	65.11
720.659	65.1
720.981	65.28
721.302	65.23
721.624	65.25
721.945	65.11
722.267	65.05
722.588	64.95
722.909	65.05
723.231	64.82
723.552	64.98
723.873	64.89
724.194	64.83
724.515	64.86
724.836	64.76
725.157	64.76
725.478	64.89
725.799	65.13
726.12	65.01
726.441	64.88
726.762	64.62
727.083	64.45
727.403	64.65
727.724	64.46
728.045	64.38
728.365	64.45
728.686	64.41
729.006	64.67
729.327	64.92
729.647	64.81
729.967	65.01
730.288	64.84
730.608	64.71
730.928	64.81
731.249	64.65
731.569	64.69
731.889	64.79
732.209	64.96
732.529	64.87
732.849	65.01
733.169	65.02
733.489	65.26
733.809	65.23
734.129	65.12
734.448	65.05
734.768	65.06
735.088	64.91
735.408	65.06
735.727	65.03
736.047	65.14
736.366	65.34
736.686	65.26
737.005	65.43
737.325	65.58
737.644	65.64
737.963	65.7
738.283	65.8
738.602	65.65
738.921	65.68
739.24	65.93
739.56	65.94
739.879	65.97
740.198	65.91
740.517	66.09
740.836	66.24
741.155	66.33
741.473	66.41
741.792	66.56
742.111	66.91
742.43	66.88
742.748	66.44
743.067	66.26
743.386	66.28
743.704	66.19
744.023	66.26
744.341	66.32
744.66	66.33
744.978	66.25
745.297	66.6
745.615	66.83
745.933	66.61
746.252	66.41
746.57	66.63
746.888	66.46
747.206	65.94
747.524	65.65
747.842	66
748.16	66.16
748.478	66.17
748.796	65.98
749.114	66
749.432	66.07
749.749	66.14
750.067	66.43
750.385	66.12
750.703	66.01
751.02	65.78
751.338	65.84
751.655	66.03
751.973	65.94
752.29	65.72
752.608	66.01
752.925	66
753.242	65.91
753.56	66
753.877	66.47
754.194	66.84
754.511	66.22
754.828	66.19
755.145	66.13
755.462	65.38
755.779	65.52
756.096	65.75
756.413	65.81
756.73	65.77
757.047	66
757.364	66
757.68	66.18
757.997	66.15
758.314	66.08
758.63	66.11
758.947	65.78
759.264	65.49
759.58	65.44
759.896	65.36
760.213	65.39
760.529	65.57
760.846	65.32
761.162	65.5
761.478	65.74
761.794	65.45
762.11	65.94
762.426	66.11
762.743	66.4
763.059	66.15
763.375	66.15
763.69	66.16
764.006	66.29
764.322	66.44
764.638	66.48
764.954	66.44
765.27	66.39
765.585	66.45
765.901	66.41
766.216	66.67
766.532	66.71
766.848	66.59
767.163	66.55
767.478	66.57
767.794	66.7
768.109	66.21
768.424	66.39
768.74	66.15
769.055	65.92
769.37	65.7
769.685	66.04
770	66.23
770.315	66.36
770.63	66.52
770.945	66.1
771.26	66.02
771.575	65.78
771.89	65.65
772.205	65.76
772.52	65.63
772.834	65.87
773.149	66.21
773.464	66.3
773.778	66.18
774.093	66.21
774.407	66.25
774.722	66.48
775.036	66.59
775.351	67.05
775.665	66.67
775.979	66
776.293	65.86
776.608	65.21
776.922	65.35
777.236	65.15
777.55	65.33
777.864	65.36
778.178	65.85
778.492	65.95
778.806	65.99
779.12	66.61
779.434	66.52
779.747	66.29
780.061	66.28
780.375	66.62
780.689	66.72
781.002	66.72
781.316	66.81
781.629	66.94
781.943	66.57
782.256	67.12
782.57	67.77
782.883	67.72
783.196	67.87
783.51	67.86
783.823	67.83
784.136	67.22
784.449	67.44
784.762	67.37
785.075	67.94
785.388	67.81
785.701	67.82
786.014	67.12
786.327	67.4
786.64	67.53
786.953	66.77
787.266	67.31
787.578	66.92
787.891	67.42
788.204	67.56
788.516	67.98
788.829	67.97
789.141	68.18
789.454	68.53
789.766	68.7
790.079	68.53
790.391	68.44
790.703	69.04
791.016	68.4
791.328	68.39
791.64	67.8
791.952	67.81
792.264	67.49
792.576	67.95
792.888	67.83
793.2	67.82
793.512	68.45
793.824	67.54
794.136	67.93
794.448	67.35
794.76	67.42
795.071	67.39
795.383	67.01
795.695	66.62
796.006	66.54
796.318	66.51
796.629	66.68
796.941	66.71
797.252	66.85
797.564	67.76
797.875	67.62
798.186	67.64
798.497	67.85
798.809	67.57
799.12	67.31
799.431	67.09
799.742	66.78
800.053	66.51
800.364	67.16
800.675	66.56
800.986	66.57
801.297	66.3
801.608	66.5
801.918	66.3
802.229	66.41
802.54	65.96
802.851	66.68
803.161	66.48
803.472	65.78
803.782	65.65
804.093	64.96
804.403	64.91
804.714	64.49
805.024	64.23
805.334	64.65
805.645	64.54
805.955	64.12
806.265	64.17
806.575	64
806.885	64.02
807.195	64.59
807.505	65.07
807.815	65.47
808.125	64.74
808.435	65.26
808.745	65.61
809.055	66.03
809.365	64.68
809.674	65.34
809.984	65.79
810.294	65.44
810.603	65.73
810.913	65.66
811.222	66.39
811.532	66.51
811.841	66.77
812.151	67.41
812.46	68
812.769	68.84
813.079	69.61
813.388	69.58
813.697	69.68
814.006	68.73
814.315	67.85
814.624	68.41
814.933	68.27
815.242	67.71
815.551	67.51
815.86	67.86
816.169	67.37
816.478	67.51
816.786	67.03
817.095	67.09
817.404	66.63
817.712	66.42
818.021	66.58
818.33	66.06
818.638	65.93
818.947	66.56
819.255	66.51
819.563	66.52
819.872	66.75
820.18	67.29
820.488	67.66
820.796	68.1
821.105	68.16
821.413	68.24
821.721	68.24
822.029	68.27
822.337	68.38
822.645	68.45
822.953	68.41
823.26	68.8
823.568	68.93
823.876	69.14
824.184	69.19
824.491	69.28
824.799	69.2
825.107	69.21
825.414	69.16
825.722	69.24
826.029	69.13
826.337	69.11
826.644	69.03
826.951	68.98
827.259	68.96
827.566	68.9
827.873	68.81
828.18	68.92
828.488	69.07
828.795	68.96
829.102	68.6
829.409	68.47
829.716	67.92
830.023	67.68
830.329	67.75
830.636	67.63
830.943	67.27
831.25	67.68
831.557	67.75
831.863	67.65
832.17	67.5
832.476	67.84
832.783	67.9
833.089	67.82
833.396	67.61
833.702	67.32
834.009	67.15
834.315	67.25
834.621	67.39
834.928	67.36
835.234	67.36
835.54	67.97
835.846	68.7
836.152	69.32
836.458	69.26
836.764	68.8
837.07	68.51
837.376	68.95
837.682	68.43
837.988	68.48
838.293	68.71
838.599	69.1
838.905	68.84
839.211	68.6
839.516	68.55
839.822	69.17
840.127	68.93
840.433	69.13
840.738	68.56
841.044	68.78
841.349	68.93
841.654	69.13
841.959	68.99
842.265	68.45
842.57	68.02
842.875	67.72
843.18	68.54
843.485	69.43
843.79	68.96
844.095	69.56
844.4	70.06
844.705	69.74
845.01	67.86
845.315	68.01
845.619	67.41
845.924	67.8
846.229	68.18
846.533	68.67
846.838	68.34
847.142	68.27
847.447	67.72
847.751	66.76
848.056	67.89
848.36	68.47
848.664	67.86
848.969	67.94
849.273	70.55
849.577	69.42
849.881	68.92
850.185	68.82
850.489	69.34
850.794	68.12
851.097	66.5
851.401	70.25
851.705	67.11
852.009	68.79
852.313	64.92
852.617	63.69
852.92	63.31
853.224	64.51
853.528	65.64
853.831	65.52
854.135	65.07
854.438	66.18
854.742	63.56
855.045	64.76
855.349	65.85
855.652	63.8
855.955	63.27
856.259	63.62
856.562	61.65
856.865	62.9
857.168	62.71
857.471	63.69
857.774	60.46
858.077	65.11
858.38	64.21
858.683	67.89
858.986	69.44
859.289	71.53
859.592	71.45
859.894	71.22
860.197	71.22
860.5	73.31
860.802	69.68
861.105	71.6
861.407	71.9
861.71	71.83
862.012	73.81
862.315	74.36
862.617	71.75
862.919	73.52
863.222	72.93
863.524	73.63
863.826	74.6
864.128	73.21
864.43	70.96
864.732	71.39
865.034	71.42
865.336	69.28
865.638	68.08
865.94	64.79
866.242	65.35
866.544	63.27
866.846	62.91
867.147	64.29
867.449	64.15
867.751	65.19
868.052	64.27
868.354	62.59
868.655	65.59
868.957	68.07
869.258	69.05
869.56	68.47
869.861	68.15
870.162	67.67
870.463	71.49
870.765	73.43
871.066	71.87
871.367	70
871.668	72.76
871.969	71.6
872.27	73.64
872.571	74.04
872.872	73.91
873.173	72.56
873.473	71.18
873.774	75.12
874.075	72.08
874.376	72.39
874.676	71.28
874.977	68.86
875.277	69.33
875.578	69.56
875.878	68.62
876.179	68.62
876.479	68.27
876.78	66.44
877.08	65.5
877.38	66.33
877.68	67.76
877.981	65.85
878.281	67.44
878.581	69.42
