Data from BA28299_Reflection_00003.txt Node
Date: Mon Nov 18 15:42:10 EST 2019
User: vgr7
Spectrometer: USB2G7710
Scans to average: 3
Trigger mode: 4
Integration Time (sec): 2.000000E-2
Electric dark correction enabled: true
Boxcar width: 10
XAxis mode: Wavelengths
Number of Pixels in Spectrum: 2048
>>>>>Begin Spectral Data<<<<<
177.721	-131.34
178.105	-428.74
178.488	862.56
178.871	-392.42
179.254	131.96
179.636	-5.61
180.019	-64.4
180.402	107.69
180.785	-886.39
181.168	1235.42
181.55	-267.52
181.933	166.67
182.316	106.93
182.698	67.81
183.081	60.24
183.463	69.89
183.846	110.1
184.228	517.99
184.611	8166.67
184.993	-179.86
185.376	-102.14
185.758	-150.54
186.14	-144.26
186.522	-123.59
186.904	-52.57
187.287	-129.25
187.669	-25.59
188.051	-39.07
188.433	-26.53
188.815	-7.93
189.197	-8
189.579	-30.99
189.961	-64.17
190.342	-45.89
190.724	-30.6
191.106	-47.56
191.488	-47.42
191.869	-36.37
192.251	-62.96
192.633	-71.51
193.014	-77.98
193.396	-70.21
193.777	-68.3
194.159	-77.71
194.54	-69.34
194.922	-60.36
195.303	-57.6
195.684	-63.37
196.065	-42.67
196.447	-50.35
196.828	-50.12
197.209	-43.45
197.59	-53.71
197.971	-52.5
198.352	-49.1
198.733	-53.53
199.114	-46.99
199.495	-40.03
199.876	-32.8
200.257	-26.06
200.638	-4.24
201.018	-2.96
201.399	-11.92
201.78	-3.72
202.16	-0.87
202.541	-5.12
202.922	-25.5
203.302	-24.98
203.683	-26.96
204.063	-38.41
204.444	-32.8
204.824	-33.38
205.204	-41.32
205.585	-30.11
205.965	-27.53
206.345	-37.31
206.725	-44.8
207.106	-65.92
207.486	-91.69
207.866	-112.81
208.246	-106.67
208.626	-125.67
209.006	-104.39
209.386	-99.37
209.766	-109.33
210.145	-118.08
210.525	-84.2
210.905	-61.74
211.285	-50.78
211.664	-47.7
212.044	-51.04
212.424	-43.77
212.803	-48.01
213.183	-35.05
213.562	-35.45
213.942	-26.21
214.321	-28.27
214.701	-35.92
215.08	-53.22
215.459	-68.32
215.838	-87.86
216.218	-70.79
216.597	-70.91
216.976	-70.96
217.355	-80.3
217.734	-82.43
218.113	-72.57
218.492	-94.18
218.871	-112.44
219.25	-117.11
219.629	-122.3
220.008	-114.18
220.387	-127.11
220.766	-132.62
221.144	-150.75
221.523	-170.4
221.902	-145.44
222.28	-126.06
222.659	-105.3
223.037	-82.72
223.416	-79.2
223.794	-62.73
224.173	-61.74
224.551	-48.35
224.929	-48.97
225.308	-38.37
225.686	-31.54
226.064	-29.94
226.442	-25.09
226.821	-19.76
227.199	-19.59
227.577	-18
227.955	-14.3
228.333	-10.13
228.711	-5.54
229.089	-2.42
229.467	-1.58
229.845	0.66
230.222	1.17
230.6	0.21
230.978	-0.57
231.356	1.19
231.733	0.09
232.111	1.12
232.488	1.36
232.866	3.21
233.243	1.33
233.621	-0.76
233.998	0.72
234.376	-0.41
234.753	-0.77
235.13	0.06
235.508	1.22
235.885	-1.48
236.262	-3.62
236.639	-2.36
237.016	-3.4
237.393	-1.87
237.77	-3.44
238.147	-2.48
238.524	-1.81
238.901	-1.19
239.278	-0.51
239.655	0.53
240.032	0.13
240.409	-0.43
240.785	-0.71
241.162	0.17
241.539	1.18
241.915	1.39
242.292	1.76
242.668	2.61
243.045	2.82
243.421	2.76
243.798	3.13
244.174	3.02
244.551	2.44
244.927	2.73
245.303	2.78
245.679	3
246.056	2.91
246.432	2.97
246.808	3.15
247.184	2.87
247.56	2.79
247.936	2.75
248.312	2.91
248.688	3.16
249.064	2.85
249.44	2.81
249.815	2.76
250.191	2.81
250.567	2.43
250.943	2.39
251.318	2.3
251.694	2.1
252.069	2.57
252.445	2.63
252.82	2.62
253.196	2.44
253.571	2.39
253.947	2.5
254.322	2.66
254.697	2.43
255.073	2.38
255.448	2.13
255.823	2.25
256.198	2.19
256.573	2.24
256.948	2.61
257.323	2.61
257.698	2.73
258.073	2.71
258.448	2.75
258.823	2.74
259.198	2.7
259.573	2.77
259.948	2.6
260.322	2.69
260.697	2.52
261.072	2.48
261.446	2.59
261.821	2.5
262.195	2.61
262.57	2.66
262.944	2.69
263.319	2.78
263.693	2.82
264.067	3.01
264.442	2.91
264.816	2.76
265.19	2.75
265.564	2.58
265.938	2.43
266.313	2.35
266.687	2.46
267.061	2.44
267.435	2.52
267.809	2.6
268.183	2.59
268.556	2.64
268.93	2.76
269.304	2.66
269.678	2.85
270.051	2.56
270.425	2.49
270.799	2.57
271.172	2.64
271.546	2.68
271.919	2.47
272.293	2.4
272.666	2.41
273.04	2.34
273.413	2.4
273.787	2.46
274.16	2.44
274.533	2.43
274.906	2.47
275.279	2.41
275.653	2.42
276.026	2.43
276.399	2.5
276.772	2.54
277.145	2.58
277.518	2.53
277.891	2.75
278.263	2.75
278.636	2.69
279.009	2.58
279.382	2.73
279.755	2.88
280.127	2.97
280.5	2.94
280.872	3.14
281.245	2.99
281.617	3.14
281.99	3.36
282.362	3.36
282.735	3.22
283.107	3.2
283.479	3.18
283.852	3.16
284.224	3.07
284.596	2.99
284.968	3.08
285.34	3.01
285.713	3.06
286.085	3.03
286.457	3.19
286.829	3.16
287.201	2.99
287.572	3.01
287.944	3.04
288.316	3.04
288.688	2.89
289.06	3.03
289.431	2.91
289.803	2.89
290.175	2.95
290.546	3.21
290.918	3.13
291.289	3.08
291.661	3.11
292.032	3.27
292.403	3.27
292.775	3.19
293.146	3.13
293.517	3.01
293.889	3.14
294.26	3.13
294.631	3.22
295.002	3.18
295.373	3.2
295.744	3.15
296.115	3.17
296.486	3.22
296.857	3.25
297.228	3.31
297.599	3.2
297.97	3.08
298.34	3.03
298.711	3.18
299.082	3.3
299.452	3.35
299.823	3.3
300.194	3.29
300.564	3.4
300.935	3.55
301.305	3.67
301.676	3.66
302.046	3.7
302.416	3.7
302.787	3.79
303.157	3.72
303.527	3.7
303.897	3.76
304.267	3.84
304.637	3.84
305.008	3.85
305.378	3.95
305.748	3.96
306.117	3.95
306.487	3.99
306.857	3.89
307.227	3.92
307.597	3.87
307.967	3.88
308.336	3.83
308.706	3.74
309.076	3.66
309.445	3.71
309.815	3.58
310.184	3.56
310.554	3.53
310.923	3.55
311.293	3.6
311.662	3.66
312.031	3.55
312.401	3.5
312.77	3.47
313.139	3.53
313.508	3.5
313.877	3.51
314.246	3.56
314.616	3.54
314.985	3.48
315.353	3.45
315.722	3.56
316.091	3.56
316.46	3.63
316.829	3.6
317.198	3.58
317.567	3.55
317.935	3.53
318.304	3.56
318.672	3.42
319.041	3.55
319.41	3.52
319.778	3.42
320.147	3.49
320.515	3.48
320.883	3.42
321.252	3.58
321.62	3.68
321.988	3.53
322.357	3.54
322.725	3.55
323.093	3.73
323.461	3.65
323.829	3.59
324.197	3.54
324.565	3.53
324.933	3.55
325.301	3.67
325.669	3.84
326.037	3.96
326.405	4.11
326.772	4
327.14	4.01
327.508	4.19
327.875	4.15
328.243	4.27
328.61	4.35
328.978	4.32
329.346	4.31
329.713	4.19
330.08	4.23
330.448	4.07
330.815	3.91
331.182	3.94
331.55	3.91
331.917	3.94
332.284	3.99
332.651	3.9
333.018	3.91
333.385	3.88
333.752	3.85
334.119	3.86
334.486	3.8
334.853	3.76
335.22	3.68
335.587	3.69
335.954	3.62
336.32	3.49
336.687	3.61
337.054	3.58
337.42	3.75
337.787	3.83
338.153	3.94
338.52	4.03
338.886	3.93
339.253	3.89
339.619	3.87
339.986	3.9
340.352	4.01
340.718	3.95
341.084	3.95
341.451	3.96
341.817	3.97
342.183	4.13
342.549	4.2
342.915	4.3
343.281	4.32
343.647	4.36
344.013	4.37
344.379	4.24
344.745	4.22
345.11	4.15
345.476	4.07
345.842	4.09
346.208	4.04
346.573	4.13
346.939	4.19
347.304	4.2
347.67	4.19
348.035	4.18
348.401	4.23
348.766	4.13
349.132	4.08
349.497	3.93
349.862	3.9
350.228	3.83
350.593	3.74
350.958	3.73
351.323	3.77
351.688	3.86
352.053	3.92
352.418	4
352.783	4.08
353.148	4.04
353.513	4.04
353.878	4.07
354.243	4.11
354.608	4.15
354.972	4.17
355.337	4.24
355.702	4.22
356.066	4.24
356.431	4.28
356.795	4.32
357.16	4.33
357.524	4.26
357.889	4.29
358.253	4.32
358.618	4.3
358.982	4.23
359.346	4.13
359.71	4.15
360.075	4.07
360.439	4.03
360.803	4.08
361.167	4.04
361.531	4.01
361.895	3.94
362.259	3.92
362.623	3.87
362.987	3.82
363.351	3.81
363.714	3.79
364.078	3.8
364.442	3.8
364.806	3.83
365.169	3.88
365.533	3.87
365.896	3.81
366.26	3.81
366.623	3.81
366.987	3.9
367.35	3.84
367.714	3.88
368.077	3.88
368.44	3.84
368.803	3.87
369.167	3.95
369.53	4.01
369.893	4.08
370.256	4.16
370.619	4.08
370.982	4.06
371.345	4
371.708	4.01
372.071	4
372.434	4.01
372.797	4.01
373.159	4.02
373.522	4.1
373.885	4.12
374.247	4.15
374.61	4.09
374.973	4.1
375.335	4.14
375.698	4.19
376.06	4.21
376.423	4.26
376.785	4.18
377.147	4.24
377.51	4.17
377.872	4.18
378.234	4.26
378.596	4.3
378.958	4.36
379.321	4.37
379.683	4.39
380.045	4.42
380.407	4.4
380.769	4.4
381.13	4.38
381.492	4.37
381.854	4.41
382.216	4.44
382.578	4.47
382.939	4.44
383.301	4.42
383.663	4.43
384.024	4.36
384.386	4.42
384.747	4.43
385.109	4.43
385.47	4.36
385.832	4.37
386.193	4.36
386.554	4.32
386.916	4.31
387.277	4.28
387.638	4.33
387.999	4.37
388.36	4.34
388.721	4.37
389.082	4.37
389.443	4.31
389.804	4.35
390.165	4.33
390.526	4.32
390.887	4.3
391.248	4.34
391.609	4.36
391.969	4.4
392.33	4.33
392.691	4.33
393.051	4.38
393.412	4.38
393.772	4.34
394.133	4.38
394.493	4.4
394.854	4.4
395.214	4.38
395.574	4.33
395.935	4.36
396.295	4.38
396.655	4.37
397.015	4.39
397.376	4.34
397.736	4.34
398.096	4.36
398.456	4.4
398.816	4.37
399.176	4.36
399.535	4.33
399.895	4.36
400.255	4.36
400.615	4.35
400.975	4.36
401.334	4.38
401.694	4.38
402.054	4.34
402.413	4.36
402.773	4.32
403.132	4.37
403.492	4.39
403.851	4.38
404.211	4.39
404.57	4.39
404.929	4.42
405.288	4.43
405.648	4.41
406.007	4.43
406.366	4.43
406.725	4.46
407.084	4.47
407.443	4.49
407.802	4.52
408.161	4.51
408.52	4.5
408.879	4.51
409.238	4.5
409.596	4.54
409.955	4.52
410.314	4.55
410.673	4.52
411.031	4.52
411.39	4.52
411.748	4.49
412.107	4.51
412.465	4.5
412.824	4.52
413.182	4.51
413.54	4.5
413.899	4.51
414.257	4.51
414.615	4.5
414.974	4.51
415.332	4.49
415.69	4.5
416.048	4.49
416.406	4.49
416.764	4.49
417.122	4.49
417.48	4.48
417.838	4.49
418.195	4.52
418.553	4.53
418.911	4.53
419.269	4.57
419.626	4.58
419.984	4.57
420.342	4.56
420.699	4.57
421.057	4.56
421.414	4.56
421.772	4.56
422.129	4.57
422.486	4.56
422.844	4.58
423.201	4.58
423.558	4.59
423.915	4.59
424.273	4.6
424.63	4.59
424.987	4.61
425.344	4.6
425.701	4.59
426.058	4.58
426.415	4.58
426.772	4.56
427.128	4.54
427.485	4.56
427.842	4.57
428.199	4.59
428.555	4.59
428.912	4.6
429.269	4.61
429.625	4.6
429.982	4.6
430.338	4.57
430.695	4.58
431.051	4.59
431.407	4.6
431.764	4.6
432.12	4.6
432.476	4.58
432.832	4.57
433.189	4.57
433.545	4.58
433.901	4.59
434.257	4.59
434.613	4.61
434.969	4.6
435.325	4.58
435.681	4.59
436.036	4.6
436.392	4.58
436.748	4.57
437.104	4.58
437.459	4.57
437.815	4.59
438.171	4.59
438.526	4.59
438.882	4.59
439.237	4.6
439.593	4.61
439.948	4.61
440.304	4.62
440.659	4.63
441.014	4.63
441.369	4.63
441.725	4.62
442.08	4.62
442.435	4.64
442.79	4.66
443.145	4.65
443.5	4.65
443.855	4.65
444.21	4.65
444.565	4.65
444.92	4.67
445.275	4.64
445.629	4.66
445.984	4.67
446.339	4.67
446.693	4.66
447.048	4.66
447.403	4.66
447.757	4.66
448.112	4.64
448.466	4.64
448.82	4.64
449.175	4.66
449.529	4.65
449.883	4.64
450.238	4.63
450.592	4.63
450.946	4.62
451.3	4.64
451.654	4.65
452.008	4.65
452.362	4.63
452.716	4.66
453.07	4.65
453.424	4.64
453.778	4.64
454.132	4.65
454.486	4.65
454.839	4.65
455.193	4.62
455.547	4.66
455.9	4.65
456.254	4.66
456.607	4.67
456.961	4.67
457.314	4.66
457.668	4.66
458.021	4.65
458.375	4.65
458.728	4.66
459.081	4.69
459.434	4.67
459.787	4.68
460.141	4.69
460.494	4.67
460.847	4.69
461.2	4.69
461.553	4.69
461.906	4.71
462.259	4.72
462.611	4.74
462.964	4.75
463.317	4.77
463.67	4.78
464.022	4.77
464.375	4.8
464.728	4.81
465.08	4.82
465.433	4.83
465.785	4.83
466.138	4.81
466.49	4.79
466.843	4.8
467.195	4.82
467.547	4.81
467.899	4.84
468.252	4.82
468.604	4.83
468.956	4.82
469.308	4.82
469.66	4.81
470.012	4.81
470.364	4.83
470.716	4.8
471.068	4.79
471.42	4.8
471.772	4.78
472.123	4.78
472.475	4.8
472.827	4.8
473.178	4.82
473.53	4.83
473.882	4.82
474.233	4.83
474.585	4.81
474.936	4.82
475.288	4.82
475.639	4.83
475.99	4.82
476.342	4.81
476.693	4.8
477.044	4.8
477.395	4.8
477.746	4.79
478.097	4.81
478.448	4.82
478.8	4.82
479.15	4.82
479.501	4.82
479.852	4.84
480.203	4.85
480.554	4.87
480.905	4.9
481.255	4.92
481.606	4.94
481.957	4.95
482.307	4.95
482.658	4.96
483.009	4.95
483.359	4.98
483.709	4.99
484.06	5
484.41	5
484.761	5
485.111	5
485.461	5.01
485.811	5.02
486.162	5.03
486.512	5.04
486.862	5.06
487.212	5.05
487.562	5.06
487.912	5.05
488.262	5.04
488.612	5.05
488.961	5.04
489.311	5.05
489.661	5.06
490.011	5.06
490.36	5.06
490.71	5.04
491.06	5.04
491.409	5.05
491.759	5.06
492.108	5.07
492.458	5.06
492.807	5.04
493.157	5.03
493.506	5.03
493.855	5.02
494.204	5
494.554	4.99
494.903	4.98
495.252	4.98
495.601	4.98
495.95	4.97
496.299	4.97
496.648	4.99
496.997	5
497.346	4.99
497.695	5.01
498.043	5.02
498.392	5.01
498.741	4.99
499.09	4.99
499.438	5.01
499.787	5.02
500.135	5.03
500.484	5.04
500.832	5.04
501.181	5.04
501.529	5.05
501.878	5.06
502.226	5.07
502.574	5.07
502.923	5.07
503.271	5.07
503.619	5.09
503.967	5.06
504.315	5.05
504.663	5.05
505.011	5.06
505.359	5.07
505.707	5.08
506.055	5.1
506.403	5.14
506.751	5.12
507.098	5.11
507.446	5.13
507.794	5.12
508.141	5.15
508.489	5.17
508.837	5.17
509.184	5.2
509.531	5.2
509.879	5.21
510.226	5.22
510.574	5.23
510.921	5.22
511.268	5.22
511.616	5.22
511.963	5.23
512.31	5.22
512.657	5.24
513.004	5.25
513.351	5.26
513.698	5.26
514.045	5.27
514.392	5.29
514.739	5.29
515.086	5.31
515.432	5.32
515.779	5.31
516.126	5.34
516.473	5.34
516.819	5.34
517.166	5.34
517.512	5.34
517.859	5.34
518.205	5.36
518.552	5.37
518.898	5.38
519.245	5.38
519.591	5.39
519.937	5.37
520.283	5.4
520.629	5.4
520.976	5.4
521.322	5.42
521.668	5.43
522.014	5.44
522.36	5.44
522.706	5.43
523.052	5.44
523.398	5.45
523.743	5.46
524.089	5.47
524.435	5.48
524.781	5.51
525.126	5.52
525.472	5.52
525.817	5.52
526.163	5.51
526.509	5.53
526.854	5.55
527.199	5.56
527.545	5.55
527.89	5.56
528.235	5.55
528.581	5.56
528.926	5.56
529.271	5.57
529.616	5.57
529.961	5.57
530.306	5.57
530.651	5.57
530.996	5.57
531.341	5.57
531.686	5.58
532.031	5.58
532.376	5.58
532.721	5.6
533.065	5.6
533.41	5.61
533.755	5.61
534.099	5.6
534.444	5.6
534.788	5.61
535.133	5.61
535.477	5.61
535.822	5.6
536.166	5.59
536.51	5.57
536.855	5.57
537.199	5.57
537.543	5.58
537.887	5.59
538.231	5.58
538.576	5.59
538.92	5.58
539.264	5.58
539.608	5.59
539.951	5.59
540.295	5.6
540.639	5.63
540.983	5.62
541.327	5.61
541.671	5.6
542.014	5.6
542.358	5.6
542.701	5.62
543.045	5.62
543.389	5.64
543.732	5.65
544.075	5.66
544.419	5.67
544.762	5.68
545.105	5.69
545.449	5.71
545.792	5.71
546.135	5.71
546.478	5.71
546.821	5.68
547.165	5.68
547.508	5.68
547.851	5.65
548.194	5.68
548.536	5.69
548.879	5.72
549.222	5.72
549.565	5.74
549.908	5.72
550.25	5.76
550.593	5.74
550.936	5.72
551.278	5.73
551.621	5.71
551.963	5.72
552.306	5.7
552.648	5.7
552.991	5.74
553.333	5.75
553.675	5.79
554.017	5.83
554.36	5.82
554.702	5.85
555.044	5.83
555.386	5.83
555.728	5.85
556.07	5.86
556.412	5.84
556.754	5.85
557.096	5.88
557.438	5.83
557.78	5.86
558.121	5.9
558.463	5.91
558.805	5.93
559.147	5.95
559.488	5.96
559.83	5.98
560.171	5.96
560.513	5.99
560.854	5.98
561.196	6.01
561.537	6.04
561.878	6
562.22	6.01
562.561	6
562.902	6.01
563.243	6
563.584	6
563.925	6.01
564.266	5.99
564.607	6
564.948	6.01
565.289	6
565.63	6
565.971	5.97
566.312	5.96
566.653	5.92
566.993	5.93
567.334	5.92
567.675	5.91
568.015	5.91
568.356	5.88
568.696	5.89
569.037	5.93
569.377	5.95
569.718	5.94
570.058	5.94
570.398	5.94
570.739	5.96
571.079	5.95
571.419	5.97
571.759	5.99
572.099	5.98
572.439	5.97
572.779	5.98
573.119	6.02
573.459	6.04
573.799	6.09
574.139	6.05
574.479	6.06
574.819	6.07
575.158	6.07
575.498	6.12
575.838	6.1
576.177	6.07
576.517	6.09
576.856	6.14
577.196	6.14
577.535	6.15
577.875	6.15
578.214	6.17
578.553	6.17
578.893	6.16
579.232	6.15
579.571	6.2
579.91	6.22
580.25	6.19
580.589	6.18
580.928	6.17
581.267	6.19
581.606	6.18
581.945	6.16
582.283	6.13
582.622	6.11
582.961	6.1
583.3	6.14
583.639	6.14
583.977	6.12
584.316	6.11
584.654	6.1
584.993	6.12
585.332	6.11
585.67	6.17
586.008	6.19
586.347	6.21
586.685	6.17
587.024	6.16
587.362	6.19
587.7	6.19
588.038	6.23
588.376	6.25
588.715	6.28
589.053	6.32
589.391	6.39
589.729	6.35
590.067	6.34
590.404	6.33
590.742	6.32
591.08	6.33
591.418	6.32
591.756	6.34
592.093	6.33
592.431	6.31
592.769	6.28
593.106	6.26
593.444	6.2
593.781	6.18
594.119	6.17
594.456	6.15
594.793	6.16
595.131	6.13
595.468	6.15
595.805	6.16
596.143	6.14
596.48	6.11
596.817	6.13
597.154	6.13
597.491	6.13
597.828	6.14
598.165	6.13
598.502	6.15
598.839	6.16
599.176	6.16
599.512	6.15
599.849	6.16
600.186	6.18
600.523	6.26
600.859	6.3
601.196	6.34
601.532	6.31
601.869	6.3
602.205	6.3
602.542	6.31
602.878	6.32
603.215	6.32
603.551	6.31
603.887	6.31
604.223	6.31
604.56	6.36
604.896	6.36
605.232	6.36
605.568	6.35
605.904	6.31
606.24	6.35
606.576	6.4
606.912	6.38
607.248	6.41
607.583	6.42
607.919	6.41
608.255	6.36
608.591	6.4
608.926	6.4
609.262	6.42
609.597	6.4
609.933	6.38
610.268	6.4
610.604	6.41
610.939	6.38
611.275	6.43
611.61	6.39
611.945	6.38
612.281	6.38
612.616	6.35
612.951	6.42
613.286	6.39
613.621	6.34
613.956	6.37
614.291	6.36
614.626	6.32
614.961	6.35
615.296	6.4
615.631	6.39
615.966	6.4
616.3	6.38
616.635	6.37
616.97	6.38
617.304	6.39
617.639	6.43
617.973	6.48
618.308	6.47
618.642	6.51
618.977	6.51
619.311	6.47
619.646	6.58
619.98	6.56
620.314	6.61
620.648	6.65
620.983	6.66
621.317	6.69
621.651	6.76
621.985	6.79
622.319	6.76
622.653	6.78
622.987	6.76
623.321	6.78
623.655	6.84
623.988	6.87
624.322	6.86
624.656	6.82
624.99	6.83
625.323	6.83
625.657	6.81
625.99	6.86
626.324	6.91
626.657	6.9
626.991	6.93
627.324	6.9
627.658	6.9
627.991	6.87
628.324	6.81
628.657	6.78
628.991	6.78
629.324	6.82
629.657	6.78
629.99	6.81
630.323	6.85
630.656	6.83
630.989	6.83
631.322	6.84
631.655	6.87
631.987	6.95
632.32	6.95
632.653	6.94
632.986	6.93
633.318	6.9
633.651	6.87
633.984	6.86
634.316	6.89
634.649	6.89
634.981	6.9
635.313	6.97
635.646	6.94
635.978	6.9
636.31	6.93
636.643	7.02
636.975	7.02
637.307	7.02
637.639	7.06
637.971	7.03
638.303	7.03
638.635	7.03
638.967	6.98
639.299	6.96
639.631	6.99
639.963	6.96
640.295	6.97
640.626	6.98
640.958	6.99
641.29	6.97
641.621	7
641.953	7.04
642.285	7.02
642.616	7.07
642.948	7.13
643.279	7.17
643.61	7.13
643.942	7.16
644.273	7.12
644.604	7.05
644.936	7.03
645.267	7.08
645.598	7.13
645.929	7.16
646.26	7.18
646.591	7.17
646.922	7.17
647.253	7.21
647.584	7.22
647.915	7.16
648.245	7.17
648.576	7.18
648.907	7.16
649.238	7.18
649.568	7.18
649.899	7.15
650.229	7.18
650.56	7.17
650.89	7.16
651.221	7.18
651.551	7.18
651.882	7.23
652.212	7.23
652.542	7.15
652.872	7.08
653.203	7.13
653.533	7.15
653.863	7.16
654.193	7.14
654.523	7.16
654.853	7.18
655.183	7.15
655.513	7.13
655.843	7.08
656.172	7.07
656.502	7.08
656.832	7.06
657.162	7.03
657.491	6.98
657.821	7.01
658.15	7
658.48	7.05
658.809	7.01
659.139	6.97
659.468	6.96
659.798	6.94
660.127	6.92
660.456	6.93
660.785	7.01
661.115	7.01
661.444	6.98
661.773	7.04
662.102	7.07
662.431	7.11
662.76	7.14
663.089	7.14
663.418	7.09
663.747	7.13
664.076	7.18
664.404	7.28
664.733	7.22
665.062	7.27
665.39	7.28
665.719	7.28
666.048	7.41
666.376	7.48
666.705	7.55
667.033	7.56
667.362	7.64
667.69	7.58
668.018	7.58
668.347	7.66
668.675	7.68
669.003	7.77
669.331	7.81
669.659	7.76
669.987	7.72
670.315	7.81
670.643	7.79
670.971	7.72
671.299	7.71
671.627	7.71
671.955	7.68
672.283	7.65
672.61	7.7
672.938	7.59
673.266	7.59
673.593	7.58
673.921	7.54
674.249	7.45
674.576	7.44
674.904	7.46
675.231	7.3
675.558	7.32
675.886	7.29
676.213	7.25
676.54	7.4
676.867	7.5
677.195	7.52
677.522	7.57
677.849	7.62
678.176	7.63
678.503	7.65
678.83	7.65
679.157	7.64
679.484	7.67
679.81	7.71
680.137	7.7
680.464	7.7
680.791	7.68
681.117	7.74
681.444	7.77
681.771	7.78
682.097	7.83
682.424	7.79
682.75	7.79
683.077	7.75
683.403	7.69
683.729	7.67
684.056	7.62
684.382	7.57
684.708	7.49
685.034	7.33
685.36	7.38
685.686	7.44
686.012	7.53
686.339	7.56
686.664	7.63
686.99	7.71
687.316	7.69
687.642	7.75
687.968	7.75
688.294	7.71
688.619	7.77
688.945	7.78
689.271	7.75
689.596	7.75
689.922	7.79
690.247	7.74
690.573	7.74
690.898	7.87
691.224	7.93
691.549	8.06
691.874	8.16
692.2	8.19
692.525	8.07
692.85	7.99
693.175	7.98
693.5	7.87
693.825	7.86
694.15	7.92
694.475	7.91
694.8	7.93
695.125	7.98
695.45	7.95
695.775	8.11
696.099	8.15
696.424	8.15
696.749	8.11
697.073	8.13
697.398	8.13
697.723	8.02
698.047	7.99
698.372	7.92
698.696	8
699.02	7.99
699.345	8.07
699.669	8.14
699.993	8.1
700.318	8.12
700.642	8.12
700.966	8.02
701.29	8.04
701.614	8.07
701.938	8.08
702.262	8.16
702.586	8
702.91	7.96
703.234	7.97
703.557	8.05
703.881	8.08
704.205	8.1
704.529	8.14
704.852	8.12
705.176	8.17
705.499	8.2
705.823	8.22
706.146	8.2
706.47	8.27
706.793	8.27
707.117	8.27
707.44	8.25
707.763	8.33
708.086	8.26
708.409	8.12
708.733	8.06
709.056	8.01
709.379	8.23
709.702	8.27
710.025	8.21
710.348	8.23
710.671	8.21
710.993	8.19
711.316	8.17
711.639	8.22
711.962	8.28
712.284	8.2
712.607	8.24
712.93	8.23
713.252	8.37
713.575	8.46
713.897	8.56
714.22	8.56
714.542	8.63
714.864	8.69
715.187	8.83
715.509	8.83
715.831	8.76
716.153	8.65
716.475	8.64
716.798	8.79
717.12	8.68
717.442	8.76
717.764	8.82
718.085	8.95
718.407	8.91
718.729	8.76
719.051	8.76
719.373	8.6
719.695	8.64
720.016	8.49
720.338	8.48
720.659	8.36
720.981	8.36
721.302	8.4
721.624	8.31
721.945	8.39
722.267	8.58
722.588	8.52
722.909	8.56
723.231	8.54
723.552	8.3
723.873	8.5
724.194	8.56
724.515	8.41
724.836	8.42
725.157	8.49
725.478	8.46
725.799	8.56
726.12	8.69
726.441	8.73
726.762	8.79
727.083	8.76
727.403	8.83
727.724	8.92
728.045	8.92
728.365	9.09
728.686	8.89
729.006	8.75
729.327	8.9
729.647	8.93
729.967	8.93
730.288	9.17
730.608	9.03
730.928	8.95
731.249	8.85
731.569	8.86
731.889	9.01
732.209	9.14
732.529	8.98
732.849	9.16
733.169	9.08
733.489	8.9
733.809	8.98
734.129	9.05
734.448	8.97
734.768	8.79
735.088	8.83
735.408	8.91
735.727	8.94
736.047	8.98
736.366	8.86
736.686	8.95
737.005	8.76
737.325	8.7
737.644	8.72
737.963	8.9
738.283	8.83
738.602	8.67
738.921	8.75
739.24	8.9
739.56	8.81
739.879	8.88
740.198	8.88
740.517	8.65
740.836	8.72
741.155	8.74
741.473	8.97
741.792	8.85
742.111	8.83
742.43	8.74
742.748	8.58
743.067	8.59
743.386	8.56
743.704	8.51
744.023	8.76
744.341	8.65
744.66	8.79
744.978	8.84
745.297	8.93
745.615	8.9
745.933	9.12
746.252	9.1
746.57	8.89
746.888	9.09
747.206	9.21
747.524	9.07
747.842	9.28
748.16	9.08
748.478	9.2
748.796	9.36
749.114	9.58
749.432	9.74
749.749	9.94
750.067	9.91
750.385	10.14
750.703	9.93
751.02	10.03
751.338	9.98
751.655	9.79
751.973	9.96
752.29	9.9
752.608	9.8
752.925	9.86
753.242	10.11
753.56	9.96
753.877	10.12
754.194	10.18
754.511	10.06
754.828	10.24
755.145	10.13
755.462	10.02
755.779	10.12
756.096	10
756.413	9.91
756.73	9.86
757.047	9.83
757.364	9.91
757.68	10
757.997	9.89
758.314	10.07
758.63	9.86
758.947	9.99
759.264	10
759.58	10.04
759.896	10.1
760.213	10.21
760.529	10.1
760.846	10.07
761.162	9.98
761.478	9.87
761.794	9.9
762.11	9.85
762.426	9.85
762.743	9.89
763.059	9.87
763.375	9.97
763.69	10.03
764.006	10.11
764.322	10.12
764.638	10.21
764.954	10.47
765.27	10.44
765.585	10.41
765.901	10.43
766.216	10.4
766.532	10.37
766.848	10.15
767.163	10.14
767.478	10.34
767.794	10.44
768.109	10.53
768.424	10.61
768.74	10.65
769.055	10.5
769.37	10.65
769.685	10.76
770	11.03
770.315	10.98
770.63	11.11
770.945	10.89
771.26	11.15
771.575	11.03
771.89	10.92
772.205	10.94
772.52	10.64
772.834	10.43
773.149	10.51
773.464	10.93
773.778	11.1
774.093	10.74
774.407	10.81
774.722	10.62
775.036	10.77
775.351	11.01
775.665	11.11
775.979	10.91
776.293	10.94
776.608	10.75
776.922	10.73
777.236	10.63
777.55	10.76
777.864	10.53
778.178	10
778.492	10.34
778.806	10.1
779.12	10.57
779.434	10.68
779.747	10.48
780.061	10.21
780.375	10.19
780.689	10.57
781.002	10.56
781.316	10.88
781.629	10.75
781.943	10.55
782.256	10.78
782.57	10.93
782.883	10.64
783.196	10.21
783.51	10.15
783.823	10.08
784.136	10.01
784.449	9.98
784.762	10.51
785.075	10.29
785.388	10.71
785.701	10.39
786.014	10.11
786.327	10.19
786.64	10.55
786.953	10.43
787.266	9.85
787.578	9.64
787.891	9.6
788.204	9.58
788.516	9.69
788.829	9.7
789.141	9.75
789.454	9.95
789.766	10.46
790.079	10.42
790.391	10.52
790.703	10.94
791.016	11.29
791.328	11.32
791.64	11.2
791.952	11.41
792.264	11.31
792.576	11.24
792.888	11.52
793.2	11.2
793.512	11.05
793.824	11.48
794.136	11.88
794.448	11.77
794.76	11.51
795.071	11.7
795.383	11.28
795.695	11.22
796.006	11.23
796.318	11.3
796.629	11.54
796.941	11.35
797.252	11.87
797.564	11.22
797.875	10.94
798.186	10.97
798.497	10.54
798.809	11.22
799.12	11.45
799.431	11.05
799.742	11.23
800.053	11.59
800.364	11.65
800.675	11.07
800.986	11.47
801.297	11.58
801.608	11.08
801.918	10.88
802.229	11.13
802.54	11.36
802.851	11.4
803.161	11.45
803.472	11.54
803.782	11.24
804.093	11.53
804.403	11.6
804.714	12.13
805.024	11.91
805.334	11.4
805.645	11.56
805.955	11.73
806.265	11.76
806.575	11.69
806.885	11.65
807.195	12.34
807.505	11.9
807.815	12.12
808.125	12.08
808.435	12.98
808.745	13.11
809.055	12.98
809.365	12.44
809.674	11.97
809.984	11.34
810.294	10.96
810.603	11.59
810.913	12.04
811.222	12.31
811.532	12.03
811.841	12.68
812.151	12.74
812.46	12.64
812.769	12.58
813.079	12.22
813.388	11.97
813.697	11.3
814.006	11.31
814.315	11.15
814.624	11.45
814.933	11.06
815.242	10.84
815.551	10.78
815.86	11.21
816.169	11.59
816.478	12.08
816.786	11.77
817.095	11.19
817.404	10.81
817.712	10.22
818.021	11.23
818.33	10.58
818.638	10.77
818.947	11.19
819.255	11.41
819.563	12.01
819.872	12.12
820.18	12.45
820.488	12.67
820.796	12.79
821.105	12.98
821.413	12.99
821.721	12.94
822.029	12.96
822.337	12.94
822.645	12.85
822.953	12.9
823.26	13.01
823.568	12.99
823.876	13.06
824.184	13.04
824.491	12.87
824.799	13.03
825.107	13.11
825.414	13.07
825.722	13.04
826.029	12.93
826.337	13.03
826.644	12.93
826.951	12.86
827.259	12.85
827.566	12.68
827.873	12.61
828.18	12.61
828.488	12.55
828.795	12.49
829.102	12.56
829.409	12.42
829.716	12.2
830.023	12.22
830.329	11.86
830.636	12.1
830.943	12.31
831.25	11.94
831.557	12.02
831.863	12.01
832.17	12.02
832.476	12.14
832.783	12.02
833.089	12.21
833.396	12.48
833.702	12.83
834.009	12.84
834.315	12.78
834.621	12.83
834.928	13.02
835.234	12.63
835.54	12.5
835.846	12.78
836.152	13.38
836.458	13.52
836.764	13.9
837.07	13.48
837.376	13.24
837.682	13.61
837.988	13.29
838.293	13.36
838.599	13.65
838.905	13.12
839.211	13.18
839.516	13.07
839.822	13.53
840.127	13.26
840.433	13.22
840.738	13.54
841.044	13.21
841.349	12.59
841.654	14
841.959	14.7
842.265	14.19
842.57	13.93
842.875	13.56
843.18	13.58
843.485	14.48
843.79	14.83
844.095	14.6
844.4	14.75
844.705	14.22
845.01	14.42
845.315	15.65
845.619	15.4
845.924	14.89
846.229	14.06
846.533	14.1
846.838	14.62
847.142	14.49
847.447	13.61
847.751	13.11
848.056	11.25
848.36	11.66
848.664	12.93
848.969	11.57
849.273	11.98
849.577	10.99
849.881	9.65
850.185	9.3
850.489	9.27
850.794	8.18
851.097	8.79
851.401	6.74
851.705	6.48
852.009	6.49
852.313	6.06
852.617	5.16
852.92	4.21
853.224	4.66
853.528	5.89
853.831	6.55
854.135	9.54
854.438	8.85
854.742	8.77
855.045	8.81
855.349	8.85
855.652	9.39
855.955	11.07
856.259	9.67
856.562	9.87
856.865	10.06
857.168	10.12
857.471	10.34
857.774	10.93
858.077	10.47
858.38	11.7
858.683	13.74
858.986	15.8
859.289	15.25
859.592	15.52
859.894	15.76
860.197	16.35
860.5	14.26
860.802	15.8
861.105	14.89
861.407	15.21
861.71	16.29
862.012	14.91
862.315	14.67
862.617	16.78
862.919	17.73
863.222	18.87
863.524	19.65
863.826	19.07
864.128	20.52
864.43	21.16
864.732	21.66
865.034	20.89
865.336	17.5
865.638	17.27
865.94	14.48
866.242	11.87
866.544	12.34
866.846	12.65
867.147	12.01
867.449	12.03
867.751	11.86
868.052	13.51
868.354	14.02
868.655	13.16
868.957	13.98
869.258	11.37
869.56	10.17
869.861	8.67
870.162	10.76
870.463	10.99
870.765	10.43
871.066	7.7
871.367	7.42
871.668	10.47
871.969	9.25
872.27	10.51
872.571	11.08
872.872	11.45
873.173	10.21
873.473	9.97
873.774	10.53
874.075	9.28
874.376	6.66
874.676	8.33
874.977	6.52
875.277	6.18
875.578	8.87
875.878	8.1
876.179	9.41
876.479	7.76
876.78	6.2
877.08	5.68
877.38	6.68
877.68	6.49
877.981	4.71
878.281	7.53
878.581	8.71
