Data from BA28302_Reflection_00015.txt Node
Date: Mon Nov 18 15:49:32 EST 2019
User: vgr7
Spectrometer: USB2G7710
Scans to average: 3
Trigger mode: 4
Integration Time (sec): 2.000000E-2
Electric dark correction enabled: true
Boxcar width: 10
XAxis mode: Wavelengths
Number of Pixels in Spectrum: 2048
>>>>>Begin Spectral Data<<<<<
177.721	-1084.67
178.105	580.31
178.488	1067.46
178.871	191.8
179.254	32.2
179.636	823.68
180.019	359.41
180.402	88.64
180.785	-213.82
181.168	452.27
181.55	-333.12
181.933	208.94
182.316	120.05
182.698	104.3
183.081	123.62
183.463	252.27
183.846	189.48
184.228	171.35
184.611	152.77
184.993	283.64
185.376	-28471.43
185.758	1664.36
186.14	-2785.25
186.522	277.86
186.904	693.06
187.287	609.67
187.669	535.35
188.051	542.17
188.433	935.73
188.815	705.79
189.197	2719.47
189.579	-10300
189.961	3693.22
190.342	860.46
190.724	-505.54
191.106	2911.88
191.488	272.09
191.869	267.82
192.251	431.05
192.633	4860.56
193.014	870.54
193.396	449.45
193.777	10720.69
194.159	-5390.91
194.54	-463.96
194.922	-311.6
195.303	-307.45
195.684	-234.88
196.065	-165.32
196.447	-184.37
196.828	-196.74
197.209	-196.59
197.59	-1324.35
197.971	-2520.69
198.352	-282.86
198.733	-810.13
199.114	-300.3
199.495	-201.48
199.876	-179.56
200.257	-180.27
200.638	-154.25
201.018	-172.47
201.399	-245.54
201.78	-214.4
202.16	-176.31
202.541	-207.56
202.922	-736.27
203.302	-496.55
203.683	-340.81
204.063	-473.22
204.444	-860.19
204.824	-3152.75
205.204	-801.41
205.585	-172.31
205.965	-120.43
206.345	-171.19
206.725	-204.19
207.106	3085.92
207.486	510.84
207.866	399.83
208.246	1203.45
208.626	1418.44
209.006	552.75
209.386	647.95
209.766	-1195.55
210.145	-469.32
210.525	-229.45
210.905	-113.02
211.285	-130.24
211.664	-101.93
212.044	-127.21
212.424	-78.19
212.803	-86.24
213.183	-87.59
213.562	-99.82
213.942	-119.11
214.321	-97.29
214.701	-89.3
215.08	-70.49
215.459	-62.13
215.838	-41.9
216.218	-43.3
216.597	-45.14
216.976	-35.91
217.355	-37.69
217.734	-37.18
218.113	-59.15
218.492	-44.86
218.871	-68.18
219.25	-39.7
219.629	-35.3
220.008	-27.06
220.387	-53.12
220.766	-66.92
221.144	-77.92
221.523	-90.5
221.902	-71.06
222.28	-75.2
222.659	-64.45
223.037	-53.93
223.416	-55.33
223.794	-57.24
224.173	-48.87
224.551	-35.37
224.929	-34.26
225.308	-23.15
225.686	-21.17
226.064	-19.43
226.442	-20.98
226.821	-16.28
227.199	-19.39
227.577	-18.42
227.955	-16.69
228.333	-12.99
228.711	-8.08
229.089	-4.72
229.467	-1.63
229.845	-0.68
230.222	-1.99
230.6	-3.07
230.978	-5.54
231.356	-0.53
231.733	-0
232.111	2.23
232.488	1.22
232.866	-0.02
233.243	-0.12
233.621	-1.87
233.998	-0.02
234.376	-0.54
234.753	-2.18
235.13	-2.09
235.508	-3.18
235.885	-3.38
236.262	-2.13
236.639	-1.9
237.016	-2.91
237.393	-2.07
237.77	-0.77
238.147	0.11
238.524	1.4
238.901	3.06
239.278	2.86
239.655	3.64
240.032	3.33
240.409	3.72
240.785	4.46
241.162	4.34
241.539	4.99
241.915	4.65
242.292	4.57
242.668	4.77
243.045	5.23
243.421	5.17
243.798	5.18
244.174	4.93
244.551	4.95
244.927	5.23
245.303	5.32
245.679	5.51
246.056	5.58
246.432	5.36
246.808	5.2
247.184	4.85
247.56	4.66
247.936	4.65
248.312	4.49
248.688	4.54
249.064	4.59
249.44	4.56
249.815	4.58
250.191	4.85
250.567	5.08
250.943	4.91
251.318	5.06
251.694	5
252.069	4.97
252.445	5.13
252.82	5.16
253.196	4.99
253.571	4.54
253.947	4.51
254.322	4.54
254.697	4.51
255.073	4.59
255.448	4.69
255.823	4.77
256.198	4.83
256.573	4.56
256.948	4.73
257.323	4.61
257.698	4.67
258.073	4.52
258.448	4.4
258.823	4.28
259.198	4.33
259.573	4.51
259.948	4.46
260.322	4.43
260.697	4.4
261.072	4.43
261.446	4.34
261.821	4.37
262.195	4.46
262.57	4.44
262.944	4.51
263.319	4.42
263.693	4.46
264.067	4.56
264.442	4.74
264.816	4.59
265.19	4.57
265.564	4.61
265.938	4.67
266.313	4.65
266.687	4.77
267.061	4.67
267.435	4.48
267.809	4.55
268.183	4.43
268.556	4.3
268.93	4.3
269.304	4.52
269.678	4.57
270.051	4.46
270.425	4.59
270.799	4.56
271.172	4.64
271.546	4.45
271.919	4.37
272.293	4.31
272.666	4.37
273.04	4.45
273.413	4.46
273.787	4.4
274.16	4.32
274.533	4.25
274.906	4.37
275.279	4.38
275.653	4.34
276.026	4.42
276.399	4.34
276.772	4.33
277.145	4.22
277.518	4.11
277.891	4.29
278.263	4.24
278.636	4.39
279.009	4.44
279.382	4.67
279.755	4.75
280.127	4.98
280.5	4.88
280.872	5
281.245	4.99
281.617	5.19
281.99	5.36
282.362	5.43
282.735	5.29
283.107	5.43
283.479	5.54
283.852	5.51
284.224	5.58
284.596	5.51
284.968	5.44
285.34	5.5
285.713	5.47
286.085	5.42
286.457	5.4
286.829	5.35
287.201	5.17
287.572	5.11
287.944	4.89
288.316	5.06
288.688	5.09
289.06	5.06
289.431	5.08
289.803	5.03
290.175	5.03
290.546	5.21
290.918	5.21
291.289	5.22
291.661	5.38
292.032	5.52
292.403	5.5
292.775	5.71
293.146	5.7
293.517	5.83
293.889	5.91
294.26	5.88
294.631	5.97
295.002	5.93
295.373	6.01
295.744	6.15
296.115	6.13
296.486	5.91
296.857	5.95
297.228	5.82
297.599	5.85
297.97	5.92
298.34	5.85
298.711	5.87
299.082	5.85
299.452	5.82
299.823	5.86
300.194	5.96
300.564	6
300.935	6.09
301.305	6.01
301.676	6.05
302.046	6.08
302.416	6.08
302.787	6.3
303.157	6.27
303.527	6.3
303.897	6.2
304.267	6.63
304.637	6.8
305.008	6.98
305.378	7.2
305.748	7.31
306.117	7.37
306.487	7.39
306.857	7.38
307.227	7.36
307.597	7.24
307.967	7.33
308.336	7.11
308.706	7.22
309.076	7.18
309.445	7.17
309.815	7.29
310.184	7.35
310.554	7.41
310.923	7.49
311.293	7.54
311.662	7.66
312.031	7.52
312.401	7.5
312.77	7.48
313.139	7.48
313.508	7.51
313.877	7.53
314.246	7.48
314.616	7.48
314.985	7.44
315.353	7.54
315.722	7.56
316.091	7.77
316.46	7.73
316.829	7.87
317.198	7.97
317.567	7.9
317.935	7.77
318.304	7.72
318.672	7.67
319.041	7.68
319.41	7.64
319.778	7.58
320.147	7.59
320.515	7.6
320.883	7.4
321.252	7.35
321.62	7.49
321.988	7.56
322.357	7.61
322.725	7.63
323.093	7.75
323.461	7.81
323.829	8.04
324.197	8.06
324.565	8.04
324.933	8.24
325.301	8.37
325.669	8.52
326.037	8.68
326.405	8.81
326.772	8.83
327.14	8.98
327.508	9.02
327.875	9.07
328.243	9.17
328.61	9.27
328.978	9.47
329.346	9.51
329.713	9.55
330.08	9.71
330.448	9.77
330.815	9.8
331.182	9.85
331.55	9.79
331.917	9.83
332.284	10
332.651	9.81
333.018	9.77
333.385	9.7
333.752	9.69
334.119	9.77
334.486	9.88
334.853	10.03
335.22	10.04
335.587	10.13
335.954	10.08
336.32	10.11
336.687	10.09
337.054	10.14
337.42	10.22
337.787	10.2
338.153	10.21
338.52	10.35
338.886	10.31
339.253	10.28
339.619	10.28
339.986	10.24
340.352	10.37
340.718	10.38
341.084	10.54
341.451	10.64
341.817	10.71
342.183	10.57
342.549	10.37
342.915	10.49
343.281	10.5
343.647	10.53
344.013	10.68
344.379	10.65
344.745	10.69
345.11	10.75
345.476	10.82
345.842	10.94
346.208	10.94
346.573	11.03
346.939	11.08
347.304	11.12
347.67	11.1
348.035	11.12
348.401	11.23
348.766	11.25
349.132	11.22
349.497	11.15
349.862	11.31
350.228	11.5
350.593	11.42
350.958	11.43
351.323	11.57
351.688	11.53
352.053	11.63
352.418	11.59
352.783	11.67
353.148	11.69
353.513	11.75
353.878	11.7
354.243	11.69
354.608	11.74
354.972	11.75
355.337	11.74
355.702	11.76
356.066	11.67
356.431	11.61
356.795	11.63
357.16	11.68
357.524	11.65
357.889	11.55
358.253	11.63
358.618	11.66
358.982	11.58
359.346	11.55
359.71	11.47
360.075	11.52
360.439	11.46
360.803	11.42
361.167	11.33
361.531	11.3
361.895	11.29
362.259	11.24
362.623	11.24
362.987	11.24
363.351	11.22
363.714	11.27
364.078	11.2
364.442	11.17
364.806	11.17
365.169	11.19
365.533	11.21
365.896	11.16
366.26	11.1
366.623	11.05
366.987	11.03
367.35	11.03
367.714	10.98
368.077	10.93
368.44	10.93
368.803	10.92
369.167	10.89
369.53	10.88
369.893	10.89
370.256	10.86
370.619	10.85
370.982	10.73
371.345	10.69
371.708	10.71
372.071	10.62
372.434	10.46
372.797	10.38
373.159	10.31
373.522	10.28
373.885	10.25
374.247	10.24
374.61	10.17
374.973	10.05
375.335	9.96
375.698	9.91
376.06	9.84
376.423	9.73
376.785	9.73
377.147	9.71
377.51	9.63
377.872	9.56
378.234	9.5
378.596	9.51
378.958	9.44
379.321	9.35
379.683	9.36
380.045	9.32
380.407	9.31
380.769	9.23
381.13	9.18
381.492	9.14
381.854	9.09
382.216	9.06
382.578	9.1
382.939	9.08
383.301	9.03
383.663	8.96
384.024	8.99
384.386	8.95
384.747	8.88
385.109	8.84
385.47	8.79
385.832	8.77
386.193	8.74
386.554	8.7
386.916	8.69
387.277	8.63
387.638	8.65
387.999	8.54
388.36	8.52
388.721	8.51
389.082	8.45
389.443	8.43
389.804	8.37
390.165	8.25
390.526	8.21
390.887	8.16
391.248	8.14
391.609	8.07
391.969	8.01
392.33	7.95
392.691	7.93
393.051	7.88
393.412	7.86
393.772	7.79
394.133	7.74
394.493	7.69
394.854	7.62
395.214	7.54
395.574	7.51
395.935	7.47
396.295	7.44
396.655	7.39
397.015	7.36
397.376	7.3
397.736	7.32
398.096	7.28
398.456	7.24
398.816	7.18
399.176	7.14
399.535	7.06
399.895	7.03
400.255	6.98
400.615	6.92
400.975	6.87
401.334	6.85
401.694	6.82
402.054	6.78
402.413	6.78
402.773	6.75
403.132	6.7
403.492	6.68
403.851	6.61
404.211	6.6
404.57	6.55
404.929	6.56
405.288	6.51
405.648	6.45
406.007	6.46
406.366	6.47
406.725	6.46
407.084	6.5
407.443	6.48
407.802	6.48
408.161	6.45
408.52	6.43
408.879	6.41
409.238	6.41
409.596	6.38
409.955	6.36
410.314	6.37
410.673	6.36
411.031	6.33
411.39	6.33
411.748	6.32
412.107	6.31
412.465	6.3
412.824	6.31
413.182	6.3
413.54	6.25
413.899	6.21
414.257	6.18
414.615	6.11
414.974	6.08
415.332	6.05
415.69	6.03
416.048	6
416.406	5.97
416.764	5.92
417.122	5.93
417.48	5.91
417.838	5.88
418.195	5.86
418.553	5.85
418.911	5.84
419.269	5.81
419.626	5.78
419.984	5.74
420.342	5.73
420.699	5.72
421.057	5.69
421.414	5.67
421.772	5.65
422.129	5.64
422.486	5.65
422.844	5.64
423.201	5.63
423.558	5.62
423.915	5.61
424.273	5.62
424.63	5.59
424.987	5.57
425.344	5.55
425.701	5.53
426.058	5.5
426.415	5.47
426.772	5.45
427.128	5.43
427.485	5.42
427.842	5.4
428.199	5.38
428.555	5.36
428.912	5.37
429.269	5.35
429.625	5.35
429.982	5.3
430.338	5.29
430.695	5.28
431.051	5.26
431.407	5.22
431.764	5.18
432.12	5.18
432.476	5.17
432.832	5.15
433.189	5.17
433.545	5.16
433.901	5.17
434.257	5.15
434.613	5.16
434.969	5.17
435.325	5.17
435.681	5.17
436.036	5.16
436.392	5.15
436.748	5.14
437.104	5.13
437.459	5.12
437.815	5.1
438.171	5.1
438.526	5.11
438.882	5.12
439.237	5.14
439.593	5.15
439.948	5.17
440.304	5.16
440.659	5.14
441.014	5.14
441.369	5.12
441.725	5.11
442.08	5.09
442.435	5.08
442.79	5.08
443.145	5.07
443.5	5.06
443.855	5.07
444.21	5.07
444.565	5.07
444.92	5.08
445.275	5.08
445.629	5.07
445.984	5.06
446.339	5.06
446.693	5.03
447.048	5.01
447.403	4.99
447.757	4.99
448.112	4.98
448.466	4.97
448.82	4.97
449.175	4.99
449.529	4.98
449.883	4.96
450.238	4.92
450.592	4.91
450.946	4.91
451.3	4.89
451.654	4.88
452.008	4.86
452.362	4.85
452.716	4.83
453.07	4.82
453.424	4.82
453.778	4.81
454.132	4.8
454.486	4.8
454.839	4.78
455.193	4.77
455.547	4.76
455.9	4.77
456.254	4.77
456.607	4.75
456.961	4.78
457.314	4.79
457.668	4.8
458.021	4.8
458.375	4.8
458.728	4.81
459.081	4.82
459.434	4.81
459.787	4.81
460.141	4.81
460.494	4.82
460.847	4.82
461.2	4.81
461.553	4.82
461.906	4.84
462.259	4.86
462.611	4.88
462.964	4.89
463.317	4.9
463.67	4.91
464.022	4.93
464.375	4.91
464.728	4.89
465.08	4.9
465.433	4.92
465.785	4.91
466.138	4.91
466.49	4.92
466.843	4.92
467.195	4.94
467.547	4.95
467.899	4.95
468.252	4.94
468.604	4.96
468.956	4.96
469.308	4.96
469.66	4.94
470.012	4.95
470.364	4.96
470.716	4.97
471.068	4.97
471.42	4.96
471.772	4.99
472.123	5.03
472.475	5.03
472.827	5.04
473.178	5.07
473.53	5.09
473.882	5.1
474.233	5.11
474.585	5.1
474.936	5.1
475.288	5.1
475.639	5.13
475.99	5.15
476.342	5.15
476.693	5.13
477.044	5.15
477.395	5.13
477.746	5.15
478.097	5.13
478.448	5.14
478.8	5.15
479.15	5.14
479.501	5.14
479.852	5.14
480.203	5.15
480.554	5.16
480.905	5.15
481.255	5.15
481.606	5.16
481.957	5.17
482.307	5.18
482.658	5.18
483.009	5.17
483.359	5.17
483.709	5.17
484.06	5.19
484.41	5.2
484.761	5.21
485.111	5.2
485.461	5.2
485.811	5.21
486.162	5.21
486.512	5.21
486.862	5.22
487.212	5.21
487.562	5.21
487.912	5.21
488.262	5.21
488.612	5.2
488.961	5.2
489.311	5.21
489.661	5.2
490.011	5.2
490.36	5.21
490.71	5.21
491.06	5.2
491.409	5.19
491.759	5.18
492.108	5.18
492.458	5.18
492.807	5.19
493.157	5.19
493.506	5.19
493.855	5.2
494.204	5.2
494.554	5.21
494.903	5.22
495.252	5.22
495.601	5.24
495.95	5.28
496.299	5.29
496.648	5.28
496.997	5.29
497.346	5.32
497.695	5.35
498.043	5.36
498.392	5.4
498.741	5.44
499.09	5.46
499.438	5.5
499.787	5.54
500.135	5.56
500.484	5.6
500.832	5.65
501.181	5.69
501.529	5.74
501.878	5.8
502.226	5.85
502.574	5.89
502.923	5.92
503.271	5.93
503.619	5.99
503.967	6.07
504.315	6.14
504.663	6.19
505.011	6.21
505.359	6.27
505.707	6.33
506.055	6.37
506.403	6.44
506.751	6.48
507.098	6.55
507.446	6.63
507.794	6.67
508.141	6.71
508.489	6.77
508.837	6.8
509.184	6.83
509.531	6.89
509.879	6.96
510.226	7.02
510.574	7.07
510.921	7.11
511.268	7.14
511.616	7.2
511.963	7.27
512.31	7.34
512.657	7.39
513.004	7.43
513.351	7.49
513.698	7.57
514.045	7.63
514.392	7.7
514.739	7.74
515.086	7.79
515.432	7.87
515.779	7.93
516.126	8.01
516.473	8.06
516.819	8.11
517.166	8.13
517.512	8.19
517.859	8.25
518.205	8.31
518.552	8.37
518.898	8.44
519.245	8.47
519.591	8.52
519.937	8.59
520.283	8.66
520.629	8.73
520.976	8.77
521.322	8.86
521.668	8.93
522.014	9.01
522.36	9.09
522.706	9.18
523.052	9.29
523.398	9.4
523.743	9.49
524.089	9.6
524.435	9.71
524.781	9.81
525.126	9.91
525.472	10
525.817	10.09
526.163	10.17
526.509	10.24
526.854	10.31
527.199	10.39
527.545	10.44
527.89	10.51
528.235	10.58
528.581	10.65
528.926	10.72
529.271	10.8
529.616	10.87
529.961	10.94
530.306	11.01
530.651	11.08
530.996	11.18
531.341	11.26
531.686	11.36
532.031	11.45
532.376	11.55
532.721	11.67
533.065	11.76
533.41	11.87
533.755	11.99
534.099	12.12
534.444	12.24
534.788	12.39
535.133	12.52
535.477	12.65
535.822	12.78
536.166	12.94
536.51	13.09
536.855	13.28
537.199	13.47
537.543	13.66
537.887	13.87
538.231	14.08
538.576	14.28
538.92	14.51
539.264	14.73
539.608	14.92
539.951	15.12
540.295	15.32
540.639	15.51
540.983	15.69
541.327	15.88
541.671	16.03
542.014	16.19
542.358	16.38
542.701	16.57
543.045	16.77
543.389	16.98
543.732	17.17
544.075	17.37
544.419	17.6
544.762	17.82
545.105	18.07
545.449	18.3
545.792	18.57
546.135	18.78
546.478	19.08
546.821	19.37
547.165	19.63
547.508	19.94
547.851	20.23
548.194	20.54
548.536	20.87
548.879	21.23
549.222	21.54
549.565	21.89
549.908	22.24
550.25	22.6
550.593	22.97
550.936	23.35
551.278	23.73
551.621	24.11
551.963	24.51
552.306	24.86
552.648	25.25
552.991	25.69
553.333	26.11
553.675	26.42
554.017	26.81
554.36	27.16
554.702	27.51
555.044	27.9
555.386	28.34
555.728	28.71
556.07	29.14
556.412	29.6
556.754	30.05
557.096	30.47
557.438	30.93
557.78	31.3
558.121	31.79
558.463	32.23
558.805	32.65
559.147	33.06
559.488	33.47
559.83	33.89
560.171	34.21
560.513	34.61
560.854	35.07
561.196	35.41
561.537	35.85
561.878	36.27
562.22	36.68
562.561	37.03
562.902	37.45
563.243	37.81
563.584	38.2
563.925	38.56
564.266	38.96
564.607	39.31
564.948	39.68
565.289	40.03
565.63	40.33
565.971	40.67
566.312	41.04
566.653	41.37
566.993	41.64
567.334	41.97
567.675	42.31
568.015	42.64
568.356	43.02
568.696	43.35
569.037	43.68
569.377	44
569.718	44.35
570.058	44.72
570.398	45.04
570.739	45.35
571.079	45.68
571.419	46.01
571.759	46.37
572.099	46.66
572.439	46.88
572.779	47.19
573.119	47.47
573.459	47.72
573.799	47.98
574.139	48.31
574.479	48.6
574.819	48.86
575.158	49.09
575.498	49.35
575.838	49.61
576.177	49.84
576.517	50.13
576.856	50.35
577.196	50.54
577.535	50.76
577.875	51.06
578.214	51.24
578.553	51.47
578.893	51.65
579.232	51.89
579.571	52.15
579.91	52.41
580.25	52.59
580.589	52.77
580.928	53.07
581.267	53.25
581.606	53.49
581.945	53.75
582.283	54
582.622	54.22
582.961	54.39
583.3	54.57
583.639	54.73
583.977	54.88
584.316	55.05
584.654	55.34
584.993	55.47
585.332	55.7
585.67	55.86
586.008	56.03
586.347	56.15
586.685	56.37
587.024	56.53
587.362	56.72
587.7	56.98
588.038	57.07
588.376	57.26
588.715	57.4
589.053	57.55
589.391	57.67
589.729	57.84
590.067	58.05
590.404	58.27
590.742	58.43
591.08	58.68
591.418	58.79
591.756	58.84
592.093	59
592.431	59.09
592.769	59.23
593.106	59.31
593.444	59.49
593.781	59.58
594.119	59.67
594.456	59.84
594.793	59.92
595.131	60.04
595.468	60.15
595.805	60.21
596.143	60.25
596.48	60.41
596.817	60.51
597.154	60.65
597.491	60.72
597.828	60.84
598.165	60.89
598.502	60.99
598.839	61.11
599.176	61.17
599.512	61.31
599.849	61.37
600.186	61.48
600.523	61.55
600.859	61.68
601.196	61.74
601.532	61.88
601.869	61.91
602.205	62.03
602.542	62.1
602.878	62.2
603.215	62.3
603.551	62.33
603.887	62.35
604.223	62.25
604.56	62.28
604.896	62.27
605.232	62.34
605.568	62.38
605.904	62.48
606.24	62.57
606.576	62.65
606.912	62.72
607.248	62.83
607.583	62.9
607.919	62.93
608.255	63.08
608.591	63.04
608.926	63.15
609.262	63.2
609.597	63.21
609.933	63.26
610.268	63.32
610.604	63.39
610.939	63.47
611.275	63.66
611.61	63.78
611.945	63.9
612.281	63.97
612.616	64.15
612.951	64.16
613.286	64.27
613.621	64.36
613.956	64.43
614.291	64.47
614.626	64.53
614.961	64.69
615.296	64.74
615.631	64.83
615.966	64.85
616.3	64.88
616.635	64.99
616.97	65.15
617.304	65.07
617.639	65.08
617.973	65.14
618.308	65.15
618.642	65.14
618.977	65.19
619.311	65.15
619.646	65.18
619.98	65.27
620.314	65.23
620.648	65.19
620.983	65.3
621.317	65.31
621.651	65.34
621.985	65.35
622.319	65.35
622.653	65.39
622.987	65.42
623.321	65.44
623.655	65.43
623.988	65.37
624.322	65.51
624.656	65.63
624.99	65.68
625.323	65.76
625.657	65.85
625.99	65.93
626.324	66.01
626.657	66
626.991	66.04
627.324	66.14
627.658	66.2
627.991	66.19
628.324	66.25
628.657	66.29
628.991	66.3
629.324	66.32
629.657	66.39
629.99	66.41
630.323	66.47
630.656	66.54
630.989	66.63
631.322	66.66
631.655	66.65
631.987	66.65
632.32	66.7
632.653	66.71
632.986	66.6
633.318	66.68
633.651	66.66
633.984	66.66
634.316	66.65
634.649	66.68
634.981	66.74
635.313	66.67
635.646	66.71
635.978	66.72
636.31	66.78
636.643	66.85
636.975	66.95
637.307	66.95
637.639	66.99
637.971	66.95
638.303	66.89
638.635	66.91
638.967	66.91
639.299	66.99
639.631	66.99
639.963	67.17
640.295	67.12
640.626	67.22
640.958	67.23
641.29	67.16
641.621	67.17
641.953	67.06
642.285	67.2
642.616	67.17
642.948	67.17
643.279	67.22
643.61	67.12
643.942	67.19
644.273	67.09
644.604	67.02
644.936	67
645.267	67.16
645.598	67.04
645.929	67.1
646.26	66.96
646.591	66.99
646.922	66.91
647.253	67.01
647.584	67.09
647.915	67.19
648.245	67.3
648.576	67.38
648.907	67.4
649.238	67.38
649.568	67.55
649.899	67.54
650.229	67.57
650.56	67.77
650.89	67.75
651.221	67.85
651.551	67.84
651.882	67.94
652.212	67.89
652.542	68.01
652.872	68.06
653.203	68.18
653.533	68.2
653.863	68.35
654.193	68.35
654.523	68.34
654.853	68.26
655.183	68.21
655.513	68.11
655.843	68.13
656.172	68.16
656.502	68.16
656.832	68.24
657.162	68.22
657.491	68.17
657.821	68.19
658.15	68.21
658.48	68.34
658.809	68.41
659.139	68.46
659.468	68.43
659.798	68.46
660.127	68.32
660.456	68.32
660.785	68.26
661.115	68.26
661.444	68.24
661.773	68.23
662.102	68.28
662.431	68.42
662.76	68.34
663.089	68.26
663.418	68.32
663.747	68.29
664.076	68.24
664.404	68.28
664.733	68.39
665.062	68.54
665.39	68.52
665.719	68.34
666.048	68.3
666.376	68.42
666.705	68.37
667.033	68.54
667.362	68.56
667.69	68.44
668.018	68.4
668.347	68.41
668.675	68.62
669.003	68.76
669.331	68.68
669.659	68.86
669.987	68.9
670.315	68.85
670.643	68.84
670.971	68.96
671.299	68.79
671.627	68.72
671.955	68.58
672.283	68.62
672.61	68.67
672.938	68.7
673.266	68.64
673.593	68.75
673.921	68.64
674.249	68.56
674.576	68.69
674.904	68.67
675.231	68.55
675.558	68.35
675.886	68.28
676.213	68.32
676.54	68.2
676.867	68.32
677.195	68.21
677.522	68.31
677.849	68.36
678.176	68.36
678.503	68.26
678.83	68.31
679.157	68.26
679.484	68.29
679.81	68.38
680.137	68.46
680.464	68.48
680.791	68.58
681.117	68.7
681.444	68.68
681.771	68.67
682.097	68.76
682.424	68.66
682.75	68.66
683.077	68.59
683.403	68.64
683.729	68.77
684.056	68.87
684.382	68.89
684.708	68.82
685.034	68.92
685.36	69.02
685.686	69.07
686.012	69.05
686.339	69.09
686.664	69.07
686.99	68.94
687.316	68.94
687.642	69.06
687.968	68.98
688.294	69.1
688.619	69.1
688.945	69.16
689.271	69.34
689.596	69.32
689.922	69.55
690.247	69.64
690.573	69.49
690.898	69.42
691.224	69.29
691.549	69.35
691.874	69.32
692.2	69.33
692.525	69.11
692.85	69.19
693.175	69.07
693.5	69.15
693.825	69.21
694.15	69.19
694.475	68.94
694.8	68.96
695.125	68.92
695.45	69.18
695.775	69.07
696.099	69.09
696.424	69.09
696.749	68.92
697.073	69.05
697.398	69.15
697.723	69.38
698.047	69.54
698.372	69.47
698.696	69.63
699.02	69.57
699.345	69.88
699.669	69.91
699.993	69.99
700.318	69.84
700.642	69.85
700.966	69.77
701.29	69.95
701.614	70.04
701.938	70.02
702.262	69.87
702.586	70.03
702.91	70.15
703.234	70.23
703.557	70.47
703.881	70.11
704.205	70.06
704.529	69.89
704.852	69.86
705.176	69.73
705.499	69.6
705.823	69.72
706.146	69.74
706.47	69.92
706.793	70.02
707.117	70.03
707.44	70.15
707.763	70.22
708.086	69.97
708.409	70.04
708.733	70.02
709.056	69.94
709.379	69.81
709.702	69.7
710.025	69.6
710.348	69.46
710.671	69.56
710.993	69.42
711.316	69.42
711.639	69.33
711.962	69.52
712.284	69.45
712.607	69.01
712.93	68.82
713.252	68.52
713.575	68.64
713.897	68.67
714.22	68.62
714.542	68.49
714.864	68.67
715.187	68.65
715.509	68.76
715.831	68.84
716.153	68.79
716.475	68.69
716.798	68.73
717.12	68.62
717.442	68.76
717.764	68.79
718.085	68.57
718.407	68.61
718.729	68.67
719.051	68.75
719.373	69.13
719.695	69.12
720.016	69.2
720.338	68.98
720.659	68.9
720.981	68.79
721.302	69
721.624	68.94
721.945	68.84
722.267	68.65
722.588	68.64
722.909	68.68
723.231	68.72
723.552	68.71
723.873	68.77
724.194	68.69
724.515	68.63
724.836	68.94
725.157	68.69
725.478	68.38
725.799	68.28
726.12	68.43
726.441	68.5
726.762	68.71
727.083	68.94
727.403	69.05
727.724	69.13
728.045	69.13
728.365	69.03
728.686	69
729.006	69.12
729.327	68.99
729.647	69.32
729.967	69.53
730.288	69.97
730.608	69.94
730.928	70.18
731.249	70.41
731.569	70.4
731.889	70.71
732.209	70.74
732.529	70.89
732.849	70.81
733.169	70.81
733.489	70.77
733.809	70.79
734.129	70.86
734.448	71.05
734.768	71.01
735.088	71.09
735.408	71
735.727	71
736.047	71.26
736.366	71.17
736.686	71.03
737.005	70.88
737.325	71.15
737.644	71.02
737.963	70.81
738.283	70.67
738.602	70.58
738.921	70.62
739.24	70.53
739.56	70.65
739.879	70.69
740.198	70.61
740.517	70.43
740.836	70.43
741.155	70.34
741.473	70.41
741.792	70.64
742.111	70.59
742.43	70.54
742.748	70.27
743.067	70.12
743.386	69.92
743.704	69.64
744.023	69.41
744.341	69.24
744.66	69.22
744.978	69.25
745.297	69.2
745.615	69.53
745.933	69.46
746.252	69.36
746.57	69.18
746.888	69.29
747.206	69.41
747.524	69.34
747.842	69.08
748.16	69.21
748.478	69.39
748.796	69.62
749.114	69.77
749.432	69.91
749.749	69.8
750.067	69.66
750.385	69.55
750.703	69.73
751.02	69.97
751.338	70.1
751.655	69.88
751.973	69.75
752.29	69.67
752.608	70.22
752.925	70.52
753.242	70.52
753.56	70.21
753.877	70.21
754.194	70.3
754.511	70.25
754.828	70.08
755.145	69.52
755.462	69.6
755.779	69.76
756.096	70.18
756.413	70.36
756.73	70.62
757.047	70.55
757.364	70.42
757.68	70.32
757.997	70.03
758.314	70.43
758.63	71.03
758.947	71.35
759.264	70.98
759.58	70.73
759.896	71.09
760.213	71.27
760.529	70.97
760.846	70.52
761.162	70.76
761.478	70.38
761.794	70.67
762.11	70.51
762.426	70.35
762.743	70.09
763.059	70.28
763.375	70.48
763.69	70.69
764.006	70.74
764.322	70.83
764.638	71.09
764.954	70.99
765.27	70.87
765.585	70.65
765.901	70.63
766.216	70.66
766.532	70.42
766.848	70.45
767.163	70.61
767.478	70.92
767.794	70.83
768.109	71.3
768.424	71.17
768.74	71.54
769.055	71.74
769.37	71.53
769.685	71.27
770	71.48
770.315	71.49
770.63	71.55
770.945	71.61
771.26	71.94
771.575	71.9
771.89	71.59
772.205	71.94
772.52	72.23
772.834	72.32
773.149	72.51
773.464	72.67
773.778	72.49
774.093	72.82
774.407	72.85
774.722	72.78
775.036	72.88
775.351	72.61
775.665	71.76
775.979	72.17
776.293	72.22
776.608	71.67
776.922	71.61
777.236	71.46
777.55	71.4
777.864	70.55
778.178	70.62
778.492	70.64
778.806	70
779.12	69.83
779.434	69.52
779.747	69.36
780.061	69.39
780.375	69.42
780.689	69.33
781.002	69.38
781.316	68.91
781.629	68.9
781.943	68.49
782.256	69.49
782.57	69.25
782.883	69.27
783.196	69.45
783.51	69.43
783.823	69.21
784.136	69.04
784.449	69.57
784.762	69.67
785.075	69.91
785.388	70.02
785.701	69.64
786.014	69.72
786.327	69.68
786.64	69.54
786.953	70.06
787.266	70.06
787.578	70.04
787.891	70.58
788.204	70.64
788.516	71.18
788.829	70.91
789.141	71.08
789.454	71.21
789.766	71.29
790.079	71.41
790.391	71.72
790.703	71.61
791.016	72.2
791.328	72.05
791.64	71.76
791.952	71.96
792.264	71.5
792.576	71.5
792.888	71.36
793.2	71.94
793.512	71.56
793.824	71.83
794.136	71.99
794.448	71.64
794.76	71.93
795.071	71.23
795.383	70.96
795.695	70.99
796.006	71.02
796.318	70.78
796.629	70.38
796.941	70
797.252	70.25
797.564	70.15
797.875	70.35
798.186	70.44
798.497	70.6
798.809	70.92
799.12	71.01
799.431	71.33
799.742	70.7
800.053	70.61
800.364	70.33
800.675	70.47
800.986	70.78
801.297	70.07
801.608	70.2
801.918	70.24
802.229	70.22
802.54	69.55
802.851	69.39
803.161	70.17
803.472	71.09
803.782	70.93
804.093	70.21
804.403	70.32
804.714	70.44
805.024	68.96
805.334	69.21
805.645	69.15
805.955	69.17
806.265	69.01
806.575	69.4
806.885	69.42
807.195	69.24
807.505	69.64
807.815	70.11
808.125	70.26
808.435	70.22
808.745	70.56
809.055	71.1
809.365	70.92
809.674	70.37
809.984	69.93
810.294	70.21
810.603	70.55
810.913	70.86
811.222	70.97
811.532	72.1
811.841	72.92
812.151	73.4
812.46	72.83
812.769	72.44
813.079	72.28
813.388	71.97
813.697	72.34
814.006	72
814.315	72.03
814.624	72.62
814.933	72.75
815.242	71.6
815.551	71.4
815.86	72.59
816.169	72.45
816.478	71.96
816.786	72.21
817.095	71.89
817.404	70.72
817.712	69.7
818.021	69.99
818.33	69.78
818.638	69.46
818.947	69.48
819.255	69.56
819.563	68.82
819.872	69.29
820.18	68.95
820.488	69.27
820.796	69.25
821.105	69.24
821.413	69.26
821.721	69.4
822.029	69.63
822.337	69.5
822.645	69.63
822.953	69.69
823.26	69.51
823.568	69.45
823.876	69.58
824.184	69.95
824.491	69.82
824.799	69.9
825.107	69.86
825.414	70.04
825.722	70.32
826.029	70.77
826.337	70.7
826.644	70.73
826.951	70.46
827.259	70.51
827.566	70.66
827.873	70.88
828.18	71.21
828.488	71.06
828.795	71.42
829.102	71.33
829.409	71.34
829.716	71.61
830.023	71.81
830.329	71.79
830.636	71.47
830.943	71.87
831.25	71.24
831.557	71.46
831.863	71.56
832.17	71.33
832.476	71.1
832.783	71.14
833.089	71.62
833.396	72.26
833.702	72.06
834.009	71.97
834.315	71.97
834.621	71.52
834.928	71.21
835.234	70.79
835.54	70.76
835.846	70.93
836.152	70.42
836.458	70.33
836.764	70.62
837.07	71.1
837.376	70.95
837.682	71.08
837.988	70.79
838.293	70.98
838.599	70.92
838.905	71.63
839.211	71.74
839.516	71.3
839.822	71.17
840.127	71.51
840.433	71.09
840.738	70.56
841.044	71.04
841.349	71.81
841.654	71.05
841.959	70.83
842.265	71.09
842.57	72.63
842.875	73.2
843.18	72.17
843.485	70.45
843.79	69.69
844.095	70.83
844.4	71.27
844.705	69.89
845.01	69.56
845.315	68.01
845.619	68.32
845.924	67.69
846.229	67.55
846.533	67.51
846.838	66.98
847.142	66.75
847.447	66.24
847.751	65.17
848.056	65.85
848.36	65.66
848.664	65.41
848.969	63.17
849.273	61.81
849.577	61.79
849.881	61.03
850.185	61.69
850.489	60.14
850.794	59.78
851.097	60.47
851.401	60.49
851.705	61.39
852.009	61.33
852.313	61.79
852.617	60.21
852.92	62.42
853.224	62.43
853.528	63.16
853.831	62.04
854.135	63.26
854.438	62.38
854.742	62.35
855.045	61.29
855.349	61.86
855.652	62.31
855.955	62.77
856.259	65.86
856.562	66.08
856.865	66.44
857.168	65.34
857.471	62.52
857.774	63.89
858.077	63.19
858.38	61.61
858.683	61.98
858.986	63.2
859.289	60.79
859.592	61.42
859.894	61.6
860.197	62.96
860.5	63.23
860.802	64.37
861.105	65.6
861.407	67.19
861.71	68.47
862.012	69.05
862.315	70.13
862.617	69.96
862.919	70.97
863.222	70.77
863.524	72.21
863.826	76.69
864.128	75.53
864.43	73.53
864.732	74.45
865.034	74.41
865.336	71.9
865.638	71.19
865.94	70.99
866.242	71.9
866.544	71.76
866.846	71.34
867.147	68.65
867.449	66.6
867.751	66.41
868.052	64.71
868.354	64.3
868.655	63.15
868.957	61.25
869.258	59.42
869.56	58.63
869.861	59.98
870.162	59.68
870.463	60.28
870.765	63.01
871.066	62.9
871.367	63.28
871.668	64.17
871.969	62.99
872.27	65.75
872.571	65.94
872.872	65.43
873.173	64.28
873.473	63.9
873.774	65.16
874.075	64.9
874.376	65.08
874.676	64.84
874.977	64.65
875.277	67.48
875.578	66.34
875.878	67.74
876.179	66.2
876.479	64.85
876.78	64.14
877.08	62.33
877.38	61.51
877.68	60.52
877.981	61.17
878.281	64.25
878.581	60.05
