Data from BA28420_Reflection_00011.txt Node
Date: Mon Nov 18 16:08:36 EST 2019
User: vgr7
Spectrometer: USB2G7710
Scans to average: 3
Trigger mode: 4
Integration Time (sec): 2.000000E-2
Electric dark correction enabled: true
Boxcar width: 10
XAxis mode: Wavelengths
Number of Pixels in Spectrum: 2048
>>>>>Begin Spectral Data<<<<<
177.721	35.26
178.105	-58.73
178.488	287.13
178.871	17.14
179.254	-44.37
179.636	22.8
180.019	-58.73
180.402	475
180.785	73.06
181.168	-126.5
181.55	-750.57
181.933	149.84
182.316	139.42
182.698	222.39
183.081	287.06
183.463	171.15
183.846	116.08
184.228	94.73
184.611	118.25
184.993	212.03
185.376	340.1
185.758	-35455.56
186.14	1077.35
186.522	1871.14
186.904	-1401.83
187.287	3018.24
187.669	-4526.26
188.051	794.59
188.433	941.71
188.815	566.44
189.197	538.21
189.579	749.57
189.961	621.26
190.342	436.03
190.724	596.88
191.106	475.87
191.488	625.59
191.869	1040.9
192.251	1831.8
192.633	873.62
193.014	330.08
193.396	248.52
193.777	186.24
194.159	170.81
194.54	163.95
194.922	190.67
195.303	198.38
195.684	246.59
196.065	567.5
196.447	267.08
196.828	305.13
197.209	283.65
197.59	259.46
197.971	319.21
198.352	-495.9
198.733	-367.61
199.114	-317.08
199.495	-148.64
199.876	-136.29
200.257	-143.04
200.638	-102.24
201.018	-63.76
201.399	-68.3
201.78	-58.37
202.16	-63.46
202.541	-92.48
202.922	-110.7
203.302	-87.19
203.683	-98.03
204.063	-106.3
204.444	-90.23
204.824	-50.42
205.204	-60.19
205.585	-84.8
205.965	-79.35
206.345	-92.4
206.725	-127.51
207.106	-139.36
207.486	-442.1
207.866	-284.12
208.246	-284.03
208.626	-346.17
209.006	-242.39
209.386	-290.05
209.766	-303.34
210.145	-553.93
210.525	-146.13
210.905	-89.43
211.285	-84.46
211.664	-48.44
212.044	-105.65
212.424	-70.17
212.803	-253.37
213.183	-108.71
213.562	-33.03
213.942	-29.8
214.321	-22.67
214.701	-41.31
215.08	-59.8
215.459	-23.49
215.838	-51.14
216.218	-43.56
216.597	-26.15
216.976	-14.82
217.355	-11.64
217.734	-10.38
218.113	-5.51
218.492	-30.71
218.871	-42.82
219.25	-48.03
219.629	-61.95
220.008	-50.01
220.387	-63.85
220.766	-54.1
221.144	-79.51
221.523	-93.67
221.902	-114.31
222.28	-111.5
222.659	-75.97
223.037	-69.48
223.416	-67.65
223.794	-59.68
224.173	-54.12
224.551	-48.84
224.929	-54.64
225.308	-41.36
225.686	-34.13
226.064	-32.72
226.442	-22.43
226.821	-13.97
227.199	-8.35
227.577	-5.57
227.955	-6.29
228.333	-2.54
228.711	-2.98
229.089	0.81
229.467	-0.45
229.845	-0.83
230.222	0.52
230.6	-2.24
230.978	-2.06
231.356	-0.39
231.733	0.21
232.111	0.38
232.488	0.93
232.866	0.38
233.243	0.91
233.621	0.77
233.998	1.52
234.376	-0.63
234.753	-1.65
235.13	-1
235.508	-0.63
235.885	0.58
236.262	-1.17
236.639	-1.78
237.016	-2.13
237.393	0.31
237.77	0.85
238.147	1.06
238.524	1.56
238.901	2.07
239.278	3.21
239.655	3.91
240.032	4.19
240.409	3.73
240.785	3.81
241.162	3.09
241.539	2.84
241.915	2.9
242.292	3.09
242.668	3.01
243.045	2.83
243.421	3.19
243.798	2.96
244.174	3.07
244.551	3.51
244.927	3.47
245.303	3.37
245.679	3.44
246.056	3.34
246.432	3.22
246.808	3.21
247.184	2.85
247.56	2.6
247.936	2.47
248.312	2.51
248.688	2.65
249.064	2.86
249.44	2.79
249.815	2.57
250.191	2.59
250.567	2.61
250.943	2.62
251.318	2.47
251.694	2.47
252.069	2.34
252.445	2.06
252.82	2.07
253.196	1.91
253.571	1.86
253.947	1.89
254.322	2.27
254.697	2.22
255.073	1.89
255.448	1.71
255.823	2.04
256.198	2.17
256.573	1.91
256.948	2.05
257.323	2.44
257.698	2.64
258.073	2.77
258.448	2.83
258.823	2.96
259.198	2.89
259.573	3.02
259.948	3.03
260.322	3.06
260.697	3.11
261.072	3.05
261.446	3.06
261.821	3
262.195	2.98
262.57	2.9
262.944	3.07
263.319	3.15
263.693	3.09
264.067	3.08
264.442	3.35
264.816	3.14
265.19	2.88
265.564	2.9
265.938	2.81
266.313	2.79
266.687	2.81
267.061	2.91
267.435	2.87
267.809	2.88
268.183	2.91
268.556	2.83
268.93	3.06
269.304	2.95
269.678	3.01
270.051	2.88
270.425	2.91
270.799	3.06
271.172	3.15
271.546	3.15
271.919	3.05
272.293	2.99
272.666	3.08
273.04	3.22
273.413	3.33
273.787	3.49
274.16	3.49
274.533	3.33
274.906	3.26
275.279	3.31
275.653	3.39
276.026	3.24
276.399	3.32
276.772	3.25
277.145	3.2
277.518	3.14
277.891	3.26
278.263	3.18
278.636	3.08
279.009	2.97
279.382	3
279.755	3.11
280.127	3.21
280.5	3.23
280.872	3.2
281.245	3.1
281.617	3.06
281.99	3.11
282.362	3.2
282.735	3.05
283.107	3.06
283.479	3.15
283.852	3.33
284.224	3.32
284.596	3.3
284.968	3.44
285.34	3.59
285.713	3.54
286.085	3.7
286.457	3.7
286.829	3.67
287.201	3.79
287.572	3.67
287.944	3.51
288.316	3.53
288.688	3.48
289.06	3.37
289.431	3.29
289.803	3.37
290.175	3.37
290.546	3.58
290.918	3.57
291.289	3.53
291.661	3.54
292.032	3.61
292.403	3.63
292.775	3.64
293.146	3.56
293.517	3.54
293.889	3.56
294.26	3.6
294.631	3.57
295.002	3.35
295.373	3.41
295.744	3.58
296.115	3.56
296.486	3.56
296.857	3.59
297.228	3.63
297.599	3.55
297.97	3.52
298.34	3.46
298.711	3.42
299.082	3.4
299.452	3.34
299.823	3.36
300.194	3.33
300.564	3.26
300.935	3.19
301.305	3.12
301.676	3.15
302.046	3.07
302.416	3.27
302.787	3.35
303.157	3.42
303.527	3.28
303.897	3.31
304.267	3.47
304.637	3.66
305.008	3.74
305.378	3.74
305.748	3.83
306.117	3.85
306.487	3.94
306.857	3.91
307.227	3.93
307.597	3.94
307.967	3.93
308.336	3.99
308.706	4.05
309.076	4.21
309.445	4.11
309.815	4.11
310.184	4.1
310.554	4.21
310.923	4.26
311.293	4.32
311.662	4.24
312.031	4.12
312.401	4.07
312.77	4.13
313.139	4.22
313.508	4.28
313.877	4.21
314.246	4.31
314.616	4.3
314.985	4.41
315.353	4.3
315.722	4.46
316.091	4.44
316.46	4.55
316.829	4.63
317.198	4.66
317.567	4.71
317.935	4.55
318.304	4.54
318.672	4.52
319.041	4.59
319.41	4.64
319.778	4.7
320.147	4.8
320.515	4.87
320.883	4.86
321.252	4.91
321.62	4.95
321.988	4.95
322.357	5.04
322.725	4.95
323.093	5.11
323.461	5.08
323.829	5.25
324.197	5.22
324.565	5.18
324.933	5.25
325.301	5.31
325.669	5.42
326.037	5.45
326.405	5.54
326.772	5.57
327.14	5.71
327.508	5.69
327.875	5.61
328.243	5.6
328.61	5.57
328.978	5.56
329.346	5.65
329.713	5.57
330.08	5.62
330.448	5.64
330.815	5.59
331.182	5.7
331.55	5.59
331.917	5.68
332.284	5.77
332.651	5.8
333.018	5.93
333.385	5.94
333.752	5.86
334.119	5.76
334.486	5.63
334.853	5.65
335.22	5.72
335.587	5.74
335.954	5.72
336.32	5.82
336.687	5.71
337.054	5.81
337.42	5.9
337.787	5.93
338.153	5.93
338.52	5.96
338.886	6.03
339.253	6.06
339.619	6.06
339.986	6.03
340.352	6.06
340.718	5.97
341.084	5.93
341.451	5.97
341.817	5.99
342.183	6.03
342.549	5.99
342.915	5.97
343.281	5.97
343.647	6
344.013	6.04
344.379	6.09
344.745	6.08
345.11	6.12
345.476	6.15
345.842	6.18
346.208	6.09
346.573	5.92
346.939	6.02
347.304	5.85
347.67	5.83
348.035	5.84
348.401	5.89
348.766	6.01
349.132	6.1
349.497	6.1
349.862	6.28
350.228	6.32
350.593	6.38
350.958	6.41
351.323	6.32
351.688	6.24
352.053	6.35
352.418	6.36
352.783	6.38
353.148	6.41
353.513	6.42
353.878	6.52
354.243	6.64
354.608	6.62
354.972	6.79
355.337	6.85
355.702	6.89
356.066	6.91
356.431	6.88
356.795	6.91
357.16	6.99
357.524	6.83
357.889	6.82
358.253	6.8
358.618	6.86
358.982	6.88
359.346	6.84
359.71	6.77
360.075	6.74
360.439	6.74
360.803	6.67
361.167	6.64
361.531	6.57
361.895	6.52
362.259	6.44
362.623	6.44
362.987	6.39
363.351	6.32
363.714	6.31
364.078	6.28
364.442	6.2
364.806	6.13
365.169	6.19
365.533	6.19
365.896	6.22
366.26	6.17
366.623	6.14
366.987	6.14
367.35	6.13
367.714	6.06
368.077	6.07
368.44	6.05
368.803	6
369.167	5.99
369.53	5.96
369.893	6.07
370.256	5.97
370.619	5.93
370.982	5.86
371.345	5.8
371.708	5.82
372.071	5.77
372.434	5.79
372.797	5.74
373.159	5.71
373.522	5.69
373.885	5.66
374.247	5.69
374.61	5.64
374.973	5.62
375.335	5.6
375.698	5.51
376.06	5.46
376.423	5.47
376.785	5.49
377.147	5.54
377.51	5.43
377.872	5.42
378.234	5.4
378.596	5.38
378.958	5.35
379.321	5.32
379.683	5.32
380.045	5.28
380.407	5.26
380.769	5.18
381.13	5.06
381.492	5.04
381.854	5.03
382.216	5.05
382.578	5.04
382.939	5.03
383.301	4.97
383.663	5.02
384.024	5.03
384.386	5.02
384.747	4.96
385.109	4.98
385.47	4.96
385.832	4.95
386.193	4.98
386.554	4.96
386.916	4.91
387.277	4.89
387.638	4.9
387.999	4.88
388.36	4.92
388.721	4.94
389.082	4.92
389.443	4.87
389.804	4.87
390.165	4.82
390.526	4.8
390.887	4.79
391.248	4.75
391.609	4.68
391.969	4.65
392.33	4.63
392.691	4.59
393.051	4.56
393.412	4.6
393.772	4.53
394.133	4.53
394.493	4.51
394.854	4.48
395.214	4.42
395.574	4.41
395.935	4.37
396.295	4.35
396.655	4.31
397.015	4.3
397.376	4.25
397.736	4.25
398.096	4.27
398.456	4.26
398.816	4.25
399.176	4.24
399.535	4.23
399.895	4.21
400.255	4.19
400.615	4.21
400.975	4.1
401.334	4.09
401.694	4.04
402.054	4.02
402.413	3.99
402.773	3.96
403.132	3.94
403.492	3.94
403.851	3.95
404.211	3.96
404.57	3.93
404.929	3.95
405.288	3.95
405.648	3.91
406.007	3.89
406.366	3.86
406.725	3.88
407.084	3.89
407.443	3.88
407.802	3.91
408.161	3.86
408.52	3.87
408.879	3.86
409.238	3.9
409.596	3.93
409.955	3.92
410.314	3.94
410.673	3.91
411.031	3.89
411.39	3.86
411.748	3.85
412.107	3.86
412.465	3.83
412.824	3.79
413.182	3.77
413.54	3.78
413.899	3.77
414.257	3.76
414.615	3.73
414.974	3.73
415.332	3.69
415.69	3.69
416.048	3.69
416.406	3.71
416.764	3.65
417.122	3.64
417.48	3.63
417.838	3.61
418.195	3.6
418.553	3.59
418.911	3.57
419.269	3.55
419.626	3.54
419.984	3.53
420.342	3.53
420.699	3.52
421.057	3.5
421.414	3.48
421.772	3.46
422.129	3.46
422.486	3.45
422.844	3.44
423.201	3.44
423.558	3.44
423.915	3.41
424.273	3.43
424.63	3.41
424.987	3.41
425.344	3.4
425.701	3.4
426.058	3.39
426.415	3.39
426.772	3.39
427.128	3.38
427.485	3.38
427.842	3.37
428.199	3.36
428.555	3.37
428.912	3.38
429.269	3.39
429.625	3.38
429.982	3.35
430.338	3.36
430.695	3.37
431.051	3.37
431.407	3.37
431.764	3.36
432.12	3.36
432.476	3.36
432.832	3.37
433.189	3.36
433.545	3.37
433.901	3.37
434.257	3.36
434.613	3.38
434.969	3.37
435.325	3.38
435.681	3.4
436.036	3.41
436.392	3.4
436.748	3.39
437.104	3.38
437.459	3.39
437.815	3.37
438.171	3.35
438.526	3.34
438.882	3.35
439.237	3.35
439.593	3.36
439.948	3.35
440.304	3.35
440.659	3.37
441.014	3.37
441.369	3.37
441.725	3.36
442.08	3.35
442.435	3.35
442.79	3.34
443.145	3.33
443.5	3.31
443.855	3.31
444.21	3.31
444.565	3.31
444.92	3.33
445.275	3.32
445.629	3.33
445.984	3.31
446.339	3.31
446.693	3.3
447.048	3.29
447.403	3.28
447.757	3.27
448.112	3.24
448.466	3.22
448.82	3.22
449.175	3.23
449.529	3.22
449.883	3.19
450.238	3.19
450.592	3.18
450.946	3.17
451.3	3.17
451.654	3.16
452.008	3.17
452.362	3.13
452.716	3.12
453.07	3.12
453.424	3.13
453.778	3.11
454.132	3.12
454.486	3.12
454.839	3.11
455.193	3.1
455.547	3.1
455.9	3.12
456.254	3.13
456.607	3.11
456.961	3.12
457.314	3.14
457.668	3.14
458.021	3.15
458.375	3.16
458.728	3.15
459.081	3.16
459.434	3.16
459.787	3.17
460.141	3.18
460.494	3.2
460.847	3.2
461.2	3.21
461.553	3.21
461.906	3.24
462.259	3.27
462.611	3.29
462.964	3.31
463.317	3.33
463.67	3.34
464.022	3.36
464.375	3.37
464.728	3.37
465.08	3.39
465.433	3.4
465.785	3.42
466.138	3.44
466.49	3.44
466.843	3.45
467.195	3.48
467.547	3.51
467.899	3.51
468.252	3.51
468.604	3.52
468.956	3.52
469.308	3.51
469.66	3.49
470.012	3.49
470.364	3.49
470.716	3.48
471.068	3.49
471.42	3.5
471.772	3.52
472.123	3.52
472.475	3.52
472.827	3.51
473.178	3.51
473.53	3.5
473.882	3.48
474.233	3.48
474.585	3.44
474.936	3.42
475.288	3.43
475.639	3.45
475.99	3.46
476.342	3.45
476.693	3.45
477.044	3.46
477.395	3.44
477.746	3.43
478.097	3.42
478.448	3.4
478.8	3.37
479.15	3.35
479.501	3.35
479.852	3.36
480.203	3.35
480.554	3.37
480.905	3.38
481.255	3.4
481.606	3.4
481.957	3.42
482.307	3.42
482.658	3.41
483.009	3.4
483.359	3.4
483.709	3.41
484.06	3.41
484.41	3.41
484.761	3.42
485.111	3.43
485.461	3.43
485.811	3.45
486.162	3.45
486.512	3.46
486.862	3.45
487.212	3.45
487.562	3.46
487.912	3.46
488.262	3.47
488.612	3.47
488.961	3.48
489.311	3.48
489.661	3.49
490.011	3.5
490.36	3.52
490.71	3.53
491.06	3.54
491.409	3.54
491.759	3.55
492.108	3.55
492.458	3.56
492.807	3.57
493.157	3.58
493.506	3.6
493.855	3.62
494.204	3.64
494.554	3.67
494.903	3.68
495.252	3.7
495.601	3.71
495.95	3.72
496.299	3.74
496.648	3.76
496.997	3.77
497.346	3.8
497.695	3.83
498.043	3.85
498.392	3.88
498.741	3.92
499.09	3.94
499.438	3.99
499.787	4.01
500.135	4.07
500.484	4.09
500.832	4.15
501.181	4.18
501.529	4.2
501.878	4.25
502.226	4.28
502.574	4.34
502.923	4.37
503.271	4.43
503.619	4.49
503.967	4.56
504.315	4.6
504.663	4.63
505.011	4.66
505.359	4.7
505.707	4.76
506.055	4.8
506.403	4.86
506.751	4.9
507.098	4.97
507.446	5.03
507.794	5.07
508.141	5.1
508.489	5.16
508.837	5.25
509.184	5.29
509.531	5.36
509.879	5.4
510.226	5.48
510.574	5.52
510.921	5.58
511.268	5.63
511.616	5.69
511.963	5.78
512.31	5.87
512.657	5.97
513.004	6.05
513.351	6.16
513.698	6.24
514.045	6.33
514.392	6.43
514.739	6.52
515.086	6.63
515.432	6.72
515.779	6.83
516.126	6.91
516.473	7.02
516.819	7.11
517.166	7.21
517.512	7.29
517.859	7.38
518.205	7.45
518.552	7.56
518.898	7.67
519.245	7.75
519.591	7.83
519.937	7.88
520.283	7.98
520.629	8.07
520.976	8.2
521.322	8.32
521.668	8.41
522.014	8.57
522.36	8.71
522.706	8.86
523.052	9.02
523.398	9.18
523.743	9.36
524.089	9.55
524.435	9.72
524.781	9.91
525.126	10.08
525.472	10.25
525.817	10.39
526.163	10.5
526.509	10.65
526.854	10.77
527.199	10.92
527.545	11.04
527.89	11.18
528.235	11.31
528.581	11.44
528.926	11.57
529.271	11.7
529.616	11.84
529.961	11.96
530.306	12.1
530.651	12.25
530.996	12.42
531.341	12.58
531.686	12.76
532.031	12.93
532.376	13.12
532.721	13.3
533.065	13.49
533.41	13.71
533.755	13.91
534.099	14.13
534.444	14.36
534.788	14.58
535.133	14.79
535.477	15
535.822	15.23
536.166	15.49
536.51	15.75
536.855	16.02
537.199	16.33
537.543	16.64
537.887	16.98
538.231	17.27
538.576	17.58
538.92	17.88
539.264	18.15
539.608	18.44
539.951	18.73
540.295	19
540.639	19.28
540.983	19.53
541.327	19.78
541.671	19.99
542.014	20.24
542.358	20.5
542.701	20.76
543.045	21
543.389	21.25
543.732	21.51
544.075	21.78
544.419	22.06
544.762	22.31
545.105	22.56
545.449	22.89
545.792	23.18
546.135	23.5
546.478	23.86
546.821	24.22
547.165	24.55
547.508	24.91
547.851	25.23
548.194	25.57
548.536	25.91
548.879	26.31
549.222	26.64
549.565	26.95
549.908	27.31
550.25	27.7
550.593	28.07
550.936	28.37
551.278	28.68
551.621	29.03
551.963	29.42
552.306	29.78
552.648	30.09
552.991	30.48
553.333	30.8
553.675	31.16
554.017	31.45
554.36	31.75
554.702	32.03
555.044	32.32
555.386	32.65
555.728	32.98
556.07	33.29
556.412	33.59
556.754	33.92
557.096	34.2
557.438	34.49
557.78	34.82
558.121	35.24
558.463	35.61
558.805	35.88
559.147	36.17
559.488	36.51
559.83	36.83
560.171	37.09
560.513	37.38
560.854	37.64
561.196	37.92
561.537	38.22
561.878	38.48
562.22	38.8
562.561	39.08
562.902	39.38
563.243	39.64
563.584	39.95
563.925	40.2
564.266	40.42
564.607	40.65
564.948	40.88
565.289	41.1
565.63	41.32
565.971	41.55
566.312	41.79
566.653	42.01
566.993	42.26
567.334	42.49
567.675	42.71
568.015	42.93
568.356	43.16
568.696	43.4
569.037	43.63
569.377	43.82
569.718	44.09
570.058	44.3
570.398	44.53
570.739	44.7
571.079	44.89
571.419	45.07
571.759	45.28
572.099	45.44
572.439	45.65
572.779	45.82
573.119	46.04
573.459	46.23
573.799	46.38
574.139	46.53
574.479	46.67
574.819	46.89
575.158	47.03
575.498	47.17
575.838	47.31
576.177	47.44
576.517	47.64
576.856	47.74
577.196	47.9
577.535	48.05
577.875	48.26
578.214	48.47
578.553	48.74
578.893	48.86
579.232	49.04
579.571	49.19
579.91	49.41
580.25	49.56
580.589	49.68
580.928	49.82
581.267	49.92
581.606	50.17
581.945	50.26
582.283	50.42
582.622	50.63
582.961	50.77
583.3	50.94
583.639	51.09
583.977	51.23
584.316	51.38
584.654	51.53
584.993	51.66
585.332	51.74
585.67	51.74
586.008	51.94
586.347	52.06
586.685	52.08
587.024	52.23
587.362	52.33
587.7	52.37
588.038	52.44
588.376	52.55
588.715	52.53
589.053	52.66
589.391	52.72
589.729	52.75
590.067	52.82
590.404	52.9
590.742	53.02
591.08	53.17
591.418	53.18
591.756	53.31
592.093	53.37
592.431	53.51
592.769	53.61
593.106	53.7
593.444	53.81
593.781	53.91
594.119	53.95
594.456	54.08
594.793	54.23
595.131	54.35
595.468	54.43
595.805	54.54
596.143	54.61
596.48	54.75
596.817	54.81
597.154	54.85
597.491	54.95
597.828	55.01
598.165	55.09
598.502	55.25
598.839	55.22
599.176	55.3
599.512	55.37
599.849	55.55
600.186	55.55
600.523	55.72
600.859	55.87
601.196	55.92
601.532	55.88
601.869	55.93
602.205	56
602.542	56.13
602.878	56.13
603.215	56.2
603.551	56.26
603.887	56.32
604.223	56.4
604.56	56.48
604.896	56.46
605.232	56.48
605.568	56.57
605.904	56.64
606.24	56.68
606.576	56.74
606.912	56.72
607.248	56.85
607.583	56.79
607.919	56.88
608.255	56.97
608.591	57.04
608.926	57.08
609.262	57.18
609.597	57.16
609.933	57.32
610.268	57.4
610.604	57.43
610.939	57.53
611.275	57.61
611.61	57.63
611.945	57.7
612.281	57.72
612.616	57.74
612.951	57.8
613.286	57.91
613.621	57.9
613.956	57.96
614.291	57.99
614.626	58.03
614.961	57.99
615.296	57.97
615.631	58.13
615.966	58.26
616.3	58.28
616.635	58.31
616.97	58.18
617.304	58.17
617.639	58.22
617.973	58.2
618.308	58.26
618.642	58.31
618.977	58.37
619.311	58.44
619.646	58.42
619.98	58.49
620.314	58.45
620.648	58.52
620.983	58.59
621.317	58.69
621.651	58.79
621.985	58.88
622.319	59.06
622.653	59.08
622.987	59.05
623.321	59.12
623.655	59.2
623.988	59.41
624.322	59.41
624.656	59.45
624.99	59.52
625.323	59.49
625.657	59.46
625.99	59.47
626.324	59.51
626.657	59.59
626.991	59.61
627.324	59.74
627.658	59.82
627.991	59.87
628.324	59.81
628.657	59.78
628.991	59.73
629.324	59.64
629.657	59.61
629.99	59.65
630.323	59.67
630.656	59.63
630.989	59.62
631.322	59.62
631.655	59.66
631.987	59.74
632.32	59.81
632.653	59.91
632.986	60.02
633.318	60.03
633.651	60.06
633.984	60.14
634.316	60.14
634.649	60.15
634.981	60.18
635.313	60.31
635.646	60.39
635.978	60.47
636.31	60.57
636.643	60.57
636.975	60.53
637.307	60.5
637.639	60.59
637.971	60.67
638.303	60.75
638.635	60.86
638.967	60.77
639.299	60.83
639.631	60.88
639.963	60.9
640.295	60.89
640.626	60.92
640.958	60.92
641.29	60.96
641.621	61.02
641.953	61.02
642.285	60.98
642.616	60.98
642.948	60.96
643.279	60.87
643.61	61.01
643.942	61.18
644.273	61.33
644.604	61.31
644.936	61.24
645.267	61.37
645.598	61.31
645.929	61.41
646.26	61.49
646.591	61.3
646.922	61.27
647.253	61.26
647.584	61.18
647.915	61.12
648.245	61.06
648.576	61
648.907	61.01
649.238	61.06
649.568	61.12
649.899	61.22
650.229	61.35
650.56	61.38
650.89	61.39
651.221	61.38
651.551	61.43
651.882	61.47
652.212	61.38
652.542	61.52
652.872	61.57
653.203	61.5
653.533	61.77
653.863	61.68
654.193	61.88
654.523	62.02
654.853	62.22
655.183	62.38
655.513	62.46
655.843	62.5
656.172	62.62
656.502	62.65
656.832	62.6
657.162	62.58
657.491	62.49
657.821	62.46
658.15	62.37
658.48	62.31
658.809	62.4
659.139	62.51
659.468	62.34
659.798	62.3
660.127	62.36
660.456	62.28
660.785	62.47
661.115	62.33
661.444	62.19
661.773	62.04
662.102	61.99
662.431	61.97
662.76	61.98
663.089	61.82
663.418	61.84
663.747	61.94
664.076	61.99
664.404	62.08
664.733	62.04
665.062	62.11
665.39	62.13
665.719	62.07
666.048	62.12
666.376	62.21
666.705	62.27
667.033	62.16
667.362	62.22
667.69	62.18
668.018	62.38
668.347	62.56
668.675	62.6
669.003	62.57
669.331	62.52
669.659	62.58
669.987	62.62
670.315	62.55
670.643	62.44
670.971	62.53
671.299	62.46
671.627	62.43
671.955	62.41
672.283	62.52
672.61	62.58
672.938	62.61
673.266	62.69
673.593	62.78
673.921	62.85
674.249	62.92
674.576	62.93
674.904	62.93
675.231	62.88
675.558	62.97
675.886	63.01
676.213	63
676.54	63.01
676.867	63.03
677.195	63.04
677.522	63.33
677.849	63.32
678.176	63.42
678.503	63.45
678.83	63.56
679.157	63.44
679.484	63.41
679.81	63.23
680.137	63.19
680.464	63.06
680.791	63.05
681.117	63.04
681.444	63.11
681.771	63.05
682.097	63.09
682.424	63.03
682.75	62.98
683.077	63.13
683.403	63.13
683.729	63.21
684.056	63.3
684.382	63
684.708	62.88
685.034	62.98
685.36	63.18
685.686	63.1
686.012	63.26
686.339	63.33
686.664	63.41
686.99	63.38
687.316	63.45
687.642	63.41
687.968	63.58
688.294	63.51
688.619	63.4
688.945	63.37
689.271	63.4
689.596	63.53
689.922	63.47
690.247	63.51
690.573	63.42
690.898	63.21
691.224	63.32
691.549	63.28
691.874	63
692.2	62.88
692.525	62.9
692.85	62.87
693.175	62.78
693.5	62.84
693.825	62.95
694.15	62.86
694.475	63.08
694.8	62.97
695.125	62.89
695.45	62.83
695.775	62.84
696.099	62.83
696.424	62.91
696.749	62.93
697.073	62.88
697.398	62.87
697.723	62.99
698.047	63.07
698.372	63.17
698.696	63.22
699.02	63.3
699.345	63.35
699.669	63.34
699.993	63.4
700.318	63.5
700.642	63.54
700.966	63.61
701.29	63.43
701.614	63.41
701.938	63.53
702.262	63.66
702.586	63.68
702.91	63.74
703.234	63.67
703.557	63.62
703.881	63.61
704.205	63.71
704.529	63.78
704.852	63.7
705.176	63.8
705.499	64.11
705.823	64.02
706.146	63.94
706.47	64.06
706.793	64.08
707.117	63.97
707.44	63.81
707.763	63.92
708.086	64.03
708.409	64.06
708.733	64.09
709.056	64.17
709.379	64.13
709.702	64.13
710.025	64.18
710.348	64.3
710.671	64.25
710.993	64.24
711.316	64.3
711.639	64.31
711.962	64.1
712.284	63.88
712.607	64.02
712.93	64.12
713.252	64.16
713.575	64.11
713.897	64.02
714.22	64.31
714.542	64.11
714.864	64.11
715.187	64.13
715.509	64.18
715.831	64.15
716.153	64.08
716.475	64.22
716.798	64.29
717.12	64.14
717.442	64.07
717.764	64.05
718.085	64.1
718.407	64.06
718.729	64.07
719.051	64.33
719.373	64.2
719.695	64.12
720.016	64.16
720.338	64.22
720.659	64.29
720.981	64.05
721.302	64.18
721.624	64.16
721.945	64.27
722.267	64.1
722.588	64.03
722.909	64.13
723.231	63.97
723.552	63.71
723.873	63.86
724.194	64.19
724.515	64.56
724.836	64.4
725.157	64.42
725.478	64.31
725.799	64.04
726.12	63.96
726.441	63.9
726.762	63.75
727.083	63.96
727.403	64.02
727.724	63.95
728.045	63.81
728.365	63.86
728.686	63.66
729.006	63.79
729.327	63.91
729.647	63.98
729.967	64.06
730.288	64.32
730.608	64.31
730.928	64.08
731.249	64.01
731.569	64.24
731.889	64.44
732.209	64.77
732.529	64.8
732.849	64.92
733.169	64.97
733.489	65.09
733.809	64.71
734.129	64.67
734.448	64.59
734.768	64.64
735.088	64.83
735.408	64.8
735.727	64.93
736.047	64.88
736.366	64.82
736.686	64.65
737.005	64.71
737.325	64.77
737.644	64.81
737.963	64.57
738.283	64.32
738.602	64.12
738.921	64.05
739.24	64.07
739.56	64.06
739.879	64.04
740.198	63.89
740.517	64.17
740.836	64.32
741.155	64.67
741.473	65.01
741.792	64.92
742.111	65.17
742.43	65.11
742.748	65.07
743.067	65.06
743.386	65.48
743.704	65.15
744.023	64.91
744.341	64.96
744.66	65.18
744.978	65.23
745.297	65.43
745.615	65.59
745.933	65.89
746.252	65.9
746.57	66.38
746.888	66.1
747.206	66.09
747.524	66.08
747.842	65.99
748.16	65.97
748.478	65.85
748.796	65.83
749.114	66
749.432	66.02
749.749	66.2
750.067	65.74
750.385	66.03
750.703	66.49
751.02	66.74
751.338	66.79
751.655	66.71
751.973	66.57
752.29	66.34
752.608	66.14
752.925	66.07
753.242	65.73
753.56	66.32
753.877	66.13
754.194	66.23
754.511	66.19
754.828	65.99
755.145	65.95
755.462	65.87
755.779	65.7
756.096	65.85
756.413	66.11
756.73	66.3
757.047	66.06
757.364	66.09
757.68	66.05
757.997	65.87
758.314	66.22
758.63	66.22
758.947	66.38
759.264	66.26
759.58	66.69
759.896	66.59
760.213	66.46
760.529	66.5
760.846	66.31
761.162	66.35
761.478	66.45
761.794	66.53
762.11	66.44
762.426	66.39
762.743	66.36
763.059	66.14
763.375	65.95
763.69	66.01
764.006	65.9
764.322	66.03
764.638	65.92
764.954	65.76
765.27	65.64
765.585	65.55
765.901	65.65
766.216	65.56
766.532	65.9
766.848	65.77
767.163	65.95
767.478	65.77
767.794	65.74
768.109	65.59
768.424	65.58
768.74	65.82
769.055	65.62
769.37	65.54
769.685	65.5
770	65.85
770.315	65.66
770.63	65.68
770.945	65.56
771.26	65.88
771.575	65.77
771.89	65.95
772.205	66.17
772.52	66.15
772.834	65.81
773.149	65.51
773.464	65.83
773.778	65.85
774.093	66.35
774.407	66.08
774.722	65.78
775.036	65.93
775.351	65.96
775.665	66.33
775.979	66.11
776.293	66.37
776.608	66.38
776.922	66.63
777.236	66.39
777.55	66.4
777.864	66.68
778.178	67.27
778.492	67.71
778.806	67.53
779.12	67.56
779.434	67.64
779.747	67.54
780.061	67.03
780.375	67.12
780.689	67.24
781.002	67.7
781.316	67.99
781.629	67.98
781.943	67.7
782.256	67.37
782.57	67.33
782.883	67.37
783.196	67.22
783.51	67.43
783.823	67.56
784.136	67.47
784.449	66.38
784.762	66.47
785.075	66
785.388	65.74
785.701	65.74
786.014	65.81
786.327	65.89
786.64	66.67
786.953	66.3
787.266	65.79
787.578	65.4
787.891	65.91
788.204	65.89
788.516	66.13
788.829	66.26
789.141	66.39
789.454	66.36
789.766	66.77
790.079	66.34
790.391	66.48
790.703	66.58
791.016	67.62
791.328	66.88
791.64	66.46
791.952	66.78
792.264	66.64
792.576	66.4
792.888	66.18
793.2	65.46
793.512	65.75
793.824	65.78
794.136	65.88
794.448	65.98
794.76	65.74
795.071	65.72
795.383	65.68
795.695	65.86
796.006	65.91
796.318	65.38
796.629	65.9
796.941	65.87
797.252	65.7
797.564	65.76
797.875	65.73
798.186	66.15
798.497	65.97
798.809	66.28
799.12	66.02
799.431	66.61
799.742	67.03
800.053	66.86
800.364	67.16
800.675	66.7
800.986	66.46
801.297	66.86
801.608	66.48
801.918	66.24
802.229	66.24
802.54	65.98
802.851	66.23
803.161	65.64
803.472	65.16
803.782	65.06
804.093	64.39
804.403	64.68
804.714	64.94
805.024	65.03
805.334	65.2
805.645	65.66
805.955	65.03
806.265	64.72
806.575	64.16
806.885	64.58
807.195	65.27
807.505	65.29
807.815	64.87
808.125	65.37
808.435	65.95
808.745	65.96
809.055	66.65
809.365	66.54
809.674	66.47
809.984	67.64
810.294	68.14
810.603	68.07
810.913	68.37
811.222	67.92
811.532	67.81
811.841	67.87
812.151	67.8
812.46	68.04
812.769	68.11
813.079	68.37
813.388	68.13
813.697	68.22
814.006	67.47
814.315	67.82
814.624	67.33
814.933	67.3
815.242	67.5
815.551	67.16
815.86	67.18
816.169	67.66
816.478	67.3
816.786	67.39
817.095	67.6
817.404	67.15
817.712	67.48
818.021	68.08
818.33	67.19
818.638	67.3
818.947	67.17
819.255	67.35
819.563	67.69
819.872	67.7
820.18	67.76
820.488	68.21
820.796	68.15
821.105	68
821.413	67.98
821.721	67.99
822.029	67.92
822.337	67.91
822.645	68
822.953	68.02
823.26	67.77
823.568	67.79
823.876	67.89
824.184	68
824.491	67.84
824.799	68.08
825.107	68.09
825.414	68.01
825.722	68.18
826.029	68.07
826.337	68
826.644	68.06
826.951	68.08
827.259	68.3
827.566	68.47
827.873	68.54
828.18	68.64
828.488	68.66
828.795	69.01
829.102	68.65
829.409	68.48
829.716	68.81
830.023	68.79
830.329	68.53
830.636	68.65
830.943	69.27
831.25	69.26
831.557	68.72
831.863	69.03
832.17	68.61
832.476	69.19
832.783	69.79
833.089	69.47
833.396	69.08
833.702	68.89
834.009	68.85
834.315	69.13
834.621	68.8
834.928	68.47
835.234	68.44
835.54	69
835.846	69.08
836.152	68.8
836.458	69.04
836.764	69.64
837.07	69.2
837.376	69.29
837.682	68.78
837.988	69.46
838.293	69.13
838.599	69.14
838.905	67.97
839.211	66.76
839.516	66.63
839.822	66.48
840.127	65.94
840.433	65.66
840.738	65.16
841.044	65.8
841.349	66.01
841.654	65.25
841.959	65.86
842.265	66.05
842.57	65.56
842.875	64.57
843.18	64.67
843.485	64.14
843.79	62.32
844.095	62.01
844.4	62.52
844.705	63.41
845.01	63.3
845.315	64.32
845.619	64.21
845.924	64.38
846.229	65.21
846.533	64.34
846.838	65.87
847.142	65.75
847.447	65.32
847.751	66.19
848.056	65.28
848.36	63.31
848.664	64.31
848.969	65.35
849.273	66.53
849.577	64.89
849.881	65.94
850.185	66.39
850.489	67.36
850.794	65.75
851.097	66.57
851.401	67.15
851.705	67.25
852.009	66.9
852.313	66.28
852.617	67.02
852.92	67.32
853.224	66.41
853.528	65.17
853.831	63.3
854.135	62.42
854.438	64.25
854.742	64.5
855.045	61.09
855.349	61.44
855.652	61.22
855.955	63.64
856.259	62.1
856.562	59.56
856.865	60.19
857.168	63.1
857.471	60.69
857.774	61.35
858.077	59.84
858.38	61.19
858.683	62.1
858.986	62.39
859.289	65.39
859.592	63.37
859.894	64.66
860.197	64.41
860.5	64.41
860.802	60.77
861.105	62.81
861.407	64.18
861.71	64.23
862.012	63.24
862.315	61.25
862.617	59.95
862.919	63.85
863.222	61.33
863.524	58.87
863.826	58.85
864.128	58.56
864.43	60.51
864.732	59.47
865.034	59.35
865.336	58.48
865.638	56.49
865.94	57.14
866.242	56.15
866.544	57.29
866.846	55.99
867.147	59.18
867.449	58.37
867.751	58.94
868.052	58.4
868.354	58.33
868.655	56.19
868.957	59.23
869.258	57.22
869.56	58.09
869.861	58.31
870.162	59.36
870.463	57.85
870.765	58.49
871.066	58.26
871.367	57.31
871.668	56.2
871.969	56.02
872.27	57.03
872.571	58.67
872.872	57.59
873.173	58.1
873.473	56.22
873.774	54.05
874.075	54.64
874.376	53.37
874.676	53.4
874.977	56.04
875.277	55.14
875.578	56.12
875.878	56.86
876.179	57.49
876.479	56.82
876.78	57.21
877.08	55.26
877.38	56.71
877.68	57.37
877.981	57.91
878.281	58.6
878.581	55.93
