Data from BA28524_Reflection_00015.txt Node
Date: Tue Nov 19 11:50:03 EST 2019
User: vgr7
Spectrometer: USB2G7710
Scans to average: 3
Trigger mode: 4
Integration Time (sec): 2.000000E-2
Electric dark correction enabled: true
Boxcar width: 10
XAxis mode: Wavelengths
Number of Pixels in Spectrum: 2048
>>>>>Begin Spectral Data<<<<<
177.721	107.04
178.105	-344.44
178.488	1069.39
178.871	-4600
179.254	-1066.67
179.636	-2328.57
180.019	-226.45
180.402	188.24
180.785	80
181.168	271.05
181.55	149.3
181.933	138.46
182.316	116.59
182.698	182.68
183.081	94.21
183.463	225.95
183.846	135.03
184.228	24.66
184.611	-81.32
184.993	-177.78
185.376	-61.02
185.758	-218.18
186.14	0
186.522	2933.33
186.904	-400
187.287	-79.25
187.669	9.52
188.051	60.12
188.433	148.87
188.815	102.42
189.197	161.98
189.579	194.06
189.961	143.86
190.342	115.02
190.724	133.94
191.106	113.35
191.488	172.77
191.869	118.52
192.251	166.04
192.633	137.69
193.014	128.74
193.396	142.29
193.777	219.83
194.159	142.37
194.54	280.85
194.922	173.99
195.303	211.43
195.684	335.54
196.065	305.88
196.447	855.81
196.828	1018.6
197.209	427.34
197.59	567.48
197.971	1108.2
198.352	645.05
198.733	833.77
199.114	1334.69
199.495	753.85
199.876	1244.07
200.257	839.44
200.638	1343.59
201.018	-2929.41
201.399	698.59
201.78	342.33
202.16	406.9
202.541	211.4
202.922	855.81
203.302	-985.37
203.683	2133.33
204.063	-1400
204.444	209.2
204.824	276.92
205.204	369.23
205.585	42.62
205.965	37.16
206.345	2.12
206.725	-3.69
207.106	-12.17
207.486	-42.42
207.866	-13.73
208.246	-0.71
208.626	-12.55
209.006	-53.43
209.386	-66.67
209.766	-89.8
210.145	-93.49
210.525	-135.48
210.905	-57.81
211.285	-19.95
211.664	2.41
212.044	25.06
212.424	35.26
212.803	29.47
213.183	-5.63
213.562	-3.08
213.942	-10.03
214.321	-8.54
214.701	-27.62
215.08	-56.44
215.459	-28.16
215.838	-57.37
216.218	-45.76
216.597	-21.25
216.976	-1.31
217.355	1.77
217.734	24.93
218.113	29.02
218.492	42.62
218.871	40.51
219.25	13.65
219.629	-10.99
220.008	-2.39
220.387	5.41
220.766	3.34
221.144	11.1
221.523	10.69
221.902	11.94
222.28	25.16
222.659	35.71
223.037	34.86
223.416	32.37
223.794	27.72
224.173	24.41
224.551	21.99
224.929	12.21
225.308	16.99
225.686	11.72
226.064	8.83
226.442	3.42
226.821	5.8
227.199	5.19
227.577	9.42
227.955	10.64
228.333	9.86
228.711	7.14
229.089	10.44
229.467	11.54
229.845	11.98
230.222	10.9
230.6	9.36
230.978	9.25
231.356	9.88
231.733	15.91
232.111	18.29
232.488	19.56
232.866	20.74
233.243	20.5
233.621	18.91
233.998	19.2
234.376	19.63
234.753	18.92
235.13	19.85
235.508	19.57
235.885	17.83
236.262	15.6
236.639	15.86
237.016	14.74
237.393	14.45
237.77	15.26
238.147	14.42
238.524	13.45
238.901	12.24
239.278	11.25
239.655	10.38
240.032	9.73
240.409	10.25
240.785	9.69
241.162	9.03
241.539	8.63
241.915	8.15
242.292	8.04
242.668	7.9
243.045	8.11
243.421	7.64
243.798	7.53
244.174	7.64
244.551	7.69
244.927	7.7
245.303	7.17
245.679	6.81
246.056	6.68
246.432	6.76
246.808	7.11
247.184	7.3
247.56	6.95
247.936	7.1
248.312	6.81
248.688	7.06
249.064	6.93
249.44	6.98
249.815	7.08
250.191	7.09
250.567	7.15
250.943	6.66
251.318	6.62
251.694	6.66
252.069	6.78
252.445	6.44
252.82	6.24
253.196	6.44
253.571	6.56
253.947	6.15
254.322	5.67
254.697	5.17
255.073	5.13
255.448	5.17
255.823	4.92
256.198	4.99
256.573	4.76
256.948	4.8
257.323	4.78
257.698	4.78
258.073	4.53
258.448	4.49
258.823	4.59
259.198	4.65
259.573	4.58
259.948	4.62
260.322	4.87
260.697	4.98
261.072	4.96
261.446	5.05
261.821	5.09
262.195	5.15
262.57	5.37
262.944	5.4
263.319	5.35
263.693	5.3
264.067	5.38
264.442	5.4
264.816	5.57
265.19	5.76
265.564	5.7
265.938	5.7
266.313	5.7
266.687	5.92
267.061	6.1
267.435	6.3
267.809	6.26
268.183	6.18
268.556	6.07
268.93	6.25
269.304	5.89
269.678	6.14
270.051	6.13
270.425	5.88
270.799	5.56
271.172	5.66
271.546	5.65
271.919	5.49
272.293	5.68
272.666	5.62
273.04	5.64
273.413	5.59
273.787	5.8
274.16	5.7
274.533	5.71
274.906	5.79
275.279	5.56
275.653	5.36
276.026	5.58
276.399	5.36
276.772	5.32
277.145	5.52
277.518	5.45
277.891	5.35
278.263	5.61
278.636	5.85
279.009	5.93
279.382	5.83
279.755	5.94
280.127	5.83
280.5	5.86
280.872	5.78
281.245	5.91
281.617	5.86
281.99	5.78
282.362	5.68
282.735	5.57
283.107	5.54
283.479	5.65
283.852	5.36
284.224	5.48
284.596	5.55
284.968	5.42
285.34	5.38
285.713	5.48
286.085	5.41
286.457	5.47
286.829	5.45
287.201	5.66
287.572	5.84
287.944	5.84
288.316	5.78
288.688	5.79
289.06	5.67
289.431	5.67
289.803	5.81
290.175	5.72
290.546	5.65
290.918	5.85
291.289	5.8
291.661	5.91
292.032	5.97
292.403	5.82
292.775	6.01
293.146	6.08
293.517	6.14
293.889	6.21
294.26	6.2
294.631	6.26
295.002	6.17
295.373	5.85
295.744	5.8
296.115	5.98
296.486	6.11
296.857	6.25
297.228	6.23
297.599	6.24
297.97	6.44
298.34	6.52
298.711	6.37
299.082	6.47
299.452	6.42
299.823	6.29
300.194	6.52
300.564	6.51
300.935	6.64
301.305	6.65
301.676	6.64
302.046	6.66
302.416	6.69
302.787	6.78
303.157	7.03
303.527	7.24
303.897	7
304.267	6.8
304.637	6.92
305.008	7.16
305.378	7.28
305.748	7.24
306.117	7.39
306.487	7.74
306.857	7.67
307.227	7.95
307.597	8.21
307.967	8
308.336	8.04
308.706	7.97
309.076	8.14
309.445	8.13
309.815	8.16
310.184	8.19
310.554	8.1
310.923	8.13
311.293	8.06
311.662	8.28
312.031	8.44
312.401	8.42
312.77	8.37
313.139	8.36
313.508	8.34
313.877	8.28
314.246	8.1
314.616	8.38
314.985	8.17
315.353	8.17
315.722	8.42
316.091	8.62
316.46	8.66
316.829	8.58
317.198	8.72
317.567	8.79
317.935	8.7
318.304	8.93
318.672	8.93
319.041	9.08
319.41	9.06
319.778	9.04
320.147	9.15
320.515	9.15
320.883	9.22
321.252	9.39
321.62	9.32
321.988	9.37
322.357	9.24
322.725	9.3
323.093	9.36
323.461	9.18
323.829	9.02
324.197	9.01
324.565	9.15
324.933	9.04
325.301	8.93
325.669	9.04
326.037	9.04
326.405	9.14
326.772	9.11
327.14	9.09
327.508	9.14
327.875	9.08
328.243	9.06
328.61	8.92
328.978	8.76
329.346	8.84
329.713	8.91
330.08	9.01
330.448	9.18
330.815	9.26
331.182	9.43
331.55	9.41
331.917	9.48
332.284	9.51
332.651	9.67
333.018	9.78
333.385	9.81
333.752	9.83
334.119	9.9
334.486	9.79
334.853	9.77
335.22	9.71
335.587	9.7
335.954	9.71
336.32	9.74
336.687	9.89
337.054	9.78
337.42	9.78
337.787	9.75
338.153	9.75
338.52	9.65
338.886	9.57
339.253	9.59
339.619	9.57
339.986	9.44
340.352	9.29
340.718	9.18
341.084	9.18
341.451	9.18
341.817	9
342.183	9.08
342.549	9.24
342.915	9.21
343.281	9.23
343.647	9.14
344.013	9.17
344.379	9.12
344.745	9.23
345.11	9.21
345.476	9.19
345.842	9.09
346.208	9.07
346.573	9
346.939	9.02
347.304	8.99
347.67	8.92
348.035	8.96
348.401	9.01
348.766	8.96
349.132	8.86
349.497	8.9
349.862	8.88
350.228	8.81
350.593	8.84
350.958	8.78
351.323	8.84
351.688	8.86
352.053	8.9
352.418	8.92
352.783	8.89
353.148	8.85
353.513	8.9
353.878	8.83
354.243	8.88
354.608	8.76
354.972	8.76
355.337	8.81
355.702	8.91
356.066	8.92
356.431	8.89
356.795	8.89
357.16	8.85
357.524	8.81
357.889	8.75
358.253	8.75
358.618	8.74
358.982	8.69
359.346	8.62
359.71	8.58
360.075	8.5
360.439	8.5
360.803	8.49
361.167	8.39
361.531	8.4
361.895	8.32
362.259	8.31
362.623	8.28
362.987	8.23
363.351	8.06
363.714	7.99
364.078	7.96
364.442	7.93
364.806	7.89
365.169	7.9
365.533	7.87
365.896	7.86
366.26	7.73
366.623	7.72
366.987	7.78
367.35	7.71
367.714	7.68
368.077	7.64
368.44	7.58
368.803	7.56
369.167	7.52
369.53	7.56
369.893	7.51
370.256	7.43
370.619	7.45
370.982	7.41
371.345	7.36
371.708	7.32
372.071	7.3
372.434	7.3
372.797	7.24
373.159	7.19
373.522	7.11
373.885	7.18
374.247	7.09
374.61	6.98
374.973	6.94
375.335	6.92
375.698	6.75
376.06	6.7
376.423	6.64
376.785	6.64
377.147	6.57
377.51	6.56
377.872	6.52
378.234	6.48
378.596	6.49
378.958	6.47
379.321	6.42
379.683	6.42
380.045	6.32
380.407	6.31
380.769	6.22
381.13	6.14
381.492	6.08
381.854	6.05
382.216	6.08
382.578	6.04
382.939	5.98
383.301	6.04
383.663	6.01
384.024	5.98
384.386	5.98
384.747	5.92
385.109	5.92
385.47	5.93
385.832	5.9
386.193	5.83
386.554	5.81
386.916	5.83
387.277	5.75
387.638	5.71
387.999	5.69
388.36	5.69
388.721	5.72
389.082	5.73
389.443	5.73
389.804	5.69
390.165	5.66
390.526	5.63
390.887	5.6
391.248	5.62
391.609	5.66
391.969	5.61
392.33	5.62
392.691	5.6
393.051	5.56
393.412	5.55
393.772	5.58
394.133	5.59
394.493	5.53
394.854	5.52
395.214	5.53
395.574	5.44
395.935	5.46
396.295	5.42
396.655	5.37
397.015	5.35
397.376	5.3
397.736	5.26
398.096	5.26
398.456	5.23
398.816	5.13
399.176	5.06
399.535	5.03
399.895	4.97
400.255	4.96
400.615	4.9
400.975	4.89
401.334	4.85
401.694	4.84
402.054	4.8
402.413	4.8
402.773	4.8
403.132	4.79
403.492	4.77
403.851	4.76
404.211	4.76
404.57	4.76
404.929	4.7
405.288	4.73
405.648	4.71
406.007	4.7
406.366	4.7
406.725	4.65
407.084	4.64
407.443	4.67
407.802	4.64
408.161	4.69
408.52	4.65
408.879	4.63
409.238	4.58
409.596	4.61
409.955	4.58
410.314	4.6
410.673	4.6
411.031	4.57
411.39	4.56
411.748	4.54
412.107	4.52
412.465	4.53
412.824	4.54
413.182	4.52
413.54	4.54
413.899	4.5
414.257	4.53
414.615	4.54
414.974	4.5
415.332	4.48
415.69	4.45
416.048	4.43
416.406	4.4
416.764	4.42
417.122	4.37
417.48	4.36
417.838	4.33
418.195	4.34
418.553	4.3
418.911	4.27
419.269	4.26
419.626	4.25
419.984	4.25
420.342	4.23
420.699	4.23
421.057	4.2
421.414	4.22
421.772	4.2
422.129	4.18
422.486	4.16
422.844	4.16
423.201	4.16
423.558	4.16
423.915	4.18
424.273	4.16
424.63	4.16
424.987	4.16
425.344	4.16
425.701	4.15
426.058	4.18
426.415	4.18
426.772	4.17
427.128	4.16
427.485	4.15
427.842	4.12
428.199	4.11
428.555	4.13
428.912	4.1
429.269	4.11
429.625	4.1
429.982	4.1
430.338	4.09
430.695	4.06
431.051	4.06
431.407	4.03
431.764	4.01
432.12	4.03
432.476	4.02
432.832	3.99
433.189	3.98
433.545	3.96
433.901	3.97
434.257	3.99
434.613	4.01
434.969	4
435.325	4
435.681	4
436.036	3.99
436.392	3.99
436.748	3.98
437.104	3.99
437.459	3.97
437.815	4
438.171	4.01
438.526	4
438.882	4.01
439.237	3.99
439.593	3.98
439.948	3.98
440.304	3.98
440.659	3.99
441.014	3.98
441.369	3.97
441.725	3.96
442.08	3.95
442.435	3.95
442.79	3.96
443.145	3.97
443.5	3.97
443.855	3.97
444.21	3.97
444.565	3.96
444.92	3.97
445.275	3.96
445.629	3.96
445.984	3.96
446.339	3.96
446.693	3.97
447.048	3.96
447.403	3.95
447.757	3.94
448.112	3.92
448.466	3.92
448.82	3.92
449.175	3.93
449.529	3.91
449.883	3.92
450.238	3.92
450.592	3.91
450.946	3.89
451.3	3.89
451.654	3.89
452.008	3.89
452.362	3.89
452.716	3.87
453.07	3.87
453.424	3.87
453.778	3.87
454.132	3.87
454.486	3.89
454.839	3.89
455.193	3.93
455.547	3.94
455.9	3.96
456.254	3.95
456.607	3.96
456.961	3.96
457.314	3.97
457.668	3.98
458.021	3.98
458.375	3.97
458.728	3.97
459.081	3.99
459.434	3.98
459.787	3.98
460.141	4
460.494	4
460.847	3.99
461.2	3.97
461.553	3.98
461.906	3.99
462.259	3.99
462.611	3.99
462.964	4
463.317	3.99
463.67	4.01
464.022	4.01
464.375	4.02
464.728	4
465.08	4
465.433	4.01
465.785	4.05
466.138	4.04
466.49	4.04
466.843	4.05
467.195	4.07
467.547	4.06
467.899	4.09
468.252	4.12
468.604	4.14
468.956	4.12
469.308	4.12
469.66	4.14
470.012	4.15
470.364	4.15
470.716	4.18
471.068	4.21
471.42	4.21
471.772	4.2
472.123	4.2
472.475	4.2
472.827	4.2
473.178	4.19
473.53	4.2
473.882	4.19
474.233	4.19
474.585	4.21
474.936	4.2
475.288	4.17
475.639	4.17
475.99	4.14
476.342	4.15
476.693	4.13
477.044	4.12
477.395	4.1
477.746	4.08
478.097	4.07
478.448	4.05
478.8	4.05
479.15	4.03
479.501	4.04
479.852	4.04
480.203	4.05
480.554	4.05
480.905	4.05
481.255	4.05
481.606	4.05
481.957	4.04
482.307	4.04
482.658	4.04
483.009	4.04
483.359	4.05
483.709	4.05
484.06	4.06
484.41	4.05
484.761	4.06
485.111	4.06
485.461	4.06
485.811	4.06
486.162	4.06
486.512	4.07
486.862	4.08
487.212	4.08
487.562	4.08
487.912	4.09
488.262	4.1
488.612	4.1
488.961	4.11
489.311	4.12
489.661	4.13
490.011	4.14
490.36	4.15
490.71	4.15
491.06	4.17
491.409	4.18
491.759	4.2
492.108	4.21
492.458	4.23
492.807	4.23
493.157	4.25
493.506	4.26
493.855	4.29
494.204	4.31
494.554	4.32
494.903	4.33
495.252	4.33
495.601	4.35
495.95	4.37
496.299	4.39
496.648	4.41
496.997	4.44
497.346	4.45
497.695	4.47
498.043	4.52
498.392	4.52
498.741	4.56
499.09	4.59
499.438	4.63
499.787	4.65
500.135	4.67
500.484	4.7
500.832	4.75
501.181	4.77
501.529	4.77
501.878	4.8
502.226	4.86
502.574	4.93
502.923	4.95
503.271	4.97
503.619	5.01
503.967	5.03
504.315	5.06
504.663	5.15
505.011	5.18
505.359	5.17
505.707	5.23
506.055	5.25
506.403	5.29
506.751	5.32
507.098	5.41
507.446	5.47
507.794	5.5
508.141	5.53
508.489	5.57
508.837	5.64
509.184	5.7
509.531	5.73
509.879	5.77
510.226	5.82
510.574	5.9
510.921	5.96
511.268	6.01
511.616	6.07
511.963	6.12
512.31	6.17
512.657	6.24
513.004	6.3
513.351	6.37
513.698	6.44
514.045	6.51
514.392	6.55
514.739	6.61
515.086	6.69
515.432	6.79
515.779	6.86
516.126	6.92
516.473	6.98
516.819	7.04
517.166	7.1
517.512	7.16
517.859	7.23
518.205	7.27
518.552	7.33
518.898	7.38
519.245	7.43
519.591	7.49
519.937	7.54
520.283	7.59
520.629	7.67
520.976	7.73
521.322	7.76
521.668	7.83
522.014	7.91
522.36	8.01
522.706	8.07
523.052	8.17
523.398	8.27
523.743	8.4
524.089	8.53
524.435	8.64
524.781	8.75
525.126	8.84
525.472	8.96
525.817	9.03
526.163	9.13
526.509	9.21
526.854	9.28
527.199	9.36
527.545	9.44
527.89	9.52
528.235	9.59
528.581	9.69
528.926	9.76
529.271	9.85
529.616	9.92
529.961	10.01
530.306	10.11
530.651	10.19
530.996	10.28
531.341	10.39
531.686	10.5
532.031	10.6
532.376	10.72
532.721	10.84
533.065	10.99
533.41	11.12
533.755	11.26
534.099	11.44
534.444	11.57
534.788	11.69
535.133	11.83
535.477	11.99
535.822	12.15
536.166	12.33
536.51	12.54
536.855	12.75
537.199	12.96
537.543	13.16
537.887	13.37
538.231	13.6
538.576	13.82
538.92	14
539.264	14.22
539.608	14.4
539.951	14.58
540.295	14.75
540.639	14.93
540.983	15.12
541.327	15.28
541.671	15.51
542.014	15.72
542.358	15.9
542.701	16.1
543.045	16.28
543.389	16.48
543.732	16.63
544.075	16.81
544.419	17.01
544.762	17.21
545.105	17.44
545.449	17.66
545.792	17.88
546.135	18.17
546.478	18.41
546.821	18.74
547.165	19.01
547.508	19.3
547.851	19.6
548.194	19.86
548.536	20.16
548.879	20.41
549.222	20.68
549.565	20.94
549.908	21.19
550.25	21.48
550.593	21.78
550.936	22.09
551.278	22.43
551.621	22.73
551.963	23.06
552.306	23.41
552.648	23.72
552.991	24.02
553.333	24.3
553.675	24.62
554.017	24.87
554.36	25.22
554.702	25.5
555.044	25.78
555.386	26.1
555.728	26.42
556.07	26.69
556.412	27.07
556.754	27.44
557.096	27.81
557.438	28.15
557.78	28.46
558.121	28.82
558.463	29.17
558.805	29.5
559.147	29.84
559.488	30.08
559.83	30.36
560.171	30.67
560.513	30.96
560.854	31.31
561.196	31.61
561.537	31.86
561.878	32.18
562.22	32.5
562.561	32.8
562.902	33.04
563.243	33.39
563.584	33.62
563.925	33.9
564.266	34.15
564.607	34.43
564.948	34.67
565.289	34.96
565.63	35.18
565.971	35.47
566.312	35.72
566.653	35.98
566.993	36.25
567.334	36.52
567.675	36.76
568.015	36.98
568.356	37.2
568.696	37.43
569.037	37.65
569.377	37.91
569.718	38.17
570.058	38.42
570.398	38.66
570.739	38.87
571.079	39.07
571.419	39.36
571.759	39.54
572.099	39.8
572.439	39.96
572.779	40.21
573.119	40.44
573.459	40.58
573.799	40.81
574.139	41.04
574.479	41.26
574.819	41.48
575.158	41.74
575.498	42.05
575.838	42.3
576.177	42.57
576.517	42.76
576.856	42.98
577.196	43.2
577.535	43.38
577.875	43.59
578.214	43.85
578.553	43.99
578.893	44.3
579.232	44.6
579.571	44.84
579.91	44.97
580.25	45.03
580.589	45.3
580.928	45.51
581.267	45.66
581.606	45.82
581.945	46
582.283	46.09
582.622	46.22
582.961	46.41
583.3	46.55
583.639	46.71
583.977	46.9
584.316	47.12
584.654	47.32
584.993	47.54
585.332	47.68
585.67	47.9
586.008	47.94
586.347	48.01
586.685	48.14
587.024	48.4
587.362	48.63
587.7	48.79
588.038	48.95
588.376	49.13
588.715	49.33
589.053	49.48
589.391	49.63
589.729	49.67
590.067	49.85
590.404	49.99
590.742	50.08
591.08	50.17
591.418	50.3
591.756	50.35
592.093	50.55
592.431	50.64
592.769	50.76
593.106	50.92
593.444	51
593.781	51.18
594.119	51.29
594.456	51.41
594.793	51.47
595.131	51.55
595.468	51.66
595.805	51.77
596.143	51.89
596.48	51.98
596.817	52.14
597.154	52.12
597.491	52.25
597.828	52.36
598.165	52.38
598.502	52.45
598.839	52.61
599.176	52.73
599.512	52.84
599.849	52.95
600.186	53.09
600.523	53.16
600.859	53.19
601.196	53.24
601.532	53.34
601.869	53.47
602.205	53.53
602.542	53.59
602.878	53.67
603.215	53.74
603.551	53.84
603.887	53.94
604.223	54.07
604.56	54.11
604.896	54.21
605.232	54.32
605.568	54.42
605.904	54.43
606.24	54.37
606.576	54.47
606.912	54.53
607.248	54.6
607.583	54.66
607.919	54.81
608.255	54.96
608.591	55.08
608.926	55.12
609.262	55.19
609.597	55.33
609.933	55.35
610.268	55.47
610.604	55.57
610.939	55.56
611.275	55.59
611.61	55.66
611.945	55.76
612.281	55.87
612.616	55.86
612.951	55.98
613.286	56.16
613.621	56.24
613.956	56.29
614.291	56.42
614.626	56.51
614.961	56.53
615.296	56.55
615.631	56.64
615.966	56.76
616.3	56.93
616.635	56.85
616.97	57.01
617.304	57.03
617.639	57.03
617.973	57.15
618.308	57.24
618.642	57.32
618.977	57.38
619.311	57.49
619.646	57.66
619.98	57.76
620.314	57.81
620.648	57.9
620.983	57.97
621.317	57.99
621.651	58.08
621.985	58.16
622.319	58.18
622.653	58.17
622.987	58.13
623.321	58.07
623.655	58.24
623.988	58.15
624.322	58.13
624.656	58.16
624.99	58.26
625.323	58.24
625.657	58.32
625.99	58.3
626.324	58.23
626.657	58.24
626.991	58.29
627.324	58.24
627.658	58.24
627.991	58.26
628.324	58.26
628.657	58.3
628.991	58.4
629.324	58.46
629.657	58.48
629.99	58.64
630.323	58.69
630.656	58.65
630.989	58.81
631.322	58.86
631.655	58.9
631.987	58.89
632.32	58.97
632.653	58.86
632.986	58.93
633.318	59.06
633.651	59.09
633.984	59.13
634.316	59.16
634.649	59.19
634.981	59.16
635.313	59.18
635.646	59.26
635.978	59.3
636.31	59.28
636.643	59.31
636.975	59.25
637.307	59.35
637.639	59.42
637.971	59.48
638.303	59.41
638.635	59.48
638.967	59.53
639.299	59.56
639.631	59.66
639.963	59.65
640.295	59.68
640.626	59.67
640.958	59.62
641.29	59.79
641.621	59.88
641.953	59.95
642.285	59.82
642.616	59.85
642.948	59.74
643.279	59.83
643.61	59.84
643.942	59.95
644.273	59.89
644.604	59.88
644.936	59.81
645.267	59.91
645.598	60.03
645.929	59.93
646.26	59.99
646.591	60.04
646.922	60.14
647.253	60.06
647.584	60.13
647.915	60.18
648.245	60.14
648.576	60.08
648.907	60.26
649.238	60.46
649.568	60.53
649.899	60.63
650.229	60.58
650.56	60.69
650.89	60.74
651.221	60.82
651.551	60.79
651.882	60.76
652.212	60.83
652.542	60.71
652.872	60.85
653.203	60.75
653.533	60.76
653.863	60.75
654.193	60.77
654.523	60.76
654.853	60.64
655.183	60.68
655.513	60.66
655.843	60.48
656.172	60.5
656.502	60.5
656.832	60.53
657.162	60.62
657.491	60.63
657.821	60.55
658.15	60.57
658.48	60.65
658.809	60.76
659.139	60.85
659.468	60.88
659.798	60.76
660.127	60.88
660.456	61
660.785	61.04
661.115	61.02
661.444	61.03
661.773	61.24
662.102	61.4
662.431	61.51
662.76	61.64
663.089	61.65
663.418	61.6
663.747	61.65
664.076	61.8
664.404	61.77
664.733	61.78
665.062	61.82
665.39	61.86
665.719	61.85
666.048	61.76
666.376	61.83
666.705	62
667.033	61.97
667.362	61.77
667.69	61.74
668.018	61.82
668.347	62
668.675	61.92
669.003	61.84
669.331	61.87
669.659	61.71
669.987	61.6
670.315	61.71
670.643	61.6
670.971	61.52
671.299	61.51
671.627	61.59
671.955	61.49
672.283	61.32
672.61	61.25
672.938	61.22
673.266	61.26
673.593	61.14
673.921	61.16
674.249	61.19
674.576	61.23
674.904	61.3
675.231	61.13
675.558	61.19
675.886	61.21
676.213	61.1
676.54	61.24
676.867	61.31
677.195	61.35
677.522	61.35
677.849	61.35
678.176	61.38
678.503	61.28
678.83	61.39
679.157	61.54
679.484	61.69
679.81	61.63
680.137	61.6
680.464	61.7
680.791	61.81
681.117	61.82
681.444	61.85
681.771	61.74
682.097	61.82
682.424	61.71
682.75	61.66
683.077	61.68
683.403	61.86
683.729	61.93
684.056	61.88
684.382	62.02
684.708	61.92
685.034	61.92
685.36	62.01
685.686	61.99
686.012	61.94
686.339	61.92
686.664	62.06
686.99	61.91
687.316	61.76
687.642	61.62
687.968	61.78
688.294	61.79
688.619	61.81
688.945	61.67
689.271	61.75
689.596	61.7
689.922	61.81
690.247	61.69
690.573	61.59
690.898	61.42
691.224	61.33
691.549	61.36
691.874	61.47
692.2	61.7
692.525	61.64
692.85	61.92
693.175	62.01
693.5	61.93
693.825	62.04
694.15	61.92
694.475	61.71
694.8	61.41
695.125	61.32
695.45	61.44
695.775	61.48
696.099	61.53
696.424	61.51
696.749	61.5
697.073	61.43
697.398	61.6
697.723	61.63
698.047	61.69
698.372	61.59
698.696	61.47
699.02	61.25
699.345	61.36
699.669	61.16
699.993	61.12
700.318	61.24
700.642	61.25
700.966	61.48
701.29	61.7
701.614	61.98
701.938	62.07
702.262	61.97
702.586	62.12
702.91	62.08
703.234	62.01
703.557	62
703.881	62.12
704.205	62.13
704.529	62.44
704.852	62.4
705.176	62.59
705.499	62.78
705.823	62.81
706.146	62.74
706.47	62.73
706.793	62.56
707.117	62.48
707.44	62.51
707.763	62.6
708.086	62.58
708.409	62.55
708.733	62.47
709.056	62.53
709.379	62.47
709.702	62.44
710.025	62.69
710.348	62.88
710.671	62.83
710.993	62.82
711.316	62.77
711.639	62.73
711.962	62.66
712.284	62.43
712.607	62.31
712.93	62.42
713.252	62.35
713.575	62.42
713.897	62.43
714.22	62.52
714.542	62.57
714.864	62.57
715.187	62.45
715.509	62.31
715.831	62.38
716.153	62.34
716.475	62.5
716.798	62.3
717.12	61.99
717.442	62.11
717.764	62.08
718.085	61.86
718.407	61.85
718.729	61.89
719.051	61.92
719.373	62.21
719.695	62.1
720.016	62.2
720.338	62.26
720.659	62.1
720.981	62.1
721.302	62.1
721.624	62.25
721.945	62.29
722.267	62.36
722.588	62.54
722.909	62.63
723.231	62.44
723.552	62.67
723.873	62.67
724.194	62.39
724.515	62.4
724.836	62.62
725.157	62.74
725.478	62.66
725.799	62.73
726.12	62.63
726.441	62.56
726.762	62.86
727.083	62.78
727.403	62.91
727.724	62.93
728.045	62.76
728.365	62.66
728.686	62.39
729.006	62.52
729.327	62.39
729.647	62.37
729.967	62.16
730.288	62.05
730.608	62.11
730.928	62.28
731.249	62.19
731.569	62.24
731.889	62.28
732.209	62.37
732.529	62.38
732.849	62.39
733.169	62.37
733.489	61.98
733.809	61.8
734.129	62.05
734.448	61.92
734.768	61.86
735.088	61.7
735.408	62.07
735.727	62.08
736.047	61.9
736.366	61.99
736.686	62.15
737.005	62.18
737.325	62.61
737.644	62.43
737.963	62.78
738.283	62.46
738.602	62.31
738.921	62.3
739.24	62.23
739.56	62.29
739.879	62.42
740.198	62.38
740.517	62.68
740.836	62.57
741.155	62.94
741.473	63.01
741.792	62.88
742.111	62.63
742.43	62.52
742.748	62.49
743.067	62.31
743.386	62.6
743.704	62.78
744.023	62.51
744.341	62.36
744.66	62.12
744.978	62.23
745.297	62.44
745.615	62.38
745.933	62.87
746.252	62.87
746.57	62.88
746.888	63.38
747.206	63.1
747.524	63.14
747.842	62.97
748.16	62.92
748.478	63.3
748.796	63.56
749.114	63.8
749.432	63.97
749.749	64.12
750.067	63.87
750.385	63.56
750.703	63.48
751.02	63.59
751.338	63.22
751.655	63
751.973	62.81
752.29	62.55
752.608	61.98
752.925	61.89
753.242	61.29
753.56	60.82
753.877	60.75
754.194	60.81
754.511	60.57
754.828	60.4
755.145	59.99
755.462	59.71
755.779	59.24
756.096	59.24
756.413	59.36
756.73	59.07
757.047	59.42
757.364	59.61
757.68	59.88
757.997	59.84
758.314	60
758.63	59.83
758.947	60.03
759.264	59.79
759.58	59.67
759.896	60.11
760.213	60.5
760.529	60.6
760.846	60.58
761.162	60.52
761.478	60.39
761.794	60.9
762.11	60.89
762.426	61.15
762.743	61.14
763.059	60.89
763.375	61.13
763.69	61.22
764.006	61
764.322	60.95
764.638	61.3
764.954	61.45
765.27	61.64
765.585	61.75
765.901	62.19
766.216	62.18
766.532	62.12
766.848	61.96
767.163	62.02
767.478	61.84
767.794	61.92
768.109	62.68
768.424	62.67
768.74	63.07
769.055	63.39
769.37	63.44
769.685	63.61
770	63.6
770.315	63.32
770.63	63.37
770.945	63.55
771.26	63.43
771.575	63.17
771.89	63.16
772.205	63.41
772.52	63.6
772.834	64.14
773.149	64.44
773.464	63.97
773.778	64.02
774.093	64.33
774.407	63.99
774.722	63.49
775.036	63.4
775.351	63.5
775.665	63.32
775.979	62.98
776.293	63.06
776.608	63.36
776.922	63.26
777.236	63.53
777.55	63.18
777.864	63.05
778.178	63.16
778.492	63.33
778.806	62.75
779.12	62.48
779.434	61.99
779.747	62.21
780.061	62.54
780.375	62.68
780.689	62.35
781.002	62.67
781.316	62.96
781.629	62.68
781.943	62.65
782.256	62.42
782.57	63
782.883	62.77
783.196	62.26
783.51	62.09
783.823	61.39
784.136	61.98
784.449	62.09
784.762	62.46
785.075	62.35
785.388	62.75
785.701	62.96
786.014	63.19
786.327	63.13
786.64	63.51
786.953	63.59
787.266	63.86
787.578	63.99
787.891	63.4
788.204	63.49
788.516	63.4
788.829	63.7
789.141	63.29
789.454	63.68
789.766	64.5
790.079	64.93
790.391	65.55
790.703	65.04
791.016	64.82
791.328	64.65
791.64	64.85
791.952	64.64
792.264	63.62
792.576	63.37
792.888	62.8
793.2	62.75
793.512	62.04
793.824	61.6
794.136	62.12
794.448	62.2
794.76	62.13
795.071	61.53
795.383	61.51
795.695	62.19
796.006	61.86
796.318	61.49
796.629	62.09
796.941	61.98
797.252	61.53
797.564	62.32
797.875	62.18
798.186	61.92
798.497	62.35
798.809	63.13
799.12	63.23
799.431	63.95
799.742	64.33
800.053	64.66
800.364	65.03
800.675	65.31
800.986	65.31
801.297	65.14
801.608	65.53
801.918	65.62
802.229	65.65
802.54	65.26
802.851	65.33
803.161	64.49
803.472	64.68
803.782	65.13
804.093	65.14
804.403	65.66
804.714	65.97
805.024	65.38
805.334	65.59
805.645	65.75
805.955	65.39
806.265	64.69
806.575	65.53
806.885	65.22
807.195	64.5
807.505	64.49
807.815	65.03
808.125	65.29
808.435	65.07
808.745	64.5
809.055	64.86
809.365	64.63
809.674	64.28
809.984	64.46
810.294	65
810.603	64.99
810.913	64.64
811.222	64.8
811.532	65.53
811.841	65.82
812.151	65.59
812.46	65.32
812.769	65.72
813.079	65.76
813.388	66.05
813.697	65.81
814.006	66.06
814.315	65.63
814.624	65.01
814.933	64.99
815.242	65.15
815.551	65.39
815.86	65.68
816.169	66.61
816.478	66.29
816.786	65
817.095	64.23
817.404	63.3
817.712	62.58
818.021	62.62
818.33	61.75
818.638	61.56
818.947	61.74
819.255	61.95
819.563	61.42
819.872	61.67
820.18	61.57
820.488	61.23
820.796	61.31
821.105	61.24
821.413	61.22
821.721	61.42
822.029	61.47
822.337	61.3
822.645	61.29
822.953	61.15
823.26	61.49
823.568	61.49
823.876	61.74
824.184	61.58
824.491	61.4
824.799	61.64
825.107	61.77
825.414	61.86
825.722	61.69
826.029	61.78
826.337	61.62
826.644	61.72
826.951	61.83
827.259	62.18
827.566	62.19
827.873	62.1
828.18	61.71
828.488	61.94
828.795	62.28
829.102	61.97
829.409	61.84
829.716	61.62
830.023	61.8
830.329	62.21
830.636	62.73
830.943	62.95
831.25	62.38
831.557	62.03
831.863	61.57
832.17	61.58
832.476	61.23
832.783	61.31
833.089	60.95
833.396	61.19
833.702	60.46
834.009	61.36
834.315	61.41
834.621	62.18
834.928	61.98
835.234	61.61
835.54	61.74
835.846	62.13
836.152	62.24
836.458	61.99
836.764	61.65
837.07	61.87
837.376	61.93
837.682	62.65
837.988	62.77
838.293	63.35
838.599	63.59
838.905	64.08
839.211	64.53
839.516	65.22
839.822	65.63
840.127	65.1
840.433	64.54
840.738	65.21
841.044	64.41
841.349	63.21
841.654	62.86
841.959	63.58
842.265	64.59
842.57	64.66
842.875	64.68
843.18	63.06
843.485	61.65
843.79	61.24
844.095	60.4
844.4	61.05
844.705	60.46
845.01	61.11
845.315	59.52
845.619	58.3
845.924	58.48
846.229	58.2
846.533	59.31
846.838	58.9
847.142	57.47
847.447	57.89
847.751	59.01
848.056	61.37
848.36	61.78
848.664	60.62
848.969	61.09
849.273	61.95
849.577	65.1
849.881	64.82
850.185	66.02
850.489	65.93
850.794	66.13
851.097	65.93
851.401	61.02
851.705	64.41
852.009	65.08
852.313	65.53
852.617	64.24
852.92	67.36
853.224	67.7
853.528	68.68
853.831	68.63
854.135	67.64
854.438	66.75
854.742	65.13
855.045	66.16
855.349	68.93
855.652	68.11
855.955	67.73
856.259	68.92
856.562	67.6
856.865	68.18
857.168	68.87
857.471	72.14
857.774	76.51
858.077	74.3
858.38	75.49
858.683	72.33
858.986	74.8
859.289	70.03
859.592	69.91
859.894	70.07
860.197	71.99
860.5	73.36
860.802	71.2
861.105	71.22
861.407	68.47
861.71	65.48
862.012	65.19
862.315	65.74
862.617	66.9
862.919	67.42
863.222	66.98
863.524	66.26
863.826	63.61
864.128	63.96
864.43	64.82
864.732	63.08
865.034	65.43
865.336	64.5
865.638	65
865.94	66.23
866.242	66.68
866.544	67.43
866.846	69.69
867.147	71.48
867.449	71.85
867.751	72.38
868.052	74.08
868.354	74.59
868.655	72.38
868.957	71.18
869.258	71.04
869.56	74.14
869.861	74.3
870.162	72.41
870.463	71.85
870.765	72.52
871.066	74.92
871.367	75.18
871.668	73.12
871.969	78.13
872.27	76.97
872.571	77.08
872.872	74.19
873.173	71.75
873.473	74.25
873.774	74.79
874.075	75.22
874.376	75.02
874.676	76.23
874.977	77.77
875.277	78.68
875.578	80.28
875.878	78.09
876.179	78.17
876.479	81.51
876.78	83.81
877.08	84.32
877.38	82.78
877.68	82.61
877.981	85.77
878.281	80.94
878.581	82.02
