Data from BA28304_Reflection_00009.txt Node
Date: Mon Nov 18 15:36:14 EST 2019
User: vgr7
Spectrometer: USB2G7710
Scans to average: 3
Trigger mode: 4
Integration Time (sec): 2.000000E-2
Electric dark correction enabled: true
Boxcar width: 10
XAxis mode: Wavelengths
Number of Pixels in Spectrum: 2048
>>>>>Begin Spectral Data<<<<<
177.721	31.92
178.105	-22.85
178.488	-25.4
178.871	35.64
179.254	-125.81
179.636	-13.77
180.019	-41
180.402	41.94
180.785	-223.31
181.168	-337.5
181.55	864.71
181.933	139.11
182.316	71.86
182.698	56.4
183.081	-20.42
183.463	-1597.67
183.846	185.32
184.228	144.08
184.611	-2209.09
184.993	-1659.49
185.376	1342.99
185.758	221.87
186.14	53.05
186.522	101.24
186.904	252.71
187.287	127.89
187.669	85.31
188.051	47.94
188.433	55.59
188.815	81.34
189.197	80.62
189.579	78.02
189.961	65.88
190.342	27.74
190.724	33
191.106	-3.3
191.488	-16.22
191.869	-10.29
192.251	-18.3
192.633	-35.22
193.014	-31.74
193.396	-49.75
193.777	-64.6
194.159	-67.08
194.54	-55.66
194.922	-17.77
195.303	-35.51
195.684	-41.06
196.065	-18.7
196.447	-20.25
196.828	-30.07
197.209	-29.73
197.59	-62.84
197.971	-58.81
198.352	-37.24
198.733	-62.38
199.114	-49.58
199.495	-3.95
199.876	11.24
200.257	6.37
200.638	15.69
201.018	-3.53
201.399	2.33
201.78	40.99
202.16	36.19
202.541	41.33
202.922	-167.5
203.302	-316.34
203.683	-32.13
204.063	41100
204.444	-129.12
204.824	-53.45
205.204	-45.41
205.585	-61.37
205.965	-90.11
206.345	-188.43
206.725	-104.28
207.106	-251.67
207.486	875.78
207.866	-1246.82
208.246	-168.8
208.626	-166.74
209.006	-126.88
209.386	-235.25
209.766	-246.53
210.145	-122.69
210.525	-52.73
210.905	-15.9
211.285	20.8
211.664	5.73
212.044	1.54
212.424	15.46
212.803	4.14
213.183	19.38
213.562	29.66
213.942	46.8
214.321	67.98
214.701	69.97
215.08	49.86
215.459	55.75
215.838	55.98
216.218	45.39
216.597	63.35
216.976	76.93
217.355	78.19
217.734	59.18
218.113	65.66
218.492	80.41
218.871	66.91
219.25	63.52
219.629	77.64
220.008	54.28
220.387	37.85
220.766	26.1
221.144	4.59
221.523	16.26
221.902	7.31
222.28	-9.43
222.659	1.09
223.037	9.54
223.416	5.37
223.794	-0.68
224.173	-1.87
224.551	8.27
224.929	1.25
225.308	-2.6
225.686	-1.07
226.064	2.89
226.442	-1.62
226.821	0.25
227.199	-2.33
227.577	-3.92
227.955	-6.78
228.333	-4.28
228.711	-0.93
229.089	4.32
229.467	-0.65
229.845	0.77
230.222	4
230.6	1.51
230.978	-1.08
231.356	-0.04
231.733	-0.69
232.111	2.74
232.488	0.06
232.866	0.43
233.243	0.12
233.621	1.63
233.998	2.98
234.376	3.75
234.753	2.7
235.13	4.03
235.508	5.23
235.885	6.01
236.262	6.64
236.639	5.22
237.016	4.88
237.393	7.19
237.77	8.02
238.147	6.94
238.524	7.91
238.901	8.42
239.278	8.47
239.655	9.53
240.032	8.44
240.409	8.2
240.785	8.41
241.162	8.71
241.539	8.48
241.915	7.15
242.292	6.53
242.668	6.68
243.045	6.5
243.421	6.53
243.798	6.77
244.174	6.57
244.551	6.46
244.927	6.42
245.303	6.5
245.679	6.45
246.056	6.37
246.432	6.08
246.808	6.12
247.184	5.51
247.56	5.18
247.936	5.02
248.312	5.1
248.688	5.28
249.064	5.1
249.44	4.94
249.815	5.03
250.191	5.17
250.567	5.27
250.943	5.05
251.318	5.34
251.694	5.06
252.069	5.1
252.445	5.63
252.82	5.49
253.196	5
253.571	4.79
253.947	5.08
254.322	5.31
254.697	5.35
255.073	5.94
255.448	5.85
255.823	6.07
256.198	6.24
256.573	5.81
256.948	5.77
257.323	5.96
257.698	6.26
258.073	6.48
258.448	6.44
258.823	6.37
259.198	6.14
259.573	6.04
259.948	5.93
260.322	5.69
260.697	5.6
261.072	5.66
261.446	5.58
261.821	5.56
262.195	5.48
262.57	5.47
262.944	5.55
263.319	5.67
263.693	5.58
264.067	5.52
264.442	5.66
264.816	5.64
265.19	5.42
265.564	5.27
265.938	4.98
266.313	4.98
266.687	5.12
267.061	4.95
267.435	5.18
267.809	5.08
268.183	5.29
268.556	5.32
268.93	5.25
269.304	5.26
269.678	5.23
270.051	5.3
270.425	5.4
270.799	5.32
271.172	5.37
271.546	5.4
271.919	5.49
272.293	5.51
272.666	5.7
273.04	5.95
273.413	5.94
273.787	5.99
274.16	6.12
274.533	6.09
274.906	6.18
275.279	6.12
275.653	6.13
276.026	6.05
276.399	6.06
276.772	6.09
277.145	6.2
277.518	6.17
277.891	6.3
278.263	5.98
278.636	5.92
279.009	5.81
279.382	5.86
279.755	5.57
280.127	5.66
280.5	5.63
280.872	5.49
281.245	5.42
281.617	5.52
281.99	5.42
282.362	5.44
282.735	5.39
283.107	5.32
283.479	5.47
283.852	5.41
284.224	5.47
284.596	5.44
284.968	5.47
285.34	5.48
285.713	5.48
286.085	5.65
286.457	5.7
286.829	5.82
287.201	5.83
287.572	5.89
287.944	5.75
288.316	5.67
288.688	5.77
289.06	5.86
289.431	5.73
289.803	5.76
290.175	5.87
290.546	6.05
290.918	6.17
291.289	6.22
291.661	6.38
292.032	6.51
292.403	6.6
292.775	6.67
293.146	6.86
293.517	6.74
293.889	6.77
294.26	6.83
294.631	6.77
295.002	6.77
295.373	6.81
295.744	7.02
296.115	7.08
296.486	6.97
296.857	7.02
297.228	7.14
297.599	7.14
297.97	7.04
298.34	7.14
298.711	7.28
299.082	7.16
299.452	7.14
299.823	7.2
300.194	7.37
300.564	7.33
300.935	7.32
301.305	7.39
301.676	7.5
302.046	7.62
302.416	7.67
302.787	7.75
303.157	7.87
303.527	7.89
303.897	8.04
304.267	8.29
304.637	8.35
305.008	8.52
305.378	8.78
305.748	8.88
306.117	8.77
306.487	8.72
306.857	8.98
307.227	9.06
307.597	9.08
307.967	9.08
308.336	9.26
308.706	9.31
309.076	9.45
309.445	9.42
309.815	9.44
310.184	9.6
310.554	9.84
310.923	10
311.293	10.03
311.662	9.93
312.031	9.97
312.401	10.06
312.77	10.18
313.139	10.29
313.508	10.39
313.877	10.5
314.246	10.73
314.616	10.76
314.985	10.86
315.353	10.96
315.722	11.13
316.091	11.08
316.46	11.03
316.829	11.11
317.198	11.28
317.567	11.35
317.935	11.49
318.304	11.42
318.672	11.49
319.041	11.65
319.41	11.91
319.778	11.85
320.147	12.07
320.515	12.09
320.883	11.92
321.252	12.06
321.62	12.15
321.988	12.13
322.357	12.21
322.725	12.23
323.093	12.31
323.461	12.35
323.829	12.51
324.197	12.79
324.565	12.94
324.933	12.99
325.301	13.16
325.669	13.27
326.037	13.26
326.405	13.26
326.772	13.15
327.14	13.23
327.508	13.33
327.875	13.29
328.243	13.38
328.61	13.63
328.978	13.95
329.346	14.14
329.713	14.25
330.08	14.41
330.448	14.47
330.815	14.41
331.182	14.46
331.55	14.56
331.917	14.52
332.284	14.52
332.651	14.59
333.018	14.53
333.385	14.48
333.752	14.75
334.119	14.93
334.486	15.14
334.853	15.31
335.22	15.35
335.587	15.44
335.954	15.55
336.32	15.51
336.687	15.39
337.054	15.31
337.42	15.35
337.787	15.34
338.153	15.47
338.52	15.61
338.886	15.61
339.253	15.62
339.619	15.81
339.986	15.82
340.352	15.94
340.718	16.06
341.084	16.09
341.451	16.01
341.817	15.91
342.183	15.87
342.549	15.82
342.915	15.87
343.281	15.93
343.647	15.81
344.013	15.83
344.379	15.8
344.745	15.76
345.11	15.74
345.476	15.77
345.842	15.64
346.208	15.73
346.573	15.75
346.939	15.79
347.304	15.6
347.67	15.67
348.035	15.61
348.401	15.58
348.766	15.58
349.132	15.68
349.497	15.74
349.862	15.92
350.228	15.95
350.593	15.91
350.958	15.91
351.323	16
351.688	15.94
352.053	16.07
352.418	16.25
352.783	16.39
353.148	16.41
353.513	16.59
353.878	16.5
354.243	16.57
354.608	16.68
354.972	16.8
355.337	16.84
355.702	16.91
356.066	16.86
356.431	16.9
356.795	16.9
357.16	16.82
357.524	16.75
357.889	16.76
358.253	16.87
358.618	16.8
358.982	16.71
359.346	16.76
359.71	16.65
360.075	16.53
360.439	16.45
360.803	16.41
361.167	16.3
361.531	16.29
361.895	16.23
362.259	16.11
362.623	16.08
362.987	15.98
363.351	15.86
363.714	15.91
364.078	15.82
364.442	15.74
364.806	15.68
365.169	15.58
365.533	15.53
365.896	15.4
366.26	15.51
366.623	15.53
366.987	15.43
367.35	15.36
367.714	15.39
368.077	15.29
368.44	15.2
368.803	15.17
369.167	15.19
369.53	15.18
369.893	15.14
370.256	15.09
370.619	15.06
370.982	15.06
371.345	14.93
371.708	14.91
372.071	14.9
372.434	14.97
372.797	14.95
373.159	14.88
373.522	14.81
373.885	14.62
374.247	14.48
374.61	14.43
374.973	14.35
375.335	14.3
375.698	14.24
376.06	14.21
376.423	14.16
376.785	14.08
377.147	13.97
377.51	13.9
377.872	13.82
378.234	13.72
378.596	13.64
378.958	13.6
379.321	13.52
379.683	13.41
380.045	13.26
380.407	13.24
380.769	13.13
381.13	13.03
381.492	12.96
381.854	12.88
382.216	12.79
382.578	12.81
382.939	12.66
383.301	12.57
383.663	12.47
384.024	12.36
384.386	12.33
384.747	12.27
385.109	12.2
385.47	12.11
385.832	12.06
386.193	11.97
386.554	11.9
386.916	11.86
387.277	11.8
387.638	11.79
387.999	11.66
388.36	11.62
388.721	11.55
389.082	11.46
389.443	11.42
389.804	11.35
390.165	11.2
390.526	11.14
390.887	11.07
391.248	11.03
391.609	10.97
391.969	10.87
392.33	10.81
392.691	10.71
393.051	10.64
393.412	10.53
393.772	10.41
394.133	10.31
394.493	10.2
394.854	10.07
395.214	9.96
395.574	9.88
395.935	9.78
396.295	9.74
396.655	9.64
397.015	9.52
397.376	9.47
397.736	9.42
398.096	9.35
398.456	9.28
398.816	9.17
399.176	9.11
399.535	9
399.895	8.93
400.255	8.9
400.615	8.81
400.975	8.79
401.334	8.78
401.694	8.75
402.054	8.7
402.413	8.67
402.773	8.61
403.132	8.55
403.492	8.48
403.851	8.41
404.211	8.41
404.57	8.38
404.929	8.32
405.288	8.25
405.648	8.16
406.007	8.13
406.366	8.11
406.725	8.06
407.084	8.05
407.443	8.01
407.802	8
408.161	7.95
408.52	7.92
408.879	7.89
409.238	7.87
409.596	7.83
409.955	7.81
410.314	7.78
410.673	7.74
411.031	7.73
411.39	7.7
411.748	7.64
412.107	7.62
412.465	7.55
412.824	7.55
413.182	7.53
413.54	7.48
413.899	7.44
414.257	7.4
414.615	7.33
414.974	7.29
415.332	7.21
415.69	7.16
416.048	7.12
416.406	7.07
416.764	7.02
417.122	6.97
417.48	6.92
417.838	6.9
418.195	6.87
418.553	6.84
418.911	6.8
419.269	6.77
419.626	6.74
419.984	6.71
420.342	6.66
420.699	6.63
421.057	6.63
421.414	6.59
421.772	6.55
422.129	6.52
422.486	6.5
422.844	6.47
423.201	6.44
423.558	6.41
423.915	6.38
424.273	6.35
424.63	6.33
424.987	6.31
425.344	6.28
425.701	6.25
426.058	6.21
426.415	6.19
426.772	6.16
427.128	6.13
427.485	6.12
427.842	6.11
428.199	6.09
428.555	6.05
428.912	6.06
429.269	6.06
429.625	6.06
429.982	6.03
430.338	6.05
430.695	6.05
431.051	6.04
431.407	6.03
431.764	6.01
432.12	6.01
432.476	6
432.832	5.98
433.189	5.98
433.545	5.98
433.901	5.97
434.257	5.97
434.613	5.98
434.969	5.96
435.325	5.94
435.681	5.95
436.036	5.93
436.392	5.91
436.748	5.88
437.104	5.86
437.459	5.86
437.815	5.86
438.171	5.86
438.526	5.84
438.882	5.85
439.237	5.84
439.593	5.85
439.948	5.83
440.304	5.83
440.659	5.82
441.014	5.81
441.369	5.79
441.725	5.77
442.08	5.75
442.435	5.73
442.79	5.71
443.145	5.68
443.5	5.68
443.855	5.68
444.21	5.68
444.565	5.67
444.92	5.65
445.275	5.61
445.629	5.58
445.984	5.57
446.339	5.55
446.693	5.52
447.048	5.48
447.403	5.47
447.757	5.46
448.112	5.43
448.466	5.4
448.82	5.4
449.175	5.4
449.529	5.39
449.883	5.39
450.238	5.37
450.592	5.4
450.946	5.37
451.3	5.33
451.654	5.31
452.008	5.29
452.362	5.27
452.716	5.25
453.07	5.26
453.424	5.24
453.778	5.24
454.132	5.26
454.486	5.26
454.839	5.23
455.193	5.24
455.547	5.25
455.9	5.28
456.254	5.27
456.607	5.28
456.961	5.29
457.314	5.3
457.668	5.31
458.021	5.27
458.375	5.28
458.728	5.3
459.081	5.32
459.434	5.32
459.787	5.33
460.141	5.35
460.494	5.34
460.847	5.37
461.2	5.38
461.553	5.38
461.906	5.41
462.259	5.45
462.611	5.47
462.964	5.48
463.317	5.5
463.67	5.52
464.022	5.53
464.375	5.54
464.728	5.55
465.08	5.59
465.433	5.63
465.785	5.65
466.138	5.68
466.49	5.71
466.843	5.75
467.195	5.78
467.547	5.8
467.899	5.85
468.252	5.86
468.604	5.88
468.956	5.89
469.308	5.91
469.66	5.92
470.012	5.94
470.364	5.96
470.716	5.97
471.068	6.01
471.42	6.03
471.772	6.06
472.123	6.08
472.475	6.07
472.827	6.08
473.178	6.08
473.53	6.06
473.882	6.03
474.233	6.05
474.585	6.05
474.936	6.03
475.288	6.01
475.639	6.01
475.99	6
476.342	6
476.693	5.98
477.044	5.98
477.395	5.99
477.746	5.97
478.097	5.95
478.448	5.94
478.8	5.91
479.15	5.87
479.501	5.86
479.852	5.85
480.203	5.84
480.554	5.85
480.905	5.86
481.255	5.85
481.606	5.83
481.957	5.83
482.307	5.83
482.658	5.83
483.009	5.83
483.359	5.83
483.709	5.83
484.06	5.83
484.41	5.83
484.761	5.83
485.111	5.83
485.461	5.85
485.811	5.85
486.162	5.85
486.512	5.87
486.862	5.87
487.212	5.88
487.562	5.9
487.912	5.9
488.262	5.9
488.612	5.92
488.961	5.94
489.311	5.96
489.661	5.97
490.011	5.98
490.36	6
490.71	6.01
491.06	6.04
491.409	6.07
491.759	6.09
492.108	6.11
492.458	6.14
492.807	6.16
493.157	6.2
493.506	6.24
493.855	6.28
494.204	6.34
494.554	6.38
494.903	6.42
495.252	6.47
495.601	6.55
495.95	6.6
496.299	6.67
496.648	6.73
496.997	6.84
497.346	6.93
497.695	7.01
498.043	7.11
498.392	7.16
498.741	7.22
499.09	7.3
499.438	7.39
499.787	7.48
500.135	7.56
500.484	7.64
500.832	7.74
501.181	7.8
501.529	7.9
501.878	8.01
502.226	8.12
502.574	8.25
502.923	8.33
503.271	8.44
503.619	8.58
503.967	8.67
504.315	8.75
504.663	8.87
505.011	8.97
505.359	9.08
505.707	9.24
506.055	9.36
506.403	9.5
506.751	9.62
507.098	9.72
507.446	9.85
507.794	9.96
508.141	10.08
508.489	10.23
508.837	10.35
509.184	10.46
509.531	10.59
509.879	10.71
510.226	10.86
510.574	10.99
510.921	11.09
511.268	11.21
511.616	11.35
511.963	11.48
512.31	11.64
512.657	11.78
513.004	11.88
513.351	12.04
513.698	12.22
514.045	12.37
514.392	12.54
514.739	12.69
515.086	12.87
515.432	13.03
515.779	13.16
516.126	13.31
516.473	13.47
516.819	13.62
517.166	13.75
517.512	13.89
517.859	14.02
518.205	14.14
518.552	14.31
518.898	14.42
519.245	14.56
519.591	14.68
519.937	14.81
520.283	14.99
520.629	15.14
520.976	15.27
521.322	15.46
521.668	15.64
522.014	15.79
522.36	15.99
522.706	16.19
523.052	16.41
523.398	16.64
523.743	16.84
524.089	17.08
524.435	17.32
524.781	17.52
525.126	17.72
525.472	17.9
525.817	18.07
526.163	18.26
526.509	18.43
526.854	18.57
527.199	18.72
527.545	18.85
527.89	19
528.235	19.15
528.581	19.29
528.926	19.44
529.271	19.63
529.616	19.78
529.961	19.94
530.306	20.11
530.651	20.29
530.996	20.47
531.341	20.66
531.686	20.85
532.031	21.07
532.376	21.29
532.721	21.54
533.065	21.76
533.41	21.99
533.755	22.23
534.099	22.49
534.444	22.75
534.788	23
535.133	23.25
535.477	23.5
535.822	23.76
536.166	24.05
536.51	24.36
536.855	24.7
537.199	25.07
537.543	25.43
537.887	25.79
538.231	26.16
538.576	26.5
538.92	26.87
539.264	27.2
539.608	27.53
539.951	27.79
540.295	28.1
540.639	28.39
540.983	28.65
541.327	28.95
541.671	29.17
542.014	29.45
542.358	29.72
542.701	29.98
543.045	30.23
543.389	30.53
543.732	30.77
544.075	31.05
544.419	31.29
544.762	31.58
545.105	31.87
545.449	32.18
545.792	32.51
546.135	32.84
546.478	33.23
546.821	33.6
547.165	34.04
547.508	34.41
547.851	34.78
548.194	35.16
548.536	35.53
548.879	36
549.222	36.37
549.565	36.75
549.908	37.19
550.25	37.56
550.593	37.92
550.936	38.28
551.278	38.61
551.621	38.98
551.963	39.33
552.306	39.7
552.648	40.04
552.991	40.36
553.333	40.65
553.675	40.98
554.017	41.24
554.36	41.53
554.702	41.87
555.044	42.21
555.386	42.54
555.728	42.83
556.07	43.13
556.412	43.41
556.754	43.74
557.096	44
557.438	44.37
557.78	44.69
558.121	45.05
558.463	45.4
558.805	45.73
559.147	45.97
559.488	46.22
559.83	46.51
560.171	46.83
560.513	47.15
560.854	47.35
561.196	47.72
561.537	48.01
561.878	48.2
562.22	48.42
562.561	48.68
562.902	48.97
563.243	49.24
563.584	49.54
563.925	49.75
564.266	50.01
564.607	50.2
564.948	50.38
565.289	50.56
565.63	50.75
565.971	50.98
566.312	51.25
566.653	51.5
566.993	51.71
567.334	51.9
567.675	52.1
568.015	52.3
568.356	52.47
568.696	52.64
569.037	52.83
569.377	53.05
569.718	53.23
570.058	53.4
570.398	53.58
570.739	53.73
571.079	53.9
571.419	54.07
571.759	54.26
572.099	54.47
572.439	54.68
572.779	54.84
573.119	54.97
573.459	55.08
573.799	55.24
574.139	55.32
574.479	55.45
574.819	55.57
575.158	55.68
575.498	55.77
575.838	55.92
576.177	56.06
576.517	56.19
576.856	56.35
577.196	56.47
577.535	56.58
577.875	56.75
578.214	56.85
578.553	57.02
578.893	57.15
579.232	57.17
579.571	57.3
579.91	57.43
580.25	57.55
580.589	57.73
580.928	57.81
581.267	58.04
581.606	58.16
581.945	58.26
582.283	58.44
582.622	58.58
582.961	58.61
583.3	58.77
583.639	58.86
583.977	58.92
584.316	59.11
584.654	59.18
584.993	59.2
585.332	59.35
585.67	59.36
586.008	59.45
586.347	59.61
586.685	59.66
587.024	59.71
587.362	59.81
587.7	59.85
588.038	59.93
588.376	60.01
588.715	60.04
589.053	60.15
589.391	60.19
589.729	60.27
590.067	60.36
590.404	60.41
590.742	60.49
591.08	60.51
591.418	60.53
591.756	60.67
592.093	60.74
592.431	60.8
592.769	60.89
593.106	60.89
593.444	60.95
593.781	61.01
594.119	61.05
594.456	61.15
594.793	61.21
595.131	61.31
595.468	61.37
595.805	61.46
596.143	61.57
596.48	61.6
596.817	61.58
597.154	61.64
597.491	61.7
597.828	61.71
598.165	61.76
598.502	61.81
598.839	61.78
599.176	61.79
599.512	61.88
599.849	61.98
600.186	62.04
600.523	62.08
600.859	62.19
601.196	62.27
601.532	62.26
601.869	62.27
602.205	62.29
602.542	62.3
602.878	62.3
603.215	62.25
603.551	62.31
603.887	62.41
604.223	62.49
604.56	62.51
604.896	62.55
605.232	62.64
605.568	62.67
605.904	62.7
606.24	62.81
606.576	62.79
606.912	62.84
607.248	62.98
607.583	63.02
607.919	62.98
608.255	63.01
608.591	63.07
608.926	63.12
609.262	63.17
609.597	63.21
609.933	63.24
610.268	63.27
610.604	63.32
610.939	63.39
611.275	63.37
611.61	63.48
611.945	63.56
612.281	63.54
612.616	63.66
612.951	63.68
613.286	63.72
613.621	63.83
613.956	63.84
614.291	63.88
614.626	63.93
614.961	64
615.296	64.09
615.631	64.07
615.966	64.13
616.3	64.15
616.635	64.05
616.97	64.1
617.304	64.11
617.639	64.09
617.973	64.11
618.308	64.1
618.642	64.09
618.977	64.03
619.311	64.12
619.646	64.1
619.98	64.26
620.314	64.2
620.648	64.2
620.983	64.28
621.317	64.17
621.651	64.23
621.985	64.2
622.319	64.15
622.653	64.24
622.987	64.31
623.321	64.44
623.655	64.58
623.988	64.67
624.322	64.75
624.656	64.88
624.99	64.97
625.323	65.06
625.657	65.02
625.99	65.08
626.324	65.01
626.657	65.02
626.991	64.97
627.324	65.07
627.658	65.09
627.991	65.04
628.324	65.13
628.657	65.13
628.991	65.22
629.324	65.26
629.657	65.27
629.99	65.33
630.323	65.26
630.656	65.38
630.989	65.41
631.322	65.38
631.655	65.43
631.987	65.37
632.32	65.37
632.653	65.44
632.986	65.55
633.318	65.64
633.651	65.66
633.984	65.69
634.316	65.68
634.649	65.69
634.981	65.67
635.313	65.72
635.646	65.83
635.978	65.96
636.31	66.01
636.643	66.07
636.975	66.1
637.307	66.11
637.639	66.02
637.971	66.02
638.303	66.15
638.635	66.09
638.967	66.12
639.299	66.16
639.631	66.19
639.963	66.14
640.295	66.16
640.626	66.14
640.958	66.21
641.29	66.28
641.621	66.23
641.953	66.36
642.285	66.33
642.616	66.26
642.948	66.18
643.279	66.19
643.61	66.31
643.942	66.27
644.273	66.31
644.604	66.36
644.936	66.33
645.267	66.28
645.598	66.28
645.929	66.31
646.26	66.25
646.591	66.26
646.922	66.29
647.253	66.39
647.584	66.42
647.915	66.34
648.245	66.37
648.576	66.48
648.907	66.43
649.238	66.52
649.568	66.5
649.899	66.6
650.229	66.59
650.56	66.46
650.89	66.43
651.221	66.53
651.551	66.5
651.882	66.61
652.212	66.59
652.542	66.55
652.872	66.56
653.203	66.72
653.533	66.68
653.863	66.85
654.193	66.84
654.523	66.84
654.853	66.99
655.183	67.02
655.513	67.15
655.843	67.17
656.172	67.16
656.502	67.26
656.832	67.23
657.162	67.35
657.491	67.34
657.821	67.33
658.15	67.18
658.48	67.16
658.809	67.04
659.139	67.03
659.468	67.16
659.798	67.14
660.127	67.13
660.456	67.19
660.785	67.08
661.115	66.97
661.444	67.07
661.773	66.99
662.102	66.97
662.431	66.81
662.76	66.95
663.089	66.88
663.418	66.86
663.747	66.75
664.076	66.69
664.404	66.77
664.733	66.85
665.062	66.96
665.39	67.1
665.719	67.2
666.048	67.3
666.376	67.19
666.705	67.12
667.033	67.18
667.362	67.09
667.69	67.08
668.018	67.25
668.347	67.18
668.675	67.22
669.003	67.26
669.331	67.29
669.659	67.12
669.987	67.09
670.315	67.1
670.643	67.15
670.971	67.12
671.299	67.09
671.627	67.02
671.955	67.04
672.283	67.04
672.61	67.18
672.938	67.17
673.266	67.33
673.593	67.45
673.921	67.36
674.249	67.56
674.576	67.59
674.904	67.49
675.231	67.37
675.558	67.43
675.886	67.36
676.213	67.39
676.54	67.44
676.867	67.41
677.195	67.43
677.522	67.46
677.849	67.45
678.176	67.42
678.503	67.36
678.83	67.38
679.157	67.28
679.484	67.18
679.81	67.21
680.137	67.05
680.464	67.02
680.791	66.92
681.117	66.87
681.444	66.92
681.771	67
682.097	67.06
682.424	66.93
682.75	66.88
683.077	66.9
683.403	67
683.729	66.98
684.056	67.05
684.382	66.99
684.708	67.06
685.034	67.1
685.36	67.13
685.686	67.01
686.012	67.05
686.339	67.19
686.664	67.15
686.99	67.19
687.316	67.24
687.642	67.42
687.968	67.35
688.294	67.42
688.619	67.4
688.945	67.47
689.271	67.54
689.596	67.65
689.922	67.63
690.247	67.47
690.573	67.46
690.898	67.37
691.224	67.43
691.549	67.38
691.874	67.33
692.2	67.35
692.525	67.48
692.85	67.57
693.175	67.49
693.5	67.56
693.825	67.57
694.15	67.75
694.475	67.73
694.8	67.85
695.125	67.73
695.45	67.64
695.775	67.71
696.099	67.85
696.424	67.77
696.749	67.68
697.073	67.67
697.398	67.9
697.723	68.04
698.047	68.16
698.372	68.19
698.696	68.16
699.02	68.26
699.345	68.29
699.669	68.19
699.993	68.1
700.318	68.09
700.642	68.21
700.966	68.09
701.29	68.06
701.614	68.07
701.938	68.07
702.262	68.16
702.586	68.13
702.91	68.02
703.234	68.11
703.557	68.28
703.881	68.35
704.205	68.24
704.529	68.13
704.852	67.91
705.176	67.87
705.499	68.11
705.823	68.06
706.146	68.01
706.47	68.14
706.793	68.19
707.117	68.34
707.44	68.15
707.763	68.2
708.086	68.22
708.409	68.17
708.733	68.39
709.056	68.27
709.379	68.24
709.702	68.32
710.025	68.26
710.348	68.1
710.671	68.06
710.993	68.16
711.316	68.1
711.639	68.24
711.962	68.31
712.284	68.05
712.607	68.16
712.93	68.01
713.252	68.13
713.575	68.06
713.897	67.94
714.22	68.01
714.542	68.02
714.864	68.01
715.187	68.05
715.509	67.92
715.831	67.87
716.153	68.02
716.475	67.8
716.798	67.84
717.12	67.83
717.442	67.88
717.764	67.96
718.085	68.04
718.407	67.91
718.729	68.03
719.051	68.22
719.373	68.15
719.695	68.35
720.016	68.07
720.338	68.36
720.659	68.53
720.981	68.52
721.302	68.39
721.624	68.39
721.945	68.27
722.267	68.28
722.588	68.42
722.909	68.45
723.231	68.55
723.552	68.63
723.873	68.93
724.194	68.87
724.515	68.71
724.836	68.55
725.157	68.89
725.478	68.53
725.799	68.34
726.12	68.19
726.441	68.06
726.762	68.33
727.083	68.02
727.403	67.83
727.724	67.83
728.045	67.82
728.365	67.72
728.686	67.83
729.006	67.84
729.327	67.91
729.647	67.68
729.967	67.57
730.288	67.62
730.608	67.51
730.928	67.5
731.249	67.36
731.569	67.39
731.889	67.12
732.209	67.15
732.529	67.38
732.849	67.52
733.169	67.69
733.489	67.54
733.809	67.67
734.129	67.58
734.448	67.39
734.768	67.3
735.088	67.31
735.408	67.17
735.727	67.13
736.047	66.9
736.366	66.97
736.686	67.45
737.005	67.46
737.325	67.59
737.644	67.83
737.963	68.01
738.283	67.99
738.602	68.2
738.921	68.42
739.24	68.26
739.56	68.33
739.879	68.14
740.198	68.23
740.517	68.02
740.836	68.19
741.155	68.24
741.473	68.26
741.792	68.5
742.111	68.37
742.43	68.61
742.748	69.02
743.067	68.93
743.386	68.8
743.704	69
744.023	68.86
744.341	68.64
744.66	68.64
744.978	68.55
745.297	68.5
745.615	68.72
745.933	69.15
746.252	68.96
746.57	69.19
746.888	69.09
747.206	69.53
747.524	69.45
747.842	69.54
748.16	69.68
748.478	69.73
748.796	69.99
749.114	69.76
749.432	69.17
749.749	69.15
750.067	68.89
750.385	68.51
750.703	68.83
751.02	68.98
751.338	68.86
751.655	69.05
751.973	68.86
752.29	68.7
752.608	68.39
752.925	68.48
753.242	68.32
753.56	68.58
753.877	68.77
754.194	68.83
754.511	68.92
754.828	68.95
755.145	68.78
755.462	68.87
755.779	69.09
756.096	69.71
756.413	69.83
756.73	69.71
757.047	70.09
757.364	69.74
757.68	69.67
757.997	69.88
758.314	70.12
758.63	70.14
758.947	69.92
759.264	69.87
759.58	70.01
759.896	70.1
760.213	69.66
760.529	69.33
760.846	69.2
761.162	69.36
761.478	69.33
761.794	69.31
762.11	69.1
762.426	68.88
762.743	68.77
763.059	68.98
763.375	69.32
763.69	69.26
764.006	69.17
764.322	69.27
764.638	69.11
764.954	68.92
765.27	69.04
765.585	69.11
765.901	69.22
766.216	69.07
766.532	68.83
766.848	68.74
767.163	68.66
767.478	69
767.794	69.01
768.109	69.06
768.424	69.03
768.74	69.09
769.055	69.16
769.37	69.24
769.685	69.02
770	68.95
770.315	68.56
770.63	69.12
770.945	68.67
771.26	68.85
771.575	68.82
771.89	68.99
772.205	68.74
772.52	68.53
772.834	68.8
773.149	69.24
773.464	69.28
773.778	69.44
774.093	68.94
774.407	68.91
774.722	68.77
775.036	68.55
775.351	68.59
775.665	68.93
775.979	68.83
776.293	68.88
776.608	68.72
776.922	68.85
777.236	68.09
777.55	68.4
777.864	68.75
778.178	68.83
778.492	68.65
778.806	68.9
779.12	69.07
779.434	68.77
779.747	68.81
780.061	69.41
780.375	69.52
780.689	69.97
781.002	70
781.316	69.96
781.629	70.15
781.943	70.44
782.256	70.47
782.57	70.19
782.883	69.77
783.196	70
783.51	69.71
783.823	70
784.136	70.04
784.449	69.3
784.762	69.82
785.075	69.99
785.388	70.01
785.701	70.11
786.014	69.99
786.327	69.55
786.64	69.9
786.953	70.1
787.266	70.14
787.578	70.35
787.891	70.49
788.204	70.18
788.516	70.55
788.829	70.26
789.141	70.39
789.454	70.95
789.766	70.9
790.079	71.19
790.391	71.27
790.703	71.28
791.016	71.84
791.328	71.62
791.64	70.96
791.952	71.6
792.264	71.14
792.576	71.72
792.888	71.65
793.2	71.05
793.512	70.67
793.824	70.46
794.136	70.24
794.448	70.42
794.76	70.61
795.071	69.86
795.383	70.06
795.695	69.92
796.006	69.49
796.318	69.06
796.629	69.05
796.941	68.97
797.252	69.27
797.564	69.23
797.875	69.1
798.186	69.54
798.497	68.78
798.809	69.19
799.12	68.96
799.431	69.29
799.742	69.56
800.053	69.8
800.364	69.49
800.675	69.66
800.986	69.79
801.297	70.25
801.608	70.18
801.918	69.82
802.229	69.96
802.54	70.38
802.851	70.71
803.161	70.58
803.472	70.96
803.782	70.34
804.093	70.35
804.403	69.8
804.714	69.39
805.024	69.13
805.334	69.33
805.645	69.55
805.955	69.77
806.265	69.45
806.575	69
806.885	69.16
807.195	68.67
807.505	68.53
807.815	69.13
808.125	69.72
808.435	69.86
808.745	69.29
809.055	69.19
809.365	69.56
809.674	69.85
809.984	70.11
810.294	70.14
810.603	69.53
810.913	70.89
811.222	71.75
811.532	72.4
811.841	72.77
812.151	72.38
812.46	72.15
812.769	72.28
813.079	72.44
813.388	72.33
813.697	72.79
814.006	72.22
814.315	71.21
814.624	71
814.933	71.03
815.242	72.32
815.551	71.57
815.86	71.46
816.169	71.28
816.478	70.71
816.786	71.31
817.095	71.68
817.404	70.1
817.712	69.68
818.021	69.59
818.33	68.88
818.638	68.21
818.947	68.05
819.255	68.48
819.563	68.3
819.872	68.15
820.18	68.08
820.488	68.74
820.796	68.6
821.105	68.61
821.413	68.65
821.721	68.8
822.029	69.17
822.337	69.17
822.645	69.2
822.953	69.19
823.26	69.3
823.568	69.48
823.876	69.73
824.184	69.7
824.491	69.82
824.799	70.06
825.107	70.25
825.414	70.48
825.722	70.44
826.029	70.58
826.337	70.92
826.644	71.32
826.951	71.08
827.259	71.44
827.566	71.57
827.873	71.59
828.18	71.9
828.488	71.89
828.795	71.98
829.102	72.1
829.409	72.29
829.716	72.02
830.023	71.93
830.329	71.8
830.636	71.91
830.943	71.97
831.25	71.81
831.557	71.99
831.863	71.89
832.17	72.1
832.476	72.03
832.783	72.11
833.089	71.33
833.396	71.74
833.702	71.43
834.009	71.57
834.315	71.57
834.621	70.96
834.928	71.08
835.234	70.94
835.54	71.42
835.846	71.27
836.152	71.16
836.458	70.87
836.764	70.98
837.07	71.29
837.376	71.08
837.682	70.86
837.988	71.11
838.293	71.06
838.599	71.16
838.905	72.19
839.211	71.78
839.516	71.7
839.822	71.57
840.127	71.67
840.433	71.27
840.738	71.33
841.044	71.02
841.349	71.13
841.654	71.25
841.959	70.31
842.265	70.49
842.57	71.45
842.875	71.94
843.18	72.03
843.485	71.37
843.79	71.53
844.095	71.83
844.4	71.86
844.705	72.1
845.01	71.93
845.315	70.09
845.619	70.34
845.924	71.65
846.229	73.49
846.533	75.49
846.838	75.16
847.142	75.94
847.447	75.49
847.751	74.66
848.056	74.85
848.36	76.87
848.664	77.83
848.969	77.96
849.273	78.23
849.577	77.55
849.881	79.97
850.185	78.83
850.489	77.87
850.794	76.36
851.097	77.64
851.401	77.84
851.705	79.5
852.009	80.46
852.313	77.71
852.617	74.6
852.92	73.83
853.224	74.66
853.528	75.81
853.831	75.81
854.135	78.49
854.438	78.1
854.742	76.37
855.045	75.73
855.349	74.82
855.652	74.39
855.955	76.09
856.259	73.86
856.562	76.07
856.865	77.38
857.168	79.26
857.471	77.16
857.774	76.12
858.077	75.8
858.38	71.92
858.683	74.18
858.986	74.64
859.289	73.64
859.592	75.1
859.894	72.96
860.197	72.93
860.5	72.91
860.802	73.8
861.105	73.77
861.407	73.39
861.71	74.24
862.012	74.29
862.315	73.26
862.617	73.06
862.919	70.29
863.222	71.59
863.524	71.14
863.826	71.14
864.128	71.5
864.43	71.94
864.732	74.64
865.034	74.69
865.336	73.77
865.638	72.39
865.94	68.97
866.242	67.95
866.544	66.61
866.846	64.85
867.147	63.08
867.449	62.82
867.751	64.15
868.052	63.94
868.354	63.02
868.655	64.68
868.957	66.33
869.258	64.86
869.56	62.42
869.861	61.62
870.162	62.06
870.463	62.6
870.765	64.48
871.066	66.11
871.367	66
871.668	67.8
871.969	69.21
872.27	71.75
872.571	75.21
872.872	78.96
873.173	80.03
873.473	82.99
873.774	82.01
874.075	81.82
874.376	82.21
874.676	81.39
874.977	80.3
875.277	77.81
875.578	80.25
875.878	81.35
876.179	81.89
876.479	82.14
876.78	81.72
877.08	77.98
877.38	76.16
877.68	76.34
877.981	76.13
878.281	76.15
878.581	75.63
