Data from BA28469_Reflection_00011.txt Node
Date: Mon Nov 18 15:18:09 EST 2019
User: vgr7
Spectrometer: USB2G7710
Scans to average: 3
Trigger mode: 4
Integration Time (sec): 2.000000E-2
Electric dark correction enabled: true
Boxcar width: 10
XAxis mode: Wavelengths
Number of Pixels in Spectrum: 2048
>>>>>Begin Spectral Data<<<<<
177.721	188.94
178.105	-17566.67
178.488	-104.65
178.871	-95.16
179.254	-50.72
179.636	20433.33
180.019	-167.89
180.402	294.74
180.785	192.67
181.168	17.1
181.55	76.53
181.933	96.34
182.316	116.84
182.698	107.7
183.081	242.48
183.463	108.61
183.846	134.56
184.228	297.64
184.611	57.58
184.993	2877.78
185.376	-157.38
185.758	-196.04
186.14	-58.22
186.522	-321.38
186.904	-127.37
187.287	315.34
187.669	-171.16
188.051	-385.46
188.433	-117.64
188.815	-44.43
189.197	-54.88
189.579	-61.69
189.961	-41.11
190.342	-32.62
190.724	-13.66
191.106	-24.1
191.488	-32.63
191.869	-15.73
192.251	-25.16
192.633	-23.15
193.014	-34.04
193.396	-60.82
193.777	-44.94
194.159	-69.82
194.54	-58.33
194.922	-54.1
195.303	-47.15
195.684	-39.17
196.065	-30.45
196.447	-44.26
196.828	-44.52
197.209	-48.34
197.59	-58.54
197.971	-72.03
198.352	-46.74
198.733	-100.2
199.114	-75.31
199.495	-80.32
199.876	-68.89
200.257	-67.19
200.638	-49.6
201.018	-38.18
201.399	-11.74
201.78	-34.29
202.16	-35.9
202.541	-88.82
202.922	-96.87
203.302	-92.28
203.683	-76.55
204.063	-74.66
204.444	-60.82
204.824	-83.42
205.204	-57.1
205.585	-28.8
205.965	-3.39
206.345	-21.11
206.725	-29.98
207.106	-35.71
207.486	-29.96
207.866	-38.1
208.246	-27.17
208.626	-12.75
209.006	-8.52
209.386	-44.36
209.766	-9.82
210.145	2.81
210.525	15.02
210.905	-0.46
211.285	4.1
211.664	7.56
212.044	7.86
212.424	22.49
212.803	25.22
213.183	18.96
213.562	13.41
213.942	5.16
214.321	5.23
214.701	5.02
215.08	3.7
215.459	5.62
215.838	0.73
216.218	-0.96
216.597	-0.59
216.976	4.39
217.355	15
217.734	10.32
218.113	19.99
218.492	19.69
218.871	26.73
219.25	22.87
219.629	23.02
220.008	22.76
220.387	8.75
220.766	4.45
221.144	1.73
221.523	8.11
221.902	16.6
222.28	2.93
222.659	22.61
223.037	35.1
223.416	18.7
223.794	13.81
224.173	11.73
224.551	15.53
224.929	11.99
225.308	8.25
225.686	11.52
226.064	2.48
226.442	1.74
226.821	3.53
227.199	3.14
227.577	0.91
227.955	-0.9
228.333	-1.91
228.711	-1.36
229.089	2.18
229.467	-0.05
229.845	1.68
230.222	4.08
230.6	3.18
230.978	1.52
231.356	3.55
231.733	5.69
232.111	7.11
232.488	5.89
232.866	3.78
233.243	3.61
233.621	1.6
233.998	2.91
234.376	2.27
234.753	2.06
235.13	2.73
235.508	3.87
235.885	4.22
236.262	5.51
236.639	5.17
237.016	4.03
237.393	5.5
237.77	4.98
238.147	5.53
238.524	5.17
238.901	5.04
239.278	5.37
239.655	5.6
240.032	5.62
240.409	5.86
240.785	6.64
241.162	6.46
241.539	6.42
241.915	6.25
242.292	5.75
242.668	5.51
243.045	5.69
243.421	5.6
243.798	5.33
244.174	4.98
244.551	4.97
244.927	5.05
245.303	4.77
245.679	4.86
246.056	4.48
246.432	4.47
246.808	4.48
247.184	4.33
247.56	4.02
247.936	3.83
248.312	3.82
248.688	3.75
249.064	3.76
249.44	3.85
249.815	3.85
250.191	4.1
250.567	4.11
250.943	3.84
251.318	3.84
251.694	3.89
252.069	3.67
252.445	3.72
252.82	3.52
253.196	3.54
253.571	3.4
253.947	3.45
254.322	3.37
254.697	3.53
255.073	3.43
255.448	3.46
255.823	3.52
256.198	3.32
256.573	3.21
256.948	3.28
257.323	3.29
257.698	3.21
258.073	3.38
258.448	3.3
258.823	3.25
259.198	3.17
259.573	3.17
259.948	3.34
260.322	3.4
260.697	3.54
261.072	3.51
261.446	3.5
261.821	3.63
262.195	3.72
262.57	3.59
262.944	3.56
263.319	3.59
263.693	3.68
264.067	3.77
264.442	3.89
264.816	3.76
265.19	3.83
265.564	3.88
265.938	3.62
266.313	3.64
266.687	3.71
267.061	3.74
267.435	3.81
267.809	3.68
268.183	3.46
268.556	3.39
268.93	3.51
269.304	3.57
269.678	3.5
270.051	3.48
270.425	3.41
270.799	3.38
271.172	3.3
271.546	3.18
271.919	3.16
272.293	3.05
272.666	3.19
273.04	3.11
273.413	3.08
273.787	3.19
274.16	3.23
274.533	3.24
274.906	3.2
275.279	3.23
275.653	3.24
276.026	3.39
276.399	3.45
276.772	3.41
277.145	3.31
277.518	3.24
277.891	3.36
278.263	3.52
278.636	3.71
279.009	3.66
279.382	3.76
279.755	3.75
280.127	3.82
280.5	3.9
280.872	3.92
281.245	3.91
281.617	4
281.99	4.13
282.362	4.19
282.735	4.17
283.107	4.17
283.479	4.37
283.852	4.27
284.224	4.25
284.596	4.3
284.968	4.35
285.34	4.51
285.713	4.39
286.085	4.45
286.457	4.44
286.829	4.48
287.201	4.34
287.572	4.28
287.944	4.22
288.316	4.07
288.688	4.05
289.06	4.07
289.431	3.93
289.803	3.93
290.175	3.88
290.546	4.02
290.918	4.11
291.289	4.08
291.661	4.31
292.032	4.43
292.403	4.45
292.775	4.45
293.146	4.31
293.517	4.29
293.889	4.27
294.26	4.22
294.631	4.38
295.002	4.45
295.373	4.49
295.744	4.53
296.115	4.54
296.486	4.51
296.857	4.59
297.228	4.7
297.599	4.62
297.97	4.73
298.34	4.77
298.711	4.66
299.082	4.62
299.452	4.57
299.823	4.59
300.194	4.68
300.564	4.71
300.935	4.78
301.305	4.87
301.676	4.88
302.046	4.99
302.416	5.14
302.787	5.21
303.157	5.17
303.527	5.1
303.897	5.27
304.267	5.58
304.637	5.5
305.008	5.44
305.378	5.54
305.748	5.57
306.117	5.46
306.487	5.7
306.857	5.88
307.227	5.83
307.597	5.76
307.967	5.68
308.336	5.73
308.706	5.84
309.076	5.84
309.445	5.88
309.815	5.8
310.184	5.69
310.554	5.67
310.923	5.92
311.293	6.16
311.662	6.07
312.031	6.02
312.401	6.11
312.77	6.24
313.139	6.33
313.508	6.28
313.877	6.34
314.246	6.31
314.616	6.17
314.985	6.23
315.353	6.25
315.722	6.32
316.091	6.29
316.46	6.24
316.829	6.36
317.198	6.48
317.567	6.61
317.935	6.76
318.304	6.88
318.672	6.8
319.041	6.75
319.41	6.86
319.778	6.73
320.147	6.77
320.515	6.86
320.883	6.81
321.252	7.09
321.62	7.28
321.988	7.31
322.357	7.35
322.725	7.28
323.093	7.43
323.461	7.49
323.829	7.62
324.197	7.69
324.565	7.74
324.933	7.68
325.301	7.71
325.669	7.57
326.037	7.63
326.405	7.75
326.772	7.82
327.14	7.92
327.508	8.02
327.875	8.12
328.243	8.09
328.61	8.12
328.978	7.96
329.346	8.07
329.713	8.01
330.08	8.2
330.448	8.34
330.815	8.25
331.182	8.41
331.55	8.43
331.917	8.52
332.284	8.59
332.651	8.62
333.018	8.66
333.385	8.75
333.752	8.88
334.119	8.9
334.486	8.9
334.853	8.89
335.22	8.97
335.587	8.92
335.954	8.94
336.32	8.99
336.687	8.99
337.054	8.92
337.42	8.94
337.787	8.95
338.153	8.94
338.52	9.07
338.886	8.89
339.253	8.93
339.619	8.94
339.986	8.9
340.352	9.03
340.718	9
341.084	9.02
341.451	9.06
341.817	9.07
342.183	9.11
342.549	9.22
342.915	9.3
343.281	9.4
343.647	9.38
344.013	9.47
344.379	9.49
344.745	9.46
345.11	9.41
345.476	9.48
345.842	9.58
346.208	9.61
346.573	9.75
346.939	9.74
347.304	9.71
347.67	9.67
348.035	9.64
348.401	9.7
348.766	9.81
349.132	9.8
349.497	9.85
349.862	9.85
350.228	9.82
350.593	9.74
350.958	9.8
351.323	9.83
351.688	9.76
352.053	9.89
352.418	9.95
352.783	10.13
353.148	10.08
353.513	10.03
353.878	9.95
354.243	9.91
354.608	9.98
354.972	10.04
355.337	10.15
355.702	10.12
356.066	10.1
356.431	10
356.795	10.04
357.16	9.95
357.524	9.91
357.889	9.96
358.253	9.95
358.618	9.92
358.982	9.88
359.346	9.83
359.71	9.78
360.075	9.76
360.439	9.7
360.803	9.64
361.167	9.59
361.531	9.54
361.895	9.5
362.259	9.46
362.623	9.44
362.987	9.41
363.351	9.42
363.714	9.41
364.078	9.37
364.442	9.3
364.806	9.33
365.169	9.28
365.533	9.26
365.896	9.22
366.26	9.17
366.623	9.2
366.987	9.23
367.35	9.19
367.714	9.13
368.077	9.15
368.44	9.18
368.803	9.15
369.167	9.18
369.53	9.06
369.893	9.04
370.256	9
370.619	8.96
370.982	8.92
371.345	8.84
371.708	8.82
372.071	8.77
372.434	8.68
372.797	8.73
373.159	8.61
373.522	8.57
373.885	8.59
374.247	8.56
374.61	8.45
374.973	8.45
375.335	8.38
375.698	8.3
376.06	8.21
376.423	8.18
376.785	8.08
377.147	8.14
377.51	8.08
377.872	7.98
378.234	7.91
378.596	7.83
378.958	7.82
379.321	7.76
379.683	7.74
380.045	7.64
380.407	7.53
380.769	7.51
381.13	7.47
381.492	7.33
381.854	7.23
382.216	7.22
382.578	7.11
382.939	7.08
383.301	7.02
383.663	6.97
384.024	6.94
384.386	6.96
384.747	6.92
385.109	6.87
385.47	6.82
385.832	6.82
386.193	6.85
386.554	6.79
386.916	6.8
387.277	6.74
387.638	6.78
387.999	6.76
388.36	6.71
388.721	6.65
389.082	6.61
389.443	6.59
389.804	6.54
390.165	6.58
390.526	6.54
390.887	6.48
391.248	6.48
391.609	6.45
391.969	6.39
392.33	6.29
392.691	6.27
393.051	6.23
393.412	6.18
393.772	6.11
394.133	6.09
394.493	6
394.854	5.97
395.214	5.9
395.574	5.88
395.935	5.83
396.295	5.83
396.655	5.83
397.015	5.78
397.376	5.72
397.736	5.66
398.096	5.64
398.456	5.67
398.816	5.58
399.176	5.53
399.535	5.49
399.895	5.51
400.255	5.46
400.615	5.44
400.975	5.4
401.334	5.34
401.694	5.3
402.054	5.27
402.413	5.25
402.773	5.21
403.132	5.15
403.492	5.07
403.851	5.03
404.211	5.01
404.57	4.93
404.929	4.95
405.288	4.87
405.648	4.84
406.007	4.78
406.366	4.79
406.725	4.83
407.084	4.82
407.443	4.8
407.802	4.78
408.161	4.77
408.52	4.71
408.879	4.72
409.238	4.72
409.596	4.73
409.955	4.69
410.314	4.69
410.673	4.7
411.031	4.69
411.39	4.69
411.748	4.67
412.107	4.73
412.465	4.7
412.824	4.7
413.182	4.66
413.54	4.63
413.899	4.59
414.257	4.54
414.615	4.5
414.974	4.49
415.332	4.46
415.69	4.44
416.048	4.46
416.406	4.43
416.764	4.4
417.122	4.39
417.48	4.36
417.838	4.33
418.195	4.3
418.553	4.28
418.911	4.26
419.269	4.25
419.626	4.22
419.984	4.21
420.342	4.22
420.699	4.2
421.057	4.21
421.414	4.2
421.772	4.19
422.129	4.19
422.486	4.17
422.844	4.16
423.201	4.15
423.558	4.13
423.915	4.12
424.273	4.11
424.63	4.09
424.987	4.09
425.344	4.1
425.701	4.1
426.058	4.1
426.415	4.09
426.772	4.07
427.128	4.05
427.485	4.05
427.842	4.03
428.199	4.04
428.555	4.01
428.912	4.01
429.269	4.01
429.625	3.99
429.982	3.95
430.338	3.96
430.695	3.96
431.051	3.95
431.407	3.95
431.764	3.94
432.12	3.96
432.476	3.93
432.832	3.89
433.189	3.89
433.545	3.88
433.901	3.89
434.257	3.88
434.613	3.88
434.969	3.89
435.325	3.89
435.681	3.87
436.036	3.87
436.392	3.86
436.748	3.85
437.104	3.84
437.459	3.85
437.815	3.85
438.171	3.85
438.526	3.86
438.882	3.85
439.237	3.85
439.593	3.84
439.948	3.86
440.304	3.88
440.659	3.88
441.014	3.88
441.369	3.87
441.725	3.87
442.08	3.86
442.435	3.84
442.79	3.85
443.145	3.84
443.5	3.84
443.855	3.83
444.21	3.81
444.565	3.82
444.92	3.84
445.275	3.82
445.629	3.81
445.984	3.79
446.339	3.78
446.693	3.77
447.048	3.75
447.403	3.75
447.757	3.73
448.112	3.72
448.466	3.7
448.82	3.69
449.175	3.69
449.529	3.68
449.883	3.68
450.238	3.66
450.592	3.65
450.946	3.64
451.3	3.64
451.654	3.63
452.008	3.62
452.362	3.6
452.716	3.61
453.07	3.6
453.424	3.61
453.778	3.6
454.132	3.58
454.486	3.57
454.839	3.56
455.193	3.56
455.547	3.56
455.9	3.57
456.254	3.57
456.607	3.57
456.961	3.56
457.314	3.53
457.668	3.52
458.021	3.52
458.375	3.52
458.728	3.51
459.081	3.54
459.434	3.53
459.787	3.54
460.141	3.54
460.494	3.54
460.847	3.53
461.2	3.55
461.553	3.56
461.906	3.56
462.259	3.57
462.611	3.59
462.964	3.61
463.317	3.63
463.67	3.63
464.022	3.64
464.375	3.66
464.728	3.67
465.08	3.7
465.433	3.71
465.785	3.72
466.138	3.74
466.49	3.73
466.843	3.73
467.195	3.74
467.547	3.77
467.899	3.76
468.252	3.78
468.604	3.78
468.956	3.8
469.308	3.81
469.66	3.8
470.012	3.79
470.364	3.79
470.716	3.8
471.068	3.82
471.42	3.84
471.772	3.87
472.123	3.9
472.475	3.88
472.827	3.9
473.178	3.93
473.53	3.92
473.882	3.93
474.233	3.95
474.585	3.93
474.936	3.92
475.288	3.93
475.639	3.93
475.99	3.95
476.342	3.94
476.693	3.96
477.044	3.97
477.395	3.98
477.746	3.98
478.097	3.96
478.448	3.93
478.8	3.92
479.15	3.88
479.501	3.89
479.852	3.91
480.203	3.91
480.554	3.9
480.905	3.9
481.255	3.89
481.606	3.89
481.957	3.9
482.307	3.9
482.658	3.91
483.009	3.9
483.359	3.9
483.709	3.9
484.06	3.89
484.41	3.89
484.761	3.88
485.111	3.87
485.461	3.88
485.811	3.89
486.162	3.88
486.512	3.89
486.862	3.88
487.212	3.86
487.562	3.87
487.912	3.86
488.262	3.85
488.612	3.85
488.961	3.84
489.311	3.83
489.661	3.82
490.011	3.81
490.36	3.8
490.71	3.8
491.06	3.8
491.409	3.79
491.759	3.8
492.108	3.8
492.458	3.82
492.807	3.83
493.157	3.82
493.506	3.85
493.855	3.86
494.204	3.88
494.554	3.88
494.903	3.88
495.252	3.9
495.601	3.93
495.95	3.96
496.299	3.97
496.648	4.01
496.997	4.04
497.346	4.09
497.695	4.12
498.043	4.15
498.392	4.19
498.741	4.22
499.09	4.23
499.438	4.27
499.787	4.3
500.135	4.33
500.484	4.36
500.832	4.4
501.181	4.43
501.529	4.47
501.878	4.54
502.226	4.58
502.574	4.66
502.923	4.68
503.271	4.72
503.619	4.78
503.967	4.82
504.315	4.87
504.663	4.91
505.011	4.98
505.359	5.01
505.707	5.07
506.055	5.15
506.403	5.23
506.751	5.27
507.098	5.33
507.446	5.41
507.794	5.48
508.141	5.56
508.489	5.63
508.837	5.71
509.184	5.78
509.531	5.84
509.879	5.9
510.226	6
510.574	6.07
510.921	6.11
511.268	6.17
511.616	6.22
511.963	6.29
512.31	6.37
512.657	6.46
513.004	6.53
513.351	6.62
513.698	6.71
514.045	6.8
514.392	6.91
514.739	6.98
515.086	7.08
515.432	7.14
515.779	7.21
516.126	7.28
516.473	7.36
516.819	7.46
517.166	7.54
517.512	7.61
517.859	7.7
518.205	7.8
518.552	7.9
518.898	7.99
519.245	8.07
519.591	8.11
519.937	8.17
520.283	8.3
520.629	8.37
520.976	8.47
521.322	8.57
521.668	8.64
522.014	8.76
522.36	8.86
522.706	8.95
523.052	9.1
523.398	9.24
523.743	9.36
524.089	9.48
524.435	9.61
524.781	9.77
525.126	9.89
525.472	9.98
525.817	10.08
526.163	10.19
526.509	10.31
526.854	10.42
527.199	10.53
527.545	10.61
527.89	10.71
528.235	10.79
528.581	10.91
528.926	11.02
529.271	11.12
529.616	11.24
529.961	11.36
530.306	11.48
530.651	11.59
530.996	11.74
531.341	11.88
531.686	12.02
532.031	12.16
532.376	12.31
532.721	12.49
533.065	12.65
533.41	12.82
533.755	12.99
534.099	13.19
534.444	13.38
534.788	13.55
535.133	13.74
535.477	13.94
535.822	14.13
536.166	14.33
536.51	14.57
536.855	14.81
537.199	15.08
537.543	15.33
537.887	15.62
538.231	15.89
538.576	16.19
538.92	16.46
539.264	16.72
539.608	17.01
539.951	17.24
540.295	17.49
540.639	17.74
540.983	17.95
541.327	18.19
541.671	18.41
542.014	18.67
542.358	18.9
542.701	19.12
543.045	19.36
543.389	19.6
543.732	19.86
544.075	20.12
544.419	20.38
544.762	20.65
545.105	20.93
545.449	21.22
545.792	21.51
546.135	21.85
546.478	22.2
546.821	22.54
547.165	22.93
547.508	23.31
547.851	23.68
548.194	24.06
548.536	24.46
548.879	24.9
549.222	25.29
549.565	25.7
549.908	26.1
550.25	26.52
550.593	26.93
550.936	27.33
551.278	27.74
551.621	28.16
551.963	28.64
552.306	29.07
552.648	29.48
552.991	29.9
553.333	30.25
553.675	30.64
554.017	31.07
554.36	31.44
554.702	31.81
555.044	32.19
555.386	32.6
555.728	32.97
556.07	33.29
556.412	33.65
556.754	34.05
557.096	34.53
557.438	34.93
557.78	35.35
558.121	35.78
558.463	36.14
558.805	36.55
559.147	36.94
559.488	37.32
559.83	37.7
560.171	38.02
560.513	38.41
560.854	38.79
561.196	39.14
561.537	39.45
561.878	39.9
562.22	40.22
562.561	40.55
562.902	40.89
563.243	41.21
563.584	41.58
563.925	41.88
564.266	42.13
564.607	42.38
564.948	42.69
565.289	42.95
565.63	43.23
565.971	43.49
566.312	43.7
566.653	44.01
566.993	44.27
567.334	44.6
567.675	44.86
568.015	45.1
568.356	45.38
568.696	45.69
569.037	45.86
569.377	46.17
569.718	46.44
570.058	46.71
570.398	46.96
570.739	47.17
571.079	47.4
571.419	47.68
571.759	47.99
572.099	48.21
572.439	48.45
572.779	48.68
573.119	48.88
573.459	49.13
573.799	49.29
574.139	49.52
574.479	49.7
574.819	49.95
575.158	50.12
575.498	50.27
575.838	50.45
576.177	50.7
576.517	50.88
576.856	51.14
577.196	51.35
577.535	51.59
577.875	51.85
578.214	52.07
578.553	52.34
578.893	52.48
579.232	52.7
579.571	52.87
579.91	53.1
580.25	53.31
580.589	53.45
580.928	53.69
581.267	53.86
581.606	53.99
581.945	54.14
582.283	54.39
582.622	54.6
582.961	54.75
583.3	54.88
583.639	55.12
583.977	55.23
584.316	55.38
584.654	55.54
584.993	55.59
585.332	55.71
585.67	55.8
586.008	55.95
586.347	56.06
586.685	56.21
587.024	56.32
587.362	56.45
587.7	56.55
588.038	56.66
588.376	56.73
588.715	56.9
589.053	56.97
589.391	57.09
589.729	57.15
590.067	57.28
590.404	57.39
590.742	57.41
591.08	57.47
591.418	57.57
591.756	57.6
592.093	57.81
592.431	57.87
592.769	57.89
593.106	57.99
593.444	58.07
593.781	58.18
594.119	58.25
594.456	58.33
594.793	58.47
595.131	58.55
595.468	58.62
595.805	58.71
596.143	58.78
596.48	58.86
596.817	58.97
597.154	59.04
597.491	59.09
597.828	59.12
598.165	59.18
598.502	59.21
598.839	59.32
599.176	59.28
599.512	59.42
599.849	59.54
600.186	59.6
600.523	59.78
600.859	59.87
601.196	59.98
601.532	60.03
601.869	60.15
602.205	60.23
602.542	60.37
602.878	60.39
603.215	60.45
603.551	60.5
603.887	60.53
604.223	60.57
604.56	60.66
604.896	60.77
605.232	60.86
605.568	60.92
605.904	60.98
606.24	61.14
606.576	61.2
606.912	61.25
607.248	61.32
607.583	61.3
607.919	61.39
608.255	61.43
608.591	61.56
608.926	61.56
609.262	61.62
609.597	61.62
609.933	61.69
610.268	61.75
610.604	61.73
610.939	61.79
611.275	61.9
611.61	61.87
611.945	61.9
612.281	61.92
612.616	62.04
612.951	62.1
613.286	62.11
613.621	62.13
613.956	62.17
614.291	62.22
614.626	62.23
614.961	62.2
615.296	62.32
615.631	62.4
615.966	62.44
616.3	62.43
616.635	62.5
616.97	62.57
617.304	62.73
617.639	62.82
617.973	62.87
618.308	62.93
618.642	62.98
618.977	62.98
619.311	63.03
619.646	63.04
619.98	63.09
620.314	63.09
620.648	63.17
620.983	63.26
621.317	63.31
621.651	63.44
621.985	63.48
622.319	63.41
622.653	63.35
622.987	63.43
623.321	63.52
623.655	63.52
623.988	63.65
624.322	63.61
624.656	63.65
624.99	63.6
625.323	63.54
625.657	63.62
625.99	63.75
626.324	63.71
626.657	63.74
626.991	63.74
627.324	63.77
627.658	63.86
627.991	63.87
628.324	64
628.657	64
628.991	64.05
629.324	64.11
629.657	64.16
629.99	64.12
630.323	64.08
630.656	64.1
630.989	64
631.322	64.04
631.655	64.09
631.987	64.22
632.32	64.41
632.653	64.49
632.986	64.49
633.318	64.55
633.651	64.58
633.984	64.7
634.316	64.77
634.649	64.74
634.981	64.65
635.313	64.62
635.646	64.63
635.978	64.69
636.31	64.78
636.643	64.72
636.975	64.85
637.307	64.96
637.639	65.14
637.971	65.18
638.303	65.12
638.635	65.08
638.967	65.01
639.299	64.94
639.631	64.9
639.963	64.86
640.295	64.82
640.626	64.82
640.958	64.66
641.29	64.54
641.621	64.5
641.953	64.62
642.285	64.63
642.616	64.72
642.948	64.65
643.279	64.57
643.61	64.69
643.942	64.67
644.273	64.66
644.604	64.61
644.936	64.66
645.267	64.72
645.598	64.76
645.929	64.86
646.26	64.84
646.591	64.76
646.922	64.77
647.253	64.83
647.584	64.74
647.915	64.81
648.245	64.92
648.576	65.01
648.907	65.01
649.238	64.94
649.568	64.87
649.899	64.91
650.229	64.94
650.56	65
650.89	65
651.221	64.93
651.551	64.86
651.882	64.87
652.212	64.92
652.542	64.88
652.872	64.89
653.203	64.96
653.533	65.07
653.863	65.21
654.193	65.26
654.523	65.37
654.853	65.4
655.183	65.4
655.513	65.45
655.843	65.52
656.172	65.59
656.502	65.61
656.832	65.59
657.162	65.66
657.491	65.64
657.821	65.71
658.15	65.74
658.48	65.82
658.809	65.84
659.139	65.87
659.468	65.9
659.798	65.86
660.127	65.81
660.456	65.85
660.785	65.8
661.115	65.87
661.444	65.88
661.773	65.91
662.102	65.95
662.431	65.97
662.76	65.98
663.089	65.97
663.418	65.96
663.747	65.97
664.076	66.02
664.404	66.01
664.733	65.79
665.062	65.79
665.39	65.64
665.719	65.65
666.048	65.57
666.376	65.54
666.705	65.63
667.033	65.74
667.362	65.7
667.69	65.83
668.018	65.73
668.347	65.87
668.675	65.89
669.003	65.98
669.331	66.04
669.659	65.96
669.987	66.02
670.315	66.14
670.643	66.22
670.971	66.16
671.299	66.11
671.627	66.23
671.955	66.42
672.283	66.52
672.61	66.53
672.938	66.62
673.266	66.65
673.593	66.47
673.921	66.42
674.249	66.57
674.576	66.53
674.904	66.49
675.231	66.43
675.558	66.39
675.886	66.37
676.213	66.36
676.54	66.35
676.867	66.36
677.195	66.24
677.522	66.16
677.849	66.17
678.176	66.16
678.503	66.21
678.83	66.14
679.157	66.16
679.484	66.21
679.81	66.25
680.137	66.35
680.464	66.47
680.791	66.44
681.117	66.37
681.444	66.39
681.771	66.53
682.097	66.55
682.424	66.61
682.75	66.56
683.077	66.55
683.403	66.66
683.729	66.63
684.056	66.75
684.382	67.01
684.708	67.02
685.034	67.19
685.36	67.22
685.686	67.25
686.012	67.29
686.339	67.29
686.664	67.36
686.99	67.3
687.316	67.4
687.642	67.57
687.968	67.41
688.294	67.46
688.619	67.38
688.945	67.19
689.271	67.15
689.596	67.19
689.922	67.14
690.247	67.06
690.573	67.1
690.898	67.18
691.224	67.05
691.549	67.08
691.874	66.88
692.2	67.01
692.525	66.98
692.85	67.13
693.175	67.07
693.5	66.89
693.825	67.07
694.15	67.12
694.475	67.05
694.8	67.16
695.125	67.13
695.45	67.1
695.775	67.26
696.099	67.41
696.424	67.31
696.749	67.28
697.073	67.44
697.398	67.47
697.723	67.31
698.047	67.31
698.372	67.2
698.696	67.3
699.02	67.23
699.345	67.17
699.669	66.97
699.993	66.84
700.318	66.88
700.642	66.79
700.966	66.77
701.29	66.69
701.614	66.74
701.938	66.57
702.262	66.78
702.586	66.65
702.91	66.46
703.234	66.55
703.557	66.53
703.881	66.46
704.205	66.32
704.529	66.43
704.852	66.36
705.176	66.29
705.499	66.33
705.823	66.2
706.146	66.18
706.47	66.11
706.793	66.38
707.117	66.41
707.44	66.33
707.763	66.14
708.086	66.24
708.409	66.09
708.733	66.3
709.056	66.01
709.379	66.22
709.702	66.4
710.025	66.49
710.348	66.62
710.671	66.62
710.993	66.9
711.316	66.88
711.639	66.82
711.962	67.19
712.284	67.2
712.607	67.31
712.93	67.36
713.252	67.54
713.575	67.39
713.897	67.58
714.22	67.57
714.542	67.86
714.864	67.72
715.187	67.99
715.509	67.88
715.831	67.95
716.153	67.93
716.475	67.9
716.798	67.77
717.12	67.61
717.442	67.73
717.764	67.41
718.085	67.29
718.407	67.21
718.729	67.06
719.051	67.03
719.373	67.01
719.695	66.89
720.016	66.77
720.338	67.2
720.659	66.96
720.981	67.06
721.302	66.7
721.624	66.74
721.945	66.47
722.267	66.67
722.588	66.75
722.909	66.87
723.231	66.83
723.552	67
723.873	67.33
724.194	67.18
724.515	67.37
724.836	67.4
725.157	67.61
725.478	67.78
725.799	67.92
726.12	67.94
726.441	68.04
726.762	68
727.083	67.82
727.403	67.83
727.724	68
728.045	68
728.365	68.04
728.686	68.17
729.006	67.93
729.327	68
729.647	67.61
729.967	67.55
730.288	67.29
730.608	66.88
730.928	67.08
731.249	66.91
731.569	66.87
731.889	67.04
732.209	66.72
732.529	66.67
732.849	66.62
733.169	66.68
733.489	66.56
733.809	66.53
734.129	66.75
734.448	66.46
734.768	66.43
735.088	66.36
735.408	66.24
735.727	66.33
736.047	66.45
736.366	66.81
736.686	66.74
737.005	66.96
737.325	67.28
737.644	66.93
737.963	67.01
738.283	67.18
738.602	66.98
738.921	67.31
739.24	67.02
739.56	66.91
739.879	66.98
740.198	67.49
740.517	67.36
740.836	67.23
741.155	67.45
741.473	67.69
741.792	67.75
742.111	67.81
742.43	67.75
742.748	67.34
743.067	67.23
743.386	67.25
743.704	67.14
744.023	67.01
744.341	67.07
744.66	67.28
744.978	67.23
745.297	67.36
745.615	67.25
745.933	67.45
746.252	67.72
746.57	67.57
746.888	67.08
747.206	67.14
747.524	66.9
747.842	66.86
748.16	66.71
748.478	66.92
748.796	66.86
749.114	66.85
749.432	66.98
749.749	66.84
750.067	67.13
750.385	67.2
750.703	67.29
751.02	67.41
751.338	67.33
751.655	67.55
751.973	67.71
752.29	67.65
752.608	67.73
752.925	67.48
753.242	67.44
753.56	67.79
753.877	67.62
754.194	67.69
754.511	67.52
754.828	67.56
755.145	67.28
755.462	67.45
755.779	67.7
756.096	67.67
756.413	67.8
756.73	67.67
757.047	67.72
757.364	67.77
757.68	67.53
757.997	67.67
758.314	67.33
758.63	67
758.947	66.84
759.264	66.81
759.58	67.08
759.896	67.25
760.213	67.31
760.529	67.29
760.846	67.66
761.162	67.66
761.478	67.88
761.794	68.1
762.11	68.25
762.426	68.25
762.743	68.64
763.059	68.67
763.375	68.63
763.69	68.65
764.006	68.73
764.322	69
764.638	68.95
764.954	69.18
765.27	69.11
765.585	69.34
765.901	69.45
766.216	69.43
766.532	69.35
766.848	69.23
767.163	69.39
767.478	69.14
767.794	69.33
768.109	69.17
768.424	69.27
768.74	69.14
769.055	69.18
769.37	68.87
769.685	68.61
770	68.63
770.315	68.41
770.63	68.16
770.945	68.3
771.26	68.41
771.575	68.6
771.89	68.95
772.205	68.79
772.52	68.89
772.834	68.96
773.149	69.14
773.464	69.59
773.778	69.57
774.093	69.46
774.407	69.71
774.722	69.56
775.036	69.41
775.351	69.64
775.665	69.11
775.979	69.11
776.293	69.19
776.608	69.6
776.922	69.93
777.236	69.83
777.55	69.44
777.864	68.99
778.178	68.76
778.492	68.94
778.806	68.75
779.12	68.69
779.434	68.99
779.747	68.82
780.061	68.04
780.375	68.2
780.689	68.64
781.002	68.55
781.316	68.32
781.629	68.39
781.943	67.89
782.256	68.33
782.57	68.09
782.883	68.62
783.196	67.82
783.51	67.47
783.823	67.14
784.136	67.17
784.449	67.66
784.762	67.39
785.075	67.31
785.388	67.76
785.701	67.53
786.014	67.23
786.327	66.79
786.64	67.16
786.953	67.26
787.266	66.79
787.578	66.44
787.891	66.91
788.204	66.4
788.516	66.67
788.829	66.69
789.141	67.11
789.454	66.78
789.766	66.96
790.079	67.34
790.391	67.96
790.703	67.92
791.016	67.91
791.328	67.92
791.64	67.77
791.952	67.1
792.264	67.16
792.576	67
792.888	67.67
793.2	67.73
793.512	67.5
793.824	68.07
794.136	68.01
794.448	67.57
794.76	68.5
795.071	68.09
795.383	68.11
795.695	67.93
796.006	68.16
796.318	68.4
796.629	68.29
796.941	67.91
797.252	68.39
797.564	68.32
797.875	68.25
798.186	67.87
798.497	68.43
798.809	68.59
799.12	68.92
799.431	69.29
799.742	69.79
800.053	70.05
800.364	69.72
800.675	69.86
800.986	70.33
801.297	69.89
801.608	70.18
801.918	70.58
802.229	70.82
802.54	71.1
802.851	70.76
803.161	71.23
803.472	71.66
803.782	71.12
804.093	71.04
804.403	70.89
804.714	71.35
805.024	70.84
805.334	71.1
805.645	70.96
805.955	70.49
806.265	69.67
806.575	69.46
806.885	69.36
807.195	69.56
807.505	69.91
807.815	69.8
808.125	69.97
808.435	69.39
808.745	68.92
809.055	68.72
809.365	68.66
809.674	67.91
809.984	68.22
810.294	68.61
810.603	68.71
810.913	69.08
811.222	69.12
811.532	70.16
811.841	69.59
812.151	69.55
812.46	69.65
812.769	69.48
813.079	69.69
813.388	69.89
813.697	70.3
814.006	70.21
814.315	70.53
814.624	70.85
814.933	71.39
815.242	70.97
815.551	70.74
815.86	71.39
816.169	71.75
816.478	71.15
816.786	70.95
817.095	70.19
817.404	71.05
817.712	71.13
818.021	69.98
818.33	70.2
818.638	69.86
818.947	69.95
819.255	70.38
819.563	70.57
819.872	71.05
820.18	70.72
820.488	70.87
820.796	70.82
821.105	70.96
821.413	71.1
821.721	71.2
822.029	71.17
822.337	71.19
822.645	71.29
822.953	71.29
823.26	71.34
823.568	71.68
823.876	71.37
824.184	71.37
824.491	71.59
824.799	71.57
825.107	71.71
825.414	71.71
825.722	71.91
826.029	72.01
826.337	71.6
826.644	71.8
826.951	71.58
827.259	71.56
827.566	71.09
827.873	70.84
828.18	70.7
828.488	70.83
828.795	70.83
829.102	70.82
829.409	71.36
829.716	71.21
830.023	71.04
830.329	71.15
830.636	71.02
830.943	70.91
831.25	70.56
831.557	70.66
831.863	71.01
832.17	70.52
832.476	69.94
832.783	70.86
833.089	70.72
833.396	71.13
833.702	71.1
834.009	71.6
834.315	72.11
834.621	71.97
834.928	71.84
835.234	71.52
835.54	71.13
835.846	70.45
836.152	70.41
836.458	70.35
836.764	70.94
837.07	70.63
837.376	70.41
837.682	71.05
837.988	70.49
838.293	70.21
838.599	69.99
838.905	70.13
839.211	69.1
839.516	68.58
839.822	68.1
840.127	68.29
840.433	69.19
840.738	68.52
841.044	69.22
841.349	69.27
841.654	68.8
841.959	69.04
842.265	69.4
842.57	70.26
842.875	70.04
843.18	68.67
843.485	69.84
843.79	69.45
844.095	67.92
844.4	69.03
844.705	67.92
845.01	68.95
845.315	68.21
845.619	68.32
845.924	68.66
846.229	68.66
846.533	67.13
846.838	64.99
847.142	65.36
847.447	64.35
847.751	63.11
848.056	63.42
848.36	62.02
848.664	61.27
848.969	60.26
849.273	57.89
849.577	57.87
849.881	57.48
850.185	58.81
850.489	60.94
850.794	60.84
851.097	59.07
851.401	57.11
851.705	57.03
852.009	57.52
852.313	58.21
852.617	57.93
852.92	60.52
853.224	60.05
853.528	59.55
853.831	60.03
854.135	61.08
854.438	59.93
854.742	59.76
855.045	58.64
855.349	57.84
855.652	59.95
855.955	60.38
856.259	59.51
856.562	59.75
856.865	59.65
857.168	59.03
857.471	60.37
857.774	62.86
858.077	62.45
858.38	61.01
858.683	60.84
858.986	61.28
859.289	58.76
859.592	61.59
859.894	59.65
860.197	59.06
860.5	58.94
860.802	62.17
861.105	62.67
861.407	63.66
861.71	62.96
862.012	62.89
862.315	62.33
862.617	61.31
862.919	61.48
863.222	58.78
863.524	59.09
863.826	61.53
864.128	61.17
864.43	62.03
864.732	65.25
865.034	63.75
865.336	63.43
865.638	65.83
865.94	63.74
866.242	65.06
866.544	68.25
866.846	66.77
867.147	65.1
867.449	67.08
867.751	67.02
868.052	69.69
868.354	69.31
868.655	68.63
868.957	71.75
869.258	67.58
869.56	72.02
869.861	70.93
870.162	71.34
870.463	71.5
870.765	70.49
871.066	65.75
871.367	64.3
871.668	63.9
871.969	62.31
872.27	62.63
872.571	63.29
872.872	61.05
873.173	61.09
873.473	61.31
873.774	64
874.075	64.68
874.376	62.55
874.676	64.36
874.977	65.23
875.277	63.07
875.578	66.53
875.878	64.94
876.179	65.32
876.479	63.57
876.78	62.21
877.08	64.2
877.38	67.53
877.68	70.97
877.981	72.22
878.281	74.36
878.581	74.16
