Data from BA28524_Reflection_00007.txt Node
Date: Tue Nov 19 11:49:46 EST 2019
User: vgr7
Spectrometer: USB2G7710
Scans to average: 3
Trigger mode: 4
Integration Time (sec): 2.000000E-2
Electric dark correction enabled: true
Boxcar width: 10
XAxis mode: Wavelengths
Number of Pixels in Spectrum: 2048
>>>>>Begin Spectral Data<<<<<
177.721	-238.03
178.105	44.44
178.488	-144.9
178.871	100
179.254	-33.33
179.636	-328.57
180.019	-48.76
180.402	5.88
180.785	28
181.168	60.53
181.55	85.92
181.933	37.06
182.316	19.43
182.698	29.13
183.081	7.34
183.463	-90.84
183.846	-33.76
184.228	-50.68
184.611	-64.84
184.993	-122.22
185.376	-103.39
185.758	-81.82
186.14	500
186.522	-2233.33
186.904	500
187.287	5.66
187.669	-14.29
188.051	7.98
188.433	2.26
188.815	37.2
189.197	33.88
189.579	100
189.961	18.13
190.342	-3
190.724	-53.85
191.106	-27.6
191.488	-111.27
191.869	-64.61
192.251	-76.1
192.633	-30.65
193.014	-41.76
193.396	-74.13
193.777	-98.35
194.159	-63.84
194.54	-148.23
194.922	-110.76
195.303	-134.29
195.684	-230.58
196.065	-194.12
196.447	-504.65
196.828	-760.47
197.209	-137.41
197.59	-111.38
197.971	-244.26
198.352	-44.14
198.733	-68.83
199.114	-267.35
199.495	-64.84
199.876	-86.44
200.257	-26.76
200.638	-207.69
201.018	394.12
201.399	43.66
201.78	32.52
202.16	-10.34
202.541	-45.08
202.922	-179.07
203.302	295.12
203.683	-233.33
204.063	233.33
204.444	8.05
204.824	146.15
205.204	-28.21
205.585	-47.54
205.965	7.1
206.345	-101.06
206.725	-61.29
207.106	-17.87
207.486	-45.45
207.866	-50.21
208.246	-51.94
208.626	-77.12
209.006	-66.06
209.386	-112.56
209.766	-87.76
210.145	-87.74
210.525	-29.03
210.905	0.33
211.285	28.74
211.664	34.94
212.044	23.94
212.424	6.34
212.803	-3.45
213.183	-18.31
213.562	4.62
213.942	-19.78
214.321	-3.2
214.701	-21.34
215.08	-71.78
215.459	-11.91
215.838	-11.55
216.218	-40.22
216.597	-24.71
216.976	-24.18
217.355	-25.83
217.734	-33.14
218.113	-10.41
218.492	-45.2
218.871	-34.18
219.25	-40.72
219.629	-75.48
220.008	-80.91
220.387	-71.17
220.766	-52.99
221.144	-39.4
221.523	-51.9
221.902	-47.02
222.28	-35.85
222.659	-11.93
223.037	-7.82
223.416	-4.56
223.794	-3.37
224.173	-2.67
224.551	7.08
224.929	7.55
225.308	5.69
225.686	4.93
226.064	3.47
226.442	9.97
226.821	8.18
227.199	7.98
227.577	11.61
227.955	12.2
228.333	10.51
228.711	7.35
229.089	7.08
229.467	7.15
229.845	7.75
230.222	8.01
230.6	5.69
230.978	4.56
231.356	3.07
231.733	2.6
232.111	4.5
232.488	4.7
232.866	4.15
233.243	4.45
233.621	3.07
233.998	4.23
234.376	4.1
234.753	2.97
235.13	2.27
235.508	3.56
235.885	3.17
236.262	5.71
236.639	6.28
237.016	4.73
237.393	6.25
237.77	6.09
238.147	5.83
238.524	5.43
238.901	4.62
239.278	4.22
239.655	4.3
240.032	4.78
240.409	4.72
240.785	4.42
241.162	5.04
241.539	5.7
241.915	5.3
242.292	5.03
242.668	5.49
243.045	5.65
243.421	5.68
243.798	5.84
244.174	5.76
244.551	6.15
244.927	6.3
245.303	5.74
245.679	5.67
246.056	5.7
246.432	5.51
246.808	6.17
247.184	6.35
247.56	6.31
247.936	6.2
248.312	6.22
248.688	6.42
249.064	6.22
249.44	6
249.815	6.2
250.191	6.28
250.567	6.23
250.943	6.18
251.318	6.19
251.694	5.91
252.069	5.88
252.445	5.79
252.82	5.85
253.196	6.06
253.571	6.11
253.947	6.3
254.322	6.59
254.697	5.78
255.073	5.78
255.448	5.6
255.823	5.55
256.198	5.21
256.573	5.27
256.948	5.31
257.323	5.51
257.698	5.12
258.073	4.95
258.448	4.8
258.823	4.8
259.198	4.76
259.573	4.73
259.948	4.73
260.322	4.5
260.697	4.45
261.072	4.62
261.446	4.54
261.821	4.5
262.195	4.3
262.57	4.55
262.944	4.4
263.319	4.59
263.693	4.55
264.067	4.58
264.442	4.45
264.816	4.24
265.19	3.84
265.564	3.86
265.938	4
266.313	4.03
266.687	3.78
267.061	3.57
267.435	3.83
267.809	3.74
268.183	3.94
268.556	4
268.93	3.82
269.304	3.89
269.678	3.92
270.051	3.9
270.425	3.94
270.799	3.89
271.172	3.83
271.546	3.76
271.919	3.63
272.293	3.78
272.666	3.93
273.04	3.98
273.413	4.13
273.787	4.08
274.16	4.07
274.533	4.23
274.906	4.18
275.279	3.96
275.653	4.04
276.026	3.89
276.399	3.8
276.772	3.83
277.145	3.78
277.518	3.79
277.891	4.06
278.263	4.01
278.636	4.05
279.009	4.17
279.382	4.19
279.755	4.43
280.127	4.39
280.5	4.42
280.872	4.66
281.245	4.55
281.617	4.82
281.99	4.87
282.362	4.93
282.735	5.25
283.107	5.32
283.479	5.18
283.852	5.29
284.224	5.49
284.596	5.51
284.968	5.46
285.34	5.51
285.713	5.6
286.085	5.51
286.457	5.45
286.829	5.37
287.201	5.34
287.572	5.39
287.944	5.38
288.316	5.33
288.688	5.23
289.06	5.28
289.431	5.2
289.803	5.28
290.175	5.24
290.546	5.13
290.918	5.19
291.289	5.21
291.661	5.17
292.032	5.11
292.403	5.07
292.775	5.09
293.146	5.21
293.517	5.13
293.889	5.19
294.26	5.37
294.631	5.25
295.002	5.38
295.373	5.37
295.744	5.35
296.115	5.4
296.486	5.56
296.857	5.66
297.228	5.48
297.599	5.38
297.97	5.48
298.34	5.59
298.711	5.57
299.082	5.63
299.452	5.63
299.823	5.58
300.194	5.73
300.564	5.81
300.935	5.74
301.305	5.65
301.676	5.76
302.046	5.69
302.416	5.9
302.787	5.95
303.157	5.83
303.527	6.07
303.897	6.03
304.267	5.92
304.637	5.99
305.008	6.13
305.378	6.39
305.748	6.46
306.117	6.36
306.487	6.67
306.857	6.97
307.227	7.2
307.597	7.21
307.967	7.2
308.336	7.25
308.706	7.24
309.076	7.5
309.445	7.47
309.815	7.65
310.184	7.8
310.554	7.66
310.923	7.78
311.293	7.7
311.662	7.81
312.031	7.91
312.401	7.73
312.77	7.83
313.139	7.65
313.508	7.66
313.877	7.79
314.246	7.73
314.616	7.5
314.985	7.48
315.353	7.53
315.722	7.64
316.091	7.82
316.46	7.94
316.829	8
317.198	8.17
317.567	8.25
317.935	8.1
318.304	8.52
318.672	8.63
319.041	8.76
319.41	8.64
319.778	8.67
320.147	9.06
320.515	8.95
320.883	9.04
321.252	9.11
321.62	9.06
321.988	9.02
322.357	9
322.725	8.89
323.093	8.95
323.461	8.83
323.829	8.7
324.197	8.64
324.565	8.53
324.933	8.38
325.301	8.18
325.669	8.17
326.037	8.09
326.405	8.16
326.772	8.21
327.14	8.28
327.508	8.31
327.875	8.09
328.243	8.25
328.61	8.22
328.978	8.16
329.346	8.25
329.713	8.38
330.08	8.58
330.448	8.59
330.815	8.47
331.182	8.47
331.55	8.55
331.917	8.55
332.284	8.45
332.651	8.55
333.018	8.63
333.385	8.64
333.752	8.61
334.119	8.59
334.486	8.35
334.853	8.32
335.22	8.23
335.587	8.29
335.954	8.17
336.32	8.13
336.687	8.24
337.054	8.11
337.42	7.92
337.787	7.85
338.153	7.91
338.52	8.11
338.886	8.2
339.253	8.1
339.619	8.13
339.986	8.21
340.352	8.25
340.718	8.27
341.084	8.38
341.451	8.41
341.817	8.48
342.183	8.54
342.549	8.54
342.915	8.57
343.281	8.61
343.647	8.72
344.013	8.8
344.379	8.63
344.745	8.75
345.11	8.77
345.476	8.77
345.842	8.76
346.208	8.67
346.573	8.55
346.939	8.58
347.304	8.53
347.67	8.54
348.035	8.41
348.401	8.41
348.766	8.31
349.132	8.29
349.497	8.21
349.862	8.2
350.228	8.25
350.593	8.31
350.958	8.27
351.323	8.19
351.688	8.19
352.053	8.2
352.418	8.14
352.783	8.06
353.148	8.05
353.513	7.99
353.878	8.08
354.243	8.1
354.608	8.07
354.972	8.04
355.337	7.99
355.702	8.07
356.066	8.03
356.431	8.05
356.795	7.99
357.16	7.98
357.524	7.95
357.889	7.91
358.253	7.78
358.618	7.77
358.982	7.75
359.346	7.74
359.71	7.79
360.075	7.79
360.439	7.87
360.803	7.87
361.167	7.88
361.531	7.82
361.895	7.68
362.259	7.7
362.623	7.71
362.987	7.68
363.351	7.59
363.714	7.58
364.078	7.52
364.442	7.51
364.806	7.58
365.169	7.62
365.533	7.57
365.896	7.69
366.26	7.7
366.623	7.65
366.987	7.66
367.35	7.61
367.714	7.59
368.077	7.58
368.44	7.56
368.803	7.53
369.167	7.35
369.53	7.5
369.893	7.48
370.256	7.43
370.619	7.39
370.982	7.38
371.345	7.43
371.708	7.44
372.071	7.37
372.434	7.16
372.797	7.06
373.159	6.98
373.522	6.82
373.885	6.79
374.247	6.73
374.61	6.64
374.973	6.51
375.335	6.46
375.698	6.36
376.06	6.28
376.423	6.3
376.785	6.37
377.147	6.25
377.51	6.16
377.872	6.05
378.234	6.06
378.596	6.03
378.958	5.95
379.321	5.88
379.683	5.92
380.045	5.93
380.407	5.93
380.769	5.97
381.13	5.97
381.492	5.96
381.854	5.97
382.216	6.01
382.578	6.02
382.939	5.92
383.301	5.86
383.663	5.79
384.024	5.68
384.386	5.65
384.747	5.58
385.109	5.56
385.47	5.53
385.832	5.5
386.193	5.5
386.554	5.41
386.916	5.43
387.277	5.37
387.638	5.36
387.999	5.37
388.36	5.36
388.721	5.34
389.082	5.28
389.443	5.27
389.804	5.22
390.165	5.24
390.526	5.25
390.887	5.29
391.248	5.3
391.609	5.33
391.969	5.33
392.33	5.34
392.691	5.35
393.051	5.38
393.412	5.35
393.772	5.39
394.133	5.39
394.493	5.31
394.854	5.27
395.214	5.27
395.574	5.22
395.935	5.17
396.295	5.16
396.655	5.13
397.015	5.13
397.376	5.1
397.736	5.07
398.096	5.05
398.456	5.03
398.816	5.01
399.176	4.99
399.535	4.91
399.895	4.93
400.255	4.92
400.615	4.87
400.975	4.91
401.334	4.83
401.694	4.83
402.054	4.82
402.413	4.81
402.773	4.76
403.132	4.73
403.492	4.69
403.851	4.68
404.211	4.67
404.57	4.63
404.929	4.62
405.288	4.64
405.648	4.66
406.007	4.64
406.366	4.63
406.725	4.62
407.084	4.66
407.443	4.62
407.802	4.58
408.161	4.61
408.52	4.57
408.879	4.55
409.238	4.54
409.596	4.56
409.955	4.56
410.314	4.55
410.673	4.55
411.031	4.57
411.39	4.56
411.748	4.56
412.107	4.54
412.465	4.54
412.824	4.49
413.182	4.46
413.54	4.41
413.899	4.39
414.257	4.39
414.615	4.35
414.974	4.36
415.332	4.38
415.69	4.38
416.048	4.35
416.406	4.32
416.764	4.3
417.122	4.28
417.48	4.28
417.838	4.3
418.195	4.29
418.553	4.3
418.911	4.27
419.269	4.25
419.626	4.23
419.984	4.21
420.342	4.23
420.699	4.2
421.057	4.19
421.414	4.2
421.772	4.18
422.129	4.16
422.486	4.16
422.844	4.14
423.201	4.13
423.558	4.15
423.915	4.17
424.273	4.17
424.63	4.18
424.987	4.18
425.344	4.17
425.701	4.17
426.058	4.16
426.415	4.16
426.772	4.19
427.128	4.19
427.485	4.19
427.842	4.17
428.199	4.18
428.555	4.18
428.912	4.17
429.269	4.17
429.625	4.18
429.982	4.18
430.338	4.18
430.695	4.16
431.051	4.15
431.407	4.12
431.764	4.11
432.12	4.09
432.476	4.07
432.832	4.06
433.189	4.05
433.545	4.05
433.901	4.06
434.257	4.02
434.613	4.02
434.969	4.02
435.325	4.02
435.681	4.02
436.036	4.04
436.392	4.04
436.748	4.05
437.104	4.06
437.459	4.06
437.815	4.05
438.171	4.06
438.526	4.07
438.882	4.07
439.237	4.05
439.593	4.05
439.948	4.04
440.304	4.01
440.659	4.03
441.014	4
441.369	3.97
441.725	3.98
442.08	3.99
442.435	3.98
442.79	3.98
443.145	3.98
443.5	3.97
443.855	3.96
444.21	3.95
444.565	3.94
444.92	3.94
445.275	3.93
445.629	3.93
445.984	3.91
446.339	3.91
446.693	3.92
447.048	3.89
447.403	3.91
447.757	3.93
448.112	3.91
448.466	3.92
448.82	3.93
449.175	3.94
449.529	3.91
449.883	3.9
450.238	3.9
450.592	3.89
450.946	3.88
451.3	3.88
451.654	3.88
452.008	3.88
452.362	3.86
452.716	3.85
453.07	3.82
453.424	3.81
453.778	3.83
454.132	3.81
454.486	3.84
454.839	3.83
455.193	3.82
455.547	3.84
455.9	3.85
456.254	3.85
456.607	3.85
456.961	3.87
457.314	3.89
457.668	3.87
458.021	3.89
458.375	3.89
458.728	3.89
459.081	3.91
459.434	3.91
459.787	3.94
460.141	3.95
460.494	3.98
460.847	3.97
461.2	3.96
461.553	3.97
461.906	3.97
462.259	3.96
462.611	3.97
462.964	3.98
463.317	3.97
463.67	4
464.022	4
464.375	4.02
464.728	4.03
465.08	4.05
465.433	4.05
465.785	4.07
466.138	4.1
466.49	4.1
466.843	4.1
467.195	4.09
467.547	4.1
467.899	4.1
468.252	4.13
468.604	4.15
468.956	4.17
469.308	4.16
469.66	4.17
470.012	4.17
470.364	4.16
470.716	4.18
471.068	4.15
471.42	4.15
471.772	4.16
472.123	4.17
472.475	4.15
472.827	4.17
473.178	4.14
473.53	4.12
473.882	4.12
474.233	4.12
474.585	4.1
474.936	4.11
475.288	4.11
475.639	4.09
475.99	4.06
476.342	4.07
476.693	4.07
477.044	4.08
477.395	4.07
477.746	4.08
478.097	4.07
478.448	4.07
478.8	4.07
479.15	4.05
479.501	4.05
479.852	4.06
480.203	4.05
480.554	4.06
480.905	4.06
481.255	4.05
481.606	4.05
481.957	4.06
482.307	4.05
482.658	4.06
483.009	4.07
483.359	4.07
483.709	4.08
484.06	4.08
484.41	4.08
484.761	4.09
485.111	4.09
485.461	4.09
485.811	4.1
486.162	4.11
486.512	4.11
486.862	4.12
487.212	4.12
487.562	4.12
487.912	4.12
488.262	4.13
488.612	4.13
488.961	4.14
489.311	4.15
489.661	4.16
490.011	4.16
490.36	4.16
490.71	4.19
491.06	4.19
491.409	4.2
491.759	4.2
492.108	4.21
492.458	4.23
492.807	4.22
493.157	4.24
493.506	4.26
493.855	4.26
494.204	4.27
494.554	4.29
494.903	4.3
495.252	4.32
495.601	4.34
495.95	4.38
496.299	4.4
496.648	4.43
496.997	4.47
497.346	4.5
497.695	4.51
498.043	4.51
498.392	4.53
498.741	4.57
499.09	4.6
499.438	4.62
499.787	4.62
500.135	4.67
500.484	4.68
500.832	4.69
501.181	4.73
501.529	4.77
501.878	4.81
502.226	4.86
502.574	4.89
502.923	4.91
503.271	4.93
503.619	4.94
503.967	4.95
504.315	4.98
504.663	5.01
505.011	5.04
505.359	5.07
505.707	5.12
506.055	5.15
506.403	5.19
506.751	5.23
507.098	5.29
507.446	5.33
507.794	5.38
508.141	5.44
508.489	5.47
508.837	5.52
509.184	5.58
509.531	5.61
509.879	5.64
510.226	5.69
510.574	5.74
510.921	5.8
511.268	5.86
511.616	5.91
511.963	5.96
512.31	6.03
512.657	6.07
513.004	6.1
513.351	6.16
513.698	6.23
514.045	6.28
514.392	6.37
514.739	6.45
515.086	6.52
515.432	6.59
515.779	6.65
516.126	6.72
516.473	6.79
516.819	6.85
517.166	6.93
517.512	6.99
517.859	7.04
518.205	7.11
518.552	7.18
518.898	7.24
519.245	7.31
519.591	7.36
519.937	7.43
520.283	7.53
520.629	7.6
520.976	7.65
521.322	7.75
521.668	7.81
522.014	7.89
522.36	7.96
522.706	8.06
523.052	8.16
523.398	8.24
523.743	8.33
524.089	8.46
524.435	8.54
524.781	8.67
525.126	8.76
525.472	8.88
525.817	8.96
526.163	9.03
526.509	9.1
526.854	9.19
527.199	9.27
527.545	9.33
527.89	9.42
528.235	9.51
528.581	9.58
528.926	9.67
529.271	9.74
529.616	9.83
529.961	9.91
530.306	10.01
530.651	10.11
530.996	10.2
531.341	10.31
531.686	10.43
532.031	10.54
532.376	10.69
532.721	10.8
533.065	10.92
533.41	11.04
533.755	11.2
534.099	11.33
534.444	11.48
534.788	11.62
535.133	11.73
535.477	11.9
535.822	12.04
536.166	12.19
536.51	12.38
536.855	12.56
537.199	12.75
537.543	12.97
537.887	13.19
538.231	13.41
538.576	13.6
538.92	13.83
539.264	14
539.608	14.17
539.951	14.34
540.295	14.54
540.639	14.71
540.983	14.87
541.327	15.05
541.671	15.19
542.014	15.38
542.358	15.55
542.701	15.68
543.045	15.87
543.389	16.05
543.732	16.22
544.075	16.42
544.419	16.63
544.762	16.81
545.105	17.02
545.449	17.21
545.792	17.45
546.135	17.65
546.478	17.91
546.821	18.17
547.165	18.42
547.508	18.68
547.851	18.97
548.194	19.24
548.536	19.49
548.879	19.8
549.222	20.06
549.565	20.33
549.908	20.64
550.25	20.95
550.593	21.28
550.936	21.59
551.278	21.89
551.621	22.18
551.963	22.49
552.306	22.76
552.648	23.1
552.991	23.38
553.333	23.65
553.675	23.9
554.017	24.15
554.36	24.53
554.702	24.78
555.044	25.07
555.386	25.36
555.728	25.69
556.07	25.96
556.412	26.26
556.754	26.64
557.096	26.98
557.438	27.23
557.78	27.42
558.121	27.68
558.463	27.97
558.805	28.26
559.147	28.55
559.488	28.87
559.83	29.13
560.171	29.33
560.513	29.62
560.854	29.98
561.196	30.25
561.537	30.5
561.878	30.79
562.22	31.07
562.561	31.36
562.902	31.6
563.243	31.9
563.584	32.14
563.925	32.38
564.266	32.57
564.607	32.86
564.948	33.16
565.289	33.4
565.63	33.6
565.971	33.82
566.312	34.06
566.653	34.29
566.993	34.53
567.334	34.83
567.675	35.07
568.015	35.27
568.356	35.49
568.696	35.72
569.037	35.89
569.377	36.07
569.718	36.27
570.058	36.48
570.398	36.69
570.739	36.88
571.079	37.05
571.419	37.28
571.759	37.44
572.099	37.64
572.439	37.83
572.779	38.03
573.119	38.22
573.459	38.37
573.799	38.51
574.139	38.64
574.479	38.82
574.819	38.97
575.158	39.15
575.498	39.38
575.838	39.5
576.177	39.69
576.517	39.86
576.856	40.04
577.196	40.24
577.535	40.33
577.875	40.53
578.214	40.74
578.553	40.87
578.893	41.11
579.232	41.34
579.571	41.5
579.91	41.68
580.25	41.75
580.589	41.94
580.928	42.2
581.267	42.44
581.606	42.61
581.945	42.75
582.283	42.9
582.622	43.04
582.961	43.22
583.3	43.33
583.639	43.5
583.977	43.64
584.316	43.78
584.654	43.97
584.993	44.1
585.332	44.17
585.67	44.31
586.008	44.32
586.347	44.43
586.685	44.55
587.024	44.68
587.362	44.87
587.7	44.95
588.038	44.92
588.376	44.98
588.715	45.07
589.053	45.17
589.391	45.24
589.729	45.3
590.067	45.38
590.404	45.56
590.742	45.67
591.08	45.72
591.418	45.87
591.756	46.02
592.093	46.2
592.431	46.39
592.769	46.47
593.106	46.66
593.444	46.73
593.781	46.89
594.119	46.97
594.456	47.11
594.793	47.23
595.131	47.45
595.468	47.54
595.805	47.55
596.143	47.62
596.48	47.66
596.817	47.8
597.154	47.9
597.491	47.97
597.828	48.02
598.165	48.11
598.502	48.17
598.839	48.21
599.176	48.24
599.512	48.28
599.849	48.38
600.186	48.47
600.523	48.48
600.859	48.53
601.196	48.59
601.532	48.66
601.869	48.7
602.205	48.73
602.542	48.83
602.878	49.04
603.215	49.18
603.551	49.21
603.887	49.18
604.223	49.28
604.56	49.31
604.896	49.45
605.232	49.52
605.568	49.56
605.904	49.58
606.24	49.66
606.576	49.74
606.912	49.8
607.248	49.83
607.583	49.89
607.919	49.95
608.255	50.08
608.591	50.14
608.926	50.15
609.262	50.14
609.597	50.23
609.933	50.17
610.268	50.24
610.604	50.36
610.939	50.48
611.275	50.43
611.61	50.5
611.945	50.49
612.281	50.57
612.616	50.62
612.951	50.64
613.286	50.67
613.621	50.73
613.956	50.83
614.291	50.93
614.626	51.07
614.961	51.07
615.296	51.06
615.631	51.04
615.966	51.16
616.3	51.27
616.635	51.18
616.97	51.32
617.304	51.24
617.639	51.24
617.973	51.23
618.308	51.31
618.642	51.36
618.977	51.28
619.311	51.29
619.646	51.32
619.98	51.47
620.314	51.54
620.648	51.52
620.983	51.43
621.317	51.39
621.651	51.41
621.985	51.52
622.319	51.59
622.653	51.63
622.987	51.62
623.321	51.63
623.655	51.74
623.988	51.65
624.322	51.77
624.656	51.74
624.99	51.85
625.323	51.83
625.657	51.83
625.99	51.92
626.324	52
626.657	52.04
626.991	52.08
627.324	52.11
627.658	52.12
627.991	52.21
628.324	52.24
628.657	52.25
628.991	52.3
629.324	52.31
629.657	52.34
629.99	52.4
630.323	52.29
630.656	52.22
630.989	52.33
631.322	52.35
631.655	52.46
631.987	52.46
632.32	52.51
632.653	52.59
632.986	52.59
633.318	52.63
633.651	52.63
633.984	52.66
634.316	52.62
634.649	52.59
634.981	52.65
635.313	52.63
635.646	52.62
635.978	52.61
636.31	52.61
636.643	52.6
636.975	52.68
637.307	52.92
637.639	52.99
637.971	53
638.303	52.83
638.635	52.9
638.967	52.88
639.299	52.89
639.631	52.71
639.963	52.7
640.295	52.64
640.626	52.71
640.958	52.7
641.29	52.78
641.621	52.84
641.953	52.7
642.285	52.74
642.616	52.81
642.948	52.79
643.279	52.74
643.61	52.75
643.942	52.77
644.273	52.73
644.604	52.88
644.936	52.74
645.267	52.88
645.598	52.93
645.929	52.79
646.26	52.75
646.591	53.03
646.922	53.18
647.253	53.18
647.584	53.12
647.915	53.11
648.245	53.1
648.576	53.17
648.907	53.33
649.238	53.35
649.568	53.42
649.899	53.4
650.229	53.47
650.56	53.58
650.89	53.58
651.221	53.55
651.551	53.4
651.882	53.56
652.212	53.7
652.542	53.68
652.872	53.83
653.203	53.92
653.533	53.91
653.863	53.92
654.193	53.9
654.523	53.81
654.853	53.88
655.183	53.87
655.513	53.83
655.843	53.76
656.172	53.79
656.502	53.69
656.832	53.72
657.162	53.73
657.491	53.58
657.821	53.63
658.15	53.66
658.48	53.73
658.809	53.78
659.139	53.74
659.468	53.72
659.798	53.71
660.127	53.72
660.456	53.74
660.785	53.72
661.115	53.73
661.444	53.83
661.773	53.79
662.102	53.83
662.431	53.83
662.76	53.88
663.089	53.95
663.418	54
663.747	54.06
664.076	54.1
664.404	54.22
664.733	54.15
665.062	54.15
665.39	54.28
665.719	54.3
666.048	54.26
666.376	54.22
666.705	54.23
667.033	54.33
667.362	54.18
667.69	54.24
668.018	54.35
668.347	54.43
668.675	54.45
669.003	54.38
669.331	54.43
669.659	54.43
669.987	54.45
670.315	54.57
670.643	54.66
670.971	54.72
671.299	54.68
671.627	54.75
671.955	54.87
672.283	54.66
672.61	54.66
672.938	54.82
673.266	54.99
673.593	55.12
673.921	55.07
674.249	55.13
674.576	55.14
674.904	55.25
675.231	55.03
675.558	55.08
675.886	55.17
676.213	55.12
676.54	55.17
676.867	55.1
677.195	55
677.522	54.77
677.849	54.78
678.176	54.76
678.503	54.9
678.83	54.94
679.157	55.12
679.484	55.08
679.81	54.94
680.137	54.78
680.464	54.72
680.791	54.78
681.117	54.85
681.444	54.84
681.771	54.67
682.097	54.82
682.424	54.81
682.75	54.76
683.077	54.75
683.403	54.72
683.729	54.75
684.056	54.83
684.382	54.92
684.708	54.89
685.034	55.04
685.36	54.93
685.686	54.89
686.012	54.81
686.339	54.79
686.664	54.79
686.99	54.75
687.316	54.64
687.642	54.51
687.968	54.59
688.294	54.67
688.619	54.63
688.945	54.6
689.271	54.58
689.596	54.61
689.922	54.69
690.247	54.67
690.573	54.58
690.898	54.52
691.224	54.64
691.549	54.65
691.874	54.6
692.2	54.62
692.525	54.51
692.85	54.58
693.175	54.58
693.5	54.64
693.825	54.77
694.15	54.77
694.475	54.72
694.8	54.62
695.125	54.45
695.45	54.64
695.775	54.7
696.099	54.78
696.424	54.79
696.749	54.61
697.073	54.65
697.398	54.89
697.723	54.93
698.047	54.97
698.372	54.86
698.696	54.9
699.02	54.72
699.345	54.84
699.669	54.72
699.993	54.74
700.318	54.73
700.642	54.86
700.966	55.02
701.29	55.21
701.614	55.26
701.938	55.35
702.262	55.22
702.586	55.33
702.91	55.22
703.234	55.22
703.557	55.47
703.881	55.48
704.205	55.33
704.529	55.41
704.852	55.25
705.176	55.41
705.499	55.49
705.823	55.71
706.146	55.5
706.47	55.84
706.793	55.95
707.117	56.05
707.44	55.98
707.763	55.94
708.086	55.96
708.409	56.05
708.733	56.18
709.056	56.26
709.379	56.21
709.702	56.19
710.025	56.3
710.348	56.33
710.671	56.45
710.993	56.35
711.316	56.27
711.639	56.29
711.962	56.41
712.284	56.25
712.607	56.05
712.93	56.16
713.252	55.79
713.575	55.68
713.897	55.6
714.22	55.65
714.542	55.97
714.864	55.82
715.187	55.62
715.509	55.66
715.831	55.77
716.153	55.8
716.475	56.02
716.798	55.89
717.12	55.8
717.442	55.61
717.764	55.63
718.085	55.7
718.407	55.58
718.729	55.34
719.051	55.37
719.373	55.7
719.695	55.81
720.016	56
720.338	56.05
720.659	56.14
720.981	56.05
721.302	55.57
721.624	55.77
721.945	55.72
722.267	55.53
722.588	55.37
722.909	55.14
723.231	55.08
723.552	55.3
723.873	55.28
724.194	55.3
724.515	55.55
724.836	55.36
725.157	55.74
725.478	55.99
725.799	56.2
726.12	56
726.441	55.6
726.762	55.4
727.083	55.56
727.403	55.44
727.724	55.54
728.045	55.53
728.365	55.2
728.686	55.22
729.006	55.19
729.327	55.42
729.647	55.88
729.967	55.69
730.288	55.37
730.608	55.23
730.928	55.6
731.249	55.45
731.569	55.51
731.889	55.34
732.209	55.22
732.529	55.11
732.849	55.2
733.169	55.67
733.489	55.9
733.809	55.79
734.129	55.77
734.448	55.57
734.768	55.72
735.088	55.86
735.408	55.85
735.727	55.92
736.047	55.67
736.366	55.58
736.686	55.71
737.005	56
737.325	56.17
737.644	55.74
737.963	55.67
738.283	55.76
738.602	55.82
738.921	55.73
739.24	55.65
739.56	55.45
739.879	55.34
740.198	55.15
740.517	54.95
740.836	54.93
741.155	55.06
741.473	54.89
741.792	55.1
742.111	54.88
742.43	54.78
742.748	54.78
743.067	54.46
743.386	54.17
743.704	54.18
744.023	54.28
744.341	54.49
744.66	54.65
744.978	54.67
745.297	54.42
745.615	54.37
745.933	54.48
746.252	54.63
746.57	54.74
746.888	55.01
747.206	55.25
747.524	55.43
747.842	55.17
748.16	55.32
748.478	55.23
748.796	55.58
749.114	55.96
749.432	55.93
749.749	56.07
750.067	56.15
750.385	55.93
750.703	55.81
751.02	56
751.338	55.54
751.655	55.28
751.973	55.46
752.29	55.17
752.608	55.02
752.925	54.85
753.242	54.54
753.56	54.17
753.877	53.89
754.194	54.06
754.511	54.01
754.828	54.02
755.145	53.87
755.462	53.89
755.779	53.69
756.096	53.76
756.413	53.9
756.73	54.12
757.047	54.26
757.364	54.72
757.68	54.49
757.997	54.93
758.314	55.4
758.63	55.34
758.947	55.55
759.264	55.41
759.58	55.72
759.896	56.09
760.213	56.57
760.529	56.77
760.846	56.67
761.162	56.62
761.478	56.35
761.794	56.3
762.11	56.08
762.426	55.79
762.743	55.84
763.059	55.8
763.375	55.79
763.69	55.93
764.006	55.46
764.322	55.44
764.638	55.55
764.954	55.39
765.27	55.52
765.585	55.61
765.901	55.83
766.216	55.8
766.532	55.58
766.848	55.49
767.163	55.38
767.478	55.28
767.794	55.29
768.109	55.31
768.424	55.39
768.74	55.81
769.055	56.2
769.37	56.03
769.685	55.84
770	55.76
770.315	55.5
770.63	56.02
770.945	56.3
771.26	56.02
771.575	55.89
771.89	55.78
772.205	55.85
772.52	55.93
772.834	55.42
773.149	55.29
773.464	54.95
773.778	55.12
774.093	54.86
774.407	55.04
774.722	55.39
775.036	55.52
775.351	55.1
775.665	54.66
775.979	55.01
776.293	54.95
776.608	55.26
776.922	54.91
777.236	54.58
777.55	54.06
777.864	53.76
778.178	53.57
778.492	53.79
778.806	53.78
779.12	53.04
779.434	53.32
779.747	53.36
780.061	53.22
780.375	53.06
780.689	52.54
781.002	52.65
781.316	52.74
781.629	52.51
781.943	52.73
782.256	52.98
782.57	52.52
782.883	52.29
783.196	52.4
783.51	52.36
783.823	52.68
784.136	52.54
784.449	52.85
784.762	53.53
785.075	53.1
785.388	53.1
785.701	53.66
786.014	54
786.327	53.54
786.64	54.05
786.953	54.05
787.266	54.44
787.578	54.79
787.891	54.63
788.204	54.92
788.516	55.13
788.829	55
789.141	54.66
789.454	54.91
789.766	54.59
790.079	55.05
790.391	54.63
790.703	55.19
791.016	55.2
791.328	54.57
791.64	54.65
791.952	54.96
792.264	54.89
792.576	54.81
792.888	55.36
793.2	54.66
793.512	54.69
793.824	54.95
794.136	54.82
794.448	54.65
794.76	54.51
795.071	54.28
795.383	54.28
795.695	54.59
796.006	54.56
796.318	54.84
796.629	54.69
796.941	54.49
797.252	54.13
797.564	54.7
797.875	54.97
798.186	55.15
798.497	54.89
798.809	55.15
799.12	55.16
799.431	55.19
799.742	55.52
800.053	55.64
800.364	56.14
800.675	56.2
800.986	56.2
801.297	56.35
801.608	55.88
801.918	56.11
802.229	56.43
802.54	56.3
802.851	55.99
803.161	56.54
803.472	56.95
803.782	56.83
804.093	56.52
804.403	57.28
804.714	57.61
805.024	58.06
805.334	58.19
805.645	57.95
805.955	57.28
806.265	56.76
806.575	57.02
806.885	56.54
807.195	55.85
807.505	55.75
807.815	55.77
808.125	56.27
808.435	56.3
808.745	55.76
809.055	56.51
809.365	56.52
809.674	56.05
809.984	56.4
810.294	57.23
810.603	58.22
810.913	57.63
811.222	56.9
811.532	56.47
811.841	55.49
812.151	56.04
812.46	56.85
812.769	57.35
813.079	56.72
813.388	56.07
813.697	56.06
814.006	57.04
814.315	56.78
814.624	56.56
814.933	56.11
815.242	56.63
815.551	56.73
815.86	56.68
816.169	56.79
816.478	56.44
816.786	55.19
817.095	54.56
817.404	53.68
817.712	53.44
818.021	53.76
818.33	54.34
818.638	53.87
818.947	53.29
819.255	53.2
819.563	53.22
819.872	53.78
820.18	53.79
820.488	53.97
820.796	54.44
821.105	54.89
821.413	55.21
821.721	55.47
822.029	55.33
822.337	55.44
822.645	55.4
822.953	55.36
823.26	55.81
823.568	55.83
823.876	55.97
824.184	55.88
824.491	55.75
824.799	56.1
825.107	56.31
825.414	56.59
825.722	56.86
826.029	57.02
826.337	56.95
826.644	57.37
826.951	57.46
827.259	57.41
827.566	57.09
827.873	56.99
828.18	56.92
828.488	57.09
828.795	57.06
829.102	56.76
829.409	56.71
829.716	56.3
830.023	55.89
830.329	55.99
830.636	56.46
830.943	56.47
831.25	56.36
831.557	56.08
831.863	56.02
832.17	55.9
832.476	56.1
832.783	56.14
833.089	55.53
833.396	55.11
833.702	55.03
834.009	55.75
834.315	55.74
834.621	55.58
834.928	55.18
835.234	55.24
835.54	56.02
835.846	56.29
836.152	56.33
836.458	56.36
836.764	56.58
837.07	57.17
837.376	57.59
837.682	56.76
837.988	56.19
838.293	56.19
838.599	56.44
838.905	56.24
839.211	56
839.516	56.67
839.822	57.13
840.127	56.36
840.433	54.89
840.738	54.28
841.044	53.83
841.349	53.55
841.654	51.98
841.959	51.58
842.265	51.75
842.57	52.95
842.875	52.68
843.18	50.54
843.485	48.83
843.79	48.25
844.095	47.46
844.4	48.7
844.705	48.39
845.01	47.29
845.315	46.07
845.619	47.11
845.924	47.04
846.229	46.71
846.533	46.52
846.838	47.07
847.142	46.93
847.447	45.61
847.751	45.96
848.056	47.6
848.36	47.24
848.664	46.68
848.969	45.25
849.273	45.13
849.577	48.22
849.881	46.84
850.185	44.24
850.489	45.42
850.794	44.83
851.097	45.06
851.401	44.29
851.705	46.01
852.009	45.14
852.313	45.84
852.617	46.5
852.92	48.44
853.224	51.31
853.528	52.87
853.831	54.61
854.135	54.35
854.438	53.71
854.742	53.85
855.045	53.28
855.349	51.43
855.652	52.31
855.955	51.26
856.259	53.72
856.562	55.12
856.865	55.94
857.168	59.64
857.471	59.3
857.774	59.76
858.077	58.31
858.38	57.86
858.683	55.93
858.986	57.09
859.289	55.7
859.592	54.52
859.894	54.27
860.197	56.38
860.5	58.03
860.802	58.91
861.105	58.89
861.407	59.92
861.71	61.58
862.012	59.58
862.315	59.18
862.617	59.46
862.919	61.65
863.222	59.56
863.524	55.29
863.826	54.96
864.128	56.75
864.43	58.65
864.732	56.87
865.034	57.81
865.336	55.1
865.638	55.89
865.94	54.82
866.242	55.2
866.544	56.13
866.846	57.02
867.147	58.27
867.449	58.38
867.751	58.07
868.052	56.9
868.354	58.14
868.655	59.4
868.957	57.04
869.258	56.39
869.56	58.91
869.861	57.69
870.162	58.91
870.463	58.9
870.765	58.36
871.066	62.08
871.367	59.65
871.668	60.37
871.969	57.77
872.27	57.97
872.571	58.18
872.872	57.2
873.173	54.01
873.473	51.16
873.774	52.01
874.075	50.17
874.376	52.44
874.676	54.82
874.977	54.22
875.277	52.58
875.578	52.57
875.878	51.09
876.179	52.84
876.479	51.58
876.78	50.65
877.08	49.59
877.38	48.53
877.68	49.34
877.981	47.29
878.281	50.93
878.581	51.26
