Data from BA28472_Reflection_00014.txt Node
Date: Mon Nov 18 15:24:48 EST 2019
User: vgr7
Spectrometer: USB2G7710
Scans to average: 3
Trigger mode: 4
Integration Time (sec): 2.000000E-2
Electric dark correction enabled: true
Boxcar width: 10
XAxis mode: Wavelengths
Number of Pixels in Spectrum: 2048
>>>>>Begin Spectral Data<<<<<
177.721	-74.08
178.105	-21.41
178.488	7.13
178.871	22.5
179.254	25.16
179.636	-133.64
180.019	3009.09
180.402	107.69
180.785	128.83
181.168	350
181.55	40.12
181.933	91.35
182.316	119.11
182.698	90.43
183.081	55.15
183.463	83.94
183.846	49.94
184.228	47.35
184.611	53.72
184.993	61.32
185.376	63.24
185.758	83.53
186.14	119.34
186.522	135.95
186.904	132.51
187.287	148.07
187.669	165.78
188.051	267.79
188.433	233.93
188.815	283.69
189.197	278.42
189.579	260.7
189.961	359.74
190.342	272.06
190.724	869.23
191.106	800.48
191.488	1167
191.869	-822.8
192.251	-459.78
192.633	-256.75
193.014	-450.67
193.396	-587.27
193.777	-425.47
194.159	-555.64
194.54	-414.72
194.922	-265.53
195.303	-236.55
195.684	-226.18
196.065	-162.18
196.447	-142.92
196.828	-123.59
197.209	-106.93
197.59	-133.55
197.971	-111.37
198.352	-121.82
198.733	-104.43
199.114	-71.38
199.495	-40.95
199.876	-43.76
200.257	-15.97
200.638	22.78
201.018	-41.07
201.399	-63.35
201.78	-50.82
202.16	-34.86
202.541	-100.29
202.922	-128.14
203.302	-111.15
203.683	-94.59
204.063	-129.47
204.444	-116.79
204.824	-158.88
205.204	-149.87
205.585	-164.25
205.965	-183.08
206.345	-228.2
206.725	-454.7
207.106	-504.26
207.486	-585
207.866	-488.24
208.246	-467.59
208.626	-677.89
209.006	-557.82
209.386	-600.52
209.766	-927.55
210.145	-1938.59
210.525	-1266.09
210.905	-1236.93
211.285	-1572.73
211.664	-1113.37
212.044	1776.6
212.424	-3513.45
212.803	-646.01
213.183	-559.12
213.562	-1752.22
213.942	4264.38
214.321	-654.43
214.701	-717.91
215.08	-420.55
215.459	-187.25
215.838	-222.93
216.218	-137.59
216.597	-74.34
216.976	-117.12
217.355	-150.68
217.734	-118.43
218.113	-142.04
218.492	-116.13
218.871	-139.96
219.25	-98.14
219.629	-123.02
220.008	-99.71
220.387	-108.79
220.766	-105.49
221.144	-133.53
221.523	-132.68
221.902	-140.95
222.28	-180.2
222.659	-130.46
223.037	-126.66
223.416	-131.78
223.794	-107.36
224.173	-115.34
224.551	-93.8
224.929	-72
225.308	-39.25
225.686	-30.25
226.064	-26.89
226.442	-26.64
226.821	-20.66
227.199	-23.31
227.577	-21.26
227.955	-22.97
228.333	-24.4
228.711	-20.68
229.089	-16.81
229.467	-17.78
229.845	-18.15
230.222	-18.22
230.6	-18.15
230.978	-18.32
231.356	-14.26
231.733	-16.95
232.111	-12.33
232.488	-11.18
232.866	-8.12
233.243	-8.45
233.621	-9.85
233.998	-8.18
234.376	-6.49
234.753	-7.2
235.13	-4.72
235.508	-4.09
235.885	-3.78
236.262	-4.52
236.639	-3.75
237.016	-2.9
237.393	-0.21
237.77	1.02
238.147	2.54
238.524	3.48
238.901	4.22
239.278	4.47
239.655	5.65
240.032	5.15
240.409	4.95
240.785	4.67
241.162	4.49
241.539	4.67
241.915	4.75
242.292	3.99
242.668	4.37
243.045	4.01
243.421	3.78
243.798	4.03
244.174	4.27
244.551	4.22
244.927	4.16
245.303	4.05
245.679	4.1
246.056	4.16
246.432	4.03
246.808	4.25
247.184	3.99
247.56	3.73
247.936	3.45
248.312	3.48
248.688	3.54
249.064	3.69
249.44	3.66
249.815	3.6
250.191	3.84
250.567	3.82
250.943	3.76
251.318	4.15
251.694	4.02
252.069	3.98
252.445	3.93
252.82	3.79
253.196	3.6
253.571	3.45
253.947	3.33
254.322	3.43
254.697	2.93
255.073	2.77
255.448	3.1
255.823	3.39
256.198	3.34
256.573	3.3
256.948	3.47
257.323	3.73
257.698	3.8
258.073	3.67
258.448	3.82
258.823	3.88
259.198	3.72
259.573	3.72
259.948	3.61
260.322	3.74
260.697	3.74
261.072	3.83
261.446	3.95
261.821	3.81
262.195	3.84
262.57	3.92
262.944	3.94
263.319	3.8
263.693	3.72
264.067	3.8
264.442	3.88
264.816	3.59
265.19	3.35
265.564	3.31
265.938	3.2
266.313	3
266.687	3
267.061	3.02
267.435	3
267.809	3.12
268.183	3.11
268.556	3.01
268.93	2.98
269.304	2.98
269.678	3.07
270.051	3.08
270.425	3.11
270.799	3.22
271.172	3.37
271.546	3.47
271.919	3.41
272.293	3.38
272.666	3.37
273.04	3.34
273.413	3.25
273.787	3.3
274.16	3.26
274.533	3.28
274.906	3.27
275.279	3.36
275.653	3.36
276.026	3.29
276.399	3.43
276.772	3.5
277.145	3.42
277.518	3.57
277.891	3.61
278.263	3.62
278.636	3.69
279.009	3.62
279.382	3.51
279.755	3.47
280.127	3.58
280.5	3.77
280.872	3.85
281.245	3.89
281.617	4.11
281.99	4.21
282.362	4.04
282.735	3.95
283.107	3.93
283.479	4.03
283.852	3.93
284.224	4
284.596	4.07
284.968	4.17
285.34	4.25
285.713	4.3
286.085	4.39
286.457	4.41
286.829	4.41
287.201	4.56
287.572	4.63
287.944	4.51
288.316	4.47
288.688	4.4
289.06	4.48
289.431	4.42
289.803	4.49
290.175	4.7
290.546	4.89
290.918	4.92
291.289	4.91
291.661	5.04
292.032	5.12
292.403	5.04
292.775	5.11
293.146	4.97
293.517	4.88
293.889	4.9
294.26	4.89
294.631	4.9
295.002	4.83
295.373	4.84
295.744	4.95
296.115	5.06
296.486	5.16
296.857	5.24
297.228	5.3
297.599	5.25
297.97	5.25
298.34	5.25
298.711	5.39
299.082	5.43
299.452	5.5
299.823	5.51
300.194	5.58
300.564	5.56
300.935	5.7
301.305	5.73
301.676	5.83
302.046	5.94
302.416	6.17
302.787	6.31
303.157	6.28
303.527	6.26
303.897	6.21
304.267	6.31
304.637	6.33
305.008	6.39
305.378	6.48
305.748	6.52
306.117	6.42
306.487	6.43
306.857	6.39
307.227	6.57
307.597	6.62
307.967	6.74
308.336	6.8
308.706	6.96
309.076	7.18
309.445	7.15
309.815	7.09
310.184	7.01
310.554	7.17
310.923	7.21
311.293	7.32
311.662	7.41
312.031	7.34
312.401	7.43
312.77	7.57
313.139	7.62
313.508	7.72
313.877	7.89
314.246	7.89
314.616	8.02
314.985	7.82
315.353	7.83
315.722	7.81
316.091	7.83
316.46	7.75
316.829	7.65
317.198	7.67
317.567	7.75
317.935	7.74
318.304	7.66
318.672	7.85
319.041	7.9
319.41	7.91
319.778	7.98
320.147	7.96
320.515	7.88
320.883	7.84
321.252	7.91
321.62	8
321.988	8
322.357	8.11
322.725	8.28
323.093	8.39
323.461	8.48
323.829	8.71
324.197	8.72
324.565	8.78
324.933	8.81
325.301	8.83
325.669	8.86
326.037	8.8
326.405	8.82
326.772	8.89
327.14	9.02
327.508	9.32
327.875	9.33
328.243	9.43
328.61	9.4
328.978	9.35
329.346	9.43
329.713	9.45
330.08	9.36
330.448	9.43
330.815	9.35
331.182	9.32
331.55	9.18
331.917	9.26
332.284	9.32
332.651	9.39
333.018	9.42
333.385	9.47
333.752	9.64
334.119	9.69
334.486	9.62
334.853	9.5
335.22	9.4
335.587	9.43
335.954	9.46
336.32	9.51
336.687	9.54
337.054	9.45
337.42	9.54
337.787	9.74
338.153	9.78
338.52	9.85
338.886	9.83
339.253	9.84
339.619	9.85
339.986	9.89
340.352	9.85
340.718	9.85
341.084	9.92
341.451	9.98
341.817	10
342.183	10.1
342.549	10.19
342.915	10.15
343.281	10.14
343.647	10.02
344.013	10.15
344.379	10.18
344.745	10.2
345.11	10.14
345.476	10.03
345.842	9.99
346.208	10.02
346.573	10.11
346.939	10.19
347.304	10.18
347.67	10.16
348.035	10.14
348.401	10.09
348.766	10.15
349.132	10.03
349.497	10.02
349.862	9.97
350.228	10.01
350.593	10
350.958	10.07
351.323	10.12
351.688	10.02
352.053	10.07
352.418	10.09
352.783	10.11
353.148	10.14
353.513	10.17
353.878	10.16
354.243	10.17
354.608	10.09
354.972	10.07
355.337	10.09
355.702	10.13
356.066	10.2
356.431	10.12
356.795	10.15
357.16	10.15
357.524	10.14
357.889	10.14
358.253	10.15
358.618	10.15
358.982	10.01
359.346	10.03
359.71	9.98
360.075	9.98
360.439	9.95
360.803	9.92
361.167	9.86
361.531	9.84
361.895	9.77
362.259	9.67
362.623	9.65
362.987	9.62
363.351	9.63
363.714	9.6
364.078	9.55
364.442	9.49
364.806	9.48
365.169	9.48
365.533	9.44
365.896	9.4
366.26	9.33
366.623	9.37
366.987	9.35
367.35	9.32
367.714	9.32
368.077	9.3
368.44	9.27
368.803	9.27
369.167	9.15
369.53	9.1
369.893	9.15
370.256	9.08
370.619	9.02
370.982	8.95
371.345	8.87
371.708	8.82
372.071	8.8
372.434	8.75
372.797	8.66
373.159	8.56
373.522	8.48
373.885	8.39
374.247	8.35
374.61	8.32
374.973	8.3
375.335	8.15
375.698	8.09
376.06	8.04
376.423	7.92
376.785	7.92
377.147	7.9
377.51	7.84
377.872	7.83
378.234	7.81
378.596	7.76
378.958	7.67
379.321	7.65
379.683	7.62
380.045	7.54
380.407	7.47
380.769	7.43
381.13	7.39
381.492	7.35
381.854	7.31
382.216	7.19
382.578	7.08
382.939	7.1
383.301	7.01
383.663	6.93
384.024	6.89
384.386	6.88
384.747	6.83
385.109	6.8
385.47	6.7
385.832	6.65
386.193	6.61
386.554	6.62
386.916	6.56
387.277	6.51
387.638	6.52
387.999	6.5
388.36	6.46
388.721	6.44
389.082	6.41
389.443	6.38
389.804	6.36
390.165	6.39
390.526	6.35
390.887	6.33
391.248	6.32
391.609	6.32
391.969	6.25
392.33	6.24
392.691	6.22
393.051	6.24
393.412	6.2
393.772	6.12
394.133	6.1
394.493	6.07
394.854	6.01
395.214	5.95
395.574	5.91
395.935	5.84
396.295	5.81
396.655	5.77
397.015	5.76
397.376	5.76
397.736	5.7
398.096	5.65
398.456	5.66
398.816	5.63
399.176	5.6
399.535	5.53
399.895	5.45
400.255	5.39
400.615	5.35
400.975	5.29
401.334	5.28
401.694	5.22
402.054	5.18
402.413	5.16
402.773	5.13
403.132	5.11
403.492	5.1
403.851	5.05
404.211	5.02
404.57	4.98
404.929	4.96
405.288	4.94
405.648	4.89
406.007	4.83
406.366	4.79
406.725	4.78
407.084	4.79
407.443	4.78
407.802	4.8
408.161	4.76
408.52	4.77
408.879	4.75
409.238	4.74
409.596	4.76
409.955	4.74
410.314	4.74
410.673	4.7
411.031	4.68
411.39	4.68
411.748	4.69
412.107	4.7
412.465	4.65
412.824	4.59
413.182	4.6
413.54	4.62
413.899	4.65
414.257	4.62
414.615	4.59
414.974	4.59
415.332	4.56
415.69	4.54
416.048	4.52
416.406	4.51
416.764	4.48
417.122	4.44
417.48	4.42
417.838	4.4
418.195	4.39
418.553	4.39
418.911	4.36
419.269	4.33
419.626	4.29
419.984	4.29
420.342	4.31
420.699	4.28
421.057	4.26
421.414	4.23
421.772	4.21
422.129	4.2
422.486	4.19
422.844	4.17
423.201	4.16
423.558	4.14
423.915	4.14
424.273	4.13
424.63	4.13
424.987	4.11
425.344	4.11
425.701	4.09
426.058	4.08
426.415	4.09
426.772	4.07
427.128	4.04
427.485	4.04
427.842	4.01
428.199	4
428.555	3.97
428.912	3.97
429.269	3.96
429.625	3.92
429.982	3.93
430.338	3.89
430.695	3.88
431.051	3.85
431.407	3.84
431.764	3.84
432.12	3.83
432.476	3.83
432.832	3.8
433.189	3.8
433.545	3.8
433.901	3.78
434.257	3.8
434.613	3.82
434.969	3.8
435.325	3.78
435.681	3.79
436.036	3.79
436.392	3.79
436.748	3.79
437.104	3.82
437.459	3.8
437.815	3.8
438.171	3.8
438.526	3.81
438.882	3.81
439.237	3.8
439.593	3.8
439.948	3.78
440.304	3.8
440.659	3.81
441.014	3.79
441.369	3.8
441.725	3.79
442.08	3.8
442.435	3.81
442.79	3.8
443.145	3.8
443.5	3.81
443.855	3.81
444.21	3.79
444.565	3.77
444.92	3.78
445.275	3.77
445.629	3.77
445.984	3.77
446.339	3.74
446.693	3.72
447.048	3.7
447.403	3.69
447.757	3.67
448.112	3.65
448.466	3.64
448.82	3.64
449.175	3.63
449.529	3.61
449.883	3.59
450.238	3.58
450.592	3.56
450.946	3.53
451.3	3.52
451.654	3.51
452.008	3.51
452.362	3.5
452.716	3.49
453.07	3.51
453.424	3.49
453.778	3.51
454.132	3.52
454.486	3.52
454.839	3.53
455.193	3.53
455.547	3.52
455.9	3.53
456.254	3.52
456.607	3.51
456.961	3.52
457.314	3.51
457.668	3.51
458.021	3.5
458.375	3.52
458.728	3.51
459.081	3.54
459.434	3.51
459.787	3.53
460.141	3.53
460.494	3.53
460.847	3.54
461.2	3.51
461.553	3.51
461.906	3.52
462.259	3.53
462.611	3.54
462.964	3.56
463.317	3.54
463.67	3.52
464.022	3.53
464.375	3.53
464.728	3.53
465.08	3.54
465.433	3.56
465.785	3.54
466.138	3.57
466.49	3.58
466.843	3.61
467.195	3.61
467.547	3.62
467.899	3.6
468.252	3.61
468.604	3.64
468.956	3.68
469.308	3.68
469.66	3.69
470.012	3.68
470.364	3.68
470.716	3.72
471.068	3.76
471.42	3.79
471.772	3.82
472.123	3.85
472.475	3.87
472.827	3.89
473.178	3.95
473.53	3.93
473.882	3.94
474.233	3.94
474.585	3.93
474.936	3.92
475.288	3.94
475.639	3.96
475.99	3.97
476.342	3.96
476.693	3.96
477.044	3.96
477.395	3.96
477.746	3.95
478.097	3.95
478.448	3.93
478.8	3.92
479.15	3.89
479.501	3.87
479.852	3.87
480.203	3.87
480.554	3.86
480.905	3.87
481.255	3.86
481.606	3.86
481.957	3.87
482.307	3.88
482.658	3.89
483.009	3.87
483.359	3.89
483.709	3.89
484.06	3.89
484.41	3.9
484.761	3.9
485.111	3.91
485.461	3.91
485.811	3.91
486.162	3.91
486.512	3.92
486.862	3.93
487.212	3.92
487.562	3.91
487.912	3.91
488.262	3.91
488.612	3.91
488.961	3.91
489.311	3.9
489.661	3.89
490.011	3.9
490.36	3.9
490.71	3.89
491.06	3.9
491.409	3.89
491.759	3.89
492.108	3.89
492.458	3.89
492.807	3.87
493.157	3.88
493.506	3.9
493.855	3.91
494.204	3.94
494.554	3.95
494.903	3.96
495.252	3.96
495.601	4
495.95	4.02
496.299	4.04
496.648	4.08
496.997	4.13
497.346	4.15
497.695	4.18
498.043	4.2
498.392	4.23
498.741	4.28
499.09	4.31
499.438	4.37
499.787	4.4
500.135	4.46
500.484	4.49
500.832	4.54
501.181	4.56
501.529	4.59
501.878	4.66
502.226	4.73
502.574	4.79
502.923	4.83
503.271	4.92
503.619	4.98
503.967	5.04
504.315	5.09
504.663	5.15
505.011	5.26
505.359	5.35
505.707	5.44
506.055	5.51
506.403	5.62
506.751	5.71
507.098	5.78
507.446	5.88
507.794	5.97
508.141	6.06
508.489	6.16
508.837	6.27
509.184	6.35
509.531	6.45
509.879	6.57
510.226	6.68
510.574	6.75
510.921	6.85
511.268	6.94
511.616	7.06
511.963	7.16
512.31	7.24
512.657	7.37
513.004	7.46
513.351	7.57
513.698	7.68
514.045	7.79
514.392	7.93
514.739	8.04
515.086	8.17
515.432	8.32
515.779	8.44
516.126	8.55
516.473	8.71
516.819	8.84
517.166	8.96
517.512	9.06
517.859	9.17
518.205	9.29
518.552	9.43
518.898	9.54
519.245	9.64
519.591	9.76
519.937	9.84
520.283	9.96
520.629	10.12
520.976	10.28
521.322	10.42
521.668	10.55
522.014	10.71
522.36	10.88
522.706	11.04
523.052	11.22
523.398	11.43
523.743	11.6
524.089	11.77
524.435	11.96
524.781	12.14
525.126	12.32
525.472	12.47
525.817	12.59
526.163	12.72
526.509	12.84
526.854	12.97
527.199	13.11
527.545	13.22
527.89	13.31
528.235	13.42
528.581	13.55
528.926	13.68
529.271	13.83
529.616	13.95
529.961	14.06
530.306	14.21
530.651	14.34
530.996	14.49
531.341	14.65
531.686	14.79
532.031	14.97
532.376	15.14
532.721	15.32
533.065	15.52
533.41	15.72
533.755	15.93
534.099	16.13
534.444	16.32
534.788	16.52
535.133	16.73
535.477	16.92
535.822	17.1
536.166	17.31
536.51	17.54
536.855	17.81
537.199	18.09
537.543	18.35
537.887	18.65
538.231	18.93
538.576	19.23
538.92	19.5
539.264	19.75
539.608	20
539.951	20.25
540.295	20.46
540.639	20.69
540.983	20.91
541.327	21.14
541.671	21.37
542.014	21.61
542.358	21.82
542.701	22.09
543.045	22.35
543.389	22.57
543.732	22.8
544.075	23.03
544.419	23.28
544.762	23.51
545.105	23.71
545.449	23.97
545.792	24.21
546.135	24.49
546.478	24.78
546.821	25.09
547.165	25.41
547.508	25.73
547.851	26.07
548.194	26.41
548.536	26.73
548.879	27.08
549.222	27.4
549.565	27.76
549.908	28.04
550.25	28.34
550.593	28.67
550.936	28.99
551.278	29.3
551.621	29.64
551.963	29.96
552.306	30.31
552.648	30.66
552.991	31.04
553.333	31.32
553.675	31.67
554.017	31.93
554.36	32.2
554.702	32.55
555.044	32.84
555.386	33.1
555.728	33.45
556.07	33.75
556.412	34.04
556.754	34.28
557.096	34.56
557.438	34.86
557.78	35.19
558.121	35.51
558.463	35.84
558.805	36.14
559.147	36.46
559.488	36.71
559.83	36.96
560.171	37.19
560.513	37.54
560.854	37.79
561.196	38.06
561.537	38.34
561.878	38.51
562.22	38.73
562.561	39
562.902	39.24
563.243	39.45
563.584	39.7
563.925	40.01
564.266	40.26
564.607	40.5
564.948	40.68
565.289	40.88
565.63	41.04
565.971	41.22
566.312	41.44
566.653	41.63
566.993	41.85
567.334	42.06
567.675	42.25
568.015	42.44
568.356	42.64
568.696	42.87
569.037	43.06
569.377	43.23
569.718	43.42
570.058	43.54
570.398	43.75
570.739	43.92
571.079	44.05
571.419	44.16
571.759	44.35
572.099	44.53
572.439	44.68
572.779	44.85
573.119	44.96
573.459	45.08
573.799	45.3
574.139	45.41
574.479	45.57
574.819	45.67
575.158	45.85
575.498	46.02
575.838	46.13
576.177	46.3
576.517	46.51
576.856	46.59
577.196	46.74
577.535	46.87
577.875	47.02
578.214	47.14
578.553	47.37
578.893	47.5
579.232	47.66
579.571	47.78
579.91	47.93
580.25	48.14
580.589	48.33
580.928	48.4
581.267	48.56
581.606	48.68
581.945	48.83
582.283	48.95
582.622	49.1
582.961	49.19
583.3	49.32
583.639	49.41
583.977	49.6
584.316	49.73
584.654	49.84
584.993	49.96
585.332	50.14
585.67	50.26
586.008	50.37
586.347	50.5
586.685	50.68
587.024	50.78
587.362	50.85
587.7	50.94
588.038	51.05
588.376	51.09
588.715	51.19
589.053	51.25
589.391	51.28
589.729	51.33
590.067	51.42
590.404	51.49
590.742	51.51
591.08	51.62
591.418	51.72
591.756	51.81
592.093	51.91
592.431	52
592.769	52.04
593.106	52.01
593.444	52.03
593.781	52.06
594.119	52.19
594.456	52.27
594.793	52.28
595.131	52.38
595.468	52.43
595.805	52.51
596.143	52.59
596.48	52.65
596.817	52.72
597.154	52.77
597.491	52.85
597.828	52.93
598.165	52.94
598.502	52.97
598.839	53.03
599.176	53.07
599.512	53.06
599.849	53.08
600.186	53.27
600.523	53.32
600.859	53.33
601.196	53.37
601.532	53.51
601.869	53.58
602.205	53.61
602.542	53.7
602.878	53.7
603.215	53.75
603.551	53.74
603.887	53.75
604.223	53.79
604.56	53.77
604.896	53.82
605.232	53.91
605.568	53.98
605.904	54.06
606.24	54.17
606.576	54.26
606.912	54.32
607.248	54.26
607.583	54.28
607.919	54.35
608.255	54.37
608.591	54.37
608.926	54.42
609.262	54.5
609.597	54.52
609.933	54.57
610.268	54.61
610.604	54.67
610.939	54.67
611.275	54.74
611.61	54.83
611.945	54.91
612.281	54.91
612.616	54.94
612.951	54.96
613.286	54.91
613.621	54.96
613.956	55.05
614.291	55.13
614.626	55.21
614.961	55.25
615.296	55.26
615.631	55.31
615.966	55.42
616.3	55.39
616.635	55.48
616.97	55.5
617.304	55.53
617.639	55.69
617.973	55.82
618.308	55.82
618.642	55.74
618.977	55.74
619.311	55.72
619.646	55.72
619.98	55.66
620.314	55.72
620.648	55.66
620.983	55.69
621.317	55.72
621.651	55.77
621.985	55.79
622.319	55.85
622.653	55.72
622.987	55.78
623.321	55.8
623.655	55.82
623.988	55.88
624.322	55.9
624.656	55.85
624.99	55.84
625.323	55.9
625.657	56.08
625.99	56.08
626.324	56.17
626.657	56.22
626.991	56.32
627.324	56.21
627.658	56.35
627.991	56.48
628.324	56.54
628.657	56.57
628.991	56.56
629.324	56.55
629.657	56.7
629.99	56.64
630.323	56.74
630.656	56.77
630.989	56.73
631.322	56.82
631.655	56.83
631.987	56.93
632.32	57.02
632.653	57.02
632.986	57.1
633.318	57.09
633.651	57.06
633.984	57.01
634.316	57.16
634.649	57.15
634.981	57.06
635.313	57.08
635.646	57.12
635.978	57.27
636.31	57.26
636.643	57.2
636.975	57.24
637.307	57.28
637.639	57.29
637.971	57.41
638.303	57.35
638.635	57.5
638.967	57.46
639.299	57.41
639.631	57.32
639.963	57.29
640.295	57.37
640.626	57.48
640.958	57.52
641.29	57.43
641.621	57.38
641.953	57.32
642.285	57.36
642.616	57.43
642.948	57.37
643.279	57.47
643.61	57.53
643.942	57.54
644.273	57.47
644.604	57.5
644.936	57.43
645.267	57.46
645.598	57.4
645.929	57.39
646.26	57.42
646.591	57.47
646.922	57.42
647.253	57.37
647.584	57.36
647.915	57.46
648.245	57.57
648.576	57.63
648.907	57.72
649.238	57.68
649.568	57.66
649.899	57.64
650.229	57.69
650.56	57.7
650.89	57.73
651.221	57.88
651.551	57.94
651.882	58.04
652.212	58.07
652.542	58.03
652.872	58.01
653.203	58.03
653.533	58.04
653.863	58.14
654.193	58.14
654.523	58.23
654.853	58.23
655.183	58.19
655.513	58.17
655.843	58.14
656.172	58.19
656.502	58.11
656.832	58.15
657.162	58.13
657.491	58.17
657.821	58.17
658.15	58.08
658.48	57.97
658.809	57.87
659.139	57.92
659.468	57.95
659.798	58.07
660.127	57.98
660.456	58.08
660.785	58.17
661.115	58.22
661.444	58.13
661.773	58.04
662.102	58.12
662.431	58.15
662.76	58.32
663.089	58.34
663.418	58.43
663.747	58.44
664.076	58.44
664.404	58.28
664.733	58.26
665.062	58.19
665.39	58.24
665.719	58.27
666.048	58.36
666.376	58.32
666.705	58.24
667.033	58.29
667.362	58.19
667.69	57.93
668.018	57.95
668.347	57.94
668.675	58.02
669.003	57.96
669.331	58.02
669.659	57.93
669.987	57.94
670.315	57.95
670.643	57.95
670.971	57.89
671.299	58.05
671.627	58.12
671.955	58.25
672.283	58.29
672.61	58.24
672.938	58.14
673.266	58.18
673.593	58.24
673.921	58.29
674.249	58.35
674.576	58.49
674.904	58.45
675.231	58.56
675.558	58.48
675.886	58.64
676.213	58.61
676.54	58.68
676.867	58.69
677.195	58.67
677.522	58.75
677.849	58.77
678.176	58.75
678.503	58.72
678.83	58.78
679.157	58.77
679.484	58.79
679.81	58.8
680.137	58.89
680.464	58.76
680.791	58.85
681.117	58.8
681.444	58.76
681.771	58.84
682.097	58.84
682.424	58.92
682.75	58.92
683.077	58.91
683.403	58.85
683.729	58.89
684.056	59.02
684.382	58.97
684.708	58.91
685.034	58.86
685.36	58.99
685.686	58.83
686.012	58.85
686.339	58.83
686.664	58.86
686.99	58.8
687.316	58.88
687.642	58.87
687.968	58.9
688.294	59.02
688.619	58.87
688.945	58.79
689.271	58.79
689.596	58.72
689.922	58.76
690.247	58.72
690.573	58.64
690.898	58.61
691.224	58.64
691.549	58.77
691.874	58.75
692.2	58.62
692.525	58.76
692.85	58.7
693.175	58.81
693.5	58.77
693.825	58.84
694.15	58.9
694.475	58.88
694.8	58.98
695.125	58.92
695.45	58.86
695.775	59.05
696.099	59.08
696.424	58.97
696.749	59.05
697.073	58.93
697.398	58.81
697.723	58.73
698.047	58.87
698.372	58.88
698.696	59.09
699.02	59.15
699.345	59.11
699.669	59.24
699.993	59.29
700.318	59.35
700.642	59.34
700.966	59.34
701.29	59.27
701.614	59.28
701.938	59.22
702.262	59.45
702.586	59.24
702.91	59.3
703.234	59.38
703.557	59.16
703.881	59.25
704.205	59.47
704.529	59.55
704.852	59.36
705.176	59.41
705.499	59.19
705.823	58.95
706.146	58.98
706.47	58.81
706.793	58.89
707.117	58.83
707.44	58.72
707.763	58.82
708.086	58.97
708.409	58.92
708.733	59.02
709.056	58.96
709.379	59.1
709.702	59.08
710.025	59.14
710.348	59.12
710.671	59.17
710.993	59.21
711.316	59.09
711.639	59.08
711.962	58.99
712.284	59.21
712.607	59.24
712.93	59.17
713.252	59.29
713.575	59.26
713.897	59.32
714.22	59.3
714.542	59.17
714.864	58.98
715.187	59
715.509	59.04
715.831	59.03
716.153	58.94
716.475	58.76
716.798	58.7
717.12	58.89
717.442	58.83
717.764	58.62
718.085	58.64
718.407	58.68
718.729	58.82
719.051	58.69
719.373	58.94
719.695	59.02
720.016	58.99
720.338	58.8
720.659	58.72
720.981	58.78
721.302	58.77
721.624	58.85
721.945	58.98
722.267	58.97
722.588	59.05
722.909	59.15
723.231	59.25
723.552	59.28
723.873	59.44
724.194	59.46
724.515	59.46
724.836	59.46
725.157	59.36
725.478	59.57
725.799	59.55
726.12	59.31
726.441	59.21
726.762	59.31
727.083	59.41
727.403	59.39
727.724	59.51
728.045	59.6
728.365	59.72
728.686	59.53
729.006	59.42
729.327	59.36
729.647	59.44
729.967	59.45
730.288	59.54
730.608	59.26
730.928	59.46
731.249	59.64
731.569	59.84
731.889	59.96
732.209	59.63
732.529	59.66
732.849	59.88
733.169	59.87
733.489	59.95
733.809	59.91
734.129	59.86
734.448	59.73
734.768	59.68
735.088	59.44
735.408	59.58
735.727	59.53
736.047	59.53
736.366	59.54
736.686	59.68
737.005	59.77
737.325	59.85
737.644	59.71
737.963	59.73
738.283	59.64
738.602	59.56
738.921	59.7
739.24	59.44
739.56	59.13
739.879	59.23
740.198	58.8
740.517	58.86
740.836	58.83
741.155	58.89
741.473	58.73
741.792	58.83
742.111	58.45
742.43	58.59
742.748	58.55
743.067	58.6
743.386	58.5
743.704	58.26
744.023	58.32
744.341	58.27
744.66	58.04
744.978	58.03
745.297	58.29
745.615	58.42
745.933	58.5
746.252	58.63
746.57	58.76
746.888	59.05
747.206	58.75
747.524	58.8
747.842	58.88
748.16	59.07
748.478	59.35
748.796	59.91
749.114	60.08
749.432	59.9
749.749	59.61
750.067	59.46
750.385	59.43
750.703	59.31
751.02	59.39
751.338	59.5
751.655	59.4
751.973	59.49
752.29	59.25
752.608	59.38
752.925	59.29
753.242	59.26
753.56	59.26
753.877	59.41
754.194	59.76
754.511	59.79
754.828	59.91
755.145	60.01
755.462	59.76
755.779	59.78
756.096	59.83
756.413	59.61
756.73	59.74
757.047	59.8
757.364	59.78
757.68	59.65
757.997	59.24
758.314	59.34
758.63	59.06
758.947	59.1
759.264	58.95
759.58	59.06
759.896	58.8
760.213	58.72
760.529	58.96
760.846	58.67
761.162	58.42
761.478	58.57
761.794	58.34
762.11	58.72
762.426	58.61
762.743	58.57
763.059	58.75
763.375	58.97
763.69	59.06
764.006	59.16
764.322	59.34
764.638	59.88
764.954	59.9
765.27	59.85
765.585	59.53
765.901	59.68
766.216	59.69
766.532	59.9
766.848	59.83
767.163	59.73
767.478	59.51
767.794	59.49
768.109	59.31
768.424	59.29
768.74	58.6
769.055	58.71
769.37	58.73
769.685	58.61
770	58.34
770.315	58.43
770.63	58.23
770.945	58.37
771.26	58.15
771.575	58.33
771.89	58.36
772.205	58.75
772.52	58.57
772.834	58.48
773.149	57.95
773.464	58.16
773.778	58.61
774.093	59.11
774.407	59.04
774.722	58.79
775.036	58.71
775.351	59.15
775.665	58.97
775.979	59.09
776.293	59.24
776.608	59.14
776.922	59.04
777.236	59.2
777.55	58.81
777.864	58.72
778.178	58.59
778.492	58.58
778.806	58.55
779.12	58.58
779.434	58.83
779.747	59.39
780.061	59.38
780.375	58.46
780.689	58.48
781.002	59.08
781.316	59.23
781.629	59.46
781.943	59.68
782.256	59.91
782.57	59.59
782.883	59.54
783.196	59.94
783.51	59.81
783.823	59.89
784.136	60
784.449	60.07
784.762	59.92
785.075	59.54
785.388	59.52
785.701	59.23
786.014	59.26
786.327	59.53
786.64	59.44
786.953	59.99
787.266	60.13
787.578	59.84
787.891	59.9
788.204	60.13
788.516	59.94
788.829	60.07
789.141	60.4
789.454	60.51
789.766	59.97
790.079	60.22
790.391	60.11
790.703	60
791.016	59.66
791.328	59.37
791.64	59.71
791.952	59.47
792.264	59.88
792.576	59.58
792.888	59.25
793.2	59.78
793.512	59.56
793.824	59.3
794.136	59.36
794.448	59.08
794.76	58.57
795.071	58.31
795.383	57.53
795.695	57.71
796.006	57.98
796.318	58.53
796.629	58.44
796.941	58.4
797.252	58.45
797.564	59.04
797.875	59.39
798.186	59.41
798.497	59.9
798.809	60.01
799.12	59.88
799.431	60.02
799.742	59.48
800.053	59.66
800.364	60.05
800.675	59.74
800.986	59.69
801.297	59.73
801.608	59.88
801.918	60.59
802.229	60.15
802.54	60.01
802.851	59.53
803.161	59.47
803.472	58.91
803.782	58.78
804.093	58.65
804.403	58.53
804.714	58.78
805.024	58.33
805.334	58.49
805.645	58.4
805.955	58.23
806.265	58.22
806.575	58.12
806.885	57.88
807.195	58.72
807.505	59.56
807.815	59.64
808.125	59.28
808.435	58.61
808.745	59.1
809.055	58.61
809.365	58.68
809.674	59.29
809.984	59.31
810.294	59.25
810.603	59.07
810.913	59.14
811.222	59.29
811.532	59.86
811.841	59.33
812.151	59.69
812.46	58.93
812.769	59.5
813.079	59.12
813.388	58.93
813.697	58.47
814.006	58.17
814.315	57.81
814.624	58.25
814.933	58.78
815.242	58.47
815.551	59.78
815.86	59.93
816.169	58.82
816.478	59.21
816.786	58.58
817.095	58.4
817.404	58.42
817.712	57.36
818.021	57.51
818.33	57.62
818.638	57.43
818.947	57.64
819.255	57.87
819.563	58.37
819.872	58.86
820.18	58.81
820.488	58.57
820.796	58.63
821.105	58.74
821.413	59.06
821.721	59.17
822.029	58.85
822.337	59
822.645	59.27
822.953	59.28
823.26	59.61
823.568	59.89
823.876	60.02
824.184	60.24
824.491	60.14
824.799	60.08
825.107	60.42
825.414	60.4
825.722	60.27
826.029	60.19
826.337	60.14
826.644	60.23
826.951	60.23
827.259	60.31
827.566	60.22
827.873	60.21
828.18	60.06
828.488	60.25
828.795	60.36
829.102	60.25
829.409	60.37
829.716	60.27
830.023	60.12
830.329	60.11
830.636	60.48
830.943	60.78
831.25	60.99
831.557	60.96
831.863	61.2
832.17	60.88
832.476	61.04
832.783	60.6
833.089	60.13
833.396	60.91
833.702	60.89
834.009	61.65
834.315	61.21
834.621	61.65
834.928	61.26
835.234	60.87
835.54	60.32
835.846	60.46
836.152	60.66
836.458	60.56
836.764	60.05
837.07	59.71
837.376	59.07
837.682	59.32
837.988	59.37
838.293	59.55
838.599	60.25
838.905	59.91
839.211	60.04
839.516	60.68
839.822	59.66
840.127	59.71
840.433	58.19
840.738	57.73
841.044	57.04
841.349	57.32
841.654	56.62
841.959	57.49
842.265	57.54
842.57	57.85
842.875	57.45
843.18	57.61
843.485	56.95
843.79	56.6
844.095	55.7
844.4	54.8
844.705	55.2
845.01	54.18
845.315	55.28
845.619	54.69
845.924	53.44
846.229	54.63
846.533	56.32
846.838	56.63
847.142	56.72
847.447	55.99
847.751	56.82
848.056	56.49
848.36	56.26
848.664	56.48
848.969	55.03
849.273	52.52
849.577	52.82
849.881	54.27
850.185	56.58
850.489	56.21
850.794	56.35
851.097	55.58
851.401	56.84
851.705	54.98
852.009	56.46
852.313	58.12
852.617	58.64
852.92	57.28
853.224	58.6
853.528	58.62
853.831	59.6
854.135	58.28
854.438	58.79
854.742	58.37
855.045	56.73
855.349	56.31
855.652	58.2
855.955	57.71
856.259	56.59
856.562	54.78
856.865	54.41
857.168	52.31
857.471	52.95
857.774	53.71
858.077	54.86
858.38	53.9
858.683	52.93
858.986	51.9
859.289	51.58
859.592	51.5
859.894	51.99
860.197	51.57
860.5	50.87
860.802	52.23
861.105	53.7
861.407	54.41
861.71	54.02
862.012	54.13
862.315	54.09
862.617	53.01
862.919	54.06
863.222	56.67
863.524	55.34
863.826	54.05
864.128	53.61
864.43	55.52
864.732	54.78
865.034	55.87
865.336	54.33
865.638	52.97
865.94	53.2
866.242	52.98
866.544	52.99
866.846	55.22
867.147	52.86
867.449	52.15
867.751	52.05
868.052	52.21
868.354	52.5
868.655	53.79
868.957	54.65
869.258	53.75
869.56	54.25
869.861	57.26
870.162	56.9
870.463	58.14
870.765	53.6
871.066	54.54
871.367	52.59
871.668	52.35
871.969	55.35
872.27	52.98
872.571	53.52
872.872	53.34
873.173	52.36
873.473	56.08
873.774	54.43
874.075	55.77
874.376	55.52
874.676	55.24
874.977	53.47
875.277	51.34
875.578	53.09
875.878	50.67
876.179	50.4
876.479	51.2
876.78	48.44
877.08	50.84
877.38	50.61
877.68	52.01
877.981	53.23
878.281	50.07
878.581	51.45
