Data from BA28467_Reflection_00007.txt Node
Date: Mon Nov 18 15:33:13 EST 2019
User: vgr7
Spectrometer: USB2G7710
Scans to average: 3
Trigger mode: 4
Integration Time (sec): 2.000000E-2
Electric dark correction enabled: true
Boxcar width: 10
XAxis mode: Wavelengths
Number of Pixels in Spectrum: 2048
>>>>>Begin Spectral Data<<<<<
177.721	-227.11
178.105	-209.64
178.488	-114.33
178.871	-215.68
179.254	150.25
179.636	175.1
180.019	-608.86
180.402	86.67
180.785	-2538.3
181.168	-967.57
181.55	-1042.86
181.933	316.79
182.316	218.44
182.698	192.26
183.081	228.87
183.463	474.76
183.846	699.46
184.228	965.05
184.611	1036.17
184.993	764.09
185.376	-446.26
185.758	-443.93
186.14	-224.19
186.522	-25.38
186.904	-24.53
187.287	23.66
187.669	127.5
188.051	-63.27
188.433	-18.04
188.815	42.2
189.197	-6.91
189.579	49.27
189.961	78.02
190.342	67.03
190.724	44.29
191.106	30.05
191.488	38.98
191.869	19.54
192.251	-13.13
192.633	-6.93
193.014	-73.24
193.396	-143.54
193.777	-177.4
194.159	-182.46
194.54	-242.73
194.922	-160.93
195.303	-251.5
195.684	-161.34
196.065	-77.05
196.447	-154.82
196.828	-917.79
197.209	-209.14
197.59	-521.81
197.971	2273.91
198.352	-5985.11
198.733	458.68
199.114	539.93
199.495	543.59
199.876	265.41
200.257	-704.78
200.638	-170.74
201.018	-90.88
201.399	-95.45
201.78	-80.27
202.16	-105.08
202.541	-154.66
202.922	-314.66
203.302	-253.03
203.683	-303.67
204.063	-954.89
204.444	-820.77
204.824	-316.13
205.204	-595.15
205.585	-302.84
205.965	-152.24
206.345	-253.86
206.725	-241.31
207.106	-364.77
207.486	-467.16
207.866	-368.09
208.246	-1176.26
208.626	1687.94
209.006	770.42
209.386	187.73
209.766	314.68
210.145	3796.2
210.525	-1505.84
210.905	-340.62
211.285	-124.91
211.664	-121.79
212.044	-78.75
212.424	-48.72
212.803	-60.3
213.183	-62.72
213.562	-55.46
213.942	-52.68
214.321	-39.52
214.701	-76.88
215.08	-86.34
215.459	-77.19
215.838	-60.37
216.218	-77.45
216.597	-50.35
216.976	-66.97
217.355	-55.36
217.734	-49.43
218.113	-53.53
218.492	-69.73
218.871	-59.12
219.25	-65.15
219.629	-67.05
220.008	-53.67
220.387	-54.17
220.766	-50.93
221.144	-40.74
221.523	-48.82
221.902	-65.25
222.28	-76.44
222.659	-18.04
223.037	-25.11
223.416	-27.42
223.794	-43.36
224.173	-31.67
224.551	-18.94
224.929	-6.54
225.308	-5.31
225.686	-2.96
226.064	3.8
226.442	0.53
226.821	-3.89
227.199	-2.73
227.577	-0.5
227.955	-1.07
228.333	0.88
228.711	0.16
229.089	2.99
229.467	-1.25
229.845	0.23
230.222	2.48
230.6	0.53
230.978	5.53
231.356	6.78
231.733	6.87
232.111	6.19
232.488	3.84
232.866	2.97
233.243	3.42
233.621	2.45
233.998	2.35
234.376	3.58
234.753	4.03
235.13	4.1
235.508	5.88
235.885	4.9
236.262	5.44
236.639	4.78
237.016	4.54
237.393	7.02
237.77	6.65
238.147	6.43
238.524	5.66
238.901	4.95
239.278	4.47
239.655	4.58
240.032	4.96
240.409	4.66
240.785	5.1
241.162	5.16
241.539	4.99
241.915	4.31
242.292	3.53
242.668	3.49
243.045	3.79
243.421	3.55
243.798	3.6
244.174	3.53
244.551	3.61
244.927	3.51
245.303	3.5
245.679	3.54
246.056	3.29
246.432	3.42
246.808	3.51
247.184	3.46
247.56	3.2
247.936	3.11
248.312	2.98
248.688	2.98
249.064	2.56
249.44	2.6
249.815	2.78
250.191	3.3
250.567	3.46
250.943	3.2
251.318	3.2
251.694	3.21
252.069	3.06
252.445	3.38
252.82	3.04
253.196	3.1
253.571	3.03
253.947	3.13
254.322	3.42
254.697	3.35
255.073	3.24
255.448	3.28
255.823	3.35
256.198	3.38
256.573	3.05
256.948	3.34
257.323	3.43
257.698	3.35
258.073	3.07
258.448	2.88
258.823	2.99
259.198	2.83
259.573	2.84
259.948	2.89
260.322	2.7
260.697	2.88
261.072	2.66
261.446	2.55
261.821	2.57
262.195	2.46
262.57	2.49
262.944	2.57
263.319	2.62
263.693	2.6
264.067	2.83
264.442	3.06
264.816	2.95
265.19	2.89
265.564	2.82
265.938	2.77
266.313	2.72
266.687	2.51
267.061	2.65
267.435	2.65
267.809	2.67
268.183	2.86
268.556	2.71
268.93	2.87
269.304	3.04
269.678	3.03
270.051	3.1
270.425	3.03
270.799	2.96
271.172	2.97
271.546	2.86
271.919	2.68
272.293	2.65
272.666	2.71
273.04	2.84
273.413	2.92
273.787	3.15
274.16	3.12
274.533	3.4
274.906	3.46
275.279	3.44
275.653	3.34
276.026	3.13
276.399	3.13
276.772	3.15
277.145	3.09
277.518	3.03
277.891	2.87
278.263	2.87
278.636	2.87
279.009	2.96
279.382	3.12
279.755	3.33
280.127	3.29
280.5	3.25
280.872	3.18
281.245	3.18
281.617	3.23
281.99	3.31
282.362	3.19
282.735	3.04
283.107	2.98
283.479	3.09
283.852	3.27
284.224	3.43
284.596	3.38
284.968	3.48
285.34	3.58
285.713	3.61
286.085	3.54
286.457	3.63
286.829	3.57
287.201	3.49
287.572	3.36
287.944	3.24
288.316	3.25
288.688	3.11
289.06	3.14
289.431	2.96
289.803	3.16
290.175	3.22
290.546	3.4
290.918	3.41
291.289	3.4
291.661	3.31
292.032	3.18
292.403	3.33
292.775	3.25
293.146	3.18
293.517	3.14
293.889	3.25
294.26	3.29
294.631	3.32
295.002	3.32
295.373	3.32
295.744	3.4
296.115	3.45
296.486	3.52
296.857	3.46
297.228	3.57
297.599	3.35
297.97	3.32
298.34	3.22
298.711	3.28
299.082	3.3
299.452	3.3
299.823	3.49
300.194	3.39
300.564	3.35
300.935	3.4
301.305	3.37
301.676	3.32
302.046	3.35
302.416	3.39
302.787	3.39
303.157	3.43
303.527	3.55
303.897	3.59
304.267	3.73
304.637	3.78
305.008	3.83
305.378	4.03
305.748	4.12
306.117	4.16
306.487	4.09
306.857	4.01
307.227	4.06
307.597	4.04
307.967	4.08
308.336	4.18
308.706	4.19
309.076	4.36
309.445	4.42
309.815	4.37
310.184	4.4
310.554	4.44
310.923	4.45
311.293	4.41
311.662	4.34
312.031	4.3
312.401	4.32
312.77	4.35
313.139	4.36
313.508	4.45
313.877	4.38
314.246	4.46
314.616	4.4
314.985	4.49
315.353	4.37
315.722	4.45
316.091	4.44
316.46	4.4
316.829	4.38
317.198	4.4
317.567	4.37
317.935	4.31
318.304	4.45
318.672	4.46
319.041	4.66
319.41	4.75
319.778	4.74
320.147	4.98
320.515	4.85
320.883	4.83
321.252	4.72
321.62	4.89
321.988	5.01
322.357	5.21
322.725	5.21
323.093	5.3
323.461	5.34
323.829	5.36
324.197	5.4
324.565	5.44
324.933	5.44
325.301	5.56
325.669	5.55
326.037	5.44
326.405	5.55
326.772	5.48
327.14	5.58
327.508	5.61
327.875	5.44
328.243	5.61
328.61	5.53
328.978	5.52
329.346	5.58
329.713	5.54
330.08	5.55
330.448	5.45
330.815	5.34
331.182	5.33
331.55	5.39
331.917	5.47
332.284	5.64
332.651	5.59
333.018	5.61
333.385	5.69
333.752	5.77
334.119	5.73
334.486	5.65
334.853	5.58
335.22	5.58
335.587	5.71
335.954	5.61
336.32	5.72
336.687	5.75
337.054	5.74
337.42	5.82
337.787	5.83
338.153	5.95
338.52	6.14
338.886	6.08
339.253	6.11
339.619	6.13
339.986	6.06
340.352	6.17
340.718	6.13
341.084	6.18
341.451	6.31
341.817	6.45
342.183	6.56
342.549	6.58
342.915	6.64
343.281	6.62
343.647	6.64
344.013	6.72
344.379	6.66
344.745	6.7
345.11	6.68
345.476	6.74
345.842	6.72
346.208	6.72
346.573	6.79
346.939	6.87
347.304	6.85
347.67	6.84
348.035	6.9
348.401	6.9
348.766	6.86
349.132	6.78
349.497	6.62
349.862	6.62
350.228	6.7
350.593	6.7
350.958	6.75
351.323	6.78
351.688	6.81
352.053	6.96
352.418	7.03
352.783	7.03
353.148	7.07
353.513	7.07
353.878	7.09
354.243	7.09
354.608	7.02
354.972	7.04
355.337	6.98
355.702	7.01
356.066	7.1
356.431	7.09
356.795	7.07
357.16	7.11
357.524	7.04
357.889	6.96
358.253	6.95
358.618	6.96
358.982	6.91
359.346	6.83
359.71	6.76
360.075	6.67
360.439	6.68
360.803	6.61
361.167	6.63
361.531	6.56
361.895	6.57
362.259	6.56
362.623	6.51
362.987	6.58
363.351	6.55
363.714	6.53
364.078	6.51
364.442	6.54
364.806	6.55
365.169	6.56
365.533	6.6
365.896	6.61
366.26	6.57
366.623	6.56
366.987	6.53
367.35	6.54
367.714	6.57
368.077	6.55
368.44	6.47
368.803	6.38
369.167	6.38
369.53	6.29
369.893	6.34
370.256	6.35
370.619	6.25
370.982	6.13
371.345	6.08
371.708	6.07
372.071	6
372.434	5.94
372.797	5.91
373.159	5.89
373.522	5.86
373.885	5.8
374.247	5.83
374.61	5.84
374.973	5.75
375.335	5.67
375.698	5.65
376.06	5.69
376.423	5.68
376.785	5.66
377.147	5.71
377.51	5.61
377.872	5.65
378.234	5.63
378.596	5.64
378.958	5.57
379.321	5.59
379.683	5.59
380.045	5.57
380.407	5.55
380.769	5.5
381.13	5.43
381.492	5.38
381.854	5.32
382.216	5.25
382.578	5.27
382.939	5.25
383.301	5.23
383.663	5.15
384.024	5.16
384.386	5.14
384.747	5.07
385.109	5.05
385.47	4.93
385.832	4.93
386.193	4.93
386.554	4.93
386.916	4.88
387.277	4.88
387.638	4.87
387.999	4.82
388.36	4.8
388.721	4.81
389.082	4.78
389.443	4.76
389.804	4.74
390.165	4.69
390.526	4.71
390.887	4.65
391.248	4.67
391.609	4.61
391.969	4.58
392.33	4.58
392.691	4.56
393.051	4.55
393.412	4.54
393.772	4.5
394.133	4.5
394.493	4.46
394.854	4.43
395.214	4.36
395.574	4.37
395.935	4.35
396.295	4.33
396.655	4.3
397.015	4.25
397.376	4.25
397.736	4.24
398.096	4.21
398.456	4.21
398.816	4.2
399.176	4.18
399.535	4.15
399.895	4.09
400.255	4.07
400.615	4.1
400.975	4.07
401.334	4.05
401.694	4.01
402.054	3.96
402.413	3.93
402.773	3.92
403.132	3.89
403.492	3.88
403.851	3.83
404.211	3.85
404.57	3.86
404.929	3.87
405.288	3.83
405.648	3.78
406.007	3.75
406.366	3.73
406.725	3.74
407.084	3.73
407.443	3.74
407.802	3.76
408.161	3.72
408.52	3.65
408.879	3.63
409.238	3.63
409.596	3.65
409.955	3.62
410.314	3.64
410.673	3.62
411.031	3.61
411.39	3.59
411.748	3.56
412.107	3.54
412.465	3.5
412.824	3.49
413.182	3.48
413.54	3.47
413.899	3.48
414.257	3.47
414.615	3.43
414.974	3.42
415.332	3.4
415.69	3.4
416.048	3.42
416.406	3.42
416.764	3.38
417.122	3.39
417.48	3.38
417.838	3.37
418.195	3.37
418.553	3.36
418.911	3.36
419.269	3.36
419.626	3.33
419.984	3.32
420.342	3.32
420.699	3.32
421.057	3.33
421.414	3.3
421.772	3.29
422.129	3.3
422.486	3.27
422.844	3.26
423.201	3.26
423.558	3.25
423.915	3.24
424.273	3.25
424.63	3.22
424.987	3.2
425.344	3.2
425.701	3.19
426.058	3.18
426.415	3.17
426.772	3.17
427.128	3.16
427.485	3.17
427.842	3.16
428.199	3.15
428.555	3.13
428.912	3.14
429.269	3.13
429.625	3.12
429.982	3.13
430.338	3.11
430.695	3.09
431.051	3.08
431.407	3.08
431.764	3.06
432.12	3.05
432.476	3.07
432.832	3.06
433.189	3.06
433.545	3.05
433.901	3.06
434.257	3.06
434.613	3.09
434.969	3.07
435.325	3.08
435.681	3.07
436.036	3.08
436.392	3.09
436.748	3.09
437.104	3.09
437.459	3.09
437.815	3.11
438.171	3.11
438.526	3.11
438.882	3.12
439.237	3.13
439.593	3.16
439.948	3.15
440.304	3.15
440.659	3.14
441.014	3.15
441.369	3.12
441.725	3.1
442.08	3.08
442.435	3.07
442.79	3.06
443.145	3.06
443.5	3.06
443.855	3.04
444.21	3.03
444.565	3.03
444.92	3.04
445.275	3.03
445.629	3.03
445.984	3.02
446.339	3
446.693	2.98
447.048	2.95
447.403	2.95
447.757	2.95
448.112	2.94
448.466	2.94
448.82	2.94
449.175	2.95
449.529	2.96
449.883	2.96
450.238	2.94
450.592	2.93
450.946	2.92
451.3	2.91
451.654	2.92
452.008	2.91
452.362	2.89
452.716	2.9
453.07	2.89
453.424	2.88
453.778	2.91
454.132	2.91
454.486	2.9
454.839	2.91
455.193	2.9
455.547	2.9
455.9	2.91
456.254	2.93
456.607	2.94
456.961	2.93
457.314	2.92
457.668	2.93
458.021	2.94
458.375	2.94
458.728	2.94
459.081	2.94
459.434	2.92
459.787	2.93
460.141	2.93
460.494	2.92
460.847	2.94
461.2	2.92
461.553	2.94
461.906	2.96
462.259	2.95
462.611	2.95
462.964	2.98
463.317	2.96
463.67	2.96
464.022	2.96
464.375	2.96
464.728	2.96
465.08	2.97
465.433	2.98
465.785	2.99
466.138	2.99
466.49	2.98
466.843	3.02
467.195	3.02
467.547	3.02
467.899	3.03
468.252	3.02
468.604	3.03
468.956	3
469.308	3.01
469.66	3
470.012	3.01
470.364	3.01
470.716	3.03
471.068	3.04
471.42	3.03
471.772	3.06
472.123	3.07
472.475	3.07
472.827	3.05
473.178	3.06
473.53	3.06
473.882	3.05
474.233	3.04
474.585	3.03
474.936	3.02
475.288	3.03
475.639	3.05
475.99	3.04
476.342	3.06
476.693	3.06
477.044	3.09
477.395	3.1
477.746	3.09
478.097	3.08
478.448	3.08
478.8	3.07
479.15	3.04
479.501	3.04
479.852	3.05
480.203	3.07
480.554	3.07
480.905	3.08
481.255	3.11
481.606	3.12
481.957	3.13
482.307	3.13
482.658	3.12
483.009	3.13
483.359	3.13
483.709	3.14
484.06	3.13
484.41	3.13
484.761	3.12
485.111	3.12
485.461	3.12
485.811	3.12
486.162	3.13
486.512	3.14
486.862	3.14
487.212	3.15
487.562	3.15
487.912	3.15
488.262	3.15
488.612	3.14
488.961	3.14
489.311	3.14
489.661	3.16
490.011	3.18
490.36	3.18
490.71	3.19
491.06	3.2
491.409	3.21
491.759	3.2
492.108	3.22
492.458	3.23
492.807	3.24
493.157	3.27
493.506	3.28
493.855	3.29
494.204	3.31
494.554	3.33
494.903	3.34
495.252	3.35
495.601	3.37
495.95	3.39
496.299	3.39
496.648	3.39
496.997	3.41
497.346	3.42
497.695	3.45
498.043	3.46
498.392	3.47
498.741	3.51
499.09	3.52
499.438	3.54
499.787	3.57
500.135	3.59
500.484	3.59
500.832	3.62
501.181	3.66
501.529	3.69
501.878	3.72
502.226	3.75
502.574	3.78
502.923	3.82
503.271	3.86
503.619	3.93
503.967	3.96
504.315	3.99
504.663	4.02
505.011	4.06
505.359	4.09
505.707	4.15
506.055	4.19
506.403	4.25
506.751	4.31
507.098	4.34
507.446	4.41
507.794	4.46
508.141	4.5
508.489	4.58
508.837	4.62
509.184	4.67
509.531	4.72
509.879	4.79
510.226	4.85
510.574	4.9
510.921	4.95
511.268	5.02
511.616	5.06
511.963	5.13
512.31	5.19
512.657	5.25
513.004	5.31
513.351	5.38
513.698	5.44
514.045	5.49
514.392	5.57
514.739	5.64
515.086	5.71
515.432	5.79
515.779	5.82
516.126	5.89
516.473	5.98
516.819	6.05
517.166	6.1
517.512	6.15
517.859	6.2
518.205	6.27
518.552	6.33
518.898	6.42
519.245	6.47
519.591	6.53
519.937	6.59
520.283	6.67
520.629	6.75
520.976	6.84
521.322	6.93
521.668	7.02
522.014	7.12
522.36	7.23
522.706	7.33
523.052	7.45
523.398	7.55
523.743	7.68
524.089	7.8
524.435	7.93
524.781	8.05
525.126	8.18
525.472	8.29
525.817	8.41
526.163	8.49
526.509	8.6
526.854	8.69
527.199	8.79
527.545	8.88
527.89	8.96
528.235	9.06
528.581	9.15
528.926	9.25
529.271	9.35
529.616	9.44
529.961	9.53
530.306	9.66
530.651	9.78
530.996	9.89
531.341	10.02
531.686	10.15
532.031	10.3
532.376	10.42
532.721	10.57
533.065	10.72
533.41	10.86
533.755	11.04
534.099	11.22
534.444	11.38
534.788	11.56
535.133	11.72
535.477	11.88
535.822	12.08
536.166	12.27
536.51	12.48
536.855	12.71
537.199	12.96
537.543	13.21
537.887	13.45
538.231	13.71
538.576	13.96
538.92	14.21
539.264	14.47
539.608	14.72
539.951	14.95
540.295	15.17
540.639	15.39
540.983	15.6
541.327	15.79
541.671	16
542.014	16.19
542.358	16.41
542.701	16.63
543.045	16.85
543.389	17.06
543.732	17.28
544.075	17.5
544.419	17.72
544.762	17.94
545.105	18.22
545.449	18.48
545.792	18.76
546.135	19.06
546.478	19.37
546.821	19.67
547.165	19.99
547.508	20.28
547.851	20.63
548.194	20.96
548.536	21.32
548.879	21.67
549.222	22.05
549.565	22.4
549.908	22.74
550.25	23.08
550.593	23.46
550.936	23.78
551.278	24.18
551.621	24.58
551.963	24.92
552.306	25.18
552.648	25.52
552.991	25.82
553.333	26.14
553.675	26.46
554.017	26.77
554.36	27.1
554.702	27.46
555.044	27.81
555.386	28.09
555.728	28.41
556.07	28.76
556.412	29.05
556.754	29.33
557.096	29.67
557.438	30.04
557.78	30.39
558.121	30.74
558.463	31.02
558.805	31.28
559.147	31.55
559.488	31.97
559.83	32.29
560.171	32.64
560.513	32.98
560.854	33.29
561.196	33.55
561.537	33.88
561.878	34.22
562.22	34.5
562.561	34.86
562.902	35.14
563.243	35.43
563.584	35.75
563.925	36.01
564.266	36.29
564.607	36.52
564.948	36.74
565.289	36.99
565.63	37.29
565.971	37.57
566.312	37.89
566.653	38.06
566.993	38.3
567.334	38.56
567.675	38.76
568.015	38.99
568.356	39.26
568.696	39.51
569.037	39.63
569.377	39.81
569.718	39.98
570.058	40.18
570.398	40.44
570.739	40.63
571.079	40.93
571.419	41.13
571.759	41.32
572.099	41.53
572.439	41.7
572.779	41.84
573.119	42.05
573.459	42.24
573.799	42.46
574.139	42.64
574.479	42.81
574.819	43.02
575.158	43.19
575.498	43.34
575.838	43.51
576.177	43.71
576.517	43.9
576.856	44.09
577.196	44.28
577.535	44.42
577.875	44.56
578.214	44.69
578.553	44.83
578.893	45.04
579.232	45.18
579.571	45.35
579.91	45.56
580.25	45.72
580.589	45.82
580.928	45.97
581.267	46.08
581.606	46.18
581.945	46.28
582.283	46.47
582.622	46.6
582.961	46.69
583.3	46.82
583.639	46.98
583.977	47.11
584.316	47.27
584.654	47.33
584.993	47.41
585.332	47.56
585.67	47.74
586.008	47.84
586.347	48
586.685	48.13
587.024	48.21
587.362	48.35
587.7	48.47
588.038	48.63
588.376	48.82
588.715	48.92
589.053	49.05
589.391	49.06
589.729	49.17
590.067	49.32
590.404	49.37
590.742	49.45
591.08	49.5
591.418	49.62
591.756	49.73
592.093	49.85
592.431	49.91
592.769	50.01
593.106	50.15
593.444	50.23
593.781	50.37
594.119	50.48
594.456	50.54
594.793	50.62
595.131	50.63
595.468	50.66
595.805	50.79
596.143	50.89
596.48	50.99
596.817	51.1
597.154	51.17
597.491	51.31
597.828	51.38
598.165	51.48
598.502	51.5
598.839	51.54
599.176	51.63
599.512	51.66
599.849	51.76
600.186	51.78
600.523	51.94
600.859	51.96
601.196	52.06
601.532	52.09
601.869	52.15
602.205	52.24
602.542	52.35
602.878	52.38
603.215	52.42
603.551	52.51
603.887	52.52
604.223	52.56
604.56	52.61
604.896	52.62
605.232	52.66
605.568	52.74
605.904	52.84
606.24	52.92
606.576	52.98
606.912	53.02
607.248	53.05
607.583	53.05
607.919	53.13
608.255	53.13
608.591	53.28
608.926	53.36
609.262	53.47
609.597	53.48
609.933	53.57
610.268	53.6
610.604	53.59
610.939	53.67
611.275	53.7
611.61	53.75
611.945	53.91
612.281	53.94
612.616	53.98
612.951	54.04
613.286	54.1
613.621	54.15
613.956	54.23
614.291	54.3
614.626	54.29
614.961	54.32
615.296	54.36
615.631	54.32
615.966	54.34
616.3	54.36
616.635	54.38
616.97	54.41
617.304	54.42
617.639	54.52
617.973	54.56
618.308	54.66
618.642	54.69
618.977	54.68
619.311	54.79
619.646	54.84
619.98	54.8
620.314	54.88
620.648	54.94
620.983	54.96
621.317	55
621.651	55.12
621.985	55.21
622.319	55.3
622.653	55.29
622.987	55.35
623.321	55.33
623.655	55.41
623.988	55.51
624.322	55.5
624.656	55.55
624.99	55.57
625.323	55.66
625.657	55.66
625.99	55.66
626.324	55.64
626.657	55.64
626.991	55.63
627.324	55.61
627.658	55.65
627.991	55.73
628.324	55.84
628.657	55.84
628.991	55.84
629.324	55.82
629.657	55.78
629.99	55.8
630.323	55.83
630.656	55.81
630.989	55.81
631.322	55.88
631.655	55.91
631.987	55.94
632.32	55.83
632.653	55.88
632.986	55.92
633.318	55.97
633.651	56.03
633.984	56.16
634.316	56.17
634.649	56.13
634.981	56.06
635.313	56.01
635.646	56.03
635.978	56.12
636.31	56.13
636.643	56.3
636.975	56.37
637.307	56.33
637.639	56.41
637.971	56.27
638.303	56.33
638.635	56.23
638.967	56.19
639.299	56.28
639.631	56.25
639.963	56.26
640.295	56.39
640.626	56.47
640.958	56.54
641.29	56.61
641.621	56.69
641.953	56.73
642.285	56.75
642.616	56.77
642.948	56.69
643.279	56.76
643.61	56.79
643.942	56.85
644.273	57.05
644.604	57.03
644.936	57.15
645.267	57.23
645.598	57.28
645.929	57.49
646.26	57.57
646.591	57.64
646.922	57.64
647.253	57.59
647.584	57.54
647.915	57.6
648.245	57.57
648.576	57.64
648.907	57.65
649.238	57.79
649.568	57.82
649.899	57.9
650.229	57.95
650.56	57.96
650.89	57.89
651.221	57.72
651.551	57.7
651.882	57.78
652.212	57.71
652.542	57.71
652.872	57.72
653.203	57.62
653.533	57.62
653.863	57.62
654.193	57.59
654.523	57.65
654.853	57.57
655.183	57.64
655.513	57.69
655.843	57.8
656.172	57.71
656.502	57.66
656.832	57.6
657.162	57.61
657.491	57.58
657.821	57.69
658.15	57.86
658.48	57.89
658.809	57.89
659.139	57.94
659.468	57.96
659.798	57.94
660.127	57.95
660.456	58.12
660.785	58.15
661.115	58.16
661.444	58.16
661.773	58.19
662.102	58.19
662.431	58.21
662.76	58.28
663.089	58.27
663.418	58.42
663.747	58.49
664.076	58.54
664.404	58.51
664.733	58.39
665.062	58.32
665.39	58.36
665.719	58.43
666.048	58.42
666.376	58.44
666.705	58.54
667.033	58.42
667.362	58.26
667.69	58.36
668.018	58.31
668.347	58.28
668.675	58.36
669.003	58.39
669.331	58.29
669.659	58.17
669.987	58.2
670.315	58.08
670.643	58.09
670.971	58.04
671.299	58.17
671.627	58.28
671.955	58.41
672.283	58.46
672.61	58.33
672.938	58.25
673.266	58.24
673.593	58.18
673.921	58.5
674.249	58.59
674.576	58.53
674.904	58.64
675.231	58.64
675.558	58.56
675.886	58.5
676.213	58.55
676.54	58.67
676.867	58.77
677.195	58.68
677.522	58.7
677.849	58.8
678.176	58.74
678.503	58.7
678.83	58.53
679.157	58.39
679.484	58.47
679.81	58.57
680.137	58.63
680.464	58.67
680.791	58.58
681.117	58.62
681.444	58.63
681.771	58.78
682.097	58.8
682.424	58.88
682.75	58.86
683.077	58.96
683.403	58.92
683.729	58.86
684.056	58.91
684.382	58.83
684.708	58.75
685.034	58.63
685.36	58.8
685.686	58.92
686.012	59.08
686.339	59.17
686.664	59.18
686.99	59.16
687.316	59.04
687.642	59.07
687.968	59.07
688.294	59.11
688.619	58.99
688.945	58.92
689.271	58.94
689.596	59.01
689.922	58.96
690.247	58.91
690.573	59.07
690.898	59.13
691.224	59.38
691.549	59.36
691.874	59.65
692.2	59.54
692.525	59.5
692.85	59.46
693.175	59.39
693.5	59.3
693.825	59.36
694.15	59.32
694.475	59.31
694.8	59.34
695.125	59.16
695.45	59.21
695.775	59.23
696.099	59.22
696.424	59.14
696.749	59.13
697.073	59.14
697.398	58.98
697.723	59.02
698.047	58.87
698.372	59.16
698.696	59.08
699.02	59.14
699.345	59.17
699.669	59.15
699.993	59.15
700.318	59.26
700.642	59.22
700.966	59.31
701.29	59.23
701.614	59.11
701.938	59.23
702.262	59.29
702.586	59.5
702.91	59.48
703.234	59.59
703.557	59.5
703.881	59.66
704.205	59.58
704.529	59.52
704.852	59.57
705.176	59.26
705.499	59.22
705.823	59.22
706.146	59.31
706.47	59.42
706.793	59.47
707.117	59.59
707.44	59.52
707.763	59.48
708.086	59.49
708.409	59.56
708.733	59.53
709.056	59.44
709.379	59.18
709.702	59.11
710.025	59.24
710.348	59.48
710.671	59.37
710.993	59.56
711.316	59.68
711.639	59.74
711.962	59.77
712.284	59.91
712.607	59.86
712.93	59.81
713.252	59.88
713.575	59.65
713.897	59.65
714.22	59.85
714.542	60.03
714.864	60.12
715.187	60.15
715.509	60.43
715.831	60.4
716.153	60.3
716.475	60.24
716.798	60.11
717.12	59.91
717.442	59.93
717.764	59.96
718.085	59.9
718.407	59.8
718.729	59.64
719.051	59.22
719.373	59.41
719.695	59.31
720.016	59.31
720.338	59.74
720.659	59.63
720.981	59.6
721.302	59.49
721.624	59.47
721.945	59.44
722.267	59.43
722.588	59.43
722.909	59.63
723.231	59.79
723.552	59.73
723.873	59.9
724.194	59.85
724.515	59.69
724.836	59.82
725.157	59.99
725.478	60.1
725.799	60.56
726.12	60.35
726.441	60.57
726.762	60.74
727.083	60.47
727.403	60.45
727.724	60.45
728.045	60.5
728.365	60.44
728.686	60.46
729.006	60.4
729.327	60.43
729.647	60.54
729.967	60.46
730.288	60.69
730.608	60.43
730.928	60.39
731.249	60.56
731.569	60.55
731.889	60.59
732.209	60.61
732.529	60.35
732.849	60.34
733.169	60.21
733.489	59.85
733.809	59.77
734.129	60.08
734.448	60.01
734.768	59.88
735.088	59.96
735.408	59.91
735.727	59.84
736.047	59.9
736.366	59.81
736.686	59.68
737.005	59.55
737.325	59.64
737.644	59.68
737.963	59.57
738.283	59.54
738.602	59.35
738.921	59.33
739.24	59.67
739.56	59.8
739.879	59.77
740.198	60.09
740.517	60.26
740.836	59.88
741.155	59.92
741.473	59.96
741.792	59.78
742.111	59.76
742.43	59.51
742.748	59.38
743.067	59.37
743.386	59.63
743.704	59.69
744.023	59.9
744.341	60.03
744.66	60
744.978	59.94
745.297	60.16
745.615	60.14
745.933	60.1
746.252	60.17
746.57	60.09
746.888	59.84
747.206	59.83
747.524	59.89
747.842	59.56
748.16	59.61
748.478	59.96
748.796	59.97
749.114	60.2
749.432	60.2
749.749	60.57
750.067	60.72
750.385	60.69
750.703	60.64
751.02	60.15
751.338	60.29
751.655	60.61
751.973	60.7
752.29	60.79
752.608	60.65
752.925	60.56
753.242	60.96
753.56	61.03
753.877	60.87
754.194	60.66
754.511	61.1
754.828	61.25
755.145	61.09
755.462	61.08
755.779	61
756.096	61.15
756.413	61.19
756.73	60.93
757.047	61.15
757.364	60.95
757.68	61.26
757.997	61.03
758.314	61.09
758.63	61.06
758.947	61.42
759.264	61.55
759.58	61.47
759.896	61.36
760.213	61.62
760.529	61.58
760.846	61.88
761.162	61.98
761.478	61.68
761.794	61.65
762.11	61.59
762.426	61.54
762.743	61.57
763.059	61.41
763.375	61.61
763.69	61.68
764.006	61.69
764.322	61.91
764.638	61.98
764.954	61.77
765.27	61.5
765.585	61.14
765.901	61.23
766.216	61.07
766.532	60.74
766.848	60.4
767.163	60.75
767.478	60.39
767.794	60.24
768.109	60.26
768.424	60.36
768.74	60.55
769.055	60.68
769.37	60.99
769.685	60.76
770	60.54
770.315	60.21
770.63	60.46
770.945	60.22
771.26	60.64
771.575	60.69
771.89	61.05
772.205	61.54
772.52	61.45
772.834	61.54
773.149	61.94
773.464	62.06
773.778	62.32
774.093	62.76
774.407	62.86
774.722	63.42
775.036	63.46
775.351	63.55
775.665	63.8
775.979	63.27
776.293	63.83
776.608	63.82
776.922	63.92
777.236	63.68
777.55	63.9
777.864	63.62
778.178	63.45
778.492	63.57
778.806	63.44
779.12	63.22
779.434	63.46
779.747	63.24
780.061	63.94
780.375	63.46
780.689	63.28
781.002	63.11
781.316	62.85
781.629	62.53
781.943	62.61
782.256	62.02
782.57	62.23
782.883	61.72
783.196	61.66
783.51	61.5
783.823	61.46
784.136	61.32
784.449	61.52
784.762	62.13
785.075	61.76
785.388	61.52
785.701	61.35
786.014	61.34
786.327	61.26
786.64	60.59
786.953	60.35
787.266	60.25
787.578	60.34
787.891	60.49
788.204	61.14
788.516	60.85
788.829	61.24
789.141	61.24
789.454	61.55
789.766	61.61
790.079	61.1
790.391	61.06
790.703	61.34
791.016	61.41
791.328	61.15
791.64	61.32
791.952	60.97
792.264	61.36
792.576	61.5
792.888	62.1
793.2	62.56
793.512	62.89
793.824	63.27
794.136	62.89
794.448	62.98
794.76	62.68
795.071	62.56
795.383	62
795.695	62.18
796.006	61.83
796.318	62.21
796.629	63.17
796.941	63.36
797.252	62.81
797.564	62.8
797.875	62.74
798.186	62.36
798.497	63.05
798.809	62.22
799.12	61.79
799.431	61.59
799.742	60.86
800.053	61.05
800.364	60.63
800.675	60.48
800.986	60.3
801.297	60.08
801.608	60.17
801.918	60.14
802.229	59.91
802.54	59.98
802.851	60.28
803.161	60.03
803.472	59.96
803.782	60.21
804.093	59.65
804.403	59.58
804.714	59.69
805.024	59.01
805.334	60.21
805.645	60.35
805.955	60.4
806.265	61.23
806.575	60.82
806.885	61.03
807.195	61.16
807.505	61.35
807.815	61.44
808.125	61.3
808.435	61.38
808.745	60.82
809.055	61.05
809.365	60.49
809.674	61.39
809.984	61.7
810.294	61.45
810.603	61.61
810.913	61.83
811.222	62.05
811.532	62.43
811.841	62.32
812.151	62.61
812.46	62.6
812.769	61.6
813.079	61.41
813.388	61.08
813.697	61.51
814.006	61.21
814.315	60.96
814.624	61.35
814.933	62.34
815.242	62.88
815.551	63.62
815.86	63.6
816.169	62.53
816.478	61.96
816.786	62.16
817.095	62.07
817.404	61.84
817.712	61.71
818.021	61.78
818.33	61.95
818.638	61.03
818.947	60.81
819.255	61.4
819.563	61.64
819.872	61.95
820.18	61.83
820.488	62.08
820.796	62.18
821.105	62.17
821.413	61.95
821.721	61.94
822.029	61.77
822.337	61.75
822.645	61.85
822.953	62.06
823.26	62.05
823.568	61.83
823.876	61.73
824.184	61.83
824.491	61.83
824.799	61.66
825.107	61.98
825.414	62.05
825.722	62.15
826.029	62.28
826.337	62.12
826.644	62.42
826.951	62.3
827.259	62.24
827.566	62.28
827.873	62.44
828.18	62.4
828.488	62.33
828.795	62.52
829.102	62.35
829.409	62.27
829.716	62.13
830.023	62.57
830.329	62.76
830.636	62.79
830.943	62.85
831.25	62.83
831.557	62.4
831.863	62.63
832.17	62.3
832.476	62.21
832.783	62.49
833.089	62.22
833.396	62.13
833.702	62.52
834.009	62.61
834.315	62.51
834.621	62.73
834.928	62.53
835.234	62.29
835.54	62.48
835.846	62.36
836.152	62.44
836.458	62.52
836.764	62.5
837.07	62.09
837.376	62.34
837.682	62.93
837.988	63.25
838.293	62.95
838.599	62.9
838.905	63.44
839.211	63.62
839.516	63.38
839.822	63.53
840.127	63.07
840.433	62.56
840.738	62.69
841.044	62.32
841.349	62.87
841.654	62.86
841.959	62.85
842.265	62.67
842.57	63.74
842.875	63.95
843.18	64.74
843.485	65.31
843.79	65.38
844.095	65.05
844.4	65.15
844.705	66.7
845.01	67.9
845.315	65.24
845.619	65.24
845.924	65.57
846.229	65.49
846.533	65.89
846.838	66.35
847.142	65.95
847.447	66.59
847.751	67.48
848.056	68.64
848.36	68.46
848.664	70.48
848.969	69.8
849.273	70.84
849.577	70.69
849.881	70.76
850.185	70.93
850.489	70.41
850.794	71.07
851.097	69.67
851.401	67.74
851.705	69.82
852.009	70.68
852.313	69.27
852.617	69.35
852.92	68.76
853.224	70.06
853.528	71.37
853.831	70.51
854.135	69.03
854.438	67.49
854.742	67.4
855.045	62.59
855.349	62.71
855.652	60.06
855.955	58.59
856.259	60
856.562	57.01
856.865	56.03
857.168	56.26
857.471	57.53
857.774	58.59
858.077	56.6
858.38	55.93
858.683	58.11
858.986	58.79
859.289	60.62
859.592	57.68
859.894	55.62
860.197	56.88
860.5	58.37
860.802	57.52
861.105	59.97
861.407	62.51
861.71	62.42
862.012	61.72
862.315	62.4
862.617	62.48
862.919	64
863.222	65.28
863.524	65.45
863.826	65
864.128	63.9
864.43	65.17
864.732	66.73
865.034	65.32
865.336	65.37
865.638	62.12
865.94	64.67
866.242	68.13
866.544	68.08
866.846	68.13
867.147	68.53
867.449	65.62
867.751	64.68
868.052	65.92
868.354	68.8
868.655	68.75
868.957	67.74
869.258	70.09
869.56	71.04
869.861	71.15
870.162	68.52
870.463	68.06
870.765	69.82
871.066	64.54
871.367	64.51
871.668	63.72
871.969	65.82
872.27	65.74
872.571	64.67
872.872	67.86
873.173	66.74
873.473	66.11
873.774	62.74
874.075	65.29
874.376	65.03
874.676	65.31
874.977	66.91
875.277	65.73
875.578	66.6
875.878	65.11
876.179	64.4
876.479	64.76
876.78	66.32
877.08	65.95
877.38	70.1
877.68	70.76
877.981	72.26
878.281	71.91
878.581	71.7
