Data from BA28474_Reflection_00009.txt Node
Date: Mon Nov 18 15:30:49 EST 2019
User: vgr7
Spectrometer: USB2G7710
Scans to average: 3
Trigger mode: 4
Integration Time (sec): 2.000000E-2
Electric dark correction enabled: true
Boxcar width: 10
XAxis mode: Wavelengths
Number of Pixels in Spectrum: 2048
>>>>>Begin Spectral Data<<<<<
177.721	87.89
178.105	5.03
178.488	-9.52
178.871	-30.81
179.254	-168.66
179.636	42.75
180.019	100
180.402	117.78
180.785	-43.43
181.168	44.03
181.55	-20.6
181.933	164.86
182.316	55.2
182.698	23.21
183.081	-3.37
183.463	-7.88
183.846	77.7
184.228	1433.33
184.611	-3.23
184.993	-5.26
185.376	39.64
185.758	34.52
186.14	-1.61
186.522	-13.88
186.904	-7.75
187.287	-37.35
187.669	12.15
188.051	34.49
188.433	55.63
188.815	26.73
189.197	41.71
189.579	104.21
189.961	42.23
190.342	45.23
190.724	54.51
191.106	41.24
191.488	48.33
191.869	56.97
192.251	66.77
192.633	67.79
193.014	52.89
193.396	65.1
193.777	75.58
194.159	64.5
194.54	78.47
194.922	54.51
195.303	72.36
195.684	41.73
196.065	40.12
196.447	34.01
196.828	47.61
197.209	35.6
197.59	34.7
197.971	31.09
198.352	28.41
198.733	12.77
199.114	30.52
199.495	44.22
199.876	47.88
200.257	32.15
200.638	43.23
201.018	30.32
201.399	19.93
201.78	28.74
202.16	23.75
202.541	21.33
202.922	31.86
203.302	-26.88
203.683	-5.48
204.063	-16.96
204.444	-20.22
204.824	-0.52
205.204	22.15
205.585	1.53
205.965	48.39
206.345	3.88
206.725	0.99
207.106	-34.11
207.486	-75.44
207.866	-314.41
208.246	-62.16
208.626	-93.83
209.006	20.72
209.386	8.26
209.766	1.64
210.145	-6.91
210.525	-12.62
210.905	6.66
211.285	23.95
211.664	19.87
212.044	12.98
212.424	22.52
212.803	11.14
213.183	-4.85
213.562	-2.25
213.942	8.89
214.321	29.59
214.701	29.88
215.08	35.94
215.459	52.64
215.838	49.64
216.218	39.5
216.597	44.84
216.976	53.09
217.355	49.12
217.734	51.67
218.113	78.25
218.492	93.39
218.871	88.34
219.25	85.93
219.629	88.66
220.008	85.26
220.387	74.78
220.766	83.45
221.144	98.27
221.523	77.64
221.902	58.23
222.28	51.26
222.659	40.65
223.037	49.1
223.416	37.4
223.794	33.88
224.173	51.52
224.551	43.35
224.929	32.2
225.308	34.13
225.686	29.89
226.064	22.28
226.442	18.81
226.821	18.55
227.199	18.73
227.577	15.53
227.955	14.85
228.333	10.84
228.711	11.79
229.089	12.02
229.467	12.18
229.845	11
230.222	10.49
230.6	11.09
230.978	5.92
231.356	5.23
231.733	1.94
232.111	2.41
232.488	0.16
232.866	0.11
233.243	-0.82
233.621	-3.81
233.998	-0.5
234.376	-0.69
234.753	-0.13
235.13	1.26
235.508	3.07
235.885	2.4
236.262	4.64
236.639	3.97
237.016	4.91
237.393	6.93
237.77	6.89
238.147	6.43
238.524	6.62
238.901	8.06
239.278	8.64
239.655	10.47
240.032	9.61
240.409	9.48
240.785	9.18
241.162	8.58
241.539	8.64
241.915	7.85
242.292	7.76
242.668	7.54
243.045	7.2
243.421	6.65
243.798	6.6
244.174	6.22
244.551	5.87
244.927	5.95
245.303	5.85
245.679	5.83
246.056	5.86
246.432	5.67
246.808	5.71
247.184	5.53
247.56	5.17
247.936	5.12
248.312	5.12
248.688	5.12
249.064	5.18
249.44	5.19
249.815	5.15
250.191	5.08
250.567	5.11
250.943	4.96
251.318	5.19
251.694	5.34
252.069	5.26
252.445	5.5
252.82	5.35
253.196	5.28
253.571	5.45
253.947	5.81
254.322	6.2
254.697	5.92
255.073	5.6
255.448	5.44
255.823	5.37
256.198	5.19
256.573	4.99
256.948	4.94
257.323	5
257.698	5.01
258.073	5.07
258.448	4.93
258.823	5.03
259.198	4.73
259.573	4.66
259.948	4.68
260.322	4.6
260.697	4.62
261.072	4.43
261.446	4.38
261.821	4.23
262.195	3.93
262.57	3.83
262.944	3.9
263.319	3.85
263.693	3.83
264.067	3.98
264.442	4.16
264.816	4.25
265.19	4.1
265.564	3.98
265.938	3.81
266.313	3.81
266.687	3.69
267.061	3.96
267.435	4.05
267.809	4.16
268.183	4.15
268.556	4
268.93	4.04
269.304	4.09
269.678	3.97
270.051	4.1
270.425	4.15
270.799	4.17
271.172	4.21
271.546	4.36
271.919	4.34
272.293	4.14
272.666	4.14
273.04	4.21
273.413	4.26
273.787	4.24
274.16	4.14
274.533	4.1
274.906	4.06
275.279	3.96
275.653	3.84
276.026	3.91
276.399	3.86
276.772	4.01
277.145	3.85
277.518	3.79
277.891	3.74
278.263	3.65
278.636	3.76
279.009	3.74
279.382	3.74
279.755	3.67
280.127	3.85
280.5	3.91
280.872	3.99
281.245	3.91
281.617	4.16
281.99	4.36
282.362	4.25
282.735	4.11
283.107	4.05
283.479	4.14
283.852	4.12
284.224	4.24
284.596	4.18
284.968	4.23
285.34	4.36
285.713	4.59
286.085	4.75
286.457	4.77
286.829	4.81
287.201	4.67
287.572	4.6
287.944	4.57
288.316	4.44
288.688	4.42
289.06	4.53
289.431	4.46
289.803	4.43
290.175	4.61
290.546	4.76
290.918	4.91
291.289	4.97
291.661	4.99
292.032	5.01
292.403	5.23
292.775	5.3
293.146	5.35
293.517	5.11
293.889	5.17
294.26	5.17
294.631	5.29
295.002	5.3
295.373	5.4
295.744	5.33
296.115	5.4
296.486	5.4
296.857	5.34
297.228	5.33
297.599	5.29
297.97	5.26
298.34	5.26
298.711	5.31
299.082	5.33
299.452	5.32
299.823	5.47
300.194	5.45
300.564	5.54
300.935	5.54
301.305	5.77
301.676	5.68
302.046	5.74
302.416	5.9
302.787	6.07
303.157	6.13
303.527	6.28
303.897	6.35
304.267	6.61
304.637	6.71
305.008	6.89
305.378	7.09
305.748	7.21
306.117	7.21
306.487	7.08
306.857	7.09
307.227	7.1
307.597	6.94
307.967	6.93
308.336	6.87
308.706	6.87
309.076	6.79
309.445	6.87
309.815	6.88
310.184	6.73
310.554	6.67
310.923	6.66
311.293	6.8
311.662	6.85
312.031	6.68
312.401	6.67
312.77	6.77
313.139	6.84
313.508	6.92
313.877	6.98
314.246	7.12
314.616	7.13
314.985	7.19
315.353	7.42
315.722	7.48
316.091	7.54
316.46	7.64
316.829	7.8
317.198	7.89
317.567	8.03
317.935	8.05
318.304	8.26
318.672	8.47
319.041	8.67
319.41	8.8
319.778	8.93
320.147	9.19
320.515	9.18
320.883	9.27
321.252	9.21
321.62	9.29
321.988	9.38
322.357	9.48
322.725	9.61
323.093	9.63
323.461	9.74
323.829	9.87
324.197	9.96
324.565	10.03
324.933	10.11
325.301	10.1
325.669	10.21
326.037	10.13
326.405	10.26
326.772	10.22
327.14	10.3
327.508	10.4
327.875	10.29
328.243	10.26
328.61	10.13
328.978	10.28
329.346	10.46
329.713	10.38
330.08	10.43
330.448	10.46
330.815	10.36
331.182	10.37
331.55	10.38
331.917	10.35
332.284	10.41
332.651	10.41
333.018	10.45
333.385	10.68
333.752	10.85
334.119	10.77
334.486	10.63
334.853	10.6
335.22	10.57
335.587	10.77
335.954	10.83
336.32	10.77
336.687	10.9
337.054	10.89
337.42	11.06
337.787	11.17
338.153	11.22
338.52	11.33
338.886	11.29
339.253	11.29
339.619	11.38
339.986	11.47
340.352	11.5
340.718	11.48
341.084	11.38
341.451	11.31
341.817	11.35
342.183	11.48
342.549	11.58
342.915	11.64
343.281	11.6
343.647	11.55
344.013	11.67
344.379	11.61
344.745	11.67
345.11	11.61
345.476	11.63
345.842	11.68
346.208	11.74
346.573	11.79
346.939	11.85
347.304	11.79
347.67	11.63
348.035	11.63
348.401	11.66
348.766	11.66
349.132	11.76
349.497	11.7
349.862	11.77
350.228	11.67
350.593	11.65
350.958	11.58
351.323	11.62
351.688	11.66
352.053	11.66
352.418	11.68
352.783	11.7
353.148	11.66
353.513	11.58
353.878	11.55
354.243	11.61
354.608	11.55
354.972	11.61
355.337	11.66
355.702	11.76
356.066	11.86
356.431	11.89
356.795	11.95
357.16	11.99
357.524	11.83
357.889	11.83
358.253	11.78
358.618	11.82
358.982	11.8
359.346	11.73
359.71	11.67
360.075	11.61
360.439	11.56
360.803	11.51
361.167	11.51
361.531	11.46
361.895	11.37
362.259	11.28
362.623	11.32
362.987	11.34
363.351	11.24
363.714	11.09
364.078	11
364.442	10.9
364.806	10.82
365.169	10.93
365.533	10.9
365.896	10.93
366.26	10.87
366.623	10.85
366.987	10.84
367.35	10.85
367.714	10.78
368.077	10.74
368.44	10.8
368.803	10.77
369.167	10.71
369.53	10.64
369.893	10.72
370.256	10.62
370.619	10.54
370.982	10.5
371.345	10.5
371.708	10.43
372.071	10.35
372.434	10.32
372.797	10.13
373.159	10.09
373.522	10.03
373.885	10.05
374.247	9.94
374.61	9.92
374.973	9.85
375.335	9.78
375.698	9.74
376.06	9.61
376.423	9.51
376.785	9.47
377.147	9.45
377.51	9.31
377.872	9.25
378.234	9.19
378.596	9.09
378.958	9
379.321	8.94
379.683	8.9
380.045	8.8
380.407	8.75
380.769	8.65
381.13	8.55
381.492	8.48
381.854	8.42
382.216	8.29
382.578	8.2
382.939	8.11
383.301	8.04
383.663	7.93
384.024	7.86
384.386	7.82
384.747	7.75
385.109	7.75
385.47	7.64
385.832	7.63
386.193	7.59
386.554	7.55
386.916	7.49
387.277	7.43
387.638	7.44
387.999	7.41
388.36	7.36
388.721	7.33
389.082	7.23
389.443	7.16
389.804	7.14
390.165	7.11
390.526	7.13
390.887	7.12
391.248	7.13
391.609	7.13
391.969	7.11
392.33	7.08
392.691	7.05
393.051	7.03
393.412	6.97
393.772	6.9
394.133	6.83
394.493	6.79
394.854	6.76
395.214	6.69
395.574	6.61
395.935	6.54
396.295	6.52
396.655	6.5
397.015	6.46
397.376	6.4
397.736	6.33
398.096	6.26
398.456	6.23
398.816	6.14
399.176	6.04
399.535	5.98
399.895	5.91
400.255	5.83
400.615	5.78
400.975	5.71
401.334	5.68
401.694	5.66
402.054	5.64
402.413	5.58
402.773	5.52
403.132	5.5
403.492	5.5
403.851	5.46
404.211	5.45
404.57	5.43
404.929	5.41
405.288	5.4
405.648	5.34
406.007	5.29
406.366	5.27
406.725	5.28
407.084	5.3
407.443	5.27
407.802	5.27
408.161	5.27
408.52	5.25
408.879	5.24
409.238	5.25
409.596	5.26
409.955	5.24
410.314	5.24
410.673	5.21
411.031	5.17
411.39	5.17
411.748	5.13
412.107	5.12
412.465	5.09
412.824	5.08
413.182	5.07
413.54	5.05
413.899	5.04
414.257	5
414.615	4.9
414.974	4.88
415.332	4.84
415.69	4.78
416.048	4.75
416.406	4.72
416.764	4.66
417.122	4.63
417.48	4.62
417.838	4.59
418.195	4.59
418.553	4.57
418.911	4.53
419.269	4.49
419.626	4.46
419.984	4.43
420.342	4.4
420.699	4.38
421.057	4.35
421.414	4.34
421.772	4.33
422.129	4.32
422.486	4.29
422.844	4.27
423.201	4.25
423.558	4.24
423.915	4.23
424.273	4.22
424.63	4.18
424.987	4.15
425.344	4.14
425.701	4.11
426.058	4.1
426.415	4.09
426.772	4.08
427.128	4.06
427.485	4.06
427.842	4.04
428.199	4.05
428.555	4.02
428.912	4.01
429.269	3.99
429.625	3.97
429.982	3.99
430.338	3.98
430.695	3.98
431.051	3.98
431.407	3.97
431.764	3.97
432.12	3.98
432.476	3.98
432.832	3.96
433.189	3.96
433.545	3.95
433.901	3.94
434.257	3.94
434.613	3.93
434.969	3.93
435.325	3.94
435.681	3.93
436.036	3.94
436.392	3.93
436.748	3.91
437.104	3.91
437.459	3.91
437.815	3.92
438.171	3.92
438.526	3.92
438.882	3.92
439.237	3.92
439.593	3.92
439.948	3.94
440.304	3.95
440.659	3.94
441.014	3.95
441.369	3.95
441.725	3.94
442.08	3.95
442.435	3.95
442.79	3.94
443.145	3.93
443.5	3.92
443.855	3.92
444.21	3.93
444.565	3.93
444.92	3.92
445.275	3.89
445.629	3.88
445.984	3.87
446.339	3.87
446.693	3.85
447.048	3.84
447.403	3.8
447.757	3.78
448.112	3.76
448.466	3.74
448.82	3.73
449.175	3.72
449.529	3.7
449.883	3.69
450.238	3.66
450.592	3.64
450.946	3.63
451.3	3.61
451.654	3.6
452.008	3.59
452.362	3.58
452.716	3.59
453.07	3.58
453.424	3.56
453.778	3.55
454.132	3.56
454.486	3.54
454.839	3.54
455.193	3.55
455.547	3.57
455.9	3.57
456.254	3.57
456.607	3.58
456.961	3.58
457.314	3.59
457.668	3.59
458.021	3.61
458.375	3.61
458.728	3.63
459.081	3.63
459.434	3.62
459.787	3.64
460.141	3.63
460.494	3.64
460.847	3.66
461.2	3.66
461.553	3.68
461.906	3.7
462.259	3.71
462.611	3.73
462.964	3.76
463.317	3.77
463.67	3.78
464.022	3.79
464.375	3.81
464.728	3.82
465.08	3.85
465.433	3.86
465.785	3.89
466.138	3.91
466.49	3.92
466.843	3.94
467.195	3.94
467.547	3.97
467.899	3.98
468.252	3.97
468.604	4.01
468.956	4.03
469.308	4.03
469.66	4.04
470.012	4.05
470.364	4.04
470.716	4.06
471.068	4.06
471.42	4.08
471.772	4.1
472.123	4.13
472.475	4.14
472.827	4.17
473.178	4.18
473.53	4.17
473.882	4.16
474.233	4.18
474.585	4.17
474.936	4.16
475.288	4.17
475.639	4.21
475.99	4.18
476.342	4.17
476.693	4.18
477.044	4.18
477.395	4.19
477.746	4.16
478.097	4.13
478.448	4.12
478.8	4.1
479.15	4.08
479.501	4.06
479.852	4.03
480.203	4.01
480.554	3.99
480.905	4
481.255	4
481.606	4.01
481.957	4.01
482.307	4
482.658	3.99
483.009	3.98
483.359	3.98
483.709	3.98
484.06	3.97
484.41	3.96
484.761	3.96
485.111	3.97
485.461	3.97
485.811	3.97
486.162	3.96
486.512	3.98
486.862	3.96
487.212	3.97
487.562	3.98
487.912	3.98
488.262	3.99
488.612	3.99
488.961	3.99
489.311	4
489.661	4
490.011	4.01
490.36	4.01
490.71	4.01
491.06	4.02
491.409	4.04
491.759	4.05
492.108	4.06
492.458	4.07
492.807	4.08
493.157	4.11
493.506	4.14
493.855	4.15
494.204	4.18
494.554	4.22
494.903	4.24
495.252	4.27
495.601	4.3
495.95	4.34
496.299	4.37
496.648	4.39
496.997	4.45
497.346	4.51
497.695	4.56
498.043	4.63
498.392	4.65
498.741	4.71
499.09	4.74
499.438	4.8
499.787	4.86
500.135	4.93
500.484	4.99
500.832	5.04
501.181	5.1
501.529	5.17
501.878	5.24
502.226	5.33
502.574	5.4
502.923	5.45
503.271	5.53
503.619	5.6
503.967	5.7
504.315	5.75
504.663	5.83
505.011	5.93
505.359	6
505.707	6.13
506.055	6.23
506.403	6.35
506.751	6.45
507.098	6.53
507.446	6.64
507.794	6.75
508.141	6.86
508.489	6.96
508.837	7.08
509.184	7.17
509.531	7.25
509.879	7.35
510.226	7.46
510.574	7.56
510.921	7.68
511.268	7.76
511.616	7.9
511.963	8.01
512.31	8.11
512.657	8.23
513.004	8.34
513.351	8.48
513.698	8.62
514.045	8.75
514.392	8.91
514.739	9.02
515.086	9.15
515.432	9.27
515.779	9.4
516.126	9.53
516.473	9.7
516.819	9.85
517.166	10.01
517.512	10.16
517.859	10.28
518.205	10.4
518.552	10.57
518.898	10.68
519.245	10.81
519.591	10.94
519.937	11.08
520.283	11.23
520.629	11.36
520.976	11.52
521.322	11.71
521.668	11.88
522.014	12.06
522.36	12.25
522.706	12.48
523.052	12.69
523.398	12.93
523.743	13.12
524.089	13.33
524.435	13.52
524.781	13.74
525.126	13.94
525.472	14.14
525.817	14.31
526.163	14.48
526.509	14.65
526.854	14.81
527.199	14.96
527.545	15.11
527.89	15.26
528.235	15.41
528.581	15.56
528.926	15.72
529.271	15.89
529.616	16.06
529.961	16.21
530.306	16.39
530.651	16.55
530.996	16.75
531.341	16.96
531.686	17.18
532.031	17.39
532.376	17.62
532.721	17.84
533.065	18.07
533.41	18.31
533.755	18.55
534.099	18.82
534.444	19.07
534.788	19.32
535.133	19.58
535.477	19.85
535.822	20.11
536.166	20.39
536.51	20.69
536.855	21.03
537.199	21.38
537.543	21.75
537.887	22.12
538.231	22.48
538.576	22.84
538.92	23.19
539.264	23.53
539.608	23.86
539.951	24.18
540.295	24.48
540.639	24.78
540.983	25.06
541.327	25.33
541.671	25.59
542.014	25.87
542.358	26.11
542.701	26.38
543.045	26.65
543.389	26.92
543.732	27.2
544.075	27.47
544.419	27.75
544.762	28.03
545.105	28.33
545.449	28.63
545.792	28.93
546.135	29.26
546.478	29.62
546.821	29.99
547.165	30.35
547.508	30.72
547.851	31.06
548.194	31.44
548.536	31.8
548.879	32.19
549.222	32.56
549.565	32.93
549.908	33.29
550.25	33.67
550.593	34.12
550.936	34.46
551.278	34.79
551.621	35.17
551.963	35.55
552.306	35.88
552.648	36.22
552.991	36.55
553.333	36.86
553.675	37.16
554.017	37.44
554.36	37.76
554.702	38.01
555.044	38.32
555.386	38.6
555.728	38.89
556.07	39.2
556.412	39.44
556.754	39.78
557.096	40.09
557.438	40.37
557.78	40.62
558.121	40.95
558.463	41.26
558.805	41.55
559.147	41.78
559.488	42.06
559.83	42.28
560.171	42.55
560.513	42.8
560.854	42.99
561.196	43.25
561.537	43.45
561.878	43.69
562.22	43.94
562.561	44.14
562.902	44.35
563.243	44.55
563.584	44.73
563.925	44.95
564.266	45.08
564.607	45.24
564.948	45.41
565.289	45.54
565.63	45.74
565.971	45.88
566.312	46.08
566.653	46.24
566.993	46.47
567.334	46.61
567.675	46.81
568.015	47.06
568.356	47.19
568.696	47.32
569.037	47.53
569.377	47.66
569.718	47.85
570.058	47.97
570.398	48.09
570.739	48.31
571.079	48.42
571.419	48.61
571.759	48.82
572.099	48.95
572.439	49.11
572.779	49.22
573.119	49.33
573.459	49.46
573.799	49.64
574.139	49.77
574.479	49.92
574.819	50.05
575.158	50.08
575.498	50.25
575.838	50.43
576.177	50.56
576.517	50.71
576.856	50.83
577.196	51.04
577.535	51.19
577.875	51.29
578.214	51.45
578.553	51.55
578.893	51.62
579.232	51.74
579.571	51.89
579.91	52.03
580.25	52.21
580.589	52.31
580.928	52.43
581.267	52.55
581.606	52.69
581.945	52.81
582.283	52.95
582.622	53.09
582.961	53.17
583.3	53.27
583.639	53.36
583.977	53.45
584.316	53.5
584.654	53.69
584.993	53.76
585.332	53.83
585.67	53.9
586.008	54.01
586.347	54.13
586.685	54.23
587.024	54.3
587.362	54.33
587.7	54.32
588.038	54.34
588.376	54.37
588.715	54.38
589.053	54.49
589.391	54.56
589.729	54.61
590.067	54.69
590.404	54.81
590.742	54.85
591.08	54.91
591.418	55.04
591.756	55.06
592.093	55.15
592.431	55.23
592.769	55.38
593.106	55.44
593.444	55.51
593.781	55.6
594.119	55.63
594.456	55.79
594.793	55.91
595.131	55.96
595.468	55.98
595.805	56.05
596.143	56.14
596.48	56.17
596.817	56.19
597.154	56.3
597.491	56.26
597.828	56.32
598.165	56.35
598.502	56.34
598.839	56.42
599.176	56.5
599.512	56.51
599.849	56.49
600.186	56.54
600.523	56.54
600.859	56.54
601.196	56.66
601.532	56.61
601.869	56.69
602.205	56.71
602.542	56.73
602.878	56.78
603.215	56.77
603.551	56.88
603.887	56.93
604.223	56.87
604.56	56.94
604.896	56.98
605.232	57.05
605.568	57.11
605.904	57.16
606.24	57.16
606.576	57.25
606.912	57.27
607.248	57.32
607.583	57.35
607.919	57.47
608.255	57.41
608.591	57.52
608.926	57.6
609.262	57.7
609.597	57.76
609.933	57.76
610.268	57.83
610.604	57.81
610.939	57.8
611.275	57.92
611.61	57.9
611.945	57.94
612.281	58.06
612.616	58.08
612.951	58.09
613.286	58.21
613.621	58.32
613.956	58.43
614.291	58.49
614.626	58.61
614.961	58.46
615.296	58.59
615.631	58.57
615.966	58.53
616.3	58.62
616.635	58.71
616.97	58.78
617.304	58.73
617.639	58.86
617.973	58.93
618.308	58.92
618.642	59.03
618.977	59.08
619.311	59.04
619.646	59.18
619.98	59.28
620.314	59.26
620.648	59.16
620.983	59.24
621.317	59.27
621.651	59.29
621.985	59.42
622.319	59.38
622.653	59.33
622.987	59.31
623.321	59.25
623.655	59.19
623.988	59.21
624.322	59.34
624.656	59.41
624.99	59.41
625.323	59.33
625.657	59.34
625.99	59.35
626.324	59.37
626.657	59.33
626.991	59.35
627.324	59.48
627.658	59.48
627.991	59.48
628.324	59.46
628.657	59.37
628.991	59.31
629.324	59.33
629.657	59.41
629.99	59.42
630.323	59.48
630.656	59.58
630.989	59.64
631.322	59.6
631.655	59.43
631.987	59.53
632.32	59.57
632.653	59.56
632.986	59.51
633.318	59.44
633.651	59.37
633.984	59.27
634.316	59.1
634.649	59.15
634.981	59.14
635.313	59.06
635.646	59.12
635.978	59.19
636.31	59.2
636.643	59.23
636.975	59.27
637.307	59.27
637.639	59.26
637.971	59.24
638.303	59.21
638.635	59.27
638.967	59.18
639.299	59.28
639.631	59.19
639.963	59.29
640.295	59.35
640.626	59.47
640.958	59.53
641.29	59.57
641.621	59.61
641.953	59.67
642.285	59.83
642.616	59.89
642.948	59.9
643.279	59.95
643.61	59.99
643.942	59.96
644.273	59.91
644.604	59.87
644.936	59.99
645.267	60.06
645.598	60.16
645.929	60.19
646.26	60.1
646.591	60.28
646.922	60.26
647.253	60.26
647.584	60.14
647.915	60.15
648.245	60.2
648.576	60.25
648.907	60.28
649.238	60.18
649.568	60.13
649.899	60.23
650.229	60.24
650.56	60.32
650.89	60.43
651.221	60.53
651.551	60.56
651.882	60.49
652.212	60.45
652.542	60.27
652.872	60.29
653.203	60.41
653.533	60.37
653.863	60.35
654.193	60.36
654.523	60.47
654.853	60.46
655.183	60.39
655.513	60.38
655.843	60.38
656.172	60.48
656.502	60.65
656.832	60.54
657.162	60.62
657.491	60.52
657.821	60.56
658.15	60.56
658.48	60.6
658.809	60.68
659.139	60.76
659.468	60.84
659.798	60.84
660.127	60.92
660.456	61.03
660.785	61.14
661.115	61.14
661.444	61.15
661.773	61.19
662.102	61.26
662.431	61.22
662.76	61.15
663.089	61.22
663.418	61.1
663.747	61.16
664.076	61.03
664.404	60.97
664.733	60.97
665.062	60.98
665.39	61.06
665.719	60.87
666.048	60.78
666.376	60.83
666.705	60.84
667.033	60.68
667.362	60.63
667.69	60.48
668.018	60.59
668.347	60.62
668.675	60.62
669.003	60.78
669.331	60.9
669.659	61
669.987	60.89
670.315	60.92
670.643	60.96
670.971	61.03
671.299	61.12
671.627	61.04
671.955	61.02
672.283	61.02
672.61	61.14
672.938	61.26
673.266	61.25
673.593	61.4
673.921	61.47
674.249	61.37
674.576	61.5
674.904	61.42
675.231	61.39
675.558	61.4
675.886	61.32
676.213	61.24
676.54	61.29
676.867	61.31
677.195	61.51
677.522	61.48
677.849	61.47
678.176	61.48
678.503	61.37
678.83	61.27
679.157	61.25
679.484	61.21
679.81	61.24
680.137	61.26
680.464	61.19
680.791	61.29
681.117	61.4
681.444	61.4
681.771	61.56
682.097	61.54
682.424	61.54
682.75	61.45
683.077	61.47
683.403	61.34
683.729	61.49
684.056	61.31
684.382	61.27
684.708	61.27
685.034	61.25
685.36	61.4
685.686	61.54
686.012	61.45
686.339	61.58
686.664	61.47
686.99	61.6
687.316	61.66
687.642	61.53
687.968	61.41
688.294	61.51
688.619	61.33
688.945	61.4
689.271	61.41
689.596	61.64
689.922	61.62
690.247	61.8
690.573	61.79
690.898	61.83
691.224	61.83
691.549	61.79
691.874	61.7
692.2	61.75
692.525	61.7
692.85	61.96
693.175	62.03
693.5	61.98
693.825	61.78
694.15	61.73
694.475	61.85
694.8	61.98
695.125	61.88
695.45	62
695.775	61.99
696.099	61.83
696.424	61.61
696.749	61.7
697.073	61.68
697.398	61.62
697.723	61.57
698.047	61.58
698.372	61.83
698.696	62.05
699.02	61.94
699.345	62
699.669	61.82
699.993	61.79
700.318	61.82
700.642	61.8
700.966	61.74
701.29	61.77
701.614	61.75
701.938	61.74
702.262	61.84
702.586	61.82
702.91	61.99
703.234	62.01
703.557	61.94
703.881	61.79
704.205	61.69
704.529	61.78
704.852	61.79
705.176	61.62
705.499	61.52
705.823	61.67
706.146	61.67
706.47	61.72
706.793	61.66
707.117	61.62
707.44	61.76
707.763	61.83
708.086	61.5
708.409	61.31
708.733	61.29
709.056	61.16
709.379	61.1
709.702	61.18
710.025	61.17
710.348	61.05
710.671	61.09
710.993	61.21
711.316	61.25
711.639	61.37
711.962	61.38
712.284	61.27
712.607	61.26
712.93	61.13
713.252	61.16
713.575	61.09
713.897	61.2
714.22	61.16
714.542	61.16
714.864	61.36
715.187	61.55
715.509	61.61
715.831	61.47
716.153	61.4
716.475	61.28
716.798	61.51
717.12	61.65
717.442	61.77
717.764	61.62
718.085	61.43
718.407	61.34
718.729	61.3
719.051	61.27
719.373	61.44
719.695	61.56
720.016	61.66
720.338	61.78
720.659	61.95
720.981	61.97
721.302	62.07
721.624	62.03
721.945	61.95
722.267	62.06
722.588	62.26
722.909	62.59
723.231	62.46
723.552	62.26
723.873	62.13
724.194	61.94
724.515	62.18
724.836	62.26
725.157	62.4
725.478	62.36
725.799	62.58
726.12	62.57
726.441	62.35
726.762	62.13
727.083	62.06
727.403	61.79
727.724	61.98
728.045	62.07
728.365	61.99
728.686	61.86
729.006	61.84
729.327	61.42
729.647	61.51
729.967	61.91
730.288	62.09
730.608	62.24
730.928	62.51
731.249	62.35
731.569	62.15
731.889	62.15
732.209	62.28
732.529	62.14
732.849	61.97
733.169	62.2
733.489	62.29
733.809	62.2
734.129	62.43
734.448	62.39
734.768	62.33
735.088	62.41
735.408	62.63
735.727	62.44
736.047	62.98
736.366	62.88
736.686	62.6
737.005	62.51
737.325	62.55
737.644	62.27
737.963	62.37
738.283	62.52
738.602	62.84
738.921	62.68
739.24	62.87
739.56	63.07
739.879	63.31
740.198	63.41
740.517	63.46
740.836	63.18
741.155	63.23
741.473	63.08
741.792	63.48
742.111	63.44
742.43	63.72
742.748	63.35
743.067	63.47
743.386	63.45
743.704	63.59
744.023	63.26
744.341	63.52
744.66	63.98
744.978	63.99
745.297	63.32
745.615	63.47
745.933	63.67
746.252	63.66
746.57	62.99
746.888	63
747.206	63.22
747.524	63.51
747.842	63.36
748.16	63.65
748.478	63.44
748.796	63.76
749.114	63.69
749.432	63.83
749.749	63.4
750.067	63.68
750.385	63.79
750.703	64.11
751.02	63.87
751.338	63.27
751.655	63.59
751.973	63.9
752.29	63.84
752.608	63.54
752.925	63.35
753.242	63.8
753.56	63.85
753.877	63.8
754.194	63.71
754.511	63.71
754.828	63.67
755.145	63.01
755.462	62.46
755.779	62.44
756.096	62.57
756.413	62.5
756.73	62.5
757.047	62.28
757.364	62.21
757.68	62.49
757.997	62.58
758.314	62.41
758.63	62.15
758.947	62.38
759.264	62.19
759.58	62.22
759.896	62.36
760.213	62.37
760.529	62.33
760.846	62.28
761.162	62.34
761.478	62.33
761.794	62.72
762.11	62.75
762.426	62.78
762.743	62.63
763.059	62.58
763.375	62.35
763.69	62.33
764.006	62.19
764.322	61.92
764.638	62.22
764.954	62.18
765.27	62.38
765.585	62.35
765.901	62.57
766.216	62.55
766.532	62.27
766.848	62.08
767.163	61.98
767.478	62
767.794	61.9
768.109	61.77
768.424	61.98
768.74	62.54
769.055	62.41
769.37	62.19
769.685	62.46
770	62.8
770.315	62.58
770.63	62.78
770.945	62.93
771.26	62.21
771.575	62.21
771.89	61.98
772.205	62.23
772.52	62.07
772.834	61.86
773.149	61.97
773.464	61.91
773.778	62.16
774.093	62.14
774.407	62.15
774.722	62.54
775.036	62.27
775.351	61.62
775.665	61.79
775.979	62.4
776.293	62.2
776.608	61.98
776.922	62.06
777.236	61.74
777.55	62.14
777.864	62.46
778.178	62.85
778.492	62.74
778.806	62.48
779.12	62.53
779.434	62.56
779.747	62.92
780.061	63.56
780.375	63.48
780.689	63.53
781.002	63.86
781.316	64.13
781.629	64.35
781.943	64.75
782.256	64.75
782.57	64.84
782.883	65.17
783.196	65.32
783.51	65.56
783.823	66.02
784.136	65.71
784.449	65.68
784.762	65.95
785.075	66.23
785.388	65.63
785.701	65.65
786.014	66.22
786.327	65.6
786.64	65.2
786.953	65.32
787.266	65.24
787.578	65.07
787.891	64.58
788.204	64.51
788.516	64.33
788.829	64.57
789.141	64.07
789.454	64.27
789.766	64.11
790.079	64.09
790.391	63.66
790.703	63.53
791.016	63.87
791.328	63.42
791.64	63.41
791.952	63.68
792.264	63.79
792.576	63.76
792.888	64.2
793.2	64.28
793.512	64.14
793.824	64.32
794.136	64.51
794.448	64.36
794.76	64.23
795.071	64.5
795.383	64.56
795.695	65.11
796.006	65
796.318	65.08
796.629	65.08
796.941	65.72
797.252	66.02
797.564	65.75
797.875	65.76
798.186	65.71
798.497	65.62
798.809	65.76
799.12	65.26
799.431	65.04
799.742	65.12
800.053	65.28
800.364	65.32
800.675	65.11
800.986	65.36
801.297	65.25
801.608	64.91
801.918	64.58
802.229	64.31
802.54	64.71
802.851	64.59
803.161	64.54
803.472	64.25
803.782	64.59
804.093	64.69
804.403	64.99
804.714	65.35
805.024	65.31
805.334	65.07
805.645	65.25
805.955	65.55
806.265	65.37
806.575	64.88
806.885	64.87
807.195	64.7
807.505	64.15
807.815	64.38
808.125	64.13
808.435	64.47
808.745	64.44
809.055	63.96
809.365	63.95
809.674	64.81
809.984	64.76
810.294	63.64
810.603	63.28
810.913	63.51
811.222	63.29
811.532	63.62
811.841	63.99
812.151	64.77
812.46	64.99
812.769	65.16
813.079	65.43
813.388	65.23
813.697	64.97
814.006	65.67
814.315	65.71
814.624	66.54
814.933	66.26
815.242	66.68
815.551	67.32
815.86	68.51
816.169	67.8
816.478	68.18
816.786	69.12
817.095	69.77
817.404	69.06
817.712	68.75
818.021	68.13
818.33	67.41
818.638	67.27
818.947	66.89
819.255	66
819.563	66.16
819.872	65.93
820.18	66.05
820.488	65.46
820.796	65.06
821.105	64.72
821.413	64.57
821.721	64.45
822.029	64.16
822.337	64.05
822.645	64.11
822.953	64
823.26	63.86
823.568	63.65
823.876	63.7
824.184	63.73
824.491	63.89
824.799	63.95
825.107	63.81
825.414	63.69
825.722	63.85
826.029	63.77
826.337	63.64
826.644	63.44
826.951	63.47
827.259	63.69
827.566	63.43
827.873	63.39
828.18	63.41
828.488	63.74
828.795	63.45
829.102	63.38
829.409	63.37
829.716	63.29
830.023	63.06
830.329	62.87
830.636	62.82
830.943	62.31
831.25	61.93
831.557	61.67
831.863	61.76
832.17	61.79
832.476	61.71
832.783	61.99
833.089	62.45
833.396	62.91
833.702	62.7
834.009	63.61
834.315	63.88
834.621	64.26
834.928	63.91
835.234	63.83
835.54	63.52
835.846	63.7
836.152	64.46
836.458	64.93
836.764	65.09
837.07	64.77
837.376	64.92
837.682	65.66
837.988	66.33
838.293	65.97
838.599	66.14
838.905	65.99
839.211	65.62
839.516	65.08
839.822	64.5
840.127	64.53
840.433	64.47
840.738	64.08
841.044	63.04
841.349	62.88
841.654	63.78
841.959	64.07
842.265	64.29
842.57	63.17
842.875	63.7
843.18	64.4
843.485	67.31
843.79	67.28
844.095	66.72
844.4	65.43
844.705	66.66
845.01	66.11
845.315	67.11
845.619	67.99
845.924	68.74
846.229	69.49
846.533	69.09
846.838	68.37
847.142	67.2
847.447	67.57
847.751	68.03
848.056	67.03
848.36	67.76
848.664	65.99
848.969	66.72
849.273	66.61
849.577	65.68
849.881	61.85
850.185	64.27
850.489	65.9
850.794	65.39
851.097	65.68
851.401	67.15
851.705	65.49
852.009	65.43
852.313	65.7
852.617	66.09
852.92	66.98
853.224	68.06
853.528	71.02
853.831	70.02
854.135	70.12
854.438	68.6
854.742	67.89
855.045	69.56
855.349	67.62
855.652	68.74
855.955	67.61
856.259	68.48
856.562	67.42
856.865	66.35
857.168	67.48
857.471	66.78
857.774	65.07
858.077	65.89
858.38	67.81
858.683	67.55
858.986	67.46
859.289	67.71
859.592	67.66
859.894	68.05
860.197	67.46
860.5	67.47
860.802	68.22
861.105	68.16
861.407	67.89
861.71	69.15
862.012	67.65
862.315	67.95
862.617	66.8
862.919	67.59
863.222	69.44
863.524	69.85
863.826	70.99
864.128	71.95
864.43	71.09
864.732	68.02
865.034	67.2
865.336	67.63
865.638	66.06
865.94	65.93
866.242	62.62
866.544	64.32
866.846	62.32
867.147	66.11
867.449	64.79
867.751	64.04
868.052	64.69
868.354	65.75
868.655	68.42
868.957	70.32
869.258	67.77
869.56	65.07
869.861	65.28
870.162	64.16
870.463	64.92
870.765	65.45
871.066	66.46
871.367	65.82
871.668	63.15
871.969	63.68
872.27	61.92
872.571	64.64
872.872	63.32
873.173	66.58
873.473	63.34
873.774	67.48
874.075	69.03
874.376	69.71
874.676	67.9
874.977	68.59
875.277	68.25
875.578	68.46
875.878	68.82
876.179	68.77
876.479	69.1
876.78	67.84
877.08	68.91
877.38	69.81
877.68	71.91
877.981	75.1
878.281	76.44
878.581	78.66
