Data from BA28467_Reflection_00006.txt Node
Date: Mon Nov 18 15:33:05 EST 2019
User: vgr7
Spectrometer: USB2G7710
Scans to average: 3
Trigger mode: 4
Integration Time (sec): 2.000000E-2
Electric dark correction enabled: true
Boxcar width: 10
XAxis mode: Wavelengths
Number of Pixels in Spectrum: 2048
>>>>>Begin Spectral Data<<<<<
177.721	-63.55
178.105	-138.58
178.488	-102.11
178.871	-219.92
179.254	200.5
179.636	66.4
180.019	-254.43
180.402	96.67
180.785	-2751.06
181.168	-1467.57
181.55	-861.04
181.933	258.78
182.316	263.13
182.698	171.93
183.081	146.86
183.463	207.07
183.846	219.89
184.228	231.49
184.611	925.53
184.993	1011.2
185.376	-886.78
185.758	-962.76
186.14	-578.3
186.522	-229.63
186.904	-291.03
187.287	-1518.32
187.669	-257.56
188.051	578.13
188.433	-297.98
188.815	-70.11
189.197	-51.24
189.579	-36.59
189.961	-63.84
190.342	-19.21
190.724	0.35
191.106	-3.29
191.488	-11.73
191.869	-26.17
192.251	-35.08
192.633	0.48
193.014	-40.92
193.396	-121.85
193.777	-134.72
194.159	-169.19
194.54	-199.89
194.922	-92.74
195.303	-182.54
195.684	-113.68
196.065	-22.05
196.447	-42.5
196.828	-419.57
197.209	-111.12
197.59	-280.51
197.971	639.13
198.352	-1985.11
198.733	163.13
199.114	59.33
199.495	12.05
199.876	-26.75
200.257	211.55
200.638	87.77
201.018	98.95
201.399	99.2
201.78	113.15
202.16	149.78
202.541	153.28
202.922	196.43
203.302	161.33
203.683	153.38
204.063	395.94
204.444	391.22
204.824	219.16
205.204	399.03
205.585	199.38
205.965	105.28
206.345	149.88
206.725	144.79
207.106	149.44
207.486	89.15
207.866	131.35
208.246	372.37
208.626	-281.91
209.006	-147.89
209.386	7.81
209.766	-16.1
210.145	-482.28
210.525	216.79
210.905	106.88
211.285	53.21
211.664	162.81
212.044	79.29
212.424	48.64
212.803	37.6
213.183	50.83
213.562	40.92
213.942	45.26
214.321	53.28
214.701	50.51
215.08	50.96
215.459	63.73
215.838	52.7
216.218	60.44
216.597	65.83
216.976	75.77
217.355	81.34
217.734	81.92
218.113	107.44
218.492	107.35
218.871	106.09
219.25	122.92
219.629	71.38
220.008	85.4
220.387	80.47
220.766	88
221.144	88.52
221.523	78.24
221.902	79.34
222.28	85.88
222.659	92.09
223.037	77.53
223.416	62.39
223.794	47.52
224.173	34.17
224.551	30.7
224.929	16.95
225.308	11.18
225.686	5.57
226.064	6.1
226.442	10.45
226.821	14.97
227.199	12.35
227.577	10.32
227.955	9.45
228.333	9.78
228.711	4.76
229.089	6.11
229.467	8.19
229.845	6.97
230.222	6.19
230.6	-1.7
230.978	-0.18
231.356	3.22
231.733	2.34
232.111	3.29
232.488	3.47
232.866	3.25
233.243	4.92
233.621	4.12
233.998	2.8
234.376	0.12
234.753	-0.85
235.13	-1.49
235.508	0.73
235.885	0.34
236.262	0.27
236.639	0.53
237.016	-1.07
237.393	0.66
237.77	1.26
238.147	3.17
238.524	5.04
238.901	5.56
239.278	5.26
239.655	6.55
240.032	6.81
240.409	6.27
240.785	5.86
241.162	5.77
241.539	6.02
241.915	6.28
242.292	6.53
242.668	6.94
243.045	6.93
243.421	6.39
243.798	6.43
244.174	6.03
244.551	6.14
244.927	6.18
245.303	6
245.679	5.97
246.056	5.57
246.432	5.48
246.808	5.5
247.184	5.37
247.56	5.14
247.936	5.09
248.312	5.16
248.688	5.42
249.064	5.34
249.44	5.26
249.815	5.08
250.191	5.14
250.567	4.86
250.943	4.86
251.318	5.17
251.694	5.31
252.069	5.37
252.445	5.59
252.82	5.52
253.196	5.55
253.571	5.67
253.947	5.98
254.322	6.01
254.697	5.91
255.073	5.73
255.448	5.59
255.823	5.57
256.198	5.26
256.573	5.13
256.948	5.22
257.323	5.24
257.698	5.36
258.073	5.27
258.448	5.28
258.823	5.34
259.198	5.17
259.573	5.07
259.948	4.98
260.322	4.92
260.697	4.97
261.072	4.87
261.446	4.81
261.821	4.6
262.195	4.77
262.57	4.73
262.944	4.71
263.319	4.76
263.693	4.5
264.067	4.83
264.442	4.85
264.816	4.6
265.19	4.55
265.564	4.55
265.938	4.4
266.313	4.23
266.687	4.2
267.061	4.31
267.435	4.07
267.809	4.16
268.183	4.13
268.556	4.12
268.93	4.22
269.304	4.18
269.678	4.36
270.051	4.13
270.425	4
270.799	4.2
271.172	4.33
271.546	4.42
271.919	4.05
272.293	4.05
272.666	4.23
273.04	4.26
273.413	4.13
273.787	4.17
274.16	4.39
274.533	4.29
274.906	4.22
275.279	4.26
275.653	4.3
276.026	4.22
276.399	4.21
276.772	4.35
277.145	4.38
277.518	4.3
277.891	4.41
278.263	4.51
278.636	4.44
279.009	4.34
279.382	4.44
279.755	4.42
280.127	4.49
280.5	4.51
280.872	4.4
281.245	4.47
281.617	4.52
281.99	4.4
282.362	4.44
282.735	4.32
283.107	4.42
283.479	4.46
283.852	4.43
284.224	4.36
284.596	4.23
284.968	4.26
285.34	4.28
285.713	4.2
286.085	4.22
286.457	4.28
286.829	4.23
287.201	4.19
287.572	4.28
287.944	4.27
288.316	4.26
288.688	4.27
289.06	4.26
289.431	4.23
289.803	4.33
290.175	4.4
290.546	4.55
290.918	4.53
291.289	4.52
291.661	4.54
292.032	4.63
292.403	4.64
292.775	4.7
293.146	4.64
293.517	4.64
293.889	4.67
294.26	4.69
294.631	4.68
295.002	4.72
295.373	4.77
295.744	4.75
296.115	4.77
296.486	4.72
296.857	4.76
297.228	4.86
297.599	4.83
297.97	4.76
298.34	4.81
298.711	4.9
299.082	4.79
299.452	4.74
299.823	4.81
300.194	4.82
300.564	4.81
300.935	4.96
301.305	5.02
301.676	5.1
302.046	5.09
302.416	5.3
302.787	5.32
303.157	5.36
303.527	5.38
303.897	5.43
304.267	5.65
304.637	5.6
305.008	5.49
305.378	5.62
305.748	5.69
306.117	5.54
306.487	5.57
306.857	5.77
307.227	5.73
307.597	5.68
307.967	5.72
308.336	5.59
308.706	5.59
309.076	5.62
309.445	5.48
309.815	5.5
310.184	5.36
310.554	5.45
310.923	5.34
311.293	5.32
311.662	5.28
312.031	5.19
312.401	5.32
312.77	5.35
313.139	5.22
313.508	5.14
313.877	5.22
314.246	5.28
314.616	5.19
314.985	5.34
315.353	5.29
315.722	5.35
316.091	5.33
316.46	5.28
316.829	5.21
317.198	5.17
317.567	5.08
317.935	5.08
318.304	5.15
318.672	5.19
319.041	5.27
319.41	5.29
319.778	5.31
320.147	5.25
320.515	5.28
320.883	5.23
321.252	5.38
321.62	5.34
321.988	5.26
322.357	5.23
322.725	5.22
323.093	5.33
323.461	5.37
323.829	5.39
324.197	5.37
324.565	5.48
324.933	5.54
325.301	5.51
325.669	5.56
326.037	5.41
326.405	5.38
326.772	5.36
327.14	5.4
327.508	5.46
327.875	5.42
328.243	5.57
328.61	5.54
328.978	5.59
329.346	5.78
329.713	5.65
330.08	5.77
330.448	5.68
330.815	5.54
331.182	5.3
331.55	5.43
331.917	5.49
332.284	5.47
332.651	5.61
333.018	5.59
333.385	5.53
333.752	5.53
334.119	5.58
334.486	5.51
334.853	5.44
335.22	5.4
335.587	5.36
335.954	5.31
336.32	5.33
336.687	5.31
337.054	5.09
337.42	5.25
337.787	5.21
338.153	5.35
338.52	5.34
338.886	5.38
339.253	5.36
339.619	5.4
339.986	5.42
340.352	5.38
340.718	5.39
341.084	5.36
341.451	5.49
341.817	5.54
342.183	5.7
342.549	5.8
342.915	5.83
343.281	5.87
343.647	5.81
344.013	5.79
344.379	5.75
344.745	5.9
345.11	5.86
345.476	5.84
345.842	5.8
346.208	5.81
346.573	5.84
346.939	5.89
347.304	5.77
347.67	5.68
348.035	5.65
348.401	5.68
348.766	5.8
349.132	5.68
349.497	5.69
349.862	5.55
350.228	5.39
350.593	5.34
350.958	5.38
351.323	5.42
351.688	5.57
352.053	5.6
352.418	5.58
352.783	5.56
353.148	5.58
353.513	5.58
353.878	5.63
354.243	5.69
354.608	5.62
354.972	5.64
355.337	5.68
355.702	5.69
356.066	5.74
356.431	5.7
356.795	5.71
357.16	5.73
357.524	5.73
357.889	5.84
358.253	5.88
358.618	5.92
358.982	5.92
359.346	5.78
359.71	5.7
360.075	5.69
360.439	5.66
360.803	5.61
361.167	5.57
361.531	5.56
361.895	5.56
362.259	5.52
362.623	5.55
362.987	5.51
363.351	5.59
363.714	5.57
364.078	5.55
364.442	5.49
364.806	5.47
365.169	5.53
365.533	5.49
365.896	5.47
366.26	5.4
366.623	5.38
366.987	5.41
367.35	5.46
367.714	5.43
368.077	5.48
368.44	5.55
368.803	5.54
369.167	5.52
369.53	5.48
369.893	5.58
370.256	5.56
370.619	5.61
370.982	5.49
371.345	5.44
371.708	5.43
372.071	5.49
372.434	5.49
372.797	5.43
373.159	5.4
373.522	5.45
373.885	5.41
374.247	5.42
374.61	5.5
374.973	5.46
375.335	5.47
375.698	5.43
376.06	5.42
376.423	5.44
376.785	5.43
377.147	5.47
377.51	5.47
377.872	5.5
378.234	5.57
378.596	5.6
378.958	5.66
379.321	5.69
379.683	5.71
380.045	5.69
380.407	5.71
380.769	5.78
381.13	5.72
381.492	5.74
381.854	5.77
382.216	5.74
382.578	5.71
382.939	5.66
383.301	5.65
383.663	5.63
384.024	5.64
384.386	5.71
384.747	5.7
385.109	5.69
385.47	5.61
385.832	5.53
386.193	5.53
386.554	5.46
386.916	5.43
387.277	5.41
387.638	5.43
387.999	5.41
388.36	5.35
388.721	5.36
389.082	5.41
389.443	5.36
389.804	5.32
390.165	5.36
390.526	5.39
390.887	5.39
391.248	5.38
391.609	5.39
391.969	5.39
392.33	5.4
392.691	5.4
393.051	5.4
393.412	5.4
393.772	5.37
394.133	5.4
394.493	5.4
394.854	5.37
395.214	5.36
395.574	5.37
395.935	5.35
396.295	5.34
396.655	5.31
397.015	5.32
397.376	5.34
397.736	5.32
398.096	5.3
398.456	5.32
398.816	5.37
399.176	5.38
399.535	5.34
399.895	5.34
400.255	5.33
400.615	5.35
400.975	5.33
401.334	5.36
401.694	5.35
402.054	5.33
402.413	5.35
402.773	5.31
403.132	5.3
403.492	5.36
403.851	5.33
404.211	5.33
404.57	5.33
404.929	5.33
405.288	5.35
405.648	5.35
406.007	5.34
406.366	5.32
406.725	5.31
407.084	5.32
407.443	5.28
407.802	5.29
408.161	5.27
408.52	5.28
408.879	5.26
409.238	5.28
409.596	5.28
409.955	5.3
410.314	5.33
410.673	5.31
411.031	5.27
411.39	5.29
411.748	5.29
412.107	5.3
412.465	5.28
412.824	5.27
413.182	5.27
413.54	5.26
413.899	5.25
414.257	5.24
414.615	5.17
414.974	5.19
415.332	5.17
415.69	5.16
416.048	5.16
416.406	5.17
416.764	5.15
417.122	5.15
417.48	5.14
417.838	5.15
418.195	5.15
418.553	5.15
418.911	5.14
419.269	5.15
419.626	5.15
419.984	5.15
420.342	5.16
420.699	5.15
421.057	5.16
421.414	5.16
421.772	5.16
422.129	5.18
422.486	5.17
422.844	5.17
423.201	5.16
423.558	5.16
423.915	5.15
424.273	5.17
424.63	5.16
424.987	5.18
425.344	5.17
425.701	5.16
426.058	5.17
426.415	5.18
426.772	5.16
427.128	5.15
427.485	5.14
427.842	5.13
428.199	5.13
428.555	5.11
428.912	5.09
429.269	5.07
429.625	5.06
429.982	5.06
430.338	5.06
430.695	5.06
431.051	5.04
431.407	5.05
431.764	5.04
432.12	5.05
432.476	5.04
432.832	5.01
433.189	5.02
433.545	5
433.901	5.02
434.257	5.01
434.613	5.02
434.969	5.01
435.325	5.02
435.681	5
436.036	5
436.392	5.01
436.748	5.04
437.104	5.03
437.459	5.02
437.815	5.02
438.171	5.04
438.526	5.05
438.882	5.07
439.237	5.06
439.593	5.06
439.948	5.04
440.304	5.05
440.659	5.06
441.014	5.04
441.369	5.01
441.725	5.01
442.08	5.01
442.435	5.03
442.79	5.04
443.145	5.04
443.5	5.03
443.855	5.02
444.21	4.99
444.565	5.01
444.92	5.01
445.275	5
445.629	4.99
445.984	4.99
446.339	4.96
446.693	4.94
447.048	4.94
447.403	4.94
447.757	4.94
448.112	4.94
448.466	4.95
448.82	4.95
449.175	4.95
449.529	4.95
449.883	4.91
450.238	4.9
450.592	4.91
450.946	4.92
451.3	4.93
451.654	4.93
452.008	4.91
452.362	4.92
452.716	4.94
453.07	4.93
453.424	4.9
453.778	4.93
454.132	4.92
454.486	4.9
454.839	4.89
455.193	4.86
455.547	4.86
455.9	4.86
456.254	4.86
456.607	4.87
456.961	4.88
457.314	4.88
457.668	4.88
458.021	4.87
458.375	4.88
458.728	4.89
459.081	4.9
459.434	4.9
459.787	4.89
460.141	4.88
460.494	4.88
460.847	4.9
461.2	4.88
461.553	4.91
461.906	4.94
462.259	4.95
462.611	4.98
462.964	5
463.317	4.99
463.67	5
464.022	4.99
464.375	4.99
464.728	5.01
465.08	5.02
465.433	5.02
465.785	5.01
466.138	4.99
466.49	4.99
466.843	5
467.195	5.02
467.547	5.03
467.899	5.05
468.252	5.06
468.604	5.08
468.956	5.07
469.308	5.05
469.66	5.04
470.012	5.06
470.364	5.05
470.716	5.06
471.068	5.06
471.42	5.09
471.772	5.09
472.123	5.09
472.475	5.11
472.827	5.13
473.178	5.14
473.53	5.15
473.882	5.14
474.233	5.14
474.585	5.13
474.936	5.13
475.288	5.09
475.639	5.09
475.99	5.1
476.342	5.1
476.693	5.1
477.044	5.11
477.395	5.1
477.746	5.08
478.097	5.08
478.448	5.1
478.8	5.08
479.15	5.07
479.501	5.07
479.852	5.05
480.203	5.05
480.554	5.06
480.905	5.09
481.255	5.12
481.606	5.12
481.957	5.15
482.307	5.16
482.658	5.16
483.009	5.16
483.359	5.16
483.709	5.17
484.06	5.18
484.41	5.18
484.761	5.18
485.111	5.2
485.461	5.21
485.811	5.2
486.162	5.21
486.512	5.23
486.862	5.23
487.212	5.23
487.562	5.23
487.912	5.23
488.262	5.23
488.612	5.22
488.961	5.22
489.311	5.2
489.661	5.2
490.011	5.2
490.36	5.21
490.71	5.23
491.06	5.22
491.409	5.22
491.759	5.2
492.108	5.21
492.458	5.2
492.807	5.2
493.157	5.21
493.506	5.22
493.855	5.21
494.204	5.2
494.554	5.22
494.903	5.23
495.252	5.24
495.601	5.24
495.95	5.26
496.299	5.25
496.648	5.27
496.997	5.29
497.346	5.31
497.695	5.32
498.043	5.31
498.392	5.32
498.741	5.36
499.09	5.38
499.438	5.4
499.787	5.41
500.135	5.43
500.484	5.44
500.832	5.45
501.181	5.5
501.529	5.54
501.878	5.54
502.226	5.55
502.574	5.56
502.923	5.57
503.271	5.56
503.619	5.62
503.967	5.63
504.315	5.61
504.663	5.61
505.011	5.61
505.359	5.64
505.707	5.69
506.055	5.68
506.403	5.71
506.751	5.73
507.098	5.75
507.446	5.75
507.794	5.74
508.141	5.75
508.489	5.74
508.837	5.75
509.184	5.78
509.531	5.84
509.879	5.84
510.226	5.85
510.574	5.89
510.921	5.89
511.268	5.9
511.616	5.95
511.963	5.97
512.31	5.98
512.657	5.99
513.004	5.96
513.351	5.97
513.698	5.97
514.045	5.97
514.392	5.96
514.739	5.97
515.086	6.01
515.432	6.03
515.779	6.04
516.126	6.05
516.473	6.07
516.819	6.06
517.166	6.09
517.512	6.1
517.859	6.09
518.205	6.08
518.552	6.11
518.898	6.11
519.245	6.12
519.591	6.14
519.937	6.14
520.283	6.17
520.629	6.18
520.976	6.18
521.322	6.18
521.668	6.2
522.014	6.22
522.36	6.23
522.706	6.21
523.052	6.24
523.398	6.26
523.743	6.25
524.089	6.27
524.435	6.27
524.781	6.28
525.126	6.3
525.472	6.31
525.817	6.32
526.163	6.31
526.509	6.32
526.854	6.33
527.199	6.35
527.545	6.35
527.89	6.35
528.235	6.36
528.581	6.38
528.926	6.38
529.271	6.38
529.616	6.38
529.961	6.39
530.306	6.37
530.651	6.37
530.996	6.38
531.341	6.37
531.686	6.38
532.031	6.39
532.376	6.39
532.721	6.41
533.065	6.4
533.41	6.4
533.755	6.41
534.099	6.41
534.444	6.41
534.788	6.43
535.133	6.43
535.477	6.43
535.822	6.44
536.166	6.43
536.51	6.43
536.855	6.45
537.199	6.47
537.543	6.49
537.887	6.51
538.231	6.52
538.576	6.54
538.92	6.53
539.264	6.53
539.608	6.54
539.951	6.55
540.295	6.54
540.639	6.56
540.983	6.55
541.327	6.56
541.671	6.58
542.014	6.57
542.358	6.58
542.701	6.59
543.045	6.6
543.389	6.63
543.732	6.66
544.075	6.65
544.419	6.64
544.762	6.66
545.105	6.65
545.449	6.65
545.792	6.64
546.135	6.66
546.478	6.69
546.821	6.68
547.165	6.68
547.508	6.7
547.851	6.73
548.194	6.74
548.536	6.73
548.879	6.72
549.222	6.72
549.565	6.73
549.908	6.74
550.25	6.76
550.593	6.76
550.936	6.74
551.278	6.71
551.621	6.7
551.963	6.69
552.306	6.71
552.648	6.69
552.991	6.69
553.333	6.68
553.675	6.68
554.017	6.72
554.36	6.73
554.702	6.73
555.044	6.71
555.386	6.73
555.728	6.74
556.07	6.77
556.412	6.79
556.754	6.77
557.096	6.78
557.438	6.74
557.78	6.74
558.121	6.74
558.463	6.78
558.805	6.77
559.147	6.77
559.488	6.77
559.83	6.82
560.171	6.84
560.513	6.88
560.854	6.89
561.196	6.84
561.537	6.87
561.878	6.88
562.22	6.88
562.561	6.87
562.902	6.88
563.243	6.87
563.584	6.88
563.925	6.92
564.266	6.9
564.607	6.94
564.948	6.95
565.289	6.98
565.63	6.99
565.971	7.02
566.312	7.05
566.653	7.06
566.993	7.03
567.334	7.02
567.675	7
568.015	6.99
568.356	7.02
568.696	7.01
569.037	7.01
569.377	7.03
569.718	7.04
570.058	7.03
570.398	7.02
570.739	7.01
571.079	7.02
571.419	7.02
571.759	7.04
572.099	7.04
572.439	7.05
572.779	7.06
573.119	7.07
573.459	7.06
573.799	7.07
574.139	7.08
574.479	7.08
574.819	7.08
575.158	7.11
575.498	7.09
575.838	7.12
576.177	7.09
576.517	7.08
576.856	7.09
577.196	7.11
577.535	7.12
577.875	7.12
578.214	7.09
578.553	7.12
578.893	7.05
579.232	7.04
579.571	7.04
579.91	7.06
580.25	7.05
580.589	7.03
580.928	7.03
581.267	7.02
581.606	7.02
581.945	7.04
582.283	7
582.622	7
582.961	6.98
583.3	7.03
583.639	7.03
583.977	7.06
584.316	7.03
584.654	7.03
584.993	6.99
585.332	7.02
585.67	7
586.008	7.07
586.347	7.05
586.685	7.04
587.024	6.99
587.362	7.04
587.7	7.09
588.038	7.1
588.376	7.12
588.715	7.13
589.053	7.17
589.391	7.19
589.729	7.21
590.067	7.22
590.404	7.19
590.742	7.23
591.08	7.2
591.418	7.2
591.756	7.24
592.093	7.26
592.431	7.24
592.769	7.27
593.106	7.27
593.444	7.28
593.781	7.26
594.119	7.32
594.456	7.28
594.793	7.27
595.131	7.28
595.468	7.27
595.805	7.24
596.143	7.19
596.48	7.19
596.817	7.21
597.154	7.2
597.491	7.23
597.828	7.19
598.165	7.21
598.502	7.21
598.839	7.21
599.176	7.23
599.512	7.27
599.849	7.27
600.186	7.26
600.523	7.3
600.859	7.38
601.196	7.36
601.532	7.35
601.869	7.34
602.205	7.36
602.542	7.4
602.878	7.42
603.215	7.46
603.551	7.45
603.887	7.44
604.223	7.45
604.56	7.44
604.896	7.48
605.232	7.49
605.568	7.51
605.904	7.49
606.24	7.52
606.576	7.53
606.912	7.56
607.248	7.55
607.583	7.55
607.919	7.51
608.255	7.49
608.591	7.53
608.926	7.56
609.262	7.54
609.597	7.51
609.933	7.56
610.268	7.54
610.604	7.58
610.939	7.59
611.275	7.6
611.61	7.61
611.945	7.63
612.281	7.61
612.616	7.61
612.951	7.65
613.286	7.63
613.621	7.6
613.956	7.55
614.291	7.56
614.626	7.56
614.961	7.55
615.296	7.55
615.631	7.57
615.966	7.53
616.3	7.54
616.635	7.53
616.97	7.53
617.304	7.55
617.639	7.59
617.973	7.61
618.308	7.63
618.642	7.65
618.977	7.64
619.311	7.63
619.646	7.67
619.98	7.65
620.314	7.66
620.648	7.71
620.983	7.72
621.317	7.72
621.651	7.73
621.985	7.77
622.319	7.8
622.653	7.79
622.987	7.82
623.321	7.83
623.655	7.83
623.988	7.83
624.322	7.81
624.656	7.8
624.99	7.8
625.323	7.8
625.657	7.81
625.99	7.79
626.324	7.8
626.657	7.74
626.991	7.77
627.324	7.75
627.658	7.76
627.991	7.77
628.324	7.78
628.657	7.77
628.991	7.76
629.324	7.8
629.657	7.8
629.99	7.78
630.323	7.76
630.656	7.8
630.989	7.84
631.322	7.88
631.655	7.85
631.987	7.84
632.32	7.82
632.653	7.77
632.986	7.8
633.318	7.8
633.651	7.84
633.984	7.83
634.316	7.88
634.649	7.82
634.981	7.81
635.313	7.78
635.646	7.81
635.978	7.82
636.31	7.77
636.643	7.78
636.975	7.8
637.307	7.88
637.639	7.86
637.971	7.79
638.303	7.77
638.635	7.77
638.967	7.74
639.299	7.77
639.631	7.76
639.963	7.74
640.295	7.81
640.626	7.81
640.958	7.87
641.29	7.9
641.621	7.91
641.953	8.01
642.285	8.08
642.616	8.11
642.948	8.13
643.279	8.23
643.61	8.21
643.942	8.17
644.273	8.14
644.604	8.16
644.936	8.12
645.267	8.15
645.598	8.16
645.929	8.28
646.26	8.29
646.591	8.35
646.922	8.34
647.253	8.33
647.584	8.35
647.915	8.32
648.245	8.23
648.576	8.25
648.907	8.22
649.238	8.18
649.568	8.12
649.899	8.12
650.229	8.01
650.56	8.02
650.89	8.09
651.221	8.13
651.551	8.1
651.882	8.14
652.212	8.11
652.542	8.1
652.872	8.06
653.203	7.99
653.533	7.98
653.863	8.01
654.193	8.02
654.523	8.03
654.853	8.03
655.183	8.08
655.513	8.03
655.843	8
656.172	8.06
656.502	8.09
656.832	8.13
657.162	8.22
657.491	8.24
657.821	8.26
658.15	8.26
658.48	8.31
658.809	8.35
659.139	8.37
659.468	8.38
659.798	8.43
660.127	8.53
660.456	8.6
660.785	8.58
661.115	8.59
661.444	8.59
661.773	8.63
662.102	8.66
662.431	8.72
662.76	8.77
663.089	8.76
663.418	8.79
663.747	8.74
664.076	8.75
664.404	8.71
664.733	8.74
665.062	8.78
665.39	8.81
665.719	8.75
666.048	8.71
666.376	8.69
666.705	8.63
667.033	8.6
667.362	8.64
667.69	8.71
668.018	8.75
668.347	8.72
668.675	8.64
669.003	8.62
669.331	8.66
669.659	8.75
669.987	8.74
670.315	8.74
670.643	8.76
670.971	8.68
671.299	8.74
671.627	8.77
671.955	8.72
672.283	8.74
672.61	8.75
672.938	8.87
673.266	8.9
673.593	9.08
673.921	9.12
674.249	9.05
674.576	9.01
674.904	8.99
675.231	9.03
675.558	9.09
675.886	9.02
676.213	9.07
676.54	9.07
676.867	9.07
677.195	9.02
677.522	9.02
677.849	9.04
678.176	9.05
678.503	9
678.83	9.02
679.157	8.94
679.484	8.99
679.81	8.94
680.137	8.91
680.464	8.74
680.791	8.69
681.117	8.63
681.444	8.68
681.771	8.74
682.097	8.76
682.424	8.79
682.75	8.85
683.077	8.82
683.403	8.81
683.729	8.77
684.056	8.81
684.382	8.84
684.708	8.9
685.034	8.85
685.36	8.89
685.686	8.9
686.012	8.93
686.339	9
686.664	9
686.99	9.11
687.316	9.14
687.642	9.26
687.968	9.39
688.294	9.44
688.619	9.35
688.945	9.31
689.271	9.21
689.596	9.16
689.922	9.16
690.247	9.07
690.573	9.18
690.898	9.27
691.224	9.22
691.549	9.28
691.874	9.27
692.2	9.27
692.525	9.34
692.85	9.49
693.175	9.42
693.5	9.36
693.825	9.32
694.15	9.35
694.475	9.22
694.8	9.17
695.125	9.06
695.45	9.05
695.775	9.12
696.099	9.13
696.424	9.25
696.749	9.24
697.073	9.34
697.398	9.22
697.723	9.19
698.047	9.34
698.372	9.24
698.696	9.26
699.02	9.25
699.345	9.16
699.669	9.12
699.993	9.08
700.318	9.17
700.642	9.22
700.966	9.21
701.29	9.29
701.614	9.29
701.938	9.38
702.262	9.44
702.586	9.36
702.91	9.45
703.234	9.43
703.557	9.51
703.881	9.51
704.205	9.65
704.529	9.62
704.852	9.45
705.176	9.48
705.499	9.52
705.823	9.59
706.146	9.64
706.47	9.61
706.793	9.66
707.117	9.54
707.44	9.48
707.763	9.38
708.086	9.35
708.409	9.31
708.733	9.19
709.056	9.14
709.379	9.26
709.702	9.26
710.025	9.33
710.348	9.16
710.671	9.09
710.993	9.09
711.316	9.14
711.639	9.25
711.962	9.36
712.284	9.47
712.607	9.45
712.93	9.52
713.252	9.53
713.575	9.53
713.897	9.66
714.22	9.55
714.542	9.69
714.864	9.65
715.187	9.71
715.509	10
715.831	10.16
716.153	10.15
716.475	10.2
716.798	10.2
717.12	10.34
717.442	10.36
717.764	10.5
718.085	10.55
718.407	10.61
718.729	10.59
719.051	10.55
719.373	10.63
719.695	10.69
720.016	10.68
720.338	10.88
720.659	10.76
720.981	11.02
721.302	11.08
721.624	11.14
721.945	11
722.267	10.71
722.588	10.53
722.909	10.63
723.231	10.67
723.552	10.68
723.873	10.71
724.194	10.75
724.515	10.59
724.836	10.47
725.157	10.39
725.478	10.33
725.799	10.47
726.12	10.43
726.441	10.46
726.762	10.39
727.083	10.13
727.403	10.32
727.724	10.3
728.045	10.36
728.365	10.44
728.686	10.55
729.006	10.71
729.327	10.85
729.647	10.84
729.967	10.95
730.288	10.96
730.608	10.8
730.928	10.71
731.249	10.83
731.569	10.93
731.889	10.87
732.209	10.88
732.529	10.63
732.849	10.59
733.169	10.57
733.489	10.78
733.809	10.84
734.129	10.7
734.448	10.78
734.768	10.67
735.088	10.78
735.408	10.76
735.727	10.71
736.047	10.72
736.366	10.66
736.686	10.47
737.005	10.25
737.325	10.35
737.644	10.47
737.963	10.32
738.283	10.29
738.602	10.44
738.921	10.56
739.24	10.69
739.56	10.76
739.879	10.72
740.198	10.6
740.517	10.6
740.836	10.84
741.155	10.67
741.473	10.61
741.792	10.36
742.111	10.38
742.43	10.43
742.748	10.32
743.067	10.31
743.386	10.43
743.704	10.9
744.023	11.02
744.341	11.17
744.66	11.04
744.978	11.17
745.297	11.16
745.615	11.25
745.933	11.26
746.252	11.48
746.57	11.36
746.888	11.48
747.206	11.6
747.524	11.51
747.842	11.53
748.16	11.76
748.478	11.97
748.796	12.13
749.114	12.21
749.432	12.08
749.749	12.1
750.067	12.06
750.385	11.81
750.703	11.78
751.02	11.59
751.338	11.75
751.655	11.59
751.973	11.48
752.29	11.43
752.608	11.71
752.925	11.47
753.242	11.46
753.56	11.34
753.877	11.45
754.194	11.58
754.511	11.93
754.828	11.84
755.145	11.78
755.462	11.77
755.779	11.82
756.096	11.89
756.413	12
756.73	12.15
757.047	12.13
757.364	12.22
757.68	12.28
757.997	12.18
758.314	12.27
758.63	12.14
758.947	12.16
759.264	11.85
759.58	11.8
759.896	11.89
760.213	11.95
760.529	11.91
760.846	11.84
761.162	11.43
761.478	11.39
761.794	11.33
762.11	11.22
762.426	11.08
762.743	11.16
763.059	11.17
763.375	10.98
763.69	11.03
764.006	11.08
764.322	11.03
764.638	11.17
764.954	11.45
765.27	11.59
765.585	11.58
765.901	11.71
766.216	11.82
766.532	11.77
766.848	11.64
767.163	11.74
767.478	11.71
767.794	11.9
768.109	11.84
768.424	11.9
768.74	11.96
769.055	12.08
769.37	12.28
769.685	12.25
770	12.45
770.315	12.31
770.63	12.16
770.945	12.03
771.26	12.3
771.575	11.78
771.89	11.81
772.205	11.93
772.52	11.76
772.834	11.54
773.149	11.55
773.464	11.8
773.778	11.93
774.093	11.66
774.407	11.58
774.722	11.98
775.036	12.01
775.351	11.99
775.665	11.8
775.979	11.79
776.293	11.66
776.608	11.52
776.922	11.93
777.236	11.72
777.55	11.93
777.864	11.91
778.178	11.89
778.492	12.3
778.806	11.65
779.12	11.79
779.434	11.95
779.747	12
780.061	11.85
780.375	11.45
780.689	12.01
781.002	12.4
781.316	12.4
781.629	12.65
781.943	12.93
782.256	13.33
782.57	13.08
782.883	13.2
783.196	13.2
783.51	13.01
783.823	13.49
784.136	13.44
784.449	13.6
784.762	13.57
785.075	13.24
785.388	13.79
785.701	13.81
786.014	13.5
786.327	13.32
786.64	13.63
786.953	14.09
787.266	13.93
787.578	13.78
787.891	13.85
788.204	13.4
788.516	13.3
788.829	13.32
789.141	13.34
789.454	13.92
789.766	14.26
790.079	14.25
790.391	14.01
790.703	14.22
791.016	13.91
791.328	14.16
791.64	14.17
791.952	14.57
792.264	14.24
792.576	14.43
792.888	15.03
793.2	14.9
793.512	14.51
793.824	14.23
794.136	14
794.448	13.92
794.76	14.36
795.071	14.29
795.383	14.04
795.695	14.1
796.006	13.41
796.318	13.34
796.629	13.56
796.941	13.76
797.252	13.89
797.564	13.85
797.875	13.85
798.186	13.86
798.497	13.75
798.809	13.95
799.12	14.16
799.431	14.04
799.742	14.38
800.053	14.66
800.364	15
800.675	15.19
800.986	15.02
801.297	14.49
801.608	14.41
801.918	14.13
802.229	14.29
802.54	13.97
802.851	13.53
803.161	13.03
803.472	13.16
803.782	13.01
804.093	13.26
804.403	13.51
804.714	13.58
805.024	13.2
805.334	13.24
805.645	13.88
805.955	14.04
806.265	13.38
806.575	13.05
806.885	13.16
807.195	13.28
807.505	13.39
807.815	13.97
808.125	14.24
808.435	14.69
808.745	14.87
809.055	15.56
809.365	16.11
809.674	16.39
809.984	16.08
810.294	15.68
810.603	15.8
810.913	15.98
811.222	15.94
811.532	16
811.841	16.45
812.151	17
812.46	16.88
812.769	17.33
813.079	17.04
813.388	16.49
813.697	16.82
814.006	17.22
814.315	16.67
814.624	16.71
814.933	16.8
815.242	16.81
815.551	17.36
815.86	18.03
816.169	18.17
816.478	17.73
816.786	18.35
817.095	17.63
817.404	17.41
817.712	17.42
818.021	17.61
818.33	17.16
818.638	16.03
818.947	15.7
819.255	15.77
819.563	16.35
819.872	16.59
820.18	16.14
820.488	15.85
820.796	16.04
821.105	16.02
821.413	15.73
821.721	15.51
822.029	15.34
822.337	15.17
822.645	15.16
822.953	15.21
823.26	15.16
823.568	15.27
823.876	15.26
824.184	15.21
824.491	15.21
824.799	15.21
825.107	15.28
825.414	15.35
825.722	15.24
826.029	14.97
826.337	14.85
826.644	14.76
826.951	14.78
827.259	14.63
827.566	14.47
827.873	14.8
828.18	14.96
828.488	14.97
828.795	14.89
829.102	14.94
829.409	15.13
829.716	15.27
830.023	15.19
830.329	15.31
830.636	15.21
830.943	14.98
831.25	14.81
831.557	14.58
831.863	14.66
832.17	14.47
832.476	15.01
832.783	15.13
833.089	15.45
833.396	15.59
833.702	16
834.009	16.41
834.315	15.57
834.621	15.45
834.928	15.07
835.234	14.98
835.54	14.69
835.846	14.71
836.152	14.54
836.458	14.39
836.764	14.16
837.07	14.23
837.376	14
837.682	14.72
837.988	15.59
838.293	15.57
838.599	15.9
838.905	15.43
839.211	15.61
839.516	15.64
839.822	15.86
840.127	15.26
840.433	15.83
840.738	16.94
841.044	17.33
841.349	17.4
841.654	17.9
841.959	18.29
842.265	17.8
842.57	18.82
842.875	19.25
843.18	20.09
843.485	20.95
843.79	21.74
844.095	20.61
844.4	19.65
844.705	19.83
845.01	20.52
845.315	20.65
845.619	19.44
845.924	20.08
846.229	19.2
846.533	19.87
846.838	18.05
847.142	17.89
847.447	18.32
847.751	18.96
848.056	17.37
848.36	18.45
848.664	19.72
848.969	18.38
849.273	17.38
849.577	14.36
849.881	13.43
850.185	13.44
850.489	13.96
850.794	12.78
851.097	14.39
851.401	13.52
851.705	14.49
852.009	17.54
852.313	16.74
852.617	17.03
852.92	17.48
853.224	16.38
853.528	18.4
853.831	17.83
854.135	19.01
854.438	20.31
854.742	18.94
855.045	17.8
855.349	18.83
855.652	19.94
855.955	23.49
856.259	23.08
856.562	23.64
856.865	22.02
857.168	20.87
857.471	18.57
857.774	20.32
858.077	20.65
858.38	19.62
858.683	20
858.986	18.33
859.289	18.4
859.592	19.14
859.894	17.83
860.197	18.02
860.5	16.55
860.802	16.39
861.105	18.98
861.407	21.1
861.71	21.5
862.012	20.9
862.315	18.68
862.617	18.21
862.919	16.32
863.222	18.49
863.524	21.42
863.826	22.83
864.128	21.18
864.43	19.9
864.732	21.92
865.034	23.85
865.336	27.22
865.638	25.77
865.94	26.23
866.242	28.39
866.544	25.72
866.846	31.61
867.147	31.91
867.449	31.95
867.751	30.54
868.052	29.76
868.354	29.6
868.655	32
868.957	33.68
869.258	35.81
869.56	34.31
869.861	32.81
870.162	32.29
870.463	34.69
870.765	35.49
871.066	32.66
871.367	30.67
871.668	29.96
871.969	30.5
872.27	28.71
872.571	25.74
872.872	26.35
873.173	20.5
873.473	21.71
873.774	20.3
874.075	17.9
874.376	16.85
874.676	20.45
874.977	17.36
875.277	17.77
875.578	20.03
875.878	21.34
876.179	22.11
876.479	21.36
876.78	19.25
877.08	19.58
877.38	18.91
877.68	19.32
877.981	17.53
878.281	18.57
878.581	23.08
