Data from BA28472_Reflection_00009.txt Node
Date: Mon Nov 18 15:24:33 EST 2019
User: vgr7
Spectrometer: USB2G7710
Scans to average: 3
Trigger mode: 4
Integration Time (sec): 2.000000E-2
Electric dark correction enabled: true
Boxcar width: 10
XAxis mode: Wavelengths
Number of Pixels in Spectrum: 2048
>>>>>Begin Spectral Data<<<<<
177.721	-79.71
178.105	26.52
178.488	48.33
178.871	22.5
179.254	5.52
179.636	-91.59
180.019	-10900
180.402	142.31
180.785	22.67
181.168	28.57
181.55	22.16
181.933	81.62
182.316	88.4
182.698	14.31
183.081	18.08
183.463	10.19
183.846	-21.63
184.228	-7.94
184.611	1.16
184.993	-20.12
185.376	-50.62
185.758	-38.9
186.14	-15.66
186.522	-23.19
186.904	-23.75
187.287	-30.24
187.669	-68.73
188.051	-53.7
188.433	-102.03
188.815	-178.96
189.197	-176.36
189.579	-184.46
189.961	-220.09
190.342	-229.66
190.724	-633.89
191.106	-487.96
191.488	-775.93
191.869	475.22
192.251	215.85
192.633	117.69
193.014	209.52
193.396	195.18
193.777	116.98
194.159	170.68
194.54	118.54
194.922	107.64
195.303	108.15
195.684	55.24
196.065	70.49
196.447	16.11
196.828	-14.16
197.209	-39.13
197.59	-57.84
197.971	-39.37
198.352	-34.32
198.733	-47.3
199.114	-42.25
199.495	-29.35
199.876	-28.23
200.257	40.23
200.638	62.16
201.018	51.88
201.399	12.83
201.78	18.03
202.16	10.71
202.541	-3.98
202.922	-32.6
203.302	-36.38
203.683	-20.44
204.063	-38.04
204.444	-35.2
204.824	-59.54
205.204	-45.59
205.585	-41.18
205.965	-37.23
206.345	-77.49
206.725	-126.52
207.106	-134.48
207.486	-188.38
207.866	-159.87
208.246	-154.88
208.626	-279.24
209.006	-179.62
209.386	-174.61
209.766	-290.6
210.145	-578.46
210.525	-153.07
210.905	-193.8
211.285	-143.64
211.664	-272.75
212.044	-74.47
212.424	91.6
212.803	11.47
213.183	81.61
213.562	213.3
213.942	-215.07
214.321	188.61
214.701	222.39
215.08	163.01
215.459	130.52
215.838	180.05
216.218	79.66
216.597	105.96
216.976	69.22
217.355	73.3
217.734	76.11
218.113	113.32
218.492	69.83
218.871	49.92
219.25	38.52
219.629	68.8
220.008	53.66
220.387	91.03
220.766	63
221.144	45.02
221.523	44.05
221.902	61.58
222.28	63.71
222.659	54.27
223.037	66.59
223.416	63.38
223.794	45.01
224.173	43.46
224.551	19.3
224.929	17.87
225.308	10.46
225.686	13.39
226.064	11.11
226.442	5.48
226.821	6
227.199	0.69
227.577	0.87
227.955	-5.41
228.333	-9.15
228.711	-6.34
229.089	-3.49
229.467	-7.29
229.845	-10.89
230.222	-10.01
230.6	-9.43
230.978	-10.22
231.356	-5.33
231.733	-3.71
232.111	-3.58
232.488	-2.4
232.866	-1.97
233.243	-0.83
233.621	-1.5
233.998	-0.53
234.376	0.63
234.753	2.25
235.13	3.45
235.508	3.01
235.885	3.48
236.262	3.37
236.639	5.17
237.016	5.3
237.393	6.37
237.77	7.76
238.147	9.13
238.524	9.24
238.901	9.68
239.278	9.66
239.655	9.11
240.032	8.65
240.409	7.71
240.785	7.71
241.162	8.21
241.539	8.16
241.915	7.92
242.292	7.39
242.668	6.77
243.045	7
243.421	7.13
243.798	7.13
244.174	6.99
244.551	6.67
244.927	6.36
245.303	6.46
245.679	6.41
246.056	5.96
246.432	5.85
246.808	5.83
247.184	5.21
247.56	5.09
247.936	5.1
248.312	5.23
248.688	5.28
249.064	4.85
249.44	4.72
249.815	4.69
250.191	4.78
250.567	4.9
250.943	4.66
251.318	4.56
251.694	4.69
252.069	4.67
252.445	4.78
252.82	4.72
253.196	4.53
253.571	4.5
253.947	4.67
254.322	4.61
254.697	4.39
255.073	4.53
255.448	4.51
255.823	4.56
256.198	4.8
256.573	4.59
256.948	4.65
257.323	4.76
257.698	4.63
258.073	4.57
258.448	4.61
258.823	4.62
259.198	4.51
259.573	4.4
259.948	4.3
260.322	4.06
260.697	4.24
261.072	4.12
261.446	4
261.821	3.97
262.195	4.06
262.57	4.01
262.944	4.07
263.319	4.06
263.693	4.15
264.067	4.05
264.442	4.07
264.816	4.15
265.19	4.1
265.564	4.06
265.938	3.92
266.313	3.97
266.687	4.09
267.061	4.3
267.435	4.34
267.809	4.41
268.183	4.47
268.556	4.31
268.93	4.45
269.304	4.41
269.678	4.46
270.051	4.41
270.425	4.46
270.799	4.38
271.172	4.45
271.546	4.33
271.919	4.27
272.293	4.18
272.666	4.28
273.04	4.26
273.413	4.25
273.787	4.36
274.16	4.37
274.533	4.29
274.906	4.14
275.279	4.16
275.653	4.26
276.026	4.29
276.399	4.18
276.772	4.33
277.145	4.36
277.518	4.26
277.891	4.17
278.263	4.15
278.636	4.22
279.009	4.15
279.382	4.27
279.755	4.27
280.127	4.53
280.5	4.5
280.872	4.55
281.245	4.58
281.617	4.56
281.99	4.61
282.362	4.52
282.735	4.53
283.107	4.53
283.479	4.54
283.852	4.47
284.224	4.56
284.596	4.33
284.968	4.42
285.34	4.41
285.713	4.42
286.085	4.58
286.457	4.69
286.829	4.79
287.201	4.87
287.572	4.89
287.944	4.75
288.316	4.75
288.688	4.73
289.06	4.62
289.431	4.67
289.803	4.7
290.175	4.77
290.546	4.97
290.918	4.94
291.289	4.86
291.661	5.12
292.032	5.17
292.403	5.29
292.775	5.33
293.146	5.34
293.517	5.49
293.889	5.43
294.26	5.41
294.631	5.25
295.002	5.09
295.373	5.03
295.744	5.02
296.115	5.12
296.486	5.01
296.857	5.2
297.228	5.34
297.599	5.28
297.97	5.46
298.34	5.36
298.711	5.41
299.082	5.45
299.452	5.36
299.823	5.44
300.194	5.51
300.564	5.48
300.935	5.6
301.305	5.61
301.676	5.7
302.046	5.71
302.416	5.86
302.787	6.04
303.157	6.13
303.527	6.32
303.897	6.17
304.267	6.52
304.637	6.51
305.008	6.36
305.378	6.43
305.748	6.38
306.117	6.41
306.487	6.46
306.857	6.44
307.227	6.49
307.597	6.46
307.967	6.48
308.336	6.57
308.706	6.59
309.076	6.7
309.445	6.57
309.815	6.53
310.184	6.46
310.554	6.39
310.923	6.39
311.293	6.39
311.662	6.53
312.031	6.38
312.401	6.44
312.77	6.53
313.139	6.63
313.508	6.67
313.877	6.76
314.246	6.73
314.616	6.81
314.985	6.92
315.353	6.87
315.722	7.05
316.091	6.99
316.46	7.01
316.829	6.9
317.198	7.1
317.567	7.26
317.935	7.35
318.304	7.52
318.672	7.64
319.041	7.69
319.41	7.61
319.778	7.75
320.147	7.74
320.515	7.78
320.883	7.73
321.252	7.85
321.62	7.88
321.988	7.96
322.357	8.04
322.725	7.9
323.093	8.08
323.461	8.01
323.829	8.19
324.197	8.3
324.565	8.56
324.933	8.53
325.301	8.5
325.669	8.63
326.037	8.73
326.405	8.8
326.772	8.87
327.14	9.07
327.508	9.06
327.875	9.21
328.243	9.37
328.61	9.32
328.978	9.24
329.346	9.28
329.713	9.29
330.08	9.48
330.448	9.59
330.815	9.66
331.182	9.66
331.55	9.58
331.917	9.54
332.284	9.39
332.651	9.37
333.018	9.34
333.385	9.34
333.752	9.29
334.119	9.32
334.486	9.28
334.853	9.19
335.22	9.3
335.587	9.27
335.954	9.21
336.32	9.27
336.687	9.3
337.054	9.38
337.42	9.55
337.787	9.48
338.153	9.45
338.52	9.46
338.886	9.36
339.253	9.39
339.619	9.48
339.986	9.46
340.352	9.52
340.718	9.66
341.084	9.75
341.451	9.78
341.817	9.72
342.183	9.73
342.549	9.78
342.915	9.71
343.281	9.71
343.647	9.71
344.013	9.81
344.379	9.8
344.745	9.85
345.11	9.82
345.476	9.9
345.842	9.93
346.208	10.03
346.573	10.23
346.939	10.32
347.304	10.22
347.67	10.2
348.035	10.25
348.401	10.31
348.766	10.32
349.132	10.31
349.497	10.38
349.862	10.43
350.228	10.45
350.593	10.55
350.958	10.56
351.323	10.6
351.688	10.6
352.053	10.7
352.418	10.68
352.783	10.72
353.148	10.65
353.513	10.67
353.878	10.6
354.243	10.5
354.608	10.47
354.972	10.56
355.337	10.65
355.702	10.68
356.066	10.69
356.431	10.66
356.795	10.7
357.16	10.62
357.524	10.55
357.889	10.54
358.253	10.55
358.618	10.62
358.982	10.59
359.346	10.51
359.71	10.43
360.075	10.32
360.439	10.31
360.803	10.22
361.167	10.19
361.531	10.16
361.895	10.15
362.259	10.11
362.623	10.08
362.987	10.02
363.351	10.06
363.714	9.99
364.078	9.93
364.442	9.94
364.806	9.95
365.169	9.94
365.533	9.92
365.896	9.84
366.26	9.76
366.623	9.71
366.987	9.72
367.35	9.74
367.714	9.78
368.077	9.68
368.44	9.69
368.803	9.63
369.167	9.55
369.53	9.48
369.893	9.45
370.256	9.41
370.619	9.37
370.982	9.23
371.345	9.15
371.708	9.15
372.071	8.99
372.434	8.92
372.797	8.86
373.159	8.74
373.522	8.72
373.885	8.63
374.247	8.6
374.61	8.57
374.973	8.48
375.335	8.3
375.698	8.27
376.06	8.21
376.423	8.16
376.785	8.16
377.147	8.15
377.51	8.08
377.872	8.01
378.234	7.96
378.596	7.91
378.958	7.82
379.321	7.77
379.683	7.73
380.045	7.73
380.407	7.62
380.769	7.65
381.13	7.56
381.492	7.52
381.854	7.49
382.216	7.36
382.578	7.34
382.939	7.38
383.301	7.32
383.663	7.25
384.024	7.23
384.386	7.18
384.747	7.16
385.109	7.1
385.47	7.06
385.832	7.02
386.193	7.01
386.554	6.97
386.916	6.9
387.277	6.86
387.638	6.79
387.999	6.78
388.36	6.69
388.721	6.68
389.082	6.63
389.443	6.53
389.804	6.55
390.165	6.49
390.526	6.45
390.887	6.39
391.248	6.39
391.609	6.35
391.969	6.29
392.33	6.24
392.691	6.23
393.051	6.2
393.412	6.16
393.772	6.1
394.133	6.1
394.493	6.07
394.854	6.04
395.214	6.01
395.574	6.01
395.935	5.97
396.295	5.92
396.655	5.89
397.015	5.86
397.376	5.78
397.736	5.77
398.096	5.74
398.456	5.74
398.816	5.7
399.176	5.63
399.535	5.58
399.895	5.53
400.255	5.48
400.615	5.43
400.975	5.35
401.334	5.29
401.694	5.22
402.054	5.17
402.413	5.13
402.773	5.11
403.132	5.09
403.492	5.08
403.851	5.02
404.211	4.97
404.57	4.95
404.929	4.95
405.288	4.9
405.648	4.86
406.007	4.81
406.366	4.78
406.725	4.79
407.084	4.81
407.443	4.79
407.802	4.78
408.161	4.76
408.52	4.77
408.879	4.78
409.238	4.79
409.596	4.76
409.955	4.76
410.314	4.74
410.673	4.69
411.031	4.69
411.39	4.7
411.748	4.7
412.107	4.7
412.465	4.67
412.824	4.65
413.182	4.66
413.54	4.62
413.899	4.63
414.257	4.62
414.615	4.59
414.974	4.57
415.332	4.54
415.69	4.5
416.048	4.46
416.406	4.44
416.764	4.42
417.122	4.42
417.48	4.38
417.838	4.36
418.195	4.34
418.553	4.33
418.911	4.32
419.269	4.31
419.626	4.29
419.984	4.27
420.342	4.24
420.699	4.23
421.057	4.22
421.414	4.19
421.772	4.16
422.129	4.16
422.486	4.14
422.844	4.14
423.201	4.11
423.558	4.11
423.915	4.11
424.273	4.1
424.63	4.08
424.987	4.08
425.344	4.07
425.701	4.07
426.058	4.05
426.415	4.02
426.772	4.01
427.128	4
427.485	3.99
427.842	4
428.199	3.98
428.555	3.97
428.912	3.98
429.269	3.99
429.625	3.95
429.982	3.93
430.338	3.94
430.695	3.95
431.051	3.93
431.407	3.9
431.764	3.9
432.12	3.9
432.476	3.88
432.832	3.85
433.189	3.84
433.545	3.83
433.901	3.84
434.257	3.82
434.613	3.83
434.969	3.82
435.325	3.84
435.681	3.84
436.036	3.85
436.392	3.85
436.748	3.82
437.104	3.83
437.459	3.84
437.815	3.83
438.171	3.84
438.526	3.88
438.882	3.86
439.237	3.86
439.593	3.86
439.948	3.87
440.304	3.87
440.659	3.89
441.014	3.89
441.369	3.88
441.725	3.88
442.08	3.87
442.435	3.87
442.79	3.85
443.145	3.84
443.5	3.82
443.855	3.8
444.21	3.8
444.565	3.79
444.92	3.79
445.275	3.76
445.629	3.74
445.984	3.71
446.339	3.71
446.693	3.7
447.048	3.69
447.403	3.67
447.757	3.67
448.112	3.64
448.466	3.62
448.82	3.61
449.175	3.62
449.529	3.61
449.883	3.59
450.238	3.59
450.592	3.58
450.946	3.57
451.3	3.56
451.654	3.57
452.008	3.57
452.362	3.54
452.716	3.55
453.07	3.56
453.424	3.56
453.778	3.56
454.132	3.55
454.486	3.53
454.839	3.51
455.193	3.5
455.547	3.49
455.9	3.49
456.254	3.5
456.607	3.5
456.961	3.5
457.314	3.5
457.668	3.51
458.021	3.49
458.375	3.48
458.728	3.47
459.081	3.48
459.434	3.47
459.787	3.48
460.141	3.47
460.494	3.48
460.847	3.48
461.2	3.48
461.553	3.5
461.906	3.53
462.259	3.54
462.611	3.57
462.964	3.6
463.317	3.61
463.67	3.6
464.022	3.61
464.375	3.62
464.728	3.64
465.08	3.64
465.433	3.66
465.785	3.69
466.138	3.71
466.49	3.73
466.843	3.75
467.195	3.76
467.547	3.79
467.899	3.79
468.252	3.79
468.604	3.81
468.956	3.81
469.308	3.82
469.66	3.82
470.012	3.83
470.364	3.84
470.716	3.84
471.068	3.88
471.42	3.89
471.772	3.92
472.123	3.93
472.475	3.95
472.827	3.97
473.178	3.99
473.53	3.99
473.882	3.98
474.233	4
474.585	4.02
474.936	4.02
475.288	4.03
475.639	4.04
475.99	4.04
476.342	4.03
476.693	4.04
477.044	4.06
477.395	4.04
477.746	4.02
478.097	4.02
478.448	4.01
478.8	4.01
479.15	3.96
479.501	3.95
479.852	3.95
480.203	3.93
480.554	3.93
480.905	3.93
481.255	3.93
481.606	3.92
481.957	3.91
482.307	3.9
482.658	3.9
483.009	3.89
483.359	3.91
483.709	3.91
484.06	3.89
484.41	3.89
484.761	3.89
485.111	3.89
485.461	3.89
485.811	3.88
486.162	3.86
486.512	3.87
486.862	3.87
487.212	3.86
487.562	3.86
487.912	3.86
488.262	3.87
488.612	3.87
488.961	3.87
489.311	3.88
489.661	3.87
490.011	3.87
490.36	3.87
490.71	3.86
491.06	3.87
491.409	3.89
491.759	3.89
492.108	3.89
492.458	3.91
492.807	3.91
493.157	3.93
493.506	3.96
493.855	3.97
494.204	3.99
494.554	4
494.903	4.02
495.252	4.03
495.601	4.05
495.95	4.06
496.299	4.1
496.648	4.1
496.997	4.14
497.346	4.18
497.695	4.21
498.043	4.26
498.392	4.29
498.741	4.3
499.09	4.31
499.438	4.37
499.787	4.42
500.135	4.47
500.484	4.53
500.832	4.59
501.181	4.66
501.529	4.71
501.878	4.79
502.226	4.86
502.574	4.92
502.923	4.97
503.271	5.04
503.619	5.13
503.967	5.24
504.315	5.31
504.663	5.39
505.011	5.48
505.359	5.55
505.707	5.64
506.055	5.76
506.403	5.88
506.751	5.98
507.098	6.06
507.446	6.16
507.794	6.25
508.141	6.35
508.489	6.46
508.837	6.56
509.184	6.67
509.531	6.79
509.879	6.92
510.226	7.05
510.574	7.17
510.921	7.28
511.268	7.39
511.616	7.51
511.963	7.63
512.31	7.76
512.657	7.89
513.004	8.04
513.351	8.19
513.698	8.31
514.045	8.44
514.392	8.61
514.739	8.76
515.086	8.91
515.432	9.06
515.779	9.18
516.126	9.33
516.473	9.5
516.819	9.63
517.166	9.76
517.512	9.88
517.859	10.01
518.205	10.12
518.552	10.26
518.898	10.4
519.245	10.51
519.591	10.64
519.937	10.76
520.283	10.89
520.629	11.05
520.976	11.21
521.322	11.39
521.668	11.54
522.014	11.72
522.36	11.92
522.706	12.1
523.052	12.32
523.398	12.56
523.743	12.76
524.089	12.98
524.435	13.17
524.781	13.4
525.126	13.61
525.472	13.8
525.817	13.96
526.163	14.12
526.509	14.28
526.854	14.43
527.199	14.57
527.545	14.7
527.89	14.83
528.235	14.98
528.581	15.12
528.926	15.28
529.271	15.41
529.616	15.55
529.961	15.69
530.306	15.84
530.651	15.99
530.996	16.16
531.341	16.33
531.686	16.55
532.031	16.75
532.376	16.94
532.721	17.13
533.065	17.34
533.41	17.56
533.755	17.76
534.099	17.99
534.444	18.24
534.788	18.48
535.133	18.69
535.477	18.92
535.822	19.17
536.166	19.43
536.51	19.74
536.855	20.05
537.199	20.38
537.543	20.69
537.887	21.02
538.231	21.34
538.576	21.68
538.92	21.98
539.264	22.28
539.608	22.55
539.951	22.83
540.295	23.08
540.639	23.35
540.983	23.6
541.327	23.84
541.671	24.08
542.014	24.33
542.358	24.55
542.701	24.81
543.045	25.04
543.389	25.27
543.732	25.5
544.075	25.75
544.419	26.01
544.762	26.26
545.105	26.53
545.449	26.8
545.792	27.07
546.135	27.34
546.478	27.61
546.821	27.94
547.165	28.26
547.508	28.61
547.851	28.96
548.194	29.32
548.536	29.66
548.879	29.97
549.222	30.3
549.565	30.66
549.908	30.97
550.25	31.3
550.593	31.63
550.936	31.95
551.278	32.25
551.621	32.56
551.963	32.88
552.306	33.2
552.648	33.56
552.991	33.87
553.333	34.17
553.675	34.5
554.017	34.78
554.36	35.07
554.702	35.33
555.044	35.59
555.386	35.83
555.728	36.09
556.07	36.38
556.412	36.61
556.754	36.91
557.096	37.17
557.438	37.43
557.78	37.77
558.121	38.03
558.463	38.3
558.805	38.55
559.147	38.81
559.488	39.04
559.83	39.29
560.171	39.55
560.513	39.84
560.854	40.06
561.196	40.27
561.537	40.51
561.878	40.73
562.22	40.94
562.561	41.16
562.902	41.39
563.243	41.59
563.584	41.83
563.925	42.02
564.266	42.26
564.607	42.47
564.948	42.61
565.289	42.8
565.63	43.01
565.971	43.2
566.312	43.41
566.653	43.56
566.993	43.7
567.334	43.86
567.675	44
568.015	44.19
568.356	44.35
568.696	44.51
569.037	44.64
569.377	44.84
569.718	45.06
570.058	45.21
570.398	45.39
570.739	45.58
571.079	45.76
571.419	45.9
571.759	46.06
572.099	46.23
572.439	46.35
572.779	46.48
573.119	46.6
573.459	46.75
573.799	46.92
574.139	47.07
574.479	47.22
574.819	47.34
575.158	47.44
575.498	47.6
575.838	47.78
576.177	47.99
576.517	48.12
576.856	48.19
577.196	48.29
577.535	48.42
577.875	48.47
578.214	48.55
578.553	48.67
578.893	48.77
579.232	48.92
579.571	49.11
579.91	49.17
580.25	49.31
580.589	49.46
580.928	49.57
581.267	49.65
581.606	49.7
581.945	49.87
582.283	50
582.622	50.13
582.961	50.22
583.3	50.29
583.639	50.38
583.977	50.56
584.316	50.71
584.654	50.79
584.993	50.93
585.332	51.08
585.67	51.14
586.008	51.24
586.347	51.24
586.685	51.3
587.024	51.43
587.362	51.54
587.7	51.53
588.038	51.64
588.376	51.69
588.715	51.75
589.053	51.78
589.391	51.87
589.729	51.93
590.067	52.02
590.404	52.11
590.742	52.16
591.08	52.18
591.418	52.2
591.756	52.34
592.093	52.46
592.431	52.55
592.769	52.59
593.106	52.63
593.444	52.72
593.781	52.76
594.119	52.85
594.456	52.85
594.793	52.93
595.131	52.91
595.468	52.99
595.805	53.1
596.143	53.16
596.48	53.21
596.817	53.26
597.154	53.22
597.491	53.26
597.828	53.34
598.165	53.37
598.502	53.44
598.839	53.5
599.176	53.51
599.512	53.48
599.849	53.51
600.186	53.65
600.523	53.75
600.859	53.75
601.196	53.81
601.532	53.88
601.869	53.9
602.205	54
602.542	54.04
602.878	54.08
603.215	54.07
603.551	54.04
603.887	54.07
604.223	54.13
604.56	54.12
604.896	54.15
605.232	54.2
605.568	54.25
605.904	54.18
606.24	54.29
606.576	54.38
606.912	54.44
607.248	54.38
607.583	54.37
607.919	54.47
608.255	54.51
608.591	54.57
608.926	54.64
609.262	54.68
609.597	54.74
609.933	54.81
610.268	54.91
610.604	54.97
610.939	54.98
611.275	55.07
611.61	55.15
611.945	55.16
612.281	55.21
612.616	55.26
612.951	55.43
613.286	55.42
613.621	55.43
613.956	55.61
614.291	55.73
614.626	55.81
614.961	55.84
615.296	55.91
615.631	55.97
615.966	55.97
616.3	56.07
616.635	56.15
616.97	56.22
617.304	56.17
617.639	56.29
617.973	56.4
618.308	56.34
618.642	56.35
618.977	56.32
619.311	56.25
619.646	56.27
619.98	56.13
620.314	56.12
620.648	56.17
620.983	56.12
621.317	56.17
621.651	56.16
621.985	56.1
622.319	56.04
622.653	56.07
622.987	56.18
623.321	56.11
623.655	56.07
623.988	56.04
624.322	56.09
624.656	56.05
624.99	56.08
625.323	56.17
625.657	56.21
625.99	56.31
626.324	56.48
626.657	56.53
626.991	56.61
627.324	56.59
627.658	56.66
627.991	56.74
628.324	56.81
628.657	56.78
628.991	56.88
629.324	56.9
629.657	56.88
629.99	56.78
630.323	56.82
630.656	56.98
630.989	57.02
631.322	57.11
631.655	57.15
631.987	57.17
632.32	57.14
632.653	57.16
632.986	57.2
633.318	57.16
633.651	57.09
633.984	57.12
634.316	57.19
634.649	57.13
634.981	57.04
635.313	56.98
635.646	57.07
635.978	57.14
636.31	57.17
636.643	57.23
636.975	57.33
637.307	57.35
637.639	57.23
637.971	57.3
638.303	57.23
638.635	57.3
638.967	57.33
639.299	57.4
639.631	57.39
639.963	57.45
640.295	57.47
640.626	57.58
640.958	57.63
641.29	57.56
641.621	57.6
641.953	57.64
642.285	57.68
642.616	57.72
642.948	57.72
643.279	57.75
643.61	57.75
643.942	57.85
644.273	57.89
644.604	57.84
644.936	57.81
645.267	57.89
645.598	57.9
645.929	57.87
646.26	57.86
646.591	57.88
646.922	57.84
647.253	57.81
647.584	57.73
647.915	57.72
648.245	57.81
648.576	57.86
648.907	57.88
649.238	57.85
649.568	57.87
649.899	57.87
650.229	57.91
650.56	57.99
650.89	57.96
651.221	58.1
651.551	58.15
651.882	58.21
652.212	58.07
652.542	57.87
652.872	57.86
653.203	57.91
653.533	57.95
653.863	57.93
654.193	58.01
654.523	58.06
654.853	58.12
655.183	58.19
655.513	58.13
655.843	58.13
656.172	58.26
656.502	58.23
656.832	58.24
657.162	58.32
657.491	58.24
657.821	58.25
658.15	58.12
658.48	58.07
658.809	57.97
659.139	58.14
659.468	58.33
659.798	58.35
660.127	58.32
660.456	58.43
660.785	58.42
661.115	58.44
661.444	58.46
661.773	58.53
662.102	58.52
662.431	58.5
662.76	58.66
663.089	58.58
663.418	58.56
663.747	58.59
664.076	58.45
664.404	58.51
664.733	58.49
665.062	58.41
665.39	58.48
665.719	58.5
666.048	58.42
666.376	58.43
666.705	58.44
667.033	58.42
667.362	58.24
667.69	58.2
668.018	58.17
668.347	58.18
668.675	58.02
669.003	57.95
669.331	58.13
669.659	58.11
669.987	58.21
670.315	58.34
670.643	58.39
670.971	58.43
671.299	58.4
671.627	58.4
671.955	58.54
672.283	58.63
672.61	58.61
672.938	58.68
673.266	58.54
673.593	58.57
673.921	58.68
674.249	58.78
674.576	58.88
674.904	58.86
675.231	58.84
675.558	58.87
675.886	58.97
676.213	58.89
676.54	58.91
676.867	58.84
677.195	58.71
677.522	58.69
677.849	58.71
678.176	58.67
678.503	58.69
678.83	58.65
679.157	58.56
679.484	58.7
679.81	58.85
680.137	59
680.464	58.99
680.791	59.03
681.117	59.06
681.444	59.09
681.771	59.18
682.097	59.24
682.424	59.27
682.75	59.31
683.077	59.31
683.403	59.15
683.729	59.12
684.056	59.22
684.382	59.21
684.708	59.24
685.034	59.38
685.36	59.47
685.686	59.41
686.012	59.46
686.339	59.37
686.664	59.15
686.99	59.13
687.316	59.07
687.642	59.09
687.968	58.99
688.294	58.99
688.619	58.88
688.945	58.81
689.271	58.92
689.596	58.93
689.922	58.94
690.247	59.05
690.573	59.08
690.898	59.12
691.224	59.07
691.549	59.01
691.874	58.89
692.2	58.78
692.525	59.05
692.85	58.95
693.175	58.95
693.5	58.95
693.825	59.03
694.15	59.16
694.475	59.07
694.8	59.3
695.125	59.17
695.45	59.23
695.775	59.27
696.099	59.42
696.424	59.38
696.749	59.48
697.073	59.46
697.398	59.52
697.723	59.49
698.047	59.64
698.372	59.66
698.696	59.81
699.02	59.8
699.345	59.73
699.669	59.94
699.993	59.97
700.318	60.04
700.642	59.99
700.966	59.89
701.29	59.96
701.614	59.85
701.938	59.87
702.262	59.99
702.586	59.98
702.91	59.76
703.234	59.94
703.557	59.9
703.881	59.89
704.205	59.81
704.529	59.84
704.852	59.8
705.176	59.87
705.499	59.67
705.823	59.53
706.146	59.55
706.47	59.35
706.793	59.31
707.117	59.29
707.44	59.27
707.763	59.44
708.086	59.49
708.409	59.63
708.733	59.72
709.056	59.59
709.379	59.77
709.702	59.9
710.025	59.67
710.348	59.54
710.671	59.6
710.993	59.68
711.316	59.63
711.639	59.69
711.962	59.74
712.284	60.04
712.607	60.27
712.93	60.3
713.252	60.3
713.575	60.31
713.897	60.38
714.22	60.6
714.542	60.46
714.864	60.26
715.187	60.03
715.509	60.04
715.831	60.06
716.153	60.08
716.475	59.88
716.798	60
717.12	60.06
717.442	60.04
717.764	59.95
718.085	60.09
718.407	59.84
718.729	59.88
719.051	59.67
719.373	59.5
719.695	59.48
720.016	59.6
720.338	59.57
720.659	59.54
720.981	59.5
721.302	59.69
721.624	59.86
721.945	60.1
722.267	60.15
722.588	60.24
722.909	59.98
723.231	59.93
723.552	59.96
723.873	60.16
724.194	60.34
724.515	60.54
724.836	60.21
725.157	60.36
725.478	60.53
725.799	60.47
726.12	60.53
726.441	60.33
726.762	60.25
727.083	60.55
727.403	60.64
727.724	60.52
728.045	60.71
728.365	60.79
728.686	60.61
729.006	60.7
729.327	60.64
729.647	60.69
729.967	60.72
730.288	60.74
730.608	60.67
730.928	60.37
731.249	60.26
731.569	60.58
731.889	60.68
732.209	60.59
732.529	60.56
732.849	60.72
733.169	60.71
733.489	60.92
733.809	60.82
734.129	60.57
734.448	60.58
734.768	60.45
735.088	60.24
735.408	60.1
735.727	60.05
736.047	60.18
736.366	60.13
736.686	60.33
737.005	60.22
737.325	60.19
737.644	60.32
737.963	60.53
738.283	60.34
738.602	60.27
738.921	60.11
739.24	60.21
739.56	60.14
739.879	60.05
740.198	59.72
740.517	59.76
740.836	59.86
741.155	59.88
741.473	59.7
741.792	59.74
742.111	60.03
742.43	60.31
742.748	60.38
743.067	60.7
743.386	60.75
743.704	60.95
744.023	60.62
744.341	60.59
744.66	60.13
744.978	60.06
745.297	60.29
745.615	60.65
745.933	60.61
746.252	60.56
746.57	60.96
746.888	61.25
747.206	60.89
747.524	61.17
747.842	61.02
748.16	61.15
748.478	61.37
748.796	61.31
749.114	61.23
749.432	61.08
749.749	61.08
750.067	60.98
750.385	60.81
750.703	60.72
751.02	60.93
751.338	61.54
751.655	61.61
751.973	61.46
752.29	61.24
752.608	61.13
752.925	60.93
753.242	60.95
753.56	60.71
753.877	60.91
754.194	60.72
754.511	61.06
754.828	61.03
755.145	60.91
755.462	60.82
755.779	60.6
756.096	60.83
756.413	60.47
756.73	60.76
757.047	60.61
757.364	60.9
757.68	60.84
757.997	60.47
758.314	60.43
758.63	60.56
758.947	60.6
759.264	60.65
759.58	60.79
759.896	60.61
760.213	60.76
760.529	61.02
760.846	60.94
761.162	60.69
761.478	60.69
761.794	60.7
762.11	60.94
762.426	60.68
762.743	60.44
763.059	60.55
763.375	60.54
763.69	60.82
764.006	61.08
764.322	61.06
764.638	61.19
764.954	61.3
765.27	61.18
765.585	61.02
765.901	61.19
766.216	61.17
766.532	61.41
766.848	61.27
767.163	61.31
767.478	61.32
767.794	61.17
768.109	61.41
768.424	61.43
768.74	61.34
769.055	61.86
769.37	62.07
769.685	61.81
770	61.57
770.315	61.65
770.63	61.22
770.945	61.2
771.26	60.61
771.575	60.4
771.89	60.25
772.205	60.26
772.52	60.33
772.834	60.37
773.149	60.17
773.464	60.57
773.778	60.56
774.093	60.52
774.407	60.84
774.722	60.42
775.036	60.5
775.351	61.02
775.665	60.58
775.979	60.5
776.293	61.01
776.608	60.65
776.922	60.15
777.236	60.22
777.55	60.49
777.864	60.99
778.178	61.52
778.492	61.45
778.806	61.66
779.12	61.44
779.434	61.41
779.747	61.6
780.061	61.46
780.375	61.18
780.689	61.28
781.002	61.3
781.316	61.4
781.629	61.72
781.943	61.47
782.256	61.73
782.57	61.24
782.883	61.13
783.196	61.61
783.51	62.04
783.823	62.07
784.136	61.5
784.449	61.71
784.762	61.56
785.075	61.8
785.388	61.31
785.701	61.31
786.014	61.78
786.327	61.91
786.64	62.18
786.953	62.47
787.266	62.57
787.578	62.64
787.891	62.29
788.204	61.91
788.516	61.85
788.829	61.66
789.141	62.42
789.454	62.36
789.766	62.28
790.079	62.46
790.391	62.55
790.703	62.63
791.016	62.15
791.328	61.62
791.64	61.28
791.952	61.79
792.264	61.71
792.576	60.73
792.888	60.86
793.2	60.83
793.512	60.97
793.824	61.25
794.136	61.25
794.448	61.33
794.76	61.5
795.071	61.22
795.383	60.85
795.695	60.29
796.006	60.32
796.318	60.56
796.629	60.03
796.941	60.11
797.252	60.33
797.564	60.88
797.875	61
798.186	61.39
798.497	61.23
798.809	61.55
799.12	62.04
799.431	60.99
799.742	60.29
800.053	60.23
800.364	60.45
800.675	60.23
800.986	60.24
801.297	60.23
801.608	60.52
801.918	60.7
802.229	60.62
802.54	61.04
802.851	60.93
803.161	61.29
803.472	61.19
803.782	61.13
804.093	60.73
804.403	61.33
804.714	61.65
805.024	61.5
805.334	61.38
805.645	61.55
805.955	61.91
806.265	62.49
806.575	62.26
806.885	61.5
807.195	61.92
807.505	62.54
807.815	62.57
808.125	62.39
808.435	63.24
808.745	63.51
809.055	63.53
809.365	63.93
809.674	63.79
809.984	63.47
810.294	63.43
810.603	64.31
810.913	64.38
811.222	63.97
811.532	64.17
811.841	64.09
812.151	63.57
812.46	64.47
812.769	64.46
813.079	63.86
813.388	63.28
813.697	62.19
814.006	62.33
814.315	62.03
814.624	61.6
814.933	61.27
815.242	61.26
815.551	61.18
815.86	61.1
816.169	61.51
816.478	61.79
816.786	61.88
817.095	61.69
817.404	60.88
817.712	60.73
818.021	60.75
818.33	60.72
818.638	60.68
818.947	60.24
819.255	60.21
819.563	60.54
819.872	61
820.18	61.23
820.488	60.94
820.796	60.75
821.105	61.12
821.413	61.11
821.721	61.08
822.029	60.89
822.337	60.78
822.645	60.75
822.953	60.82
823.26	60.73
823.568	60.69
823.876	61.03
824.184	61.14
824.491	61.24
824.799	61.1
825.107	61.39
825.414	61.42
825.722	61.38
826.029	61.56
826.337	61.61
826.644	61.68
826.951	61.69
827.259	61.96
827.566	61.75
827.873	61.97
828.18	62.1
828.488	62.33
828.795	62.46
829.102	62.42
829.409	62.27
829.716	62.86
830.023	62.98
830.329	62.52
830.636	63.13
830.943	63.04
831.25	62.78
831.557	62.72
831.863	63.01
832.17	63.65
832.476	63.14
832.783	62.78
833.089	62.38
833.396	63.14
833.702	63.1
834.009	63.46
834.315	62.85
834.621	62.58
834.928	62.56
835.234	62.36
835.54	62.19
835.846	62.54
836.152	62.22
836.458	62.03
836.764	61.89
837.07	61.36
837.376	61.13
837.682	62.34
837.988	62.39
838.293	62.61
838.599	62.14
838.905	62.7
839.211	62.97
839.516	62.78
839.822	62.38
840.127	62.04
840.433	61.87
840.738	62.48
841.044	62.43
841.349	62.75
841.654	62.53
841.959	63.28
842.265	63.53
842.57	63.66
842.875	63.86
843.18	64.41
843.485	63.13
843.79	63.48
844.095	62.97
844.4	62.75
844.705	62.14
845.01	62.15
845.315	62.39
845.619	62.43
845.924	64.92
846.229	64.56
846.533	65.63
846.838	65.62
847.142	66.01
847.447	65.18
847.751	64.7
848.056	65.52
848.36	66.39
848.664	66.83
848.969	64.95
849.273	64.92
849.577	65.77
849.881	67.61
850.185	68.47
850.489	67.52
850.794	68.25
851.097	66.98
851.401	66.67
851.705	65.64
852.009	65.41
852.313	64.17
852.617	64.17
852.92	63.57
853.224	64.01
853.528	63.14
853.831	64.03
854.135	62.74
854.438	63.88
854.742	62.76
855.045	62.84
855.349	63.71
855.652	63.02
855.955	63.42
856.259	63.29
856.562	63.61
856.865	63.84
857.168	62.41
857.471	62.6
857.774	63.03
858.077	61.83
858.38	62.54
858.683	65.35
858.986	63.63
859.289	63.34
859.592	64.41
859.894	63.79
860.197	64.9
860.5	64.23
860.802	63.44
861.105	64.13
861.407	64.73
861.71	63.21
862.012	63.88
862.315	61.75
862.617	60.12
862.919	58.02
863.222	59.16
863.524	58.53
863.826	58.83
864.128	59.48
864.43	61.53
864.732	61.61
865.034	59.81
865.336	60.96
865.638	59.95
865.94	58.57
866.242	59.78
866.544	59.87
866.846	62.2
867.147	61.41
867.449	60.14
867.751	58.4
868.052	60.78
868.354	60.3
868.655	61.56
868.957	63.35
869.258	67.73
869.56	68.87
869.861	70.02
870.162	71.11
870.463	70.51
870.765	68.56
871.066	68.54
871.367	69.61
871.668	69.89
871.969	72.15
872.27	72.89
872.571	73.46
872.872	71.19
873.173	69.51
873.473	71.21
873.774	72.67
874.075	73.81
874.376	73.32
874.676	74.44
874.977	72.05
875.277	68.02
875.578	65.86
875.878	63.89
876.179	64.35
876.479	62.52
876.78	62.1
877.08	63.43
877.38	63.29
877.68	61.78
877.981	60.92
878.281	59.8
878.581	57.86
