Data from BA28301_Reflection_00013.txt Node
Date: Mon Nov 18 15:45:27 EST 2019
User: vgr7
Spectrometer: USB2G7710
Scans to average: 3
Trigger mode: 4
Integration Time (sec): 2.000000E-2
Electric dark correction enabled: true
Boxcar width: 10
XAxis mode: Wavelengths
Number of Pixels in Spectrum: 2048
>>>>>Begin Spectral Data<<<<<
177.721	39.93
178.105	-185.71
178.488	421.96
178.871	-68.88
179.254	123.92
179.636	302.8
180.019	302.42
180.402	533.33
180.785	529.66
181.168	578.81
181.55	267.14
181.933	129.36
182.316	179.87
182.698	150.31
183.081	116.17
183.463	117.33
183.846	122.2
184.228	120.62
184.611	133.73
184.993	91.15
185.376	77.9
185.758	131.83
186.14	266.96
186.522	466.6
186.904	-605.09
187.287	1957.14
187.669	-321.41
188.051	-277.05
188.433	-146.09
188.815	-64.51
189.197	270.51
189.579	147.74
189.961	101.45
190.342	151.33
190.724	163.33
191.106	134.61
191.488	137.94
191.869	53.29
192.251	62.6
192.633	96.27
193.014	86.54
193.396	7.67
193.777	-16.28
194.159	605.88
194.54	36.54
194.922	155.46
195.303	456.4
195.684	-486.63
196.065	272.87
196.447	-3841.18
196.828	175.53
197.209	82.57
197.59	-40.5
197.971	663.64
198.352	139.25
198.733	6.84
199.114	-56.9
199.495	-6.33
199.876	36.83
200.257	4.55
200.638	-4.93
201.018	1.76
201.399	22.65
201.78	28.04
202.16	12.16
202.541	33.96
202.922	13.77
203.302	8.12
203.683	-20.15
204.063	15.43
204.444	51.55
204.824	39.14
205.204	16.72
205.585	30.38
205.965	22.03
206.345	21.68
206.725	213.85
207.106	-1095.12
207.486	-8.62
207.866	5.79
208.246	-17.39
208.626	-49.62
209.006	-81.95
209.386	10.7
209.766	42.11
210.145	47.15
210.525	23.94
210.905	20.17
211.285	2300
211.664	-55.96
212.044	336.36
212.424	-160.1
212.803	-65.81
213.183	-97.52
213.562	-49.16
213.942	-12.71
214.321	-18.61
214.701	-24.49
215.08	-17.08
215.459	-13.19
215.838	-10.93
216.218	-15.04
216.597	-15.75
216.976	-19.9
217.355	-17.64
217.734	-8.63
218.113	-8.57
218.492	-9.34
218.871	-11.89
219.25	-26.56
219.629	-30.31
220.008	-19.66
220.387	-26.1
220.766	-20.8
221.144	-24.07
221.523	-33.4
221.902	-50.27
222.28	-46.72
222.659	-34.29
223.037	-27.54
223.416	-21.94
223.794	-17.3
224.173	-16.88
224.551	-6.12
224.929	-9.67
225.308	-4.12
225.686	-4.1
226.064	-0.84
226.442	1.07
226.821	1.68
227.199	4.4
227.577	6.37
227.955	4.34
228.333	5.5
228.711	5.23
229.089	7.14
229.467	6.99
229.845	10.03
230.222	8.7
230.6	5.94
230.978	4.67
231.356	6.9
231.733	5.8
232.111	5.59
232.488	3.9
232.866	6.2
233.243	5.96
233.621	6.09
233.998	7.65
234.376	5.25
234.753	4.88
235.13	5.59
235.508	6.26
235.885	5.13
236.262	3.72
236.639	3.64
237.016	3.34
237.393	4.45
237.77	4.22
238.147	4.06
238.524	4.57
238.901	4.83
239.278	4.63
239.655	5.12
240.032	5.43
240.409	5.23
240.785	5.45
241.162	5.16
241.539	5.11
241.915	4.8
242.292	4.76
242.668	4.96
243.045	4.97
243.421	4.73
243.798	4.78
244.174	4.91
244.551	5.05
244.927	4.94
245.303	4.89
245.679	4.87
246.056	4.92
246.432	5.08
246.808	5.11
247.184	4.74
247.56	4.62
247.936	4.5
248.312	4.42
248.688	4.33
249.064	4.29
249.44	4.3
249.815	4.34
250.191	4.45
250.567	4.49
250.943	4.4
251.318	4.34
251.694	4.44
252.069	4.24
252.445	3.9
252.82	4.18
253.196	3.9
253.571	3.88
253.947	3.72
254.322	3.6
254.697	3.5
255.073	3.59
255.448	3.47
255.823	3.47
256.198	3.69
256.573	3.66
256.948	3.91
257.323	3.9
257.698	3.72
258.073	3.77
258.448	3.49
258.823	3.52
259.198	3.5
259.573	3.41
259.948	3.38
260.322	3.55
260.697	3.4
261.072	3.52
261.446	3.49
261.821	3.43
262.195	3.48
262.57	3.47
262.944	3.5
263.319	3.39
263.693	3.53
264.067	3.43
264.442	3.36
264.816	3.3
265.19	3.23
265.564	3.28
265.938	3
266.313	3.23
266.687	3.12
267.061	3.06
267.435	3.07
267.809	3.09
268.183	3.04
268.556	3
268.93	3.03
269.304	3.13
269.678	3.24
270.051	3.12
270.425	3.27
270.799	3.25
271.172	3.47
271.546	3.33
271.919	3.25
272.293	3.23
272.666	3.04
273.04	3.21
273.413	3.26
273.787	3.52
274.16	3.35
274.533	3.28
274.906	3.36
275.279	3.38
275.653	3.56
276.026	3.43
276.399	3.43
276.772	3.56
277.145	3.35
277.518	3.34
277.891	3.34
278.263	3.22
278.636	3.08
279.009	3.11
279.382	3.43
279.755	3.45
280.127	3.61
280.5	3.71
280.872	3.63
281.245	3.54
281.617	3.45
281.99	3.58
282.362	3.59
282.735	3.47
283.107	3.45
283.479	3.39
283.852	3.47
284.224	3.56
284.596	3.55
284.968	3.69
285.34	3.73
285.713	3.83
286.085	3.86
286.457	4.08
286.829	4.03
287.201	3.82
287.572	3.87
287.944	3.74
288.316	3.78
288.688	3.63
289.06	3.72
289.431	3.77
289.803	3.66
290.175	3.72
290.546	3.83
290.918	3.86
291.289	3.89
291.661	3.98
292.032	4.05
292.403	3.93
292.775	3.98
293.146	3.94
293.517	3.84
293.889	3.91
294.26	3.93
294.631	3.97
295.002	4.05
295.373	4.03
295.744	4.17
296.115	4.11
296.486	4.22
296.857	4.22
297.228	4.33
297.599	4.48
297.97	4.55
298.34	4.68
298.711	4.92
299.082	4.93
299.452	4.99
299.823	4.94
300.194	4.9
300.564	4.89
300.935	4.99
301.305	5.14
301.676	5.14
302.046	5.21
302.416	5.34
302.787	5.49
303.157	5.61
303.527	5.6
303.897	5.78
304.267	6.06
304.637	6.05
305.008	6.15
305.378	6.28
305.748	6.44
306.117	6.42
306.487	6.23
306.857	6.5
307.227	6.63
307.597	6.87
307.967	7.07
308.336	7.15
308.706	7.22
309.076	7.36
309.445	7.39
309.815	7.26
310.184	7.29
310.554	7.39
310.923	7.46
311.293	7.6
311.662	7.6
312.031	7.49
312.401	7.61
312.77	7.52
313.139	7.59
313.508	7.58
313.877	7.6
314.246	7.82
314.616	7.81
314.985	7.71
315.353	7.54
315.722	7.67
316.091	7.71
316.46	7.62
316.829	7.57
317.198	7.83
317.567	8
317.935	7.99
318.304	7.95
318.672	7.89
319.041	8.05
319.41	8.19
319.778	8.18
320.147	8.24
320.515	8.36
320.883	8.36
321.252	8.43
321.62	8.53
321.988	8.46
322.357	8.46
322.725	8.7
323.093	8.93
323.461	8.97
323.829	9.02
324.197	9.3
324.565	9.39
324.933	9.31
325.301	9.57
325.669	9.74
326.037	9.78
326.405	9.99
326.772	10.01
327.14	9.96
327.508	10.03
327.875	10.06
328.243	10.17
328.61	10.18
328.978	10.25
329.346	10.35
329.713	10.62
330.08	10.72
330.448	10.63
330.815	10.5
331.182	10.46
331.55	10.51
331.917	10.56
332.284	10.57
332.651	10.53
333.018	10.41
333.385	10.41
333.752	10.51
334.119	10.6
334.486	10.57
334.853	10.67
335.22	10.73
335.587	10.79
335.954	10.79
336.32	10.84
336.687	10.97
337.054	10.97
337.42	10.88
337.787	10.95
338.153	10.97
338.52	11.21
338.886	11.29
339.253	11.28
339.619	11.25
339.986	11.26
340.352	11.4
340.718	11.46
341.084	11.43
341.451	11.53
341.817	11.55
342.183	11.46
342.549	11.47
342.915	11.65
343.281	11.7
343.647	11.68
344.013	11.74
344.379	11.67
344.745	11.79
345.11	11.84
345.476	11.84
345.842	11.91
346.208	11.93
346.573	11.99
346.939	12.1
347.304	12.08
347.67	12.13
348.035	12.12
348.401	12.11
348.766	12.19
349.132	12.11
349.497	12.06
349.862	12.27
350.228	12.25
350.593	12.18
350.958	12.24
351.323	12.34
351.688	12.43
352.053	12.55
352.418	12.51
352.783	12.57
353.148	12.55
353.513	12.55
353.878	12.51
354.243	12.48
354.608	12.52
354.972	12.57
355.337	12.55
355.702	12.62
356.066	12.7
356.431	12.65
356.795	12.64
357.16	12.66
357.524	12.46
357.889	12.47
358.253	12.51
358.618	12.57
358.982	12.48
359.346	12.32
359.71	12.22
360.075	12.23
360.439	12.19
360.803	12.15
361.167	12.12
361.531	12.07
361.895	12.08
362.259	11.96
362.623	11.94
362.987	11.92
363.351	11.81
363.714	11.75
364.078	11.67
364.442	11.55
364.806	11.48
365.169	11.54
365.533	11.5
365.896	11.42
366.26	11.23
366.623	11.22
366.987	11.18
367.35	11.17
367.714	11.04
368.077	10.89
368.44	10.78
368.803	10.69
369.167	10.53
369.53	10.42
369.893	10.47
370.256	10.44
370.619	10.35
370.982	10.28
371.345	10.22
371.708	10.25
372.071	10.19
372.434	10.07
372.797	9.98
373.159	9.9
373.522	9.81
373.885	9.83
374.247	9.75
374.61	9.76
374.973	9.63
375.335	9.62
375.698	9.55
376.06	9.55
376.423	9.49
376.785	9.53
377.147	9.45
377.51	9.33
377.872	9.25
378.234	9.16
378.596	9.07
378.958	9
379.321	8.89
379.683	8.88
380.045	8.85
380.407	8.75
380.769	8.71
381.13	8.69
381.492	8.6
381.854	8.56
382.216	8.52
382.578	8.47
382.939	8.35
383.301	8.31
383.663	8.25
384.024	8.2
384.386	8.16
384.747	8.15
385.109	8.16
385.47	8.08
385.832	8.02
386.193	8
386.554	7.92
386.916	7.87
387.277	7.86
387.638	7.84
387.999	7.83
388.36	7.75
388.721	7.67
389.082	7.63
389.443	7.54
389.804	7.45
390.165	7.41
390.526	7.36
390.887	7.3
391.248	7.28
391.609	7.24
391.969	7.17
392.33	7.08
392.691	6.96
393.051	6.9
393.412	6.87
393.772	6.78
394.133	6.77
394.493	6.72
394.854	6.62
395.214	6.56
395.574	6.51
395.935	6.44
396.295	6.37
396.655	6.27
397.015	6.19
397.376	6.13
397.736	6.08
398.096	6.05
398.456	6
398.816	5.93
399.176	5.85
399.535	5.8
399.895	5.79
400.255	5.77
400.615	5.72
400.975	5.69
401.334	5.68
401.694	5.6
402.054	5.54
402.413	5.5
402.773	5.44
403.132	5.39
403.492	5.37
403.851	5.32
404.211	5.32
404.57	5.3
404.929	5.27
405.288	5.21
405.648	5.17
406.007	5.15
406.366	5.12
406.725	5.08
407.084	5.05
407.443	5.03
407.802	5.02
408.161	4.99
408.52	4.95
408.879	4.9
409.238	4.91
409.596	4.94
409.955	4.92
410.314	4.92
410.673	4.88
411.031	4.88
411.39	4.87
411.748	4.86
412.107	4.86
412.465	4.81
412.824	4.8
413.182	4.76
413.54	4.74
413.899	4.74
414.257	4.71
414.615	4.69
414.974	4.62
415.332	4.57
415.69	4.53
416.048	4.48
416.406	4.47
416.764	4.43
417.122	4.39
417.48	4.38
417.838	4.34
418.195	4.32
418.553	4.29
418.911	4.27
419.269	4.23
419.626	4.22
419.984	4.2
420.342	4.18
420.699	4.14
421.057	4.12
421.414	4.07
421.772	4.05
422.129	4.03
422.486	4.02
422.844	4.02
423.201	4.01
423.558	4.03
423.915	4.01
424.273	3.98
424.63	3.95
424.987	3.92
425.344	3.9
425.701	3.89
426.058	3.88
426.415	3.87
426.772	3.86
427.128	3.82
427.485	3.81
427.842	3.78
428.199	3.8
428.555	3.79
428.912	3.78
429.269	3.79
429.625	3.8
429.982	3.77
430.338	3.74
430.695	3.73
431.051	3.69
431.407	3.68
431.764	3.67
432.12	3.66
432.476	3.68
432.832	3.65
433.189	3.65
433.545	3.63
433.901	3.62
434.257	3.62
434.613	3.63
434.969	3.63
435.325	3.64
435.681	3.62
436.036	3.62
436.392	3.63
436.748	3.6
437.104	3.56
437.459	3.55
437.815	3.56
438.171	3.55
438.526	3.57
438.882	3.57
439.237	3.58
439.593	3.59
439.948	3.59
440.304	3.59
440.659	3.58
441.014	3.59
441.369	3.58
441.725	3.56
442.08	3.54
442.435	3.54
442.79	3.53
443.145	3.53
443.5	3.53
443.855	3.51
444.21	3.51
444.565	3.52
444.92	3.53
445.275	3.51
445.629	3.51
445.984	3.49
446.339	3.46
446.693	3.42
447.048	3.41
447.403	3.39
447.757	3.39
448.112	3.37
448.466	3.35
448.82	3.34
449.175	3.34
449.529	3.33
449.883	3.31
450.238	3.31
450.592	3.29
450.946	3.27
451.3	3.27
451.654	3.25
452.008	3.25
452.362	3.23
452.716	3.21
453.07	3.19
453.424	3.19
453.778	3.19
454.132	3.19
454.486	3.19
454.839	3.18
455.193	3.17
455.547	3.19
455.9	3.2
456.254	3.19
456.607	3.19
456.961	3.19
457.314	3.19
457.668	3.2
458.021	3.21
458.375	3.22
458.728	3.2
459.081	3.21
459.434	3.21
459.787	3.22
460.141	3.25
460.494	3.26
460.847	3.26
461.2	3.27
461.553	3.28
461.906	3.29
462.259	3.3
462.611	3.34
462.964	3.37
463.317	3.38
463.67	3.39
464.022	3.41
464.375	3.43
464.728	3.45
465.08	3.46
465.433	3.48
465.785	3.49
466.138	3.5
466.49	3.51
466.843	3.5
467.195	3.51
467.547	3.53
467.899	3.55
468.252	3.58
468.604	3.61
468.956	3.62
469.308	3.63
469.66	3.65
470.012	3.63
470.364	3.62
470.716	3.62
471.068	3.64
471.42	3.63
471.772	3.64
472.123	3.64
472.475	3.66
472.827	3.67
473.178	3.66
473.53	3.67
473.882	3.69
474.233	3.73
474.585	3.7
474.936	3.68
475.288	3.66
475.639	3.64
475.99	3.64
476.342	3.65
476.693	3.64
477.044	3.65
477.395	3.63
477.746	3.63
478.097	3.63
478.448	3.63
478.8	3.63
479.15	3.63
479.501	3.64
479.852	3.63
480.203	3.62
480.554	3.62
480.905	3.63
481.255	3.62
481.606	3.63
481.957	3.64
482.307	3.64
482.658	3.64
483.009	3.64
483.359	3.63
483.709	3.63
484.06	3.63
484.41	3.64
484.761	3.64
485.111	3.65
485.461	3.66
485.811	3.66
486.162	3.67
486.512	3.67
486.862	3.67
487.212	3.67
487.562	3.68
487.912	3.69
488.262	3.68
488.612	3.69
488.961	3.69
489.311	3.71
489.661	3.72
490.011	3.74
490.36	3.75
490.71	3.75
491.06	3.77
491.409	3.79
491.759	3.79
492.108	3.8
492.458	3.81
492.807	3.83
493.157	3.84
493.506	3.87
493.855	3.88
494.204	3.9
494.554	3.93
494.903	3.96
495.252	3.99
495.601	4.04
495.95	4.07
496.299	4.1
496.648	4.12
496.997	4.15
497.346	4.21
497.695	4.24
498.043	4.29
498.392	4.34
498.741	4.39
499.09	4.43
499.438	4.5
499.787	4.55
500.135	4.62
500.484	4.65
500.832	4.72
501.181	4.77
501.529	4.83
501.878	4.91
502.226	4.98
502.574	5.04
502.923	5.11
503.271	5.17
503.619	5.26
503.967	5.34
504.315	5.41
504.663	5.46
505.011	5.54
505.359	5.64
505.707	5.71
506.055	5.79
506.403	5.89
506.751	5.96
507.098	6.03
507.446	6.11
507.794	6.21
508.141	6.27
508.489	6.36
508.837	6.46
509.184	6.56
509.531	6.65
509.879	6.74
510.226	6.83
510.574	6.9
510.921	6.99
511.268	7.08
511.616	7.18
511.963	7.29
512.31	7.4
512.657	7.5
513.004	7.62
513.351	7.72
513.698	7.81
514.045	7.95
514.392	8.08
514.739	8.19
515.086	8.3
515.432	8.44
515.779	8.54
516.126	8.66
516.473	8.78
516.819	8.89
517.166	9
517.512	9.11
517.859	9.24
518.205	9.35
518.552	9.46
518.898	9.54
519.245	9.65
519.591	9.77
519.937	9.88
520.283	9.97
520.629	10.11
520.976	10.25
521.322	10.38
521.668	10.52
522.014	10.66
522.36	10.82
522.706	10.96
523.052	11.15
523.398	11.36
523.743	11.57
524.089	11.79
524.435	11.98
524.781	12.17
525.126	12.35
525.472	12.5
525.817	12.64
526.163	12.8
526.509	12.95
526.854	13.07
527.199	13.21
527.545	13.34
527.89	13.47
528.235	13.61
528.581	13.75
528.926	13.89
529.271	14.05
529.616	14.19
529.961	14.35
530.306	14.51
530.651	14.66
530.996	14.81
531.341	14.98
531.686	15.18
532.031	15.36
532.376	15.57
532.721	15.79
533.065	16.04
533.41	16.25
533.755	16.47
534.099	16.7
534.444	16.92
534.788	17.17
535.133	17.39
535.477	17.62
535.822	17.85
536.166	18.13
536.51	18.41
536.855	18.72
537.199	19.05
537.543	19.36
537.887	19.7
538.231	20.03
538.576	20.36
538.92	20.68
539.264	21
539.608	21.29
539.951	21.56
540.295	21.79
540.639	22.07
540.983	22.34
541.327	22.59
541.671	22.84
542.014	23.08
542.358	23.33
542.701	23.58
543.045	23.85
543.389	24.09
543.732	24.35
544.075	24.63
544.419	24.91
544.762	25.18
545.105	25.44
545.449	25.74
545.792	26.05
546.135	26.37
546.478	26.71
546.821	27.08
547.165	27.44
547.508	27.86
547.851	28.21
548.194	28.57
548.536	28.98
548.879	29.41
549.222	29.78
549.565	30.2
549.908	30.62
550.25	31.01
550.593	31.42
550.936	31.79
551.278	32.18
551.621	32.57
551.963	32.95
552.306	33.31
552.648	33.65
552.991	34.01
553.333	34.35
553.675	34.7
554.017	35.01
554.36	35.35
554.702	35.69
555.044	36.05
555.386	36.4
555.728	36.74
556.07	37.08
556.412	37.44
556.754	37.78
557.096	38.12
557.438	38.49
557.78	38.83
558.121	39.17
558.463	39.49
558.805	39.79
559.147	40.13
559.488	40.6
559.83	40.94
560.171	41.25
560.513	41.6
560.854	41.87
561.196	42.2
561.537	42.52
561.878	42.83
562.22	43.07
562.561	43.35
562.902	43.58
563.243	43.81
563.584	44.11
563.925	44.37
564.266	44.66
564.607	44.91
564.948	45.15
565.289	45.4
565.63	45.65
565.971	45.86
566.312	46.08
566.653	46.25
566.993	46.46
567.334	46.62
567.675	46.85
568.015	47.11
568.356	47.33
568.696	47.53
569.037	47.75
569.377	48.06
569.718	48.25
570.058	48.44
570.398	48.72
570.739	48.88
571.079	49.09
571.419	49.22
571.759	49.42
572.099	49.62
572.439	49.76
572.779	49.94
573.119	50.16
573.459	50.41
573.799	50.61
574.139	50.79
574.479	51.04
574.819	51.18
575.158	51.36
575.498	51.51
575.838	51.75
576.177	51.9
576.517	52.06
576.856	52.28
577.196	52.48
577.535	52.61
577.875	52.81
578.214	52.92
578.553	53.11
578.893	53.19
579.232	53.34
579.571	53.61
579.91	53.79
580.25	53.94
580.589	54.05
580.928	54.17
581.267	54.4
581.606	54.54
581.945	54.66
582.283	54.8
582.622	54.91
582.961	54.98
583.3	55.12
583.639	55.24
583.977	55.27
584.316	55.38
584.654	55.47
584.993	55.58
585.332	55.78
585.67	55.87
586.008	56.05
586.347	56.1
586.685	56.18
587.024	56.26
587.362	56.37
587.7	56.41
588.038	56.5
588.376	56.6
588.715	56.77
589.053	56.89
589.391	57
589.729	57.12
590.067	57.18
590.404	57.25
590.742	57.34
591.08	57.53
591.418	57.72
591.756	57.89
592.093	57.98
592.431	58.1
592.769	58.24
593.106	58.27
593.444	58.36
593.781	58.43
594.119	58.54
594.456	58.6
594.793	58.66
595.131	58.73
595.468	58.78
595.805	58.79
596.143	58.9
596.48	58.97
596.817	59.01
597.154	59.12
597.491	59.17
597.828	59.25
598.165	59.27
598.502	59.31
598.839	59.32
599.176	59.41
599.512	59.45
599.849	59.47
600.186	59.55
600.523	59.72
600.859	59.74
601.196	59.93
601.532	59.88
601.869	59.96
602.205	60.02
602.542	59.96
602.878	59.95
603.215	59.99
603.551	59.99
603.887	60.04
604.223	60.05
604.56	60.13
604.896	60.08
605.232	60.12
605.568	60.1
605.904	60.2
606.24	60.21
606.576	60.26
606.912	60.37
607.248	60.48
607.583	60.41
607.919	60.47
608.255	60.37
608.591	60.48
608.926	60.55
609.262	60.59
609.597	60.81
609.933	60.87
610.268	60.84
610.604	60.92
610.939	60.95
611.275	61.02
611.61	61.05
611.945	61.18
612.281	61.23
612.616	61.36
612.951	61.34
613.286	61.44
613.621	61.39
613.956	61.43
614.291	61.49
614.626	61.65
614.961	61.7
615.296	61.74
615.631	61.78
615.966	61.77
616.3	61.76
616.635	61.64
616.97	61.72
617.304	61.81
617.639	61.84
617.973	61.87
618.308	61.86
618.642	61.91
618.977	61.87
619.311	62.01
619.646	61.96
619.98	62.02
620.314	62.05
620.648	62.1
620.983	62.15
621.317	62.06
621.651	62
621.985	62.13
622.319	62.18
622.653	62.33
622.987	62.36
623.321	62.46
623.655	62.57
623.988	62.6
624.322	62.63
624.656	62.7
624.99	62.76
625.323	62.82
625.657	62.8
625.99	62.84
626.324	62.68
626.657	62.73
626.991	62.67
627.324	62.58
627.658	62.63
627.991	62.56
628.324	62.56
628.657	62.59
628.991	62.56
629.324	62.58
629.657	62.57
629.99	62.6
630.323	62.53
630.656	62.46
630.989	62.46
631.322	62.53
631.655	62.41
631.987	62.43
632.32	62.42
632.653	62.44
632.986	62.51
633.318	62.59
633.651	62.62
633.984	62.68
634.316	62.61
634.649	62.6
634.981	62.65
635.313	62.74
635.646	62.82
635.978	62.79
636.31	62.87
636.643	62.88
636.975	62.95
637.307	63.01
637.639	63.02
637.971	63.01
638.303	62.9
638.635	62.94
638.967	63
639.299	63.04
639.631	63
639.963	63.02
640.295	63.05
640.626	63.12
640.958	63.08
641.29	63.23
641.621	63.31
641.953	63.38
642.285	63.43
642.616	63.37
642.948	63.37
643.279	63.24
643.61	63.3
643.942	63.23
644.273	63.19
644.604	63.24
644.936	63.22
645.267	63.24
645.598	63.25
645.929	63.26
646.26	63.3
646.591	63.27
646.922	63.23
647.253	63.29
647.584	63.18
647.915	63.26
648.245	63.4
648.576	63.49
648.907	63.49
649.238	63.43
649.568	63.56
649.899	63.55
650.229	63.64
650.56	63.58
650.89	63.68
651.221	63.79
651.551	63.84
651.882	63.82
652.212	63.9
652.542	63.96
652.872	63.9
653.203	63.89
653.533	63.95
653.863	63.95
654.193	63.9
654.523	64.02
654.853	64.07
655.183	63.97
655.513	63.81
655.843	63.66
656.172	63.71
656.502	63.77
656.832	63.95
657.162	63.94
657.491	63.86
657.821	63.79
658.15	63.84
658.48	63.82
658.809	63.91
659.139	63.73
659.468	63.6
659.798	63.67
660.127	63.67
660.456	63.72
660.785	63.67
661.115	63.76
661.444	63.65
661.773	63.65
662.102	63.75
662.431	63.83
662.76	63.94
663.089	63.94
663.418	63.87
663.747	63.78
664.076	63.77
664.404	63.87
664.733	63.91
665.062	63.74
665.39	63.83
665.719	63.81
666.048	63.98
666.376	64.24
666.705	64.2
667.033	64.17
667.362	64.23
667.69	64.42
668.018	64.45
668.347	64.46
668.675	64.62
669.003	64.63
669.331	64.61
669.659	64.72
669.987	64.79
670.315	64.77
670.643	64.73
670.971	64.79
671.299	64.78
671.627	64.96
671.955	64.94
672.283	64.99
672.61	65.08
672.938	65.16
673.266	64.98
673.593	65
673.921	65.1
674.249	65.11
674.576	64.98
674.904	64.92
675.231	64.92
675.558	64.68
675.886	64.58
676.213	64.67
676.54	64.61
676.867	64.61
677.195	64.58
677.522	64.67
677.849	64.46
678.176	64.59
678.503	64.35
678.83	64.52
679.157	64.41
679.484	64.33
679.81	64.42
680.137	64.6
680.464	64.59
680.791	64.54
681.117	64.48
681.444	64.52
681.771	64.48
682.097	64.53
682.424	64.72
682.75	64.85
683.077	64.62
683.403	64.64
683.729	64.53
684.056	64.51
684.382	64.48
684.708	64.61
685.034	64.58
685.36	64.65
685.686	64.63
686.012	64.64
686.339	64.63
686.664	64.4
686.99	64.24
687.316	64.31
687.642	64.31
687.968	64.41
688.294	64.43
688.619	64.5
688.945	64.48
689.271	64.28
689.596	64.14
689.922	64.26
690.247	64.28
690.573	64.27
690.898	64.35
691.224	64.3
691.549	64.23
691.874	63.95
692.2	63.91
692.525	63.87
692.85	63.86
693.175	63.8
693.5	63.88
693.825	64.04
694.15	63.98
694.475	63.97
694.8	63.84
695.125	63.9
695.45	63.8
695.775	63.82
696.099	63.95
696.424	64.11
696.749	64.12
697.073	64.14
697.398	64.21
697.723	64.24
698.047	64.36
698.372	64.44
698.696	64.74
699.02	64.74
699.345	64.68
699.669	64.78
699.993	64.92
700.318	64.87
700.642	64.79
700.966	64.67
701.29	64.66
701.614	64.72
701.938	64.62
702.262	64.68
702.586	64.82
702.91	64.74
703.234	64.7
703.557	64.71
703.881	64.72
704.205	64.7
704.529	64.67
704.852	64.69
705.176	64.67
705.499	64.56
705.823	64.7
706.146	64.79
706.47	64.58
706.793	64.48
707.117	64.54
707.44	64.38
707.763	64.59
708.086	64.64
708.409	64.59
708.733	64.59
709.056	64.54
709.379	64.29
709.702	64.28
710.025	64.16
710.348	64.31
710.671	64.3
710.993	64.38
711.316	64.29
711.639	63.93
711.962	64.06
712.284	64.07
712.607	63.84
712.93	63.88
713.252	64.15
713.575	64.35
713.897	64.37
714.22	64.61
714.542	64.56
714.864	64.76
715.187	64.6
715.509	64.67
715.831	64.63
716.153	64.96
716.475	65.13
716.798	65.08
717.12	65.09
717.442	65.02
717.764	64.92
718.085	65.04
718.407	65.32
718.729	65.17
719.051	65.14
719.373	65.36
719.695	65.13
720.016	65.03
720.338	65
720.659	65.1
720.981	64.94
721.302	64.91
721.624	64.69
721.945	64.95
722.267	64.9
722.588	64.92
722.909	64.68
723.231	64.64
723.552	64.74
723.873	64.61
724.194	64.48
724.515	64.8
724.836	64.53
725.157	64.52
725.478	64.58
725.799	64.25
726.12	64.4
726.441	64.64
726.762	64.47
727.083	64.26
727.403	64.14
727.724	64.05
728.045	64.21
728.365	64.16
728.686	64.02
729.006	63.97
729.327	63.97
729.647	63.89
729.967	63.72
730.288	63.85
730.608	63.91
730.928	63.95
731.249	63.81
731.569	64.07
731.889	64.11
732.209	64.19
732.529	64.6
732.849	64.37
733.169	64.21
733.489	64.16
733.809	64.34
734.129	64.32
734.448	64.62
734.768	64.58
735.088	64.64
735.408	64.86
735.727	65.28
736.047	65.53
736.366	65.66
736.686	65.94
737.005	65.96
737.325	65.79
737.644	65.79
737.963	65.64
738.283	65.35
738.602	65.49
738.921	65.21
739.24	64.99
739.56	65.09
739.879	65.19
740.198	65.46
740.517	65.32
740.836	65.27
741.155	65.23
741.473	65.13
741.792	65.19
742.111	64.98
742.43	64.8
742.748	64.5
743.067	64.48
743.386	64.22
743.704	64.2
744.023	64.38
744.341	64.58
744.66	64.94
744.978	65.02
745.297	64.79
745.615	65.21
745.933	65.32
746.252	65.42
746.57	65.45
746.888	65.36
747.206	65.37
747.524	65.74
747.842	65.52
748.16	65.64
748.478	65.53
748.796	65.5
749.114	65.46
749.432	65.74
749.749	65.84
750.067	65.89
750.385	65.65
750.703	65.8
751.02	65.61
751.338	65.32
751.655	65.5
751.973	65.47
752.29	65.53
752.608	65.52
752.925	65.63
753.242	65.71
753.56	65.5
753.877	65.42
754.194	65.19
754.511	65.47
754.828	65.37
755.145	65.44
755.462	65.45
755.779	65.18
756.096	64.86
756.413	64.63
756.73	64.73
757.047	64.87
757.364	64.43
757.68	64.62
757.997	64.75
758.314	64.76
758.63	65.15
758.947	65.19
759.264	65.07
759.58	64.69
759.896	64.93
760.213	64.97
760.529	65.28
760.846	65.16
761.162	65.07
761.478	65.05
761.794	64.96
762.11	65.22
762.426	65.39
762.743	65.55
763.059	65.68
763.375	65.61
763.69	65.59
764.006	65.64
764.322	65.9
764.638	65.86
764.954	65.8
765.27	65.68
765.585	65.49
765.901	65.72
766.216	65.98
766.532	65.77
766.848	65.91
767.163	65.92
767.478	66.21
767.794	66.21
768.109	66.43
768.424	66.34
768.74	66.18
769.055	65.96
769.37	66.13
769.685	66.23
770	66.34
770.315	66.44
770.63	66.76
770.945	66.42
771.26	66.14
771.575	66.51
771.89	66.37
772.205	66.47
772.52	66.33
772.834	66.17
773.149	66.46
773.464	66.44
773.778	66.17
774.093	66.5
774.407	66.35
774.722	65.98
775.036	66.35
775.351	66.17
775.665	66.54
775.979	66.53
776.293	66.25
776.608	66.05
776.922	66.11
777.236	66.41
777.55	66.6
777.864	67.37
778.178	67.44
778.492	67.5
778.806	67.75
779.12	67.97
779.434	68.38
779.747	67.81
780.061	68.17
780.375	68.2
780.689	67.62
781.002	68.01
781.316	67.78
781.629	67.46
781.943	67.77
782.256	67.38
782.57	67.29
782.883	67.4
783.196	67.9
783.51	67.34
783.823	67.02
784.136	66.69
784.449	66.37
784.762	66.19
785.075	66.21
785.388	65.91
785.701	65.72
786.014	64.99
786.327	65.39
786.64	65.27
786.953	64.8
787.266	64.51
787.578	64.34
787.891	64.44
788.204	65.07
788.516	65.08
788.829	65.41
789.141	65.01
789.454	64.75
789.766	64.53
790.079	64.81
790.391	64.58
790.703	64.59
791.016	64.25
791.328	63.92
791.64	64.26
791.952	64.1
792.264	63.25
792.576	63.81
792.888	64.13
793.2	64.24
793.512	64.69
793.824	65.06
794.136	65.1
794.448	65.48
794.76	65.44
795.071	64.82
795.383	64.91
795.695	65.51
796.006	65.73
796.318	65.47
796.629	65.65
796.941	65.76
797.252	65.48
797.564	65.67
797.875	65.88
798.186	65.14
798.497	65.48
798.809	65.96
799.12	65.58
799.431	65.14
799.742	65.18
800.053	65.31
800.364	65.28
800.675	65.1
800.986	64.79
801.297	64.84
801.608	64.89
801.918	64.09
802.229	64.06
802.54	64.57
802.851	64.89
803.161	65.29
803.472	65.14
803.782	65.29
804.093	65.63
804.403	65.26
804.714	65.45
805.024	65.4
805.334	65.86
805.645	66.29
805.955	66.85
806.265	66.23
806.575	66.88
806.885	67.27
807.195	66.7
807.505	67.46
807.815	66.62
808.125	66.35
808.435	67.24
808.745	67.25
809.055	67.03
809.365	66.42
809.674	65.01
809.984	64.72
810.294	64.96
810.603	64.29
810.913	64.37
811.222	64.76
811.532	64.42
811.841	64.83
812.151	64.65
812.46	63.63
812.769	63.54
813.079	62.19
813.388	61.3
813.697	62.69
814.006	62.88
814.315	63.71
814.624	64.98
814.933	64.74
815.242	65.19
815.551	65.13
815.86	65.74
816.169	66.83
816.478	67.07
816.786	67.1
817.095	67.3
817.404	67.8
817.712	67.2
818.021	67.4
818.33	66.45
818.638	65.96
818.947	66
819.255	65.9
819.563	66.04
819.872	66.37
820.18	65.76
820.488	65.34
820.796	65.72
821.105	65.77
821.413	65.75
821.721	65.58
822.029	65.51
822.337	65.63
822.645	65.5
822.953	65.66
823.26	65.67
823.568	65.67
823.876	65.48
824.184	65.65
824.491	65.69
824.799	65.94
825.107	65.96
825.414	66
825.722	66.17
826.029	66.31
826.337	66.42
826.644	66.6
826.951	66.78
827.259	66.36
827.566	66.21
827.873	66.17
828.18	66.04
828.488	66
828.795	65.66
829.102	65.75
829.409	65.8
829.716	66
830.023	66.23
830.329	66.31
830.636	66.29
830.943	66.26
831.25	65.73
831.557	65.99
831.863	66.22
832.17	65.99
832.476	65.9
832.783	65.7
833.089	65.98
833.396	65.77
833.702	65.98
834.009	65.82
834.315	65.83
834.621	66.03
834.928	66.09
835.234	66.52
835.54	66.63
835.846	66.31
836.152	66.25
836.458	65.88
836.764	66.22
837.07	66.14
837.376	66.01
837.682	66.46
837.988	66.43
838.293	66.32
838.599	66.78
838.905	67.09
839.211	66.8
839.516	66.45
839.822	66.3
840.127	66.11
840.433	66.34
840.738	66.72
841.044	66.84
841.349	67.26
841.654	67.54
841.959	67.48
842.265	67.87
842.57	67.83
842.875	68.67
843.18	68.88
843.485	69.07
843.79	69.44
844.095	69.67
844.4	70.43
844.705	69.95
845.01	68.47
845.315	66.56
845.619	67.67
845.924	67.84
846.229	67.54
846.533	68.66
846.838	68.87
847.142	67.76
847.447	67.38
847.751	68.52
848.056	67.02
848.36	68.17
848.664	67.31
848.969	65.68
849.273	65.17
849.577	63.59
849.881	62.21
850.185	61.52
850.489	60.91
850.794	57.79
851.097	59.98
851.401	61.6
851.705	62.12
852.009	60.74
852.313	58.77
852.617	60.28
852.92	61.05
853.224	60.84
853.528	63.63
853.831	66.27
854.135	64.51
854.438	63.49
854.742	60.52
855.045	60.47
855.349	62.06
855.652	60.87
855.955	59.82
856.259	61.21
856.562	62.51
856.865	63.52
857.168	63.65
857.471	62.97
857.774	63.9
858.077	64.19
858.38	65.32
858.683	67.16
858.986	65.29
859.289	63.56
859.592	62.74
859.894	63.12
860.197	60.88
860.5	61.18
860.802	61.51
861.105	61.96
861.407	62.75
861.71	60.96
862.012	60.78
862.315	62.7
862.617	60.85
862.919	59.7
863.222	59.36
863.524	61.6
863.826	60.61
864.128	58.64
864.43	58.84
864.732	59.74
865.034	58.22
865.336	58.74
865.638	57.8
865.94	56.25
866.242	54.11
866.544	54.01
866.846	54.48
867.147	56.41
867.449	57.58
867.751	58.13
868.052	58.5
868.354	61.71
868.655	62.59
868.957	65.96
869.258	66.66
869.56	67.97
869.861	69.2
870.162	69.31
870.463	71.83
870.765	72.42
871.066	70.74
871.367	73.48
871.668	73.37
871.969	74.46
872.27	80.72
872.571	80.24
872.872	81
873.173	78.96
873.473	75.45
873.774	73.88
874.075	74.16
874.376	73.97
874.676	70.38
874.977	71.09
875.277	68.69
875.578	68.73
875.878	66.97
876.179	65.51
876.479	65.7
876.78	63.39
877.08	64.17
877.38	64.85
877.68	62.75
877.981	62.58
878.281	62.84
878.581	58.61
