Data from BA28473_Reflection_00014.txt Node
Date: Mon Nov 18 15:28:48 EST 2019
User: vgr7
Spectrometer: USB2G7710
Scans to average: 3
Trigger mode: 4
Integration Time (sec): 2.000000E-2
Electric dark correction enabled: true
Boxcar width: 10
XAxis mode: Wavelengths
Number of Pixels in Spectrum: 2048
>>>>>Begin Spectral Data<<<<<
177.721	253.51
178.105	152.26
178.488	144.65
178.871	38.91
179.254	-44.69
179.636	24.16
180.019	-930.53
180.402	206.25
180.785	-718.18
181.168	100
181.55	-124.67
181.933	107.73
182.316	70.09
182.698	38.89
183.081	11.87
183.463	-0.83
183.846	11.47
184.228	-8.53
184.611	-5.42
184.993	-108.83
185.376	-144.96
185.758	-109.67
186.14	-114.47
186.522	-75.82
186.904	-57.72
187.287	-38.15
187.669	-110.27
188.051	-73.55
188.433	-152.93
188.815	-133.99
189.197	-71.32
189.579	-226.17
189.961	-494.13
190.342	-308.78
190.724	195.6
191.106	146.77
191.488	139.79
191.869	88.71
192.251	58.22
192.633	135.06
193.014	-32.74
193.396	0.14
193.777	-145.38
194.159	-142.55
194.54	-26.76
194.922	-32.61
195.303	-124.17
195.684	-297.15
196.065	-110.57
196.447	-377.81
196.828	2120.41
197.209	366.27
197.59	-700.9
197.971	-216.54
198.352	-60.18
198.733	-80.5
199.114	-21.82
199.495	-12.97
199.876	-4.2
200.257	13.14
200.638	0.14
201.018	-9.24
201.399	-1.89
201.78	-2.47
202.16	-4.89
202.541	-1.18
202.922	-41.79
203.302	-18.63
203.683	-30.15
204.063	-41.81
204.444	-13.8
204.824	-10.9
205.204	-16.76
205.585	-9.67
205.965	-25.21
206.345	-45.69
206.725	-52.03
207.106	-127.69
207.486	-150.21
207.866	-239.98
208.246	-218.77
208.626	-179.95
209.006	-106.56
209.386	-157.96
209.766	-189.62
210.145	-231.76
210.525	-197.15
210.905	-118.21
211.285	-96.77
211.664	-92.85
212.044	-130.56
212.424	-144.4
212.803	-277.25
213.183	-139.35
213.562	-134.2
213.942	-88.64
214.321	-43.09
214.701	-58.32
215.08	-57.59
215.459	-66.02
215.838	-49.1
216.218	-72.59
216.597	-49.62
216.976	-74.13
217.355	-93.09
217.734	-64.09
218.113	-47.73
218.492	-47.95
218.871	-45.08
219.25	-54.14
219.629	-59.56
220.008	-62.61
220.387	-67.29
220.766	-57.23
221.144	-94.11
221.523	-82.72
221.902	-104.38
222.28	-96.51
222.659	-63.69
223.037	-49.31
223.416	-49.6
223.794	-53.49
224.173	-33.45
224.551	-27.19
224.929	-21.96
225.308	-7.61
225.686	-6.59
226.064	-7.55
226.442	-8.69
226.821	-5.01
227.199	-0.8
227.577	1.92
227.955	0.07
228.333	-0.44
228.711	2.75
229.089	2.94
229.467	2.05
229.845	4.39
230.222	4.72
230.6	4.44
230.978	6.56
231.356	9.1
231.733	10.38
232.111	10.56
232.488	10.91
232.866	11.95
233.243	11.17
233.621	11.39
233.998	12.32
234.376	10.81
234.753	8.61
235.13	7.93
235.508	6.85
235.885	8.73
236.262	7.11
236.639	6.45
237.016	6.48
237.393	7.49
237.77	7.04
238.147	7.46
238.524	6.18
238.901	5.37
239.278	5.34
239.655	5.92
240.032	5.9
240.409	5.36
240.785	5.22
241.162	5.45
241.539	4.85
241.915	5.19
242.292	5.32
242.668	5.52
243.045	5.65
243.421	5.8
243.798	5.86
244.174	5.98
244.551	5.84
244.927	5.71
245.303	5.5
245.679	5.53
246.056	5.6
246.432	5.73
246.808	5.92
247.184	5.64
247.56	5.31
247.936	5.07
248.312	5.11
248.688	5.07
249.064	4.87
249.44	4.85
249.815	4.62
250.191	4.77
250.567	4.92
250.943	4.87
251.318	4.74
251.694	4.81
252.069	5.08
252.445	4.89
252.82	4.87
253.196	4.47
253.571	4.47
253.947	4.1
254.322	4.08
254.697	3.93
255.073	4.09
255.448	4.17
255.823	4.34
256.198	4.57
256.573	4.74
256.948	4.97
257.323	5.24
257.698	5.27
258.073	5.16
258.448	5.21
258.823	5.27
259.198	5.23
259.573	4.99
259.948	4.73
260.322	4.92
260.697	4.91
261.072	5.01
261.446	5
261.821	5.06
262.195	5.13
262.57	5.18
262.944	5.11
263.319	4.96
263.693	4.79
264.067	4.63
264.442	4.6
264.816	4.47
265.19	4.3
265.564	4.29
265.938	4.14
266.313	3.92
266.687	3.75
267.061	3.82
267.435	4.02
267.809	4.12
268.183	4.09
268.556	4.08
268.93	4.09
269.304	4.08
269.678	4.08
270.051	4.04
270.425	4.01
270.799	3.92
271.172	4.12
271.546	4.22
271.919	4.22
272.293	4.21
272.666	4.17
273.04	4.23
273.413	4.2
273.787	4.3
274.16	4.35
274.533	4.27
274.906	4.16
275.279	4.06
275.653	4.12
276.026	3.96
276.399	3.91
276.772	3.98
277.145	3.85
277.518	3.69
277.891	3.61
278.263	3.59
278.636	3.65
279.009	3.66
279.382	3.9
279.755	4.03
280.127	4.09
280.5	4.21
280.872	4.18
281.245	4.26
281.617	4.39
281.99	4.34
282.362	4.38
282.735	4.49
283.107	4.52
283.479	4.63
283.852	4.75
284.224	4.74
284.596	4.69
284.968	4.72
285.34	4.96
285.713	5.09
286.085	5.03
286.457	5.28
286.829	5.24
287.201	5.12
287.572	4.99
287.944	4.98
288.316	5.01
288.688	4.93
289.06	4.87
289.431	4.76
289.803	4.84
290.175	4.91
290.546	5.03
290.918	5.09
291.289	5.01
291.661	5.11
292.032	5.32
292.403	5.29
292.775	5.36
293.146	5.23
293.517	5.17
293.889	5.24
294.26	5.1
294.631	5.19
295.002	5.18
295.373	5.34
295.744	5.5
296.115	5.51
296.486	5.46
296.857	5.51
297.228	5.64
297.599	5.64
297.97	5.69
298.34	5.68
298.711	5.8
299.082	5.8
299.452	5.83
299.823	5.8
300.194	6.01
300.564	6.12
300.935	6.27
301.305	6.3
301.676	6.39
302.046	6.4
302.416	6.4
302.787	6.47
303.157	6.46
303.527	6.35
303.897	6.38
304.267	6.72
304.637	6.86
305.008	7.05
305.378	7.17
305.748	7.3
306.117	7.25
306.487	7.16
306.857	7.26
307.227	7.31
307.597	7.29
307.967	7.22
308.336	7.24
308.706	7.25
309.076	7.32
309.445	7.37
309.815	7.39
310.184	7.41
310.554	7.57
310.923	7.63
311.293	7.61
311.662	7.64
312.031	7.55
312.401	7.52
312.77	7.48
313.139	7.56
313.508	7.61
313.877	7.74
314.246	7.95
314.616	8.08
314.985	8.26
315.353	8.31
315.722	8.48
316.091	8.47
316.46	8.48
316.829	8.46
317.198	8.45
317.567	8.56
317.935	8.7
318.304	8.75
318.672	8.75
319.041	9.05
319.41	9.13
319.778	9.28
320.147	9.34
320.515	9.37
320.883	9.27
321.252	9.46
321.62	9.48
321.988	9.54
322.357	9.54
322.725	9.28
323.093	9.38
323.461	9.39
323.829	9.58
324.197	9.69
324.565	9.86
324.933	10.01
325.301	10.14
325.669	10.21
326.037	10.14
326.405	10.39
326.772	10.35
327.14	10.42
327.508	10.55
327.875	10.56
328.243	10.69
328.61	10.81
328.978	10.62
329.346	10.75
329.713	10.61
330.08	10.75
330.448	10.84
330.815	10.81
331.182	10.95
331.55	10.9
331.917	10.92
332.284	10.99
332.651	10.9
333.018	10.91
333.385	11
333.752	11.19
334.119	11.09
334.486	11.11
334.853	11.03
335.22	10.97
335.587	11.08
335.954	10.91
336.32	10.91
336.687	11.16
337.054	11.13
337.42	11.18
337.787	11.14
338.153	11.27
338.52	11.43
338.886	11.27
339.253	11.25
339.619	11.34
339.986	11.42
340.352	11.6
340.718	11.57
341.084	11.6
341.451	11.58
341.817	11.71
342.183	11.7
342.549	11.76
342.915	11.87
343.281	11.97
343.647	12.08
344.013	12.08
344.379	11.86
344.745	11.85
345.11	12
345.476	11.87
345.842	11.89
346.208	11.83
346.573	12.02
346.939	12.09
347.304	12.08
347.67	11.97
348.035	11.85
348.401	11.92
348.766	11.88
349.132	11.86
349.497	11.75
349.862	11.89
350.228	11.85
350.593	11.74
350.958	11.65
351.323	11.69
351.688	11.8
352.053	11.94
352.418	12.02
352.783	11.98
353.148	12.07
353.513	12.08
353.878	12.2
354.243	12.18
354.608	12.2
354.972	12.19
355.337	12.31
355.702	12.34
356.066	12.36
356.431	12.38
356.795	12.4
357.16	12.41
357.524	12.42
357.889	12.41
358.253	12.52
358.618	12.56
358.982	12.49
359.346	12.41
359.71	12.39
360.075	12.41
360.439	12.37
360.803	12.37
361.167	12.36
361.531	12.29
361.895	12.28
362.259	12.26
362.623	12.22
362.987	12.14
363.351	12.19
363.714	12.16
364.078	12.13
364.442	12.08
364.806	12.11
365.169	12.03
365.533	12.09
365.896	12.03
366.26	11.98
366.623	12
366.987	12.05
367.35	12.05
367.714	11.96
368.077	11.91
368.44	11.85
368.803	11.77
369.167	11.63
369.53	11.57
369.893	11.56
370.256	11.56
370.619	11.48
370.982	11.38
371.345	11.33
371.708	11.25
372.071	11.23
372.434	11.11
372.797	11.05
373.159	10.98
373.522	10.94
373.885	10.93
374.247	10.86
374.61	10.75
374.973	10.63
375.335	10.56
375.698	10.51
376.06	10.53
376.423	10.53
376.785	10.57
377.147	10.53
377.51	10.41
377.872	10.43
378.234	10.4
378.596	10.38
378.958	10.32
379.321	10.34
379.683	10.3
380.045	10.32
380.407	10.24
380.769	10.17
381.13	10.04
381.492	9.97
381.854	9.97
382.216	9.94
382.578	9.96
382.939	9.91
383.301	9.85
383.663	9.77
384.024	9.67
384.386	9.63
384.747	9.6
385.109	9.6
385.47	9.46
385.832	9.44
386.193	9.36
386.554	9.31
386.916	9.22
387.277	9.22
387.638	9.14
387.999	9.12
388.36	9.07
388.721	9.08
389.082	9.02
389.443	8.93
389.804	8.86
390.165	8.76
390.526	8.74
390.887	8.73
391.248	8.7
391.609	8.68
391.969	8.62
392.33	8.57
392.691	8.53
393.051	8.5
393.412	8.47
393.772	8.44
394.133	8.43
394.493	8.39
394.854	8.32
395.214	8.29
395.574	8.25
395.935	8.23
396.295	8.19
396.655	8.16
397.015	8.12
397.376	8.08
397.736	8.04
398.096	7.97
398.456	7.91
398.816	7.87
399.176	7.8
399.535	7.75
399.895	7.72
400.255	7.66
400.615	7.63
400.975	7.58
401.334	7.53
401.694	7.45
402.054	7.4
402.413	7.34
402.773	7.28
403.132	7.24
403.492	7.19
403.851	7.15
404.211	7.11
404.57	7.07
404.929	7.07
405.288	7.06
405.648	7.05
406.007	7.03
406.366	7.03
406.725	7.04
407.084	7.03
407.443	6.98
407.802	6.97
408.161	6.94
408.52	6.88
408.879	6.86
409.238	6.85
409.596	6.83
409.955	6.82
410.314	6.81
410.673	6.78
411.031	6.78
411.39	6.76
411.748	6.74
412.107	6.74
412.465	6.7
412.824	6.67
413.182	6.65
413.54	6.61
413.899	6.57
414.257	6.52
414.615	6.51
414.974	6.5
415.332	6.47
415.69	6.44
416.048	6.44
416.406	6.42
416.764	6.38
417.122	6.39
417.48	6.35
417.838	6.33
418.195	6.32
418.553	6.28
418.911	6.28
419.269	6.25
419.626	6.23
419.984	6.21
420.342	6.19
420.699	6.14
421.057	6.12
421.414	6.08
421.772	6.08
422.129	6.06
422.486	6.05
422.844	6.04
423.201	6.01
423.558	6
423.915	5.98
424.273	5.98
424.63	5.93
424.987	5.92
425.344	5.89
425.701	5.87
426.058	5.86
426.415	5.8
426.772	5.78
427.128	5.76
427.485	5.73
427.842	5.71
428.199	5.69
428.555	5.68
428.912	5.67
429.269	5.64
429.625	5.62
429.982	5.57
430.338	5.55
430.695	5.54
431.051	5.51
431.407	5.48
431.764	5.46
432.12	5.47
432.476	5.47
432.832	5.45
433.189	5.43
433.545	5.41
433.901	5.42
434.257	5.43
434.613	5.42
434.969	5.43
435.325	5.44
435.681	5.46
436.036	5.48
436.392	5.47
436.748	5.47
437.104	5.46
437.459	5.46
437.815	5.49
438.171	5.5
438.526	5.51
438.882	5.51
439.237	5.51
439.593	5.51
439.948	5.52
440.304	5.52
440.659	5.53
441.014	5.54
441.369	5.53
441.725	5.5
442.08	5.5
442.435	5.5
442.79	5.49
443.145	5.5
443.5	5.49
443.855	5.48
444.21	5.47
444.565	5.46
444.92	5.46
445.275	5.43
445.629	5.41
445.984	5.42
446.339	5.4
446.693	5.37
447.048	5.35
447.403	5.33
447.757	5.32
448.112	5.3
448.466	5.29
448.82	5.29
449.175	5.3
449.529	5.28
449.883	5.27
450.238	5.26
450.592	5.23
450.946	5.21
451.3	5.22
451.654	5.2
452.008	5.2
452.362	5.18
452.716	5.17
453.07	5.15
453.424	5.12
453.778	5.12
454.132	5.12
454.486	5.12
454.839	5.12
455.193	5.1
455.547	5.09
455.9	5.1
456.254	5.09
456.607	5.09
456.961	5.07
457.314	5.08
457.668	5.08
458.021	5.08
458.375	5.09
458.728	5.1
459.081	5.08
459.434	5.07
459.787	5.07
460.141	5.06
460.494	5.07
460.847	5.08
461.2	5.1
461.553	5.12
461.906	5.13
462.259	5.16
462.611	5.17
462.964	5.19
463.317	5.2
463.67	5.23
464.022	5.25
464.375	5.28
464.728	5.29
465.08	5.29
465.433	5.31
465.785	5.31
466.138	5.33
466.49	5.37
466.843	5.39
467.195	5.42
467.547	5.46
467.899	5.49
468.252	5.51
468.604	5.53
468.956	5.54
469.308	5.55
469.66	5.57
470.012	5.59
470.364	5.62
470.716	5.58
471.068	5.59
471.42	5.59
471.772	5.59
472.123	5.62
472.475	5.63
472.827	5.64
473.178	5.65
473.53	5.63
473.882	5.65
474.233	5.67
474.585	5.64
474.936	5.64
475.288	5.64
475.639	5.63
475.99	5.64
476.342	5.65
476.693	5.63
477.044	5.64
477.395	5.62
477.746	5.6
478.097	5.61
478.448	5.61
478.8	5.6
479.15	5.58
479.501	5.57
479.852	5.57
480.203	5.59
480.554	5.6
480.905	5.61
481.255	5.6
481.606	5.61
481.957	5.62
482.307	5.62
482.658	5.62
483.009	5.62
483.359	5.61
483.709	5.61
484.06	5.61
484.41	5.61
484.761	5.61
485.111	5.62
485.461	5.63
485.811	5.63
486.162	5.64
486.512	5.64
486.862	5.64
487.212	5.64
487.562	5.64
487.912	5.64
488.262	5.64
488.612	5.64
488.961	5.64
489.311	5.65
489.661	5.65
490.011	5.65
490.36	5.66
490.71	5.68
491.06	5.69
491.409	5.7
491.759	5.7
492.108	5.72
492.458	5.73
492.807	5.74
493.157	5.75
493.506	5.76
493.855	5.8
494.204	5.83
494.554	5.86
494.903	5.87
495.252	5.89
495.601	5.93
495.95	5.97
496.299	6
496.648	6.05
496.997	6.08
497.346	6.13
497.695	6.17
498.043	6.2
498.392	6.24
498.741	6.31
499.09	6.36
499.438	6.43
499.787	6.49
500.135	6.56
500.484	6.63
500.832	6.71
501.181	6.76
501.529	6.83
501.878	6.9
502.226	6.99
502.574	7.06
502.923	7.12
503.271	7.22
503.619	7.32
503.967	7.37
504.315	7.45
504.663	7.53
505.011	7.63
505.359	7.7
505.707	7.79
506.055	7.87
506.403	7.96
506.751	8.05
507.098	8.15
507.446	8.25
507.794	8.33
508.141	8.42
508.489	8.52
508.837	8.64
509.184	8.72
509.531	8.82
509.879	8.94
510.226	9.03
510.574	9.1
510.921	9.18
511.268	9.29
511.616	9.38
511.963	9.49
512.31	9.61
512.657	9.76
513.004	9.88
513.351	10.03
513.698	10.13
514.045	10.24
514.392	10.37
514.739	10.48
515.086	10.62
515.432	10.76
515.779	10.87
516.126	10.97
516.473	11.1
516.819	11.23
517.166	11.34
517.512	11.46
517.859	11.59
518.205	11.73
518.552	11.87
518.898	11.98
519.245	12.09
519.591	12.19
519.937	12.3
520.283	12.43
520.629	12.54
520.976	12.68
521.322	12.83
521.668	12.98
522.014	13.15
522.36	13.31
522.706	13.49
523.052	13.68
523.398	13.85
523.743	14.06
524.089	14.26
524.435	14.46
524.781	14.66
525.126	14.83
525.472	14.96
525.817	15.09
526.163	15.25
526.509	15.41
526.854	15.54
527.199	15.68
527.545	15.79
527.89	15.92
528.235	16.05
528.581	16.18
528.926	16.31
529.271	16.43
529.616	16.56
529.961	16.7
530.306	16.84
530.651	17.02
530.996	17.18
531.341	17.36
531.686	17.54
532.031	17.71
532.376	17.92
532.721	18.15
533.065	18.36
533.41	18.56
533.755	18.77
534.099	19
534.444	19.21
534.788	19.43
535.133	19.67
535.477	19.92
535.822	20.18
536.166	20.46
536.51	20.75
536.855	21.07
537.199	21.37
537.543	21.67
537.887	21.97
538.231	22.27
538.576	22.56
538.92	22.84
539.264	23.17
539.608	23.44
539.951	23.69
540.295	23.98
540.639	24.23
540.983	24.47
541.327	24.7
541.671	24.93
542.014	25.2
542.358	25.41
542.701	25.62
543.045	25.86
543.389	26.07
543.732	26.31
544.075	26.55
544.419	26.79
544.762	27.08
545.105	27.35
545.449	27.68
545.792	28.01
546.135	28.36
546.478	28.66
546.821	29.01
547.165	29.33
547.508	29.67
547.851	30.03
548.194	30.38
548.536	30.73
548.879	31.13
549.222	31.47
549.565	31.8
549.908	32.15
550.25	32.49
550.593	32.86
550.936	33.22
551.278	33.52
551.621	33.87
551.963	34.25
552.306	34.59
552.648	34.89
552.991	35.16
553.333	35.5
553.675	35.82
554.017	36.08
554.36	36.36
554.702	36.59
555.044	36.89
555.386	37.14
555.728	37.42
556.07	37.69
556.412	38
556.754	38.34
557.096	38.68
557.438	39.01
557.78	39.27
558.121	39.57
558.463	39.95
558.805	40.26
559.147	40.5
559.488	40.75
559.83	41
560.171	41.27
560.513	41.45
560.854	41.7
561.196	41.95
561.537	42.24
561.878	42.48
562.22	42.69
562.561	42.92
562.902	43.17
563.243	43.37
563.584	43.54
563.925	43.76
564.266	43.95
564.607	44.17
564.948	44.38
565.289	44.56
565.63	44.75
565.971	44.89
566.312	45.07
566.653	45.28
566.993	45.44
567.334	45.61
567.675	45.73
568.015	45.91
568.356	46.11
568.696	46.28
569.037	46.53
569.377	46.72
569.718	46.93
570.058	47.13
570.398	47.34
570.739	47.56
571.079	47.71
571.419	47.9
571.759	47.98
572.099	48.14
572.439	48.35
572.779	48.46
573.119	48.61
573.459	48.74
573.799	48.92
574.139	49.06
574.479	49.21
574.819	49.37
575.158	49.51
575.498	49.61
575.838	49.72
576.177	49.81
576.517	49.96
576.856	50.07
577.196	50.18
577.535	50.27
577.875	50.39
578.214	50.54
578.553	50.65
578.893	50.86
579.232	50.96
579.571	50.98
579.91	51.09
580.25	51.26
580.589	51.43
580.928	51.49
581.267	51.65
581.606	51.77
581.945	51.94
582.283	52.04
582.622	52.16
582.961	52.22
583.3	52.31
583.639	52.38
583.977	52.49
584.316	52.64
584.654	52.79
584.993	52.84
585.332	52.92
585.67	53.02
586.008	53.06
586.347	53.24
586.685	53.4
587.024	53.6
587.362	53.68
587.7	53.7
588.038	53.75
588.376	53.8
588.715	53.88
589.053	53.89
589.391	54
589.729	54.03
590.067	54.08
590.404	54.15
590.742	54.19
591.08	54.28
591.418	54.3
591.756	54.32
592.093	54.38
592.431	54.43
592.769	54.5
593.106	54.55
593.444	54.57
593.781	54.6
594.119	54.53
594.456	54.58
594.793	54.63
595.131	54.7
595.468	54.73
595.805	54.74
596.143	54.86
596.48	54.87
596.817	54.99
597.154	55.12
597.491	55.21
597.828	55.31
598.165	55.29
598.502	55.35
598.839	55.45
599.176	55.51
599.512	55.56
599.849	55.55
600.186	55.6
600.523	55.66
600.859	55.7
601.196	55.78
601.532	55.85
601.869	55.9
602.205	55.92
602.542	56.02
602.878	56.12
603.215	56.08
603.551	56.13
603.887	56.15
604.223	56.18
604.56	56.17
604.896	56.19
605.232	56.24
605.568	56.3
605.904	56.29
606.24	56.3
606.576	56.37
606.912	56.41
607.248	56.45
607.583	56.46
607.919	56.51
608.255	56.54
608.591	56.56
608.926	56.67
609.262	56.76
609.597	56.78
609.933	56.76
610.268	56.79
610.604	56.81
610.939	56.84
611.275	56.84
611.61	56.87
611.945	56.99
612.281	57.05
612.616	57.06
612.951	57.09
613.286	57.25
613.621	57.33
613.956	57.38
614.291	57.36
614.626	57.4
614.961	57.37
615.296	57.36
615.631	57.35
615.966	57.34
616.3	57.35
616.635	57.42
616.97	57.52
617.304	57.67
617.639	57.78
617.973	57.71
618.308	57.85
618.642	57.94
618.977	57.94
619.311	58
619.646	57.92
619.98	58.01
620.314	58.02
620.648	57.93
620.983	58
621.317	57.97
621.651	58.03
621.985	58.08
622.319	58.13
622.653	58.16
622.987	58.16
623.321	58.12
623.655	58.02
623.988	58.05
624.322	58.07
624.656	58.07
624.99	58.17
625.323	58.14
625.657	58.17
625.99	58.2
626.324	58.17
626.657	58.19
626.991	58.15
627.324	58.03
627.658	58.08
627.991	58.09
628.324	58.24
628.657	58.22
628.991	58.28
629.324	58.39
629.657	58.38
629.99	58.44
630.323	58.53
630.656	58.57
630.989	58.55
631.322	58.55
631.655	58.57
631.987	58.58
632.32	58.59
632.653	58.53
632.986	58.5
633.318	58.57
633.651	58.62
633.984	58.64
634.316	58.8
634.649	58.83
634.981	58.82
635.313	58.79
635.646	58.76
635.978	58.75
636.31	58.69
636.643	58.76
636.975	58.73
637.307	58.7
637.639	58.7
637.971	58.6
638.303	58.6
638.635	58.69
638.967	58.82
639.299	58.79
639.631	58.78
639.963	58.83
640.295	58.88
640.626	58.89
640.958	58.95
641.29	58.99
641.621	59.01
641.953	59.04
642.285	59.02
642.616	59.13
642.948	59.21
643.279	59.33
643.61	59.34
643.942	59.38
644.273	59.55
644.604	59.66
644.936	59.79
645.267	59.79
645.598	59.74
645.929	59.64
646.26	59.78
646.591	59.84
646.922	59.79
647.253	59.71
647.584	59.74
647.915	59.64
648.245	59.59
648.576	59.52
648.907	59.49
649.238	59.61
649.568	59.63
649.899	59.65
650.229	59.7
650.56	59.73
650.89	59.8
651.221	59.57
651.551	59.52
651.882	59.52
652.212	59.56
652.542	59.55
652.872	59.53
653.203	59.59
653.533	59.54
653.863	59.53
654.193	59.63
654.523	59.64
654.853	59.72
655.183	59.64
655.513	59.68
655.843	59.76
656.172	59.71
656.502	59.78
656.832	59.76
657.162	59.75
657.491	59.71
657.821	59.68
658.15	59.83
658.48	59.89
658.809	60.01
659.139	59.97
659.468	59.97
659.798	59.96
660.127	59.82
660.456	59.93
660.785	59.98
661.115	59.87
661.444	59.92
661.773	59.91
662.102	60.03
662.431	60.14
662.76	60.12
663.089	60.14
663.418	60.08
663.747	60.21
664.076	60.17
664.404	60.21
664.733	60.28
665.062	60.27
665.39	60.22
665.719	60.1
666.048	60.08
666.376	60.07
666.705	60.07
667.033	60.22
667.362	60.16
667.69	60.18
668.018	60.33
668.347	60.42
668.675	60.53
669.003	60.54
669.331	60.48
669.659	60.6
669.987	60.65
670.315	60.64
670.643	60.45
670.971	60.49
671.299	60.56
671.627	60.48
671.955	60.52
672.283	60.67
672.61	60.71
672.938	60.88
673.266	60.83
673.593	60.92
673.921	60.77
674.249	60.64
674.576	60.74
674.904	60.66
675.231	60.68
675.558	60.73
675.886	60.6
676.213	60.58
676.54	60.47
676.867	60.49
677.195	60.49
677.522	60.47
677.849	60.43
678.176	60.37
678.503	60.3
678.83	60.19
679.157	60.03
679.484	60.04
679.81	59.96
680.137	60.09
680.464	60.09
680.791	60.18
681.117	60.29
681.444	60.21
681.771	60.31
682.097	60.18
682.424	60.09
682.75	60.2
683.077	60.25
683.403	60.29
683.729	60.26
684.056	60.34
684.382	60.39
684.708	60.37
685.034	60.47
685.36	60.61
685.686	60.55
686.012	60.75
686.339	60.9
686.664	61.01
686.99	60.97
687.316	61
687.642	60.99
687.968	61.03
688.294	61.16
688.619	61.05
688.945	61.08
689.271	61.13
689.596	60.89
689.922	60.92
690.247	60.99
690.573	60.93
690.898	60.89
691.224	60.96
691.549	60.94
691.874	60.89
692.2	60.87
692.525	61.16
692.85	61.06
693.175	61.03
693.5	60.96
693.825	60.86
694.15	60.79
694.475	60.63
694.8	60.55
695.125	60.47
695.45	60.56
695.775	60.57
696.099	60.41
696.424	60.65
696.749	60.66
697.073	60.69
697.398	60.76
697.723	60.84
698.047	60.85
698.372	60.9
698.696	61.02
699.02	61.05
699.345	61.05
699.669	61.1
699.993	61.1
700.318	61.1
700.642	61.24
700.966	61.32
701.29	61.5
701.614	61.6
701.938	61.75
702.262	61.75
702.586	61.71
702.91	61.96
703.234	62.02
703.557	62.01
703.881	61.96
704.205	62.02
704.529	61.75
704.852	61.7
705.176	61.81
705.499	61.64
705.823	61.45
706.146	61.35
706.47	61.51
706.793	61.31
707.117	61.34
707.44	61.1
707.763	61.15
708.086	61.19
708.409	61.22
708.733	61.09
709.056	60.92
709.379	61.02
709.702	60.82
710.025	60.65
710.348	60.73
710.671	60.62
710.993	60.73
711.316	60.78
711.639	60.91
711.962	60.76
712.284	60.74
712.607	60.92
712.93	61.05
713.252	60.94
713.575	60.97
713.897	60.98
714.22	61.1
714.542	60.98
714.864	60.96
715.187	60.86
715.509	60.88
715.831	61.03
716.153	60.97
716.475	60.98
716.798	61.16
717.12	61.02
717.442	60.97
717.764	60.94
718.085	61.3
718.407	61.13
718.729	61.26
719.051	61.36
719.373	61.41
719.695	61.19
720.016	61.17
720.338	61.36
720.659	61.21
720.981	61.08
721.302	61.2
721.624	61.13
721.945	61.24
722.267	61.17
722.588	61.19
722.909	61.2
723.231	61.22
723.552	61.23
723.873	61.33
724.194	61.59
724.515	61.56
724.836	61.38
725.157	61.31
725.478	61.11
725.799	60.88
726.12	60.92
726.441	61.04
726.762	61.18
727.083	61.08
727.403	61
727.724	61.38
728.045	61.4
728.365	61.49
728.686	61.22
729.006	61.28
729.327	61.25
729.647	61.37
729.967	61.44
730.288	61.39
730.608	61.33
730.928	61.33
731.249	61.25
731.569	61.27
731.889	61.4
732.209	61.67
732.529	61.95
732.849	61.86
733.169	61.95
733.489	61.61
733.809	61.77
734.129	61.99
734.448	61.7
734.768	61.54
735.088	61.58
735.408	61.79
735.727	61.83
736.047	61.81
736.366	61.51
736.686	61.66
737.005	61.48
737.325	61.71
737.644	61.7
737.963	61.76
738.283	61.67
738.602	61.67
738.921	61.45
739.24	61.25
739.56	61.16
739.879	61.09
740.198	61.38
740.517	61.12
740.836	61.08
741.155	60.98
741.473	61.07
741.792	60.9
742.111	61.15
742.43	61.27
742.748	61.22
743.067	61.58
743.386	61.2
743.704	61.33
744.023	61.09
744.341	61
744.66	60.91
744.978	60.76
745.297	60.59
745.615	60.76
745.933	61.12
746.252	61.25
746.57	60.99
746.888	60.98
747.206	61.04
747.524	61.07
747.842	61.24
748.16	61.12
748.478	61.44
748.796	61.25
749.114	60.99
749.432	61.29
749.749	61.59
750.067	61.93
750.385	62.15
750.703	62.38
751.02	62.29
751.338	62.66
751.655	63.1
751.973	63.42
752.29	63.26
752.608	62.99
752.925	63.32
753.242	63.52
753.56	63.49
753.877	63.33
754.194	63.08
754.511	63.32
754.828	63.66
755.145	63.23
755.462	63.4
755.779	63.71
756.096	63.74
756.413	63.21
756.73	63.07
757.047	62.89
757.364	63.02
757.68	63.01
757.997	62.56
758.314	62.15
758.63	62.27
758.947	62.51
759.264	62.26
759.58	61.61
759.896	61.59
760.213	61.71
760.529	61.9
760.846	62.09
761.162	62.2
761.478	61.85
761.794	62.23
762.11	62.06
762.426	61.86
762.743	61.8
763.059	62.14
763.375	62.32
763.69	62.43
764.006	62.36
764.322	62.59
764.638	62.87
764.954	63.03
765.27	62.81
765.585	62.43
765.901	62.67
766.216	62.92
766.532	62.98
766.848	62.85
767.163	62.96
767.478	62.92
767.794	62.86
768.109	63.14
768.424	62.97
768.74	63.14
769.055	63.2
769.37	63.26
769.685	62.85
770	62.55
770.315	62.81
770.63	62.36
770.945	62.14
771.26	61.99
771.575	62.03
771.89	62.29
772.205	62.64
772.52	62.64
772.834	62.42
773.149	62.4
773.464	62.34
773.778	62.32
774.093	62.26
774.407	61.97
774.722	61.86
775.036	61.55
775.351	61.03
775.665	60.84
775.979	60.74
776.293	61.34
776.608	61.49
776.922	61.38
777.236	61.65
777.55	61.8
777.864	61.39
778.178	61.22
778.492	61.22
778.806	61.35
779.12	61.4
779.434	61.78
779.747	62.02
780.061	62.06
780.375	61.71
780.689	61.91
781.002	62.16
781.316	62.17
781.629	63.03
781.943	64.09
782.256	63.98
782.57	64.09
782.883	63.3
783.196	62.96
783.51	62.52
783.823	62.37
784.136	62.92
784.449	63.03
784.762	63.3
785.075	62.54
785.388	62.02
785.701	61.63
786.014	61.63
786.327	61.07
786.64	61.62
786.953	61.31
787.266	61.08
787.578	60.71
787.891	60.47
788.204	59.78
788.516	59.29
788.829	59.59
789.141	59.81
789.454	60.5
789.766	61.66
790.079	62.11
790.391	62.28
790.703	61.97
791.016	61.61
791.328	61.36
791.64	61.84
791.952	61.77
792.264	61.57
792.576	61.36
792.888	62.28
793.2	61.78
793.512	62.71
793.824	62.76
794.136	62.97
794.448	63.38
794.76	63.79
795.071	64.07
795.383	64.13
795.695	63.74
796.006	63.22
796.318	62.87
796.629	62.7
796.941	62.68
797.252	62.55
797.564	63.29
797.875	63.72
798.186	63.66
798.497	64.4
798.809	65.14
799.12	65.16
799.431	64.84
799.742	65.28
800.053	64.92
800.364	65.04
800.675	65.6
800.986	65.47
801.297	65.61
801.608	65.31
801.918	64.93
802.229	65.25
802.54	65.29
802.851	64.57
803.161	63.8
803.472	63.86
803.782	64.15
804.093	64.34
804.403	64.06
804.714	64.3
805.024	64.2
805.334	63.87
805.645	64.54
805.955	64.79
806.265	64.48
806.575	63.85
806.885	64.17
807.195	64.08
807.505	63.96
807.815	64.14
808.125	64.2
808.435	64.37
808.745	63.84
809.055	63.94
809.365	64.02
809.674	64.05
809.984	64.12
810.294	63.61
810.603	63.85
810.913	64.44
811.222	63.83
811.532	64.01
811.841	64.98
812.151	64.24
812.46	63.64
812.769	63.15
813.079	63.87
813.388	63.84
813.697	63.09
814.006	63.5
814.315	63.21
814.624	63.46
814.933	63.98
815.242	64.7
815.551	64.41
815.86	64.45
816.169	64.99
816.478	65.11
816.786	64.93
817.095	64.85
817.404	65.12
817.712	65.51
818.021	65.1
818.33	63.73
818.638	63.69
818.947	63.57
819.255	64.46
819.563	64.3
819.872	63.87
820.18	63.88
820.488	63.95
820.796	64.12
821.105	64.06
821.413	63.99
821.721	63.94
822.029	64.16
822.337	64.17
822.645	64.23
822.953	64.23
823.26	64.2
823.568	64.14
823.876	64.1
824.184	64.02
824.491	64
824.799	64
825.107	63.98
825.414	64.22
825.722	64.22
826.029	64.42
826.337	64.69
826.644	65
826.951	64.67
827.259	64.4
827.566	64.38
827.873	64.18
828.18	64.13
828.488	64.19
828.795	64.24
829.102	64.42
829.409	64.31
829.716	64.3
830.023	64.26
830.329	63.99
830.636	64.33
830.943	64.23
831.25	64.5
831.557	64.36
831.863	63.68
832.17	63.48
832.476	63.26
832.783	63.12
833.089	62.91
833.396	63.27
833.702	64.12
834.009	64.35
834.315	64.91
834.621	65.13
834.928	65.16
835.234	64.9
835.54	64.41
835.846	64.71
836.152	65.08
836.458	64.95
836.764	65
837.07	64.84
837.376	64.75
837.682	65.01
837.988	65.47
838.293	65.74
838.599	65.75
838.905	65.31
839.211	64.8
839.516	63.95
839.822	64.71
840.127	62.98
840.433	62.42
840.738	62.27
841.044	61.8
841.349	60.99
841.654	61.69
841.959	61.68
842.265	61.57
842.57	61.38
842.875	61.71
843.18	61.99
843.485	61.52
843.79	63.14
844.095	62.1
844.4	61.59
844.705	61.12
845.01	60.5
845.315	61.27
845.619	62.41
845.924	63.14
846.229	64.25
846.533	64.44
846.838	65.04
847.142	64.64
847.447	64.31
847.751	65.04
848.056	64.43
848.36	65.96
848.664	65.02
848.969	63.93
849.273	63.23
849.577	63.16
849.881	63.4
850.185	64.39
850.489	64.26
850.794	64.49
851.097	65.58
851.401	64.83
851.705	65.92
852.009	65.48
852.313	66.46
852.617	65.09
852.92	66.25
853.224	64.26
853.528	64.61
853.831	65.91
854.135	66.05
854.438	67.71
854.742	67.24
855.045	69.52
855.349	72.29
855.652	75.05
855.955	75.9
856.259	77
856.562	75.2
856.865	77.36
857.168	78.01
857.471	74.05
857.774	74.74
858.077	74.19
858.38	74.74
858.683	72.68
858.986	71.47
859.289	74.94
859.592	76.1
859.894	77.18
860.197	78.08
860.5	75.11
860.802	71.59
861.105	70.63
861.407	67.57
861.71	65.77
862.012	65.63
862.315	63.38
862.617	63.35
862.919	62.26
863.222	62.05
863.524	63.96
863.826	67.53
864.128	68.14
864.43	65.39
864.732	65.3
865.034	67.25
865.336	66.43
865.638	62.67
865.94	65.54
866.242	62.64
866.544	61.56
866.846	63.05
867.147	64.89
867.449	65.9
867.751	68.14
868.052	69.88
868.354	66.75
868.655	69.39
868.957	69.13
869.258	71.85
869.56	71.25
869.861	71.58
870.162	72.17
870.463	69.81
870.765	71.49
871.066	70.57
871.367	68.86
871.668	70.48
871.969	71.79
872.27	67.9
872.571	69
872.872	69.75
873.173	72.87
873.473	71.94
873.774	70.17
874.075	68.52
874.376	65.76
874.676	68.05
874.977	66.46
875.277	67.22
875.578	66.6
875.878	67.45
876.179	65.45
876.479	64.65
876.78	66.4
877.08	66.29
877.38	67.42
877.68	68.36
877.981	67.44
878.281	68
878.581	70.45
