Data from BA28471_Reflection_00007.txt Node
Date: Mon Nov 18 15:21:13 EST 2019
User: vgr7
Spectrometer: USB2G7710
Scans to average: 3
Trigger mode: 4
Integration Time (sec): 2.000000E-2
Electric dark correction enabled: true
Boxcar width: 10
XAxis mode: Wavelengths
Number of Pixels in Spectrum: 2048
>>>>>Begin Spectral Data<<<<<
177.721	516.85
178.105	-200.58
178.488	-109.64
178.871	-55.53
179.254	22.16
179.636	-87.3
180.019	-10.54
180.402	46.15
180.785	-1068.67
181.168	-43.19
181.55	-3.59
181.933	49.52
182.316	34.3
182.698	80.61
183.081	79.4
183.463	92.65
183.846	185.9
184.228	253.99
184.611	316.33
184.993	272.41
185.376	159.91
185.758	152.63
186.14	464.24
186.522	3310.53
186.904	-214.12
187.287	87.01
187.669	118.47
188.051	2.01
188.433	44.03
188.815	52.33
189.197	18.29
189.579	23.96
189.961	25.13
190.342	-1.62
190.724	7.21
191.106	20.8
191.488	21.11
191.869	-8.55
192.251	23.9
192.633	20.09
193.014	-20.88
193.396	-136.29
193.777	-184.82
194.159	-303.08
194.54	-116.65
194.922	-91.93
195.303	-127.08
195.684	-150.31
196.065	-43.26
196.447	-138.29
196.828	-269.26
197.209	-89.78
197.59	-93.34
197.971	-100
198.352	-54.88
198.733	-267.29
199.114	-128.14
199.495	-62.61
199.876	22.07
200.257	-13.76
200.638	-12.1
201.018	-11.82
201.399	-11.71
201.78	0.11
202.16	-5.62
202.541	-10.01
202.922	-17.72
203.302	-19.83
203.683	-26.9
204.063	-34.96
204.444	-35.84
204.824	-34.83
205.204	-32.68
205.585	-39.61
205.965	-31.83
206.345	-40.18
206.725	-31.47
207.106	-66.15
207.486	-78.35
207.866	-80.18
208.246	-73.55
208.626	-98.2
209.006	-81.67
209.386	-135.7
209.766	-186.66
210.145	-153.31
210.525	-125.65
210.905	-99.64
211.285	-77.39
211.664	-60.17
212.044	-61.03
212.424	-55.91
212.803	-69.45
213.183	-54.28
213.562	-40.99
213.942	-46.53
214.321	-39.12
214.701	-61.46
215.08	-39.21
215.459	-9.24
215.838	-4.56
216.218	-9.15
216.597	11.81
216.976	6.85
217.355	11.6
217.734	15.87
218.113	30.06
218.492	27.11
218.871	9.42
219.25	4.08
219.629	2.86
220.008	-16.28
220.387	-24.04
220.766	-38.13
221.144	-65.89
221.523	-79.12
221.902	-94.18
222.28	-97.39
222.659	-64.53
223.037	-49.68
223.416	-66.4
223.794	-51.33
224.173	-47.78
224.551	-40.73
224.929	-50.2
225.308	-25.43
225.686	-30.5
226.064	-26.11
226.442	-23.06
226.821	-13.75
227.199	-11.73
227.577	-11.34
227.955	-2.43
228.333	-0.83
228.711	6.51
229.089	9.86
229.467	5.36
229.845	4.25
230.222	3.34
230.6	3.15
230.978	1.83
231.356	5.83
231.733	5.22
232.111	4.19
232.488	5.46
232.866	6.09
233.243	4.83
233.621	3.7
233.998	4.25
234.376	2.79
234.753	2.64
235.13	3.26
235.508	3.41
235.885	1.6
236.262	1.36
236.639	-0.02
237.016	0.51
237.393	3.27
237.77	3.91
238.147	4.3
238.524	3.89
238.901	4.02
239.278	3.4
239.655	3.08
240.032	3.4
240.409	2.23
240.785	2.42
241.162	2.34
241.539	2.64
241.915	2.24
242.292	2.12
242.668	2.4
243.045	2.77
243.421	3.07
243.798	3.2
244.174	3.21
244.551	3.29
244.927	3.03
245.303	3.12
245.679	3.24
246.056	3.02
246.432	3.11
246.808	3.22
247.184	2.86
247.56	3.02
247.936	2.87
248.312	2.93
248.688	3.05
249.064	3
249.44	2.97
249.815	3.07
250.191	3.44
250.567	3.52
250.943	3.41
251.318	3.19
251.694	3.12
252.069	3.01
252.445	3.18
252.82	3.23
253.196	2.84
253.571	2.61
253.947	2.72
254.322	2.57
254.697	2.25
255.073	2.69
255.448	2.6
255.823	2.86
256.198	3.01
256.573	2.76
256.948	3.04
257.323	3.09
257.698	3.08
258.073	2.74
258.448	2.52
258.823	2.49
259.198	2.53
259.573	2.59
259.948	2.75
260.322	2.71
260.697	2.65
261.072	2.54
261.446	2.68
261.821	2.64
262.195	2.73
262.57	2.64
262.944	2.53
263.319	2.39
263.693	2.3
264.067	2.44
264.442	2.48
264.816	2.29
265.19	2.19
265.564	2.3
265.938	2.51
266.313	2.57
266.687	2.57
267.061	2.49
267.435	2.46
267.809	2.2
268.183	2.35
268.556	2.42
268.93	2.6
269.304	2.49
269.678	2.82
270.051	2.81
270.425	3.13
270.799	3.16
271.172	3.25
271.546	3.16
271.919	2.89
272.293	2.96
272.666	2.98
273.04	2.99
273.413	2.78
273.787	2.72
274.16	2.67
274.533	2.66
274.906	2.72
275.279	2.7
275.653	2.92
276.026	2.67
276.399	2.51
276.772	2.56
277.145	2.61
277.518	2.46
277.891	2.38
278.263	2.31
278.636	2.27
279.009	2.17
279.382	2.35
279.755	2.49
280.127	2.59
280.5	2.56
280.872	2.72
281.245	2.7
281.617	2.79
281.99	2.9
282.362	2.9
282.735	2.8
283.107	2.95
283.479	2.86
283.852	3
284.224	3.12
284.596	3.05
284.968	3.06
285.34	3
285.713	3.1
286.085	3.09
286.457	3.21
286.829	3.28
287.201	3.25
287.572	3.24
287.944	3.21
288.316	3.33
288.688	3.29
289.06	3.4
289.431	3.39
289.803	3.47
290.175	3.57
290.546	3.83
290.918	3.76
291.289	3.86
291.661	3.94
292.032	4.05
292.403	4.1
292.775	4.09
293.146	4.04
293.517	3.97
293.889	4.04
294.26	3.98
294.631	3.95
295.002	3.94
295.373	4.02
295.744	4.01
296.115	4.02
296.486	4.01
296.857	3.93
297.228	3.88
297.599	3.87
297.97	3.89
298.34	3.89
298.711	3.89
299.082	3.91
299.452	3.87
299.823	3.88
300.194	3.93
300.564	3.95
300.935	4.13
301.305	4.23
301.676	4.25
302.046	4.29
302.416	4.56
302.787	4.57
303.157	4.63
303.527	4.66
303.897	4.69
304.267	4.77
304.637	4.93
305.008	5.07
305.378	5.07
305.748	5.1
306.117	5.09
306.487	5.19
306.857	5.24
307.227	5.22
307.597	5.28
307.967	5.32
308.336	5.41
308.706	5.38
309.076	5.36
309.445	5.44
309.815	5.47
310.184	5.35
310.554	5.41
310.923	5.39
311.293	5.43
311.662	5.45
312.031	5.59
312.401	5.68
312.77	5.77
313.139	5.92
313.508	5.94
313.877	5.9
314.246	5.95
314.616	5.89
314.985	6.02
315.353	5.91
315.722	6.07
316.091	6.01
316.46	6.06
316.829	6.18
317.198	6.26
317.567	6.46
317.935	6.5
318.304	6.57
318.672	6.64
319.041	6.76
319.41	6.91
319.778	6.74
320.147	6.71
320.515	6.53
320.883	6.44
321.252	6.62
321.62	6.78
321.988	6.75
322.357	6.81
322.725	6.79
323.093	7.07
323.461	6.98
323.829	7.16
324.197	7.25
324.565	7.35
324.933	7.3
325.301	7.37
325.669	7.56
326.037	7.56
326.405	7.68
326.772	7.74
327.14	7.81
327.508	7.88
327.875	7.85
328.243	8.09
328.61	8.19
328.978	8.09
329.346	8.13
329.713	8.23
330.08	8.43
330.448	8.45
330.815	8.35
331.182	8.37
331.55	8.38
331.917	8.48
332.284	8.47
332.651	8.34
333.018	8.34
333.385	8.23
333.752	8.35
334.119	8.4
334.486	8.34
334.853	8.25
335.22	8.41
335.587	8.56
335.954	8.55
336.32	8.5
336.687	8.54
337.054	8.48
337.42	8.58
337.787	8.54
338.153	8.73
338.52	8.8
338.886	8.82
339.253	8.73
339.619	8.68
339.986	8.75
340.352	8.92
340.718	8.93
341.084	8.96
341.451	9
341.817	9.04
342.183	9.11
342.549	9.12
342.915	9.03
343.281	9.03
343.647	8.99
344.013	9.09
344.379	9.05
344.745	9.2
345.11	9.23
345.476	9.24
345.842	9.21
346.208	9.19
346.573	9.31
346.939	9.47
347.304	9.53
347.67	9.45
348.035	9.47
348.401	9.46
348.766	9.48
349.132	9.47
349.497	9.45
349.862	9.57
350.228	9.59
350.593	9.54
350.958	9.56
351.323	9.64
351.688	9.6
352.053	9.73
352.418	9.7
352.783	9.64
353.148	9.69
353.513	9.61
353.878	9.59
354.243	9.57
354.608	9.57
354.972	9.55
355.337	9.65
355.702	9.69
356.066	9.7
356.431	9.72
356.795	9.8
357.16	9.74
357.524	9.57
357.889	9.62
358.253	9.63
358.618	9.69
358.982	9.66
359.346	9.67
359.71	9.63
360.075	9.59
360.439	9.61
360.803	9.55
361.167	9.54
361.531	9.59
361.895	9.53
362.259	9.45
362.623	9.38
362.987	9.35
363.351	9.28
363.714	9.24
364.078	9.23
364.442	9.18
364.806	9.15
365.169	9.2
365.533	9.11
365.896	9.11
366.26	8.97
366.623	8.92
366.987	8.86
367.35	8.83
367.714	8.86
368.077	8.77
368.44	8.73
368.803	8.65
369.167	8.55
369.53	8.5
369.893	8.51
370.256	8.54
370.619	8.45
370.982	8.4
371.345	8.3
371.708	8.22
372.071	8.11
372.434	8.09
372.797	7.99
373.159	7.94
373.522	7.94
373.885	7.98
374.247	7.96
374.61	7.88
374.973	7.82
375.335	7.69
375.698	7.67
376.06	7.61
376.423	7.61
376.785	7.66
377.147	7.64
377.51	7.54
377.872	7.5
378.234	7.44
378.596	7.4
378.958	7.38
379.321	7.32
379.683	7.29
380.045	7.27
380.407	7.17
380.769	7.16
381.13	7.09
381.492	7.01
381.854	6.95
382.216	6.92
382.578	6.86
382.939	6.79
383.301	6.74
383.663	6.64
384.024	6.62
384.386	6.53
384.747	6.48
385.109	6.45
385.47	6.33
385.832	6.33
386.193	6.29
386.554	6.24
386.916	6.19
387.277	6.12
387.638	6.06
387.999	6.05
388.36	6.02
388.721	5.99
389.082	5.95
389.443	5.89
389.804	5.86
390.165	5.8
390.526	5.8
390.887	5.72
391.248	5.78
391.609	5.73
391.969	5.68
392.33	5.62
392.691	5.58
393.051	5.56
393.412	5.54
393.772	5.47
394.133	5.48
394.493	5.46
394.854	5.42
395.214	5.39
395.574	5.37
395.935	5.31
396.295	5.24
396.655	5.17
397.015	5.15
397.376	5.1
397.736	5.06
398.096	5.01
398.456	5
398.816	4.91
399.176	4.81
399.535	4.77
399.895	4.75
400.255	4.73
400.615	4.71
400.975	4.62
401.334	4.62
401.694	4.56
402.054	4.52
402.413	4.51
402.773	4.45
403.132	4.38
403.492	4.33
403.851	4.3
404.211	4.3
404.57	4.25
404.929	4.22
405.288	4.19
405.648	4.16
406.007	4.13
406.366	4.13
406.725	4.14
407.084	4.11
407.443	4.1
407.802	4.1
408.161	4.06
408.52	4.03
408.879	4.02
409.238	4.01
409.596	3.98
409.955	3.97
410.314	3.94
410.673	3.98
411.031	3.97
411.39	3.99
411.748	3.96
412.107	3.97
412.465	3.94
412.824	3.92
413.182	3.9
413.54	3.86
413.899	3.87
414.257	3.86
414.615	3.84
414.974	3.82
415.332	3.8
415.69	3.78
416.048	3.76
416.406	3.73
416.764	3.7
417.122	3.67
417.48	3.63
417.838	3.63
418.195	3.59
418.553	3.56
418.911	3.52
419.269	3.49
419.626	3.45
419.984	3.44
420.342	3.43
420.699	3.42
421.057	3.4
421.414	3.37
421.772	3.34
422.129	3.31
422.486	3.29
422.844	3.27
423.201	3.25
423.558	3.24
423.915	3.23
424.273	3.21
424.63	3.21
424.987	3.21
425.344	3.18
425.701	3.17
426.058	3.16
426.415	3.15
426.772	3.14
427.128	3.14
427.485	3.13
427.842	3.12
428.199	3.11
428.555	3.11
428.912	3.1
429.269	3.1
429.625	3.1
429.982	3.1
430.338	3.1
430.695	3.1
431.051	3.08
431.407	3.08
431.764	3.08
432.12	3.06
432.476	3.07
432.832	3.08
433.189	3.1
433.545	3.1
433.901	3.12
434.257	3.12
434.613	3.13
434.969	3.13
435.325	3.14
435.681	3.15
436.036	3.15
436.392	3.15
436.748	3.14
437.104	3.13
437.459	3.11
437.815	3.12
438.171	3.12
438.526	3.12
438.882	3.11
439.237	3.11
439.593	3.12
439.948	3.11
440.304	3.09
440.659	3.09
441.014	3.1
441.369	3.07
441.725	3.05
442.08	3.04
442.435	3.04
442.79	3.03
443.145	3.02
443.5	3
443.855	2.98
444.21	2.97
444.565	2.97
444.92	2.98
445.275	2.96
445.629	2.96
445.984	2.96
446.339	2.94
446.693	2.91
447.048	2.89
447.403	2.89
447.757	2.88
448.112	2.85
448.466	2.81
448.82	2.82
449.175	2.82
449.529	2.81
449.883	2.79
450.238	2.76
450.592	2.76
450.946	2.75
451.3	2.76
451.654	2.74
452.008	2.73
452.362	2.71
452.716	2.72
453.07	2.69
453.424	2.67
453.778	2.67
454.132	2.68
454.486	2.68
454.839	2.67
455.193	2.68
455.547	2.69
455.9	2.7
456.254	2.7
456.607	2.72
456.961	2.7
457.314	2.71
457.668	2.72
458.021	2.71
458.375	2.72
458.728	2.73
459.081	2.74
459.434	2.73
459.787	2.75
460.141	2.75
460.494	2.78
460.847	2.79
461.2	2.8
461.553	2.8
461.906	2.82
462.259	2.84
462.611	2.85
462.964	2.86
463.317	2.88
463.67	2.88
464.022	2.88
464.375	2.9
464.728	2.9
465.08	2.92
465.433	2.94
465.785	2.94
466.138	2.96
466.49	2.99
466.843	3
467.195	3.03
467.547	3.05
467.899	3.05
468.252	3.05
468.604	3.09
468.956	3.1
469.308	3.12
469.66	3.12
470.012	3.13
470.364	3.16
470.716	3.18
471.068	3.19
471.42	3.2
471.772	3.22
472.123	3.23
472.475	3.24
472.827	3.25
473.178	3.26
473.53	3.25
473.882	3.23
474.233	3.24
474.585	3.21
474.936	3.2
475.288	3.19
475.639	3.2
475.99	3.19
476.342	3.19
476.693	3.16
477.044	3.17
477.395	3.17
477.746	3.14
478.097	3.12
478.448	3.12
478.8	3.1
479.15	3.08
479.501	3.08
479.852	3.08
480.203	3.07
480.554	3.07
480.905	3.07
481.255	3.08
481.606	3.08
481.957	3.09
482.307	3.08
482.658	3.09
483.009	3.09
483.359	3.08
483.709	3.09
484.06	3.1
484.41	3.09
484.761	3.09
485.111	3.09
485.461	3.1
485.811	3.1
486.162	3.1
486.512	3.12
486.862	3.13
487.212	3.13
487.562	3.14
487.912	3.15
488.262	3.16
488.612	3.16
488.961	3.17
489.311	3.18
489.661	3.19
490.011	3.2
490.36	3.22
490.71	3.24
491.06	3.25
491.409	3.26
491.759	3.28
492.108	3.29
492.458	3.31
492.807	3.32
493.157	3.36
493.506	3.39
493.855	3.41
494.204	3.41
494.554	3.44
494.903	3.46
495.252	3.48
495.601	3.51
495.95	3.54
496.299	3.56
496.648	3.6
496.997	3.64
497.346	3.68
497.695	3.72
498.043	3.76
498.392	3.78
498.741	3.84
499.09	3.9
499.438	3.96
499.787	4
500.135	4.04
500.484	4.09
500.832	4.14
501.181	4.2
501.529	4.27
501.878	4.34
502.226	4.43
502.574	4.5
502.923	4.57
503.271	4.64
503.619	4.75
503.967	4.82
504.315	4.9
504.663	4.99
505.011	5.07
505.359	5.12
505.707	5.24
506.055	5.33
506.403	5.43
506.751	5.51
507.098	5.63
507.446	5.74
507.794	5.84
508.141	5.94
508.489	6.04
508.837	6.14
509.184	6.26
509.531	6.35
509.879	6.47
510.226	6.6
510.574	6.72
510.921	6.84
511.268	6.94
511.616	7.07
511.963	7.19
512.31	7.33
512.657	7.48
513.004	7.6
513.351	7.77
513.698	7.89
514.045	8.07
514.392	8.22
514.739	8.38
515.086	8.55
515.432	8.72
515.779	8.86
516.126	9.03
516.473	9.19
516.819	9.34
517.166	9.49
517.512	9.63
517.859	9.77
518.205	9.9
518.552	10.05
518.898	10.17
519.245	10.3
519.591	10.44
519.937	10.6
520.283	10.74
520.629	10.88
520.976	11.04
521.322	11.18
521.668	11.35
522.014	11.54
522.36	11.73
522.706	11.93
523.052	12.14
523.398	12.39
523.743	12.61
524.089	12.83
524.435	13.06
524.781	13.29
525.126	13.5
525.472	13.73
525.817	13.92
526.163	14.09
526.509	14.26
526.854	14.41
527.199	14.56
527.545	14.72
527.89	14.87
528.235	15.04
528.581	15.22
528.926	15.37
529.271	15.53
529.616	15.69
529.961	15.85
530.306	16.02
530.651	16.18
530.996	16.37
531.341	16.56
531.686	16.75
532.031	16.96
532.376	17.16
532.721	17.35
533.065	17.56
533.41	17.79
533.755	18.02
534.099	18.26
534.444	18.5
534.788	18.76
535.133	18.99
535.477	19.21
535.822	19.46
536.166	19.73
536.51	20.03
536.855	20.34
537.199	20.64
537.543	20.98
537.887	21.32
538.231	21.63
538.576	21.98
538.92	22.29
539.264	22.59
539.608	22.89
539.951	23.18
540.295	23.45
540.639	23.73
540.983	23.99
541.327	24.26
541.671	24.51
542.014	24.72
542.358	24.94
542.701	25.2
543.045	25.44
543.389	25.7
543.732	25.95
544.075	26.19
544.419	26.47
544.762	26.74
545.105	27.01
545.449	27.3
545.792	27.6
546.135	27.94
546.478	28.27
546.821	28.6
547.165	28.94
547.508	29.29
547.851	29.6
548.194	29.93
548.536	30.25
548.879	30.59
549.222	30.95
549.565	31.35
549.908	31.71
550.25	32.05
550.593	32.38
550.936	32.71
551.278	33.13
551.621	33.45
551.963	33.77
552.306	34.06
552.648	34.38
552.991	34.68
553.333	34.96
553.675	35.23
554.017	35.56
554.36	35.82
554.702	36.09
555.044	36.46
555.386	36.78
555.728	37.07
556.07	37.39
556.412	37.69
556.754	37.97
557.096	38.24
557.438	38.56
557.78	38.87
558.121	39.18
558.463	39.43
558.805	39.77
559.147	40.06
559.488	40.4
559.83	40.71
560.171	41
560.513	41.32
560.854	41.59
561.196	41.83
561.537	42.13
561.878	42.45
562.22	42.66
562.561	42.88
562.902	43.19
563.243	43.41
563.584	43.63
563.925	43.87
564.266	44.06
564.607	44.28
564.948	44.54
565.289	44.74
565.63	44.91
565.971	45.07
566.312	45.27
566.653	45.47
566.993	45.7
567.334	45.87
567.675	46.03
568.015	46.33
568.356	46.49
568.696	46.69
569.037	46.86
569.377	47.04
569.718	47.23
570.058	47.4
570.398	47.58
570.739	47.76
571.079	47.91
571.419	48.19
571.759	48.3
572.099	48.42
572.439	48.6
572.779	48.77
573.119	48.94
573.459	49.11
573.799	49.27
574.139	49.4
574.479	49.53
574.819	49.65
575.158	49.73
575.498	49.9
575.838	50.03
576.177	50.13
576.517	50.26
576.856	50.41
577.196	50.55
577.535	50.67
577.875	50.86
578.214	51.08
578.553	51.16
578.893	51.34
579.232	51.48
579.571	51.64
579.91	51.75
580.25	51.87
580.589	51.95
580.928	52.08
581.267	52.2
581.606	52.35
581.945	52.59
582.283	52.65
582.622	52.78
582.961	52.85
583.3	52.94
583.639	53.05
583.977	53.11
584.316	53.18
584.654	53.33
584.993	53.44
585.332	53.5
585.67	53.63
586.008	53.76
586.347	53.83
586.685	53.88
587.024	54.05
587.362	54.1
587.7	54.27
588.038	54.34
588.376	54.44
588.715	54.53
589.053	54.59
589.391	54.7
589.729	54.76
590.067	54.86
590.404	54.99
590.742	55.12
591.08	55.23
591.418	55.34
591.756	55.36
592.093	55.32
592.431	55.37
592.769	55.39
593.106	55.47
593.444	55.49
593.781	55.57
594.119	55.62
594.456	55.74
594.793	55.77
595.131	55.84
595.468	55.89
595.805	55.95
596.143	55.99
596.48	56
596.817	56.11
597.154	56.15
597.491	56.23
597.828	56.26
598.165	56.31
598.502	56.37
598.839	56.5
599.176	56.63
599.512	56.68
599.849	56.71
600.186	56.7
600.523	56.79
600.859	56.85
601.196	56.86
601.532	56.91
601.869	56.98
602.205	57.02
602.542	57.15
602.878	57.18
603.215	57.21
603.551	57.26
603.887	57.28
604.223	57.3
604.56	57.36
604.896	57.39
605.232	57.37
605.568	57.32
605.904	57.29
606.24	57.33
606.576	57.42
606.912	57.49
607.248	57.56
607.583	57.62
607.919	57.62
608.255	57.71
608.591	57.75
608.926	57.72
609.262	57.78
609.597	57.69
609.933	57.74
610.268	57.78
610.604	57.85
610.939	57.83
611.275	57.85
611.61	57.81
611.945	57.84
612.281	57.95
612.616	58.04
612.951	58.13
613.286	58.17
613.621	58.16
613.956	58.2
614.291	58.31
614.626	58.24
614.961	58.29
615.296	58.25
615.631	58.26
615.966	58.37
616.3	58.4
616.635	58.56
616.97	58.51
617.304	58.52
617.639	58.6
617.973	58.61
618.308	58.75
618.642	58.91
618.977	58.98
619.311	59.13
619.646	59.16
619.98	59.17
620.314	59.18
620.648	59.22
620.983	59.22
621.317	59.22
621.651	59.39
621.985	59.48
622.319	59.5
622.653	59.56
622.987	59.61
623.321	59.63
623.655	59.58
623.988	59.66
624.322	59.67
624.656	59.69
624.99	59.81
625.323	59.85
625.657	59.79
625.99	59.72
626.324	59.66
626.657	59.65
626.991	59.61
627.324	59.62
627.658	59.62
627.991	59.61
628.324	59.52
628.657	59.49
628.991	59.51
629.324	59.59
629.657	59.63
629.99	59.7
630.323	59.77
630.656	59.74
630.989	59.71
631.322	59.78
631.655	59.78
631.987	59.68
632.32	59.6
632.653	59.62
632.986	59.69
633.318	59.6
633.651	59.64
633.984	59.66
634.316	59.72
634.649	59.77
634.981	59.76
635.313	59.92
635.646	60.03
635.978	59.98
636.31	59.97
636.643	59.89
636.975	59.87
637.307	59.75
637.639	59.81
637.971	59.88
638.303	59.82
638.635	59.76
638.967	59.94
639.299	60.01
639.631	60.02
639.963	60.02
640.295	60.14
640.626	60.16
640.958	60.13
641.29	60.12
641.621	60.13
641.953	60.22
642.285	60.25
642.616	60.3
642.948	60.35
643.279	60.4
643.61	60.44
643.942	60.29
644.273	60.43
644.604	60.48
644.936	60.55
645.267	60.56
645.598	60.52
645.929	60.5
646.26	60.48
646.591	60.58
646.922	60.61
647.253	60.7
647.584	60.76
647.915	60.89
648.245	60.97
648.576	61.04
648.907	61.01
649.238	60.91
649.568	60.75
649.899	60.71
650.229	60.66
650.56	60.74
650.89	60.83
651.221	60.68
651.551	60.57
651.882	60.59
652.212	60.58
652.542	60.66
652.872	60.57
653.203	60.63
653.533	60.69
653.863	60.65
654.193	60.54
654.523	60.55
654.853	60.48
655.183	60.41
655.513	60.27
655.843	60.35
656.172	60.53
656.502	60.6
656.832	60.73
657.162	60.74
657.491	60.67
657.821	60.6
658.15	60.67
658.48	60.7
658.809	60.65
659.139	60.64
659.468	60.68
659.798	60.76
660.127	60.8
660.456	60.78
660.785	60.88
661.115	60.9
661.444	60.97
661.773	61.1
662.102	61.15
662.431	61.26
662.76	61.18
663.089	61.03
663.418	60.99
663.747	60.88
664.076	60.88
664.404	60.9
664.733	61.09
665.062	61.12
665.39	61.24
665.719	61.26
666.048	61.45
666.376	61.47
666.705	61.48
667.033	61.45
667.362	61.39
667.69	61.25
668.018	61.2
668.347	61.16
668.675	61.1
669.003	61.04
669.331	61.11
669.659	61.19
669.987	61.24
670.315	61.28
670.643	61.29
670.971	61.32
671.299	61.24
671.627	61.12
671.955	61.09
672.283	61.08
672.61	61
672.938	60.88
673.266	60.89
673.593	60.93
673.921	60.85
674.249	60.97
674.576	61.09
674.904	61.1
675.231	61.02
675.558	61.09
675.886	61.15
676.213	61.17
676.54	61.05
676.867	61.05
677.195	61.11
677.522	61.04
677.849	61.06
678.176	61.14
678.503	61.17
678.83	61.11
679.157	61.12
679.484	61.17
679.81	61.15
680.137	61.15
680.464	61.13
680.791	61.16
681.117	61.01
681.444	60.81
681.771	60.87
682.097	60.97
682.424	60.95
682.75	60.98
683.077	60.96
683.403	60.98
683.729	60.96
684.056	61.09
684.382	61.13
684.708	61.27
685.034	61.26
685.36	61.35
685.686	61.4
686.012	61.29
686.339	61.41
686.664	61.41
686.99	61.36
687.316	61.22
687.642	61.39
687.968	61.47
688.294	61.65
688.619	61.61
688.945	61.54
689.271	61.41
689.596	61.39
689.922	61.32
690.247	61.4
690.573	61.51
690.898	61.21
691.224	61.28
691.549	61.05
691.874	61.02
692.2	60.77
692.525	60.89
692.85	60.99
693.175	60.9
693.5	60.95
693.825	60.97
694.15	61.05
694.475	60.84
694.8	60.94
695.125	60.95
695.45	61.23
695.775	61.33
696.099	61.45
696.424	61.47
696.749	61.38
697.073	61.35
697.398	61.29
697.723	61.38
698.047	61.38
698.372	61.49
698.696	61.58
699.02	61.74
699.345	61.64
699.669	61.76
699.993	61.73
700.318	61.78
700.642	61.86
700.966	61.96
701.29	62.16
701.614	62.03
701.938	62.15
702.262	62.01
702.586	61.97
702.91	61.97
703.234	61.92
703.557	62.08
703.881	62.28
704.205	62.31
704.529	62.23
704.852	62.21
705.176	62.23
705.499	62.22
705.823	62.15
706.146	62.17
706.47	62.08
706.793	62.24
707.117	62.21
707.44	62.15
707.763	62.06
708.086	61.88
708.409	61.88
708.733	61.74
709.056	61.65
709.379	61.71
709.702	61.64
710.025	61.64
710.348	61.71
710.671	61.6
710.993	61.73
711.316	61.84
711.639	62.01
711.962	61.93
712.284	61.84
712.607	61.85
712.93	61.89
713.252	61.76
713.575	61.63
713.897	61.61
714.22	61.61
714.542	61.77
714.864	61.63
715.187	61.59
715.509	61.62
715.831	61.48
716.153	61.44
716.475	61.55
716.798	61.52
717.12	61.34
717.442	61.28
717.764	61.23
718.085	61.15
718.407	61.19
718.729	61.17
719.051	61.27
719.373	61.3
719.695	61.3
720.016	61.35
720.338	61.56
720.659	61.51
720.981	61.49
721.302	61.39
721.624	61.57
721.945	61.43
722.267	61.58
722.588	61.69
722.909	61.54
723.231	61.47
723.552	61.49
723.873	61.4
724.194	61.35
724.515	61.31
724.836	61.45
725.157	61.21
725.478	61.41
725.799	61.2
726.12	61.13
726.441	61.2
726.762	61.25
727.083	61.05
727.403	61.11
727.724	61.28
728.045	61.01
728.365	60.94
728.686	61.16
729.006	61.05
729.327	60.92
729.647	60.96
729.967	61.05
730.288	61.14
730.608	61.17
730.928	61.15
731.249	61.17
731.569	61.16
731.889	61.27
732.209	61.06
732.529	61.25
732.849	61.33
733.169	61.24
733.489	61.3
733.809	61.51
734.129	61.57
734.448	61.58
734.768	61.7
735.088	61.75
735.408	62.06
735.727	62
736.047	62.13
736.366	62.38
736.686	62.25
737.005	62.15
737.325	62.41
737.644	62.49
737.963	62.29
738.283	62.18
738.602	62.16
738.921	62.36
739.24	62.45
739.56	62.47
739.879	62.44
740.198	62.39
740.517	62.2
740.836	62.21
741.155	61.92
741.473	62.07
741.792	62.15
742.111	61.72
742.43	61.71
742.748	61.74
743.067	61.76
743.386	61.75
743.704	61.97
744.023	61.79
744.341	61.67
744.66	61.92
744.978	61.87
745.297	61.8
745.615	61.89
745.933	61.9
746.252	62.03
746.57	62.01
746.888	61.93
747.206	61.72
747.524	61.51
747.842	61.36
748.16	61.4
748.478	61.31
748.796	61.7
749.114	61.84
749.432	61.88
749.749	61.69
750.067	61.7
750.385	61.62
750.703	62.03
751.02	62.44
751.338	62.65
751.655	62.76
751.973	62.96
752.29	62.53
752.608	62.39
752.925	62.07
753.242	62.13
753.56	62.14
753.877	62.14
754.194	62.24
754.511	62.48
754.828	62.38
755.145	62.47
755.462	62.11
755.779	62.03
756.096	61.98
756.413	61.76
756.73	61.76
757.047	61.53
757.364	61.33
757.68	60.9
757.997	60.46
758.314	60.29
758.63	60.14
758.947	60.31
759.264	60.1
759.58	60.26
759.896	60.44
760.213	60.47
760.529	60.65
760.846	60.78
761.162	60.81
761.478	60.68
761.794	60.66
762.11	60.63
762.426	60.58
762.743	60.9
763.059	61.03
763.375	61.17
763.69	61.25
764.006	61.21
764.322	61.6
764.638	61.74
764.954	62
765.27	61.98
765.585	62.04
765.901	62.1
766.216	61.99
766.532	61.95
766.848	61.83
767.163	61.8
767.478	61.82
767.794	61.62
768.109	61.69
768.424	61.56
768.74	62.01
769.055	62.03
769.37	61.91
769.685	61.94
770	62.19
770.315	62.25
770.63	62.21
770.945	61.84
771.26	61.35
771.575	61.34
771.89	61.74
772.205	61.76
772.52	61.71
772.834	61.98
773.149	62.1
773.464	62.45
773.778	62.63
774.093	62.22
774.407	62.62
774.722	62.55
775.036	62.25
775.351	61.48
775.665	61.53
775.979	61.24
776.293	61.01
776.608	60.32
776.922	60.34
777.236	60.65
777.55	60.32
777.864	60.68
778.178	60.57
778.492	60.09
778.806	60.18
779.12	60.54
779.434	61.03
779.747	61.04
780.061	60.81
780.375	60.7
780.689	60.86
781.002	60.68
781.316	61.12
781.629	61.65
781.943	62.05
782.256	62.42
782.57	62.38
782.883	62.46
783.196	62.4
783.51	62.17
783.823	61.76
784.136	62.61
784.449	62.81
784.762	62.86
785.075	62.88
785.388	63.06
785.701	63.2
786.014	63
786.327	62.58
786.64	63.27
786.953	63.35
787.266	63.64
787.578	63.76
787.891	63.84
788.204	63.61
788.516	63.69
788.829	63.19
789.141	63.12
789.454	63.84
789.766	64.07
790.079	64.66
790.391	65.02
790.703	64.36
791.016	64.16
791.328	63.65
791.64	63.74
791.952	63.3
792.264	63.05
792.576	62.43
792.888	62.62
793.2	61.95
793.512	61.98
793.824	61.95
794.136	61.5
794.448	60.9
794.76	60.68
795.071	61.1
795.383	61
795.695	61.13
796.006	60.38
796.318	60.66
796.629	59.91
796.941	59.5
797.252	59.59
797.564	59.72
797.875	60.46
798.186	60.3
798.497	60.28
798.809	60.67
799.12	60.88
799.431	61.18
799.742	61.13
800.053	61.32
800.364	61.11
800.675	61.43
800.986	61.56
801.297	61.86
801.608	61.14
801.918	61.49
802.229	61.36
802.54	61.33
802.851	60.77
803.161	61.69
803.472	61.96
803.782	62.09
804.093	62.29
804.403	61.7
804.714	61.92
805.024	61.78
805.334	61.64
805.645	62.09
805.955	61.7
806.265	61.61
806.575	61.41
806.885	61.48
807.195	61
807.505	61.83
807.815	62.17
808.125	62.38
808.435	62.44
808.745	62.4
809.055	62.18
809.365	62.3
809.674	61.4
809.984	61.4
810.294	61.64
810.603	61.44
810.913	61.84
811.222	62
811.532	62.58
811.841	63.35
812.151	63.24
812.46	63.47
812.769	63.81
813.079	63.97
813.388	64.91
813.697	66.29
814.006	64.95
814.315	64.89
814.624	64.81
814.933	65.31
815.242	65.62
815.551	65.68
815.86	65.76
816.169	66.14
816.478	65.93
816.786	65.52
817.095	65.63
817.404	65.59
817.712	65.08
818.021	64.75
818.33	63.65
818.638	63.26
818.947	63.38
819.255	63.39
819.563	63.28
819.872	62.46
820.18	62.28
820.488	62.61
820.796	62.9
821.105	62.78
821.413	62.47
821.721	62.45
822.029	62.53
822.337	62.48
822.645	62.62
822.953	62.71
823.26	62.97
823.568	62.95
823.876	62.99
824.184	63.08
824.491	63.01
824.799	63.1
825.107	63.1
825.414	63.02
825.722	63.09
826.029	63.23
826.337	63.19
826.644	63.09
826.951	63.01
827.259	62.68
827.566	62.6
827.873	62.4
828.18	62.49
828.488	62.36
828.795	62.7
829.102	62.52
829.409	62.43
829.716	61.93
830.023	61.95
830.329	61.81
830.636	61.68
830.943	61.99
831.25	61.93
831.557	62.04
831.863	61.83
832.17	62.11
832.476	61.66
832.783	62.4
833.089	62.5
833.396	62.78
833.702	62.69
834.009	62.75
834.315	63.59
834.621	63.14
834.928	63.46
835.234	63.05
835.54	62.54
835.846	62.42
836.152	63.02
836.458	63.05
836.764	63.14
837.07	63.06
837.376	62.86
837.682	62.5
837.988	62.84
838.293	62.66
838.599	61.82
838.905	61.66
839.211	61.64
839.516	61.3
839.822	61.69
840.127	62.24
840.433	63.19
840.738	62.73
841.044	64.14
841.349	64.63
841.654	65.2
841.959	66.78
842.265	67.22
842.57	66.32
842.875	66.5
843.18	65.6
843.485	65.59
843.79	64.81
844.095	65.31
844.4	63.73
844.705	64.23
845.01	64.24
845.315	65.21
845.619	63.62
845.924	65.26
846.229	63.24
846.533	62.64
846.838	61.26
847.142	60.61
847.447	57.76
847.751	56.95
848.056	55.03
848.36	54.08
848.664	53.9
848.969	54.5
849.273	54.74
849.577	56.41
849.881	55.27
850.185	56.69
850.489	56.46
850.794	57.13
851.097	58
851.401	57.48
851.705	57.47
852.009	60.15
852.313	59.18
852.617	58.07
852.92	59.74
853.224	59.24
853.528	61.26
853.831	64.01
854.135	64.05
854.438	66.83
854.742	66.85
855.045	66.19
855.349	64.4
855.652	63.13
855.955	62.53
856.259	65.09
856.562	61.48
856.865	63.06
857.168	63.76
857.471	62.85
857.774	64.12
858.077	62.07
858.38	59.38
858.683	58.35
858.986	60.8
859.289	59.11
859.592	60.66
859.894	58.76
860.197	58.89
860.5	58.4
860.802	56.45
861.105	55.57
861.407	55.44
861.71	55.66
862.012	54.63
862.315	53.87
862.617	52.52
862.919	55.49
863.222	53.4
863.524	53.24
863.826	53.14
864.128	53.4
864.43	54.72
864.732	55.93
865.034	56.89
865.336	58.05
865.638	57.17
865.94	58.02
866.242	57.08
866.544	55.65
866.846	55.79
867.147	56.07
867.449	56.17
867.751	55.35
868.052	56.06
868.354	56.95
868.655	58.33
868.957	56.85
869.258	57.18
869.56	58.78
869.861	57.22
870.162	58.91
870.463	56.01
870.765	59.51
871.066	57.79
871.367	56.87
871.668	53.47
871.969	56.02
872.27	54.26
872.571	56.6
872.872	56.12
873.173	54.3
873.473	55.42
873.774	59.2
874.075	62.84
874.376	61.13
874.676	61.21
874.977	59.52
875.277	61.75
875.578	61.4
875.878	60.26
876.179	61.35
876.479	60.55
876.78	62.74
877.08	58.1
877.38	59.23
877.68	59.76
877.981	61.89
878.281	60.49
878.581	60.86
