Data from BA28470_Reflection_00011.txt Node
Date: Mon Nov 18 15:10:16 EST 2019
User: vgr7
Spectrometer: USB2G7710
Scans to average: 3
Trigger mode: 4
Integration Time (sec): 2.000000E-2
Electric dark correction enabled: true
Boxcar width: 10
XAxis mode: Wavelengths
Number of Pixels in Spectrum: 2048
>>>>>Begin Spectral Data<<<<<
177.721	234.46
178.105	414.96
178.488	-1022.27
178.871	239.71
179.254	214.39
179.636	661.95
180.019	-182.85
180.402	166.67
180.785	-1818.92
181.168	-166.56
181.55	-307.17
181.933	221.02
182.316	176.5
182.698	261.93
183.081	125.23
183.463	182.95
183.846	165.2
184.228	120.72
184.611	128.45
184.993	140.91
185.376	225.6
185.758	410.53
186.14	429.46
186.522	353.99
186.904	389.74
187.287	553.72
187.669	323.61
188.051	229.95
188.433	348.06
188.815	617.45
189.197	363.66
189.579	457.96
189.961	678.21
190.342	6533.96
190.724	-1401.93
191.106	5409.86
191.488	2316.78
191.869	-606.78
192.251	-191.64
192.633	-121.4
193.014	-193.19
193.396	-550.25
193.777	-267.33
194.159	-266.47
194.54	-199.91
194.922	-161.92
195.303	-144.7
195.684	-115.06
196.065	-52.44
196.447	-74.63
196.828	-104.93
197.209	-88.32
197.59	-82.92
197.971	-49.93
198.352	-36.06
198.733	-33.72
199.114	-23.17
199.495	-31.42
199.876	-40.65
200.257	-46.09
200.638	-29.9
201.018	-37.68
201.399	-40.93
201.78	-58.56
202.16	-84.91
202.541	-108.5
202.922	-95.72
203.302	-101.22
203.683	-166.63
204.063	-421.46
204.444	-266.25
204.824	-210.7
205.204	-264.81
205.585	-296.4
205.965	-1133.85
206.345	-1216.35
206.725	1732.73
207.106	-3561.87
207.486	746.56
207.866	2622.84
208.246	4657.52
208.626	1331.36
209.006	-2397.14
209.386	-1503.08
209.766	-638.88
210.145	-577.76
210.525	-493.86
210.905	-680.03
211.285	-587.74
211.664	-315.85
212.044	-278.92
212.424	-254.75
212.803	-301.73
213.183	-289.65
213.562	-221.65
213.942	-185.58
214.321	-159.35
214.701	-137.76
215.08	-170.02
215.459	-118.47
215.838	-135.43
216.218	-130.37
216.597	-122.82
216.976	-134.49
217.355	-110.72
217.734	-116.52
218.113	-96.1
218.492	-92.12
218.871	-90.73
219.25	-90.52
219.629	-88.22
220.008	-87.56
220.387	-69.66
220.766	-59.22
221.144	-57.24
221.523	-68.16
221.902	-70.23
222.28	-92.86
222.659	-91.04
223.037	-72.88
223.416	-69.33
223.794	-49.96
224.173	-39.55
224.551	-35.28
224.929	-34.5
225.308	-34.6
225.686	-30.19
226.064	-31
226.442	-31.24
226.821	-23.37
227.199	-21.93
227.577	-22.36
227.955	-18.6
228.333	-24.11
228.711	-20.18
229.089	-14.79
229.467	-14.41
229.845	-14.38
230.222	-9.85
230.6	-5.34
230.978	-5.06
231.356	-4.44
231.733	-4.01
232.111	-4.78
232.488	-3.52
232.866	-2.02
233.243	-2.63
233.621	-2.25
233.998	-0.91
234.376	-0.18
234.753	-1.12
235.13	-1.22
235.508	0.61
235.885	2.76
236.262	2.47
236.639	1.58
237.016	0.11
237.393	1.46
237.77	1.52
238.147	1.55
238.524	1.06
238.901	1.52
239.278	2.55
239.655	3.08
240.032	3.12
240.409	3.39
240.785	3.25
241.162	3.65
241.539	3.47
241.915	3.65
242.292	3.09
242.668	3.24
243.045	3.9
243.421	3.86
243.798	3.55
244.174	3.81
244.551	3.77
244.927	3.56
245.303	3.52
245.679	3.8
246.056	3.9
246.432	3.84
246.808	3.61
247.184	3.25
247.56	3.14
247.936	2.9
248.312	2.73
248.688	2.7
249.064	2.78
249.44	2.7
249.815	2.63
250.191	2.88
250.567	2.85
250.943	2.47
251.318	2.74
251.694	2.45
252.069	2.49
252.445	2.49
252.82	2.69
253.196	2.56
253.571	2.41
253.947	2.05
254.322	2.02
254.697	2.32
255.073	2.19
255.448	2.09
255.823	2.53
256.198	2.78
256.573	3.04
256.948	3.02
257.323	3.25
257.698	3.23
258.073	3.18
258.448	3.14
258.823	3.13
259.198	2.9
259.573	3.04
259.948	3
260.322	3.01
260.697	2.89
261.072	2.78
261.446	2.74
261.821	2.72
262.195	2.85
262.57	2.75
262.944	2.83
263.319	2.93
263.693	2.82
264.067	2.74
264.442	2.63
264.816	2.62
265.19	2.55
265.564	2.58
265.938	2.67
266.313	2.75
266.687	3
267.061	3.31
267.435	3.39
267.809	3.52
268.183	3.58
268.556	3.76
268.93	3.92
269.304	4.01
269.678	4.18
270.051	4.1
270.425	4.15
270.799	4.33
271.172	4.31
271.546	4.15
271.919	4.07
272.293	4.02
272.666	4.02
273.04	4.08
273.413	4.01
273.787	3.92
274.16	3.78
274.533	3.72
274.906	3.59
275.279	3.45
275.653	3.38
276.026	3.21
276.399	3.3
276.772	3.17
277.145	3.04
277.518	2.99
277.891	2.98
278.263	2.82
278.636	2.52
279.009	2.55
279.382	2.78
279.755	2.87
280.127	2.99
280.5	3.04
280.872	3.13
281.245	3.08
281.617	3.13
281.99	3.26
282.362	3.32
282.735	3.16
283.107	3.28
283.479	3.25
283.852	3.28
284.224	3.11
284.596	3.25
284.968	3.44
285.34	3.48
285.713	3.42
286.085	3.56
286.457	3.79
286.829	3.74
287.201	3.87
287.572	3.88
287.944	3.83
288.316	3.79
288.688	3.75
289.06	3.86
289.431	3.95
289.803	4.09
290.175	4.03
290.546	4.14
290.918	4.23
291.289	4.26
291.661	4.42
292.032	4.58
292.403	4.52
292.775	4.51
293.146	4.49
293.517	4.63
293.889	4.63
294.26	4.51
294.631	4.51
295.002	4.28
295.373	4.29
295.744	4.28
296.115	4.35
296.486	4.26
296.857	4.15
297.228	4.12
297.599	3.97
297.97	4.14
298.34	4.2
298.711	4.04
299.082	4.06
299.452	4.15
299.823	4.19
300.194	4.26
300.564	4.17
300.935	4.25
301.305	4.21
301.676	4.22
302.046	4.23
302.416	4.3
302.787	4.31
303.157	4.3
303.527	4.32
303.897	4.33
304.267	4.49
304.637	4.67
305.008	4.7
305.378	4.83
305.748	4.72
306.117	4.65
306.487	4.83
306.857	4.9
307.227	4.86
307.597	4.92
307.967	4.96
308.336	5.01
308.706	5.07
309.076	5.12
309.445	5.14
309.815	5.18
310.184	5.11
310.554	5.44
310.923	5.53
311.293	5.47
311.662	5.44
312.031	5.47
312.401	5.5
312.77	5.63
313.139	5.64
313.508	5.64
313.877	5.71
314.246	5.71
314.616	5.74
314.985	5.68
315.353	5.73
315.722	5.85
316.091	5.89
316.46	5.77
316.829	5.91
317.198	5.93
317.567	5.92
317.935	6.07
318.304	5.87
318.672	5.83
319.041	6.13
319.41	6.17
319.778	6.14
320.147	6.29
320.515	6.23
320.883	6.21
321.252	6.56
321.62	6.76
321.988	6.94
322.357	7.04
322.725	7.16
323.093	7.15
323.461	7.2
323.829	7.26
324.197	7.38
324.565	7.43
324.933	7.57
325.301	7.64
325.669	7.68
326.037	7.8
326.405	7.9
326.772	7.87
327.14	8
327.508	8.14
327.875	8.12
328.243	8.21
328.61	8.18
328.978	8.03
329.346	8.03
329.713	7.83
330.08	7.89
330.448	7.9
330.815	7.7
331.182	7.73
331.55	7.88
331.917	7.98
332.284	7.96
332.651	7.79
333.018	7.84
333.385	7.95
333.752	8.06
334.119	8.07
334.486	8.03
334.853	8.03
335.22	8
335.587	8.04
335.954	8.02
336.32	8.18
336.687	8.37
337.054	8.37
337.42	8.57
337.787	8.59
338.153	8.54
338.52	8.73
338.886	8.6
339.253	8.35
339.619	8.43
339.986	8.44
340.352	8.64
340.718	8.7
341.084	8.67
341.451	8.63
341.817	8.64
342.183	8.69
342.549	8.65
342.915	8.71
343.281	8.73
343.647	8.71
344.013	8.78
344.379	8.58
344.745	8.57
345.11	8.57
345.476	8.59
345.842	8.74
346.208	8.8
346.573	8.91
346.939	9.2
347.304	9.07
347.67	8.96
348.035	8.95
348.401	8.97
348.766	8.99
349.132	9.02
349.497	8.93
349.862	9
350.228	9.07
350.593	9.03
350.958	9.04
351.323	9.18
351.688	9.16
352.053	9.21
352.418	9.19
352.783	9.21
353.148	9.11
353.513	9.11
353.878	9.08
354.243	9.07
354.608	8.98
354.972	8.99
355.337	9.09
355.702	9.05
356.066	9.06
356.431	8.95
356.795	8.9
357.16	8.9
357.524	8.78
357.889	8.77
358.253	8.77
358.618	8.8
358.982	8.75
359.346	8.7
359.71	8.65
360.075	8.69
360.439	8.64
360.803	8.61
361.167	8.49
361.531	8.45
361.895	8.4
362.259	8.39
362.623	8.41
362.987	8.37
363.351	8.35
363.714	8.32
364.078	8.32
364.442	8.2
364.806	8.22
365.169	8.18
365.533	8.1
365.896	8.02
366.26	7.91
366.623	7.78
366.987	7.72
367.35	7.75
367.714	7.63
368.077	7.54
368.44	7.49
368.803	7.44
369.167	7.32
369.53	7.34
369.893	7.28
370.256	7.21
370.619	7.18
370.982	7.15
371.345	7.09
371.708	7.02
372.071	6.99
372.434	6.89
372.797	6.91
373.159	6.97
373.522	6.94
373.885	6.91
374.247	6.89
374.61	6.81
374.973	6.7
375.335	6.67
375.698	6.68
376.06	6.72
376.423	6.73
376.785	6.81
377.147	6.74
377.51	6.68
377.872	6.63
378.234	6.6
378.596	6.52
378.958	6.42
379.321	6.44
379.683	6.45
380.045	6.43
380.407	6.34
380.769	6.2
381.13	6.15
381.492	6.19
381.854	6.17
382.216	6.13
382.578	6.11
382.939	6.02
383.301	5.93
383.663	5.85
384.024	5.82
384.386	5.77
384.747	5.76
385.109	5.74
385.47	5.68
385.832	5.59
386.193	5.63
386.554	5.64
386.916	5.62
387.277	5.56
387.638	5.54
387.999	5.56
388.36	5.54
388.721	5.52
389.082	5.41
389.443	5.35
389.804	5.36
390.165	5.34
390.526	5.35
390.887	5.33
391.248	5.35
391.609	5.33
391.969	5.27
392.33	5.2
392.691	5.18
393.051	5.18
393.412	5.18
393.772	5.1
394.133	5.08
394.493	5.04
394.854	5.04
395.214	5
395.574	4.94
395.935	4.92
396.295	4.86
396.655	4.84
397.015	4.8
397.376	4.77
397.736	4.72
398.096	4.67
398.456	4.67
398.816	4.6
399.176	4.54
399.535	4.51
399.895	4.49
400.255	4.43
400.615	4.41
400.975	4.37
401.334	4.35
401.694	4.33
402.054	4.27
402.413	4.24
402.773	4.22
403.132	4.21
403.492	4.19
403.851	4.19
404.211	4.18
404.57	4.16
404.929	4.16
405.288	4.14
405.648	4.12
406.007	4.09
406.366	4.08
406.725	4.1
407.084	4.07
407.443	4.09
407.802	4.09
408.161	4.04
408.52	4.01
408.879	3.99
409.238	3.96
409.596	3.99
409.955	3.96
410.314	3.94
410.673	3.95
411.031	3.97
411.39	3.93
411.748	3.9
412.107	3.91
412.465	3.9
412.824	3.93
413.182	3.93
413.54	3.93
413.899	3.93
414.257	3.91
414.615	3.88
414.974	3.83
415.332	3.82
415.69	3.81
416.048	3.8
416.406	3.79
416.764	3.78
417.122	3.77
417.48	3.74
417.838	3.74
418.195	3.71
418.553	3.7
418.911	3.72
419.269	3.74
419.626	3.72
419.984	3.71
420.342	3.67
420.699	3.66
421.057	3.66
421.414	3.64
421.772	3.62
422.129	3.63
422.486	3.62
422.844	3.62
423.201	3.62
423.558	3.62
423.915	3.62
424.273	3.62
424.63	3.6
424.987	3.59
425.344	3.58
425.701	3.57
426.058	3.57
426.415	3.56
426.772	3.54
427.128	3.52
427.485	3.51
427.842	3.5
428.199	3.5
428.555	3.49
428.912	3.48
429.269	3.49
429.625	3.47
429.982	3.46
430.338	3.46
430.695	3.47
431.051	3.47
431.407	3.47
431.764	3.44
432.12	3.43
432.476	3.43
432.832	3.4
433.189	3.41
433.545	3.39
433.901	3.36
434.257	3.36
434.613	3.38
434.969	3.39
435.325	3.41
435.681	3.41
436.036	3.4
436.392	3.4
436.748	3.4
437.104	3.4
437.459	3.41
437.815	3.42
438.171	3.4
438.526	3.4
438.882	3.4
439.237	3.41
439.593	3.43
439.948	3.42
440.304	3.47
440.659	3.47
441.014	3.49
441.369	3.5
441.725	3.5
442.08	3.49
442.435	3.48
442.79	3.45
443.145	3.45
443.5	3.45
443.855	3.44
444.21	3.42
444.565	3.43
444.92	3.43
445.275	3.39
445.629	3.39
445.984	3.38
446.339	3.37
446.693	3.35
447.048	3.34
447.403	3.33
447.757	3.3
448.112	3.28
448.466	3.26
448.82	3.24
449.175	3.24
449.529	3.24
449.883	3.22
450.238	3.22
450.592	3.23
450.946	3.22
451.3	3.23
451.654	3.25
452.008	3.23
452.362	3.23
452.716	3.23
453.07	3.25
453.424	3.24
453.778	3.23
454.132	3.22
454.486	3.23
454.839	3.25
455.193	3.24
455.547	3.25
455.9	3.27
456.254	3.29
456.607	3.27
456.961	3.27
457.314	3.29
457.668	3.3
458.021	3.28
458.375	3.29
458.728	3.3
459.081	3.29
459.434	3.29
459.787	3.29
460.141	3.29
460.494	3.28
460.847	3.29
461.2	3.29
461.553	3.3
461.906	3.3
462.259	3.31
462.611	3.33
462.964	3.34
463.317	3.34
463.67	3.34
464.022	3.35
464.375	3.35
464.728	3.35
465.08	3.35
465.433	3.36
465.785	3.37
466.138	3.36
466.49	3.37
466.843	3.37
467.195	3.37
467.547	3.39
467.899	3.4
468.252	3.38
468.604	3.41
468.956	3.41
469.308	3.42
469.66	3.4
470.012	3.4
470.364	3.41
470.716	3.4
471.068	3.4
471.42	3.41
471.772	3.43
472.123	3.44
472.475	3.45
472.827	3.47
473.178	3.48
473.53	3.47
473.882	3.46
474.233	3.48
474.585	3.48
474.936	3.49
475.288	3.5
475.639	3.53
475.99	3.53
476.342	3.54
476.693	3.53
477.044	3.54
477.395	3.55
477.746	3.54
478.097	3.53
478.448	3.53
478.8	3.52
479.15	3.5
479.501	3.48
479.852	3.49
480.203	3.47
480.554	3.47
480.905	3.47
481.255	3.48
481.606	3.48
481.957	3.5
482.307	3.5
482.658	3.51
483.009	3.5
483.359	3.49
483.709	3.5
484.06	3.5
484.41	3.5
484.761	3.5
485.111	3.49
485.461	3.5
485.811	3.5
486.162	3.5
486.512	3.52
486.862	3.53
487.212	3.52
487.562	3.53
487.912	3.53
488.262	3.54
488.612	3.55
488.961	3.54
489.311	3.55
489.661	3.55
490.011	3.55
490.36	3.56
490.71	3.57
491.06	3.57
491.409	3.59
491.759	3.59
492.108	3.6
492.458	3.61
492.807	3.61
493.157	3.63
493.506	3.65
493.855	3.65
494.204	3.66
494.554	3.66
494.903	3.67
495.252	3.67
495.601	3.67
495.95	3.7
496.299	3.71
496.648	3.71
496.997	3.74
497.346	3.77
497.695	3.79
498.043	3.81
498.392	3.83
498.741	3.83
499.09	3.86
499.438	3.88
499.787	3.92
500.135	3.97
500.484	3.99
500.832	4.03
501.181	4.04
501.529	4.07
501.878	4.1
502.226	4.17
502.574	4.23
502.923	4.27
503.271	4.3
503.619	4.35
503.967	4.38
504.315	4.4
504.663	4.45
505.011	4.5
505.359	4.54
505.707	4.58
506.055	4.62
506.403	4.68
506.751	4.74
507.098	4.76
507.446	4.8
507.794	4.84
508.141	4.89
508.489	4.95
508.837	5.02
509.184	5.11
509.531	5.14
509.879	5.19
510.226	5.25
510.574	5.31
510.921	5.37
511.268	5.44
511.616	5.49
511.963	5.54
512.31	5.6
512.657	5.68
513.004	5.75
513.351	5.83
513.698	5.9
514.045	5.95
514.392	6.04
514.739	6.12
515.086	6.2
515.432	6.29
515.779	6.37
516.126	6.45
516.473	6.52
516.819	6.58
517.166	6.67
517.512	6.73
517.859	6.79
518.205	6.85
518.552	6.91
518.898	6.99
519.245	7.07
519.591	7.12
519.937	7.17
520.283	7.24
520.629	7.34
520.976	7.44
521.322	7.54
521.668	7.63
522.014	7.73
522.36	7.84
522.706	7.94
523.052	8.06
523.398	8.17
523.743	8.27
524.089	8.4
524.435	8.52
524.781	8.66
525.126	8.78
525.472	8.89
525.817	8.99
526.163	9.08
526.509	9.17
526.854	9.28
527.199	9.37
527.545	9.43
527.89	9.49
528.235	9.57
528.581	9.64
528.926	9.74
529.271	9.84
529.616	9.91
529.961	9.99
530.306	10.08
530.651	10.19
530.996	10.32
531.341	10.42
531.686	10.54
532.031	10.65
532.376	10.77
532.721	10.91
533.065	11.05
533.41	11.2
533.755	11.34
534.099	11.49
534.444	11.64
534.788	11.82
535.133	11.99
535.477	12.14
535.822	12.31
536.166	12.49
536.51	12.68
536.855	12.92
537.199	13.14
537.543	13.38
537.887	13.6
538.231	13.82
538.576	14.07
538.92	14.27
539.264	14.48
539.608	14.69
539.951	14.87
540.295	15.05
540.639	15.23
540.983	15.42
541.327	15.6
541.671	15.78
542.014	15.97
542.358	16.16
542.701	16.34
543.045	16.52
543.389	16.71
543.732	16.9
544.075	17.07
544.419	17.27
544.762	17.46
545.105	17.67
545.449	17.9
545.792	18.16
546.135	18.44
546.478	18.73
546.821	19
547.165	19.3
547.508	19.6
547.851	19.89
548.194	20.17
548.536	20.48
548.879	20.81
549.222	21.13
549.565	21.45
549.908	21.82
550.25	22.19
550.593	22.52
550.936	22.84
551.278	23.22
551.621	23.56
551.963	23.94
552.306	24.28
552.648	24.6
552.991	24.92
553.333	25.26
553.675	25.57
554.017	25.94
554.36	26.23
554.702	26.58
555.044	26.94
555.386	27.31
555.728	27.66
556.07	28.01
556.412	28.37
556.754	28.69
557.096	29.03
557.438	29.36
557.78	29.68
558.121	30.03
558.463	30.37
558.805	30.75
559.147	31.1
559.488	31.46
559.83	31.79
560.171	32.13
560.513	32.48
560.854	32.83
561.196	33.12
561.537	33.53
561.878	33.87
562.22	34.21
562.561	34.56
562.902	34.85
563.243	35.13
563.584	35.41
563.925	35.72
564.266	36.06
564.607	36.37
564.948	36.72
565.289	37.08
565.63	37.31
565.971	37.63
566.312	37.94
566.653	38.18
566.993	38.43
567.334	38.69
567.675	38.95
568.015	39.25
568.356	39.59
568.696	39.83
569.037	40.06
569.377	40.29
569.718	40.56
570.058	40.87
570.398	41.16
570.739	41.44
571.079	41.69
571.419	41.91
571.759	42.13
572.099	42.38
572.439	42.66
572.779	42.9
573.119	43.1
573.459	43.34
573.799	43.64
574.139	43.91
574.479	44.19
574.819	44.44
575.158	44.66
575.498	44.87
575.838	45.12
576.177	45.37
576.517	45.62
576.856	45.79
577.196	45.99
577.535	46.21
577.875	46.49
578.214	46.73
578.553	47.02
578.893	47.26
579.232	47.49
579.571	47.64
579.91	47.95
580.25	48.21
580.589	48.36
580.928	48.57
581.267	48.81
581.606	48.99
581.945	49.12
582.283	49.18
582.622	49.34
582.961	49.61
583.3	49.77
583.639	49.99
583.977	50.22
584.316	50.38
584.654	50.59
584.993	50.67
585.332	50.87
585.67	51.01
586.008	51.21
586.347	51.36
586.685	51.55
587.024	51.65
587.362	51.79
587.7	51.93
588.038	52.05
588.376	52.17
588.715	52.23
589.053	52.35
589.391	52.59
589.729	52.77
590.067	52.79
590.404	52.93
590.742	53
591.08	53.16
591.418	53.35
591.756	53.5
592.093	53.66
592.431	53.81
592.769	53.94
593.106	54.04
593.444	54.21
593.781	54.3
594.119	54.48
594.456	54.51
594.793	54.69
595.131	54.8
595.468	54.86
595.805	54.97
596.143	55.12
596.48	55.17
596.817	55.23
597.154	55.35
597.491	55.49
597.828	55.67
598.165	55.8
598.502	55.85
598.839	55.94
599.176	56.07
599.512	56.14
599.849	56.19
600.186	56.28
600.523	56.35
600.859	56.46
601.196	56.52
601.532	56.69
601.869	56.74
602.205	56.79
602.542	56.97
602.878	57.03
603.215	57.07
603.551	57.21
603.887	57.25
604.223	57.25
604.56	57.35
604.896	57.38
605.232	57.41
605.568	57.5
605.904	57.49
606.24	57.54
606.576	57.62
606.912	57.79
607.248	57.9
607.583	57.93
607.919	57.96
608.255	58
608.591	58.07
608.926	58.2
609.262	58.26
609.597	58.33
609.933	58.46
610.268	58.6
610.604	58.65
610.939	58.77
611.275	58.86
611.61	58.91
611.945	58.98
612.281	59.01
612.616	59.06
612.951	59.28
613.286	59.43
613.621	59.49
613.956	59.48
614.291	59.44
614.626	59.57
614.961	59.61
615.296	59.65
615.631	59.7
615.966	59.73
616.3	59.73
616.635	59.81
616.97	59.84
617.304	59.76
617.639	59.83
617.973	59.85
618.308	60
618.642	60.06
618.977	60.15
619.311	60.23
619.646	60.3
619.98	60.24
620.314	60.25
620.648	60.35
620.983	60.48
621.317	60.5
621.651	60.57
621.985	60.74
622.319	60.81
622.653	60.92
622.987	60.87
623.321	61.02
623.655	60.99
623.988	61.04
624.322	61.11
624.656	61.1
624.99	61.18
625.323	61.09
625.657	61.12
625.99	61.14
626.324	61.21
626.657	61.21
626.991	61.14
627.324	61.13
627.658	61.11
627.991	61.09
628.324	61.16
628.657	61.14
628.991	61.13
629.324	61.16
629.657	61.11
629.99	61.23
630.323	61.18
630.656	61.25
630.989	61.29
631.322	61.39
631.655	61.48
631.987	61.54
632.32	61.59
632.653	61.54
632.986	61.57
633.318	61.5
633.651	61.55
633.984	61.68
634.316	61.71
634.649	61.66
634.981	61.69
635.313	61.77
635.646	61.82
635.978	61.84
636.31	61.92
636.643	61.88
636.975	61.88
637.307	61.96
637.639	61.96
637.971	61.93
638.303	61.89
638.635	61.94
638.967	61.89
639.299	61.97
639.631	62.03
639.963	62.04
640.295	62.03
640.626	62.04
640.958	62.13
641.29	62.11
641.621	62.27
641.953	62.45
642.285	62.51
642.616	62.54
642.948	62.5
643.279	62.5
643.61	62.61
643.942	62.58
644.273	62.51
644.604	62.5
644.936	62.57
645.267	62.57
645.598	62.59
645.929	62.55
646.26	62.6
646.591	62.62
646.922	62.64
647.253	62.76
647.584	62.76
647.915	62.76
648.245	62.8
648.576	62.79
648.907	62.63
649.238	62.69
649.568	62.64
649.899	62.64
650.229	62.68
650.56	62.65
650.89	62.73
651.221	62.8
651.551	62.8
651.882	62.81
652.212	62.86
652.542	62.82
652.872	63
653.203	63.05
653.533	63.02
653.863	62.98
654.193	62.99
654.523	63.04
654.853	63.13
655.183	63.26
655.513	63.25
655.843	63.33
656.172	63.26
656.502	63.37
656.832	63.58
657.162	63.7
657.491	63.68
657.821	63.63
658.15	63.73
658.48	63.9
658.809	63.94
659.139	63.95
659.468	63.92
659.798	63.91
660.127	63.87
660.456	63.94
660.785	64.01
661.115	63.99
661.444	63.96
661.773	63.81
662.102	63.68
662.431	63.68
662.76	63.67
663.089	63.6
663.418	63.51
663.747	63.49
664.076	63.5
664.404	63.63
664.733	63.67
665.062	63.66
665.39	63.52
665.719	63.45
666.048	63.58
666.376	63.72
666.705	63.58
667.033	63.62
667.362	63.61
667.69	63.64
668.018	63.74
668.347	63.85
668.675	64.1
669.003	64.23
669.331	64.28
669.659	64.28
669.987	64.38
670.315	64.49
670.643	64.43
670.971	64.36
671.299	64.41
671.627	64.4
671.955	64.46
672.283	64.48
672.61	64.48
672.938	64.33
673.266	64.27
673.593	64.37
673.921	64.1
674.249	64.11
674.576	64.2
674.904	64.33
675.231	64.21
675.558	63.94
675.886	63.79
676.213	63.75
676.54	63.8
676.867	63.74
677.195	63.66
677.522	63.75
677.849	63.79
678.176	63.67
678.503	63.84
678.83	63.8
679.157	63.82
679.484	63.92
679.81	64.1
680.137	64.12
680.464	64.17
680.791	64.41
681.117	64.41
681.444	64.36
681.771	64.3
682.097	64.48
682.424	64.72
682.75	64.88
683.077	64.97
683.403	65.06
683.729	65.2
684.056	65.22
684.382	65.21
684.708	65.22
685.034	65.3
685.36	65.28
685.686	65.11
686.012	65.14
686.339	65.15
686.664	64.88
686.99	64.91
687.316	64.89
687.642	64.89
687.968	64.91
688.294	64.82
688.619	64.78
688.945	64.6
689.271	64.49
689.596	64.42
689.922	64.34
690.247	64.22
690.573	64.25
690.898	64.33
691.224	64.26
691.549	64.2
691.874	64.19
692.2	63.98
692.525	64.1
692.85	64.14
693.175	64.04
693.5	64.12
693.825	64.11
694.15	64.05
694.475	63.97
694.8	64.1
695.125	64.09
695.45	64.03
695.775	64.06
696.099	64.17
696.424	64.25
696.749	64.2
697.073	64.34
697.398	64.31
697.723	64.28
698.047	64.26
698.372	64.35
698.696	64.36
699.02	64.51
699.345	64.55
699.669	64.41
699.993	64.51
700.318	64.64
700.642	64.71
700.966	64.76
701.29	64.77
701.614	64.72
701.938	64.92
702.262	65.16
702.586	65.23
702.91	65.07
703.234	65.1
703.557	65.24
703.881	65.19
704.205	65.03
704.529	65.04
704.852	64.99
705.176	64.95
705.499	64.92
705.823	64.97
706.146	65.14
706.47	65.28
706.793	65.15
707.117	65.16
707.44	65.07
707.763	65.14
708.086	65.13
708.409	65.08
708.733	64.92
709.056	64.69
709.379	64.74
709.702	64.68
710.025	64.53
710.348	64.42
710.671	64.31
710.993	64.43
711.316	64.52
711.639	64.68
711.962	64.55
712.284	64.68
712.607	64.54
712.93	64.45
713.252	64.48
713.575	64.62
713.897	64.51
714.22	64.23
714.542	64.3
714.864	64.4
715.187	64.3
715.509	64.27
715.831	64.45
716.153	64.54
716.475	64.63
716.798	64.93
717.12	64.89
717.442	65.05
717.764	65.16
718.085	65.27
718.407	65.2
718.729	65.4
719.051	65.22
719.373	65.11
719.695	65.23
720.016	65.1
720.338	65.25
720.659	65.43
720.981	65.7
721.302	65.64
721.624	65.61
721.945	65.83
722.267	66.13
722.588	65.94
722.909	65.66
723.231	65.57
723.552	65.37
723.873	65.59
724.194	65.48
724.515	65.28
724.836	65.2
725.157	65.35
725.478	65.2
725.799	65.32
726.12	65.55
726.441	65.53
726.762	65.54
727.083	65.17
727.403	65.17
727.724	65.19
728.045	65.27
728.365	65.2
728.686	65.18
729.006	64.94
729.327	64.98
729.647	65.16
729.967	65.22
730.288	65.14
730.608	65.08
730.928	65
731.249	64.83
731.569	64.98
731.889	64.83
732.209	64.79
732.529	64.9
732.849	64.56
733.169	64.57
733.489	64.73
733.809	64.79
734.129	64.77
734.448	64.84
734.768	64.53
735.088	64.76
735.408	64.72
735.727	64.88
736.047	64.74
736.366	64.48
736.686	64.44
737.005	64.69
737.325	64.36
737.644	64.45
737.963	64.95
738.283	64.65
738.602	64.66
738.921	64.71
739.24	64.57
739.56	64.91
739.879	64.89
740.198	64.87
740.517	64.94
740.836	64.89
741.155	64.82
741.473	64.84
741.792	64.67
742.111	64.56
742.43	64.43
742.748	64.59
743.067	65.12
743.386	65.09
743.704	64.79
744.023	65.21
744.341	65.13
744.66	64.9
744.978	64.91
745.297	64.91
745.615	64.89
745.933	64.88
746.252	64.7
746.57	64.85
746.888	64.55
747.206	64.64
747.524	64.83
747.842	64.78
748.16	65.03
748.478	64.94
748.796	65.16
749.114	65.45
749.432	65.25
749.749	64.97
750.067	65.01
750.385	65.04
750.703	64.84
751.02	65
751.338	64.98
751.655	65
751.973	64.95
752.29	64.88
752.608	64.78
752.925	64.84
753.242	64.7
753.56	64.77
753.877	64.48
754.194	64.15
754.511	64.28
754.828	64.25
755.145	64.14
755.462	63.69
755.779	63.28
756.096	63.38
756.413	63.06
756.73	63.15
757.047	63.25
757.364	63.39
757.68	63.26
757.997	63.17
758.314	63.31
758.63	63.39
758.947	63.61
759.264	63.95
759.58	64.1
759.896	64.04
760.213	64.26
760.529	64.33
760.846	64.67
761.162	64.76
761.478	64.75
761.794	65.18
762.11	65.32
762.426	65.62
762.743	65.73
763.059	65.7
763.375	65.64
763.69	65.47
764.006	65.58
764.322	65.81
764.638	65.82
764.954	65.6
765.27	65.58
765.585	65.77
765.901	65.56
766.216	65.51
766.532	65.69
766.848	65.43
767.163	65.46
767.478	65.38
767.794	65.23
768.109	65.2
768.424	65.19
768.74	65.43
769.055	65.38
769.37	65.41
769.685	65.59
770	65.67
770.315	65.74
770.63	65.76
770.945	65.95
771.26	66.33
771.575	66.72
771.89	66.98
772.205	66.34
772.52	66.06
772.834	66.04
773.149	65.85
773.464	66.12
773.778	66.21
774.093	66.15
774.407	66.68
774.722	66.97
775.036	66.88
775.351	66.65
775.665	66.35
775.979	66.15
776.293	66.27
776.608	66.24
776.922	66.57
777.236	66.52
777.55	65.78
777.864	65.49
778.178	65.48
778.492	65
778.806	65.32
779.12	66.04
779.434	65.89
779.747	66.1
780.061	66.5
780.375	66.15
780.689	66.04
781.002	65.37
781.316	65.06
781.629	64.72
781.943	64.79
782.256	64.63
782.57	64.72
782.883	64.46
783.196	64.84
783.51	64.34
783.823	64.56
784.136	64.57
784.449	64.03
784.762	63.77
785.075	64
785.388	63.53
785.701	63.37
786.014	63.32
786.327	62.36
786.64	61.76
786.953	62.33
787.266	62.2
787.578	62.45
787.891	62.79
788.204	62.98
788.516	63.26
788.829	63.64
789.141	63.58
789.454	64.09
789.766	63.95
790.079	64.34
790.391	63.87
790.703	63.96
791.016	64.37
791.328	64.15
791.64	64.08
791.952	64.57
792.264	63.95
792.576	64.39
792.888	65.2
793.2	65.13
793.512	65.03
793.824	64.88
794.136	64.8
794.448	64.66
794.76	64.25
795.071	64.48
795.383	64.39
795.695	64.35
796.006	63.96
796.318	63.81
796.629	64.07
796.941	64.15
797.252	64.68
797.564	64.66
797.875	64.73
798.186	64.72
798.497	64.7
798.809	65.31
799.12	65.27
799.431	65.34
799.742	65.82
800.053	65.84
800.364	66.89
800.675	66.58
800.986	66.8
801.297	66.79
801.608	66.77
801.918	66.1
802.229	66.07
802.54	66.12
802.851	66.67
803.161	65.87
803.472	65.91
803.782	65.58
804.093	65.83
804.403	64.88
804.714	64.75
805.024	64.33
805.334	64.4
805.645	64.4
805.955	63.87
806.265	63.53
806.575	62.92
806.885	62.32
807.195	62.83
807.505	62.48
807.815	62.82
808.125	62.13
808.435	62.68
808.745	62.82
809.055	63.2
809.365	62.99
809.674	62.96
809.984	63.28
810.294	63.6
810.603	63.65
810.913	64.55
811.222	64.51
811.532	65.23
811.841	65.21
812.151	65.52
812.46	66.05
812.769	66.08
813.079	66.86
813.388	67.11
813.697	67
814.006	67.42
814.315	66.94
814.624	67.03
814.933	66.72
815.242	65.72
815.551	65.5
815.86	65.07
816.169	65.48
816.478	64.96
816.786	64.6
817.095	64.06
817.404	64.4
817.712	64.93
818.021	65.29
818.33	65.15
818.638	65.37
818.947	65.33
819.255	65.29
819.563	65.63
819.872	65.79
820.18	65.91
820.488	65.45
820.796	65.89
821.105	65.81
821.413	66.17
821.721	66.51
822.029	66.54
822.337	66.7
822.645	66.65
822.953	66.71
823.26	66.77
823.568	67.11
823.876	67.18
824.184	67.09
824.491	67.14
824.799	67.37
825.107	67.26
825.414	67.16
825.722	67.13
826.029	67.05
826.337	66.93
826.644	66.8
826.951	67.1
827.259	66.82
827.566	66.92
827.873	66.76
828.18	66.85
828.488	66.78
828.795	66.76
829.102	66.93
829.409	67.01
829.716	66.65
830.023	66.19
830.329	65.99
830.636	66.38
830.943	65.96
831.25	65.17
831.557	64.83
831.863	65.3
832.17	65.89
832.476	65.68
832.783	65.46
833.089	65.93
833.396	65.76
833.702	66.08
834.009	66.15
834.315	66.22
834.621	66.4
834.928	66.11
835.234	65.37
835.54	65.37
835.846	65.16
836.152	65.65
836.458	65.5
836.764	65.32
837.07	64.49
837.376	64.39
837.682	65.3
837.988	65.4
838.293	64.46
838.599	63.46
838.905	63.07
839.211	63.13
839.516	62.71
839.822	62.83
840.127	62.34
840.433	61.47
840.738	61.57
841.044	61.3
841.349	60.85
841.654	61.09
841.959	61.13
842.265	61.25
842.57	60.9
842.875	60.23
843.18	60.69
843.485	61.57
843.79	61.02
844.095	58.01
844.4	58.19
844.705	59.79
845.01	60.16
845.315	61.26
845.619	60.87
845.924	59.48
846.229	60.17
846.533	61.19
846.838	62.98
847.142	61.59
847.447	59.77
847.751	60.93
848.056	61.15
848.36	61.16
848.664	60.35
848.969	60.63
849.273	61.63
849.577	60.35
849.881	59.91
850.185	60.51
850.489	62.54
850.794	61.11
851.097	57.58
851.401	57.76
851.705	57.54
852.009	59.15
852.313	60.52
852.617	60.09
852.92	59.55
853.224	56.83
853.528	58.33
853.831	59.25
854.135	60.3
854.438	62.04
854.742	61.15
855.045	61.19
855.349	60.75
855.652	60.74
855.955	62.44
856.259	61.16
856.562	59.61
856.865	62.35
857.168	63.39
857.471	66.05
857.774	68.22
858.077	67.85
858.38	67.43
858.683	65.1
858.986	61.82
859.289	60.71
859.592	63.16
859.894	62.12
860.197	61.7
860.5	60.22
860.802	60.14
861.105	60.81
861.407	61.33
861.71	61.7
862.012	62.74
862.315	60.06
862.617	62.32
862.919	61.13
863.222	59.73
863.524	58.62
863.826	58.19
864.128	58.11
864.43	59.04
864.732	59.01
865.034	60.24
865.336	60
865.638	60.29
865.94	58.88
866.242	58.97
866.544	58.04
866.846	56.86
867.147	56.49
867.449	55.37
867.751	55.54
868.052	54.28
868.354	54.02
868.655	55.76
868.957	54.3
869.258	57.21
869.56	55.89
869.861	58.43
870.162	58.19
870.463	56.91
870.765	55.12
871.066	56.19
871.367	57.38
871.668	60.05
871.969	57.21
872.27	57.03
872.571	58.8
872.872	59.08
873.173	58.77
873.473	58.31
873.774	58.13
874.075	59.1
874.376	57.53
874.676	59.53
874.977	61.06
875.277	61.6
875.578	60.97
875.878	61.89
876.179	60.82
876.479	61.56
876.78	60.59
877.08	61.4
877.38	59.1
877.68	58.73
877.981	56.73
878.281	62.26
878.581	63.99
