Data from BA28415_Reflection_00014.txt Node
Date: Mon Nov 18 16:02:38 EST 2019
User: vgr7
Spectrometer: USB2G7710
Scans to average: 3
Trigger mode: 4
Integration Time (sec): 2.000000E-2
Electric dark correction enabled: true
Boxcar width: 10
XAxis mode: Wavelengths
Number of Pixels in Spectrum: 2048
>>>>>Begin Spectral Data<<<<<
177.721	-73.53
178.105	-178.03
178.488	-131.45
178.871	-127.27
179.254	20.71
179.636	23.91
180.019	-128.11
180.402	75
180.785	108.64
181.168	19.53
181.55	-28.96
181.933	52.06
182.316	75.64
182.698	75.29
183.081	66.27
183.463	68.71
183.846	54.14
184.228	52.72
184.611	31.45
184.993	28.45
185.376	-6.59
185.758	-2.12
186.14	-55.39
186.522	-42.53
186.904	-39.91
187.287	-0.04
187.669	-28.69
188.051	44.51
188.433	27.8
188.815	-43.88
189.197	-4.63
189.579	-52.15
189.961	-61.42
190.342	-22.56
190.724	31.61
191.106	16.98
191.488	-11.75
191.869	-51.08
192.251	-64.63
192.633	-21.87
193.014	7.26
193.396	-17.58
193.777	-18
194.159	-31.23
194.54	-30.53
194.922	-23.29
195.303	-15.96
195.684	-40.04
196.065	10.78
196.447	9.71
196.828	-24.39
197.209	-31.61
197.59	179.21
197.971	93.04
198.352	92.82
198.733	-41.59
199.114	8.61
199.495	45.95
199.876	-231.95
200.257	-648.2
200.638	609.09
201.018	-331.1
201.399	-353.99
201.78	383.87
202.16	94.46
202.541	31.79
202.922	113.88
203.302	148.18
203.683	144.93
204.063	156.86
204.444	170.47
204.824	109.1
205.204	124.67
205.585	736.77
205.965	204.43
206.345	136.8
206.725	98.14
207.106	150.93
207.486	157.01
207.866	164.19
208.246	400.23
208.626	204.29
209.006	816.98
209.386	449.47
209.766	471.49
210.145	-2745.07
210.525	-3814.89
210.905	-118.88
211.285	-9.65
211.664	-29.78
212.044	-11.53
212.424	-48.03
212.803	-45.37
213.183	-23.1
213.562	-53
213.942	-25.37
214.321	-35.06
214.701	-61.12
215.08	-57.46
215.459	-38.36
215.838	-51.99
216.218	-46.24
216.597	-22.69
216.976	-18.2
217.355	-25.8
217.734	-7.98
218.113	-11.15
218.492	-24.88
218.871	-27.72
219.25	-38.12
219.629	-53.22
220.008	-108.3
220.387	-64.22
220.766	-74.3
221.144	-247.07
221.523	-394.98
221.902	1517.72
222.28	-247.35
222.659	-62.37
223.037	-42.54
223.416	-26.45
223.794	-34.88
224.173	-73.28
224.551	-73.12
224.929	-74.67
225.308	-38.73
225.686	-34.84
226.064	-23.67
226.442	-16.68
226.821	-12.9
227.199	-10.61
227.577	-15.22
227.955	-11.8
228.333	-11.67
228.711	-8.35
229.089	-4.53
229.467	-6.7
229.845	-10.76
230.222	-8.64
230.6	-11.12
230.978	-12.25
231.356	-10.62
231.733	-7.82
232.111	-4.27
232.488	-3.83
232.866	0.77
233.243	0.65
233.621	-1.43
233.998	-0.62
234.376	-1.16
234.753	0.46
235.13	0.31
235.508	3.12
235.885	4.08
236.262	4.75
236.639	4.17
237.016	4.34
237.393	6.98
237.77	8.85
238.147	9.87
238.524	9.69
238.901	9.89
239.278	9.52
239.655	9.2
240.032	9.08
240.409	8.99
240.785	8.2
241.162	8.23
241.539	9.06
241.915	8.83
242.292	8.48
242.668	8.53
243.045	8.75
243.421	8.69
243.798	8.4
244.174	8.17
244.551	8.15
244.927	8.32
245.303	8.48
245.679	8.16
246.056	7.87
246.432	7.98
246.808	7.95
247.184	7.82
247.56	7.81
247.936	7.84
248.312	8.01
248.688	8.21
249.064	8.1
249.44	7.92
249.815	8.01
250.191	8.21
250.567	7.95
250.943	7.78
251.318	7.95
251.694	7.85
252.069	7.75
252.445	7.8
252.82	7.59
253.196	7.39
253.571	7.57
253.947	7.69
254.322	7.76
254.697	7.56
255.073	7.55
255.448	7.41
255.823	7.3
256.198	7.28
256.573	7.1
256.948	6.96
257.323	7.05
257.698	7
258.073	6.95
258.448	6.82
258.823	6.9
259.198	6.7
259.573	6.79
259.948	6.82
260.322	6.82
260.697	6.88
261.072	6.83
261.446	6.94
261.821	6.94
262.195	7
262.57	7
262.944	7.08
263.319	7.13
263.693	7.06
264.067	6.98
264.442	7
264.816	7.1
265.19	6.96
265.564	6.88
265.938	6.77
266.313	6.85
266.687	6.85
267.061	6.9
267.435	7.13
267.809	7.11
268.183	6.98
268.556	6.79
268.93	6.76
269.304	6.66
269.678	6.81
270.051	6.78
270.425	6.82
270.799	6.71
271.172	6.65
271.546	6.64
271.919	6.62
272.293	6.62
272.666	6.78
273.04	6.83
273.413	6.92
273.787	7.07
274.16	7.1
274.533	7.07
274.906	6.97
275.279	6.65
275.653	6.66
276.026	6.74
276.399	6.89
276.772	7.06
277.145	7.17
277.518	7.03
277.891	7.02
278.263	7.08
278.636	7.18
279.009	7.22
279.382	7.37
279.755	7.32
280.127	7.43
280.5	7.42
280.872	7.48
281.245	7.32
281.617	7.44
281.99	7.5
282.362	7.56
282.735	7.7
283.107	7.85
283.479	7.92
283.852	7.92
284.224	7.84
284.596	7.65
284.968	7.6
285.34	7.78
285.713	7.78
286.085	7.97
286.457	8.02
286.829	8.06
287.201	8.06
287.572	8.16
287.944	8.19
288.316	8.04
288.688	8.03
289.06	8.19
289.431	8.14
289.803	8.15
290.175	8.16
290.546	8.38
290.918	8.42
291.289	8.47
291.661	8.5
292.032	8.62
292.403	8.87
292.775	8.97
293.146	8.97
293.517	8.97
293.889	8.87
294.26	8.98
294.631	9.15
295.002	9.38
295.373	9.43
295.744	9.48
296.115	9.58
296.486	9.64
296.857	9.73
297.228	9.87
297.599	9.75
297.97	9.74
298.34	9.69
298.711	9.87
299.082	9.91
299.452	9.98
299.823	10.13
300.194	10.18
300.564	10.2
300.935	10.24
301.305	10.31
301.676	10.45
302.046	10.54
302.416	10.58
302.787	10.6
303.157	10.67
303.527	10.76
303.897	11.02
304.267	11.2
304.637	11.2
305.008	11.17
305.378	11.34
305.748	11.47
306.117	11.61
306.487	11.6
306.857	11.63
307.227	11.78
307.597	11.68
307.967	11.71
308.336	11.81
308.706	11.91
309.076	12.11
309.445	12.15
309.815	12.07
310.184	12.06
310.554	12.03
310.923	12.16
311.293	12.06
311.662	12.08
312.031	12.12
312.401	12.15
312.77	12.3
313.139	12.48
313.508	12.62
313.877	12.51
314.246	12.57
314.616	12.59
314.985	12.68
315.353	12.85
315.722	12.92
316.091	12.93
316.46	12.91
316.829	13.01
317.198	13.18
317.567	13.3
317.935	13.45
318.304	13.56
318.672	13.34
319.041	13.61
319.41	13.63
319.778	13.61
320.147	13.8
320.515	13.8
320.883	13.79
321.252	13.88
321.62	14.12
321.988	14.18
322.357	14.36
322.725	14.33
323.093	14.42
323.461	14.55
323.829	14.74
324.197	14.99
324.565	15.05
324.933	15.12
325.301	15.17
325.669	15.05
326.037	15.06
326.405	15.32
326.772	15.36
327.14	15.31
327.508	15.47
327.875	15.48
328.243	15.7
328.61	15.71
328.978	15.66
329.346	15.64
329.713	15.65
330.08	15.71
330.448	15.78
330.815	15.87
331.182	15.82
331.55	15.83
331.917	15.79
332.284	15.85
332.651	15.92
333.018	16.1
333.385	16.31
333.752	16.5
334.119	16.55
334.486	16.55
334.853	16.65
335.22	16.57
335.587	16.61
335.954	16.53
336.32	16.74
336.687	16.9
337.054	16.92
337.42	16.93
337.787	16.96
338.153	16.89
338.52	16.87
338.886	16.9
339.253	16.97
339.619	17.03
339.986	17.06
340.352	17.1
340.718	17.03
341.084	17.12
341.451	17.03
341.817	17.03
342.183	17.09
342.549	17.14
342.915	17.29
343.281	17.35
343.647	17.35
344.013	17.2
344.379	17.07
344.745	17.13
345.11	17.12
345.476	17.2
345.842	17.3
346.208	17.42
346.573	17.47
346.939	17.53
347.304	17.49
347.67	17.47
348.035	17.42
348.401	17.45
348.766	17.36
349.132	17.38
349.497	17.39
349.862	17.38
350.228	17.38
350.593	17.28
350.958	17.26
351.323	17.35
351.688	17.44
352.053	17.55
352.418	17.66
352.783	17.83
353.148	17.75
353.513	17.84
353.878	17.82
354.243	17.87
354.608	17.77
354.972	17.86
355.337	17.85
355.702	17.77
356.066	17.85
356.431	17.78
356.795	17.85
357.16	17.9
357.524	17.86
357.889	17.9
358.253	17.86
358.618	17.86
358.982	17.77
359.346	17.79
359.71	17.77
360.075	17.71
360.439	17.73
360.803	17.81
361.167	17.75
361.531	17.62
361.895	17.57
362.259	17.64
362.623	17.57
362.987	17.56
363.351	17.61
363.714	17.58
364.078	17.54
364.442	17.51
364.806	17.43
365.169	17.44
365.533	17.41
365.896	17.5
366.26	17.46
366.623	17.47
366.987	17.4
367.35	17.37
367.714	17.33
368.077	17.17
368.44	17.09
368.803	17.06
369.167	17.1
369.53	17.07
369.893	17.02
370.256	17
370.619	16.92
370.982	16.87
371.345	16.78
371.708	16.84
372.071	16.81
372.434	16.8
372.797	16.71
373.159	16.63
373.522	16.59
373.885	16.62
374.247	16.55
374.61	16.54
374.973	16.48
375.335	16.46
375.698	16.51
376.06	16.44
376.423	16.44
376.785	16.5
377.147	16.46
377.51	16.38
377.872	16.35
378.234	16.38
378.596	16.31
378.958	16.27
379.321	16.22
379.683	16.15
380.045	16.08
380.407	16.06
380.769	15.98
381.13	15.9
381.492	15.83
381.854	15.81
382.216	15.77
382.578	15.76
382.939	15.7
383.301	15.58
383.663	15.51
384.024	15.42
384.386	15.32
384.747	15.31
385.109	15.29
385.47	15.18
385.832	15.07
386.193	15.07
386.554	15.04
386.916	14.98
387.277	14.91
387.638	14.91
387.999	14.87
388.36	14.84
388.721	14.83
389.082	14.76
389.443	14.73
389.804	14.7
390.165	14.67
390.526	14.63
390.887	14.61
391.248	14.61
391.609	14.6
391.969	14.59
392.33	14.54
392.691	14.5
393.051	14.46
393.412	14.41
393.772	14.35
394.133	14.33
394.493	14.32
394.854	14.31
395.214	14.22
395.574	14.16
395.935	14.13
396.295	14.03
396.655	13.94
397.015	13.89
397.376	13.84
397.736	13.78
398.096	13.72
398.456	13.68
398.816	13.59
399.176	13.49
399.535	13.4
399.895	13.33
400.255	13.23
400.615	13.19
400.975	13.14
401.334	13.07
401.694	13.03
402.054	12.96
402.413	12.91
402.773	12.84
403.132	12.81
403.492	12.75
403.851	12.75
404.211	12.74
404.57	12.69
404.929	12.66
405.288	12.56
405.648	12.51
406.007	12.48
406.366	12.49
406.725	12.48
407.084	12.43
407.443	12.41
407.802	12.41
408.161	12.39
408.52	12.38
408.879	12.34
409.238	12.3
409.596	12.29
409.955	12.26
410.314	12.28
410.673	12.23
411.031	12.23
411.39	12.2
411.748	12.16
412.107	12.14
412.465	12.13
412.824	12.14
413.182	12.09
413.54	12.03
413.899	11.98
414.257	11.94
414.615	11.92
414.974	11.92
415.332	11.88
415.69	11.83
416.048	11.77
416.406	11.76
416.764	11.69
417.122	11.64
417.48	11.61
417.838	11.56
418.195	11.53
418.553	11.51
418.911	11.48
419.269	11.45
419.626	11.42
419.984	11.36
420.342	11.34
420.699	11.3
421.057	11.25
421.414	11.2
421.772	11.16
422.129	11.14
422.486	11.09
422.844	11.05
423.201	11.02
423.558	11
423.915	10.98
424.273	10.98
424.63	10.95
424.987	10.91
425.344	10.89
425.701	10.87
426.058	10.81
426.415	10.77
426.772	10.71
427.128	10.68
427.485	10.67
427.842	10.63
428.199	10.63
428.555	10.63
428.912	10.61
429.269	10.59
429.625	10.56
429.982	10.53
430.338	10.53
430.695	10.53
431.051	10.52
431.407	10.49
431.764	10.47
432.12	10.45
432.476	10.45
432.832	10.42
433.189	10.4
433.545	10.41
433.901	10.4
434.257	10.43
434.613	10.45
434.969	10.44
435.325	10.45
435.681	10.47
436.036	10.48
436.392	10.47
436.748	10.46
437.104	10.49
437.459	10.48
437.815	10.46
438.171	10.45
438.526	10.44
438.882	10.45
439.237	10.41
439.593	10.41
439.948	10.42
440.304	10.42
440.659	10.43
441.014	10.41
441.369	10.41
441.725	10.39
442.08	10.35
442.435	10.33
442.79	10.32
443.145	10.3
443.5	10.29
443.855	10.3
444.21	10.28
444.565	10.25
444.92	10.23
445.275	10.23
445.629	10.21
445.984	10.17
446.339	10.15
446.693	10.14
447.048	10.11
447.403	10.09
447.757	10.05
448.112	10
448.466	9.98
448.82	9.96
449.175	9.93
449.529	9.93
449.883	9.89
450.238	9.83
450.592	9.79
450.946	9.74
451.3	9.72
451.654	9.7
452.008	9.66
452.362	9.62
452.716	9.6
453.07	9.59
453.424	9.59
453.778	9.57
454.132	9.55
454.486	9.54
454.839	9.54
455.193	9.55
455.547	9.6
455.9	9.61
456.254	9.63
456.607	9.66
456.961	9.65
457.314	9.69
457.668	9.72
458.021	9.71
458.375	9.74
458.728	9.74
459.081	9.76
459.434	9.79
459.787	9.81
460.141	9.82
460.494	9.82
460.847	9.85
461.2	9.85
461.553	9.89
461.906	9.92
462.259	9.93
462.611	9.97
462.964	9.98
463.317	9.99
463.67	10
464.022	10.01
464.375	10.04
464.728	10.06
465.08	10.1
465.433	10.13
465.785	10.18
466.138	10.19
466.49	10.21
466.843	10.22
467.195	10.26
467.547	10.28
467.899	10.3
468.252	10.32
468.604	10.36
468.956	10.38
469.308	10.4
469.66	10.42
470.012	10.47
470.364	10.49
470.716	10.53
471.068	10.55
471.42	10.6
471.772	10.63
472.123	10.63
472.475	10.63
472.827	10.66
473.178	10.65
473.53	10.67
473.882	10.71
474.233	10.77
474.585	10.75
474.936	10.76
475.288	10.76
475.639	10.79
475.99	10.79
476.342	10.78
476.693	10.78
477.044	10.8
477.395	10.76
477.746	10.75
478.097	10.75
478.448	10.75
478.8	10.73
479.15	10.72
479.501	10.75
479.852	10.72
480.203	10.73
480.554	10.72
480.905	10.74
481.255	10.7
481.606	10.69
481.957	10.69
482.307	10.7
482.658	10.71
483.009	10.69
483.359	10.68
483.709	10.68
484.06	10.67
484.41	10.66
484.761	10.66
485.111	10.66
485.461	10.67
485.811	10.67
486.162	10.66
486.512	10.66
486.862	10.64
487.212	10.65
487.562	10.65
487.912	10.67
488.262	10.65
488.612	10.66
488.961	10.65
489.311	10.66
489.661	10.65
490.011	10.67
490.36	10.67
490.71	10.7
491.06	10.72
491.409	10.73
491.759	10.74
492.108	10.76
492.458	10.79
492.807	10.81
493.157	10.83
493.506	10.88
493.855	10.93
494.204	10.99
494.554	11.03
494.903	11.04
495.252	11.05
495.601	11.13
495.95	11.21
496.299	11.26
496.648	11.33
496.997	11.4
497.346	11.44
497.695	11.52
498.043	11.57
498.392	11.64
498.741	11.72
499.09	11.82
499.438	11.9
499.787	12
500.135	12.08
500.484	12.18
500.832	12.26
501.181	12.35
501.529	12.43
501.878	12.56
502.226	12.71
502.574	12.85
502.923	12.96
503.271	13.07
503.619	13.21
503.967	13.34
504.315	13.46
504.663	13.59
505.011	13.72
505.359	13.87
505.707	14
506.055	14.11
506.403	14.23
506.751	14.35
507.098	14.45
507.446	14.6
507.794	14.71
508.141	14.82
508.489	14.95
508.837	15.09
509.184	15.19
509.531	15.3
509.879	15.41
510.226	15.55
510.574	15.67
510.921	15.79
511.268	15.91
511.616	16.03
511.963	16.15
512.31	16.27
512.657	16.41
513.004	16.53
513.351	16.69
513.698	16.84
514.045	17.01
514.392	17.17
514.739	17.31
515.086	17.47
515.432	17.62
515.779	17.75
516.126	17.87
516.473	18.01
516.819	18.15
517.166	18.28
517.512	18.39
517.859	18.48
518.205	18.61
518.552	18.76
518.898	18.89
519.245	19.04
519.591	19.14
519.937	19.23
520.283	19.37
520.629	19.5
520.976	19.64
521.322	19.77
521.668	19.88
522.014	20.04
522.36	20.18
522.706	20.35
523.052	20.56
523.398	20.76
523.743	20.93
524.089	21.12
524.435	21.29
524.781	21.5
525.126	21.68
525.472	21.84
525.817	21.98
526.163	22.13
526.509	22.24
526.854	22.37
527.199	22.5
527.545	22.6
527.89	22.72
528.235	22.84
528.581	22.94
528.926	23.08
529.271	23.21
529.616	23.32
529.961	23.44
530.306	23.56
530.651	23.7
530.996	23.88
531.341	24.03
531.686	24.2
532.031	24.35
532.376	24.51
532.721	24.67
533.065	24.85
533.41	25.04
533.755	25.23
534.099	25.44
534.444	25.65
534.788	25.86
535.133	26.07
535.477	26.28
535.822	26.53
536.166	26.77
536.51	27.03
536.855	27.33
537.199	27.62
537.543	27.91
537.887	28.2
538.231	28.5
538.576	28.81
538.92	29.11
539.264	29.4
539.608	29.67
539.951	29.93
540.295	30.14
540.639	30.38
540.983	30.61
541.327	30.84
541.671	31.07
542.014	31.29
542.358	31.53
542.701	31.73
543.045	31.94
543.389	32.16
543.732	32.37
544.075	32.6
544.419	32.85
544.762	33.09
545.105	33.34
545.449	33.59
545.792	33.84
546.135	34.12
546.478	34.41
546.821	34.74
547.165	35.08
547.508	35.45
547.851	35.75
548.194	36.07
548.536	36.4
548.879	36.75
549.222	37.07
549.565	37.4
549.908	37.73
550.25	38.12
550.593	38.49
550.936	38.86
551.278	39.19
551.621	39.53
551.963	39.89
552.306	40.22
552.648	40.52
552.991	40.86
553.333	41.18
553.675	41.46
554.017	41.73
554.36	41.97
554.702	42.22
555.044	42.51
555.386	42.85
555.728	43.16
556.07	43.46
556.412	43.77
556.754	44.09
557.096	44.43
557.438	44.68
557.78	44.91
558.121	45.2
558.463	45.56
558.805	45.85
559.147	46.13
559.488	46.43
559.83	46.67
560.171	46.91
560.513	47.18
560.854	47.46
561.196	47.75
561.537	48.03
561.878	48.35
562.22	48.62
562.561	48.81
562.902	49
563.243	49.28
563.584	49.53
563.925	49.8
564.266	50.03
564.607	50.19
564.948	50.49
565.289	50.7
565.63	50.92
565.971	51.15
566.312	51.38
566.653	51.57
566.993	51.87
567.334	52.11
567.675	52.33
568.015	52.55
568.356	52.73
568.696	52.94
569.037	53.08
569.377	53.24
569.718	53.44
570.058	53.68
570.398	53.81
570.739	53.96
571.079	54.15
571.419	54.31
571.759	54.58
572.099	54.73
572.439	54.87
572.779	54.96
573.119	55.07
573.459	55.26
573.799	55.45
574.139	55.59
574.479	55.74
574.819	55.88
575.158	56.02
575.498	56.18
575.838	56.35
576.177	56.44
576.517	56.63
576.856	56.87
577.196	57.02
577.535	57.19
577.875	57.35
578.214	57.43
578.553	57.6
578.893	57.68
579.232	57.8
579.571	57.97
579.91	58.2
580.25	58.29
580.589	58.41
580.928	58.51
581.267	58.58
581.606	58.69
581.945	58.81
582.283	58.93
582.622	59.04
582.961	59.09
583.3	59.25
583.639	59.36
583.977	59.42
584.316	59.53
584.654	59.69
584.993	59.78
585.332	59.86
585.67	59.97
586.008	60.19
586.347	60.3
586.685	60.36
587.024	60.42
587.362	60.58
587.7	60.65
588.038	60.73
588.376	60.84
588.715	60.89
589.053	61.01
589.391	61.2
589.729	61.4
590.067	61.62
590.404	61.74
590.742	61.75
591.08	61.83
591.418	61.91
591.756	61.92
592.093	62.04
592.431	62.15
592.769	62.19
593.106	62.16
593.444	62.28
593.781	62.35
594.119	62.36
594.456	62.38
594.793	62.34
595.131	62.39
595.468	62.39
595.805	62.44
596.143	62.43
596.48	62.38
596.817	62.39
597.154	62.36
597.491	62.45
597.828	62.55
598.165	62.57
598.502	62.64
598.839	62.63
599.176	62.7
599.512	62.73
599.849	62.81
600.186	62.97
600.523	63.01
600.859	63.12
601.196	63.22
601.532	63.36
601.869	63.47
602.205	63.53
602.542	63.67
602.878	63.76
603.215	63.85
603.551	63.92
603.887	63.94
604.223	64
604.56	64.05
604.896	64.16
605.232	64.15
605.568	64.24
605.904	64.37
606.24	64.43
606.576	64.46
606.912	64.56
607.248	64.51
607.583	64.61
607.919	64.64
608.255	64.7
608.591	64.78
608.926	64.87
609.262	64.98
609.597	64.97
609.933	65
610.268	65.01
610.604	65.02
610.939	65.06
611.275	65.06
611.61	65.06
611.945	65.06
612.281	65.17
612.616	65.13
612.951	65.15
613.286	65.1
613.621	65.19
613.956	65.11
614.291	65.16
614.626	65.12
614.961	65.1
615.296	65.12
615.631	65.01
615.966	64.98
616.3	64.93
616.635	64.99
616.97	64.99
617.304	64.99
617.639	65.07
617.973	65.02
618.308	65.05
618.642	65.11
618.977	65.09
619.311	65.21
619.646	65.14
619.98	65.23
620.314	65.37
620.648	65.33
620.983	65.39
621.317	65.51
621.651	65.52
621.985	65.48
622.319	65.52
622.653	65.66
622.987	65.64
623.321	65.74
623.655	65.83
623.988	65.84
624.322	65.86
624.656	65.86
624.99	65.88
625.323	65.99
625.657	66.05
625.99	66.05
626.324	65.92
626.657	66.05
626.991	66
627.324	65.96
627.658	65.98
627.991	66.07
628.324	66.14
628.657	66.13
628.991	66.17
629.324	66.16
629.657	66.16
629.99	66.26
630.323	66.24
630.656	66.22
630.989	66.34
631.322	66.39
631.655	66.46
631.987	66.48
632.32	66.49
632.653	66.44
632.986	66.48
633.318	66.62
633.651	66.6
633.984	66.72
634.316	66.78
634.649	66.79
634.981	66.78
635.313	66.77
635.646	66.85
635.978	66.99
636.31	67.07
636.643	67.13
636.975	67.14
637.307	67.13
637.639	67.06
637.971	66.97
638.303	67.03
638.635	66.99
638.967	67.03
639.299	67.01
639.631	67.16
639.963	67.16
640.295	67.05
640.626	67.11
640.958	67.07
641.29	66.98
641.621	66.99
641.953	66.98
642.285	66.9
642.616	66.88
642.948	66.78
643.279	66.69
643.61	66.66
643.942	66.74
644.273	66.82
644.604	66.93
644.936	66.85
645.267	66.83
645.598	66.9
645.929	66.98
646.26	66.96
646.591	66.87
646.922	66.94
647.253	67.09
647.584	67.08
647.915	67.14
648.245	67.18
648.576	67.22
648.907	67.31
649.238	67.38
649.568	67.37
649.899	67.51
650.229	67.56
650.56	67.52
650.89	67.41
651.221	67.4
651.551	67.35
651.882	67.53
652.212	67.53
652.542	67.42
652.872	67.39
653.203	67.56
653.533	67.39
653.863	67.4
654.193	67.37
654.523	67.45
654.853	67.41
655.183	67.37
655.513	67.4
655.843	67.37
656.172	67.33
656.502	67.37
656.832	67.27
657.162	67.46
657.491	67.42
657.821	67.38
658.15	67.32
658.48	67.41
658.809	67.4
659.139	67.51
659.468	67.57
659.798	67.58
660.127	67.55
660.456	67.71
660.785	67.68
661.115	67.69
661.444	67.66
661.773	67.66
662.102	67.82
662.431	67.87
662.76	67.93
663.089	67.86
663.418	67.93
663.747	68.03
664.076	68.01
664.404	68.06
664.733	68.2
665.062	68.3
665.39	68.25
665.719	68.22
666.048	68.01
666.376	67.99
666.705	67.94
667.033	67.82
667.362	67.87
667.69	67.83
668.018	67.85
668.347	67.85
668.675	67.82
669.003	67.77
669.331	67.79
669.659	67.74
669.987	67.96
670.315	67.84
670.643	67.73
670.971	67.56
671.299	67.61
671.627	67.64
671.955	67.62
672.283	67.65
672.61	67.6
672.938	67.72
673.266	67.83
673.593	67.98
673.921	68.05
674.249	68.01
674.576	68.07
674.904	68.09
675.231	68.03
675.558	68.16
675.886	68.14
676.213	68.08
676.54	68.03
676.867	67.94
677.195	68.09
677.522	68.17
677.849	68.3
678.176	68.31
678.503	68.25
678.83	68.32
679.157	68.29
679.484	68.4
679.81	68.5
680.137	68.52
680.464	68.38
680.791	68.4
681.117	68.4
681.444	68.42
681.771	68.4
682.097	68.43
682.424	68.48
682.75	68.39
683.077	68.39
683.403	68.47
683.729	68.46
684.056	68.43
684.382	68.49
684.708	68.33
685.034	68.29
685.36	68.36
685.686	68.28
686.012	68.2
686.339	68.06
686.664	67.92
686.99	68
687.316	68.06
687.642	68.04
687.968	68
688.294	68.03
688.619	67.92
688.945	68.04
689.271	67.87
689.596	68.1
689.922	68.2
690.247	68.22
690.573	68.35
690.898	68.5
691.224	68.36
691.549	68.46
691.874	68.55
692.2	68.6
692.525	68.8
692.85	68.9
693.175	69
693.5	69.22
693.825	69.14
694.15	69.07
694.475	69.01
694.8	69.1
695.125	69.03
695.45	69.09
695.775	69.15
696.099	69.15
696.424	68.93
696.749	68.89
697.073	68.86
697.398	68.83
697.723	68.64
698.047	68.71
698.372	68.79
698.696	68.74
699.02	68.61
699.345	68.48
699.669	68.63
699.993	68.54
700.318	68.49
700.642	68.44
700.966	68.44
701.29	68.53
701.614	68.58
701.938	68.58
702.262	68.78
702.586	68.64
702.91	68.63
703.234	68.74
703.557	68.77
703.881	68.66
704.205	68.59
704.529	68.73
704.852	68.54
705.176	68.49
705.499	68.65
705.823	68.87
706.146	68.94
706.47	68.73
706.793	68.82
707.117	68.7
707.44	68.59
707.763	68.45
708.086	68.48
708.409	68.34
708.733	68.55
709.056	68.34
709.379	68.49
709.702	68.75
710.025	68.78
710.348	68.78
710.671	68.62
710.993	68.68
711.316	68.44
711.639	68.73
711.962	68.6
712.284	68.46
712.607	68.39
712.93	68.39
713.252	68.42
713.575	68.32
713.897	68.22
714.22	68.27
714.542	68.63
714.864	68.64
715.187	68.73
715.509	68.73
715.831	68.99
716.153	68.82
716.475	68.54
716.798	68.59
717.12	68.57
717.442	68.77
717.764	68.61
718.085	68.73
718.407	68.54
718.729	68.7
719.051	68.63
719.373	68.58
719.695	68.42
720.016	68.43
720.338	68.78
720.659	68.91
720.981	68.89
721.302	68.92
721.624	68.78
721.945	68.68
722.267	68.45
722.588	68.23
722.909	68.27
723.231	68.18
723.552	68.06
723.873	68.02
724.194	68.21
724.515	68.46
724.836	68.48
725.157	68.68
725.478	68.62
725.799	68.64
726.12	68.63
726.441	68.87
726.762	68.81
727.083	68.51
727.403	68.47
727.724	68.52
728.045	68.2
728.365	68.12
728.686	68.17
729.006	68.12
729.327	68.09
729.647	67.9
729.967	68.13
730.288	68.23
730.608	68.3
730.928	68.27
731.249	68.3
731.569	68.51
731.889	68.51
732.209	68.38
732.529	68.17
732.849	68.26
733.169	68.16
733.489	68.39
733.809	68.67
734.129	68.94
734.448	69.27
734.768	69.23
735.088	69.24
735.408	69.37
735.727	69.52
736.047	69.62
736.366	69.79
736.686	69.67
737.005	69.85
737.325	69.77
737.644	69.73
737.963	69.65
738.283	69.44
738.602	69.58
738.921	69.9
739.24	70.18
739.56	70.04
739.879	70.1
740.198	69.97
740.517	69.73
740.836	69.74
741.155	69.11
741.473	69.13
741.792	69.25
742.111	68.99
742.43	68.82
742.748	68.66
743.067	68.89
743.386	68.97
743.704	68.61
744.023	68.82
744.341	68.76
744.66	68.72
744.978	68.72
745.297	68.46
745.615	68.25
745.933	68.26
746.252	68.62
746.57	68.52
746.888	68.2
747.206	68.48
747.524	68.27
747.842	68.75
748.16	69.4
748.478	69.28
748.796	69.52
749.114	69.92
749.432	69.86
749.749	69.74
750.067	69.94
750.385	69.83
750.703	69.71
751.02	69.74
751.338	69.86
751.655	69.87
751.973	70.09
752.29	70.13
752.608	70.45
752.925	70.15
753.242	70.23
753.56	70.2
753.877	70.04
754.194	70.11
754.511	69.93
754.828	69.58
755.145	69.84
755.462	70.16
755.779	69.75
756.096	69.86
756.413	69.91
756.73	69.69
757.047	69.82
757.364	69.48
757.68	69.63
757.997	69.31
758.314	69.33
758.63	69.06
758.947	69.21
759.264	68.66
759.58	68.65
759.896	68.72
760.213	68.88
760.529	68.76
760.846	68.71
761.162	68.98
761.478	68.81
761.794	68.75
762.11	68.62
762.426	69.11
762.743	69.42
763.059	69.28
763.375	69.41
763.69	69.67
764.006	69.89
764.322	69.84
764.638	70.1
764.954	70.29
765.27	70.27
765.585	70.2
765.901	70.48
766.216	70.61
766.532	70.46
766.848	70.9
767.163	71.18
767.478	71.03
767.794	70.88
768.109	71.18
768.424	71.64
768.74	71.58
769.055	71.37
769.37	70.9
769.685	70.87
770	70.66
770.315	70.45
770.63	70.4
770.945	70.39
771.26	70.28
771.575	70.08
771.89	70.47
772.205	70.72
772.52	70.81
772.834	70.81
773.149	71.16
773.464	70.85
773.778	70.78
774.093	71.03
774.407	71.01
774.722	71.06
775.036	70.06
775.351	69.98
775.665	69.63
775.979	69.82
776.293	70.43
776.608	70.5
776.922	70.49
777.236	70.59
777.55	70.04
777.864	70.14
778.178	70.35
778.492	69.8
778.806	69.79
779.12	69.93
779.434	69.62
779.747	69.39
780.061	69.22
780.375	69.41
780.689	69.7
781.002	69.15
781.316	68.96
781.629	69.81
781.943	70.01
782.256	70.57
782.57	70.69
782.883	70.31
783.196	70.13
783.51	70.45
783.823	69.93
784.136	70.65
784.449	70.51
784.762	70.5
785.075	71.23
785.388	71.37
785.701	71.03
786.014	71
786.327	71.14
786.64	71.33
786.953	71.1
787.266	70.51
787.578	71.03
787.891	71.26
788.204	71.37
788.516	71.57
788.829	71.54
789.141	71.65
789.454	72.18
789.766	72.42
790.079	72.12
790.391	72.36
790.703	72.16
791.016	72.15
791.328	72.04
791.64	71.75
791.952	71.88
792.264	72.1
792.576	72.24
792.888	72.35
793.2	72.51
793.512	72.36
793.824	72.27
794.136	71.83
794.448	72.07
794.76	71.27
795.071	71.02
795.383	71.09
795.695	71.09
796.006	70.63
796.318	70.76
796.629	70.78
796.941	70.74
797.252	71.15
797.564	71.4
797.875	71.87
798.186	71.88
798.497	71.61
798.809	71.61
799.12	71.95
799.431	72
799.742	71.69
800.053	71.94
800.364	72.77
800.675	73.37
800.986	72.95
801.297	73.4
801.608	73.56
801.918	72.96
802.229	73.1
802.54	72.92
802.851	72.71
803.161	72.61
803.472	73.44
803.782	73.43
804.093	73.64
804.403	72.96
804.714	72.74
805.024	72.31
805.334	72.33
805.645	71.64
805.955	72.03
806.265	72.83
806.575	71.92
806.885	71.55
807.195	71.23
807.505	71.14
807.815	71.42
808.125	70.65
808.435	70.74
808.745	69.78
809.055	70.31
809.365	70.27
809.674	70.27
809.984	70.09
810.294	70.18
810.603	70.04
810.913	70.23
811.222	70.2
811.532	70.46
811.841	69.68
812.151	70.95
812.46	70.42
812.769	69.97
813.079	70.52
813.388	71.52
813.697	72.21
814.006	72.66
814.315	73.19
814.624	74.07
814.933	74.45
815.242	75.75
815.551	75.4
815.86	75.65
816.169	75.36
816.478	75.14
816.786	74.94
817.095	74.4
817.404	74.45
817.712	75.07
818.021	75.02
818.33	75.94
818.638	74
818.947	74.27
819.255	73.76
819.563	73.69
819.872	72.88
820.18	72.88
820.488	72.11
820.796	71.67
821.105	71.57
821.413	71.91
821.721	71.94
822.029	71.65
822.337	71.68
822.645	71.73
822.953	71.54
823.26	71.47
823.568	71.34
823.876	71.28
824.184	71.12
824.491	70.96
824.799	71.02
825.107	71.34
825.414	71.17
825.722	71.11
826.029	71.17
826.337	71.24
826.644	71.21
826.951	71.67
827.259	71.75
827.566	71.66
827.873	71.3
828.18	71.41
828.488	71.94
828.795	71.68
829.102	71.84
829.409	72.02
829.716	71.85
830.023	72.06
830.329	72.37
830.636	72.71
830.943	73.28
831.25	73.01
831.557	73.31
831.863	72.8
832.17	72.89
832.476	72.73
832.783	72.78
833.089	72.8
833.396	72.62
833.702	72.38
834.009	72.56
834.315	72.52
834.621	71.6
834.928	71.35
835.234	71.41
835.54	71.16
835.846	71.8
836.152	71.76
836.458	71.61
836.764	71.33
837.07	70.96
837.376	70.52
837.682	70.45
837.988	70.07
838.293	70.56
838.599	71.16
838.905	70.83
839.211	70.2
839.516	69.93
839.822	69.68
840.127	70.17
840.433	70.01
840.738	70.61
841.044	71.37
841.349	72.02
841.654	72.15
841.959	72.51
842.265	71.87
842.57	71.67
842.875	72.98
843.18	73.53
843.485	73.82
843.79	73.02
844.095	73.22
844.4	73.07
844.705	73.23
845.01	72.02
845.315	72.33
845.619	72.69
845.924	71.55
846.229	71.96
846.533	70.99
846.838	69.7
847.142	68.26
847.447	67.37
847.751	66.6
848.056	66.18
848.36	65.66
848.664	65.33
848.969	66.66
849.273	66.5
849.577	64.88
849.881	66.55
850.185	68.87
850.489	68.14
850.794	68.88
851.097	70.01
851.401	70.54
851.705	73.49
852.009	74.38
852.313	77.99
852.617	77.82
852.92	78.35
853.224	80.28
853.528	83.86
853.831	82.99
854.135	80.91
854.438	82.56
854.742	81.41
855.045	79.48
855.349	76.98
855.652	76.06
855.955	75.96
856.259	73.48
856.562	73.49
856.865	76.25
857.168	75.5
857.471	73.44
857.774	73.17
858.077	69.03
858.38	67.91
858.683	65.79
858.986	66.66
859.289	66.83
859.592	66.55
859.894	64.74
860.197	67.17
860.5	66.79
860.802	66.87
861.105	68.71
861.407	70.93
861.71	72.13
862.012	71.24
862.315	71.31
862.617	73.02
862.919	70.57
863.222	69.98
863.524	67.94
863.826	67.64
864.128	69.04
864.43	69.86
864.732	73.01
865.034	72
865.336	70.44
865.638	71.08
865.94	70.46
866.242	70.76
866.544	68.2
866.846	68.47
867.147	67.04
867.449	64.16
867.751	62.92
868.052	63.13
868.354	63.59
868.655	65.83
868.957	64.25
869.258	64.33
869.56	60.86
869.861	63.15
870.162	63.97
870.463	61.6
870.765	63.48
871.066	60.78
871.367	64.31
871.668	64.41
871.969	63.25
872.27	63.47
872.571	61.47
872.872	63.54
873.173	64.91
873.473	67.25
873.774	71.85
874.075	71.73
874.376	72.95
874.676	74.29
874.977	72.41
875.277	71.52
875.578	72.2
875.878	74.2
876.179	73.91
876.479	75.01
876.78	76.85
877.08	75.78
877.38	76.91
877.68	73.21
877.981	72.6
878.281	72.97
878.581	75.49
