Data from BA28415_Reflection_00003.txt Node
Date: Mon Nov 18 16:02:08 EST 2019
User: vgr7
Spectrometer: USB2G7710
Scans to average: 3
Trigger mode: 4
Integration Time (sec): 2.000000E-2
Electric dark correction enabled: true
Boxcar width: 10
XAxis mode: Wavelengths
Number of Pixels in Spectrum: 2048
>>>>>Begin Spectral Data<<<<<
177.721	42.49
178.105	117.94
178.488	150.37
178.871	183.07
179.254	86.12
179.636	170.65
180.019	-128.11
180.402	67.86
180.785	108.64
181.168	108.58
181.55	175.03
181.933	132.22
182.316	148.72
182.698	168.55
183.081	165.4
183.463	204
183.846	208.56
184.228	250.63
184.611	198.05
184.993	243.1
185.376	184.77
185.758	184.81
186.14	269.93
186.522	251.78
186.904	283.19
187.287	245.51
187.669	402.8
188.051	627.11
188.433	1652.35
188.815	3193.53
189.197	-644.47
189.579	-339.26
189.961	-365.12
190.342	-311.99
190.724	-173.56
191.106	-103.11
191.488	-169.52
191.869	-127.37
192.251	-124.69
192.633	-56.51
193.014	-73.52
193.396	-65.07
193.777	-83.02
194.159	-111.86
194.54	-54.67
194.922	-41.49
195.303	-34.43
195.684	-36.22
196.065	-18.05
196.447	-179.91
196.828	-191.33
197.209	-200.82
197.59	-1305.94
197.971	-199.13
198.352	-111.85
198.733	-200.88
199.114	-96.84
199.495	16.46
199.876	-157.26
200.257	128.78
200.638	41.82
201.018	135.34
201.399	234.97
201.78	-119.35
202.16	77.84
202.541	97.27
202.922	108.67
203.302	135.79
203.683	191.4
204.063	220.23
204.444	287.12
204.824	207.37
205.204	182.82
205.585	1274.89
205.965	269.46
206.345	258.23
206.725	354.88
207.106	438.88
207.486	386.57
207.866	567.4
208.246	1231.64
208.626	461.65
209.006	1654.72
209.386	980
209.766	1015.77
210.145	-6294.37
210.525	-8410.64
210.905	-463.61
211.285	-176.45
211.664	-98.91
212.044	-101.61
212.424	-74.87
212.803	-67.85
213.183	-69.85
213.562	-55.75
213.942	-25.37
214.321	-38.93
214.701	-61.12
215.08	-89.73
215.459	-75.53
215.838	-54.67
216.218	-65.53
216.597	-57.91
216.976	-68.39
217.355	-56.95
217.734	-52.48
218.113	-60.4
218.492	-54.85
218.871	-75.35
219.25	-114.45
219.629	-224.07
220.008	-256.88
220.387	-302.77
220.766	-464.25
221.144	-845.77
221.523	-1418.39
221.902	6226.58
222.28	-711.4
222.659	-225.72
223.037	-126.54
223.416	-119.5
223.794	-121.71
224.173	-147.84
224.551	-124.32
224.929	-111.31
225.308	-74.06
225.686	-59.94
226.064	-48.14
226.442	-42.74
226.821	-27.11
227.199	-26.3
227.577	-19.89
227.955	-18.36
228.333	-16.6
228.711	-18.55
229.089	-10.86
229.467	-11.71
229.845	-12.22
230.222	-8.93
230.6	-8.6
230.978	-9.77
231.356	-4.12
231.733	-4.75
232.111	-3.39
232.488	-2.56
232.866	-1.92
233.243	-4.8
233.621	-7.33
233.998	-4.79
234.376	-6.23
234.753	-8.2
235.13	-6.71
235.508	-6.66
235.885	-5.42
236.262	-4.62
236.639	-2.36
237.016	-1.84
237.393	0.54
237.77	2.34
238.147	1.67
238.524	2.29
238.901	2.62
239.278	2.6
239.655	4.14
240.032	3.85
240.409	3.35
240.785	3.1
241.162	3.97
241.539	4.77
241.915	4.47
242.292	4.35
242.668	3.9
243.045	3.87
243.421	3.79
243.798	3.53
244.174	3.25
244.551	3.21
244.927	3.2
245.303	3.15
245.679	2.96
246.056	3.12
246.432	3.14
246.808	3.25
247.184	2.83
247.56	2.42
247.936	2.42
248.312	2.42
248.688	2.5
249.064	2.39
249.44	2.33
249.815	2.33
250.191	2.54
250.567	2.54
250.943	2.27
251.318	2.52
251.694	2.62
252.069	2.53
252.445	2.45
252.82	2.42
253.196	2.21
253.571	2.18
253.947	1.79
254.322	1.83
254.697	1.75
255.073	1.98
255.448	1.93
255.823	2.32
256.198	2.65
256.573	2.75
256.948	2.93
257.323	2.82
257.698	2.74
258.073	2.67
258.448	2.8
258.823	3.07
259.198	2.84
259.573	2.72
259.948	2.89
260.322	2.86
260.697	2.57
261.072	2.56
261.446	2.54
261.821	2.58
262.195	2.68
262.57	2.67
262.944	2.64
263.319	2.67
263.693	2.51
264.067	2.32
264.442	2.35
264.816	2.13
265.19	2.22
265.564	2.36
265.938	2.25
266.313	2.18
266.687	2.24
267.061	2.5
267.435	2.58
267.809	2.42
268.183	2.47
268.556	2.51
268.93	2.69
269.304	2.73
269.678	2.97
270.051	2.94
270.425	3.07
270.799	2.99
271.172	3.07
271.546	3.11
271.919	3.14
272.293	3.04
272.666	3.15
273.04	3.13
273.413	3.04
273.787	3.12
274.16	3.14
274.533	3.06
274.906	2.81
275.279	2.87
275.653	2.96
276.026	2.92
276.399	3.13
276.772	3.09
277.145	3.11
277.518	3.21
277.891	3.14
278.263	2.97
278.636	3.1
279.009	3.21
279.382	3.21
279.755	3.29
280.127	3.61
280.5	3.55
280.872	3.69
281.245	3.72
281.617	3.79
281.99	3.89
282.362	3.86
282.735	3.84
283.107	3.74
283.479	3.75
283.852	3.76
284.224	3.74
284.596	3.64
284.968	3.85
285.34	3.69
285.713	3.75
286.085	3.8
286.457	3.78
286.829	3.81
287.201	3.84
287.572	3.76
287.944	3.54
288.316	3.58
288.688	3.41
289.06	3.48
289.431	3.43
289.803	3.37
290.175	3.44
290.546	3.62
290.918	3.66
291.289	3.61
291.661	3.72
292.032	3.79
292.403	3.88
292.775	3.79
293.146	3.77
293.517	3.68
293.889	3.75
294.26	3.75
294.631	3.71
295.002	3.72
295.373	3.79
295.744	3.92
296.115	4.01
296.486	3.97
296.857	3.84
297.228	3.88
297.599	3.87
297.97	3.86
298.34	3.81
298.711	3.87
299.082	3.88
299.452	3.84
299.823	3.88
300.194	3.84
300.564	3.74
300.935	3.85
301.305	3.88
301.676	3.9
302.046	3.96
302.416	4.12
302.787	4.04
303.157	4.05
303.527	4.03
303.897	3.99
304.267	4.1
304.637	4.19
305.008	4.29
305.378	4.51
305.748	4.54
306.117	4.56
306.487	4.73
306.857	4.77
307.227	4.83
307.597	4.77
307.967	4.84
308.336	4.98
308.706	5.07
309.076	5.09
309.445	5.08
309.815	5.04
310.184	4.83
310.554	4.87
310.923	4.79
311.293	4.69
311.662	4.66
312.031	4.7
312.401	4.69
312.77	4.72
313.139	4.68
313.508	4.59
313.877	4.51
314.246	4.29
314.616	4.13
314.985	4.06
315.353	4.05
315.722	4.06
316.091	3.93
316.46	3.77
316.829	3.81
317.198	3.7
317.567	3.63
317.935	3.69
318.304	3.77
318.672	3.71
319.041	3.85
319.41	3.86
319.778	3.78
320.147	3.77
320.515	3.58
320.883	3.43
321.252	3.63
321.62	3.67
321.988	3.85
322.357	3.93
322.725	3.8
323.093	3.86
323.461	3.8
323.829	3.89
324.197	3.94
324.565	3.94
324.933	4.04
325.301	4.2
325.669	4.11
326.037	4.02
326.405	4.24
326.772	4.19
327.14	4.34
327.508	4.38
327.875	4.42
328.243	4.62
328.61	4.53
328.978	4.41
329.346	4.56
329.713	4.44
330.08	4.56
330.448	4.65
330.815	4.45
331.182	4.46
331.55	4.43
331.917	4.51
332.284	4.62
332.651	4.56
333.018	4.47
333.385	4.52
333.752	4.76
334.119	4.72
334.486	4.67
334.853	4.56
335.22	4.52
335.587	4.58
335.954	4.47
336.32	4.6
336.687	4.7
337.054	4.62
337.42	4.71
337.787	4.75
338.153	4.77
338.52	4.96
338.886	4.89
339.253	4.87
339.619	4.8
339.986	4.73
340.352	4.77
340.718	4.78
341.084	4.71
341.451	4.67
341.817	4.61
342.183	4.67
342.549	4.68
342.915	4.72
343.281	4.65
343.647	4.69
344.013	4.77
344.379	4.67
344.745	4.65
345.11	4.63
345.476	4.56
345.842	4.48
346.208	4.48
346.573	4.59
346.939	4.63
347.304	4.61
347.67	4.63
348.035	4.47
348.401	4.45
348.766	4.58
349.132	4.51
349.497	4.49
349.862	4.51
350.228	4.49
350.593	4.37
350.958	4.44
351.323	4.42
351.688	4.33
352.053	4.39
352.418	4.46
352.783	4.49
353.148	4.5
353.513	4.6
353.878	4.59
354.243	4.66
354.608	4.62
354.972	4.59
355.337	4.52
355.702	4.66
356.066	4.78
356.431	4.73
356.795	4.78
357.16	4.81
357.524	4.75
357.889	4.75
358.253	4.88
358.618	4.87
358.982	4.85
359.346	4.78
359.71	4.73
360.075	4.76
360.439	4.75
360.803	4.76
361.167	4.74
361.531	4.66
361.895	4.6
362.259	4.61
362.623	4.65
362.987	4.69
363.351	4.74
363.714	4.67
364.078	4.7
364.442	4.63
364.806	4.66
365.169	4.69
365.533	4.7
365.896	4.62
366.26	4.61
366.623	4.63
366.987	4.74
367.35	4.78
367.714	4.76
368.077	4.74
368.44	4.76
368.803	4.76
369.167	4.8
369.53	4.83
369.893	4.86
370.256	4.84
370.619	4.81
370.982	4.72
371.345	4.71
371.708	4.74
372.071	4.76
372.434	4.7
372.797	4.64
373.159	4.61
373.522	4.69
373.885	4.71
374.247	4.72
374.61	4.66
374.973	4.65
375.335	4.6
375.698	4.63
376.06	4.64
376.423	4.67
376.785	4.69
377.147	4.66
377.51	4.65
377.872	4.69
378.234	4.76
378.596	4.81
378.958	4.82
379.321	4.79
379.683	4.84
380.045	4.89
380.407	4.94
380.769	4.99
381.13	4.94
381.492	4.9
381.854	4.87
382.216	4.95
382.578	4.97
382.939	4.94
383.301	4.9
383.663	4.86
384.024	4.85
384.386	4.87
384.747	4.86
385.109	4.88
385.47	4.86
385.832	4.86
386.193	4.83
386.554	4.82
386.916	4.81
387.277	4.78
387.638	4.78
387.999	4.76
388.36	4.73
388.721	4.76
389.082	4.76
389.443	4.77
389.804	4.72
390.165	4.68
390.526	4.72
390.887	4.74
391.248	4.81
391.609	4.78
391.969	4.75
392.33	4.75
392.691	4.76
393.051	4.76
393.412	4.76
393.772	4.76
394.133	4.82
394.493	4.84
394.854	4.82
395.214	4.82
395.574	4.82
395.935	4.85
396.295	4.85
396.655	4.86
397.015	4.89
397.376	4.9
397.736	4.95
398.096	4.99
398.456	5.02
398.816	4.98
399.176	4.99
399.535	5.02
399.895	5.03
400.255	4.99
400.615	5.04
400.975	4.97
401.334	4.99
401.694	4.97
402.054	4.95
402.413	4.99
402.773	4.95
403.132	4.96
403.492	4.96
403.851	4.96
404.211	4.97
404.57	4.94
404.929	4.94
405.288	4.92
405.648	4.91
406.007	4.89
406.366	4.89
406.725	4.91
407.084	4.9
407.443	4.91
407.802	4.91
408.161	4.87
408.52	4.91
408.879	4.89
409.238	4.88
409.596	4.89
409.955	4.87
410.314	4.9
410.673	4.92
411.031	4.9
411.39	4.89
411.748	4.88
412.107	4.89
412.465	4.89
412.824	4.9
413.182	4.87
413.54	4.88
413.899	4.93
414.257	4.95
414.615	4.95
414.974	4.97
415.332	5.01
415.69	4.99
416.048	4.98
416.406	5.01
416.764	5
417.122	5.01
417.48	5.01
417.838	5.03
418.195	5.01
418.553	5.01
418.911	5.02
419.269	5.03
419.626	5.03
419.984	5.03
420.342	5.03
420.699	5.03
421.057	5.03
421.414	5.01
421.772	4.99
422.129	5.01
422.486	5
422.844	5.01
423.201	5.02
423.558	5.02
423.915	5.02
424.273	5.04
424.63	5.03
424.987	5.03
425.344	5.04
425.701	5.04
426.058	5.06
426.415	5.05
426.772	5.06
427.128	5.06
427.485	5.05
427.842	5.04
428.199	5.07
428.555	5.07
428.912	5.07
429.269	5.09
429.625	5.09
429.982	5.08
430.338	5.05
430.695	5.07
431.051	5.06
431.407	5.04
431.764	5.01
432.12	5.01
432.476	5.02
432.832	4.98
433.189	4.98
433.545	4.96
433.901	4.96
434.257	4.93
434.613	4.96
434.969	4.95
435.325	4.96
435.681	4.96
436.036	4.95
436.392	4.96
436.748	4.95
437.104	4.93
437.459	4.94
437.815	4.96
438.171	4.95
438.526	4.96
438.882	4.98
439.237	4.98
439.593	4.96
439.948	4.95
440.304	4.97
440.659	4.98
441.014	5.01
441.369	5.01
441.725	5.02
442.08	5.01
442.435	5.03
442.79	5.04
443.145	5.05
443.5	5.06
443.855	5.06
444.21	5.06
444.565	5.08
444.92	5.09
445.275	5.07
445.629	5.09
445.984	5.09
446.339	5.08
446.693	5.1
447.048	5.09
447.403	5.08
447.757	5.09
448.112	5.08
448.466	5.05
448.82	5.05
449.175	5.07
449.529	5.07
449.883	5.07
450.238	5.04
450.592	5.04
450.946	5.04
451.3	5.04
451.654	5.04
452.008	5.02
452.362	5.02
452.716	5.02
453.07	4.99
453.424	4.99
453.778	5
454.132	5.01
454.486	5.02
454.839	5.05
455.193	5.03
455.547	5.03
455.9	5.05
456.254	5.05
456.607	5.03
456.961	5.05
457.314	5.05
457.668	5.07
458.021	5.05
458.375	5.05
458.728	5.04
459.081	5.05
459.434	5.04
459.787	5.05
460.141	5.05
460.494	5.06
460.847	5.07
461.2	5.04
461.553	5.03
461.906	5.05
462.259	5.06
462.611	5.07
462.964	5.08
463.317	5.07
463.67	5.07
464.022	5.05
464.375	5.04
464.728	5.04
465.08	5.02
465.433	5.03
465.785	5.04
466.138	5.04
466.49	5.05
466.843	5.06
467.195	5.05
467.547	5.05
467.899	5.05
468.252	5.06
468.604	5.07
468.956	5.06
469.308	5.07
469.66	5.06
470.012	5.06
470.364	5.09
470.716	5.12
471.068	5.12
471.42	5.12
471.772	5.15
472.123	5.17
472.475	5.18
472.827	5.18
473.178	5.17
473.53	5.15
473.882	5.12
474.233	5.13
474.585	5.13
474.936	5.13
475.288	5.12
475.639	5.12
475.99	5.14
476.342	5.14
476.693	5.14
477.044	5.16
477.395	5.16
477.746	5.13
478.097	5.11
478.448	5.14
478.8	5.15
479.15	5.12
479.501	5.13
479.852	5.14
480.203	5.16
480.554	5.18
480.905	5.22
481.255	5.24
481.606	5.25
481.957	5.26
482.307	5.28
482.658	5.28
483.009	5.27
483.359	5.27
483.709	5.28
484.06	5.28
484.41	5.29
484.761	5.29
485.111	5.3
485.461	5.31
485.811	5.31
486.162	5.32
486.512	5.33
486.862	5.34
487.212	5.34
487.562	5.34
487.912	5.34
488.262	5.33
488.612	5.34
488.961	5.34
489.311	5.33
489.661	5.33
490.011	5.33
490.36	5.33
490.71	5.35
491.06	5.34
491.409	5.34
491.759	5.33
492.108	5.32
492.458	5.32
492.807	5.32
493.157	5.32
493.506	5.32
493.855	5.3
494.204	5.3
494.554	5.29
494.903	5.3
495.252	5.29
495.601	5.29
495.95	5.27
496.299	5.26
496.648	5.25
496.997	5.24
497.346	5.23
497.695	5.25
498.043	5.24
498.392	5.23
498.741	5.25
499.09	5.24
499.438	5.25
499.787	5.25
500.135	5.26
500.484	5.26
500.832	5.27
501.181	5.28
501.529	5.28
501.878	5.29
502.226	5.3
502.574	5.3
502.923	5.31
503.271	5.3
503.619	5.31
503.967	5.33
504.315	5.37
504.663	5.38
505.011	5.35
505.359	5.36
505.707	5.37
506.055	5.37
506.403	5.38
506.751	5.41
507.098	5.41
507.446	5.41
507.794	5.39
508.141	5.37
508.489	5.38
508.837	5.41
509.184	5.41
509.531	5.41
509.879	5.41
510.226	5.41
510.574	5.42
510.921	5.42
511.268	5.43
511.616	5.43
511.963	5.44
512.31	5.46
512.657	5.45
513.004	5.47
513.351	5.49
513.698	5.48
514.045	5.46
514.392	5.45
514.739	5.44
515.086	5.47
515.432	5.49
515.779	5.49
516.126	5.48
516.473	5.48
516.819	5.48
517.166	5.49
517.512	5.5
517.859	5.5
518.205	5.49
518.552	5.5
518.898	5.5
519.245	5.51
519.591	5.51
519.937	5.5
520.283	5.5
520.629	5.49
520.976	5.49
521.322	5.5
521.668	5.51
522.014	5.5
522.36	5.52
522.706	5.52
523.052	5.51
523.398	5.53
523.743	5.55
524.089	5.56
524.435	5.58
524.781	5.6
525.126	5.63
525.472	5.65
525.817	5.65
526.163	5.64
526.509	5.66
526.854	5.67
527.199	5.68
527.545	5.67
527.89	5.68
528.235	5.69
528.581	5.7
528.926	5.7
529.271	5.71
529.616	5.72
529.961	5.73
530.306	5.75
530.651	5.74
530.996	5.75
531.341	5.75
531.686	5.73
532.031	5.73
532.376	5.71
532.721	5.71
533.065	5.7
533.41	5.71
533.755	5.7
534.099	5.7
534.444	5.69
534.788	5.71
535.133	5.71
535.477	5.72
535.822	5.73
536.166	5.71
536.51	5.73
536.855	5.7
537.199	5.7
537.543	5.69
537.887	5.69
538.231	5.68
538.576	5.67
538.92	5.67
539.264	5.68
539.608	5.69
539.951	5.7
540.295	5.69
540.639	5.69
540.983	5.7
541.327	5.72
541.671	5.73
542.014	5.73
542.358	5.73
542.701	5.74
543.045	5.75
543.389	5.78
543.732	5.77
544.075	5.78
544.419	5.8
544.762	5.78
545.105	5.81
545.449	5.82
545.792	5.83
546.135	5.84
546.478	5.84
546.821	5.84
547.165	5.85
547.508	5.89
547.851	5.9
548.194	5.91
548.536	5.91
548.879	5.9
549.222	5.9
549.565	5.89
549.908	5.88
550.25	5.88
550.593	5.88
550.936	5.88
551.278	5.88
551.621	5.89
551.963	5.92
552.306	5.9
552.648	5.88
552.991	5.89
553.333	5.88
553.675	5.89
554.017	5.91
554.36	5.9
554.702	5.92
555.044	5.92
555.386	5.93
555.728	5.92
556.07	5.94
556.412	5.94
556.754	5.96
557.096	5.95
557.438	5.94
557.78	5.94
558.121	5.94
558.463	5.95
558.805	5.94
559.147	5.93
559.488	5.96
559.83	5.98
560.171	5.96
560.513	5.99
560.854	5.97
561.196	5.95
561.537	5.96
561.878	5.93
562.22	5.9
562.561	5.89
562.902	5.91
563.243	5.94
563.584	5.95
563.925	5.92
564.266	5.94
564.607	5.93
564.948	5.95
565.289	5.95
565.63	5.95
565.971	5.9
566.312	5.91
566.653	5.89
566.993	5.89
567.334	5.9
567.675	5.92
568.015	5.92
568.356	5.92
568.696	5.93
569.037	5.93
569.377	5.94
569.718	5.95
570.058	5.94
570.398	5.9
570.739	5.91
571.079	5.93
571.419	5.93
571.759	5.95
572.099	5.93
572.439	5.95
572.779	5.96
573.119	6.01
573.459	6.05
573.799	6.06
574.139	6.09
574.479	6.11
574.819	6.11
575.158	6.11
575.498	6.13
575.838	6.13
576.177	6.14
576.517	6.14
576.856	6.15
577.196	6.17
577.535	6.19
577.875	6.21
578.214	6.23
578.553	6.26
578.893	6.24
579.232	6.29
579.571	6.26
579.91	6.27
580.25	6.26
580.589	6.18
580.928	6.17
581.267	6.14
581.606	6.12
581.945	6.1
582.283	6.12
582.622	6.12
582.961	6.1
583.3	6.1
583.639	6.12
583.977	6.09
584.316	6.08
584.654	6.08
584.993	6.07
585.332	6.03
585.67	5.99
586.008	6.04
586.347	5.99
586.685	5.99
587.024	5.99
587.362	6.02
587.7	6.06
588.038	6.1
588.376	6.11
588.715	6.11
589.053	6.13
589.391	6.12
589.729	6.13
590.067	6.14
590.404	6.15
590.742	6.12
591.08	6.14
591.418	6.16
591.756	6.15
592.093	6.12
592.431	6.16
592.769	6.19
593.106	6.14
593.444	6.14
593.781	6.17
594.119	6.18
594.456	6.15
594.793	6.14
595.131	6.14
595.468	6.13
595.805	6.14
596.143	6.14
596.48	6.14
596.817	6.13
597.154	6.16
597.491	6.17
597.828	6.21
598.165	6.2
598.502	6.23
598.839	6.23
599.176	6.25
599.512	6.26
599.849	6.26
600.186	6.28
600.523	6.34
600.859	6.38
601.196	6.4
601.532	6.43
601.869	6.4
602.205	6.4
602.542	6.45
602.878	6.42
603.215	6.42
603.551	6.46
603.887	6.48
604.223	6.47
604.56	6.46
604.896	6.45
605.232	6.44
605.568	6.43
605.904	6.45
606.24	6.5
606.576	6.45
606.912	6.47
607.248	6.48
607.583	6.46
607.919	6.42
608.255	6.42
608.591	6.45
608.926	6.52
609.262	6.5
609.597	6.49
609.933	6.53
610.268	6.53
610.604	6.54
610.939	6.55
611.275	6.57
611.61	6.59
611.945	6.6
612.281	6.64
612.616	6.64
612.951	6.64
613.286	6.64
613.621	6.67
613.956	6.65
614.291	6.65
614.626	6.66
614.961	6.65
615.296	6.59
615.631	6.58
615.966	6.53
616.3	6.53
616.635	6.48
616.97	6.48
617.304	6.48
617.639	6.46
617.973	6.44
618.308	6.41
618.642	6.4
618.977	6.37
619.311	6.34
619.646	6.28
619.98	6.25
620.314	6.26
620.648	6.28
620.983	6.28
621.317	6.28
621.651	6.31
621.985	6.35
622.319	6.39
622.653	6.33
622.987	6.37
623.321	6.42
623.655	6.49
623.988	6.49
624.322	6.46
624.656	6.49
624.99	6.48
625.323	6.49
625.657	6.5
625.99	6.55
626.324	6.57
626.657	6.69
626.991	6.72
627.324	6.68
627.658	6.67
627.991	6.71
628.324	6.71
628.657	6.67
628.991	6.64
629.324	6.68
629.657	6.72
629.99	6.72
630.323	6.74
630.656	6.75
630.989	6.79
631.322	6.82
631.655	6.82
631.987	6.85
632.32	6.88
632.653	6.87
632.986	6.85
633.318	6.82
633.651	6.76
633.984	6.76
634.316	6.75
634.649	6.75
634.981	6.71
635.313	6.7
635.646	6.75
635.978	6.77
636.31	6.73
636.643	6.68
636.975	6.69
637.307	6.66
637.639	6.64
637.971	6.61
638.303	6.63
638.635	6.62
638.967	6.57
639.299	6.54
639.631	6.48
639.963	6.45
640.295	6.51
640.626	6.51
640.958	6.53
641.29	6.53
641.621	6.55
641.953	6.57
642.285	6.61
642.616	6.56
642.948	6.54
643.279	6.54
643.61	6.56
643.942	6.6
644.273	6.64
644.604	6.58
644.936	6.47
645.267	6.48
645.598	6.5
645.929	6.57
646.26	6.55
646.591	6.59
646.922	6.57
647.253	6.57
647.584	6.61
647.915	6.6
648.245	6.59
648.576	6.57
648.907	6.6
649.238	6.57
649.568	6.6
649.899	6.63
650.229	6.66
650.56	6.74
650.89	6.7
651.221	6.66
651.551	6.71
651.882	6.84
652.212	6.8
652.542	6.78
652.872	6.74
653.203	6.76
653.533	6.78
653.863	6.83
654.193	6.82
654.523	6.79
654.853	6.73
655.183	6.79
655.513	6.78
655.843	6.75
656.172	6.74
656.502	6.75
656.832	6.72
657.162	6.73
657.491	6.67
657.821	6.71
658.15	6.7
658.48	6.68
658.809	6.7
659.139	6.77
659.468	6.75
659.798	6.74
660.127	6.81
660.456	6.84
660.785	6.86
661.115	6.83
661.444	6.86
661.773	6.92
662.102	6.87
662.431	6.91
662.76	6.93
663.089	6.92
663.418	6.85
663.747	6.93
664.076	6.89
664.404	6.92
664.733	6.86
665.062	6.92
665.39	6.94
665.719	6.89
666.048	6.83
666.376	6.83
666.705	6.81
667.033	6.72
667.362	6.73
667.69	6.63
668.018	6.62
668.347	6.61
668.675	6.63
669.003	6.68
669.331	6.72
669.659	6.71
669.987	6.74
670.315	6.78
670.643	6.74
670.971	6.75
671.299	6.71
671.627	6.76
671.955	6.68
672.283	6.77
672.61	6.77
672.938	6.85
673.266	6.92
673.593	7.03
673.921	7.14
674.249	7.15
674.576	7.27
674.904	7.27
675.231	7.2
675.558	7.14
675.886	7.17
676.213	7.08
676.54	7.11
676.867	7.14
677.195	7.14
677.522	7.17
677.849	7.23
678.176	7.25
678.503	7.27
678.83	7.27
679.157	7.17
679.484	7.14
679.81	7.09
680.137	7.01
680.464	6.95
680.791	6.93
681.117	6.86
681.444	6.86
681.771	6.92
682.097	6.95
682.424	7.02
682.75	6.93
683.077	6.97
683.403	6.98
683.729	7.03
684.056	7.11
684.382	7.07
684.708	7.06
685.034	7.05
685.36	7.07
685.686	7.11
686.012	7.08
686.339	7.14
686.664	7.09
686.99	7.16
687.316	7.2
687.642	7.25
687.968	7.32
688.294	7.29
688.619	7.3
688.945	7.3
689.271	7.22
689.596	7.27
689.922	7.37
690.247	7.3
690.573	7.27
690.898	7.28
691.224	7.23
691.549	7.15
691.874	7.17
692.2	7.16
692.525	7.19
692.85	7.34
693.175	7.32
693.5	7.39
693.825	7.39
694.15	7.35
694.475	7.25
694.8	7.25
695.125	7.26
695.45	7.12
695.775	7.13
696.099	7.17
696.424	7.15
696.749	7.07
697.073	7.14
697.398	7.18
697.723	7.15
698.047	7.18
698.372	7.21
698.696	7.2
699.02	7.24
699.345	7.2
699.669	7.19
699.993	7.17
700.318	7.2
700.642	7.15
700.966	7.19
701.29	7.23
701.614	7.27
701.938	7.36
702.262	7.55
702.586	7.57
702.91	7.59
703.234	7.63
703.557	7.66
703.881	7.69
704.205	7.63
704.529	7.71
704.852	7.78
705.176	7.86
705.499	8.04
705.823	7.86
706.146	7.98
706.47	7.88
706.793	7.86
707.117	7.79
707.44	7.82
707.763	7.78
708.086	7.68
708.409	7.71
708.733	7.67
709.056	7.64
709.379	7.71
709.702	7.69
710.025	7.76
710.348	7.6
710.671	7.52
710.993	7.62
711.316	7.55
711.639	7.62
711.962	7.55
712.284	7.38
712.607	7.45
712.93	7.35
713.252	7.43
713.575	7.54
713.897	7.52
714.22	7.69
714.542	7.75
714.864	7.9
715.187	7.81
715.509	7.74
715.831	7.85
716.153	7.78
716.475	7.89
716.798	7.95
717.12	8.14
717.442	8.11
717.764	8.04
718.085	7.92
718.407	7.77
718.729	7.75
719.051	7.79
719.373	7.81
719.695	7.82
720.016	7.8
720.338	7.81
720.659	7.91
720.981	7.76
721.302	7.72
721.624	7.57
721.945	7.57
722.267	7.6
722.588	7.45
722.909	7.39
723.231	7.19
723.552	7.16
723.873	7.2
724.194	7.26
724.515	7.23
724.836	7.26
725.157	7.45
725.478	7.41
725.799	7.37
726.12	7.17
726.441	7.37
726.762	7.44
727.083	7.42
727.403	7.33
727.724	7.42
728.045	7.42
728.365	7.42
728.686	7.39
729.006	7.41
729.327	7.4
729.647	7.66
729.967	7.81
730.288	7.73
730.608	7.71
730.928	7.71
731.249	7.66
731.569	7.97
731.889	7.99
732.209	8.18
732.529	8.25
732.849	8.57
733.169	8.44
733.489	8.33
733.809	8.28
734.129	8.35
734.448	8.41
734.768	8.46
735.088	8.69
735.408	8.81
735.727	8.91
736.047	9.01
736.366	8.74
736.686	8.7
737.005	8.85
737.325	8.8
737.644	8.78
737.963	8.87
738.283	8.61
738.602	8.44
738.921	8.63
739.24	8.43
739.56	8.13
739.879	8.04
740.198	8.2
740.517	8.25
740.836	8.2
741.155	8.05
741.473	8.18
741.792	7.89
742.111	7.93
742.43	7.82
742.748	7.64
743.067	7.82
743.386	7.78
743.704	7.54
744.023	7.68
744.341	7.6
744.66	7.85
744.978	7.92
745.297	7.9
745.615	7.5
745.933	7.77
746.252	7.91
746.57	7.96
746.888	7.92
747.206	7.82
747.524	7.78
747.842	7.81
748.16	7.77
748.478	7.87
748.796	7.77
749.114	8.13
749.432	8.05
749.749	8.11
750.067	8.27
750.385	8.33
750.703	8.24
751.02	8.44
751.338	8.31
751.655	8.13
751.973	8.27
752.29	8.55
752.608	8.68
752.925	8.78
753.242	9.01
753.56	8.96
753.877	9.19
754.194	9.13
754.511	9.33
754.828	9.13
755.145	9.07
755.462	9.06
755.779	8.86
756.096	9.01
756.413	9.04
756.73	9.02
757.047	9.18
757.364	9.46
757.68	9.41
757.997	9.46
758.314	9.59
758.63	9.53
758.947	9.67
759.264	9.58
759.58	9.71
759.896	9.48
760.213	9.46
760.529	9.41
760.846	9.52
761.162	9.35
761.478	9.49
761.794	9.65
762.11	9.74
762.426	9.83
762.743	9.87
763.059	9.7
763.375	9.74
763.69	9.88
764.006	9.57
764.322	9.76
764.638	9.71
764.954	9.87
765.27	9.79
765.585	9.65
765.901	9.55
766.216	9.36
766.532	9.38
766.848	9.33
767.163	9.22
767.478	9.25
767.794	9.09
768.109	9.01
768.424	9.09
768.74	9.11
769.055	8.93
769.37	9.05
769.685	9.04
770	9.23
770.315	8.95
770.63	9.28
770.945	9.05
771.26	9.11
771.575	8.98
771.89	9.25
772.205	9.27
772.52	9.48
772.834	9.59
773.149	9.45
773.464	9.55
773.778	9.57
774.093	9.12
774.407	9.46
774.722	9.53
775.036	9.27
775.351	9.33
775.665	9.2
775.979	8.96
776.293	9.01
776.608	8.69
776.922	8.79
777.236	8.74
777.55	8.56
777.864	8.31
778.178	8.25
778.492	8.15
778.806	7.98
779.12	8.23
779.434	8.08
779.747	8.24
780.061	8.3
780.375	8.28
780.689	8.42
781.002	8.53
781.316	8.46
781.629	8.5
781.943	8.32
782.256	8.23
782.57	8.39
782.883	8.49
783.196	8.42
783.51	8.32
783.823	7.99
784.136	7.83
784.449	7.94
784.762	7.97
785.075	7.67
785.388	8.04
785.701	7.86
786.014	7.72
786.327	7.71
786.64	7.91
786.953	8.31
787.266	8.3
787.578	8.21
787.891	8.53
788.204	8.43
788.516	8.54
788.829	9.03
789.141	9.06
789.454	9.12
789.766	9.24
790.079	8.96
790.391	8.97
790.703	9.47
791.016	9.44
791.328	9.53
791.64	9.98
791.952	9.6
792.264	9.16
792.576	9.24
792.888	9.34
793.2	9.43
793.512	9.66
793.824	9.94
794.136	9.77
794.448	9.46
794.76	9.35
795.071	9.55
795.383	9.28
795.695	9.25
796.006	8.89
796.318	8.72
796.629	9.36
796.941	9.77
797.252	9.66
797.564	9.72
797.875	9.33
798.186	9.28
798.497	9.28
798.809	9.37
799.12	9.25
799.431	9.15
799.742	9.3
800.053	8.49
800.364	8.95
800.675	9.12
800.986	8.97
801.297	9.24
801.608	8.57
801.918	8.57
802.229	8.82
802.54	9.41
802.851	9.79
803.161	9.25
803.472	8.82
803.782	9.03
804.093	9.14
804.403	9.04
804.714	8.93
805.024	8.67
805.334	9.08
805.645	9.39
805.955	9.56
806.265	9.15
806.575	9.42
806.885	9.04
807.195	8.77
807.505	9.37
807.815	9.17
808.125	9.4
808.435	9.34
808.745	8.8
809.055	8.52
809.365	7.72
809.674	7.78
809.984	7.6
810.294	7.17
810.603	7.49
810.913	8.17
811.222	8.34
811.532	8.89
811.841	8.62
812.151	9.37
812.46	9.18
812.769	9.12
813.079	9.18
813.388	8.91
813.697	9.68
814.006	9.39
814.315	9.31
814.624	9.5
814.933	10.03
815.242	10.5
815.551	10.52
815.86	11.18
816.169	11.1
816.478	11.24
816.786	11.23
817.095	11.22
817.404	11.7
817.712	11.66
818.021	11.99
818.33	12.27
818.638	11.26
818.947	11.92
819.255	12.06
819.563	11.95
819.872	12
820.18	11.7
820.488	11.68
820.796	11.63
821.105	11.74
821.413	11.7
821.721	11.78
822.029	11.89
822.337	12.17
822.645	12.28
822.953	12.22
823.26	12.31
823.568	12.18
823.876	12.08
824.184	12.09
824.491	11.95
824.799	11.96
825.107	12.1
825.414	11.95
825.722	11.95
826.029	12.05
826.337	12.18
826.644	12.19
826.951	12.21
827.259	12.24
827.566	12.02
827.873	12.01
828.18	11.97
828.488	11.92
828.795	11.41
829.102	11.5
829.409	11.71
829.716	11.58
830.023	11.71
830.329	11.63
830.636	11.39
830.943	11.55
831.25	11.28
831.557	11.17
831.863	11.17
832.17	10.47
832.476	10.2
832.783	10.01
833.089	9.66
833.396	9.81
833.702	10.15
834.009	10.89
834.315	10.84
834.621	10.95
834.928	11.1
835.234	11.58
835.54	11.5
835.846	11.4
836.152	11.25
836.458	11.09
836.764	10.84
837.07	11.04
837.376	10.47
837.682	10.67
837.988	10.9
838.293	10.74
838.599	11.31
838.905	11.24
839.211	10.98
839.516	11.89
839.822	11.69
840.127	11.97
840.433	11.01
840.738	10.58
841.044	9.68
841.349	9.51
841.654	9.59
841.959	9.35
842.265	9
842.57	9.83
842.875	10.09
843.18	10.7
843.485	11.33
843.79	11.54
844.095	11.17
844.4	12.05
844.705	11.42
845.01	12.22
845.315	12.09
845.619	11.73
845.924	11.58
846.229	11.18
846.533	9.99
846.838	9.02
847.142	8.3
847.447	8.36
847.751	8.85
848.056	6.45
848.36	6.11
848.664	6.43
848.969	5.13
849.273	4.2
849.577	4.32
849.881	3.05
850.185	3.74
850.489	3.55
850.794	2.34
851.097	3.22
851.401	2.6
851.705	2.64
852.009	4.4
852.313	3.43
852.617	3.03
852.92	4.96
853.224	6.07
853.528	8.19
853.831	6.64
854.135	6.2
854.438	6.14
854.742	5.24
855.045	6.09
855.349	6.17
855.652	5.97
855.955	5.23
856.259	4.55
856.562	5.44
856.865	6.26
857.168	5.96
857.471	6.61
857.774	6.93
858.077	6.61
858.38	6.82
858.683	8.44
858.986	8.56
859.289	6
859.592	6.62
859.894	5.66
860.197	7.67
860.5	6.57
860.802	7.27
861.105	8.24
861.407	8.67
861.71	8.2
862.012	8.24
862.315	8.72
862.617	8.95
862.919	6.42
863.222	5
863.524	3.51
863.826	3.53
864.128	2.83
864.43	5.23
864.732	4.27
865.034	1.27
865.336	0.79
865.638	1.72
865.94	2.2
866.242	2.23
866.544	3.21
866.846	2.4
867.147	3.7
867.449	4.31
867.751	2.88
868.052	5.71
868.354	6.12
868.655	7.66
868.957	7.85
869.258	9.18
869.56	10.25
869.861	11.31
870.162	12.36
870.463	13.25
870.765	12.88
871.066	13.39
871.367	14.33
871.668	14.4
871.969	12.77
872.27	10.43
872.571	8.86
872.872	8.94
873.173	7.71
873.473	6.94
873.774	6.55
874.075	6.06
874.376	2.65
874.676	4.43
874.977	1.59
875.277	0.53
875.578	1.36
875.878	1.07
876.179	0.98
876.479	-0.18
876.78	-1.34
877.08	-2.78
877.38	-4.72
877.68	-4.94
877.981	-4.33
878.281	-3.71
878.581	-0.86
