Data from BA28305_Reflection_00007.txt Node
Date: Mon Nov 18 15:57:00 EST 2019
User: vgr7
Spectrometer: USB2G7710
Scans to average: 3
Trigger mode: 4
Integration Time (sec): 2.000000E-2
Electric dark correction enabled: true
Boxcar width: 10
XAxis mode: Wavelengths
Number of Pixels in Spectrum: 2048
>>>>>Begin Spectral Data<<<<<
177.721	-255.45
178.105	-321.05
178.488	-432.71
178.871	336.84
179.254	167.67
179.636	-33.93
180.019	82.66
180.402	178.26
180.785	-4.41
181.168	15.09
181.55	4.21
181.933	68.05
182.316	60
182.698	44.93
183.081	38.95
183.463	42.02
183.846	63.33
184.228	46.91
184.611	50.26
184.993	31.57
185.376	28.68
185.758	59.31
186.14	39.57
186.522	74.79
186.904	84.92
187.287	117.37
187.669	144.59
188.051	73.18
188.433	70.41
188.815	51.46
189.197	-76.47
189.579	-28.21
189.961	-138.1
190.342	-207.26
190.724	-115.88
191.106	-58.81
191.488	-86.25
191.869	-11.53
192.251	-19.16
192.633	3.5
193.014	-0.11
193.396	-12.56
193.777	-29.1
194.159	-22.58
194.54	21.41
194.922	13.58
195.303	80.24
195.684	110.45
196.065	224.5
196.447	187.61
196.828	106.16
197.209	113.28
197.59	209.24
197.971	165.26
198.352	155.01
198.733	147.23
199.114	165.07
199.495	141.04
199.876	141.9
200.257	102.73
200.638	147.62
201.018	172.69
201.399	86.4
201.78	106.9
202.16	120.66
202.541	130.04
202.922	244.54
203.302	296.91
203.683	190.07
204.063	93.07
204.444	74.21
204.824	146.41
205.204	140
205.585	154.26
205.965	95.12
206.345	319.51
206.725	56.52
207.106	118.57
207.486	90.01
207.866	109.45
208.246	69.4
208.626	136.32
209.006	120.69
209.386	77.78
209.766	345.03
210.145	-237.98
210.525	-260.5
210.905	-99.4
211.285	-56.89
211.664	-95.46
212.044	-66.06
212.424	-72.89
212.803	-100.63
213.183	-75.79
213.562	-94.29
213.942	-83.83
214.321	-69.23
214.701	-56.97
215.08	-43.25
215.459	-33.21
215.838	-40.39
216.218	-43.95
216.597	-26.8
216.976	-51.61
217.355	-51.22
217.734	-43.54
218.113	-26.17
218.492	-8.31
218.871	-36.31
219.25	-40.25
219.629	-56.46
220.008	-55.77
220.387	-27.14
220.766	-29.17
221.144	-80.53
221.523	-78.85
221.902	-146.29
222.28	-264.34
222.659	-128.92
223.037	-102.75
223.416	-404.13
223.794	-165.45
224.173	-113.37
224.551	-79.23
224.929	-49.18
225.308	-24.32
225.686	-27.27
226.064	-19.69
226.442	-20.75
226.821	-8.35
227.199	-10.33
227.577	-8.32
227.955	-4.31
228.333	-3.81
228.711	0.11
229.089	4.57
229.467	6.9
229.845	8.24
230.222	5.79
230.6	3.48
230.978	4.98
231.356	4.3
231.733	2.81
232.111	2.58
232.488	3.26
232.866	2.52
233.243	1.72
233.621	1.6
233.998	1.38
234.376	0.22
234.753	-0.22
235.13	2.25
235.508	3.39
235.885	2.34
236.262	0.87
236.639	0.17
237.016	1.33
237.393	2.82
237.77	3.64
238.147	3.28
238.524	3.54
238.901	4.07
239.278	5.67
239.655	6.65
240.032	6.68
240.409	5.84
240.785	6.12
241.162	6.59
241.539	6.17
241.915	6.04
242.292	5.94
242.668	5.22
243.045	4.74
243.421	4.57
243.798	4.45
244.174	4.56
244.551	4.6
244.927	4.74
245.303	4.55
245.679	4.48
246.056	4.45
246.432	4.55
246.808	4.51
247.184	4.05
247.56	3.68
247.936	3.57
248.312	3.47
248.688	3.46
249.064	3.47
249.44	3.58
249.815	3.5
250.191	3.69
250.567	3.8
250.943	3.76
251.318	4.02
251.694	4.29
252.069	4.12
252.445	3.98
252.82	3.73
253.196	3.57
253.571	3.61
253.947	3.71
254.322	3.58
254.697	3.42
255.073	3.62
255.448	4.01
255.823	4.06
256.198	4.42
256.573	4.57
256.948	4.49
257.323	4.47
257.698	4.49
258.073	4.2
258.448	4.08
258.823	4.17
259.198	4.02
259.573	3.85
259.948	3.85
260.322	3.8
260.697	3.66
261.072	3.59
261.446	3.49
261.821	3.36
262.195	3.54
262.57	3.5
262.944	3.54
263.319	3.42
263.693	3.38
264.067	3.42
264.442	3.19
264.816	3
265.19	2.87
265.564	2.86
265.938	3.04
266.313	3.16
266.687	3.13
267.061	3.13
267.435	3.1
267.809	3.11
268.183	3.27
268.556	3.34
268.93	3.39
269.304	3.38
269.678	3.52
270.051	3.29
270.425	3.34
270.799	3.27
271.172	3.25
271.546	3.3
271.919	3.25
272.293	3.31
272.666	3.45
273.04	3.56
273.413	3.4
273.787	3.25
274.16	3.07
274.533	2.96
274.906	2.8
275.279	2.79
275.653	2.82
276.026	2.8
276.399	2.79
276.772	2.75
277.145	2.72
277.518	2.65
277.891	2.87
278.263	2.82
278.636	2.84
279.009	2.89
279.382	2.97
279.755	2.91
280.127	3.1
280.5	3.08
280.872	3.25
281.245	3.28
281.617	3.48
281.99	3.61
282.362	3.66
282.735	3.59
283.107	3.66
283.479	3.59
283.852	3.52
284.224	3.45
284.596	3.61
284.968	3.69
285.34	3.72
285.713	3.59
286.085	3.7
286.457	3.73
286.829	3.69
287.201	3.55
287.572	3.41
287.944	3.26
288.316	3.31
288.688	3.14
289.06	3.13
289.431	3.03
289.803	2.99
290.175	2.98
290.546	3.11
290.918	3.11
291.289	3.2
291.661	3.25
292.032	3.44
292.403	3.27
292.775	3.3
293.146	3.22
293.517	3.22
293.889	3.13
294.26	3.16
294.631	3.21
295.002	3.22
295.373	3.28
295.744	3.37
296.115	3.26
296.486	3.27
296.857	3.34
297.228	3.41
297.599	3.38
297.97	3.38
298.34	3.43
298.711	3.34
299.082	3.28
299.452	3.32
299.823	3.35
300.194	3.42
300.564	3.42
300.935	3.59
301.305	3.68
301.676	3.68
302.046	3.59
302.416	3.63
302.787	3.73
303.157	3.73
303.527	3.77
303.897	3.79
304.267	3.86
304.637	3.82
305.008	3.87
305.378	4.02
305.748	4.12
306.117	4.04
306.487	4.13
306.857	4.15
307.227	4.14
307.597	3.95
307.967	3.93
308.336	3.85
308.706	3.77
309.076	3.72
309.445	3.77
309.815	3.75
310.184	3.7
310.554	3.74
310.923	3.77
311.293	3.75
311.662	3.77
312.031	3.8
312.401	3.78
312.77	3.85
313.139	3.94
313.508	3.88
313.877	3.98
314.246	3.9
314.616	3.93
314.985	3.95
315.353	3.91
315.722	3.94
316.091	3.95
316.46	3.91
316.829	3.92
317.198	3.84
317.567	3.98
317.935	4.21
318.304	4.12
318.672	4.26
319.041	4.48
319.41	4.47
319.778	4.4
320.147	4.56
320.515	4.39
320.883	4.23
321.252	4.29
321.62	4.33
321.988	4.3
322.357	4.31
322.725	4.22
323.093	4.32
323.461	4.34
323.829	4.36
324.197	4.35
324.565	4.44
324.933	4.55
325.301	4.66
325.669	4.42
326.037	4.55
326.405	4.47
326.772	4.41
327.14	4.53
327.508	4.59
327.875	4.56
328.243	4.57
328.61	4.52
328.978	4.53
329.346	4.49
329.713	4.65
330.08	4.67
330.448	4.61
330.815	4.6
331.182	4.64
331.55	4.71
331.917	4.78
332.284	4.68
332.651	4.63
333.018	4.53
333.385	4.56
333.752	4.58
334.119	4.63
334.486	4.47
334.853	4.5
335.22	4.5
335.587	4.48
335.954	4.55
336.32	4.61
336.687	4.67
337.054	4.71
337.42	4.69
337.787	4.82
338.153	4.93
338.52	5.07
338.886	4.98
339.253	4.87
339.619	4.97
339.986	5
340.352	4.97
340.718	4.97
341.084	5.11
341.451	5.11
341.817	5.14
342.183	5.21
342.549	5.2
342.915	5.19
343.281	5.2
343.647	5.11
344.013	5.18
344.379	5.2
344.745	5.17
345.11	5.25
345.476	5.19
345.842	5.17
346.208	5.11
346.573	5.09
346.939	5.24
347.304	5.16
347.67	5.14
348.035	5.21
348.401	5.29
348.766	5.28
349.132	5.26
349.497	5.19
349.862	5.26
350.228	5.24
350.593	5.28
350.958	5.33
351.323	5.4
351.688	5.43
352.053	5.42
352.418	5.52
352.783	5.45
353.148	5.4
353.513	5.42
353.878	5.44
354.243	5.48
354.608	5.42
354.972	5.46
355.337	5.48
355.702	5.5
356.066	5.47
356.431	5.35
356.795	5.41
357.16	5.41
357.524	5.27
357.889	5.26
358.253	5.25
358.618	5.26
358.982	5.25
359.346	5.17
359.71	5.08
360.075	5.04
360.439	5.06
360.803	5.05
361.167	5.1
361.531	5.08
361.895	5.1
362.259	5.08
362.623	5.11
362.987	5.12
363.351	5.04
363.714	5.03
364.078	5.03
364.442	5
364.806	5.02
365.169	5.06
365.533	5.07
365.896	5.09
366.26	4.99
366.623	5
366.987	5.03
367.35	5.04
367.714	5
368.077	4.99
368.44	4.98
368.803	4.93
369.167	4.83
369.53	4.86
369.893	4.96
370.256	4.88
370.619	4.81
370.982	4.76
371.345	4.76
371.708	4.77
372.071	4.7
372.434	4.61
372.797	4.69
373.159	4.64
373.522	4.65
373.885	4.69
374.247	4.67
374.61	4.63
374.973	4.66
375.335	4.63
375.698	4.61
376.06	4.57
376.423	4.56
376.785	4.64
377.147	4.56
377.51	4.43
377.872	4.42
378.234	4.43
378.596	4.47
378.958	4.41
379.321	4.37
379.683	4.38
380.045	4.4
380.407	4.31
380.769	4.27
381.13	4.24
381.492	4.16
381.854	4.18
382.216	4.15
382.578	4.16
382.939	4.11
383.301	4.11
383.663	4.09
384.024	4.01
384.386	3.95
384.747	3.94
385.109	3.95
385.47	3.88
385.832	3.86
386.193	3.86
386.554	3.83
386.916	3.85
387.277	3.84
387.638	3.82
387.999	3.8
388.36	3.81
388.721	3.76
389.082	3.77
389.443	3.71
389.804	3.7
390.165	3.67
390.526	3.68
390.887	3.59
391.248	3.62
391.609	3.63
391.969	3.63
392.33	3.64
392.691	3.62
393.051	3.66
393.412	3.65
393.772	3.61
394.133	3.61
394.493	3.56
394.854	3.55
395.214	3.54
395.574	3.52
395.935	3.52
396.295	3.51
396.655	3.48
397.015	3.47
397.376	3.46
397.736	3.41
398.096	3.37
398.456	3.42
398.816	3.4
399.176	3.38
399.535	3.33
399.895	3.29
400.255	3.26
400.615	3.23
400.975	3.19
401.334	3.21
401.694	3.2
402.054	3.21
402.413	3.18
402.773	3.12
403.132	3.15
403.492	3.12
403.851	3.12
404.211	3.13
404.57	3.1
404.929	3.11
405.288	3.11
405.648	3.11
406.007	3.06
406.366	3.04
406.725	3.05
407.084	3.09
407.443	3.09
407.802	3.12
408.161	3.09
408.52	3.07
408.879	3.03
409.238	2.99
409.596	2.98
409.955	2.98
410.314	3.01
410.673	2.98
411.031	2.99
411.39	2.95
411.748	2.94
412.107	2.94
412.465	2.92
412.824	2.91
413.182	2.93
413.54	2.96
413.899	2.95
414.257	2.92
414.615	2.92
414.974	2.91
415.332	2.86
415.69	2.87
416.048	2.86
416.406	2.89
416.764	2.86
417.122	2.88
417.48	2.87
417.838	2.85
418.195	2.84
418.553	2.84
418.911	2.84
419.269	2.84
419.626	2.84
419.984	2.83
420.342	2.83
420.699	2.81
421.057	2.81
421.414	2.79
421.772	2.79
422.129	2.78
422.486	2.78
422.844	2.77
423.201	2.76
423.558	2.77
423.915	2.75
424.273	2.76
424.63	2.76
424.987	2.75
425.344	2.75
425.701	2.75
426.058	2.75
426.415	2.73
426.772	2.73
427.128	2.72
427.485	2.73
427.842	2.71
428.199	2.74
428.555	2.74
428.912	2.75
429.269	2.77
429.625	2.76
429.982	2.74
430.338	2.77
430.695	2.79
431.051	2.79
431.407	2.8
431.764	2.77
432.12	2.76
432.476	2.74
432.832	2.74
433.189	2.73
433.545	2.73
433.901	2.73
434.257	2.72
434.613	2.74
434.969	2.72
435.325	2.72
435.681	2.71
436.036	2.69
436.392	2.69
436.748	2.68
437.104	2.66
437.459	2.66
437.815	2.64
438.171	2.64
438.526	2.65
438.882	2.66
439.237	2.69
439.593	2.68
439.948	2.69
440.304	2.69
440.659	2.7
441.014	2.69
441.369	2.67
441.725	2.67
442.08	2.65
442.435	2.65
442.79	2.65
443.145	2.65
443.5	2.65
443.855	2.64
444.21	2.63
444.565	2.64
444.92	2.64
445.275	2.65
445.629	2.64
445.984	2.64
446.339	2.63
446.693	2.61
447.048	2.61
447.403	2.59
447.757	2.59
448.112	2.58
448.466	2.57
448.82	2.58
449.175	2.59
449.529	2.6
449.883	2.59
450.238	2.59
450.592	2.58
450.946	2.57
451.3	2.56
451.654	2.55
452.008	2.56
452.362	2.56
452.716	2.57
453.07	2.57
453.424	2.56
453.778	2.57
454.132	2.59
454.486	2.58
454.839	2.59
455.193	2.58
455.547	2.57
455.9	2.59
456.254	2.61
456.607	2.59
456.961	2.58
457.314	2.57
457.668	2.58
458.021	2.57
458.375	2.56
458.728	2.59
459.081	2.61
459.434	2.61
459.787	2.61
460.141	2.61
460.494	2.61
460.847	2.61
461.2	2.59
461.553	2.58
461.906	2.57
462.259	2.6
462.611	2.64
462.964	2.65
463.317	2.62
463.67	2.62
464.022	2.64
464.375	2.64
464.728	2.65
465.08	2.66
465.433	2.67
465.785	2.68
466.138	2.66
466.49	2.65
466.843	2.66
467.195	2.66
467.547	2.66
467.899	2.67
468.252	2.67
468.604	2.7
468.956	2.68
469.308	2.71
469.66	2.7
470.012	2.68
470.364	2.7
470.716	2.74
471.068	2.74
471.42	2.76
471.772	2.79
472.123	2.8
472.475	2.78
472.827	2.79
473.178	2.78
473.53	2.79
473.882	2.78
474.233	2.78
474.585	2.76
474.936	2.75
475.288	2.75
475.639	2.75
475.99	2.72
476.342	2.73
476.693	2.73
477.044	2.73
477.395	2.69
477.746	2.67
478.097	2.66
478.448	2.66
478.8	2.63
479.15	2.6
479.501	2.61
479.852	2.62
480.203	2.63
480.554	2.64
480.905	2.65
481.255	2.65
481.606	2.66
481.957	2.67
482.307	2.67
482.658	2.67
483.009	2.67
483.359	2.68
483.709	2.68
484.06	2.67
484.41	2.68
484.761	2.69
485.111	2.69
485.461	2.69
485.811	2.69
486.162	2.7
486.512	2.71
486.862	2.71
487.212	2.71
487.562	2.71
487.912	2.7
488.262	2.7
488.612	2.71
488.961	2.7
489.311	2.7
489.661	2.7
490.011	2.71
490.36	2.72
490.71	2.72
491.06	2.73
491.409	2.74
491.759	2.74
492.108	2.74
492.458	2.75
492.807	2.75
493.157	2.76
493.506	2.77
493.855	2.78
494.204	2.79
494.554	2.81
494.903	2.82
495.252	2.84
495.601	2.86
495.95	2.86
496.299	2.88
496.648	2.9
496.997	2.94
497.346	2.94
497.695	2.95
498.043	2.96
498.392	2.98
498.741	2.99
499.09	3.02
499.438	3.05
499.787	3.06
500.135	3.09
500.484	3.1
500.832	3.13
501.181	3.14
501.529	3.17
501.878	3.19
502.226	3.22
502.574	3.25
502.923	3.29
503.271	3.3
503.619	3.35
503.967	3.39
504.315	3.42
504.663	3.43
505.011	3.48
505.359	3.49
505.707	3.54
506.055	3.58
506.403	3.62
506.751	3.66
507.098	3.71
507.446	3.76
507.794	3.79
508.141	3.8
508.489	3.86
508.837	3.88
509.184	3.91
509.531	3.96
509.879	4.01
510.226	4.04
510.574	4.1
510.921	4.15
511.268	4.17
511.616	4.2
511.963	4.28
512.31	4.32
512.657	4.38
513.004	4.42
513.351	4.46
513.698	4.52
514.045	4.56
514.392	4.61
514.739	4.67
515.086	4.75
515.432	4.84
515.779	4.86
516.126	4.94
516.473	5.01
516.819	5.07
517.166	5.11
517.512	5.14
517.859	5.19
518.205	5.24
518.552	5.3
518.898	5.36
519.245	5.4
519.591	5.47
519.937	5.52
520.283	5.58
520.629	5.66
520.976	5.72
521.322	5.81
521.668	5.89
522.014	5.97
522.36	6.05
522.706	6.12
523.052	6.22
523.398	6.33
523.743	6.44
524.089	6.56
524.435	6.67
524.781	6.8
525.126	6.91
525.472	7.01
525.817	7.11
526.163	7.21
526.509	7.29
526.854	7.37
527.199	7.45
527.545	7.52
527.89	7.59
528.235	7.68
528.581	7.76
528.926	7.86
529.271	7.94
529.616	8.03
529.961	8.13
530.306	8.24
530.651	8.34
530.996	8.45
531.341	8.55
531.686	8.68
532.031	8.78
532.376	8.9
532.721	9.02
533.065	9.16
533.41	9.3
533.755	9.44
534.099	9.6
534.444	9.77
534.788	9.92
535.133	10.07
535.477	10.22
535.822	10.39
536.166	10.58
536.51	10.78
536.855	10.99
537.199	11.21
537.543	11.43
537.887	11.65
538.231	11.86
538.576	12.08
538.92	12.31
539.264	12.55
539.608	12.79
539.951	13.01
540.295	13.19
540.639	13.39
540.983	13.59
541.327	13.78
541.671	13.97
542.014	14.18
542.358	14.39
542.701	14.59
543.045	14.79
543.389	14.98
543.732	15.19
544.075	15.42
544.419	15.65
544.762	15.87
545.105	16.1
545.449	16.37
545.792	16.66
546.135	16.96
546.478	17.26
546.821	17.55
547.165	17.84
547.508	18.16
547.851	18.47
548.194	18.82
548.536	19.15
548.879	19.48
549.222	19.8
549.565	20.12
549.908	20.44
550.25	20.74
550.593	21.09
550.936	21.47
551.278	21.78
551.621	22.14
551.963	22.49
552.306	22.87
552.648	23.2
552.991	23.53
553.333	23.83
553.675	24.13
554.017	24.46
554.36	24.78
554.702	25.08
555.044	25.35
555.386	25.62
555.728	25.95
556.07	26.28
556.412	26.59
556.754	26.92
557.096	27.26
557.438	27.61
557.78	27.94
558.121	28.23
558.463	28.57
558.805	28.83
559.147	29.12
559.488	29.41
559.83	29.7
560.171	29.98
560.513	30.29
560.854	30.62
561.196	30.95
561.537	31.26
561.878	31.59
562.22	31.95
562.561	32.26
562.902	32.53
563.243	32.82
563.584	33.13
563.925	33.42
564.266	33.66
564.607	33.96
564.948	34.24
565.289	34.53
565.63	34.75
565.971	34.96
566.312	35.24
566.653	35.43
566.993	35.65
567.334	35.9
567.675	36.17
568.015	36.4
568.356	36.66
568.696	36.92
569.037	37.1
569.377	37.33
569.718	37.56
570.058	37.79
570.398	38.05
570.739	38.3
571.079	38.56
571.419	38.81
571.759	39.05
572.099	39.24
572.439	39.4
572.779	39.67
573.119	39.93
573.459	40.15
573.799	40.39
574.139	40.6
574.479	40.83
574.819	41
575.158	41.15
575.498	41.25
575.838	41.46
576.177	41.72
576.517	41.93
576.856	42.16
577.196	42.39
577.535	42.58
577.875	42.77
578.214	42.96
578.553	43.18
578.893	43.35
579.232	43.57
579.571	43.81
579.91	43.98
580.25	44.2
580.589	44.4
580.928	44.6
581.267	44.78
581.606	44.94
581.945	45.14
582.283	45.42
582.622	45.69
582.961	45.87
583.3	46.02
583.639	46.2
583.977	46.38
584.316	46.5
584.654	46.68
584.993	46.79
585.332	46.96
585.67	47.07
586.008	47.27
586.347	47.39
586.685	47.56
587.024	47.67
587.362	47.84
587.7	47.96
588.038	48.09
588.376	48.3
588.715	48.43
589.053	48.55
589.391	48.61
589.729	48.69
590.067	48.76
590.404	48.92
590.742	49.06
591.08	49.16
591.418	49.34
591.756	49.46
592.093	49.55
592.431	49.67
592.769	49.79
593.106	49.9
593.444	50.06
593.781	50.14
594.119	50.22
594.456	50.34
594.793	50.47
595.131	50.57
595.468	50.63
595.805	50.8
596.143	50.92
596.48	51.04
596.817	51.07
597.154	51.2
597.491	51.23
597.828	51.29
598.165	51.38
598.502	51.42
598.839	51.38
599.176	51.56
599.512	51.66
599.849	51.72
600.186	51.83
600.523	51.9
600.859	52.03
601.196	52.16
601.532	52.18
601.869	52.22
602.205	52.33
602.542	52.45
602.878	52.45
603.215	52.47
603.551	52.54
603.887	52.67
604.223	52.71
604.56	52.76
604.896	52.82
605.232	52.85
605.568	52.9
605.904	53.06
606.24	53.12
606.576	53.18
606.912	53.3
607.248	53.31
607.583	53.36
607.919	53.35
608.255	53.46
608.591	53.57
608.926	53.62
609.262	53.68
609.597	53.69
609.933	53.76
610.268	53.82
610.604	53.86
610.939	53.95
611.275	54.08
611.61	54.14
611.945	54.24
612.281	54.29
612.616	54.39
612.951	54.53
613.286	54.59
613.621	54.59
613.956	54.59
614.291	54.69
614.626	54.74
614.961	54.86
615.296	54.81
615.631	54.84
615.966	54.96
616.3	54.95
616.635	55.05
616.97	55.16
617.304	55.21
617.639	55.31
617.973	55.33
618.308	55.25
618.642	55.34
618.977	55.39
619.311	55.44
619.646	55.44
619.98	55.43
620.314	55.39
620.648	55.45
620.983	55.54
621.317	55.6
621.651	55.73
621.985	55.72
622.319	55.84
622.653	55.84
622.987	55.85
623.321	55.96
623.655	56.05
623.988	56.06
624.322	56.13
624.656	56.12
624.99	56.14
625.323	56.27
625.657	56.37
625.99	56.38
626.324	56.48
626.657	56.52
626.991	56.49
627.324	56.55
627.658	56.55
627.991	56.61
628.324	56.64
628.657	56.61
628.991	56.72
629.324	56.74
629.657	56.88
629.99	56.89
630.323	56.89
630.656	56.8
630.989	56.83
631.322	56.92
631.655	57.02
631.987	57.07
632.32	57.05
632.653	56.99
632.986	57.05
633.318	56.97
633.651	57
633.984	57.06
634.316	57.15
634.649	57.29
634.981	57.37
635.313	57.41
635.646	57.54
635.978	57.5
636.31	57.5
636.643	57.38
636.975	57.39
637.307	57.5
637.639	57.72
637.971	57.74
638.303	57.69
638.635	57.67
638.967	57.72
639.299	57.79
639.631	57.85
639.963	57.89
640.295	58.11
640.626	58.19
640.958	58.22
641.29	58.28
641.621	58.23
641.953	58.03
642.285	58
642.616	57.94
642.948	58.02
643.279	58.12
643.61	58.24
643.942	58.37
644.273	58.3
644.604	58.11
644.936	58.2
645.267	58.24
645.598	58.22
645.929	58.29
646.26	58.24
646.591	58.3
646.922	58.32
647.253	58.17
647.584	58.12
647.915	58.23
648.245	58.15
648.576	58.23
648.907	58.32
649.238	58.35
649.568	58.42
649.899	58.41
650.229	58.46
650.56	58.51
650.89	58.47
651.221	58.59
651.551	58.67
651.882	58.59
652.212	58.66
652.542	58.66
652.872	58.61
653.203	58.66
653.533	58.65
653.863	58.51
654.193	58.75
654.523	58.78
654.853	58.66
655.183	58.69
655.513	58.67
655.843	58.74
656.172	58.75
656.502	58.81
656.832	58.84
657.162	58.91
657.491	58.87
657.821	59
658.15	59.06
658.48	59.03
658.809	59.17
659.139	59.2
659.468	59.27
659.798	59.36
660.127	59.34
660.456	59.37
660.785	59.5
661.115	59.39
661.444	59.42
661.773	59.47
662.102	59.48
662.431	59.43
662.76	59.49
663.089	59.51
663.418	59.38
663.747	59.46
664.076	59.34
664.404	59.36
664.733	59.24
665.062	59.15
665.39	59.34
665.719	59.21
666.048	59.26
666.376	59.25
666.705	59.26
667.033	59.31
667.362	59.34
667.69	59.36
668.018	59.42
668.347	59.36
668.675	59.46
669.003	59.53
669.331	59.69
669.659	59.75
669.987	59.81
670.315	59.89
670.643	59.83
670.971	59.77
671.299	59.87
671.627	59.93
671.955	59.89
672.283	59.78
672.61	59.83
672.938	59.82
673.266	59.8
673.593	59.81
673.921	59.76
674.249	59.63
674.576	59.72
674.904	59.76
675.231	59.83
675.558	59.81
675.886	59.8
676.213	59.67
676.54	59.52
676.867	59.49
677.195	59.5
677.522	59.51
677.849	59.57
678.176	59.48
678.503	59.61
678.83	59.65
679.157	59.74
679.484	59.79
679.81	59.9
680.137	59.89
680.464	59.88
680.791	60.01
681.117	60.19
681.444	60.18
681.771	60.15
682.097	60.15
682.424	60.14
682.75	60.18
683.077	60.36
683.403	60.44
683.729	60.37
684.056	60.48
684.382	60.68
684.708	60.68
685.034	60.7
685.36	60.59
685.686	60.6
686.012	60.45
686.339	60.45
686.664	60.32
686.99	60.43
687.316	60.38
687.642	60.25
687.968	60.17
688.294	60.16
688.619	60.15
688.945	60.17
689.271	60.31
689.596	60.4
689.922	60.33
690.247	60.45
690.573	60.61
690.898	60.59
691.224	60.43
691.549	60.68
691.874	60.79
692.2	60.67
692.525	60.69
692.85	60.97
693.175	61
693.5	61.01
693.825	60.98
694.15	60.98
694.475	61.07
694.8	61.14
695.125	61.16
695.45	61.13
695.775	61.1
696.099	60.96
696.424	60.91
696.749	60.82
697.073	60.69
697.398	60.72
697.723	60.84
698.047	60.9
698.372	60.93
698.696	61.03
699.02	61.14
699.345	61.21
699.669	61.24
699.993	61.31
700.318	61.28
700.642	61.22
700.966	61.28
701.29	61.29
701.614	61.26
701.938	61.34
702.262	61.48
702.586	61.57
702.91	61.69
703.234	61.76
703.557	61.9
703.881	62.08
704.205	62.12
704.529	61.96
704.852	61.84
705.176	61.75
705.499	61.62
705.823	61.57
706.146	61.54
706.47	61.4
706.793	61.39
707.117	61.48
707.44	61.55
707.763	61.54
708.086	61.48
708.409	61.51
708.733	61.39
709.056	61.21
709.379	61.12
709.702	60.95
710.025	60.82
710.348	60.7
710.671	60.5
710.993	60.48
711.316	60.42
711.639	60.6
711.962	60.6
712.284	60.66
712.607	60.7
712.93	60.63
713.252	60.6
713.575	60.65
713.897	60.89
714.22	60.97
714.542	61.05
714.864	61.17
715.187	61.16
715.509	61.28
715.831	61.46
716.153	61.6
716.475	61.73
716.798	61.84
717.12	61.83
717.442	62.07
717.764	62.22
718.085	62.29
718.407	62.25
718.729	62.3
719.051	62.32
719.373	62.2
719.695	62.43
720.016	62.36
720.338	62.07
720.659	61.86
720.981	61.73
721.302	61.8
721.624	61.76
721.945	61.74
722.267	61.56
722.588	61.36
722.909	61.26
723.231	61.25
723.552	61.47
723.873	61.72
724.194	61.67
724.515	61.48
724.836	61.65
725.157	61.6
725.478	61.37
725.799	61.41
726.12	61.57
726.441	61.37
726.762	61.64
727.083	61.77
727.403	61.69
727.724	61.68
728.045	61.39
728.365	61.52
728.686	61.7
729.006	61.72
729.327	61.91
729.647	61.91
729.967	61.9
730.288	61.76
730.608	61.88
730.928	61.8
731.249	61.74
731.569	61.83
731.889	61.99
732.209	62.2
732.529	62.1
732.849	62.04
733.169	62.04
733.489	62.13
733.809	62.2
734.129	62.14
734.448	62.29
734.768	62.69
735.088	62.71
735.408	62.56
735.727	62.66
736.047	62.45
736.366	62.36
736.686	62.38
737.005	62.1
737.325	61.76
737.644	61.75
737.963	61.66
738.283	61.45
738.602	61.28
738.921	61.26
739.24	61.45
739.56	61.64
739.879	61.68
740.198	61.52
740.517	61.62
740.836	61.73
741.155	61.74
741.473	61.61
741.792	61.43
742.111	61.58
742.43	61.53
742.748	61.51
743.067	61.68
743.386	61.91
743.704	62.17
744.023	62.41
744.341	62.66
744.66	62.88
744.978	63.06
745.297	63.23
745.615	63.39
745.933	63.16
746.252	63.25
746.57	63.23
746.888	62.95
747.206	62.54
747.524	62.4
747.842	62.37
748.16	62.21
748.478	62.27
748.796	62.04
749.114	62.24
749.432	62.54
749.749	62.89
750.067	62.82
750.385	62.83
750.703	62.59
751.02	62.61
751.338	62.84
751.655	62.68
751.973	62.68
752.29	62.41
752.608	62.45
752.925	61.92
753.242	62.04
753.56	62.1
753.877	62.64
754.194	62.62
754.511	62.86
754.828	62.8
755.145	63
755.462	63.01
755.779	62.96
756.096	62.9
756.413	62.74
756.73	62.81
757.047	62.83
757.364	63.09
757.68	62.97
757.997	62.77
758.314	63.06
758.63	63.06
758.947	63.38
759.264	63.28
759.58	63.76
759.896	63.57
760.213	63.79
760.529	63.5
760.846	63.93
761.162	63.91
761.478	64.05
761.794	63.71
762.11	63.7
762.426	63.59
762.743	63.63
763.059	63.28
763.375	63
763.69	62.82
764.006	62.89
764.322	63.13
764.638	63.31
764.954	63.42
765.27	63.33
765.585	63.22
765.901	63.33
766.216	63.16
766.532	63.23
766.848	63.25
767.163	63.47
767.478	63.33
767.794	63.14
768.109	63.31
768.424	63.47
768.74	63.79
769.055	63.99
769.37	63.9
769.685	64.25
770	64.2
770.315	64.33
770.63	64.33
770.945	64.08
771.26	63.85
771.575	63.98
771.89	63.58
772.205	63.49
772.52	63.74
772.834	63.91
773.149	63.89
773.464	63.73
773.778	63.5
774.093	63.6
774.407	63.58
774.722	63.74
775.036	63.72
775.351	63.3
775.665	62.93
775.979	63
776.293	62.82
776.608	63.28
776.922	63.34
777.236	63.34
777.55	63.43
777.864	63.3
778.178	62.88
778.492	63.61
778.806	63.83
779.12	63.54
779.434	63.42
779.747	63.68
780.061	63.84
780.375	64.18
780.689	63.83
781.002	64.15
781.316	64.39
781.629	64.58
781.943	64.79
782.256	64.79
782.57	64.86
782.883	65.06
783.196	64.82
783.51	65.16
783.823	65.15
784.136	64.91
784.449	64.88
784.762	64.99
785.075	64.9
785.388	64.74
785.701	64.76
786.014	64.86
786.327	64.58
786.64	64.5
786.953	64.73
787.266	64.54
787.578	63.94
787.891	63.14
788.204	62.9
788.516	63.24
788.829	63.65
789.141	63.71
789.454	63.49
789.766	63.4
790.079	63.36
790.391	63.38
790.703	63.38
791.016	63.86
791.328	63.75
791.64	63.66
791.952	63.8
792.264	63.64
792.576	63.83
792.888	63.91
793.2	63.94
793.512	63.47
793.824	63.8
794.136	63.87
794.448	64.24
794.76	63.9
795.071	63.72
795.383	63.33
795.695	62.74
796.006	62.91
796.318	62.85
796.629	62.95
796.941	62.86
797.252	62.44
797.564	62.11
797.875	61.82
798.186	61.67
798.497	61.29
798.809	61.78
799.12	61.48
799.431	61.91
799.742	62.05
800.053	62.31
800.364	61.84
800.675	62.05
800.986	61.68
801.297	62.58
801.608	62.57
801.918	62.47
802.229	62.79
802.54	63.3
802.851	63.51
803.161	63.65
803.472	63.92
803.782	65.19
804.093	65.67
804.403	65.87
804.714	65.77
805.024	65.87
805.334	65.36
805.645	65.72
805.955	65.82
806.265	66.07
806.575	65.52
806.885	65.66
807.195	65.52
807.505	65.66
807.815	65.14
808.125	65.09
808.435	65.19
808.745	65.42
809.055	64.33
809.365	64.17
809.674	63.63
809.984	63.4
810.294	62.79
810.603	62.33
810.913	61.98
811.222	62.27
811.532	62.47
811.841	62.61
812.151	62.55
812.46	62.74
812.769	62.08
813.079	61.92
813.388	62.26
813.697	62.41
814.006	62.69
814.315	62.43
814.624	62.23
814.933	62.55
815.242	62.68
815.551	63.77
815.86	64.14
816.169	63.82
816.478	63.82
816.786	63.89
817.095	64.15
817.404	64.05
817.712	63.76
818.021	63.94
818.33	63.57
818.638	63.83
818.947	63.42
819.255	63.66
819.563	63.93
819.872	63.95
820.18	64.21
820.488	64.09
820.796	64.27
821.105	64.29
821.413	64.32
821.721	64.21
822.029	64.12
822.337	64.21
822.645	64.37
822.953	64.53
823.26	64.52
823.568	64.29
823.876	64.36
824.184	64.55
824.491	64.38
824.799	64.37
825.107	64.46
825.414	64.59
825.722	64.58
826.029	64.48
826.337	64.49
826.644	64.35
826.951	64.26
827.259	64.23
827.566	64.32
827.873	64.28
828.18	64.5
828.488	64.7
828.795	64.77
829.102	64.71
829.409	64.34
829.716	64.19
830.023	64.41
830.329	64.59
830.636	64.54
830.943	64.83
831.25	65.07
831.557	64.9
831.863	64.6
832.17	64.4
832.476	64.44
832.783	64.58
833.089	64.31
833.396	64.52
833.702	65.03
834.009	64.76
834.315	65.11
834.621	64.95
834.928	64.81
835.234	64.15
835.54	64.21
835.846	64.1
836.152	64.02
836.458	64.37
836.764	63.95
837.07	63.72
837.376	63.89
837.682	63.56
837.988	63.84
838.293	63.89
838.599	64.01
838.905	64.76
839.211	64.52
839.516	64.88
839.822	64.89
840.127	64.11
840.433	64.46
840.738	63.35
841.044	62.61
841.349	62.13
841.654	62.51
841.959	62.41
842.265	62.88
842.57	63.73
842.875	63.91
843.18	64.1
843.485	63.7
843.79	63.5
844.095	64.04
844.4	62.87
844.705	63.59
845.01	65.29
845.315	64.57
845.619	64.88
845.924	66.03
846.229	66.5
846.533	67.62
846.838	66.13
847.142	68.64
847.447	68.66
847.751	69.26
848.056	69.33
848.36	70.85
848.664	70.91
848.969	70.06
849.273	67.4
849.577	68.8
849.881	69.22
850.185	68.67
850.489	70.64
850.794	70.35
851.097	68.41
851.401	65.23
851.705	65.46
852.009	63.8
852.313	63.53
852.617	62.32
852.92	63.9
853.224	65.55
853.528	62.39
853.831	65.37
854.135	63.29
854.438	63.17
854.742	62.43
855.045	63.12
855.349	63.68
855.652	66.65
855.955	67.44
856.259	65.81
856.562	65.35
856.865	64
857.168	62.67
857.471	64.49
857.774	65.45
858.077	63.74
858.38	66.3
858.683	66.51
858.986	67.6
859.289	65.95
859.592	67.96
859.894	70.93
860.197	69.06
860.5	69.21
860.802	68.85
861.105	70.29
861.407	68.74
861.71	67.58
862.012	65.87
862.315	63.49
862.617	66.12
862.919	67.07
863.222	68.91
863.524	67.41
863.826	67.77
864.128	70.51
864.43	72.77
864.732	72.69
865.034	70.71
865.336	71.73
865.638	71.47
865.94	68.84
866.242	66.88
866.544	67
866.846	70.55
867.147	73.27
867.449	70.28
867.751	69.48
868.052	70.48
868.354	70.62
868.655	74.59
868.957	73.63
869.258	72.38
869.56	69.66
869.861	72.89
870.162	71.21
870.463	69.13
870.765	68.5
871.066	69.01
871.367	71.5
871.668	70.02
871.969	69.27
872.27	69.89
872.571	70.05
872.872	69.01
873.173	67.37
873.473	64.91
873.774	64.57
874.075	65.94
874.376	63.59
874.676	63.78
874.977	59.06
875.277	60.6
875.578	61.51
875.878	61.63
876.179	62.28
876.479	61.8
876.78	61.12
877.08	60.63
877.38	58.75
877.68	57.12
877.981	56.88
878.281	55.88
878.581	55.52
