Data from BA28415_Reflection_00015.txt Node
Date: Mon Nov 18 16:02:40 EST 2019
User: vgr7
Spectrometer: USB2G7710
Scans to average: 3
Trigger mode: 4
Integration Time (sec): 2.000000E-2
Electric dark correction enabled: true
Boxcar width: 10
XAxis mode: Wavelengths
Number of Pixels in Spectrum: 2048
>>>>>Begin Spectral Data<<<<<
177.721	-76
178.105	-227.35
178.488	-95.37
178.871	-119.44
179.254	-13.97
179.636	-329.35
180.019	-32.38
180.402	-10.71
180.785	7.13
181.168	24.14
181.55	-48.89
181.933	59.53
182.316	80.75
182.698	68.51
183.081	35.63
183.463	22.23
183.846	18.11
184.228	-9.4
184.611	-22.78
184.993	-54.84
185.376	-48.97
185.758	-35.44
186.14	-98.43
186.522	-61.5
186.904	-90.74
187.287	-49.24
187.669	-109.69
188.051	-135.81
188.433	-466.79
188.815	-1158.99
189.197	331.39
189.579	160.12
189.961	257.32
190.342	296.87
190.724	210.93
191.106	149.67
191.488	145.19
191.869	159.09
192.251	181.2
192.633	77.55
193.014	64.85
193.396	12.38
193.777	-0.54
194.159	-27.27
194.54	-4.16
194.922	-2.58
195.303	5.08
195.684	1.34
196.065	47.15
196.447	197.07
196.828	-35.84
197.209	2.47
197.59	-543.56
197.971	-180
198.352	-232.14
198.733	-1802.65
199.114	-277.86
199.495	-221.87
199.876	270.12
200.257	308.63
200.638	-245.45
201.018	287.28
201.399	277.91
201.78	-435.48
202.16	246.81
202.541	229.6
202.922	229.23
203.302	227.32
203.683	247.95
204.063	308.77
204.444	485.18
204.824	290.17
205.204	247.14
205.585	1171.75
205.965	246.8
206.345	242.59
206.725	233.02
207.106	304.7
207.486	243.29
207.866	321.66
208.246	776.67
208.626	230.36
209.006	956.6
209.386	502.11
209.766	292.22
210.145	-1491.55
210.525	-644.68
210.905	2.87
211.285	68.34
211.664	35.11
212.044	36.19
212.424	19.89
212.803	-9.78
213.183	-16.48
213.562	-14.98
213.942	3.84
214.321	-2.42
214.701	12.08
215.08	38.88
215.459	35.47
215.838	3.89
216.218	-8.08
216.597	-1.85
216.976	-5.1
217.355	-7.79
217.734	-29.64
218.113	-39.88
218.492	-60.79
218.871	-81.91
219.25	-109.45
219.629	-143.39
220.008	-165.84
220.387	-173.98
220.766	-84.64
221.144	-262.26
221.523	-578.93
221.902	3353.16
222.28	-362.69
222.659	-118.28
223.037	-69.58
223.416	-75.07
223.794	-71.64
224.173	-73.63
224.551	-58.79
224.929	-51.05
225.308	-41.12
225.686	-20.51
226.064	-17.48
226.442	-11.87
226.821	0.62
227.199	-2.1
227.577	-8.76
227.955	-7.94
228.333	-7.21
228.711	-9.54
229.089	-2.58
229.467	-2.05
229.845	1.48
230.222	3.87
230.6	2.56
230.978	4.5
231.356	7.58
231.733	7.69
232.111	9.06
232.488	7.14
232.866	9.01
233.243	11.1
233.621	8.57
233.998	10.13
234.376	8.76
234.753	8
235.13	9.28
235.508	13.21
235.885	11.78
236.262	10.11
236.639	8.64
237.016	7.34
237.393	8.59
237.77	8.95
238.147	8.91
238.524	9.01
238.901	8.16
239.278	7.72
239.655	8.47
240.032	8.01
240.409	7.98
240.785	7.84
241.162	7.29
241.539	6.98
241.915	6.57
242.292	6.68
242.668	6.48
243.045	6.6
243.421	6.4
243.798	6.61
244.174	6.83
244.551	7.09
244.927	7.08
245.303	7.38
245.679	7.46
246.056	7.5
246.432	7.58
246.808	7.6
247.184	7.63
247.56	7.28
247.936	7.34
248.312	7.14
248.688	7.09
249.064	7.27
249.44	7.27
249.815	7.25
250.191	7.39
250.567	7.4
250.943	7.29
251.318	7.15
251.694	7.19
252.069	7.41
252.445	7.47
252.82	7.51
253.196	7.25
253.571	7.15
253.947	7.11
254.322	7
254.697	6.92
255.073	6.79
255.448	6.89
255.823	6.84
256.198	7.18
256.573	7.03
256.948	6.89
257.323	7.13
257.698	7.19
258.073	7.18
258.448	7.06
258.823	6.92
259.198	6.9
259.573	6.82
259.948	6.66
260.322	6.64
260.697	6.62
261.072	6.56
261.446	6.57
261.821	6.46
262.195	6.51
262.57	6.44
262.944	6.43
263.319	6.51
263.693	6.48
264.067	6.37
264.442	6.46
264.816	6.37
265.19	6.24
265.564	6.23
265.938	6
266.313	6.11
266.687	6.28
267.061	6.55
267.435	6.64
267.809	6.46
268.183	6.25
268.556	6.32
268.93	6.23
269.304	6.05
269.678	6.18
270.051	6.1
270.425	6.22
270.799	6.25
271.172	6.25
271.546	6.2
271.919	6.19
272.293	6.11
272.666	6.23
273.04	6.31
273.413	6.38
273.787	6.44
274.16	6.36
274.533	6.24
274.906	6.07
275.279	5.99
275.653	6.12
276.026	6.17
276.399	6.04
276.772	6.21
277.145	6.28
277.518	6.36
277.891	6.3
278.263	6.3
278.636	6.32
279.009	6.31
279.382	6.36
279.755	6.29
280.127	6.57
280.5	6.52
280.872	6.58
281.245	6.42
281.617	6.63
281.99	6.85
282.362	6.97
282.735	6.89
283.107	6.87
283.479	6.88
283.852	7
284.224	7.08
284.596	7.05
284.968	7.15
285.34	6.99
285.713	7.11
286.085	7.11
286.457	7.22
286.829	7.21
287.201	7.26
287.572	7.34
287.944	7.12
288.316	7.15
288.688	7.1
289.06	7.21
289.431	7.13
289.803	7.04
290.175	6.99
290.546	7.18
290.918	7.29
291.289	7.38
291.661	7.45
292.032	7.58
292.403	7.68
292.775	7.74
293.146	7.79
293.517	7.86
293.889	7.95
294.26	7.97
294.631	8.08
295.002	8.04
295.373	8.2
295.744	8.47
296.115	8.64
296.486	8.68
296.857	8.75
297.228	8.97
297.599	9.01
297.97	9.22
298.34	9.19
298.711	9.34
299.082	9.42
299.452	9.43
299.823	9.48
300.194	9.6
300.564	9.62
300.935	9.75
301.305	9.71
301.676	9.86
302.046	10
302.416	10.09
302.787	10.24
303.157	10.28
303.527	10.27
303.897	10.38
304.267	10.61
304.637	10.73
305.008	10.71
305.378	10.92
305.748	10.93
306.117	10.9
306.487	10.94
306.857	10.97
307.227	11.22
307.597	11.27
307.967	11.21
308.336	11.4
308.706	11.41
309.076	11.66
309.445	11.7
309.815	11.72
310.184	11.75
310.554	11.94
310.923	11.89
311.293	11.91
311.662	11.88
312.031	11.89
312.401	11.96
312.77	12.07
313.139	12.14
313.508	12.11
313.877	12.31
314.246	12.28
314.616	12.27
314.985	12.24
315.353	12.34
315.722	12.48
316.091	12.4
316.46	12.61
316.829	12.62
317.198	12.58
317.567	12.47
317.935	12.55
318.304	12.56
318.672	12.65
319.041	12.69
319.41	12.71
319.778	12.84
320.147	12.96
320.515	12.92
320.883	12.97
321.252	13.15
321.62	13.2
321.988	13.36
322.357	13.56
322.725	13.63
323.093	13.73
323.461	13.87
323.829	14.03
324.197	14.16
324.565	14.16
324.933	14.44
325.301	14.64
325.669	14.64
326.037	14.7
326.405	14.85
326.772	15.05
327.14	15.33
327.508	15.26
327.875	15.23
328.243	15.32
328.61	15.18
328.978	15.25
329.346	15.43
329.713	15.42
330.08	15.51
330.448	15.49
330.815	15.49
331.182	15.54
331.55	15.55
331.917	15.49
332.284	15.68
332.651	15.59
333.018	15.66
333.385	15.81
333.752	15.96
334.119	16.02
334.486	15.96
334.853	15.87
335.22	15.93
335.587	15.98
335.954	16.06
336.32	16.23
336.687	16.31
337.054	16.18
337.42	16.3
337.787	16.37
338.153	16.45
338.52	16.56
338.886	16.52
339.253	16.58
339.619	16.63
339.986	16.59
340.352	16.67
340.718	16.71
341.084	16.71
341.451	16.78
341.817	16.98
342.183	16.95
342.549	16.97
342.915	17.1
343.281	17.21
343.647	17.25
344.013	17.32
344.379	17.24
344.745	17.43
345.11	17.5
345.476	17.61
345.842	17.67
346.208	17.66
346.573	17.75
346.939	17.85
347.304	17.77
347.67	17.77
348.035	17.91
348.401	17.92
348.766	18.02
349.132	17.94
349.497	17.84
349.862	17.98
350.228	17.95
350.593	17.9
350.958	17.91
351.323	17.89
351.688	17.91
352.053	18.01
352.418	18.02
352.783	17.99
353.148	17.93
353.513	17.9
353.878	17.85
354.243	17.83
354.608	17.82
354.972	17.86
355.337	17.88
355.702	17.71
356.066	17.76
356.431	17.68
356.795	17.63
357.16	17.53
357.524	17.4
357.889	17.42
358.253	17.4
358.618	17.34
358.982	17.29
359.346	17.21
359.71	17.12
360.075	17.06
360.439	17.05
360.803	17.02
361.167	17.03
361.531	17.01
361.895	17
362.259	16.94
362.623	17
362.987	16.98
363.351	17.06
363.714	16.99
364.078	16.98
364.442	17.01
364.806	17.05
365.169	17.08
365.533	17.03
365.896	17.06
366.26	17.09
366.623	17.08
366.987	17.05
367.35	17.13
367.714	17.14
368.077	17.09
368.44	17.03
368.803	16.95
369.167	16.93
369.53	16.8
369.893	16.79
370.256	16.71
370.619	16.69
370.982	16.49
371.345	16.36
371.708	16.31
372.071	16.14
372.434	16.06
372.797	16.02
373.159	15.98
373.522	15.9
373.885	15.81
374.247	15.82
374.61	15.82
374.973	15.65
375.335	15.55
375.698	15.53
376.06	15.42
376.423	15.35
376.785	15.33
377.147	15.37
377.51	15.26
377.872	15.27
378.234	15.21
378.596	15.19
378.958	15.16
379.321	15.12
379.683	15.15
380.045	15.07
380.407	14.99
380.769	14.93
381.13	14.85
381.492	14.77
381.854	14.69
382.216	14.64
382.578	14.63
382.939	14.52
383.301	14.45
383.663	14.41
384.024	14.39
384.386	14.34
384.747	14.33
385.109	14.28
385.47	14.11
385.832	14.04
386.193	14.03
386.554	13.99
386.916	13.92
387.277	13.81
387.638	13.78
387.999	13.75
388.36	13.71
388.721	13.69
389.082	13.65
389.443	13.58
389.804	13.51
390.165	13.49
390.526	13.47
390.887	13.41
391.248	13.4
391.609	13.32
391.969	13.26
392.33	13.13
392.691	13.06
393.051	13.03
393.412	12.98
393.772	12.93
394.133	12.88
394.493	12.82
394.854	12.76
395.214	12.68
395.574	12.66
395.935	12.57
396.295	12.48
396.655	12.42
397.015	12.32
397.376	12.24
397.736	12.13
398.096	12.11
398.456	12.03
398.816	11.95
399.176	11.84
399.535	11.72
399.895	11.66
400.255	11.6
400.615	11.5
400.975	11.49
401.334	11.37
401.694	11.31
402.054	11.22
402.413	11.2
402.773	11.16
403.132	11.07
403.492	11.07
403.851	11.02
404.211	10.96
404.57	10.94
404.929	10.91
405.288	10.88
405.648	10.82
406.007	10.81
406.366	10.79
406.725	10.8
407.084	10.77
407.443	10.75
407.802	10.76
408.161	10.75
408.52	10.69
408.879	10.7
409.238	10.68
409.596	10.7
409.955	10.67
410.314	10.63
410.673	10.61
411.031	10.58
411.39	10.55
411.748	10.53
412.107	10.51
412.465	10.47
412.824	10.44
413.182	10.38
413.54	10.36
413.899	10.31
414.257	10.3
414.615	10.27
414.974	10.22
415.332	10.16
415.69	10.13
416.048	10.08
416.406	10.02
416.764	9.96
417.122	9.92
417.48	9.89
417.838	9.85
418.195	9.8
418.553	9.77
418.911	9.73
419.269	9.69
419.626	9.66
419.984	9.63
420.342	9.6
420.699	9.58
421.057	9.55
421.414	9.5
421.772	9.45
422.129	9.41
422.486	9.39
422.844	9.38
423.201	9.34
423.558	9.31
423.915	9.3
424.273	9.29
424.63	9.25
424.987	9.22
425.344	9.19
425.701	9.18
426.058	9.14
426.415	9.14
426.772	9.12
427.128	9.08
427.485	9.07
427.842	9.05
428.199	9
428.555	8.98
428.912	8.97
429.269	8.95
429.625	8.94
429.982	8.92
430.338	8.9
430.695	8.9
431.051	8.88
431.407	8.84
431.764	8.82
432.12	8.79
432.476	8.79
432.832	8.77
433.189	8.78
433.545	8.79
433.901	8.76
434.257	8.76
434.613	8.78
434.969	8.76
435.325	8.77
435.681	8.78
436.036	8.76
436.392	8.76
436.748	8.77
437.104	8.79
437.459	8.79
437.815	8.79
438.171	8.79
438.526	8.82
438.882	8.82
439.237	8.82
439.593	8.84
439.948	8.84
440.304	8.85
440.659	8.82
441.014	8.81
441.369	8.81
441.725	8.78
442.08	8.77
442.435	8.74
442.79	8.74
443.145	8.72
443.5	8.72
443.855	8.71
444.21	8.69
444.565	8.66
444.92	8.64
445.275	8.62
445.629	8.58
445.984	8.56
446.339	8.54
446.693	8.52
447.048	8.48
447.403	8.45
447.757	8.42
448.112	8.39
448.466	8.36
448.82	8.33
449.175	8.32
449.529	8.29
449.883	8.29
450.238	8.26
450.592	8.25
450.946	8.22
451.3	8.18
451.654	8.15
452.008	8.15
452.362	8.13
452.716	8.12
453.07	8.1
453.424	8.08
453.778	8.09
454.132	8.07
454.486	8.06
454.839	8.05
455.193	8.06
455.547	8.07
455.9	8.06
456.254	8.06
456.607	8.08
456.961	8.08
457.314	8.08
457.668	8.08
458.021	8.06
458.375	8.07
458.728	8.08
459.081	8.09
459.434	8.09
459.787	8.11
460.141	8.11
460.494	8.14
460.847	8.15
461.2	8.14
461.553	8.17
461.906	8.2
462.259	8.21
462.611	8.26
462.964	8.28
463.317	8.31
463.67	8.35
464.022	8.38
464.375	8.4
464.728	8.43
465.08	8.47
465.433	8.52
465.785	8.54
466.138	8.56
466.49	8.58
466.843	8.62
467.195	8.64
467.547	8.67
467.899	8.66
468.252	8.69
468.604	8.71
468.956	8.72
469.308	8.77
469.66	8.8
470.012	8.79
470.364	8.84
470.716	8.88
471.068	8.9
471.42	8.9
471.772	8.95
472.123	8.96
472.475	8.96
472.827	8.96
473.178	8.98
473.53	8.99
473.882	8.99
474.233	9.03
474.585	9
474.936	9.01
475.288	9.04
475.639	9.05
475.99	9.06
476.342	9.07
476.693	9.03
477.044	9.03
477.395	9.01
477.746	8.99
478.097	8.96
478.448	8.94
478.8	8.93
479.15	8.9
479.501	8.91
479.852	8.92
480.203	8.91
480.554	8.91
480.905	8.92
481.255	8.93
481.606	8.92
481.957	8.93
482.307	8.91
482.658	8.9
483.009	8.91
483.359	8.89
483.709	8.89
484.06	8.89
484.41	8.89
484.761	8.9
485.111	8.9
485.461	8.91
485.811	8.92
486.162	8.91
486.512	8.91
486.862	8.91
487.212	8.9
487.562	8.9
487.912	8.9
488.262	8.9
488.612	8.9
488.961	8.89
489.311	8.91
489.661	8.92
490.011	8.93
490.36	8.92
490.71	8.94
491.06	8.94
491.409	8.95
491.759	8.97
492.108	8.98
492.458	9
492.807	9.01
493.157	9.02
493.506	9.08
493.855	9.12
494.204	9.15
494.554	9.18
494.903	9.22
495.252	9.28
495.601	9.32
495.95	9.37
496.299	9.43
496.648	9.51
496.997	9.57
497.346	9.65
497.695	9.73
498.043	9.82
498.392	9.89
498.741	9.99
499.09	10.05
499.438	10.12
499.787	10.21
500.135	10.31
500.484	10.43
500.832	10.51
501.181	10.58
501.529	10.69
501.878	10.81
502.226	10.95
502.574	11.07
502.923	11.2
503.271	11.33
503.619	11.45
503.967	11.55
504.315	11.68
504.663	11.82
505.011	11.94
505.359	12.06
505.707	12.19
506.055	12.31
506.403	12.43
506.751	12.56
507.098	12.7
507.446	12.85
507.794	12.98
508.141	13.12
508.489	13.29
508.837	13.44
509.184	13.56
509.531	13.69
509.879	13.83
510.226	13.98
510.574	14.1
510.921	14.24
511.268	14.37
511.616	14.5
511.963	14.64
512.31	14.78
512.657	14.93
513.004	15.09
513.351	15.29
513.698	15.48
514.045	15.65
514.392	15.81
514.739	15.97
515.086	16.13
515.432	16.3
515.779	16.45
516.126	16.56
516.473	16.7
516.819	16.87
517.166	16.99
517.512	17.1
517.859	17.25
518.205	17.36
518.552	17.49
518.898	17.6
519.245	17.72
519.591	17.85
519.937	17.97
520.283	18.12
520.629	18.26
520.976	18.42
521.322	18.57
521.668	18.74
522.014	18.92
522.36	19.1
522.706	19.3
523.052	19.52
523.398	19.78
523.743	20.01
524.089	20.24
524.435	20.5
524.781	20.73
525.126	20.94
525.472	21.14
525.817	21.33
526.163	21.53
526.509	21.69
526.854	21.86
527.199	22
527.545	22.12
527.89	22.24
528.235	22.39
528.581	22.54
528.926	22.68
529.271	22.84
529.616	22.98
529.961	23.14
530.306	23.27
530.651	23.43
530.996	23.62
531.341	23.8
531.686	23.96
532.031	24.14
532.376	24.33
532.721	24.52
533.065	24.71
533.41	24.92
533.755	25.14
534.099	25.36
534.444	25.57
534.788	25.81
535.133	26.05
535.477	26.28
535.822	26.54
536.166	26.8
536.51	27.1
536.855	27.42
537.199	27.74
537.543	28.08
537.887	28.46
538.231	28.75
538.576	29.08
538.92	29.39
539.264	29.7
539.608	29.97
539.951	30.23
540.295	30.48
540.639	30.71
540.983	30.95
541.327	31.17
541.671	31.42
542.014	31.68
542.358	31.94
542.701	32.19
543.045	32.41
543.389	32.64
543.732	32.83
544.075	33.05
544.419	33.26
544.762	33.51
545.105	33.74
545.449	34.03
545.792	34.28
546.135	34.6
546.478	34.89
546.821	35.23
547.165	35.62
547.508	36.04
547.851	36.39
548.194	36.75
548.536	37.14
548.879	37.52
549.222	37.84
549.565	38.18
549.908	38.5
550.25	38.85
550.593	39.22
550.936	39.63
551.278	40
551.621	40.38
551.963	40.71
552.306	40.98
552.648	41.33
552.991	41.69
553.333	42
553.675	42.39
554.017	42.7
554.36	42.92
554.702	43.2
555.044	43.47
555.386	43.78
555.728	44.06
556.07	44.37
556.412	44.69
556.754	44.95
557.096	45.25
557.438	45.58
557.78	45.83
558.121	46.16
558.463	46.52
558.805	46.82
559.147	47.19
559.488	47.53
559.83	47.74
560.171	48
560.513	48.29
560.854	48.54
561.196	48.88
561.537	49.18
561.878	49.48
562.22	49.75
562.561	50.04
562.902	50.29
563.243	50.53
563.584	50.76
563.925	51.09
564.266	51.35
564.607	51.58
564.948	51.87
565.289	52.13
565.63	52.32
565.971	52.51
566.312	52.67
566.653	52.88
566.993	53.12
567.334	53.37
567.675	53.55
568.015	53.74
568.356	53.88
568.696	54.09
569.037	54.24
569.377	54.46
569.718	54.62
570.058	54.87
570.398	55.03
570.739	55.2
571.079	55.34
571.419	55.5
571.759	55.7
572.099	55.89
572.439	56.02
572.779	56.14
573.119	56.27
573.459	56.5
573.799	56.72
574.139	56.91
574.479	57.03
574.819	57.15
575.158	57.33
575.498	57.52
575.838	57.65
576.177	57.79
576.517	57.91
576.856	58.07
577.196	58.2
577.535	58.36
577.875	58.56
578.214	58.71
578.553	58.84
578.893	58.97
579.232	59.02
579.571	59.14
579.91	59.35
580.25	59.53
580.589	59.61
580.928	59.71
581.267	59.8
581.606	59.94
581.945	60.06
582.283	60.13
582.622	60.23
582.961	60.4
583.3	60.56
583.639	60.75
583.977	60.92
584.316	60.96
584.654	61.13
584.993	61.2
585.332	61.33
585.67	61.46
586.008	61.5
586.347	61.65
586.685	61.7
587.024	61.79
587.362	61.85
587.7	61.89
588.038	61.95
588.376	62.07
588.715	62.1
589.053	62.25
589.391	62.41
589.729	62.55
590.067	62.6
590.404	62.66
590.742	62.65
591.08	62.64
591.418	62.8
591.756	62.86
592.093	62.97
592.431	63.02
592.769	63.07
593.106	63.22
593.444	63.17
593.781	63.26
594.119	63.31
594.456	63.39
594.793	63.42
595.131	63.51
595.468	63.48
595.805	63.61
596.143	63.61
596.48	63.6
596.817	63.6
597.154	63.65
597.491	63.73
597.828	63.82
598.165	63.94
598.502	63.91
598.839	63.85
599.176	63.93
599.512	64.02
599.849	64.09
600.186	64.16
600.523	64.32
600.859	64.43
601.196	64.49
601.532	64.52
601.869	64.55
602.205	64.59
602.542	64.7
602.878	64.68
603.215	64.72
603.551	64.77
603.887	64.83
604.223	64.97
604.56	64.94
604.896	65.04
605.232	65.02
605.568	65.12
605.904	65.24
606.24	65.22
606.576	65.17
606.912	65.21
607.248	65.19
607.583	65.24
607.919	65.27
608.255	65.24
608.591	65.38
608.926	65.44
609.262	65.48
609.597	65.51
609.933	65.56
610.268	65.6
610.604	65.64
610.939	65.74
611.275	65.69
611.61	65.73
611.945	65.69
612.281	65.78
612.616	65.76
612.951	65.75
613.286	65.9
613.621	65.95
613.956	65.99
614.291	65.98
614.626	66.06
614.961	65.99
615.296	66.09
615.631	66.01
615.966	66.08
616.3	66.02
616.635	66
616.97	66.04
617.304	66.12
617.639	66.25
617.973	66.21
618.308	66.17
618.642	66.2
618.977	66.16
619.311	66.06
619.646	66.07
619.98	66.09
620.314	66.05
620.648	66.11
620.983	66.13
621.317	66.28
621.651	66.13
621.985	66.3
622.319	66.41
622.653	66.45
622.987	66.5
623.321	66.58
623.655	66.67
623.988	66.71
624.322	66.7
624.656	66.58
624.99	66.53
625.323	66.62
625.657	66.7
625.99	66.8
626.324	66.82
626.657	66.91
626.991	66.88
627.324	66.92
627.658	66.94
627.991	67.05
628.324	67.08
628.657	67.17
628.991	67.14
629.324	67.16
629.657	67.24
629.99	67.21
630.323	67.23
630.656	67.29
630.989	67.32
631.322	67.4
631.655	67.5
631.987	67.61
632.32	67.61
632.653	67.48
632.986	67.53
633.318	67.59
633.651	67.66
633.984	67.74
634.316	67.79
634.649	67.78
634.981	67.72
635.313	67.76
635.646	67.73
635.978	67.73
636.31	67.63
636.643	67.57
636.975	67.62
637.307	67.65
637.639	67.56
637.971	67.56
638.303	67.49
638.635	67.35
638.967	67.21
639.299	67.24
639.631	67.35
639.963	67.27
640.295	67.26
640.626	67.19
640.958	67.27
641.29	67.31
641.621	67.18
641.953	67.18
642.285	67.02
642.616	67.14
642.948	67.16
643.279	67.18
643.61	67.2
643.942	67.28
644.273	67.35
644.604	67.45
644.936	67.46
645.267	67.41
645.598	67.62
645.929	67.76
646.26	67.75
646.591	67.78
646.922	67.84
647.253	67.85
647.584	68
647.915	68.06
648.245	67.97
648.576	68.07
648.907	68.1
649.238	68.22
649.568	68.26
649.899	68.36
650.229	68.39
650.56	68.36
650.89	68.37
651.221	68.41
651.551	68.35
651.882	68.4
652.212	68.48
652.542	68.3
652.872	68.31
653.203	68.37
653.533	68.39
653.863	68.28
654.193	68.27
654.523	68.21
654.853	68.05
655.183	68.1
655.513	68.21
655.843	68.19
656.172	68.17
656.502	68.1
656.832	68.02
657.162	68.13
657.491	68.15
657.821	67.99
658.15	67.82
658.48	67.86
658.809	67.8
659.139	67.9
659.468	67.98
659.798	67.94
660.127	67.87
660.456	67.85
660.785	68.02
661.115	68.05
661.444	68.09
661.773	68.12
662.102	68.18
662.431	68.23
662.76	68.27
663.089	68.36
663.418	68.53
663.747	68.55
664.076	68.43
664.404	68.5
664.733	68.64
665.062	68.72
665.39	68.59
665.719	68.65
666.048	68.52
666.376	68.53
666.705	68.47
667.033	68.47
667.362	68.45
667.69	68.34
668.018	68.43
668.347	68.22
668.675	68.16
669.003	68.04
669.331	67.83
669.659	67.81
669.987	67.8
670.315	67.57
670.643	67.44
670.971	67.45
671.299	67.43
671.627	67.46
671.955	67.62
672.283	67.64
672.61	67.61
672.938	67.83
673.266	67.89
673.593	68.16
673.921	68.29
674.249	68.31
674.576	68.52
674.904	68.54
675.231	68.67
675.558	68.73
675.886	68.88
676.213	69.02
676.54	69.12
676.867	69.16
677.195	69.15
677.522	69.3
677.849	69.44
678.176	69.37
678.503	69.35
678.83	69.3
679.157	69.36
679.484	69.5
679.81	69.33
680.137	69.35
680.464	69.16
680.791	69.04
681.117	69.02
681.444	68.82
681.771	68.81
682.097	68.75
682.424	68.88
682.75	68.8
683.077	68.8
683.403	68.79
683.729	68.66
684.056	68.76
684.382	68.77
684.708	68.49
685.034	68.49
685.36	68.6
685.686	68.5
686.012	68.59
686.339	68.38
686.664	68.37
686.99	68.49
687.316	68.45
687.642	68.53
687.968	68.42
688.294	68.52
688.619	68.39
688.945	68.57
689.271	68.54
689.596	68.66
689.922	68.65
690.247	68.56
690.573	68.75
690.898	68.79
691.224	68.8
691.549	69.03
691.874	69.1
692.2	69.04
692.525	69.2
692.85	69.14
693.175	69.41
693.5	69.4
693.825	69.21
694.15	69.12
694.475	69.08
694.8	69.25
695.125	69.23
695.45	69.43
695.775	69.4
696.099	69.43
696.424	69.27
696.749	69.25
697.073	69.34
697.398	69.24
697.723	69.22
698.047	69.18
698.372	69.2
698.696	69.33
699.02	69.25
699.345	69.22
699.669	69.26
699.993	69.06
700.318	69.13
700.642	69.14
700.966	69.22
701.29	69.26
701.614	69.29
701.938	69.37
702.262	69.34
702.586	69.29
702.91	69.17
703.234	69.17
703.557	69.09
703.881	68.9
704.205	68.93
704.529	68.84
704.852	68.86
705.176	68.73
705.499	68.61
705.823	68.55
706.146	68.67
706.47	68.69
706.793	68.81
707.117	68.77
707.44	68.69
707.763	68.84
708.086	68.95
708.409	69.09
708.733	69.23
709.056	69.16
709.379	69.26
709.702	69.43
710.025	69.44
710.348	69.59
710.671	69.7
710.993	69.92
711.316	70.02
711.639	70.06
711.962	69.98
712.284	69.92
712.607	70.19
712.93	70.08
713.252	70.08
713.575	70.02
713.897	70.05
714.22	70
714.542	69.96
714.864	69.88
715.187	69.77
715.509	69.86
715.831	69.85
716.153	69.73
716.475	69.64
716.798	69.78
717.12	69.94
717.442	69.77
717.764	69.45
718.085	69.34
718.407	69.26
718.729	69.26
719.051	69.33
719.373	69.01
719.695	68.98
720.016	68.73
720.338	68.91
720.659	68.74
720.981	69.05
721.302	69.21
721.624	69.06
721.945	69.08
722.267	68.76
722.588	68.87
722.909	68.9
723.231	68.72
723.552	68.58
723.873	68.43
724.194	68.68
724.515	68.85
724.836	68.8
725.157	69.02
725.478	69.28
725.799	69.12
726.12	68.96
726.441	69
726.762	69.29
727.083	69.09
727.403	69.17
727.724	68.93
728.045	68.85
728.365	68.83
728.686	68.76
729.006	68.73
729.327	68.58
729.647	68.51
729.967	68.88
730.288	68.92
730.608	68.95
730.928	69.05
731.249	69.07
731.569	69.3
731.889	69
732.209	69.11
732.529	69.14
732.849	69.35
733.169	69.42
733.489	69.42
733.809	69.63
734.129	69.92
734.448	70.33
734.768	70.13
735.088	70.22
735.408	70.35
735.727	70.46
736.047	70.54
736.366	70.72
736.686	70.4
737.005	70.52
737.325	70.17
737.644	69.92
737.963	70
738.283	69.89
738.602	70.01
738.921	69.74
739.24	69.87
739.56	69.84
739.879	69.82
740.198	69.81
740.517	69.64
740.836	69.27
741.155	68.84
741.473	69.04
741.792	69.39
742.111	69.38
742.43	69.23
742.748	69
743.067	69.05
743.386	69.24
743.704	69.2
744.023	69.45
744.341	69.73
744.66	69.64
744.978	69.62
745.297	69.77
745.615	70.06
745.933	70.16
746.252	70.33
746.57	70.14
746.888	69.79
747.206	69.57
747.524	69.77
747.842	70.46
748.16	70.62
748.478	70.17
748.796	70.27
749.114	70.31
749.432	70.29
749.749	70.28
750.067	70.48
750.385	70.29
750.703	70.27
751.02	69.99
751.338	69.77
751.655	69.74
751.973	69.72
752.29	69.79
752.608	69.82
752.925	69.76
753.242	70.01
753.56	70.48
753.877	70.67
754.194	70.79
754.511	69.97
754.828	70
755.145	70.05
755.462	69.89
755.779	69.7
756.096	69.97
756.413	69.88
756.73	69.55
757.047	69.35
757.364	69.53
757.68	69.89
757.997	70.06
758.314	70.16
758.63	70.08
758.947	70.03
759.264	69.88
759.58	69.57
759.896	69.63
760.213	69.53
760.529	69.64
760.846	69.46
761.162	69.88
761.478	69.77
761.794	70.05
762.11	70.01
762.426	70.17
762.743	70.05
763.059	70.17
763.375	70.26
763.69	70.35
764.006	70.35
764.322	70.23
764.638	70.24
764.954	70.27
765.27	70.27
765.585	70.39
765.901	70.58
766.216	70.97
766.532	70.83
766.848	70.78
767.163	70.79
767.478	70.78
767.794	70.72
768.109	70.59
768.424	70.38
768.74	70.42
769.055	70.63
769.37	70.76
769.685	70.59
770	70.49
770.315	70.4
770.63	70.25
770.945	70.13
771.26	70.25
771.575	70.39
771.89	70.73
772.205	70.5
772.52	70.53
772.834	70.58
773.149	70.84
773.464	71.19
773.778	71.44
774.093	71.79
774.407	71.45
774.722	71.74
775.036	72.01
775.351	72.55
775.665	72.19
775.979	72.04
776.293	72.14
776.608	72.58
776.922	73.03
777.236	73.14
777.55	72.63
777.864	72.45
778.178	72.16
778.492	71.75
778.806	71.39
779.12	71.63
779.434	71.26
779.747	70.87
780.061	70.68
780.375	70.38
780.689	70.3
781.002	70.33
781.316	70.18
781.629	70.14
781.943	69.18
782.256	69.6
782.57	69.53
782.883	69.46
783.196	68.92
783.51	68.78
783.823	68.82
784.136	69.92
784.449	69.89
784.762	70.57
785.075	70.53
785.388	71.33
785.701	70.59
786.014	70.77
786.327	71.46
786.64	71.62
786.953	71.45
787.266	71.15
787.578	71.81
787.891	71.69
788.204	71.43
788.516	72.1
788.829	71.96
789.141	72.59
789.454	73.12
789.766	73.17
790.079	73.17
790.391	72.87
790.703	72.45
791.016	72.77
791.328	71.82
791.64	72.04
791.952	71.46
792.264	71.49
792.576	71.55
792.888	71.19
793.2	70.99
793.512	71.22
793.824	71.47
794.136	70.52
794.448	70.79
794.76	70.91
795.071	70.85
795.383	70.68
795.695	70.44
796.006	69.66
796.318	70.03
796.629	70.41
796.941	70.41
797.252	70.21
797.564	70.14
797.875	70.64
798.186	70.4
798.497	70.61
798.809	70.57
799.12	70.87
799.431	71.2
799.742	71.56
800.053	71.81
800.364	72.04
800.675	72.42
800.986	72.38
801.297	72.33
801.608	71.95
801.918	71.74
802.229	71.69
802.54	72
802.851	71.83
803.161	71.63
803.472	72.07
803.782	71.95
804.093	71.76
804.403	71.37
804.714	71.81
805.024	71.57
805.334	71.43
805.645	70.75
805.955	69.81
806.265	69.46
806.575	68.98
806.885	68.56
807.195	67.84
807.505	68.1
807.815	68.26
808.125	68.88
808.435	69.31
808.745	68.45
809.055	68.73
809.365	68.43
809.674	68.66
809.984	68.68
810.294	68.97
810.603	68.66
810.913	69.16
811.222	69.08
811.532	69.38
811.841	69.83
812.151	70.08
812.46	70.95
812.769	71.05
813.079	71.17
813.388	71.46
813.697	72.25
814.006	71.46
814.315	71.76
814.624	71.83
814.933	71.76
815.242	72.79
815.551	72.79
815.86	72.82
816.169	72.79
816.478	72.42
816.786	72.25
817.095	72.2
817.404	72.66
817.712	72.42
818.021	72.3
818.33	72.21
818.638	72.09
818.947	71.95
819.255	71.22
819.563	70.93
819.872	70.82
820.18	71.33
820.488	71.32
820.796	70.93
821.105	70.76
821.413	71.27
821.721	71.19
822.029	71.14
822.337	71.38
822.645	71.3
822.953	71.2
823.26	71.32
823.568	71.32
823.876	71.32
824.184	71.34
824.491	71.2
824.799	71.25
825.107	71.2
825.414	71.09
825.722	71.31
826.029	71.27
826.337	71.38
826.644	71.31
826.951	71.49
827.259	71.65
827.566	71.72
827.873	71.28
828.18	71.48
828.488	71.78
828.795	71.47
829.102	71.44
829.409	71.53
829.716	71.46
830.023	71.42
830.329	71.07
830.636	71.49
830.943	72.04
831.25	71.93
831.557	72.38
831.863	72.48
832.17	72.23
832.476	72.39
832.783	72.47
833.089	72.13
833.396	72.02
833.702	72.02
834.009	71.79
834.315	71.61
834.621	71.34
834.928	70.5
835.234	70.7
835.54	70.71
835.846	71.11
836.152	70.72
836.458	71.03
836.764	70.93
837.07	70.31
837.376	69.52
837.682	69.8
837.988	69.45
838.293	69.46
838.599	70.01
838.905	70.12
839.211	69.46
839.516	69.7
839.822	69.78
840.127	69.73
840.433	70.07
840.738	69.53
841.044	70.11
841.349	70.62
841.654	70.12
841.959	70.87
842.265	70.83
842.57	72.15
842.875	72.97
843.18	74.57
843.485	75.15
843.79	74.84
844.095	74.25
844.4	73.63
844.705	72.81
845.01	72.94
845.315	73.92
845.619	75.35
845.924	74.76
846.229	75.14
846.533	74.95
846.838	72.79
847.142	75.45
847.447	73.7
847.751	75.58
848.056	77.12
848.36	75.58
848.664	74.41
848.969	74.95
849.273	73.81
849.577	71.92
849.881	70.32
850.185	72.86
850.489	72.39
850.794	71.8
851.097	73.87
851.401	73.13
851.705	72.99
852.009	73.41
852.313	73.94
852.617	72.68
852.92	73.35
853.224	76.19
853.528	77.62
853.831	78.31
854.135	76.56
854.438	75.25
854.742	74.52
855.045	76.58
855.349	72.55
855.652	73.59
855.955	74.21
856.259	73.45
856.562	74.33
856.865	75.14
857.168	76.01
857.471	76.45
857.774	76.39
858.077	73.73
858.38	72.5
858.683	71.96
858.986	71.74
859.289	71.06
859.592	69.89
859.894	68.56
860.197	67.65
860.5	67.1
860.802	68.53
861.105	69.71
861.407	68.3
861.71	71.56
862.012	70.5
862.315	69.1
862.617	70.77
862.919	69.06
863.222	70.88
863.524	69.38
863.826	67.25
864.128	66.83
864.43	68.36
864.732	70.92
865.034	70.26
865.336	70.21
865.638	69.45
865.94	70.02
866.242	68.25
866.544	68.78
866.846	67.62
867.147	68.26
867.449	69.16
867.751	72.96
868.052	71.42
868.354	73.13
868.655	75.9
868.957	75.95
869.258	75.66
869.56	71.43
869.861	72.66
870.162	70.3
870.463	69.18
870.765	72.02
871.066	66.82
871.367	67.83
871.668	67.33
871.969	66.31
872.27	65.49
872.571	65.63
872.872	65.47
873.173	66.47
873.473	65.85
873.774	66.89
874.075	65.64
874.376	64.68
874.676	62.84
874.977	61.04
875.277	60.34
875.578	60.39
875.878	61.92
876.179	62.54
876.479	65.15
876.78	65.85
877.08	63.29
877.38	65.46
877.68	65.57
877.981	67.54
878.281	70.71
878.581	72.81
