Data from BA28308_Reflection_00010.txt Node
Date: Mon Nov 18 15:39:01 EST 2019
User: vgr7
Spectrometer: USB2G7710
Scans to average: 3
Trigger mode: 4
Integration Time (sec): 2.000000E-2
Electric dark correction enabled: true
Boxcar width: 10
XAxis mode: Wavelengths
Number of Pixels in Spectrum: 2048
>>>>>Begin Spectral Data<<<<<
177.721	52.61
178.105	59.75
178.488	22.07
178.871	72.14
179.254	38.23
179.636	-105.36
180.019	15.66
180.402	152.94
180.785	-10.43
181.168	-28.76
181.55	98.01
181.933	102.11
182.316	109
182.698	178.96
183.081	158.73
183.463	186.37
183.846	235.9
184.228	204.43
184.611	178.82
184.993	277.66
185.376	378.66
185.758	500.79
186.14	942.48
186.522	491.95
186.904	429.99
187.287	388.01
187.669	479.31
188.051	708.36
188.433	-669.44
188.815	-158.68
189.197	-174.18
189.579	-149.21
189.961	-83.64
190.342	-85.66
190.724	-49.16
191.106	-47.08
191.488	-25.72
191.869	-6.18
192.251	-15.47
192.633	-20.1
193.014	-55.25
193.396	-81.48
193.777	-99.22
194.159	-177.57
194.54	-109.44
194.922	-117.64
195.303	-143.41
195.684	-134.41
196.065	-121.15
196.447	-138.48
196.828	-187.28
197.209	-155.87
197.59	-150.11
197.971	-139.45
198.352	-84.05
198.733	-175.44
199.114	-169.89
199.495	-235.3
199.876	-189.86
200.257	-193.98
200.638	-126.93
201.018	-115.27
201.399	-98.83
201.78	-69.56
202.16	-66.06
202.541	-144.88
202.922	-184.62
203.302	-153.35
203.683	-150.17
204.063	-272.12
204.444	-293.74
204.824	-139.93
205.204	-559.57
205.585	-24614.29
205.965	3038.46
206.345	351.02
206.725	297.79
207.106	177.88
207.486	141.06
207.866	176.92
208.246	202.1
208.626	272.1
209.006	826.58
209.386	504.51
209.766	563.74
210.145	529.05
210.525	-7656.76
210.905	-248.13
211.285	-598.11
211.664	-497.99
212.044	-201.2
212.424	-75.97
212.803	-158.9
213.183	-49.75
213.562	-30.31
213.942	-17.91
214.321	-13.97
214.701	-0.58
215.08	-4
215.459	10.09
215.838	24.07
216.218	28.91
216.597	38.57
216.976	51.36
217.355	58.24
217.734	55.92
218.113	61.36
218.492	77.6
218.871	53.25
219.25	50.68
219.629	44.91
220.008	37.72
220.387	21.24
220.766	43.98
221.144	4.74
221.523	6.23
221.902	-25.76
222.28	-33.38
222.659	-23.7
223.037	-10.44
223.416	-17.63
223.794	-51.33
224.173	-45.77
224.551	-24.92
224.929	-27.42
225.308	-31.05
225.686	-24.25
226.064	-14.08
226.442	-10.82
226.821	-0.06
227.199	-1.44
227.577	-6.96
227.955	-2.33
228.333	0.45
228.711	-0.46
229.089	7.56
229.467	5.65
229.845	5
230.222	7.24
230.6	4.95
230.978	4.34
231.356	3.51
231.733	5.08
232.111	7.05
232.488	5.95
232.866	4.55
233.243	4.51
233.621	3.05
233.998	4.8
234.376	4.38
234.753	2.72
235.13	3.96
235.508	6.72
235.885	5.4
236.262	4.63
236.639	4.45
237.016	3.34
237.393	4.01
237.77	4.56
238.147	4.3
238.524	5.07
238.901	6.54
239.278	6.77
239.655	7.68
240.032	7.11
240.409	6.68
240.785	6.64
241.162	6.42
241.539	6.82
241.915	6.25
242.292	6.1
242.668	5.99
243.045	5.82
243.421	5.5
243.798	5.52
244.174	5.39
244.551	5.51
244.927	5.19
245.303	5.28
245.679	5.43
246.056	5.37
246.432	5.33
246.808	4.93
247.184	4.78
247.56	4.59
247.936	4.49
248.312	4.61
248.688	4.56
249.064	4.52
249.44	4.3
249.815	4.42
250.191	4.29
250.567	4.44
250.943	3.99
251.318	4.11
251.694	4.11
252.069	4.28
252.445	4.33
252.82	4.32
253.196	4.28
253.571	4.27
253.947	4.17
254.322	4.36
254.697	4.36
255.073	4.34
255.448	4.18
255.823	4.28
256.198	4.55
256.573	4.75
256.948	4.99
257.323	5.32
257.698	5.12
258.073	5.14
258.448	5.07
258.823	5.21
259.198	5.03
259.573	4.93
259.948	4.74
260.322	4.75
260.697	4.59
261.072	4.53
261.446	4.38
261.821	4.32
262.195	4.27
262.57	4.26
262.944	4.27
263.319	4.16
263.693	3.98
264.067	3.81
264.442	3.77
264.816	3.65
265.19	3.48
265.564	3.4
265.938	3.32
266.313	3.3
266.687	3.39
267.061	3.57
267.435	3.54
267.809	3.85
268.183	3.75
268.556	4.11
268.93	4.15
269.304	4.22
269.678	4.18
270.051	4.1
270.425	4.13
270.799	4.03
271.172	4.19
271.546	4.24
271.919	4.13
272.293	4.15
272.666	4.08
273.04	4
273.413	4.06
273.787	4.24
274.16	4.15
274.533	4.09
274.906	3.87
275.279	3.82
275.653	3.75
276.026	3.81
276.399	3.67
276.772	3.73
277.145	3.71
277.518	3.96
277.891	3.93
278.263	3.95
278.636	3.98
279.009	3.9
279.382	4.19
279.755	4.34
280.127	4.37
280.5	4.31
280.872	4.39
281.245	4.28
281.617	4.23
281.99	4.4
282.362	4.38
282.735	4.45
283.107	4.61
283.479	4.45
283.852	4.37
284.224	4.36
284.596	4.26
284.968	4.34
285.34	4.29
285.713	4.3
286.085	4.35
286.457	4.49
286.829	4.56
287.201	4.59
287.572	4.43
287.944	4.41
288.316	4.52
288.688	4.46
289.06	4.48
289.431	4.5
289.803	4.51
290.175	4.59
290.546	4.68
290.918	4.64
291.289	4.71
291.661	4.83
292.032	5.02
292.403	5.17
292.775	5.23
293.146	5.23
293.517	5.29
293.889	5.37
294.26	5.38
294.631	5.36
295.002	5.24
295.373	5.38
295.744	5.51
296.115	5.58
296.486	5.58
296.857	5.74
297.228	5.73
297.599	5.67
297.97	5.67
298.34	5.72
298.711	5.75
299.082	5.78
299.452	5.88
299.823	5.84
300.194	5.79
300.564	5.78
300.935	5.74
301.305	5.65
301.676	5.72
302.046	5.76
302.416	5.89
302.787	5.96
303.157	6.01
303.527	5.85
303.897	5.95
304.267	6.09
304.637	6.12
305.008	6.05
305.378	6.19
305.748	6.18
306.117	6.08
306.487	6.11
306.857	6.15
307.227	6.03
307.597	5.98
307.967	5.96
308.336	6.04
308.706	6.12
309.076	6.3
309.445	6.16
309.815	6.19
310.184	6.21
310.554	6.24
310.923	6.31
311.293	6.35
311.662	6.3
312.031	6.26
312.401	6.19
312.77	6.3
313.139	6.34
313.508	6.47
313.877	6.52
314.246	6.61
314.616	6.65
314.985	6.69
315.353	6.75
315.722	6.94
316.091	6.89
316.46	7.03
316.829	7.06
317.198	7.23
317.567	7.25
317.935	7.37
318.304	7.4
318.672	7.44
319.041	7.47
319.41	7.37
319.778	7.42
320.147	7.46
320.515	7.48
320.883	7.31
321.252	7.42
321.62	7.47
321.988	7.37
322.357	7.3
322.725	7.39
323.093	7.48
323.461	7.4
323.829	7.38
324.197	7.41
324.565	7.45
324.933	7.36
325.301	7.17
325.669	7.18
326.037	7.17
326.405	7.14
326.772	7.28
327.14	7.5
327.508	7.58
327.875	7.62
328.243	7.61
328.61	7.68
328.978	7.6
329.346	7.73
329.713	7.82
330.08	8.02
330.448	7.97
330.815	7.91
331.182	7.9
331.55	8.07
331.917	8
332.284	8.06
332.651	8.13
333.018	8.33
333.385	8.24
333.752	8.4
334.119	8.41
334.486	8.41
334.853	8.27
335.22	8.22
335.587	8.27
335.954	8.35
336.32	8.31
336.687	8.33
337.054	8.23
337.42	8.22
337.787	8.18
338.153	8.2
338.52	8.22
338.886	8.2
339.253	8.05
339.619	8.12
339.986	8.18
340.352	8.25
340.718	8.28
341.084	8.34
341.451	8.31
341.817	8.37
342.183	8.35
342.549	8.49
342.915	8.54
343.281	8.46
343.647	8.46
344.013	8.66
344.379	8.59
344.745	8.73
345.11	8.79
345.476	8.74
345.842	8.73
346.208	8.81
346.573	8.94
346.939	9.06
347.304	9.03
347.67	8.99
348.035	8.98
348.401	9.08
348.766	9.07
349.132	9.02
349.497	9.02
349.862	9.1
350.228	9.02
350.593	8.94
350.958	9.05
351.323	9.09
351.688	9.02
352.053	9.12
352.418	9.04
352.783	9.07
353.148	9.05
353.513	9.14
353.878	9.14
354.243	9.15
354.608	9.19
354.972	9.29
355.337	9.2
355.702	9.26
356.066	9.23
356.431	9.15
356.795	9.17
357.16	9.12
357.524	8.98
357.889	8.99
358.253	9.07
358.618	9.03
358.982	9
359.346	8.92
359.71	8.91
360.075	8.89
360.439	8.84
360.803	8.89
361.167	8.8
361.531	8.78
361.895	8.74
362.259	8.65
362.623	8.56
362.987	8.59
363.351	8.54
363.714	8.49
364.078	8.56
364.442	8.56
364.806	8.57
365.169	8.59
365.533	8.6
365.896	8.55
366.26	8.57
366.623	8.54
366.987	8.64
367.35	8.6
367.714	8.66
368.077	8.63
368.44	8.62
368.803	8.63
369.167	8.59
369.53	8.53
369.893	8.55
370.256	8.57
370.619	8.56
370.982	8.5
371.345	8.41
371.708	8.46
372.071	8.37
372.434	8.31
372.797	8.3
373.159	8.28
373.522	8.28
373.885	8.27
374.247	8.22
374.61	8.14
374.973	8.1
375.335	8.08
375.698	8.1
376.06	8.05
376.423	8.02
376.785	8.04
377.147	8.03
377.51	7.97
377.872	7.91
378.234	7.88
378.596	7.84
378.958	7.87
379.321	7.77
379.683	7.79
380.045	7.76
380.407	7.73
380.769	7.66
381.13	7.61
381.492	7.56
381.854	7.57
382.216	7.53
382.578	7.55
382.939	7.46
383.301	7.41
383.663	7.4
384.024	7.38
384.386	7.35
384.747	7.4
385.109	7.36
385.47	7.35
385.832	7.3
386.193	7.3
386.554	7.25
386.916	7.21
387.277	7.19
387.638	7.22
387.999	7.22
388.36	7.19
388.721	7.14
389.082	7.06
389.443	6.99
389.804	6.92
390.165	6.85
390.526	6.82
390.887	6.76
391.248	6.73
391.609	6.72
391.969	6.68
392.33	6.58
392.691	6.57
393.051	6.51
393.412	6.48
393.772	6.41
394.133	6.38
394.493	6.35
394.854	6.28
395.214	6.19
395.574	6.12
395.935	6.12
396.295	6.1
396.655	6.07
397.015	6.04
397.376	6.02
397.736	5.99
398.096	5.98
398.456	5.96
398.816	5.93
399.176	5.87
399.535	5.81
399.895	5.8
400.255	5.78
400.615	5.8
400.975	5.75
401.334	5.73
401.694	5.75
402.054	5.7
402.413	5.68
402.773	5.65
403.132	5.62
403.492	5.57
403.851	5.55
404.211	5.54
404.57	5.53
404.929	5.53
405.288	5.53
405.648	5.46
406.007	5.47
406.366	5.43
406.725	5.43
407.084	5.41
407.443	5.37
407.802	5.36
408.161	5.31
408.52	5.29
408.879	5.25
409.238	5.19
409.596	5.18
409.955	5.17
410.314	5.16
410.673	5.13
411.031	5.13
411.39	5.12
411.748	5.08
412.107	5.08
412.465	5.05
412.824	5.02
413.182	5.02
413.54	4.97
413.899	4.98
414.257	4.94
414.615	4.9
414.974	4.89
415.332	4.84
415.69	4.83
416.048	4.83
416.406	4.8
416.764	4.77
417.122	4.78
417.48	4.76
417.838	4.75
418.195	4.73
418.553	4.69
418.911	4.65
419.269	4.66
419.626	4.64
419.984	4.61
420.342	4.59
420.699	4.55
421.057	4.53
421.414	4.49
421.772	4.49
422.129	4.49
422.486	4.48
422.844	4.47
423.201	4.45
423.558	4.44
423.915	4.43
424.273	4.42
424.63	4.38
424.987	4.38
425.344	4.36
425.701	4.35
426.058	4.34
426.415	4.34
426.772	4.31
427.128	4.3
427.485	4.31
427.842	4.3
428.199	4.31
428.555	4.32
428.912	4.32
429.269	4.33
429.625	4.29
429.982	4.27
430.338	4.27
430.695	4.26
431.051	4.26
431.407	4.25
431.764	4.24
432.12	4.23
432.476	4.22
432.832	4.2
433.189	4.2
433.545	4.2
433.901	4.2
434.257	4.19
434.613	4.19
434.969	4.19
435.325	4.19
435.681	4.18
436.036	4.17
436.392	4.17
436.748	4.15
437.104	4.16
437.459	4.17
437.815	4.16
438.171	4.16
438.526	4.16
438.882	4.17
439.237	4.16
439.593	4.18
439.948	4.18
440.304	4.19
440.659	4.21
441.014	4.21
441.369	4.19
441.725	4.19
442.08	4.17
442.435	4.16
442.79	4.15
443.145	4.15
443.5	4.14
443.855	4.13
444.21	4.12
444.565	4.12
444.92	4.12
445.275	4.1
445.629	4.09
445.984	4.06
446.339	4.05
446.693	4.04
447.048	4.02
447.403	4
447.757	3.99
448.112	3.95
448.466	3.94
448.82	3.92
449.175	3.92
449.529	3.92
449.883	3.91
450.238	3.91
450.592	3.9
450.946	3.9
451.3	3.88
451.654	3.89
452.008	3.89
452.362	3.88
452.716	3.9
453.07	3.92
453.424	3.93
453.778	3.93
454.132	3.93
454.486	3.93
454.839	3.95
455.193	3.94
455.547	3.97
455.9	3.99
456.254	4
456.607	4.01
456.961	4.01
457.314	3.99
457.668	3.98
458.021	3.96
458.375	3.96
458.728	3.97
459.081	3.97
459.434	3.96
459.787	3.95
460.141	3.94
460.494	3.93
460.847	3.93
461.2	3.92
461.553	3.92
461.906	3.94
462.259	3.96
462.611	3.96
462.964	3.96
463.317	3.97
463.67	3.98
464.022	3.98
464.375	3.98
464.728	4
465.08	4.02
465.433	4.03
465.785	4.02
466.138	4.03
466.49	4.04
466.843	4.03
467.195	4.03
467.547	4.05
467.899	4.07
468.252	4.07
468.604	4.09
468.956	4.11
469.308	4.11
469.66	4.1
470.012	4.1
470.364	4.13
470.716	4.11
471.068	4.11
471.42	4.12
471.772	4.13
472.123	4.14
472.475	4.15
472.827	4.16
473.178	4.19
473.53	4.2
473.882	4.2
474.233	4.2
474.585	4.22
474.936	4.2
475.288	4.2
475.639	4.21
475.99	4.21
476.342	4.21
476.693	4.18
477.044	4.19
477.395	4.19
477.746	4.15
478.097	4.17
478.448	4.18
478.8	4.16
479.15	4.14
479.501	4.14
479.852	4.12
480.203	4.12
480.554	4.12
480.905	4.13
481.255	4.14
481.606	4.16
481.957	4.16
482.307	4.16
482.658	4.16
483.009	4.16
483.359	4.16
483.709	4.16
484.06	4.17
484.41	4.17
484.761	4.16
485.111	4.17
485.461	4.17
485.811	4.17
486.162	4.17
486.512	4.19
486.862	4.19
487.212	4.19
487.562	4.19
487.912	4.2
488.262	4.19
488.612	4.18
488.961	4.18
489.311	4.18
489.661	4.19
490.011	4.2
490.36	4.2
490.71	4.21
491.06	4.21
491.409	4.21
491.759	4.22
492.108	4.24
492.458	4.23
492.807	4.24
493.157	4.26
493.506	4.28
493.855	4.28
494.204	4.28
494.554	4.31
494.903	4.31
495.252	4.34
495.601	4.37
495.95	4.41
496.299	4.44
496.648	4.46
496.997	4.48
497.346	4.51
497.695	4.55
498.043	4.56
498.392	4.6
498.741	4.64
499.09	4.68
499.438	4.72
499.787	4.76
500.135	4.8
500.484	4.82
500.832	4.86
501.181	4.9
501.529	4.95
501.878	4.98
502.226	5.04
502.574	5.07
502.923	5.11
503.271	5.13
503.619	5.2
503.967	5.25
504.315	5.28
504.663	5.31
505.011	5.36
505.359	5.43
505.707	5.48
506.055	5.52
506.403	5.58
506.751	5.64
507.098	5.68
507.446	5.76
507.794	5.8
508.141	5.87
508.489	5.93
508.837	5.99
509.184	6.05
509.531	6.1
509.879	6.17
510.226	6.21
510.574	6.24
510.921	6.28
511.268	6.34
511.616	6.43
511.963	6.5
512.31	6.55
512.657	6.61
513.004	6.67
513.351	6.76
513.698	6.83
514.045	6.9
514.392	6.98
514.739	7.03
515.086	7.13
515.432	7.18
515.779	7.24
516.126	7.32
516.473	7.4
516.819	7.48
517.166	7.54
517.512	7.63
517.859	7.72
518.205	7.79
518.552	7.84
518.898	7.89
519.245	7.94
519.591	8.02
519.937	8.06
520.283	8.14
520.629	8.21
520.976	8.28
521.322	8.37
521.668	8.46
522.014	8.57
522.36	8.66
522.706	8.78
523.052	8.9
523.398	9.05
523.743	9.15
524.089	9.28
524.435	9.44
524.781	9.6
525.126	9.7
525.472	9.81
525.817	9.94
526.163	10.04
526.509	10.15
526.854	10.24
527.199	10.35
527.545	10.44
527.89	10.53
528.235	10.63
528.581	10.74
528.926	10.84
529.271	10.93
529.616	11.04
529.961	11.14
530.306	11.25
530.651	11.35
530.996	11.49
531.341	11.62
531.686	11.75
532.031	11.89
532.376	12.04
532.721	12.19
533.065	12.36
533.41	12.53
533.755	12.7
534.099	12.88
534.444	13.07
534.788	13.25
535.133	13.43
535.477	13.64
535.822	13.83
536.166	14.07
536.51	14.3
536.855	14.56
537.199	14.83
537.543	15.13
537.887	15.41
538.231	15.68
538.576	15.96
538.92	16.22
539.264	16.48
539.608	16.75
539.951	16.97
540.295	17.19
540.639	17.41
540.983	17.65
541.327	17.88
541.671	18.11
542.014	18.34
542.358	18.55
542.701	18.75
543.045	18.97
543.389	19.17
543.732	19.42
544.075	19.68
544.419	19.96
544.762	20.23
545.105	20.48
545.449	20.76
545.792	21.03
546.135	21.34
546.478	21.65
546.821	22.01
547.165	22.4
547.508	22.76
547.851	23.13
548.194	23.47
548.536	23.82
548.879	24.19
549.222	24.56
549.565	24.95
549.908	25.33
550.25	25.73
550.593	26.14
550.936	26.51
551.278	26.87
551.621	27.26
551.963	27.58
552.306	28.03
552.648	28.42
552.991	28.83
553.333	29.14
553.675	29.46
554.017	29.78
554.36	30.13
554.702	30.49
555.044	30.83
555.386	31.17
555.728	31.51
556.07	31.88
556.412	32.22
556.754	32.58
557.096	32.96
557.438	33.33
557.78	33.73
558.121	34.14
558.463	34.47
558.805	34.79
559.147	35.11
559.488	35.39
559.83	35.77
560.171	36.1
560.513	36.53
560.854	36.84
561.196	37.16
561.537	37.47
561.878	37.8
562.22	38.07
562.561	38.38
562.902	38.71
563.243	38.97
563.584	39.25
563.925	39.51
564.266	39.78
564.607	40.03
564.948	40.21
565.289	40.51
565.63	40.75
565.971	40.98
566.312	41.31
566.653	41.58
566.993	41.79
567.334	42.02
567.675	42.23
568.015	42.5
568.356	42.77
568.696	43.01
569.037	43.21
569.377	43.54
569.718	43.72
570.058	43.95
570.398	44.23
570.739	44.48
571.079	44.71
571.419	44.94
571.759	45.15
572.099	45.4
572.439	45.55
572.779	45.8
573.119	46.02
573.459	46.21
573.799	46.45
574.139	46.65
574.479	46.83
574.819	47.02
575.158	47.18
575.498	47.36
575.838	47.6
576.177	47.83
576.517	47.94
576.856	48.18
577.196	48.37
577.535	48.49
577.875	48.7
578.214	48.89
578.553	49.06
578.893	49.27
579.232	49.41
579.571	49.62
579.91	49.77
580.25	49.94
580.589	50.03
580.928	50.13
581.267	50.32
581.606	50.52
581.945	50.62
582.283	50.81
582.622	50.94
582.961	51.03
583.3	51.2
583.639	51.4
583.977	51.53
584.316	51.63
584.654	51.78
584.993	51.87
585.332	52.07
585.67	52.31
586.008	52.46
586.347	52.61
586.685	52.73
587.024	52.82
587.362	52.93
587.7	53.06
588.038	53.21
588.376	53.27
588.715	53.39
589.053	53.5
589.391	53.62
589.729	53.73
590.067	53.82
590.404	53.92
590.742	54.04
591.08	54.15
591.418	54.32
591.756	54.54
592.093	54.67
592.431	54.73
592.769	54.77
593.106	54.9
593.444	54.99
593.781	55.11
594.119	55.23
594.456	55.3
594.793	55.41
595.131	55.44
595.468	55.55
595.805	55.62
596.143	55.75
596.48	55.82
596.817	55.94
597.154	56.1
597.491	56.17
597.828	56.28
598.165	56.36
598.502	56.4
598.839	56.44
599.176	56.56
599.512	56.62
599.849	56.74
600.186	56.77
600.523	56.87
600.859	56.93
601.196	56.97
601.532	57.05
601.869	57.07
602.205	57.21
602.542	57.26
602.878	57.33
603.215	57.32
603.551	57.39
603.887	57.37
604.223	57.42
604.56	57.48
604.896	57.51
605.232	57.66
605.568	57.72
605.904	57.73
606.24	57.77
606.576	57.87
606.912	57.9
607.248	58.01
607.583	58.12
607.919	58.09
608.255	58.16
608.591	58.26
608.926	58.37
609.262	58.42
609.597	58.53
609.933	58.57
610.268	58.7
610.604	58.74
610.939	58.82
611.275	58.84
611.61	58.98
611.945	59.05
612.281	59.04
612.616	59.12
612.951	59.19
613.286	59.18
613.621	59.15
613.956	59.16
614.291	59.17
614.626	59.23
614.961	59.37
615.296	59.43
615.631	59.45
615.966	59.55
616.3	59.56
616.635	59.59
616.97	59.72
617.304	59.79
617.639	59.85
617.973	59.93
618.308	59.98
618.642	59.84
618.977	59.85
619.311	59.8
619.646	59.85
619.98	59.92
620.314	60.05
620.648	60.17
620.983	60.29
621.317	60.38
621.651	60.4
621.985	60.48
622.319	60.47
622.653	60.57
622.987	60.63
623.321	60.62
623.655	60.62
623.988	60.64
624.322	60.63
624.656	60.76
624.99	60.77
625.323	60.75
625.657	60.84
625.99	60.81
626.324	60.91
626.657	60.9
626.991	60.98
627.324	60.99
627.658	60.97
627.991	60.96
628.324	60.97
628.657	60.91
628.991	60.94
629.324	61.07
629.657	61.06
629.99	61.05
630.323	61.16
630.656	61.16
630.989	61.15
631.322	61.32
631.655	61.29
631.987	61.38
632.32	61.42
632.653	61.49
632.986	61.63
633.318	61.62
633.651	61.63
633.984	61.5
634.316	61.53
634.649	61.65
634.981	61.75
635.313	61.76
635.646	61.9
635.978	61.87
636.31	61.9
636.643	61.98
636.975	61.92
637.307	61.89
637.639	61.94
637.971	61.96
638.303	61.85
638.635	61.77
638.967	61.74
639.299	61.85
639.631	61.76
639.963	61.74
640.295	61.73
640.626	61.79
640.958	61.88
641.29	61.97
641.621	61.97
641.953	61.89
642.285	61.9
642.616	61.88
642.948	61.96
643.279	61.94
643.61	61.94
643.942	62.1
644.273	62.15
644.604	62.22
644.936	62.27
645.267	62.38
645.598	62.49
645.929	62.53
646.26	62.6
646.591	62.73
646.922	62.7
647.253	62.87
647.584	62.83
647.915	62.85
648.245	62.76
648.576	62.71
648.907	62.87
649.238	62.8
649.568	62.83
649.899	62.92
650.229	62.87
650.56	62.86
650.89	62.93
651.221	63
651.551	63.04
651.882	63.02
652.212	62.98
652.542	63.01
652.872	63.04
653.203	62.98
653.533	62.95
653.863	63.04
654.193	62.94
654.523	63.04
654.853	63.11
655.183	63.25
655.513	63.33
655.843	63.18
656.172	63.27
656.502	63.28
656.832	63.2
657.162	63.15
657.491	63.22
657.821	63.18
658.15	63.13
658.48	63.1
658.809	63.11
659.139	63.15
659.468	63.19
659.798	63.08
660.127	63.1
660.456	63.14
660.785	63.14
661.115	63.2
661.444	63.18
661.773	63.19
662.102	63.11
662.431	63.11
662.76	63.19
663.089	63.24
663.418	63.2
663.747	63.25
664.076	63.35
664.404	63.33
664.733	63.28
665.062	63.38
665.39	63.39
665.719	63.5
666.048	63.41
666.376	63.3
666.705	63.52
667.033	63.48
667.362	63.51
667.69	63.39
668.018	63.44
668.347	63.56
668.675	63.65
669.003	63.71
669.331	63.74
669.659	63.67
669.987	63.57
670.315	63.78
670.643	63.71
670.971	63.66
671.299	63.59
671.627	63.54
671.955	63.61
672.283	63.65
672.61	63.67
672.938	63.73
673.266	63.85
673.593	63.67
673.921	63.66
674.249	63.72
674.576	63.95
674.904	63.86
675.231	63.83
675.558	63.6
675.886	63.58
676.213	63.47
676.54	63.5
676.867	63.58
677.195	63.48
677.522	63.59
677.849	63.7
678.176	63.82
678.503	63.92
678.83	63.88
679.157	63.87
679.484	63.77
679.81	63.76
680.137	63.67
680.464	63.79
680.791	63.81
681.117	63.84
681.444	63.84
681.771	63.92
682.097	63.94
682.424	64.07
682.75	64.11
683.077	64.22
683.403	64.2
683.729	64.29
684.056	64.52
684.382	64.52
684.708	64.52
685.034	64.47
685.36	64.37
685.686	64.43
686.012	64.5
686.339	64.66
686.664	64.83
686.99	64.91
687.316	64.95
687.642	65.1
687.968	65.14
688.294	65.08
688.619	65.11
688.945	65.06
689.271	65.06
689.596	65.04
689.922	65.02
690.247	65.2
690.573	65.26
690.898	65.02
691.224	65.13
691.549	65.17
691.874	65.06
692.2	65.09
692.525	65.03
692.85	64.96
693.175	64.7
693.5	64.59
693.825	64.59
694.15	64.45
694.475	64.31
694.8	64.12
695.125	64.23
695.45	64.17
695.775	64.25
696.099	64.43
696.424	64.43
696.749	64.49
697.073	64.35
697.398	64.23
697.723	64.2
698.047	64.09
698.372	64.05
698.696	64.25
699.02	64.22
699.345	64.33
699.669	64.44
699.993	64.53
700.318	64.56
700.642	64.65
700.966	64.78
701.29	64.87
701.614	65.01
701.938	64.81
702.262	64.85
702.586	64.75
702.91	64.48
703.234	64.49
703.557	64.57
703.881	64.78
704.205	64.76
704.529	64.79
704.852	64.87
705.176	64.85
705.499	64.67
705.823	64.8
706.146	64.68
706.47	64.61
706.793	64.77
707.117	64.9
707.44	64.9
707.763	64.74
708.086	64.86
708.409	64.72
708.733	64.8
709.056	64.71
709.379	64.73
709.702	64.96
710.025	64.96
710.348	65.02
710.671	64.75
710.993	64.94
711.316	64.93
711.639	64.99
711.962	65.05
712.284	65.19
712.607	65.28
712.93	65.16
713.252	65.17
713.575	65.18
713.897	65.12
714.22	64.95
714.542	65.18
714.864	64.98
715.187	65.09
715.509	65.23
715.831	65.22
716.153	65.48
716.475	65.33
716.798	65.5
717.12	65.31
717.442	65.52
717.764	65.47
718.085	65.58
718.407	65.63
718.729	65.68
719.051	65.67
719.373	65.46
719.695	65.43
720.016	65.38
720.338	65.45
720.659	65.55
720.981	65.54
721.302	65.45
721.624	65.43
721.945	65.35
722.267	65.23
722.588	65.36
722.909	65.09
723.231	65.13
723.552	64.97
723.873	65.06
724.194	65.09
724.515	64.99
724.836	65.01
725.157	64.99
725.478	64.99
725.799	64.92
726.12	65.26
726.441	65.5
726.762	65.79
727.083	65.53
727.403	65.5
727.724	65.88
728.045	65.81
728.365	66
728.686	66.35
729.006	66.32
729.327	66.32
729.647	66.33
729.967	66.43
730.288	66.31
730.608	66.26
730.928	66.24
731.249	66.3
731.569	66.36
731.889	66.28
732.209	66.34
732.529	66.4
732.849	66.09
733.169	66.06
733.489	65.94
733.809	66.12
734.129	66.02
734.448	65.96
734.768	65.91
735.088	65.87
735.408	65.8
735.727	65.96
736.047	66.14
736.366	66.21
736.686	66.21
737.005	66.22
737.325	66.3
737.644	66.33
737.963	66.24
738.283	66.02
738.602	66.2
738.921	66.23
739.24	66.32
739.56	66.52
739.879	66.75
740.198	66.66
740.517	66.62
740.836	66.55
741.155	66.54
741.473	66.8
741.792	66.77
742.111	66.46
742.43	66.63
742.748	66.55
743.067	66.64
743.386	66.84
743.704	67.18
744.023	66.96
744.341	66.72
744.66	66.92
744.978	67.08
745.297	67.17
745.615	67.04
745.933	67.19
746.252	67.14
746.57	66.87
746.888	66.75
747.206	66.71
747.524	66.77
747.842	66.58
748.16	66.39
748.478	66.57
748.796	67.01
749.114	66.72
749.432	66.38
749.749	66.35
750.067	66.14
750.385	65.89
750.703	66.18
751.02	66.25
751.338	66.24
751.655	66.15
751.973	65.64
752.29	65.82
752.608	65.81
752.925	65.71
753.242	65.67
753.56	65.54
753.877	65.54
754.194	65.42
754.511	65.64
754.828	65.8
755.145	65.67
755.462	65.46
755.779	65.2
756.096	65.55
756.413	65.63
756.73	65.99
757.047	66.28
757.364	66.21
757.68	66.26
757.997	66.22
758.314	66.22
758.63	66.48
758.947	66.11
759.264	66.08
759.58	66.18
759.896	66.3
760.213	66.54
760.529	66.7
760.846	66.84
761.162	66.88
761.478	66.91
761.794	66.93
762.11	67.12
762.426	67.41
762.743	67.24
763.059	67.01
763.375	66.58
763.69	66.69
764.006	66.42
764.322	66.53
764.638	66.55
764.954	66.51
765.27	66.68
765.585	66.87
765.901	66.72
766.216	66.74
766.532	66.79
766.848	66.67
767.163	66.52
767.478	66.36
767.794	66.1
768.109	65.84
768.424	65.9
768.74	65.62
769.055	65.3
769.37	65.55
769.685	65.48
770	65.63
770.315	65.36
770.63	65.95
770.945	66.06
771.26	66.06
771.575	66.12
771.89	65.98
772.205	66.07
772.52	66.44
772.834	66.58
773.149	66.27
773.464	66.5
773.778	66.8
774.093	67.27
774.407	67.66
774.722	67.69
775.036	68
775.351	68.09
775.665	68.48
775.979	68.49
776.293	68.71
776.608	68.77
776.922	68.59
777.236	68.18
777.55	68.21
777.864	68.23
778.178	68.12
778.492	68.33
778.806	68.16
779.12	67.75
779.434	67.83
779.747	68.1
780.061	68.04
780.375	67.78
780.689	68.1
781.002	67.78
781.316	68.36
781.629	67.82
781.943	67.93
782.256	67.97
782.57	67.6
782.883	67.85
783.196	68.03
783.51	67.63
783.823	67.91
784.136	67.7
784.449	67.55
784.762	68.29
785.075	67.81
785.388	68.29
785.701	68.33
786.014	68.32
786.327	69.09
786.64	69.26
786.953	69.18
787.266	68.37
787.578	68.63
787.891	68.07
788.204	67.82
788.516	67.68
788.829	67.37
789.141	67.43
789.454	67.58
789.766	67.53
790.079	67.63
790.391	67.56
790.703	67.34
791.016	67.32
791.328	67.17
791.64	67.61
791.952	67.2
792.264	67.46
792.576	67.2
792.888	66.45
793.2	65.87
793.512	65.96
793.824	66.17
794.136	66.18
794.448	66.62
794.76	66.72
795.071	66.52
795.383	67.01
795.695	67.32
796.006	67.12
796.318	67.15
796.629	67.28
796.941	67.28
797.252	67.39
797.564	67.84
797.875	67.91
798.186	67.74
798.497	67.83
798.809	67.35
799.12	67.14
799.431	67.38
799.742	67.42
800.053	67.44
800.364	66.92
800.675	66.45
800.986	66.64
801.297	66.5
801.608	66.69
801.918	66.42
802.229	66.1
802.54	65.98
802.851	66
803.161	66.29
803.472	66.37
803.782	66.65
804.093	66.71
804.403	66.03
804.714	66.26
805.024	66.05
805.334	66.21
805.645	66.8
805.955	66.4
806.265	67.11
806.575	66.94
806.885	67.87
807.195	67.88
807.505	67.12
807.815	67.65
808.125	67.25
808.435	67.04
808.745	67.34
809.055	67.66
809.365	67.29
809.674	67.11
809.984	66.42
810.294	66.75
810.603	66.77
810.913	66.4
811.222	66.19
811.532	66.06
811.841	66.46
812.151	67.01
812.46	67.07
812.769	66.58
813.079	66.9
813.388	66.87
813.697	67.06
814.006	67.72
814.315	67.46
814.624	67.67
814.933	67.56
815.242	67.62
815.551	66.86
815.86	67.46
816.169	67.77
816.478	68.4
816.786	67.75
817.095	67.12
817.404	68.16
817.712	68.19
818.021	69.27
818.33	69.49
818.638	69.07
818.947	69.36
819.255	69.36
819.563	68.88
819.872	69.15
820.18	69.24
820.488	69.31
820.796	69.33
821.105	69.41
821.413	69.28
821.721	69.12
822.029	69.28
822.337	69.06
822.645	68.91
822.953	68.83
823.26	68.82
823.568	69.12
823.876	69
824.184	69.13
824.491	69.18
824.799	68.98
825.107	68.9
825.414	68.93
825.722	69.09
826.029	69.37
826.337	69.11
826.644	69.03
826.951	68.65
827.259	68.56
827.566	68.55
827.873	68.59
828.18	68.73
828.488	68.65
828.795	68.48
829.102	68.41
829.409	68.83
829.716	68.91
830.023	68.28
830.329	68.26
830.636	67.97
830.943	67.24
831.25	67.14
831.557	67.32
831.863	67.38
832.17	67.06
832.476	66.72
832.783	66.62
833.089	66.38
833.396	67.16
833.702	67.16
834.009	67.37
834.315	66.79
834.621	67.11
834.928	67.19
835.234	67.47
835.54	67.85
835.846	67.39
836.152	67.65
836.458	68.09
836.764	67.91
837.07	67.96
837.376	67.81
837.682	68.02
837.988	67.5
838.293	67.27
838.599	67.24
838.905	67.29
839.211	67.53
839.516	68.08
839.822	67.56
840.127	67.66
840.433	67.26
840.738	68.14
841.044	68.21
841.349	68
841.654	68.56
841.959	69.4
842.265	69.63
842.57	68.47
842.875	67.25
843.18	67.92
843.485	68.22
843.79	69.38
844.095	70.5
844.4	70.84
844.705	70.88
845.01	70.79
845.315	70.66
845.619	70.87
845.924	71.22
846.229	73.22
846.533	72.62
846.838	73.16
847.142	74.83
847.447	72.73
847.751	73.49
848.056	72.78
848.36	70.53
848.664	69.51
848.969	70.17
849.273	71.08
849.577	69.24
849.881	67.65
850.185	68.11
850.489	66.53
850.794	64.59
851.097	63.8
851.401	63.27
851.705	62.54
852.009	60.78
852.313	59.78
852.617	58.11
852.92	59.4
853.224	58.29
853.528	58.65
853.831	59.29
854.135	59.34
854.438	60.71
854.742	60.99
855.045	60.27
855.349	61.08
855.652	60.86
855.955	63.51
856.259	63.38
856.562	62.22
856.865	62.19
857.168	64.3
857.471	61.08
857.774	62.42
858.077	63.91
858.38	65.27
858.683	66.14
858.986	65.51
859.289	66.92
859.592	67.22
859.894	64.46
860.197	63.12
860.5	62.4
860.802	61.2
861.105	60.86
861.407	62.02
861.71	62.77
862.012	65.44
862.315	64.53
862.617	64.73
862.919	65.36
863.222	66.6
863.524	66.33
863.826	68.38
864.128	68.18
864.43	67.21
864.732	67.51
865.034	68.2
865.336	68.28
865.638	66.41
865.94	66.59
866.242	67.66
866.544	67.66
866.846	68.29
867.147	67.68
867.449	69.19
867.751	68.56
868.052	68.21
868.354	65.84
868.655	65.69
868.957	65.03
869.258	65.05
869.56	63.26
869.861	64.75
870.162	64.89
870.463	66.57
870.765	65.06
871.066	66.8
871.367	66.51
871.668	65.64
871.969	64.1
872.27	63.35
872.571	63.98
872.872	65.87
873.173	66.47
873.473	65.55
873.774	64.19
874.075	63.78
874.376	64.22
874.676	65
874.977	62.84
875.277	63.18
875.578	62.31
875.878	62.74
876.179	61.33
876.479	62.17
876.78	59.56
877.08	61.3
877.38	58.76
877.68	57.65
877.981	58.32
878.281	60.41
878.581	60.98
