Data from BA28308_Reflection_00011.txt Node
Date: Mon Nov 18 15:39:04 EST 2019
User: vgr7
Spectrometer: USB2G7710
Scans to average: 3
Trigger mode: 4
Integration Time (sec): 2.000000E-2
Electric dark correction enabled: true
Boxcar width: 10
XAxis mode: Wavelengths
Number of Pixels in Spectrum: 2048
>>>>>Begin Spectral Data<<<<<
177.721	27.41
178.105	59.75
178.488	100.82
178.871	42.9
179.254	18.2
179.636	-51.79
180.019	26.78
180.402	11.76
180.785	39.83
181.168	18.9
181.55	-104.77
181.933	49.05
182.316	54.99
182.698	61.26
183.081	67.56
183.463	45.58
183.846	47.48
184.228	20.72
184.611	25.74
184.993	16.61
185.376	54.33
185.758	35.61
186.14	197.85
186.522	125.34
186.904	98.75
187.287	-12.48
187.669	-43.38
188.051	-27.94
188.433	-42.09
188.815	24.17
189.197	28.45
189.579	-39.43
189.961	-6.4
190.342	-13.93
190.724	-6.44
191.106	11.51
191.488	7.01
191.869	8.79
192.251	9.62
192.633	10.92
193.014	-6.61
193.396	-20.81
193.777	-5.16
194.159	18.63
194.54	19.11
194.922	46.51
195.303	12.01
195.684	5.08
196.065	0.57
196.447	27.39
196.828	5.32
197.209	-9.78
197.59	15.15
197.971	-14.52
198.352	3.2
198.733	7.32
199.114	-37
199.495	-36.33
199.876	-27.18
200.257	-11.63
200.638	-25.19
201.018	0.94
201.399	18.42
201.78	4.02
202.16	6.23
202.541	-5.15
202.922	-31.69
203.302	-55.96
203.683	-22.69
204.063	-52.91
204.444	-86.16
204.824	-13.84
205.204	359.57
205.585	9671.43
205.965	-1669.23
206.345	-64.18
206.725	-40.33
207.106	-20.61
207.486	27.35
207.866	41.18
208.246	61.81
208.626	35.56
209.006	203.8
209.386	215.79
209.766	199.49
210.145	198.5
210.525	-4737.84
210.905	-289.74
211.285	-326.42
211.664	-347.24
212.044	-215.66
212.424	-19.07
212.803	2.79
213.183	2.14
213.562	19.46
213.942	25.21
214.321	39.43
214.701	28.42
215.08	27.54
215.459	38.1
215.838	52.78
216.218	51.78
216.597	50.64
216.976	68.12
217.355	73.83
217.734	78.7
218.113	74.76
218.492	101.76
218.871	122.91
219.25	87.47
219.629	88.87
220.008	121.18
220.387	92.78
220.766	80.85
221.144	52.6
221.523	21.95
221.902	6.87
222.28	48.81
222.659	100.69
223.037	59.67
223.416	48.11
223.794	46.02
224.173	45.12
224.551	46.23
224.929	28.01
225.308	23.54
225.686	24.39
226.064	21.25
226.442	24.45
226.821	27.34
227.199	28.06
227.577	21.85
227.955	16.83
228.333	18.82
228.711	16.3
229.089	17.5
229.467	15.62
229.845	13.94
230.222	9.09
230.6	5.69
230.978	6.96
231.356	6.97
231.733	5.94
232.111	4.78
232.488	4.74
232.866	5.52
233.243	6.59
233.621	5.1
233.998	6.98
234.376	5.63
234.753	3.79
235.13	0.78
235.508	1.87
235.885	2.86
236.262	1.91
236.639	2.99
237.016	3.47
237.393	5.9
237.77	7.65
238.147	8.12
238.524	8.33
238.901	7.5
239.278	7.82
239.655	7.75
240.032	8.29
240.409	7.58
240.785	7.84
241.162	7.49
241.539	7.66
241.915	7.24
242.292	6.79
242.668	6.8
243.045	7.12
243.421	7.03
243.798	7.01
244.174	7.03
244.551	6.92
244.927	6.39
245.303	6.23
245.679	5.95
246.056	5.85
246.432	5.75
246.808	5.85
247.184	5.63
247.56	5.62
247.936	5.5
248.312	5.77
248.688	5.6
249.064	5.48
249.44	5.31
249.815	5.14
250.191	5.23
250.567	5.24
250.943	5.08
251.318	4.89
251.694	4.69
252.069	4.35
252.445	4.56
252.82	4.76
253.196	4.55
253.571	4.58
253.947	4.69
254.322	4.68
254.697	4.45
255.073	4.26
255.448	3.86
255.823	3.71
256.198	3.58
256.573	3.59
256.948	3.77
257.323	4.23
257.698	4.34
258.073	4.36
258.448	4.18
258.823	4.25
259.198	4.32
259.573	4.3
259.948	4.41
260.322	4.31
260.697	4.3
261.072	4.28
261.446	4.26
261.821	4.15
262.195	4.26
262.57	4.32
262.944	4.43
263.319	4.64
263.693	4.75
264.067	4.69
264.442	4.88
264.816	4.81
265.19	4.56
265.564	4.46
265.938	4.29
266.313	4.35
266.687	4.29
267.061	4.31
267.435	4.41
267.809	4.45
268.183	4.46
268.556	4.37
268.93	4.43
269.304	4.37
269.678	4.56
270.051	4.4
270.425	4.42
270.799	4.26
271.172	4.14
271.546	3.98
271.919	3.98
272.293	3.8
272.666	3.92
273.04	3.91
273.413	3.91
273.787	3.89
274.16	3.88
274.533	3.81
274.906	3.71
275.279	3.63
275.653	3.68
276.026	3.61
276.399	3.68
276.772	3.71
277.145	3.79
277.518	3.74
277.891	3.86
278.263	3.92
278.636	4.11
279.009	4.24
279.382	4.31
279.755	4.4
280.127	4.63
280.5	4.57
280.872	4.56
281.245	4.54
281.617	4.71
281.99	4.82
282.362	4.94
282.735	4.93
283.107	4.99
283.479	4.77
283.852	4.89
284.224	4.95
284.596	4.85
284.968	4.77
285.34	4.71
285.713	4.7
286.085	4.73
286.457	4.69
286.829	4.63
287.201	4.78
287.572	4.71
287.944	4.46
288.316	4.43
288.688	4.39
289.06	4.5
289.431	4.42
289.803	4.41
290.175	4.46
290.546	4.61
290.918	4.64
291.289	4.82
291.661	4.86
292.032	4.91
292.403	5.05
292.775	5.08
293.146	5.07
293.517	5.04
293.889	4.94
294.26	4.91
294.631	4.95
295.002	4.83
295.373	4.88
295.744	5.02
296.115	5.02
296.486	4.92
296.857	4.88
297.228	4.94
297.599	5.04
297.97	4.99
298.34	5.04
298.711	5.03
299.082	4.99
299.452	4.95
299.823	5.04
300.194	5.06
300.564	5.06
300.935	5.12
301.305	5.15
301.676	5.31
302.046	5.38
302.416	5.44
302.787	5.55
303.157	5.61
303.527	5.52
303.897	5.64
304.267	5.93
304.637	5.99
305.008	5.95
305.378	5.84
305.748	5.84
306.117	5.75
306.487	5.76
306.857	5.79
307.227	5.7
307.597	5.56
307.967	5.54
308.336	5.6
308.706	5.67
309.076	5.77
309.445	5.67
309.815	5.71
310.184	5.69
310.554	5.59
310.923	5.57
311.293	5.56
311.662	5.61
312.031	5.59
312.401	5.65
312.77	5.72
313.139	5.72
313.508	5.81
313.877	5.88
314.246	5.9
314.616	5.89
314.985	6
315.353	6.02
315.722	6.14
316.091	6.11
316.46	6
316.829	5.9
317.198	5.96
317.567	6.06
317.935	6.11
318.304	6.18
318.672	6.16
319.041	6.53
319.41	6.47
319.778	6.55
320.147	6.59
320.515	6.62
320.883	6.57
321.252	6.49
321.62	6.52
321.988	6.54
322.357	6.59
322.725	6.55
323.093	6.65
323.461	6.54
323.829	6.61
324.197	6.76
324.565	6.85
324.933	6.85
325.301	6.86
325.669	6.9
326.037	6.95
326.405	7.05
326.772	7.04
327.14	7.09
327.508	7.06
327.875	7
328.243	7.07
328.61	7.23
328.978	7.38
329.346	7.39
329.713	7.39
330.08	7.49
330.448	7.58
330.815	7.46
331.182	7.52
331.55	7.46
331.917	7.55
332.284	7.57
332.651	7.65
333.018	7.59
333.385	7.66
333.752	7.72
334.119	7.83
334.486	7.65
334.853	7.51
335.22	7.49
335.587	7.54
335.954	7.56
336.32	7.57
336.687	7.6
337.054	7.61
337.42	7.76
337.787	7.83
338.153	7.87
338.52	8.01
338.886	7.99
339.253	8.01
339.619	7.85
339.986	7.88
340.352	7.95
340.718	7.9
341.084	7.83
341.451	7.85
341.817	7.75
342.183	7.73
342.549	7.88
342.915	7.86
343.281	7.79
343.647	7.75
344.013	7.68
344.379	7.6
344.745	7.6
345.11	7.57
345.476	7.43
345.842	7.42
346.208	7.43
346.573	7.49
346.939	7.63
347.304	7.64
347.67	7.63
348.035	7.58
348.401	7.81
348.766	7.89
349.132	7.99
349.497	7.99
349.862	8.03
350.228	8
350.593	8.1
350.958	8.17
351.323	8.2
351.688	8.3
352.053	8.31
352.418	8.38
352.783	8.33
353.148	8.35
353.513	8.34
353.878	8.33
354.243	8.34
354.608	8.32
354.972	8.27
355.337	8.29
355.702	8.34
356.066	8.25
356.431	8.18
356.795	8.12
357.16	8.11
357.524	8.1
357.889	8.12
358.253	8.12
358.618	8.11
358.982	8.07
359.346	7.94
359.71	7.92
360.075	7.86
360.439	7.85
360.803	7.88
361.167	7.84
361.531	7.83
361.895	7.82
362.259	7.77
362.623	7.77
362.987	7.76
363.351	7.7
363.714	7.67
364.078	7.64
364.442	7.59
364.806	7.63
365.169	7.69
365.533	7.64
365.896	7.62
366.26	7.62
366.623	7.65
366.987	7.75
367.35	7.76
367.714	7.78
368.077	7.83
368.44	7.79
368.803	7.78
369.167	7.78
369.53	7.76
369.893	7.82
370.256	7.8
370.619	7.78
370.982	7.75
371.345	7.72
371.708	7.7
372.071	7.74
372.434	7.65
372.797	7.6
373.159	7.65
373.522	7.59
373.885	7.59
374.247	7.58
374.61	7.6
374.973	7.61
375.335	7.55
375.698	7.48
376.06	7.47
376.423	7.45
376.785	7.45
377.147	7.42
377.51	7.32
377.872	7.36
378.234	7.31
378.596	7.3
378.958	7.24
379.321	7.22
379.683	7.2
380.045	7.16
380.407	7.13
380.769	7.06
381.13	7
381.492	6.97
381.854	6.96
382.216	6.87
382.578	6.8
382.939	6.78
383.301	6.71
383.663	6.69
384.024	6.66
384.386	6.63
384.747	6.65
385.109	6.65
385.47	6.56
385.832	6.58
386.193	6.57
386.554	6.56
386.916	6.54
387.277	6.52
387.638	6.54
387.999	6.51
388.36	6.49
388.721	6.5
389.082	6.43
389.443	6.33
389.804	6.29
390.165	6.25
390.526	6.24
390.887	6.27
391.248	6.23
391.609	6.2
391.969	6.19
392.33	6.14
392.691	6.09
393.051	6.12
393.412	6.06
393.772	6
394.133	5.98
394.493	5.95
394.854	5.91
395.214	5.84
395.574	5.8
395.935	5.75
396.295	5.71
396.655	5.67
397.015	5.66
397.376	5.66
397.736	5.65
398.096	5.61
398.456	5.57
398.816	5.56
399.176	5.51
399.535	5.43
399.895	5.36
400.255	5.38
400.615	5.32
400.975	5.29
401.334	5.28
401.694	5.26
402.054	5.22
402.413	5.18
402.773	5.17
403.132	5.13
403.492	5.15
403.851	5.15
404.211	5.16
404.57	5.15
404.929	5.15
405.288	5.14
405.648	5.1
406.007	5.08
406.366	5.06
406.725	5.1
407.084	5.1
407.443	5.1
407.802	5.06
408.161	5.03
408.52	5.01
408.879	5
409.238	4.99
409.596	4.98
409.955	4.95
410.314	4.95
410.673	4.95
411.031	4.92
411.39	4.9
411.748	4.87
412.107	4.87
412.465	4.84
412.824	4.82
413.182	4.8
413.54	4.77
413.899	4.76
414.257	4.71
414.615	4.65
414.974	4.64
415.332	4.65
415.69	4.62
416.048	4.6
416.406	4.59
416.764	4.57
417.122	4.56
417.48	4.53
417.838	4.51
418.195	4.49
418.553	4.47
418.911	4.45
419.269	4.43
419.626	4.41
419.984	4.4
420.342	4.39
420.699	4.39
421.057	4.38
421.414	4.36
421.772	4.34
422.129	4.34
422.486	4.32
422.844	4.28
423.201	4.27
423.558	4.25
423.915	4.22
424.273	4.19
424.63	4.19
424.987	4.17
425.344	4.16
425.701	4.13
426.058	4.13
426.415	4.1
426.772	4.09
427.128	4.07
427.485	4.04
427.842	4.03
428.199	4.03
428.555	4.02
428.912	4.03
429.269	4.02
429.625	4.04
429.982	4.04
430.338	4.05
430.695	4.04
431.051	4.05
431.407	4.07
431.764	4.06
432.12	4.05
432.476	4.06
432.832	4.06
433.189	4.09
433.545	4.08
433.901	4.09
434.257	4.09
434.613	4.1
434.969	4.11
435.325	4.11
435.681	4.09
436.036	4.08
436.392	4.05
436.748	4.04
437.104	4.03
437.459	4.03
437.815	4.03
438.171	4.02
438.526	4.02
438.882	4.01
439.237	4.01
439.593	4.02
439.948	4.01
440.304	4.01
440.659	3.99
441.014	3.99
441.369	3.97
441.725	3.97
442.08	3.97
442.435	3.97
442.79	3.97
443.145	3.96
443.5	3.95
443.855	3.96
444.21	3.97
444.565	3.95
444.92	3.95
445.275	3.93
445.629	3.93
445.984	3.93
446.339	3.93
446.693	3.9
447.048	3.87
447.403	3.88
447.757	3.87
448.112	3.86
448.466	3.85
448.82	3.83
449.175	3.84
449.529	3.84
449.883	3.83
450.238	3.82
450.592	3.83
450.946	3.81
451.3	3.78
451.654	3.77
452.008	3.79
452.362	3.77
452.716	3.77
453.07	3.76
453.424	3.75
453.778	3.72
454.132	3.72
454.486	3.72
454.839	3.7
455.193	3.68
455.547	3.69
455.9	3.7
456.254	3.72
456.607	3.69
456.961	3.69
457.314	3.7
457.668	3.71
458.021	3.69
458.375	3.7
458.728	3.72
459.081	3.71
459.434	3.69
459.787	3.7
460.141	3.72
460.494	3.74
460.847	3.74
461.2	3.76
461.553	3.76
461.906	3.78
462.259	3.81
462.611	3.83
462.964	3.83
463.317	3.84
463.67	3.85
464.022	3.85
464.375	3.85
464.728	3.85
465.08	3.85
465.433	3.86
465.785	3.85
466.138	3.84
466.49	3.87
466.843	3.87
467.195	3.88
467.547	3.87
467.899	3.9
468.252	3.9
468.604	3.9
468.956	3.92
469.308	3.92
469.66	3.89
470.012	3.9
470.364	3.9
470.716	3.89
471.068	3.89
471.42	3.91
471.772	3.94
472.123	3.91
472.475	3.93
472.827	3.93
473.178	3.95
473.53	3.94
473.882	3.94
474.233	3.95
474.585	3.94
474.936	3.92
475.288	3.9
475.639	3.9
475.99	3.94
476.342	3.93
476.693	3.95
477.044	3.98
477.395	3.98
477.746	3.98
478.097	3.99
478.448	3.98
478.8	3.98
479.15	3.96
479.501	3.99
479.852	3.96
480.203	3.97
480.554	3.96
480.905	3.97
481.255	3.96
481.606	3.98
481.957	3.99
482.307	4
482.658	4.01
483.009	4.01
483.359	4
483.709	4.01
484.06	4
484.41	4
484.761	4.01
485.111	4.01
485.461	4
485.811	4
486.162	4
486.512	4.02
486.862	4
487.212	4.01
487.562	4.02
487.912	4.03
488.262	4.02
488.612	4.03
488.961	4.02
489.311	4.03
489.661	4.03
490.011	4.02
490.36	4.03
490.71	4.04
491.06	4.05
491.409	4.05
491.759	4.05
492.108	4.05
492.458	4.06
492.807	4.05
493.157	4.07
493.506	4.08
493.855	4.08
494.204	4.09
494.554	4.1
494.903	4.08
495.252	4.11
495.601	4.14
495.95	4.14
496.299	4.15
496.648	4.16
496.997	4.19
497.346	4.22
497.695	4.24
498.043	4.24
498.392	4.25
498.741	4.28
499.09	4.29
499.438	4.33
499.787	4.36
500.135	4.4
500.484	4.44
500.832	4.51
501.181	4.55
501.529	4.59
501.878	4.65
502.226	4.7
502.574	4.73
502.923	4.77
503.271	4.83
503.619	4.89
503.967	4.95
504.315	4.98
504.663	5.01
505.011	5.06
505.359	5.11
505.707	5.16
506.055	5.21
506.403	5.27
506.751	5.32
507.098	5.37
507.446	5.44
507.794	5.47
508.141	5.49
508.489	5.5
508.837	5.55
509.184	5.58
509.531	5.62
509.879	5.66
510.226	5.73
510.574	5.76
510.921	5.8
511.268	5.82
511.616	5.88
511.963	5.92
512.31	5.96
512.657	6.02
513.004	6.07
513.351	6.12
513.698	6.17
514.045	6.23
514.392	6.27
514.739	6.31
515.086	6.36
515.432	6.43
515.779	6.5
516.126	6.57
516.473	6.65
516.819	6.72
517.166	6.79
517.512	6.83
517.859	6.9
518.205	6.94
518.552	7
518.898	7.05
519.245	7.11
519.591	7.17
519.937	7.22
520.283	7.27
520.629	7.33
520.976	7.39
521.322	7.48
521.668	7.57
522.014	7.66
522.36	7.78
522.706	7.87
523.052	7.98
523.398	8.07
523.743	8.19
524.089	8.3
524.435	8.43
524.781	8.53
525.126	8.64
525.472	8.75
525.817	8.85
526.163	8.93
526.509	9.03
526.854	9.12
527.199	9.2
527.545	9.27
527.89	9.36
528.235	9.44
528.581	9.52
528.926	9.6
529.271	9.69
529.616	9.77
529.961	9.87
530.306	9.95
530.651	10.06
530.996	10.16
531.341	10.27
531.686	10.38
532.031	10.5
532.376	10.65
532.721	10.77
533.065	10.92
533.41	11.06
533.755	11.2
534.099	11.33
534.444	11.48
534.788	11.65
535.133	11.82
535.477	12
535.822	12.16
536.166	12.36
536.51	12.55
536.855	12.76
537.199	12.97
537.543	13.22
537.887	13.45
538.231	13.68
538.576	13.94
538.92	14.19
539.264	14.42
539.608	14.63
539.951	14.85
540.295	15.04
540.639	15.29
540.983	15.5
541.327	15.72
541.671	15.94
542.014	16.13
542.358	16.33
542.701	16.54
543.045	16.75
543.389	16.95
543.732	17.19
544.075	17.44
544.419	17.68
544.762	17.92
545.105	18.17
545.449	18.45
545.792	18.71
546.135	18.99
546.478	19.29
546.821	19.63
547.165	19.96
547.508	20.33
547.851	20.62
548.194	20.97
548.536	21.3
548.879	21.64
549.222	22.01
549.565	22.35
549.908	22.68
550.25	23.04
550.593	23.4
550.936	23.74
551.278	24.09
551.621	24.44
551.963	24.81
552.306	25.2
552.648	25.56
552.991	25.9
553.333	26.18
553.675	26.52
554.017	26.79
554.36	27.14
554.702	27.43
555.044	27.75
555.386	28.03
555.728	28.31
556.07	28.7
556.412	28.99
556.754	29.36
557.096	29.74
557.438	30.13
557.78	30.54
558.121	30.89
558.463	31.25
558.805	31.67
559.147	32
559.488	32.32
559.83	32.7
560.171	33.03
560.513	33.44
560.854	33.77
561.196	34.15
561.537	34.45
561.878	34.79
562.22	35.14
562.561	35.47
562.902	35.84
563.243	36.1
563.584	36.45
563.925	36.75
564.266	37.05
564.607	37.29
564.948	37.52
565.289	37.82
565.63	38.08
565.971	38.28
566.312	38.55
566.653	38.8
566.993	39
567.334	39.28
567.675	39.52
568.015	39.75
568.356	40.02
568.696	40.3
569.037	40.51
569.377	40.74
569.718	40.99
570.058	41.24
570.398	41.51
570.739	41.71
571.079	41.89
571.419	42.12
571.759	42.38
572.099	42.59
572.439	42.74
572.779	42.91
573.119	43.13
573.459	43.29
573.799	43.52
574.139	43.72
574.479	43.92
574.819	44.11
575.158	44.31
575.498	44.45
575.838	44.64
576.177	44.85
576.517	45.03
576.856	45.22
577.196	45.41
577.535	45.61
577.875	45.8
578.214	46.07
578.553	46.26
578.893	46.47
579.232	46.64
579.571	46.92
579.91	47.18
580.25	47.39
580.589	47.6
580.928	47.77
581.267	47.99
581.606	48.2
581.945	48.31
582.283	48.46
582.622	48.63
582.961	48.76
583.3	48.94
583.639	49.15
583.977	49.25
584.316	49.36
584.654	49.5
584.993	49.65
585.332	49.78
585.67	49.91
586.008	49.93
586.347	50.08
586.685	50.18
587.024	50.28
587.362	50.41
587.7	50.48
588.038	50.6
588.376	50.65
588.715	50.7
589.053	50.89
589.391	51.04
589.729	51.19
590.067	51.29
590.404	51.41
590.742	51.53
591.08	51.59
591.418	51.78
591.756	51.88
592.093	51.98
592.431	52.04
592.769	52.08
593.106	52.25
593.444	52.31
593.781	52.42
594.119	52.49
594.456	52.57
594.793	52.7
595.131	52.77
595.468	52.87
595.805	52.93
596.143	53.04
596.48	53.09
596.817	53.1
597.154	53.19
597.491	53.22
597.828	53.26
598.165	53.39
598.502	53.38
598.839	53.4
599.176	53.56
599.512	53.65
599.849	53.79
600.186	53.86
600.523	54
600.859	54.08
601.196	54.18
601.532	54.26
601.869	54.32
602.205	54.35
602.542	54.39
602.878	54.44
603.215	54.42
603.551	54.52
603.887	54.57
604.223	54.7
604.56	54.87
604.896	54.93
605.232	55.02
605.568	55.06
605.904	55.16
606.24	55.14
606.576	55.15
606.912	55.2
607.248	55.29
607.583	55.3
607.919	55.26
608.255	55.29
608.591	55.3
608.926	55.42
609.262	55.47
609.597	55.57
609.933	55.7
610.268	55.79
610.604	55.8
610.939	55.84
611.275	55.82
611.61	55.82
611.945	55.89
612.281	55.93
612.616	56.02
612.951	56.03
613.286	56.12
613.621	56.22
613.956	56.21
614.291	56.31
614.626	56.41
614.961	56.6
615.296	56.67
615.631	56.75
615.966	56.76
616.3	56.83
616.635	56.88
616.97	56.92
617.304	57.01
617.639	57.1
617.973	57.22
618.308	57.3
618.642	57.21
618.977	57.26
619.311	57.35
619.646	57.4
619.98	57.54
620.314	57.59
620.648	57.62
620.983	57.78
621.317	57.74
621.651	57.81
621.985	57.84
622.319	57.83
622.653	57.95
622.987	57.99
623.321	57.97
623.655	58.05
623.988	58.07
624.322	58.09
624.656	58.15
624.99	58.15
625.323	58.15
625.657	58.27
625.99	58.27
626.324	58.21
626.657	58.32
626.991	58.38
627.324	58.41
627.658	58.4
627.991	58.39
628.324	58.45
628.657	58.35
628.991	58.4
629.324	58.48
629.657	58.44
629.99	58.43
630.323	58.57
630.656	58.52
630.989	58.51
631.322	58.53
631.655	58.59
631.987	58.62
632.32	58.68
632.653	58.7
632.986	58.75
633.318	58.8
633.651	58.7
633.984	58.6
634.316	58.62
634.649	58.63
634.981	58.7
635.313	58.76
635.646	58.92
635.978	58.96
636.31	58.99
636.643	59.08
636.975	59.11
637.307	59.1
637.639	59.14
637.971	59.08
638.303	59.12
638.635	59.02
638.967	59.14
639.299	59.21
639.631	59.22
639.963	59.25
640.295	59.35
640.626	59.4
640.958	59.46
641.29	59.46
641.621	59.53
641.953	59.53
642.285	59.56
642.616	59.5
642.948	59.6
643.279	59.62
643.61	59.55
643.942	59.67
644.273	59.74
644.604	59.81
644.936	59.94
645.267	59.95
645.598	60.04
645.929	60.04
646.26	59.97
646.591	60.07
646.922	60.15
647.253	60.26
647.584	60.29
647.915	60.2
648.245	60.19
648.576	60.33
648.907	60.37
649.238	60.35
649.568	60.45
649.899	60.44
650.229	60.41
650.56	60.49
650.89	60.51
651.221	60.43
651.551	60.32
651.882	60.34
652.212	60.35
652.542	60.42
652.872	60.39
653.203	60.52
653.533	60.51
653.863	60.37
654.193	60.2
654.523	60.31
654.853	60.51
655.183	60.57
655.513	60.54
655.843	60.39
656.172	60.44
656.502	60.46
656.832	60.49
657.162	60.63
657.491	60.63
657.821	60.63
658.15	60.7
658.48	60.76
658.809	60.71
659.139	60.77
659.468	60.84
659.798	60.82
660.127	60.86
660.456	60.78
660.785	60.85
661.115	60.89
661.444	60.85
661.773	60.76
662.102	60.81
662.431	60.67
662.76	60.83
663.089	60.79
663.418	60.74
663.747	60.72
664.076	60.62
664.404	60.6
664.733	60.67
665.062	60.76
665.39	60.79
665.719	60.94
666.048	60.88
666.376	60.75
666.705	60.84
667.033	60.75
667.362	60.79
667.69	60.78
668.018	60.8
668.347	60.83
668.675	60.94
669.003	60.95
669.331	61.07
669.659	61.04
669.987	60.96
670.315	60.98
670.643	60.94
670.971	60.94
671.299	60.93
671.627	60.95
671.955	60.89
672.283	61
672.61	60.97
672.938	61
673.266	60.97
673.593	60.9
673.921	60.83
674.249	60.8
674.576	60.9
674.904	60.93
675.231	60.95
675.558	60.85
675.886	60.9
676.213	60.96
676.54	60.94
676.867	60.86
677.195	61.02
677.522	61.08
677.849	61.13
678.176	61.18
678.503	61.06
678.83	61.07
679.157	61.04
679.484	61.12
679.81	61.17
680.137	61.24
680.464	61.24
680.791	61.34
681.117	61.48
681.444	61.52
681.771	61.45
682.097	61.4
682.424	61.4
682.75	61.35
683.077	61.4
683.403	61.46
683.729	61.69
684.056	61.68
684.382	61.68
684.708	61.7
685.034	61.72
685.36	61.74
685.686	61.84
686.012	61.89
686.339	61.84
686.664	61.98
686.99	62.03
687.316	62.04
687.642	62.15
687.968	62.22
688.294	62.25
688.619	62.36
688.945	62.36
689.271	62.55
689.596	62.45
689.922	62.42
690.247	62.36
690.573	62.4
690.898	62.26
691.224	62.3
691.549	62.34
691.874	62.33
692.2	62.24
692.525	62.29
692.85	62.29
693.175	62.2
693.5	62.07
693.825	61.96
694.15	62.03
694.475	61.94
694.8	61.84
695.125	61.83
695.45	62.05
695.775	62.15
696.099	62.14
696.424	62.25
696.749	62.22
697.073	62.29
697.398	62.25
697.723	62.29
698.047	62.37
698.372	62.28
698.696	62.37
699.02	62.55
699.345	62.55
699.669	62.53
699.993	62.62
700.318	62.67
700.642	62.83
700.966	62.83
701.29	62.81
701.614	62.79
701.938	62.76
702.262	62.71
702.586	62.65
702.91	62.53
703.234	62.66
703.557	62.8
703.881	62.85
704.205	62.85
704.529	62.72
704.852	62.7
705.176	62.77
705.499	62.68
705.823	62.64
706.146	62.47
706.47	62.65
706.793	62.69
707.117	62.88
707.44	62.86
707.763	62.88
708.086	62.9
708.409	62.98
708.733	63
709.056	62.91
709.379	62.96
709.702	63
710.025	62.92
710.348	62.88
710.671	62.75
710.993	62.84
711.316	63.03
711.639	63.04
711.962	63.02
712.284	63.08
712.607	63.19
712.93	63.34
713.252	63.26
713.575	63.12
713.897	63.08
714.22	63
714.542	63.07
714.864	63.05
715.187	62.91
715.509	62.8
715.831	62.71
716.153	62.77
716.475	62.57
716.798	62.71
717.12	62.62
717.442	62.88
717.764	62.83
718.085	62.81
718.407	62.74
718.729	62.75
719.051	62.65
719.373	62.59
719.695	62.47
720.016	62.41
720.338	62.53
720.659	62.46
720.981	62.54
721.302	62.58
721.624	62.8
721.945	63.07
722.267	63.27
722.588	63.32
722.909	63.39
723.231	63.7
723.552	63.54
723.873	63.56
724.194	63.46
724.515	63.31
724.836	63.48
725.157	63.61
725.478	63.77
725.799	63.77
726.12	63.9
726.441	64
726.762	64.08
727.083	63.85
727.403	63.95
727.724	63.82
728.045	63.82
728.365	63.77
728.686	63.68
729.006	63.74
729.327	63.81
729.647	63.69
729.967	63.64
730.288	63.77
730.608	63.87
730.928	64.09
731.249	64.23
731.569	64.18
731.889	64.08
732.209	64.1
732.529	64.27
732.849	63.91
733.169	63.92
733.489	63.85
733.809	64.13
734.129	63.97
734.448	64.11
734.768	63.99
735.088	64.08
735.408	64.16
735.727	64.05
736.047	63.92
736.366	63.93
736.686	63.89
737.005	63.69
737.325	63.71
737.644	63.7
737.963	63.79
738.283	63.64
738.602	63.8
738.921	63.73
739.24	63.6
739.56	63.99
739.879	64.21
740.198	64.07
740.517	64.04
740.836	63.75
741.155	63.78
741.473	63.94
741.792	63.82
742.111	63.71
742.43	64.07
742.748	64.34
743.067	64.36
743.386	64.45
743.704	64.55
744.023	64.51
744.341	64.25
744.66	64.13
744.978	64.08
745.297	64.05
745.615	64
745.933	64.36
746.252	64.14
746.57	64
746.888	64.33
747.206	64.34
747.524	64.42
747.842	64.3
748.16	64.23
748.478	64.36
748.796	64.45
749.114	64.16
749.432	63.62
749.749	63.84
750.067	63.9
750.385	63.82
750.703	63.93
751.02	63.88
751.338	64.13
751.655	64.37
751.973	64.15
752.29	64.13
752.608	64.21
752.925	64.31
753.242	64.16
753.56	64.1
753.877	64.06
754.194	64.28
754.511	64.5
754.828	64.65
755.145	64.49
755.462	64.34
755.779	64.41
756.096	64.58
756.413	64.42
756.73	64.39
757.047	64.41
757.364	64.41
757.68	64.53
757.997	64.33
758.314	64.17
758.63	64.29
758.947	64.21
759.264	63.9
759.58	63.85
759.896	63.82
760.213	64.11
760.529	64.21
760.846	64.08
761.162	63.78
761.478	63.76
761.794	63.59
762.11	63.68
762.426	63.71
762.743	63.74
763.059	63.79
763.375	63.81
763.69	63.86
764.006	63.65
764.322	63.61
764.638	63.75
764.954	63.73
765.27	63.8
765.585	63.96
765.901	64
766.216	63.81
766.532	63.86
766.848	63.52
767.163	63.53
767.478	63.65
767.794	63.66
768.109	63.34
768.424	63.61
768.74	63.63
769.055	63.58
769.37	63.82
769.685	63.75
770	63.83
770.315	63.91
770.63	64.29
770.945	64.61
771.26	64.37
771.575	64.43
771.89	64.43
772.205	64.52
772.52	64.4
772.834	65.11
773.149	65.06
773.464	65.36
773.778	65.39
774.093	65.64
774.407	65.81
774.722	66.26
775.036	66.23
775.351	66.19
775.665	66.02
775.979	66.13
776.293	66.39
776.608	66.27
776.922	65.9
777.236	65.67
777.55	65.39
777.864	65.99
778.178	65.87
778.492	65.69
778.806	65.48
779.12	65.4
779.434	65.06
779.747	65.5
780.061	65.23
780.375	65.15
780.689	65.29
781.002	65.33
781.316	65.53
781.629	65.33
781.943	65.58
782.256	65.95
782.57	65.92
782.883	65.6
783.196	65.55
783.51	66.15
783.823	66.49
784.136	66.71
784.449	66.06
784.762	66.38
785.075	66.76
785.388	66.85
785.701	67.35
786.014	67.24
786.327	67.1
786.64	67.28
786.953	67.32
787.266	66.77
787.578	66.89
787.891	66.48
788.204	66.16
788.516	66.17
788.829	65.76
789.141	65.43
789.454	65.93
789.766	65.91
790.079	65.28
790.391	65.13
790.703	64.84
791.016	64.84
791.328	65.03
791.64	64.63
791.952	64.46
792.264	64.3
792.576	64.63
792.888	64.71
793.2	64.5
793.512	64.27
793.824	65.07
794.136	65.07
794.448	65.69
794.76	66.33
795.071	66.6
795.383	66.62
795.695	66.96
796.006	66.05
796.318	66.04
796.629	66.44
796.941	66.33
797.252	66.48
797.564	66.42
797.875	66.24
798.186	66.14
798.497	66.26
798.809	65.95
799.12	65.54
799.431	65.3
799.742	65.65
800.053	65.89
800.364	65.02
800.675	64.94
800.986	64.82
801.297	64.71
801.608	63.74
801.918	63.38
802.229	63.43
802.54	64.01
802.851	64.06
803.161	64.5
803.472	64.39
803.782	64.44
804.093	64.73
804.403	64.33
804.714	65.13
805.024	64.91
805.334	64.57
805.645	65.19
805.955	65.47
806.265	65.48
806.575	65.91
806.885	66.35
807.195	66.74
807.505	66.64
807.815	66.55
808.125	66.86
808.435	67.58
808.745	67.39
809.055	67.46
809.365	67.85
809.674	67.26
809.984	68.31
810.294	68.04
810.603	68.59
810.913	69.1
811.222	68.96
811.532	69.32
811.841	70.4
812.151	70.38
812.46	69.6
812.769	69.24
813.079	68.97
813.388	68.85
813.697	68.43
814.006	68.27
814.315	68.41
814.624	68.9
814.933	68.62
815.242	68.73
815.551	68.73
815.86	69.11
816.169	69.76
816.478	68.84
816.786	68.19
817.095	66.81
817.404	66.96
817.712	66.51
818.021	67.34
818.33	67.42
818.638	66.74
818.947	67.15
819.255	66.79
819.563	66.3
819.872	66.39
820.18	66.34
820.488	66.19
820.796	66.16
821.105	66.36
821.413	66.28
821.721	66.33
822.029	66.41
822.337	66.3
822.645	66.14
822.953	65.98
823.26	65.95
823.568	66.22
823.876	66.06
824.184	66.12
824.491	65.85
824.799	65.46
825.107	65.58
825.414	65.71
825.722	65.86
826.029	66.06
826.337	66.08
826.644	66.09
826.951	65.99
827.259	66.14
827.566	65.86
827.873	66.01
828.18	65.82
828.488	65.61
828.795	65.58
829.102	65.62
829.409	66
829.716	66.37
830.023	66.28
830.329	66.5
830.636	66.28
830.943	66.57
831.25	67.11
831.557	67.05
831.863	66.38
832.17	66.49
832.476	66.33
832.783	66.59
833.089	66.52
833.396	66.72
833.702	66.09
834.009	66.78
834.315	66.54
834.621	67
834.928	66.87
835.234	66.46
835.54	66.46
835.846	66.4
836.152	66.57
836.458	66.77
836.764	66.87
837.07	66.97
837.376	66.47
837.682	66.63
837.988	67.06
838.293	67.86
838.599	68.04
838.905	67.29
839.211	66.76
839.516	66.79
839.822	67.11
840.127	67.96
840.433	68.33
840.738	68.86
841.044	69.8
841.349	70.68
841.654	71.18
841.959	72.1
842.265	71.69
842.57	71.19
842.875	70.18
843.18	70.19
843.485	70.53
843.79	71.6
844.095	72.43
844.4	71.86
844.705	72.61
845.01	72.08
845.315	74.29
845.619	74.5
845.924	75.02
846.229	74.49
846.533	74.05
846.838	71.45
847.142	71.14
847.447	69.89
847.751	70.34
848.056	70.86
848.36	70.39
848.664	70.93
848.969	71.21
849.273	72.15
849.577	72.14
849.881	71.22
850.185	71.18
850.489	67.43
850.794	65.2
851.097	63.95
851.401	65.55
851.705	63.43
852.009	64.11
852.313	64.99
852.617	67.08
852.92	67.94
853.224	67.69
853.528	68.3
853.831	67.67
854.135	66.61
854.438	66.59
854.742	66.3
855.045	66
855.349	66.98
855.652	67.41
855.955	67.64
856.259	68.27
856.562	67.16
856.865	69.7
857.168	72.26
857.471	70.22
857.774	68.74
858.077	71.1
858.38	72.54
858.683	72.17
858.986	70.97
859.289	73.4
859.592	74.04
859.894	71.75
860.197	69.94
860.5	69.89
860.802	70.69
861.105	70.44
861.407	69.76
861.71	71.47
862.012	74
862.315	74.65
862.617	74.31
862.919	74.03
863.222	75.05
863.524	74.32
863.826	74.29
864.128	73.66
864.43	72.25
864.732	70.42
865.034	68.37
865.336	66.56
865.638	63.81
865.94	63.41
866.242	62.17
866.544	63.14
866.846	64.64
867.147	64.59
867.449	63.35
867.751	63.91
868.052	61.66
868.354	59.64
868.655	56.67
868.957	55.18
869.258	56.44
869.56	54.95
869.861	57.3
870.162	59.69
870.463	58.66
870.765	59.56
871.066	59.93
871.367	61.7
871.668	62.51
871.969	62.64
872.27	60.84
872.571	63.26
872.872	64.27
873.173	64.65
873.473	62.32
873.774	60.56
874.075	59.27
874.376	60.16
874.676	60.47
874.977	61.93
875.277	65.37
875.578	62.31
875.878	62.49
876.179	60
876.479	58.58
876.78	59.71
877.08	59.01
877.38	57.5
877.68	56.75
877.981	57.26
878.281	55.7
878.581	59.84
