Data from BA28468_Reflection_00012.txt Node
Date: Mon Nov 18 15:15:08 EST 2019
User: vgr7
Spectrometer: USB2G7710
Scans to average: 3
Trigger mode: 4
Integration Time (sec): 2.000000E-2
Electric dark correction enabled: true
Boxcar width: 10
XAxis mode: Wavelengths
Number of Pixels in Spectrum: 2048
>>>>>Begin Spectral Data<<<<<
177.721	-19.28
178.105	-328.57
178.488	-16.52
178.871	12.13
179.254	49.91
179.636	850
180.019	211.68
180.402	40
180.785	-280.56
181.168	-194.2
181.55	-227.56
181.933	-2052.94
182.316	-593.51
182.698	-504.99
183.081	-403.65
183.463	-337.99
183.846	-13976.92
184.228	-1032.45
184.611	-330.09
184.993	-149.76
185.376	-116.99
185.758	-131.8
186.14	-149.89
186.522	-206.88
186.904	-174.41
187.287	-207.66
187.669	-134.42
188.051	-181.05
188.433	-124.31
188.815	-99.3
189.197	-119.19
189.579	-106.44
189.961	-144.67
190.342	-133.43
190.724	-105.48
191.106	-108.71
191.488	-115.41
191.869	-111.85
192.251	-127.57
192.633	-130.85
193.014	-134.61
193.396	-154.82
193.777	-115.24
194.159	-120.72
194.54	-105.26
194.922	-102.79
195.303	-105.05
195.684	-103.37
196.065	-72.9
196.447	-81.18
196.828	-94.73
197.209	-82.25
197.59	-84.42
197.971	-79.31
198.352	-78.88
198.733	-77.36
199.114	-65.97
199.495	-63.75
199.876	-57.21
200.257	-44.63
200.638	-47.12
201.018	-60.92
201.399	-59.91
201.78	-72.88
202.16	-80.24
202.541	-85.33
202.922	-87.33
203.302	-81.83
203.683	-90.58
204.063	-110.9
204.444	-96.46
204.824	-75.41
205.204	-80.54
205.585	-72.87
205.965	-63.22
206.345	-64.8
206.725	-87.37
207.106	-112.7
207.486	-131.45
207.866	-141.14
208.246	-136.68
208.626	-129.65
209.006	-93.02
209.386	-105.03
209.766	-119.48
210.145	-122.25
210.525	-119.06
210.905	-117.31
211.285	-105.88
211.664	-96.28
212.044	-120.12
212.424	-108.29
212.803	-125.35
213.183	-129.45
213.562	-123.48
213.942	-139.77
214.321	-136.21
214.701	-115.53
215.08	-118.04
215.459	-112.1
215.838	-110.06
216.218	-117.51
216.597	-100.25
216.976	-114.88
217.355	-100.6
217.734	-94.22
218.113	-83.8
218.492	-83.42
218.871	-90.91
219.25	-88.04
219.629	-85.72
220.008	-80.01
220.387	-86.63
220.766	-82.74
221.144	-85.57
221.523	-99.89
221.902	-92.68
222.28	-93.51
222.659	-88.84
223.037	-70.03
223.416	-67.13
223.794	-66.76
224.173	-71.96
224.551	-70.01
224.929	-61.66
225.308	-52.84
225.686	-48.98
226.064	-47.51
226.442	-45.32
226.821	-34.77
227.199	-28.82
227.577	-28.39
227.955	-26.66
228.333	-26.61
228.711	-22.1
229.089	-17.69
229.467	-16.47
229.845	-16.82
230.222	-17.71
230.6	-18.43
230.978	-19.33
231.356	-15.49
231.733	-12.08
232.111	-9.77
232.488	-10.78
232.866	-10.49
233.243	-10.94
233.621	-12.2
233.998	-10.16
234.376	-9.96
234.753	-10.97
235.13	-11.74
235.508	-10.2
235.885	-10.44
236.262	-10.99
236.639	-11.8
237.016	-10.83
237.393	-8.26
237.77	-6.01
238.147	-4.06
238.524	-3.24
238.901	-1.7
239.278	-2
239.655	-0.89
240.032	-0.4
240.409	0.17
240.785	0.55
241.162	1.16
241.539	1.88
241.915	2.09
242.292	2.07
242.668	2.48
243.045	2.78
243.421	2.86
243.798	3.09
244.174	3.22
244.551	3.21
244.927	3.28
245.303	3.32
245.679	3.43
246.056	3.44
246.432	3.36
246.808	3.27
247.184	3.38
247.56	3
247.936	2.89
248.312	2.73
248.688	2.81
249.064	2.81
249.44	2.75
249.815	2.66
250.191	2.83
250.567	2.68
250.943	2.22
251.318	2.29
251.694	2.54
252.069	2.5
252.445	2.41
252.82	2.19
253.196	2.15
253.571	1.48
253.947	1.24
254.322	1.22
254.697	1.17
255.073	1.32
255.448	1.45
255.823	1.79
256.198	2.14
256.573	2.02
256.948	2.05
257.323	2.41
257.698	2.39
258.073	2.67
258.448	2.68
258.823	2.91
259.198	2.7
259.573	2.54
259.948	2.55
260.322	2.64
260.697	2.66
261.072	2.53
261.446	2.75
261.821	2.77
262.195	2.89
262.57	2.9
262.944	2.92
263.319	2.94
263.693	2.8
264.067	2.93
264.442	3.11
264.816	3.13
265.19	2.98
265.564	3.09
265.938	2.84
266.313	2.92
266.687	3.06
267.061	3.18
267.435	3.18
267.809	3.24
268.183	3.26
268.556	3.27
268.93	3.37
269.304	3.46
269.678	3.54
270.051	3.49
270.425	3.57
270.799	3.47
271.172	3.53
271.546	3.56
271.919	3.37
272.293	3.25
272.666	3.25
273.04	3.3
273.413	3.26
273.787	3.32
274.16	3.28
274.533	3.14
274.906	2.96
275.279	2.92
275.653	2.9
276.026	2.94
276.399	2.98
276.772	3.08
277.145	3
277.518	2.94
277.891	3.01
278.263	2.82
278.636	2.92
279.009	2.75
279.382	2.83
279.755	3.01
280.127	3.28
280.5	3.4
280.872	3.43
281.245	3.41
281.617	3.49
281.99	3.59
282.362	3.56
282.735	3.59
283.107	3.58
283.479	3.68
283.852	3.6
284.224	3.59
284.596	3.48
284.968	3.55
285.34	3.62
285.713	3.55
286.085	3.73
286.457	3.67
286.829	3.73
287.201	3.78
287.572	3.7
287.944	3.38
288.316	3.3
288.688	3.2
289.06	3.19
289.431	3.06
289.803	3.05
290.175	3.15
290.546	3.39
290.918	3.47
291.289	3.46
291.661	3.46
292.032	3.61
292.403	3.7
292.775	3.58
293.146	3.59
293.517	3.57
293.889	3.57
294.26	3.56
294.631	3.67
295.002	3.7
295.373	3.68
295.744	3.9
296.115	3.88
296.486	3.88
296.857	3.93
297.228	3.98
297.599	3.93
297.97	3.88
298.34	3.76
298.711	3.81
299.082	3.76
299.452	3.85
299.823	3.87
300.194	3.72
300.564	3.74
300.935	3.69
301.305	3.78
301.676	3.73
302.046	3.81
302.416	3.8
302.787	3.65
303.157	3.68
303.527	3.52
303.897	3.59
304.267	3.78
304.637	3.79
305.008	3.83
305.378	3.98
305.748	4.01
306.117	4.08
306.487	3.92
306.857	3.98
307.227	3.98
307.597	3.78
307.967	3.91
308.336	3.94
308.706	3.95
309.076	3.89
309.445	3.81
309.815	3.74
310.184	3.71
310.554	3.86
310.923	3.78
311.293	3.89
311.662	3.82
312.031	3.7
312.401	3.79
312.77	3.78
313.139	3.69
313.508	3.71
313.877	3.73
314.246	3.8
314.616	3.74
314.985	3.71
315.353	3.75
315.722	3.66
316.091	3.7
316.46	3.68
316.829	3.71
317.198	3.84
317.567	3.95
317.935	3.9
318.304	3.88
318.672	3.95
319.041	3.94
319.41	4.05
319.778	3.99
320.147	3.91
320.515	3.86
320.883	3.83
321.252	3.92
321.62	3.93
321.988	3.94
322.357	4.05
322.725	4.17
323.093	4.26
323.461	4.36
323.829	4.43
324.197	4.61
324.565	4.69
324.933	4.76
325.301	4.64
325.669	4.6
326.037	4.61
326.405	4.6
326.772	4.75
327.14	4.77
327.508	4.87
327.875	4.85
328.243	5.05
328.61	5.07
328.978	5.07
329.346	5.14
329.713	5.18
330.08	5.16
330.448	5.1
330.815	5.02
331.182	5.02
331.55	4.9
331.917	4.79
332.284	4.73
332.651	4.65
333.018	4.74
333.385	4.89
333.752	4.87
334.119	5.06
334.486	4.92
334.853	4.93
335.22	4.89
335.587	4.91
335.954	4.88
336.32	5.01
336.687	5.02
337.054	5.02
337.42	5.04
337.787	5.13
338.153	5.16
338.52	5.27
338.886	5.21
339.253	5.18
339.619	5.2
339.986	5.25
340.352	5.3
340.718	5.28
341.084	5.38
341.451	5.42
341.817	5.31
342.183	5.44
342.549	5.47
342.915	5.58
343.281	5.61
343.647	5.56
344.013	5.58
344.379	5.59
344.745	5.58
345.11	5.59
345.476	5.56
345.842	5.56
346.208	5.52
346.573	5.69
346.939	5.83
347.304	5.8
347.67	5.75
348.035	5.78
348.401	5.85
348.766	5.77
349.132	5.67
349.497	5.66
349.862	5.58
350.228	5.62
350.593	5.58
350.958	5.56
351.323	5.5
351.688	5.46
352.053	5.49
352.418	5.48
352.783	5.51
353.148	5.52
353.513	5.5
353.878	5.47
354.243	5.48
354.608	5.44
354.972	5.56
355.337	5.66
355.702	5.66
356.066	5.64
356.431	5.57
356.795	5.62
357.16	5.6
357.524	5.56
357.889	5.52
358.253	5.47
358.618	5.51
358.982	5.52
359.346	5.43
359.71	5.37
360.075	5.39
360.439	5.45
360.803	5.44
361.167	5.4
361.531	5.39
361.895	5.36
362.259	5.36
362.623	5.32
362.987	5.3
363.351	5.28
363.714	5.27
364.078	5.3
364.442	5.27
364.806	5.29
365.169	5.31
365.533	5.26
365.896	5.31
366.26	5.26
366.623	5.24
366.987	5.32
367.35	5.32
367.714	5.31
368.077	5.16
368.44	5.16
368.803	5.15
369.167	5.13
369.53	5.07
369.893	5.09
370.256	5
370.619	4.94
370.982	4.9
371.345	4.79
371.708	4.83
372.071	4.76
372.434	4.75
372.797	4.69
373.159	4.69
373.522	4.63
373.885	4.7
374.247	4.73
374.61	4.72
374.973	4.7
375.335	4.64
375.698	4.66
376.06	4.57
376.423	4.56
376.785	4.56
377.147	4.51
377.51	4.4
377.872	4.42
378.234	4.42
378.596	4.43
378.958	4.48
379.321	4.47
379.683	4.52
380.045	4.51
380.407	4.48
380.769	4.47
381.13	4.46
381.492	4.36
381.854	4.34
382.216	4.28
382.578	4.25
382.939	4.24
383.301	4.22
383.663	4.24
384.024	4.23
384.386	4.25
384.747	4.3
385.109	4.32
385.47	4.28
385.832	4.25
386.193	4.23
386.554	4.22
386.916	4.13
387.277	4.1
387.638	4.08
387.999	4.04
388.36	4.03
388.721	4.03
389.082	4.02
389.443	3.96
389.804	3.96
390.165	3.96
390.526	3.93
390.887	3.88
391.248	3.92
391.609	3.9
391.969	3.88
392.33	3.84
392.691	3.82
393.051	3.81
393.412	3.82
393.772	3.77
394.133	3.76
394.493	3.74
394.854	3.72
395.214	3.69
395.574	3.71
395.935	3.71
396.295	3.68
396.655	3.68
397.015	3.68
397.376	3.65
397.736	3.61
398.096	3.6
398.456	3.64
398.816	3.61
399.176	3.58
399.535	3.52
399.895	3.5
400.255	3.49
400.615	3.52
400.975	3.48
401.334	3.53
401.694	3.5
402.054	3.48
402.413	3.46
402.773	3.46
403.132	3.46
403.492	3.46
403.851	3.41
404.211	3.42
404.57	3.41
404.929	3.42
405.288	3.43
405.648	3.45
406.007	3.42
406.366	3.39
406.725	3.44
407.084	3.45
407.443	3.44
407.802	3.44
408.161	3.42
408.52	3.41
408.879	3.38
409.238	3.39
409.596	3.4
409.955	3.41
410.314	3.41
410.673	3.4
411.031	3.36
411.39	3.41
411.748	3.41
412.107	3.41
412.465	3.41
412.824	3.41
413.182	3.37
413.54	3.38
413.899	3.4
414.257	3.36
414.615	3.34
414.974	3.32
415.332	3.29
415.69	3.28
416.048	3.26
416.406	3.25
416.764	3.24
417.122	3.26
417.48	3.25
417.838	3.25
418.195	3.26
418.553	3.25
418.911	3.23
419.269	3.24
419.626	3.23
419.984	3.22
420.342	3.21
420.699	3.21
421.057	3.2
421.414	3.18
421.772	3.18
422.129	3.18
422.486	3.2
422.844	3.21
423.201	3.21
423.558	3.21
423.915	3.2
424.273	3.21
424.63	3.19
424.987	3.19
425.344	3.18
425.701	3.16
426.058	3.16
426.415	3.15
426.772	3.14
427.128	3.14
427.485	3.14
427.842	3.14
428.199	3.13
428.555	3.13
428.912	3.12
429.269	3.14
429.625	3.14
429.982	3.12
430.338	3.12
430.695	3.11
431.051	3.12
431.407	3.12
431.764	3.11
432.12	3.11
432.476	3.11
432.832	3.11
433.189	3.12
433.545	3.12
433.901	3.1
434.257	3.1
434.613	3.09
434.969	3.08
435.325	3.09
435.681	3.1
436.036	3.1
436.392	3.1
436.748	3.08
437.104	3.08
437.459	3.08
437.815	3.07
438.171	3.09
438.526	3.1
438.882	3.1
439.237	3.11
439.593	3.11
439.948	3.11
440.304	3.12
440.659	3.13
441.014	3.15
441.369	3.15
441.725	3.16
442.08	3.17
442.435	3.16
442.79	3.16
443.145	3.17
443.5	3.17
443.855	3.18
444.21	3.17
444.565	3.17
444.92	3.18
445.275	3.18
445.629	3.18
445.984	3.17
446.339	3.14
446.693	3.12
447.048	3.12
447.403	3.11
447.757	3.1
448.112	3.08
448.466	3.05
448.82	3.06
449.175	3.06
449.529	3.06
449.883	3.05
450.238	3.03
450.592	3.03
450.946	3.01
451.3	3.02
451.654	3.01
452.008	3
452.362	2.98
452.716	2.98
453.07	2.98
453.424	2.98
453.778	3
454.132	2.99
454.486	3
454.839	3
455.193	3.02
455.547	3.01
455.9	3.04
456.254	3.03
456.607	3.02
456.961	3.02
457.314	3.02
457.668	3.02
458.021	3
458.375	3.02
458.728	3.02
459.081	3.02
459.434	3
459.787	3.01
460.141	3.01
460.494	3
460.847	3.01
461.2	3.01
461.553	3.02
461.906	3.02
462.259	3.01
462.611	3.01
462.964	3.02
463.317	3
463.67	3.01
464.022	3.03
464.375	3.02
464.728	3.02
465.08	3.03
465.433	3.06
465.785	3.05
466.138	3.07
466.49	3.07
466.843	3.1
467.195	3.1
467.547	3.11
467.899	3.13
468.252	3.11
468.604	3.12
468.956	3.11
469.308	3.12
469.66	3.12
470.012	3.13
470.364	3.13
470.716	3.14
471.068	3.13
471.42	3.14
471.772	3.15
472.123	3.15
472.475	3.16
472.827	3.16
473.178	3.16
473.53	3.15
473.882	3.15
474.233	3.14
474.585	3.11
474.936	3.1
475.288	3.09
475.639	3.1
475.99	3.11
476.342	3.12
476.693	3.13
477.044	3.13
477.395	3.1
477.746	3.09
478.097	3.08
478.448	3.09
478.8	3.09
479.15	3.08
479.501	3.08
479.852	3.09
480.203	3.08
480.554	3.09
480.905	3.1
481.255	3.12
481.606	3.13
481.957	3.15
482.307	3.16
482.658	3.17
483.009	3.17
483.359	3.17
483.709	3.17
484.06	3.17
484.41	3.18
484.761	3.18
485.111	3.18
485.461	3.2
485.811	3.2
486.162	3.19
486.512	3.2
486.862	3.21
487.212	3.2
487.562	3.21
487.912	3.21
488.262	3.21
488.612	3.2
488.961	3.2
489.311	3.2
489.661	3.2
490.011	3.2
490.36	3.2
490.71	3.2
491.06	3.21
491.409	3.21
491.759	3.21
492.108	3.23
492.458	3.22
492.807	3.21
493.157	3.21
493.506	3.21
493.855	3.23
494.204	3.22
494.554	3.21
494.903	3.21
495.252	3.21
495.601	3.23
495.95	3.23
496.299	3.24
496.648	3.23
496.997	3.23
497.346	3.26
497.695	3.27
498.043	3.28
498.392	3.28
498.741	3.29
499.09	3.28
499.438	3.31
499.787	3.32
500.135	3.34
500.484	3.36
500.832	3.39
501.181	3.39
501.529	3.42
501.878	3.45
502.226	3.5
502.574	3.5
502.923	3.51
503.271	3.52
503.619	3.54
503.967	3.57
504.315	3.59
504.663	3.57
505.011	3.58
505.359	3.59
505.707	3.64
506.055	3.66
506.403	3.71
506.751	3.71
507.098	3.73
507.446	3.75
507.794	3.75
508.141	3.76
508.489	3.8
508.837	3.81
509.184	3.83
509.531	3.85
509.879	3.88
510.226	3.92
510.574	3.95
510.921	3.99
511.268	4.01
511.616	4.05
511.963	4.12
512.31	4.14
512.657	4.18
513.004	4.19
513.351	4.22
513.698	4.23
514.045	4.26
514.392	4.31
514.739	4.33
515.086	4.37
515.432	4.4
515.779	4.41
516.126	4.47
516.473	4.51
516.819	4.53
517.166	4.56
517.512	4.58
517.859	4.61
518.205	4.62
518.552	4.68
518.898	4.69
519.245	4.69
519.591	4.72
519.937	4.74
520.283	4.78
520.629	4.83
520.976	4.88
521.322	4.92
521.668	4.95
522.014	5.01
522.36	5.08
522.706	5.13
523.052	5.19
523.398	5.25
523.743	5.3
524.089	5.36
524.435	5.42
524.781	5.5
525.126	5.57
525.472	5.62
525.817	5.67
526.163	5.73
526.509	5.8
526.854	5.84
527.199	5.9
527.545	5.94
527.89	5.98
528.235	6.02
528.581	6.07
528.926	6.11
529.271	6.16
529.616	6.19
529.961	6.26
530.306	6.32
530.651	6.37
530.996	6.44
531.341	6.51
531.686	6.59
532.031	6.66
532.376	6.74
532.721	6.82
533.065	6.89
533.41	6.97
533.755	7.05
534.099	7.15
534.444	7.23
534.788	7.32
535.133	7.41
535.477	7.52
535.822	7.62
536.166	7.75
536.51	7.88
536.855	8.04
537.199	8.17
537.543	8.31
537.887	8.47
538.231	8.61
538.576	8.77
538.92	8.92
539.264	9.07
539.608	9.23
539.951	9.36
540.295	9.51
540.639	9.65
540.983	9.79
541.327	9.92
541.671	10.07
542.014	10.22
542.358	10.37
542.701	10.53
543.045	10.68
543.389	10.83
543.732	10.99
544.075	11.15
544.419	11.34
544.762	11.51
545.105	11.67
545.449	11.87
545.792	12.07
546.135	12.29
546.478	12.51
546.821	12.72
547.165	12.98
547.508	13.23
547.851	13.5
548.194	13.75
548.536	14.01
548.879	14.28
549.222	14.55
549.565	14.85
549.908	15.12
550.25	15.45
550.593	15.78
550.936	16.08
551.278	16.37
551.621	16.66
551.963	16.99
552.306	17.33
552.648	17.69
552.991	18.01
553.333	18.27
553.675	18.61
554.017	18.97
554.36	19.27
554.702	19.57
555.044	19.86
555.386	20.18
555.728	20.53
556.07	20.92
556.412	21.25
556.754	21.61
557.096	21.94
557.438	22.26
557.78	22.58
558.121	22.94
558.463	23.33
558.805	23.66
559.147	24.03
559.488	24.37
559.83	24.66
560.171	25
560.513	25.35
560.854	25.67
561.196	25.99
561.537	26.37
561.878	26.68
562.22	27.09
562.561	27.45
562.902	27.81
563.243	28.1
563.584	28.48
563.925	28.79
564.266	29.14
564.607	29.5
564.948	29.84
565.289	30.12
565.63	30.43
565.971	30.76
566.312	31.07
566.653	31.39
566.993	31.73
567.334	32.07
567.675	32.45
568.015	32.76
568.356	33.03
568.696	33.35
569.037	33.7
569.377	34.01
569.718	34.3
570.058	34.58
570.398	34.87
570.739	35.15
571.079	35.41
571.419	35.71
571.759	35.97
572.099	36.25
572.439	36.59
572.779	36.83
573.119	37.19
573.459	37.48
573.799	37.75
574.139	38.01
574.479	38.24
574.819	38.44
575.158	38.75
575.498	39.02
575.838	39.26
576.177	39.53
576.517	39.75
576.856	40.08
577.196	40.31
577.535	40.63
577.875	40.88
578.214	41.14
578.553	41.42
578.893	41.69
579.232	41.9
579.571	42.12
579.91	42.38
580.25	42.52
580.589	42.67
580.928	42.87
581.267	43.11
581.606	43.31
581.945	43.52
582.283	43.65
582.622	43.92
582.961	44.15
583.3	44.34
583.639	44.53
583.977	44.71
584.316	44.94
584.654	45.11
584.993	45.3
585.332	45.54
585.67	45.77
586.008	45.98
586.347	46.11
586.685	46.36
587.024	46.53
587.362	46.78
587.7	46.98
588.038	47.15
588.376	47.32
588.715	47.48
589.053	47.68
589.391	47.85
589.729	48.05
590.067	48.26
590.404	48.4
590.742	48.57
591.08	48.63
591.418	48.85
591.756	48.97
592.093	49.16
592.431	49.33
592.769	49.47
593.106	49.5
593.444	49.64
593.781	49.73
594.119	49.87
594.456	49.97
594.793	50.1
595.131	50.23
595.468	50.36
595.805	50.54
596.143	50.62
596.48	50.78
596.817	50.86
597.154	50.97
597.491	51.07
597.828	51.19
598.165	51.39
598.502	51.45
598.839	51.62
599.176	51.7
599.512	51.82
599.849	51.86
600.186	51.97
600.523	52.19
600.859	52.31
601.196	52.48
601.532	52.62
601.869	52.77
602.205	52.91
602.542	52.99
602.878	53.04
603.215	53.14
603.551	53.21
603.887	53.26
604.223	53.25
604.56	53.27
604.896	53.33
605.232	53.36
605.568	53.42
605.904	53.44
606.24	53.57
606.576	53.62
606.912	53.7
607.248	53.88
607.583	53.92
607.919	54.01
608.255	54.03
608.591	54.09
608.926	54.11
609.262	54.12
609.597	54.21
609.933	54.28
610.268	54.27
610.604	54.33
610.939	54.4
611.275	54.56
611.61	54.69
611.945	54.82
612.281	54.91
612.616	54.94
612.951	55.08
613.286	55.15
613.621	55.27
613.956	55.36
614.291	55.46
614.626	55.59
614.961	55.64
615.296	55.77
615.631	55.79
615.966	55.88
616.3	56.02
616.635	56.07
616.97	56.07
617.304	56.18
617.639	56.23
617.973	56.28
618.308	56.25
618.642	56.37
618.977	56.35
619.311	56.42
619.646	56.55
619.98	56.51
620.314	56.6
620.648	56.53
620.983	56.62
621.317	56.63
621.651	56.61
621.985	56.73
622.319	56.74
622.653	56.83
622.987	56.9
623.321	56.96
623.655	56.95
623.988	57.12
624.322	57.19
624.656	57.21
624.99	57.29
625.323	57.37
625.657	57.4
625.99	57.52
626.324	57.51
626.657	57.48
626.991	57.55
627.324	57.56
627.658	57.62
627.991	57.63
628.324	57.71
628.657	57.84
628.991	57.85
629.324	57.9
629.657	57.87
629.99	57.82
630.323	57.77
630.656	57.84
630.989	57.8
631.322	57.86
631.655	57.87
631.987	57.95
632.32	57.98
632.653	57.99
632.986	57.94
633.318	57.98
633.651	58.08
633.984	58.09
634.316	58
634.649	58.06
634.981	58.06
635.313	58
635.646	57.96
635.978	58.01
636.31	58
636.643	58.11
636.975	58.15
637.307	58.18
637.639	58.16
637.971	58.36
638.303	58.43
638.635	58.52
638.967	58.47
639.299	58.44
639.631	58.47
639.963	58.56
640.295	58.69
640.626	58.77
640.958	58.96
641.29	59.03
641.621	59.04
641.953	59.16
642.285	59.23
642.616	59.29
642.948	59.27
643.279	59.28
643.61	59.32
643.942	59.41
644.273	59.49
644.604	59.6
644.936	59.43
645.267	59.44
645.598	59.42
645.929	59.46
646.26	59.49
646.591	59.58
646.922	59.61
647.253	59.59
647.584	59.55
647.915	59.39
648.245	59.45
648.576	59.52
648.907	59.53
649.238	59.43
649.568	59.47
649.899	59.46
650.229	59.6
650.56	59.68
650.89	59.71
651.221	59.76
651.551	59.76
651.882	59.75
652.212	59.66
652.542	59.79
652.872	59.71
653.203	59.76
653.533	59.82
653.863	59.8
654.193	59.84
654.523	59.87
654.853	59.95
655.183	59.97
655.513	60.05
655.843	60.09
656.172	60.16
656.502	60.17
656.832	60.29
657.162	60.28
657.491	60.3
657.821	60.34
658.15	60.3
658.48	60.25
658.809	60.32
659.139	60.32
659.468	60.26
659.798	60.35
660.127	60.48
660.456	60.38
660.785	60.32
661.115	60.32
661.444	60.33
661.773	60.28
662.102	60.26
662.431	60.16
662.76	60.06
663.089	60.17
663.418	60.14
663.747	60.02
664.076	59.99
664.404	60.02
664.733	59.95
665.062	60.08
665.39	60.17
665.719	60.17
666.048	60.26
666.376	60.3
666.705	60.39
667.033	60.29
667.362	60.37
667.69	60.48
668.018	60.51
668.347	60.48
668.675	60.58
669.003	60.71
669.331	60.85
669.659	60.87
669.987	60.87
670.315	60.95
670.643	61.01
670.971	61.02
671.299	60.84
671.627	60.85
671.955	60.95
672.283	60.94
672.61	61.08
672.938	60.96
673.266	60.89
673.593	61.04
673.921	61.18
674.249	61.09
674.576	61.07
674.904	60.98
675.231	61.09
675.558	61.13
675.886	61.09
676.213	61.06
676.54	61.07
676.867	61.03
677.195	60.92
677.522	60.85
677.849	60.88
678.176	60.85
678.503	60.88
678.83	60.74
679.157	60.86
679.484	60.84
679.81	60.91
680.137	60.97
680.464	60.8
680.791	60.76
681.117	60.74
681.444	60.74
681.771	60.81
682.097	60.81
682.424	60.87
682.75	60.85
683.077	60.91
683.403	60.89
683.729	60.91
684.056	61.05
684.382	61.12
684.708	61.07
685.034	61.24
685.36	61.27
685.686	61.31
686.012	61.24
686.339	61.15
686.664	61.22
686.99	61.19
687.316	61.18
687.642	61.09
687.968	61.21
688.294	61.22
688.619	61.29
688.945	61.21
689.271	61.08
689.596	61.22
689.922	61.21
690.247	61.35
690.573	61.4
690.898	61.44
691.224	61.52
691.549	61.62
691.874	61.56
692.2	61.61
692.525	61.6
692.85	61.52
693.175	61.71
693.5	61.75
693.825	61.97
694.15	62.01
694.475	61.93
694.8	61.94
695.125	61.98
695.45	61.85
695.775	61.92
696.099	61.99
696.424	62.01
696.749	61.93
697.073	61.83
697.398	61.87
697.723	61.81
698.047	61.75
698.372	61.67
698.696	61.74
699.02	61.7
699.345	61.7
699.669	61.79
699.993	61.55
700.318	61.56
700.642	61.5
700.966	61.47
701.29	61.57
701.614	61.49
701.938	61.46
702.262	61.57
702.586	61.64
702.91	61.59
703.234	61.42
703.557	61.52
703.881	61.54
704.205	61.49
704.529	61.3
704.852	61.3
705.176	61.6
705.499	61.56
705.823	61.44
706.146	61.4
706.47	61.27
706.793	61.4
707.117	61.22
707.44	61.03
707.763	60.92
708.086	60.83
708.409	61
708.733	61.11
709.056	61.16
709.379	61.18
709.702	61.18
710.025	61.38
710.348	61.25
710.671	61.3
710.993	61.29
711.316	61.34
711.639	61.29
711.962	60.92
712.284	60.83
712.607	61.06
712.93	61.14
713.252	61.1
713.575	61.13
713.897	61.12
714.22	61.04
714.542	61.15
714.864	61.41
715.187	61.24
715.509	61.13
715.831	61.07
716.153	60.96
716.475	61.1
716.798	61.09
717.12	61.17
717.442	61.02
717.764	61.04
718.085	61.15
718.407	61.24
718.729	61.44
719.051	61.47
719.373	61.41
719.695	61.28
720.016	61.32
720.338	61.34
720.659	61.49
720.981	61.7
721.302	61.75
721.624	61.47
721.945	61.54
722.267	61.57
722.588	61.48
722.909	61.48
723.231	61.29
723.552	61.04
723.873	60.92
724.194	61.22
724.515	61.35
724.836	61.42
725.157	61.22
725.478	61.23
725.799	61.39
726.12	61.25
726.441	61.41
726.762	61.45
727.083	61.61
727.403	61.67
727.724	61.67
728.045	61.8
728.365	61.96
728.686	61.85
729.006	61.92
729.327	61.99
729.647	62
729.967	62.12
730.288	62.2
730.608	62.23
730.928	62.29
731.249	62.17
731.569	62.04
731.889	62.34
732.209	62.23
732.529	62.36
732.849	62.23
733.169	62.21
733.489	62.41
733.809	62.41
734.129	62.37
734.448	62.44
734.768	62.4
735.088	62.3
735.408	62.33
735.727	62.17
736.047	62.07
736.366	62.18
736.686	62.07
737.005	62.05
737.325	62.08
737.644	61.81
737.963	61.74
738.283	61.7
738.602	61.52
738.921	61.49
739.24	61.05
739.56	61.3
739.879	61.18
740.198	61.03
740.517	60.66
740.836	60.63
741.155	60.52
741.473	60.32
741.792	60.39
742.111	60.53
742.43	60.62
742.748	60.88
743.067	60.75
743.386	60.6
743.704	60.27
744.023	60.52
744.341	60.53
744.66	60.51
744.978	60.73
745.297	60.65
745.615	60.74
745.933	61.04
746.252	61.15
746.57	61.23
746.888	61.22
747.206	61.38
747.524	61.35
747.842	61.39
748.16	61.58
748.478	61.66
748.796	61.64
749.114	61.74
749.432	61.45
749.749	61.59
750.067	61.9
750.385	62.42
750.703	62.24
751.02	62.6
751.338	62.72
751.655	62.77
751.973	62.89
752.29	63.32
752.608	63.08
752.925	63
753.242	62.75
753.56	62.9
753.877	62.84
754.194	62.88
754.511	62.85
754.828	62.78
755.145	62.47
755.462	62.64
755.779	62.2
756.096	62.24
756.413	62.05
756.73	61.71
757.047	61.79
757.364	62.02
757.68	61.82
757.997	61.65
758.314	61.18
758.63	61.47
758.947	60.97
759.264	61.23
759.58	61.43
759.896	61.86
760.213	61.54
760.529	61.72
760.846	61.84
761.162	62.11
761.478	62.12
761.794	62.29
762.11	62.19
762.426	62.42
762.743	62.72
763.059	62.69
763.375	62.74
763.69	62.35
764.006	62.35
764.322	62.39
764.638	62.61
764.954	62.76
765.27	62.79
765.585	62.92
765.901	62.74
766.216	62.54
766.532	62.25
766.848	62.51
767.163	62.34
767.478	62.06
767.794	61.92
768.109	61.69
768.424	61.74
768.74	61.43
769.055	61.18
769.37	60.92
769.685	60.68
770	60.76
770.315	61.01
770.63	60.73
770.945	60.71
771.26	60.37
771.575	60.7
771.89	60.28
772.205	60.03
772.52	60.22
772.834	60.15
773.149	60.34
773.464	60.4
773.778	60.43
774.093	60.54
774.407	60.37
774.722	60.55
775.036	60.98
775.351	61.37
775.665	61.85
775.979	61.66
776.293	62.02
776.608	62.05
776.922	62
777.236	61.87
777.55	61.73
777.864	61.83
778.178	61.39
778.492	61.5
778.806	61.7
779.12	61.54
779.434	61.81
779.747	61.74
780.061	61.53
780.375	61.81
780.689	61.69
781.002	61.78
781.316	61.33
781.629	60.41
781.943	60.15
782.256	59.89
782.57	60.03
782.883	59.85
783.196	59.99
783.51	59.89
783.823	59.98
784.136	59.9
784.449	60.32
784.762	60.21
785.075	60.12
785.388	59.75
785.701	59.75
786.014	59.92
786.327	59.89
786.64	59.67
786.953	59.51
787.266	59.93
787.578	60.54
787.891	61.25
788.204	61.58
788.516	61.55
788.829	61.62
789.141	61.37
789.454	61.58
789.766	61.76
790.079	61.72
790.391	61.85
790.703	61.64
791.016	61.37
791.328	61.66
791.64	62.15
791.952	62.55
792.264	62.72
792.576	62.5
792.888	62.49
793.2	62.49
793.512	62.88
793.824	62.56
794.136	61.2
794.448	61.42
794.76	61.09
795.071	61.49
795.383	61.49
795.695	61.25
796.006	61
796.318	60.76
796.629	61.07
796.941	60.87
797.252	61.12
797.564	61.28
797.875	61.11
798.186	60.53
798.497	59.85
798.809	59.54
799.12	59.08
799.431	59.22
799.742	59.42
800.053	58.89
800.364	58.51
800.675	59.49
800.986	59.3
801.297	59.41
801.608	59.4
801.918	58.98
802.229	59.82
802.54	59.42
802.851	59.15
803.161	58.5
803.472	58.52
803.782	58.52
804.093	57.79
804.403	57.89
804.714	57.84
805.024	58.28
805.334	58.82
805.645	58.7
805.955	58.73
806.265	58.97
806.575	59.43
806.885	60.1
807.195	59.26
807.505	59.64
807.815	59.56
808.125	58.9
808.435	59.37
808.745	58.38
809.055	58.92
809.365	58.98
809.674	59.31
809.984	59.38
810.294	59.31
810.603	60.03
810.913	60.13
811.222	59.83
811.532	59.96
811.841	59.59
812.151	59.98
812.46	59.89
812.769	59.58
813.079	58.89
813.388	58.86
813.697	59.13
814.006	58.23
814.315	58.41
814.624	59.09
814.933	59.22
815.242	59.81
815.551	60.28
815.86	59.75
816.169	59.49
816.478	59.46
816.786	59.33
817.095	59.38
817.404	59.85
817.712	60.02
818.021	60.29
818.33	61.1
818.638	61.19
818.947	61.61
819.255	61.84
819.563	62.36
819.872	62.35
820.18	62.8
820.488	62.61
820.796	62.65
821.105	63.01
821.413	63.16
821.721	63.09
822.029	63.1
822.337	63.4
822.645	63.82
822.953	63.58
823.26	63.78
823.568	63.63
823.876	63.5
824.184	63.65
824.491	63.53
824.799	63.33
825.107	63.3
825.414	63.27
825.722	63.28
826.029	63.22
826.337	63.11
826.644	62.96
826.951	63.29
827.259	63.1
827.566	62.58
827.873	62.43
828.18	62.49
828.488	62.58
828.795	62.45
829.102	62.1
829.409	62.64
829.716	62.49
830.023	62.47
830.329	62.41
830.636	62.55
830.943	62.68
831.25	62.79
831.557	63.05
831.863	63.04
832.17	63.23
832.476	63.53
832.783	63.47
833.089	63.88
833.396	63.57
833.702	63.66
834.009	64.3
834.315	63.98
834.621	64.04
834.928	63.3
835.234	63.03
835.54	62.44
835.846	61.88
836.152	61.53
836.458	61.35
836.764	61.34
837.07	60.92
837.376	60.65
837.682	60.43
837.988	59.94
838.293	59.53
838.599	58.98
838.905	58.07
839.211	58.12
839.516	57.34
839.822	57.16
840.127	57.29
840.433	56.92
840.738	57.36
841.044	56.89
841.349	56.86
841.654	56.46
841.959	57.34
842.265	57.76
842.57	59.2
842.875	59.97
843.18	59.52
843.485	60.08
843.79	60.46
844.095	59.9
844.4	59.94
844.705	59.69
845.01	59.7
845.315	59.68
845.619	60.04
845.924	60.91
846.229	59.9
846.533	59.41
846.838	58.24
847.142	58.81
847.447	57.97
847.751	58.37
848.056	59.67
848.36	57.46
848.664	56.79
848.969	54.2
849.273	53.97
849.577	54.63
849.881	52.05
850.185	51.27
850.489	52.06
850.794	53.34
851.097	55.01
851.401	54.46
851.705	54.61
852.009	54.97
852.313	52.45
852.617	52.67
852.92	53.94
853.224	53.78
853.528	51.83
853.831	51.99
854.135	50.99
854.438	49.13
854.742	51.14
855.045	50.28
855.349	50.44
855.652	49.75
855.955	49.68
856.259	50.64
856.562	51.13
856.865	50.85
857.168	50.21
857.471	48.71
857.774	47.74
858.077	48.32
858.38	48.87
858.683	49.72
858.986	52.14
859.289	49.98
859.592	50.39
859.894	51.43
860.197	52.99
860.5	52.67
860.802	54.15
861.105	52.35
861.407	51.83
861.71	52.63
862.012	51.5
862.315	51.62
862.617	49.81
862.919	49.59
863.222	51.4
863.524	48.85
863.826	48.8
864.128	49.57
864.43	47.86
864.732	47.78
865.034	47.32
865.336	45.32
865.638	46.82
865.94	46.63
866.242	47.85
866.544	45.38
866.846	45.43
867.147	45.53
867.449	45.8
867.751	48.32
868.052	47.23
868.354	49.39
868.655	46.24
868.957	46.44
869.258	47.07
869.56	44.9
869.861	46.12
870.162	46.81
870.463	48.23
870.765	50.39
871.066	47.54
871.367	48.88
871.668	46.76
871.969	46.52
872.27	44.23
872.571	43.2
872.872	45.45
873.173	45.55
873.473	45.17
873.774	46.67
874.075	46.35
874.376	48.99
874.676	46.78
874.977	50.25
875.277	53.41
875.578	52.21
875.878	52.71
876.179	53.97
876.479	53.11
876.78	51.73
877.08	50.58
877.38	53.13
877.68	51.92
877.981	54.55
878.281	55.33
878.581	60.93
