Data from BA28299_Reflection_00013.txt Node
Date: Mon Nov 18 15:42:50 EST 2019
User: vgr7
Spectrometer: USB2G7710
Scans to average: 3
Trigger mode: 4
Integration Time (sec): 2.000000E-2
Electric dark correction enabled: true
Boxcar width: 10
XAxis mode: Wavelengths
Number of Pixels in Spectrum: 2048
>>>>>Begin Spectral Data<<<<<
177.721	89.65
178.105	8.05
178.488	227.85
178.871	-339.39
179.254	-27.85
179.636	126.4
180.019	32.79
180.402	30.77
180.785	86.39
181.168	120.83
181.55	-224.79
181.933	193.99
182.316	94.67
182.698	68.3
183.081	93.88
183.463	133.23
183.846	78.24
184.228	713.76
184.611	3033.33
184.993	-117.47
185.376	-103.48
185.758	-270.37
186.14	-283.27
186.522	-355.42
186.904	-183.44
187.287	-341.63
187.669	-82.21
188.051	-95.98
188.433	-77.36
188.815	-101.51
189.197	-85.86
189.579	-65.49
189.961	-78.39
190.342	-89.87
190.724	-77.53
191.106	-77.69
191.488	-63.1
191.869	-46.13
192.251	-40.19
192.633	-55.37
193.014	-41.82
193.396	-47.24
193.777	-47.76
194.159	-41.44
194.54	-18.67
194.922	-23.24
195.303	-17.63
195.684	-11.98
196.065	-3.79
196.447	-8.06
196.828	0.9
197.209	0.9
197.59	-5.23
197.971	-7.45
198.352	18.95
198.733	9.23
199.114	17.62
199.495	14.55
199.876	24.26
200.257	27
200.638	22.24
201.018	15.24
201.399	30.88
201.78	32.35
202.16	30.57
202.541	24.15
202.922	30.14
203.302	20.42
203.683	10.9
204.063	0.37
204.444	12.42
204.824	5.95
205.204	11.54
205.585	21.36
205.965	29.93
206.345	9.89
206.725	25.15
207.106	19.26
207.486	8.05
207.866	-39.91
208.246	-21.21
208.626	-5.29
209.006	22.09
209.386	9.23
209.766	21.46
210.145	26.77
210.525	14.15
210.905	-2.86
211.285	-2.27
211.664	4.22
212.044	5.14
212.424	-7.09
212.803	-5.61
213.183	-4.7
213.562	-18.89
213.942	-16.53
214.321	-12.65
214.701	-19.2
215.08	-30.99
215.459	-34.96
215.838	-30.45
216.218	-64.25
216.597	-51.49
216.976	-52.07
217.355	-46.16
217.734	-54.64
218.113	-63.08
218.492	-45.57
218.871	-44.97
219.25	-39.1
219.629	-46.27
220.008	-43.92
220.387	-38.09
220.766	-34.71
221.144	-57.74
221.523	-54
221.902	-49.42
222.28	-50.19
222.659	-38.09
223.037	-39.97
223.416	-37.62
223.794	-31.64
224.173	-22.7
224.551	-18.68
224.929	-18.47
225.308	-17.79
225.686	-11.5
226.064	-4.69
226.442	-10.88
226.821	-4.25
227.199	-0.16
227.577	-0.34
227.955	-0.44
228.333	-3
228.711	-3.51
229.089	0.22
229.467	-0.91
229.845	-2.12
230.222	1.14
230.6	1.65
230.978	4.86
231.356	6.92
231.733	8.35
232.111	9.92
232.488	11.35
232.866	11.04
233.243	11.27
233.621	9.78
233.998	11.05
234.376	11.53
234.753	10.88
235.13	8.92
235.508	10.18
235.885	10.34
236.262	11.46
236.639	11.97
237.016	11.2
237.393	12.02
237.77	12.87
238.147	11.92
238.524	10.15
238.901	9.21
239.278	8.65
239.655	8.35
240.032	7.7
240.409	7.11
240.785	7.64
241.162	7.7
241.539	7.7
241.915	7.18
242.292	7.08
242.668	6.78
243.045	7.26
243.421	7.06
243.798	6.88
244.174	6.91
244.551	6.87
244.927	6.82
245.303	6.9
245.679	6.79
246.056	6.55
246.432	6.61
246.808	6.53
247.184	6.46
247.56	6.47
247.936	6.49
248.312	6.4
248.688	6.24
249.064	6
249.44	5.95
249.815	5.83
250.191	5.79
250.567	5.83
250.943	5.67
251.318	5.73
251.694	5.98
252.069	5.85
252.445	5.77
252.82	5.75
253.196	5.41
253.571	5.17
253.947	5.22
254.322	5.44
254.697	5.19
255.073	5.13
255.448	4.76
255.823	4.86
256.198	4.96
256.573	4.77
256.948	4.98
257.323	5.19
257.698	5.21
258.073	5.25
258.448	5.17
258.823	5.12
259.198	4.89
259.573	4.85
259.948	4.89
260.322	4.79
260.697	4.71
261.072	4.62
261.446	4.57
261.821	4.56
262.195	4.42
262.57	4.49
262.944	4.34
263.319	4.37
263.693	4.33
264.067	4.24
264.442	4.45
264.816	4.33
265.19	4.18
265.564	4.28
265.938	4.23
266.313	4.12
266.687	3.98
267.061	4.11
267.435	4.09
267.809	4.07
268.183	4.16
268.556	4.36
268.93	4.54
269.304	4.72
269.678	4.87
270.051	4.97
270.425	5.04
270.799	5.07
271.172	5.24
271.546	5.09
271.919	4.98
272.293	4.85
272.666	4.9
273.04	4.95
273.413	4.77
273.787	4.77
274.16	4.96
274.533	5.11
274.906	5.07
275.279	5.18
275.653	5.16
276.026	5
276.399	4.83
276.772	4.75
277.145	4.62
277.518	4.46
277.891	4.38
278.263	4.35
278.636	4.43
279.009	4.26
279.382	4.55
279.755	4.61
280.127	4.81
280.5	4.79
280.872	4.88
281.245	4.98
281.617	5.12
281.99	5.12
282.362	5.04
282.735	5.12
283.107	5.07
283.479	5.02
283.852	5.18
284.224	5.29
284.596	5.3
284.968	5.4
285.34	5.47
285.713	5.52
286.085	5.59
286.457	5.66
286.829	5.81
287.201	5.68
287.572	5.61
287.944	5.43
288.316	5.53
288.688	5.5
289.06	5.47
289.431	5.53
289.803	5.53
290.175	5.58
290.546	5.7
290.918	5.68
291.289	5.9
291.661	5.86
292.032	6.04
292.403	6.17
292.775	6.2
293.146	6.12
293.517	6.14
293.889	6.24
294.26	6.27
294.631	6.28
295.002	6.41
295.373	6.63
295.744	6.82
296.115	6.86
296.486	6.8
296.857	6.96
297.228	6.97
297.599	6.93
297.97	7.01
298.34	7.03
298.711	7.08
299.082	6.98
299.452	7.13
299.823	7.2
300.194	7.27
300.564	7.33
300.935	7.5
301.305	7.6
301.676	7.65
302.046	7.78
302.416	7.87
302.787	7.84
303.157	7.86
303.527	7.99
303.897	8.07
304.267	8.3
304.637	8.27
305.008	8.35
305.378	8.53
305.748	8.67
306.117	8.62
306.487	8.74
306.857	8.89
307.227	8.97
307.597	8.93
307.967	9.04
308.336	9.19
308.706	9.29
309.076	9.27
309.445	9.28
309.815	9.24
310.184	9.43
310.554	9.68
310.923	9.84
311.293	9.77
311.662	9.76
312.031	9.91
312.401	10.01
312.77	10.17
313.139	10.26
313.508	10.37
313.877	10.49
314.246	10.58
314.616	10.66
314.985	10.74
315.353	10.7
315.722	10.71
316.091	10.64
316.46	10.75
316.829	11.05
317.198	11.19
317.567	11.42
317.935	11.29
318.304	11.27
318.672	11.17
319.041	11.4
319.41	11.46
319.778	11.42
320.147	11.45
320.515	11.32
320.883	11.31
321.252	11.43
321.62	11.59
321.988	11.67
322.357	11.71
322.725	11.71
323.093	11.85
323.461	11.99
323.829	12.13
324.197	12.2
324.565	12.22
324.933	12.35
325.301	12.27
325.669	12.53
326.037	12.53
326.405	12.69
326.772	12.71
327.14	12.84
327.508	13
327.875	13.17
328.243	13.29
328.61	13.4
328.978	13.39
329.346	13.55
329.713	13.62
330.08	13.73
330.448	13.77
330.815	13.84
331.182	13.8
331.55	13.83
331.917	13.89
332.284	13.87
332.651	13.86
333.018	13.89
333.385	13.78
333.752	13.95
334.119	13.9
334.486	13.94
334.853	13.94
335.22	13.79
335.587	13.77
335.954	13.84
336.32	13.95
336.687	13.94
337.054	13.86
337.42	13.9
337.787	13.97
338.153	14.04
338.52	14.22
338.886	14.21
339.253	14.29
339.619	14.34
339.986	14.37
340.352	14.44
340.718	14.58
341.084	14.61
341.451	14.54
341.817	14.66
342.183	14.73
342.549	14.77
342.915	14.97
343.281	14.91
343.647	14.88
344.013	14.92
344.379	15.01
344.745	15.08
345.11	15.13
345.476	15.16
345.842	15.28
346.208	15.26
346.573	15.44
346.939	15.54
347.304	15.52
347.67	15.51
348.035	15.55
348.401	15.58
348.766	15.61
349.132	15.73
349.497	15.68
349.862	15.73
350.228	15.82
350.593	15.77
350.958	15.95
351.323	16.05
351.688	16.13
352.053	16.13
352.418	16.19
352.783	16.18
353.148	16.18
353.513	16.18
353.878	16.18
354.243	16.18
354.608	16.15
354.972	16.26
355.337	16.41
355.702	16.39
356.066	16.5
356.431	16.53
356.795	16.57
357.16	16.61
357.524	16.62
357.889	16.52
358.253	16.57
358.618	16.49
358.982	16.46
359.346	16.33
359.71	16.32
360.075	16.33
360.439	16.36
360.803	16.33
361.167	16.31
361.531	16.26
361.895	16.17
362.259	16.09
362.623	15.95
362.987	15.88
363.351	15.85
363.714	15.83
364.078	15.81
364.442	15.76
364.806	15.69
365.169	15.64
365.533	15.67
365.896	15.64
366.26	15.68
366.623	15.62
366.987	15.68
367.35	15.71
367.714	15.62
368.077	15.48
368.44	15.45
368.803	15.38
369.167	15.38
369.53	15.38
369.893	15.45
370.256	15.56
370.619	15.49
370.982	15.45
371.345	15.34
371.708	15.31
372.071	15.24
372.434	15.18
372.797	15.19
373.159	15.06
373.522	15.02
373.885	14.96
374.247	14.89
374.61	14.85
374.973	14.72
375.335	14.65
375.698	14.61
376.06	14.57
376.423	14.52
376.785	14.43
377.147	14.44
377.51	14.34
377.872	14.18
378.234	14.14
378.596	14.11
378.958	14.09
379.321	14.02
379.683	13.92
380.045	13.89
380.407	13.8
380.769	13.8
381.13	13.76
381.492	13.6
381.854	13.6
382.216	13.53
382.578	13.46
382.939	13.37
383.301	13.38
383.663	13.27
384.024	13.23
384.386	13.24
384.747	13.21
385.109	13.19
385.47	13.17
385.832	13.14
386.193	13.12
386.554	13.1
386.916	13.07
387.277	13.04
387.638	13.05
387.999	12.95
388.36	12.86
388.721	12.76
389.082	12.78
389.443	12.71
389.804	12.66
390.165	12.62
390.526	12.58
390.887	12.5
391.248	12.51
391.609	12.44
391.969	12.36
392.33	12.29
392.691	12.18
393.051	12.1
393.412	12.06
393.772	11.92
394.133	11.81
394.493	11.71
394.854	11.64
395.214	11.52
395.574	11.46
395.935	11.43
396.295	11.35
396.655	11.27
397.015	11.2
397.376	11.08
397.736	10.99
398.096	10.92
398.456	10.85
398.816	10.76
399.176	10.68
399.535	10.57
399.895	10.45
400.255	10.38
400.615	10.32
400.975	10.22
401.334	10.16
401.694	10.12
402.054	10.06
402.413	10.01
402.773	9.97
403.132	9.91
403.492	9.84
403.851	9.83
404.211	9.76
404.57	9.71
404.929	9.69
405.288	9.63
405.648	9.58
406.007	9.55
406.366	9.51
406.725	9.49
407.084	9.47
407.443	9.47
407.802	9.47
408.161	9.43
408.52	9.43
408.879	9.38
409.238	9.36
409.596	9.36
409.955	9.34
410.314	9.3
410.673	9.28
411.031	9.28
411.39	9.22
411.748	9.2
412.107	9.16
412.465	9.13
412.824	9.12
413.182	9.06
413.54	9.02
413.899	8.97
414.257	8.93
414.615	8.89
414.974	8.82
415.332	8.76
415.69	8.7
416.048	8.62
416.406	8.57
416.764	8.53
417.122	8.46
417.48	8.4
417.838	8.34
418.195	8.3
418.553	8.24
418.911	8.2
419.269	8.16
419.626	8.12
419.984	8.07
420.342	8.03
420.699	8.01
421.057	7.98
421.414	7.94
421.772	7.9
422.129	7.86
422.486	7.83
422.844	7.8
423.201	7.76
423.558	7.74
423.915	7.73
424.273	7.68
424.63	7.63
424.987	7.61
425.344	7.59
425.701	7.56
426.058	7.54
426.415	7.52
426.772	7.5
427.128	7.47
427.485	7.46
427.842	7.42
428.199	7.42
428.555	7.38
428.912	7.36
429.269	7.35
429.625	7.34
429.982	7.33
430.338	7.31
430.695	7.31
431.051	7.3
431.407	7.26
431.764	7.28
432.12	7.3
432.476	7.28
432.832	7.27
433.189	7.27
433.545	7.25
433.901	7.23
434.257	7.23
434.613	7.24
434.969	7.21
435.325	7.23
435.681	7.21
436.036	7.22
436.392	7.23
436.748	7.22
437.104	7.21
437.459	7.19
437.815	7.18
438.171	7.17
438.526	7.17
438.882	7.18
439.237	7.16
439.593	7.16
439.948	7.15
440.304	7.14
440.659	7.14
441.014	7.12
441.369	7.11
441.725	7.09
442.08	7.07
442.435	7.04
442.79	7
443.145	6.96
443.5	6.93
443.855	6.91
444.21	6.88
444.565	6.85
444.92	6.84
445.275	6.82
445.629	6.79
445.984	6.76
446.339	6.73
446.693	6.7
447.048	6.67
447.403	6.63
447.757	6.61
448.112	6.56
448.466	6.53
448.82	6.52
449.175	6.5
449.529	6.48
449.883	6.48
450.238	6.47
450.592	6.45
450.946	6.42
451.3	6.39
451.654	6.37
452.008	6.36
452.362	6.32
452.716	6.33
453.07	6.3
453.424	6.3
453.778	6.31
454.132	6.29
454.486	6.28
454.839	6.28
455.193	6.28
455.547	6.29
455.9	6.34
456.254	6.33
456.607	6.36
456.961	6.35
457.314	6.34
457.668	6.36
458.021	6.35
458.375	6.36
458.728	6.39
459.081	6.41
459.434	6.42
459.787	6.44
460.141	6.46
460.494	6.48
460.847	6.52
461.2	6.52
461.553	6.55
461.906	6.58
462.259	6.62
462.611	6.66
462.964	6.7
463.317	6.71
463.67	6.75
464.022	6.76
464.375	6.79
464.728	6.84
465.08	6.89
465.433	6.94
465.785	6.98
466.138	6.99
466.49	7.04
466.843	7.1
467.195	7.13
467.547	7.15
467.899	7.19
468.252	7.17
468.604	7.2
468.956	7.23
469.308	7.23
469.66	7.26
470.012	7.29
470.364	7.31
470.716	7.31
471.068	7.33
471.42	7.36
471.772	7.4
472.123	7.43
472.475	7.44
472.827	7.44
473.178	7.44
473.53	7.45
473.882	7.42
474.233	7.42
474.585	7.4
474.936	7.39
475.288	7.37
475.639	7.37
475.99	7.36
476.342	7.36
476.693	7.35
477.044	7.34
477.395	7.29
477.746	7.27
478.097	7.27
478.448	7.25
478.8	7.21
479.15	7.14
479.501	7.12
479.852	7.12
480.203	7.11
480.554	7.12
480.905	7.11
481.255	7.13
481.606	7.14
481.957	7.15
482.307	7.15
482.658	7.15
483.009	7.16
483.359	7.16
483.709	7.17
484.06	7.17
484.41	7.19
484.761	7.19
485.111	7.19
485.461	7.19
485.811	7.2
486.162	7.22
486.512	7.24
486.862	7.25
487.212	7.25
487.562	7.28
487.912	7.29
488.262	7.3
488.612	7.32
488.961	7.33
489.311	7.34
489.661	7.36
490.011	7.4
490.36	7.43
490.71	7.45
491.06	7.48
491.409	7.51
491.759	7.53
492.108	7.57
492.458	7.6
492.807	7.64
493.157	7.68
493.506	7.72
493.855	7.78
494.204	7.85
494.554	7.91
494.903	7.97
495.252	8.04
495.601	8.12
495.95	8.21
496.299	8.27
496.648	8.38
496.997	8.46
497.346	8.53
497.695	8.61
498.043	8.72
498.392	8.8
498.741	8.88
499.09	8.98
499.438	9.1
499.787	9.24
500.135	9.37
500.484	9.49
500.832	9.61
501.181	9.73
501.529	9.83
501.878	9.98
502.226	10.1
502.574	10.24
502.923	10.38
503.271	10.48
503.619	10.64
503.967	10.76
504.315	10.92
504.663	11.09
505.011	11.25
505.359	11.4
505.707	11.57
506.055	11.75
506.403	11.91
506.751	12.06
507.098	12.23
507.446	12.39
507.794	12.53
508.141	12.71
508.489	12.89
508.837	13.07
509.184	13.22
509.531	13.41
509.879	13.58
510.226	13.72
510.574	13.9
510.921	14.07
511.268	14.27
511.616	14.45
511.963	14.62
512.31	14.79
512.657	14.97
513.004	15.17
513.351	15.36
513.698	15.53
514.045	15.72
514.392	15.89
514.739	16.1
515.086	16.32
515.432	16.49
515.779	16.69
516.126	16.87
516.473	17.07
516.819	17.26
517.166	17.42
517.512	17.63
517.859	17.81
518.205	17.98
518.552	18.13
518.898	18.3
519.245	18.45
519.591	18.63
519.937	18.81
520.283	19.01
520.629	19.19
520.976	19.42
521.322	19.63
521.668	19.86
522.014	20.07
522.36	20.3
522.706	20.52
523.052	20.76
523.398	21.03
523.743	21.32
524.089	21.6
524.435	21.89
524.781	22.14
525.126	22.4
525.472	22.63
525.817	22.86
526.163	23.07
526.509	23.3
526.854	23.47
527.199	23.65
527.545	23.78
527.89	23.96
528.235	24.12
528.581	24.32
528.926	24.5
529.271	24.67
529.616	24.87
529.961	25.06
530.306	25.26
530.651	25.49
530.996	25.69
531.341	25.93
531.686	26.16
532.031	26.36
532.376	26.58
532.721	26.84
533.065	27.09
533.41	27.34
533.755	27.57
534.099	27.87
534.444	28.16
534.788	28.46
535.133	28.71
535.477	29.01
535.822	29.31
536.166	29.62
536.51	29.97
536.855	30.33
537.199	30.71
537.543	31.08
537.887	31.41
538.231	31.77
538.576	32.14
538.92	32.49
539.264	32.89
539.608	33.27
539.951	33.59
540.295	33.91
540.639	34.22
540.983	34.56
541.327	34.81
541.671	35.09
542.014	35.35
542.358	35.66
542.701	35.91
543.045	36.17
543.389	36.46
543.732	36.77
544.075	37.03
544.419	37.33
544.762	37.62
545.105	37.92
545.449	38.28
545.792	38.59
546.135	38.96
546.478	39.31
546.821	39.64
547.165	40.02
547.508	40.36
547.851	40.75
548.194	41.07
548.536	41.47
548.879	41.88
549.222	42.25
549.565	42.63
549.908	43.09
550.25	43.5
550.593	43.85
550.936	44.17
551.278	44.56
551.621	44.97
551.963	45.38
552.306	45.75
552.648	46.14
552.991	46.53
553.333	46.85
553.675	47.16
554.017	47.5
554.36	47.84
554.702	48.1
555.044	48.35
555.386	48.68
555.728	49.02
556.07	49.33
556.412	49.7
556.754	50.06
557.096	50.36
557.438	50.6
557.78	50.92
558.121	51.31
558.463	51.61
558.805	51.87
559.147	52.18
559.488	52.51
559.83	52.76
560.171	52.98
560.513	53.31
560.854	53.54
561.196	53.77
561.537	53.97
561.878	54.26
562.22	54.52
562.561	54.75
562.902	54.96
563.243	55.17
563.584	55.35
563.925	55.47
564.266	55.62
564.607	55.8
564.948	56
565.289	56.15
565.63	56.39
565.971	56.58
566.312	56.69
566.653	56.83
566.993	56.97
567.334	57.17
567.675	57.27
568.015	57.5
568.356	57.73
568.696	57.93
569.037	58.12
569.377	58.33
569.718	58.49
570.058	58.66
570.398	58.82
570.739	58.93
571.079	59.07
571.419	59.24
571.759	59.5
572.099	59.6
572.439	59.74
572.779	59.81
573.119	59.91
573.459	60.04
573.799	60.19
574.139	60.34
574.479	60.42
574.819	60.51
575.158	60.56
575.498	60.63
575.838	60.75
576.177	60.86
576.517	60.97
576.856	61.1
577.196	61.14
577.535	61.22
577.875	61.39
578.214	61.52
578.553	61.65
578.893	61.71
579.232	61.88
579.571	62
579.91	62.16
580.25	62.27
580.589	62.51
580.928	62.58
581.267	62.63
581.606	62.8
581.945	62.92
582.283	63.08
582.622	63.27
582.961	63.38
583.3	63.45
583.639	63.59
583.977	63.67
584.316	63.89
584.654	63.92
584.993	63.99
585.332	64.11
585.67	64.2
586.008	64.16
586.347	64.26
586.685	64.3
587.024	64.28
587.362	64.4
587.7	64.43
588.038	64.55
588.376	64.63
588.715	64.66
589.053	64.83
589.391	64.94
589.729	65.01
590.067	64.98
590.404	65.07
590.742	65.16
591.08	65.25
591.418	65.24
591.756	65.38
592.093	65.4
592.431	65.48
592.769	65.48
593.106	65.59
593.444	65.59
593.781	65.62
594.119	65.65
594.456	65.66
594.793	65.77
595.131	65.72
595.468	65.78
595.805	65.88
596.143	65.86
596.48	65.94
596.817	65.92
597.154	66.01
597.491	66
597.828	65.98
598.165	65.98
598.502	66.05
598.839	66.1
599.176	66.28
599.512	66.28
599.849	66.35
600.186	66.44
600.523	66.51
600.859	66.58
601.196	66.66
601.532	66.76
601.869	66.69
602.205	66.74
602.542	66.79
602.878	66.81
603.215	66.77
603.551	66.72
603.887	66.8
604.223	66.8
604.56	66.84
604.896	66.84
605.232	66.86
605.568	66.92
605.904	66.92
606.24	66.88
606.576	66.94
606.912	66.96
607.248	67
607.583	67.01
607.919	67.1
608.255	67.15
608.591	67.1
608.926	67.15
609.262	67.26
609.597	67.25
609.933	67.27
610.268	67.38
610.604	67.4
610.939	67.41
611.275	67.54
611.61	67.59
611.945	67.68
612.281	67.76
612.616	67.77
612.951	67.83
613.286	67.87
613.621	67.89
613.956	67.94
614.291	67.93
614.626	67.97
614.961	68.03
615.296	68.14
615.631	68.26
615.966	68.28
616.3	68.2
616.635	68.35
616.97	68.4
617.304	68.51
617.639	68.62
617.973	68.62
618.308	68.62
618.642	68.64
618.977	68.64
619.311	68.62
619.646	68.68
619.98	68.74
620.314	68.77
620.648	68.85
620.983	68.88
621.317	68.91
621.651	68.94
621.985	68.83
622.319	68.85
622.653	68.82
622.987	68.88
623.321	68.99
623.655	68.92
623.988	68.94
624.322	68.93
624.656	68.92
624.99	68.92
625.323	68.82
625.657	68.83
625.99	68.83
626.324	68.81
626.657	68.81
626.991	68.73
627.324	68.75
627.658	68.76
627.991	68.85
628.324	68.97
628.657	69.07
628.991	69.08
629.324	69.03
629.657	69.1
629.99	69.07
630.323	69.07
630.656	69.18
630.989	69.28
631.322	69.25
631.655	69.32
631.987	69.38
632.32	69.46
632.653	69.5
632.986	69.61
633.318	69.69
633.651	69.63
633.984	69.74
634.316	69.68
634.649	69.72
634.981	69.68
635.313	69.59
635.646	69.63
635.978	69.72
636.31	69.71
636.643	69.6
636.975	69.65
637.307	69.73
637.639	69.68
637.971	69.57
638.303	69.53
638.635	69.55
638.967	69.57
639.299	69.53
639.631	69.56
639.963	69.52
640.295	69.48
640.626	69.58
640.958	69.62
641.29	69.68
641.621	69.68
641.953	69.68
642.285	69.68
642.616	69.54
642.948	69.55
643.279	69.66
643.61	69.71
643.942	69.72
644.273	69.68
644.604	69.71
644.936	69.79
645.267	69.92
645.598	69.95
645.929	69.93
646.26	69.99
646.591	70.07
646.922	70.06
647.253	70.13
647.584	70.16
647.915	70.14
648.245	70.3
648.576	70.32
648.907	70.42
649.238	70.49
649.568	70.59
649.899	70.66
650.229	70.61
650.56	70.71
650.89	70.72
651.221	70.81
651.551	70.83
651.882	70.8
652.212	70.72
652.542	70.57
652.872	70.63
653.203	70.56
653.533	70.52
653.863	70.52
654.193	70.5
654.523	70.52
654.853	70.48
655.183	70.33
655.513	70.13
655.843	70.1
656.172	70
656.502	69.95
656.832	69.88
657.162	69.99
657.491	70.04
657.821	69.97
658.15	69.89
658.48	69.87
658.809	69.89
659.139	69.93
659.468	69.94
659.798	69.82
660.127	69.87
660.456	69.87
660.785	69.8
661.115	69.82
661.444	69.78
661.773	69.7
662.102	69.76
662.431	69.83
662.76	69.82
663.089	69.9
663.418	69.84
663.747	69.91
664.076	69.74
664.404	69.75
664.733	69.81
665.062	69.86
665.39	69.95
665.719	70.01
666.048	70.11
666.376	70.18
666.705	70.34
667.033	70.41
667.362	70.48
667.69	70.58
668.018	70.46
668.347	70.52
668.675	70.76
669.003	70.78
669.331	70.99
669.659	71.05
669.987	71.09
670.315	71.17
670.643	71.11
670.971	71.18
671.299	71.14
671.627	71.07
671.955	71.05
672.283	70.99
672.61	70.91
672.938	70.84
673.266	70.81
673.593	70.86
673.921	70.83
674.249	70.76
674.576	70.8
674.904	71.02
675.231	70.86
675.558	70.74
675.886	70.8
676.213	70.71
676.54	70.58
676.867	70.62
677.195	70.69
677.522	70.78
677.849	70.91
678.176	70.83
678.503	70.88
678.83	71.03
679.157	70.94
679.484	70.8
679.81	70.78
680.137	70.88
680.464	70.79
680.791	70.82
681.117	70.83
681.444	70.93
681.771	70.8
682.097	70.91
682.424	70.82
682.75	70.75
683.077	70.73
683.403	70.93
683.729	70.98
684.056	71.01
684.382	70.85
684.708	70.72
685.034	70.89
685.36	70.99
685.686	70.93
686.012	70.91
686.339	71.02
686.664	71.16
686.99	71.05
687.316	71.14
687.642	71.21
687.968	71.28
688.294	71.16
688.619	71.15
688.945	71.2
689.271	71.31
689.596	71.41
689.922	71.44
690.247	71.42
690.573	71.38
690.898	71.35
691.224	71.44
691.549	71.48
691.874	71.26
692.2	71.25
692.525	71.16
692.85	71.33
693.175	71.53
693.5	71.36
693.825	71.57
694.15	71.49
694.475	71.36
694.8	71.26
695.125	71.09
695.45	71.24
695.775	71.24
696.099	71.32
696.424	71.33
696.749	71.43
697.073	71.35
697.398	71.31
697.723	71.19
698.047	71.19
698.372	71.07
698.696	71.2
699.02	71.35
699.345	71.32
699.669	71.3
699.993	71.19
700.318	71.33
700.642	71.26
700.966	71.32
701.29	71.41
701.614	71.38
701.938	71.58
702.262	71.55
702.586	71.36
702.91	71.3
703.234	71.36
703.557	71.38
703.881	71.32
704.205	71.43
704.529	71.46
704.852	71.62
705.176	71.86
705.499	71.86
705.823	71.71
706.146	71.68
706.47	71.65
706.793	71.65
707.117	71.39
707.44	71.38
707.763	71.39
708.086	71.32
708.409	71.39
708.733	71.18
709.056	71.15
709.379	71.23
709.702	71.15
710.025	70.95
710.348	70.99
710.671	71.07
710.993	70.86
711.316	70.93
711.639	70.88
711.962	70.83
712.284	70.87
712.607	70.71
712.93	70.74
713.252	70.78
713.575	70.95
713.897	71.32
714.22	71.22
714.542	70.93
714.864	71.03
715.187	71.23
715.509	71.27
715.831	71.38
716.153	71.3
716.475	71.34
716.798	71.47
717.12	71.36
717.442	71.51
717.764	71.59
718.085	71.77
718.407	71.78
718.729	71.79
719.051	71.55
719.373	71.92
719.695	72.04
720.016	72.05
720.338	71.95
720.659	71.58
720.981	71.67
721.302	71.96
721.624	71.95
721.945	71.67
722.267	71.99
722.588	71.95
722.909	72.15
723.231	72.22
723.552	72.05
723.873	71.83
724.194	71.62
724.515	71.59
724.836	71.18
725.157	71.16
725.478	71.33
725.799	71.62
726.12	71.39
726.441	71.22
726.762	71.48
727.083	71.38
727.403	71.59
727.724	71.51
728.045	71.87
728.365	71.82
728.686	71.85
729.006	71.78
729.327	71.88
729.647	72.12
729.967	72.17
730.288	72.36
730.608	72.58
730.928	72.65
731.249	72.74
731.569	72.9
731.889	73
732.209	72.75
732.529	72.57
732.849	72.38
733.169	72.39
733.489	72.05
733.809	72.4
734.129	72.33
734.448	72.49
734.768	72.41
735.088	72.47
735.408	72.55
735.727	72.69
736.047	72.64
736.366	72.37
736.686	72.43
737.005	72.45
737.325	72.32
737.644	72.37
737.963	72.31
738.283	72.41
738.602	72.3
738.921	72.64
739.24	72.94
739.56	73.17
739.879	73.32
740.198	73.47
740.517	73.23
740.836	73.42
741.155	73.58
741.473	73.51
741.792	73.49
742.111	73.59
742.43	73.38
742.748	73.48
743.067	73.77
743.386	73.73
743.704	73.84
744.023	73.89
744.341	73.75
744.66	74.12
744.978	73.96
745.297	73.98
745.615	73.72
745.933	73.73
746.252	73.97
746.57	74.14
746.888	74.06
747.206	73.86
747.524	73.72
747.842	73.38
748.16	73.26
748.478	72.75
748.796	73.29
749.114	73.38
749.432	73.45
749.749	72.95
750.067	72.66
750.385	72.36
750.703	72.5
751.02	72.63
751.338	72.11
751.655	72.21
751.973	72.42
752.29	72.3
752.608	72.45
752.925	72.1
753.242	71.97
753.56	72.19
753.877	72.36
754.194	72.65
754.511	72.74
754.828	72.65
755.145	73.2
755.462	72.57
755.779	72.23
756.096	72.12
756.413	72.85
756.73	73.33
757.047	73.45
757.364	73.43
757.68	73.63
757.997	74
758.314	73.78
758.63	73.62
758.947	73.77
759.264	73.28
759.58	73.47
759.896	73.37
760.213	72.99
760.529	73.25
760.846	73.01
761.162	72.78
761.478	72.87
761.794	72.88
762.11	72.85
762.426	73.26
762.743	73.23
763.059	72.79
763.375	72.5
763.69	72.74
764.006	73.04
764.322	72.79
764.638	72.77
764.954	73.14
765.27	73.32
765.585	73.41
765.901	73.62
766.216	73.59
766.532	73.85
766.848	74.16
767.163	74
767.478	73.98
767.794	74.28
768.109	74.09
768.424	74.08
768.74	73.92
769.055	73.89
769.37	74.15
769.685	74.14
770	74.16
770.315	73.82
770.63	73.18
770.945	73.52
771.26	73.32
771.575	73.22
771.89	72.78
772.205	72.64
772.52	72.44
772.834	72.87
773.149	72.61
773.464	72.61
773.778	72.4
774.093	72.4
774.407	72.26
774.722	72.87
775.036	72.95
775.351	73.41
775.665	73.03
775.979	72.45
776.293	73.25
776.608	73.19
776.922	73.25
777.236	73.19
777.55	72.74
777.864	73.06
778.178	72.86
778.492	73.13
778.806	72.85
779.12	72.91
779.434	73.01
779.747	73.07
780.061	72.65
780.375	72.64
780.689	72.78
781.002	73.12
781.316	72.85
781.629	73.09
781.943	72.55
782.256	72.86
782.57	73.37
782.883	72.49
783.196	72.78
783.51	72.67
783.823	72.79
784.136	73.26
784.449	73.4
784.762	73.41
785.075	73.69
785.388	73.92
785.701	74.18
786.014	73.69
786.327	73.8
786.64	74.38
786.953	74.44
787.266	74.32
787.578	73.93
787.891	73.91
788.204	73.2
788.516	73.38
788.829	73.3
789.141	73.39
789.454	73.9
789.766	73.36
790.079	73.48
790.391	73.9
790.703	73.95
791.016	73.64
791.328	73.75
791.64	73.59
791.952	73.91
792.264	73.87
792.576	73.6
792.888	73.68
793.2	73.29
793.512	73.19
793.824	72.69
794.136	72.95
794.448	72.78
794.76	73.05
795.071	73.24
795.383	73
795.695	72.94
796.006	72.4
796.318	73
796.629	73.36
796.941	72.87
797.252	72.59
797.564	72.81
797.875	72.66
798.186	72.57
798.497	71.7
798.809	71.71
799.12	71.56
799.431	71.24
799.742	71.17
800.053	71.08
800.364	71.89
800.675	71.65
800.986	71.86
801.297	72.01
801.608	71.92
801.918	71.82
802.229	71.5
802.54	71.69
802.851	71.7
803.161	71.13
803.472	70.84
803.782	71.29
804.093	70.84
804.403	70.42
804.714	70.32
805.024	70.68
805.334	70.32
805.645	70.61
805.955	71.07
806.265	71.64
806.575	72.14
806.885	72.17
807.195	72.14
807.505	71.75
807.815	71.79
808.125	71.63
808.435	72.01
808.745	72.49
809.055	72.63
809.365	72.82
809.674	72.8
809.984	73.81
810.294	73.07
810.603	72.97
810.913	73.5
811.222	73.53
811.532	73.79
811.841	74.07
812.151	74.09
812.46	74.31
812.769	73.46
813.079	73.08
813.388	72.43
813.697	72.64
814.006	71.98
814.315	72.17
814.624	72.62
814.933	72.21
815.242	71.78
815.551	71.91
815.86	71.73
816.169	71.95
816.478	71.13
816.786	71.57
817.095	71.98
817.404	72.31
817.712	71.79
818.021	72.87
818.33	72.94
818.638	72.91
818.947	72.65
819.255	73.08
819.563	73.32
819.872	73.19
820.18	73.65
820.488	74.64
820.796	74.39
821.105	74.46
821.413	74.66
821.721	74.22
822.029	74.07
822.337	74.22
822.645	74.09
822.953	74.18
823.26	74.11
823.568	74.04
823.876	74.04
824.184	74.24
824.491	73.84
824.799	73.75
825.107	73.79
825.414	73.96
825.722	74.2
826.029	74.15
826.337	74.28
826.644	74.12
826.951	73.85
827.259	74.04
827.566	73.81
827.873	73.62
828.18	73.98
828.488	73.77
828.795	73.64
829.102	73.78
829.409	73.85
829.716	73.67
830.023	73.87
830.329	73.94
830.636	73.78
830.943	73.94
831.25	74.03
831.557	73.98
831.863	73.46
832.17	72.74
832.476	72.68
832.783	73.04
833.089	73.03
833.396	72.36
833.702	72.36
834.009	72.21
834.315	71.88
834.621	71.7
834.928	72.57
835.234	72.26
835.54	72.38
835.846	72.34
836.152	73.01
836.458	73.07
836.764	72.53
837.07	72.61
837.376	72.54
837.682	72.46
837.988	72.36
838.293	72.48
838.599	73.13
838.905	73.77
839.211	73.66
839.516	73.4
839.822	73.2
840.127	72.57
840.433	73.95
840.738	74.5
841.044	74.26
841.349	73.96
841.654	74.23
841.959	73.77
842.265	73.12
842.57	71.53
842.875	70.64
843.18	71.2
843.485	71.33
843.79	72.03
844.095	71.96
844.4	71.37
844.705	70.59
845.01	69.2
845.315	68.63
845.619	69.01
845.924	68.61
846.229	70.63
846.533	69.99
846.838	67.76
847.142	69.19
847.447	69.9
847.751	68.66
848.056	67.48
848.36	68.68
848.664	68.91
848.969	71.12
849.273	69.89
849.577	69.37
849.881	67.69
850.185	66.44
850.489	68.38
850.794	70.04
851.097	72.27
851.401	72.17
851.705	70.83
852.009	70.17
852.313	71.77
852.617	72.38
852.92	73.37
853.224	73.46
853.528	71.54
853.831	69.7
854.135	70.97
854.438	74.84
854.742	72.29
855.045	72.89
855.349	73.08
855.652	76.23
855.955	76.52
856.259	78.64
856.562	81.06
856.865	78.93
857.168	79.08
857.471	77.45
857.774	79.67
858.077	80.52
858.38	81.63
858.683	79.42
858.986	76.14
859.289	75.62
859.592	76.23
859.894	78.24
860.197	80.61
860.5	79.64
860.802	76.48
861.105	78.84
861.407	80.46
861.71	79.68
862.012	77.33
862.315	78.08
862.617	79.05
862.919	76.12
863.222	76.21
863.524	73.75
863.826	72.8
864.128	69.93
864.43	69.19
864.732	66.93
865.034	66.52
865.336	68.65
865.638	68.13
865.94	68.32
866.242	64.4
866.544	64.89
866.846	64.05
867.147	63.21
867.449	64.13
867.751	64.77
868.052	64.59
868.354	65.59
868.655	65.92
868.957	65.36
869.258	65.86
869.56	66.54
869.861	65.99
870.162	67.78
870.463	69.41
870.765	69.82
871.066	68.58
871.367	70.21
871.668	70.23
871.969	72.62
872.27	72.45
872.571	75.14
872.872	76.5
873.173	77.09
873.473	75.59
873.774	72.68
874.075	71.93
874.376	72.24
874.676	71.84
874.977	69.85
875.277	69.23
875.578	70
875.878	69.27
876.179	71.18
876.479	70.37
876.78	69.85
877.08	69.77
877.38	71.53
877.68	71.6
877.981	71.32
878.281	69.45
878.581	69.35
