Data from BA28469_Reflection_00010.txt Node
Date: Mon Nov 18 15:18:06 EST 2019
User: vgr7
Spectrometer: USB2G7710
Scans to average: 3
Trigger mode: 4
Integration Time (sec): 2.000000E-2
Electric dark correction enabled: true
Boxcar width: 10
XAxis mode: Wavelengths
Number of Pixels in Spectrum: 2048
>>>>>Begin Spectral Data<<<<<
177.721	204.74
178.105	-11900
178.488	-49.44
178.871	-1.04
179.254	-18.81
179.636	24100
180.019	-157.67
180.402	184.21
180.785	-49.38
181.168	-49.21
181.55	-12.68
181.933	56.04
182.316	43.43
182.698	-10.12
183.081	-80.39
183.463	-158.3
183.846	-114.05
184.228	-183.19
184.611	-118.18
184.993	-13233.33
185.376	732.91
185.758	421.68
186.14	367.28
186.522	1269.81
186.904	444.37
187.287	-430.97
187.669	327.98
188.051	274.5
188.433	121.69
188.815	97
189.197	69.53
189.579	95.58
189.961	94.21
190.342	85.11
190.724	74.16
191.106	74.2
191.488	64.49
191.869	81.52
192.251	93.91
192.633	89.42
193.014	92.5
193.396	101.56
193.777	104.52
194.159	100
194.54	100
194.922	95.43
195.303	102.77
195.684	102.67
196.065	120.56
196.447	133.8
196.828	154.67
197.209	144.88
197.59	162.56
197.971	158.54
198.352	131.51
198.733	210.28
199.114	173.25
199.495	186.96
199.876	180.16
200.257	178.14
200.638	149.76
201.018	152.88
201.399	164.21
201.78	174.64
202.16	216.87
202.541	267.69
202.922	262.05
203.302	260.36
203.683	249.14
204.063	252.75
204.444	206.84
204.824	187.75
205.204	186.96
205.585	153.92
205.965	140.72
206.345	121.95
206.725	94.52
207.106	80.32
207.486	59.95
207.866	35.22
208.246	34.09
208.626	23.19
209.006	15.33
209.386	-17.99
209.766	-30.38
210.145	-21.97
210.525	-2.26
210.905	14.31
211.285	18.94
211.664	7.77
212.044	-5.07
212.424	-3.87
212.803	-21.63
213.183	-16.12
213.562	-19.73
213.942	-11.27
214.321	5.4
214.701	9.14
215.08	17.31
215.459	16.46
215.838	24.97
216.218	18.98
216.597	26.94
216.976	21.96
217.355	31.63
217.734	26.74
218.113	37.31
218.492	37.77
218.871	30.74
219.25	35.87
219.629	38.11
220.008	28.53
220.387	14.56
220.766	29.37
221.144	16.61
221.523	15.74
221.902	10.35
222.28	-19.77
222.659	-26.33
223.037	-32.26
223.416	-35.57
223.794	-32.09
224.173	-14.19
224.551	-14.94
224.929	-17.13
225.308	-11.25
225.686	-6.58
226.064	-8.11
226.442	-3.18
226.821	-3.14
227.199	-7.93
227.577	-6.08
227.955	-5.97
228.333	-2.16
228.711	0.62
229.089	5.78
229.467	5.84
229.845	7.65
230.222	10.16
230.6	8.97
230.978	12.03
231.356	12.52
231.733	12.34
232.111	11.62
232.488	12.15
232.866	12.07
233.243	11.05
233.621	10.83
233.998	11.25
234.376	10.34
234.753	11.28
235.13	11.71
235.508	11.99
235.885	12.42
236.262	11.57
236.639	10.11
237.016	7.86
237.393	7.56
237.77	7.37
238.147	7.23
238.524	7.41
238.901	6.38
239.278	5.94
239.655	6.06
240.032	6.53
240.409	5.98
240.785	6.17
241.162	6.07
241.539	6.29
241.915	6.08
242.292	5.64
242.668	5.48
243.045	5.77
243.421	5.58
243.798	5.51
244.174	5.68
244.551	5.45
244.927	5.57
245.303	5.61
245.679	5.55
246.056	5.22
246.432	5.12
246.808	5.12
247.184	5.34
247.56	4.94
247.936	4.59
248.312	4.62
248.688	4.72
249.064	4.72
249.44	4.79
249.815	4.75
250.191	4.88
250.567	5.03
250.943	4.9
251.318	5.04
251.694	5.25
252.069	5.14
252.445	5.31
252.82	5.41
253.196	5.58
253.571	5.23
253.947	5.33
254.322	5.51
254.697	5.6
255.073	5.18
255.448	5.21
255.823	5.25
256.198	5.3
256.573	5.12
256.948	5.18
257.323	5.04
257.698	5.07
258.073	5.14
258.448	5.1
258.823	5.19
259.198	5.19
259.573	4.97
259.948	4.78
260.322	4.75
260.697	4.64
261.072	4.47
261.446	4.7
261.821	4.79
262.195	4.78
262.57	4.67
262.944	4.7
263.319	4.76
263.693	4.85
264.067	4.87
264.442	4.95
264.816	4.73
265.19	4.66
265.564	4.57
265.938	4.38
266.313	4.17
266.687	4.12
267.061	4.33
267.435	4.53
267.809	4.76
268.183	4.67
268.556	4.74
268.93	4.92
269.304	4.84
269.678	4.93
270.051	4.79
270.425	4.95
270.799	4.99
271.172	5.03
271.546	5.05
271.919	4.88
272.293	4.84
272.666	4.96
273.04	5.01
273.413	5.02
273.787	5.12
274.16	5.11
274.533	5.09
274.906	4.8
275.279	4.74
275.653	4.51
276.026	4.55
276.399	4.55
276.772	4.64
277.145	4.63
277.518	4.46
277.891	4.41
278.263	4.42
278.636	4.38
279.009	4.45
279.382	4.39
279.755	4.49
280.127	4.58
280.5	4.65
280.872	4.67
281.245	4.67
281.617	4.75
281.99	4.94
282.362	4.87
282.735	4.83
283.107	4.75
283.479	4.89
283.852	4.91
284.224	4.85
284.596	4.68
284.968	4.59
285.34	4.69
285.713	4.76
286.085	4.65
286.457	4.81
286.829	4.77
287.201	4.82
287.572	4.74
287.944	4.7
288.316	4.61
288.688	4.7
289.06	4.83
289.431	4.78
289.803	4.61
290.175	4.78
290.546	5.06
290.918	5.14
291.289	5.26
291.661	5.34
292.032	5.42
292.403	5.28
292.775	5.33
293.146	5.31
293.517	5.27
293.889	5.36
294.26	5.27
294.631	5.4
295.002	5.38
295.373	5.4
295.744	5.45
296.115	5.53
296.486	5.37
296.857	5.34
297.228	5.36
297.599	5.5
297.97	5.42
298.34	5.3
298.711	5.38
299.082	5.4
299.452	5.41
299.823	5.42
300.194	5.59
300.564	5.59
300.935	5.59
301.305	5.62
301.676	5.67
302.046	5.72
302.416	5.73
302.787	5.79
303.157	5.84
303.527	5.89
303.897	5.96
304.267	6.2
304.637	6.3
305.008	6.39
305.378	6.45
305.748	6.51
306.117	6.46
306.487	6.42
306.857	6.4
307.227	6.53
307.597	6.57
307.967	6.63
308.336	6.66
308.706	6.72
309.076	6.81
309.445	6.86
309.815	6.89
310.184	6.85
310.554	6.84
310.923	6.89
311.293	6.92
311.662	6.88
312.031	6.84
312.401	6.75
312.77	6.82
313.139	6.97
313.508	6.96
313.877	6.95
314.246	7.02
314.616	7.07
314.985	6.94
315.353	6.92
315.722	6.98
316.091	7.03
316.46	7.03
316.829	7.04
317.198	7.13
317.567	7.1
317.935	7.18
318.304	7.24
318.672	7.44
319.041	7.46
319.41	7.49
319.778	7.6
320.147	7.72
320.515	7.71
320.883	7.57
321.252	7.75
321.62	7.9
321.988	7.76
322.357	7.68
322.725	7.77
323.093	7.95
323.461	8.01
323.829	8.09
324.197	8.11
324.565	8.16
324.933	8.08
325.301	8.21
325.669	8.27
326.037	8.24
326.405	8.07
326.772	8.09
327.14	8.28
327.508	8.24
327.875	8.21
328.243	8.31
328.61	8.37
328.978	8.3
329.346	8.41
329.713	8.5
330.08	8.64
330.448	8.64
330.815	8.49
331.182	8.55
331.55	8.69
331.917	8.81
332.284	8.84
332.651	8.8
333.018	8.78
333.385	8.82
333.752	8.93
334.119	8.98
334.486	8.98
334.853	8.89
335.22	8.99
335.587	9.03
335.954	8.87
336.32	8.84
336.687	8.88
337.054	8.76
337.42	8.91
337.787	8.9
338.153	8.98
338.52	9.16
338.886	9.02
339.253	8.96
339.619	9
339.986	9
340.352	9.17
340.718	9.16
341.084	9.22
341.451	9.38
341.817	9.51
342.183	9.47
342.549	9.53
342.915	9.44
343.281	9.42
343.647	9.58
344.013	9.68
344.379	9.68
344.745	9.8
345.11	9.67
345.476	9.7
345.842	9.77
346.208	9.82
346.573	9.94
346.939	9.97
347.304	9.9
347.67	9.96
348.035	9.96
348.401	10.01
348.766	10.03
349.132	9.89
349.497	9.83
349.862	9.94
350.228	10.01
350.593	10
350.958	10.19
351.323	10.15
351.688	10.14
352.053	10.27
352.418	10.27
352.783	10.38
353.148	10.38
353.513	10.32
353.878	10.24
354.243	10.24
354.608	10.17
354.972	10.15
355.337	10.17
355.702	10.19
356.066	10.29
356.431	10.2
356.795	10.29
357.16	10.28
357.524	10.28
357.889	10.22
358.253	10.32
358.618	10.19
358.982	10.17
359.346	10.06
359.71	10.01
360.075	10.04
360.439	10.04
360.803	10.03
361.167	9.97
361.531	9.95
361.895	9.93
362.259	9.98
362.623	9.99
362.987	9.94
363.351	9.91
363.714	9.81
364.078	9.75
364.442	9.64
364.806	9.62
365.169	9.57
365.533	9.54
365.896	9.46
366.26	9.45
366.623	9.4
366.987	9.47
367.35	9.46
367.714	9.43
368.077	9.41
368.44	9.39
368.803	9.39
369.167	9.35
369.53	9.3
369.893	9.29
370.256	9.25
370.619	9.2
370.982	9.12
371.345	9.05
371.708	9.09
372.071	9.03
372.434	8.94
372.797	8.9
373.159	8.85
373.522	8.81
373.885	8.86
374.247	8.82
374.61	8.74
374.973	8.59
375.335	8.49
375.698	8.38
376.06	8.29
376.423	8.21
376.785	8.17
377.147	8.17
377.51	8.02
377.872	7.99
378.234	7.91
378.596	7.86
378.958	7.79
379.321	7.68
379.683	7.69
380.045	7.69
380.407	7.61
380.769	7.5
381.13	7.49
381.492	7.33
381.854	7.26
382.216	7.19
382.578	7.13
382.939	7.04
383.301	7.04
383.663	6.99
384.024	7
384.386	7.05
384.747	6.97
385.109	6.95
385.47	6.91
385.832	6.92
386.193	6.92
386.554	6.91
386.916	6.94
387.277	6.9
387.638	6.85
387.999	6.78
388.36	6.78
388.721	6.73
389.082	6.7
389.443	6.67
389.804	6.62
390.165	6.61
390.526	6.63
390.887	6.59
391.248	6.6
391.609	6.54
391.969	6.42
392.33	6.37
392.691	6.36
393.051	6.33
393.412	6.3
393.772	6.25
394.133	6.2
394.493	6.14
394.854	6.09
395.214	6.05
395.574	6.03
395.935	5.99
396.295	5.97
396.655	5.95
397.015	5.93
397.376	5.87
397.736	5.83
398.096	5.78
398.456	5.75
398.816	5.73
399.176	5.65
399.535	5.58
399.895	5.55
400.255	5.47
400.615	5.42
400.975	5.35
401.334	5.33
401.694	5.28
402.054	5.24
402.413	5.23
402.773	5.17
403.132	5.13
403.492	5.1
403.851	5.06
404.211	5.04
404.57	4.99
404.929	5
405.288	4.95
405.648	4.92
406.007	4.88
406.366	4.84
406.725	4.86
407.084	4.91
407.443	4.89
407.802	4.93
408.161	4.91
408.52	4.88
408.879	4.84
409.238	4.83
409.596	4.84
409.955	4.81
410.314	4.84
410.673	4.84
411.031	4.81
411.39	4.8
411.748	4.79
412.107	4.8
412.465	4.79
412.824	4.78
413.182	4.77
413.54	4.77
413.899	4.78
414.257	4.77
414.615	4.73
414.974	4.74
415.332	4.72
415.69	4.72
416.048	4.71
416.406	4.7
416.764	4.69
417.122	4.68
417.48	4.65
417.838	4.62
418.195	4.61
418.553	4.62
418.911	4.61
419.269	4.6
419.626	4.6
419.984	4.57
420.342	4.57
420.699	4.56
421.057	4.56
421.414	4.54
421.772	4.52
422.129	4.53
422.486	4.51
422.844	4.5
423.201	4.48
423.558	4.49
423.915	4.49
424.273	4.47
424.63	4.45
424.987	4.45
425.344	4.44
425.701	4.44
426.058	4.41
426.415	4.38
426.772	4.35
427.128	4.32
427.485	4.32
427.842	4.31
428.199	4.29
428.555	4.25
428.912	4.26
429.269	4.25
429.625	4.22
429.982	4.19
430.338	4.17
430.695	4.16
431.051	4.12
431.407	4.1
431.764	4.11
432.12	4.11
432.476	4.11
432.832	4.1
433.189	4.11
433.545	4.1
433.901	4.11
434.257	4.11
434.613	4.13
434.969	4.12
435.325	4.13
435.681	4.14
436.036	4.14
436.392	4.11
436.748	4.09
437.104	4.1
437.459	4.1
437.815	4.11
438.171	4.1
438.526	4.11
438.882	4.11
439.237	4.11
439.593	4.11
439.948	4.1
440.304	4.1
440.659	4.07
441.014	4.11
441.369	4.09
441.725	4.09
442.08	4.09
442.435	4.09
442.79	4.1
443.145	4.09
443.5	4.08
443.855	4.08
444.21	4.09
444.565	4.08
444.92	4.09
445.275	4.08
445.629	4.07
445.984	4.05
446.339	4.04
446.693	4.03
447.048	4.01
447.403	4.01
447.757	4.02
448.112	4.01
448.466	3.98
448.82	3.99
449.175	3.98
449.529	3.97
449.883	3.95
450.238	3.92
450.592	3.92
450.946	3.93
451.3	3.93
451.654	3.91
452.008	3.91
452.362	3.88
452.716	3.88
453.07	3.89
453.424	3.92
453.778	3.91
454.132	3.92
454.486	3.93
454.839	3.93
455.193	3.9
455.547	3.9
455.9	3.92
456.254	3.91
456.607	3.91
456.961	3.9
457.314	3.9
457.668	3.91
458.021	3.9
458.375	3.89
458.728	3.88
459.081	3.9
459.434	3.89
459.787	3.91
460.141	3.91
460.494	3.9
460.847	3.89
461.2	3.88
461.553	3.88
461.906	3.89
462.259	3.88
462.611	3.91
462.964	3.91
463.317	3.92
463.67	3.91
464.022	3.92
464.375	3.94
464.728	3.96
465.08	3.99
465.433	3.99
465.785	4.02
466.138	4.02
466.49	4.02
466.843	4.04
467.195	4.05
467.547	4.07
467.899	4.09
468.252	4.1
468.604	4.11
468.956	4.12
469.308	4.13
469.66	4.15
470.012	4.16
470.364	4.17
470.716	4.17
471.068	4.18
471.42	4.17
471.772	4.18
472.123	4.17
472.475	4.15
472.827	4.14
473.178	4.15
473.53	4.15
473.882	4.15
474.233	4.17
474.585	4.15
474.936	4.14
475.288	4.13
475.639	4.14
475.99	4.15
476.342	4.14
476.693	4.13
477.044	4.14
477.395	4.13
477.746	4.13
478.097	4.12
478.448	4.15
478.8	4.14
479.15	4.13
479.501	4.15
479.852	4.16
480.203	4.17
480.554	4.16
480.905	4.17
481.255	4.17
481.606	4.14
481.957	4.15
482.307	4.14
482.658	4.14
483.009	4.14
483.359	4.14
483.709	4.15
484.06	4.14
484.41	4.14
484.761	4.14
485.111	4.14
485.461	4.15
485.811	4.15
486.162	4.15
486.512	4.15
486.862	4.14
487.212	4.14
487.562	4.13
487.912	4.12
488.262	4.11
488.612	4.11
488.961	4.11
489.311	4.11
489.661	4.11
490.011	4.11
490.36	4.1
490.71	4.1
491.06	4.09
491.409	4.1
491.759	4.1
492.108	4.1
492.458	4.11
492.807	4.1
493.157	4.1
493.506	4.1
493.855	4.1
494.204	4.12
494.554	4.13
494.903	4.14
495.252	4.16
495.601	4.18
495.95	4.2
496.299	4.22
496.648	4.24
496.997	4.26
497.346	4.28
497.695	4.31
498.043	4.33
498.392	4.35
498.741	4.39
499.09	4.41
499.438	4.47
499.787	4.48
500.135	4.52
500.484	4.55
500.832	4.6
501.181	4.62
501.529	4.64
501.878	4.7
502.226	4.75
502.574	4.79
502.923	4.85
503.271	4.89
503.619	4.96
503.967	4.98
504.315	5.02
504.663	5.08
505.011	5.14
505.359	5.16
505.707	5.23
506.055	5.28
506.403	5.33
506.751	5.37
507.098	5.41
507.446	5.48
507.794	5.54
508.141	5.6
508.489	5.68
508.837	5.74
509.184	5.8
509.531	5.85
509.879	5.9
510.226	5.97
510.574	6.03
510.921	6.07
511.268	6.14
511.616	6.21
511.963	6.28
512.31	6.33
512.657	6.44
513.004	6.51
513.351	6.58
513.698	6.69
514.045	6.75
514.392	6.83
514.739	6.91
515.086	7.01
515.432	7.07
515.779	7.14
516.126	7.23
516.473	7.31
516.819	7.4
517.166	7.48
517.512	7.54
517.859	7.62
518.205	7.69
518.552	7.77
518.898	7.84
519.245	7.92
519.591	8
519.937	8.06
520.283	8.12
520.629	8.21
520.976	8.3
521.322	8.39
521.668	8.5
522.014	8.59
522.36	8.67
522.706	8.76
523.052	8.9
523.398	9.04
523.743	9.15
524.089	9.28
524.435	9.4
524.781	9.51
525.126	9.63
525.472	9.74
525.817	9.85
526.163	9.94
526.509	10.03
526.854	10.12
527.199	10.22
527.545	10.3
527.89	10.39
528.235	10.46
528.581	10.57
528.926	10.65
529.271	10.76
529.616	10.85
529.961	10.98
530.306	11.08
530.651	11.17
530.996	11.3
531.341	11.42
531.686	11.57
532.031	11.73
532.376	11.87
532.721	12.02
533.065	12.17
533.41	12.33
533.755	12.5
534.099	12.68
534.444	12.86
534.788	13.06
535.133	13.24
535.477	13.44
535.822	13.64
536.166	13.86
536.51	14.1
536.855	14.34
537.199	14.61
537.543	14.89
537.887	15.18
538.231	15.45
538.576	15.74
538.92	16
539.264	16.23
539.608	16.51
539.951	16.77
540.295	17.04
540.639	17.27
540.983	17.52
541.327	17.77
541.671	18
542.014	18.2
542.358	18.43
542.701	18.66
543.045	18.9
543.389	19.14
543.732	19.38
544.075	19.64
544.419	19.89
544.762	20.15
545.105	20.43
545.449	20.71
545.792	21.03
546.135	21.35
546.478	21.74
546.821	22.1
547.165	22.48
547.508	22.85
547.851	23.24
548.194	23.6
548.536	23.97
548.879	24.4
549.222	24.84
549.565	25.25
549.908	25.67
550.25	26.1
550.593	26.52
550.936	26.95
551.278	27.39
551.621	27.86
551.963	28.33
552.306	28.79
552.648	29.23
552.991	29.63
553.333	30.05
553.675	30.44
554.017	30.87
554.36	31.25
554.702	31.64
555.044	32.06
555.386	32.48
555.728	32.87
556.07	33.28
556.412	33.71
556.754	34.14
557.096	34.61
557.438	35.02
557.78	35.43
558.121	35.91
558.463	36.3
558.805	36.72
559.147	37.08
559.488	37.47
559.83	37.84
560.171	38.26
560.513	38.66
560.854	39.05
561.196	39.42
561.537	39.78
561.878	40.2
562.22	40.56
562.561	40.94
562.902	41.31
563.243	41.62
563.584	41.96
563.925	42.32
564.266	42.58
564.607	42.92
564.948	43.28
565.289	43.63
565.63	43.92
565.971	44.23
566.312	44.56
566.653	44.91
566.993	45.23
567.334	45.54
567.675	45.82
568.015	46.14
568.356	46.4
568.696	46.69
569.037	46.97
569.377	47.29
569.718	47.57
570.058	47.86
570.398	48.13
570.739	48.38
571.079	48.61
571.419	48.93
571.759	49.24
572.099	49.49
572.439	49.63
572.779	49.89
573.119	50.13
573.459	50.34
573.799	50.54
574.139	50.73
574.479	50.91
574.819	51.15
575.158	51.34
575.498	51.55
575.838	51.72
576.177	51.93
576.517	52.1
576.856	52.31
577.196	52.49
577.535	52.75
577.875	52.98
578.214	53.19
578.553	53.37
578.893	53.55
579.232	53.76
579.571	54.02
579.91	54.21
580.25	54.34
580.589	54.53
580.928	54.79
581.267	55.01
581.606	55.19
581.945	55.41
582.283	55.6
582.622	55.82
582.961	56.02
583.3	56.18
583.639	56.44
583.977	56.61
584.316	56.85
584.654	57
584.993	57.15
585.332	57.36
585.67	57.46
586.008	57.57
586.347	57.72
586.685	57.86
587.024	58.11
587.362	58.27
587.7	58.36
588.038	58.44
588.376	58.55
588.715	58.7
589.053	58.81
589.391	59
589.729	59.05
590.067	59.21
590.404	59.34
590.742	59.4
591.08	59.45
591.418	59.51
591.756	59.66
592.093	59.84
592.431	59.89
592.769	60.1
593.106	60.24
593.444	60.35
593.781	60.47
594.119	60.52
594.456	60.6
594.793	60.75
595.131	60.83
595.468	60.92
595.805	60.98
596.143	61.02
596.48	61.04
596.817	61.18
597.154	61.24
597.491	61.34
597.828	61.37
598.165	61.48
598.502	61.6
598.839	61.63
599.176	61.65
599.512	61.71
599.849	61.75
600.186	61.9
600.523	62.03
600.859	62.16
601.196	62.22
601.532	62.34
601.869	62.45
602.205	62.54
602.542	62.64
602.878	62.74
603.215	62.86
603.551	62.98
603.887	63.01
604.223	63.01
604.56	63.05
604.896	63.18
605.232	63.31
605.568	63.35
605.904	63.44
606.24	63.57
606.576	63.67
606.912	63.7
607.248	63.66
607.583	63.67
607.919	63.69
608.255	63.73
608.591	63.76
608.926	63.81
609.262	63.84
609.597	63.83
609.933	63.88
610.268	63.87
610.604	63.87
610.939	63.93
611.275	64.06
611.61	64.11
611.945	64.09
612.281	64.12
612.616	64.25
612.951	64.23
613.286	64.27
613.621	64.35
613.956	64.45
614.291	64.48
614.626	64.53
614.961	64.58
615.296	64.78
615.631	64.94
615.966	65.04
616.3	65.06
616.635	65.24
616.97	65.31
617.304	65.36
617.639	65.41
617.973	65.42
618.308	65.5
618.642	65.55
618.977	65.61
619.311	65.66
619.646	65.58
619.98	65.65
620.314	65.66
620.648	65.7
620.983	65.75
621.317	65.82
621.651	65.92
621.985	65.99
622.319	65.91
622.653	65.88
622.987	65.86
623.321	65.94
623.655	65.98
623.988	66.08
624.322	66.2
624.656	66.23
624.99	66.34
625.323	66.31
625.657	66.33
625.99	66.41
626.324	66.34
626.657	66.44
626.991	66.49
627.324	66.45
627.658	66.51
627.991	66.64
628.324	66.78
628.657	66.82
628.991	66.82
629.324	66.82
629.657	66.85
629.99	66.88
630.323	66.88
630.656	66.84
630.989	66.81
631.322	66.84
631.655	66.82
631.987	66.82
632.32	66.9
632.653	66.94
632.986	66.99
633.318	67.05
633.651	67.05
633.984	67.09
634.316	67.11
634.649	67.11
634.981	66.99
635.313	66.96
635.646	66.95
635.978	66.98
636.31	66.98
636.643	66.94
636.975	66.97
637.307	67.05
637.639	67.09
637.971	67.09
638.303	67.07
638.635	67.07
638.967	67.09
639.299	67.17
639.631	67.16
639.963	67.12
640.295	67.05
640.626	67.13
640.958	67.07
641.29	67.25
641.621	67.25
641.953	67.27
642.285	67.22
642.616	67.17
642.948	67.2
643.279	67.31
643.61	67.46
643.942	67.48
644.273	67.46
644.604	67.62
644.936	67.6
645.267	67.6
645.598	67.63
645.929	67.68
646.26	67.67
646.591	67.7
646.922	67.79
647.253	68
647.584	67.94
647.915	67.85
648.245	67.74
648.576	67.79
648.907	67.93
649.238	68.07
649.568	68.07
649.899	68.1
650.229	68.02
650.56	68.08
650.89	68.1
651.221	68.08
651.551	67.99
651.882	68.12
652.212	68.1
652.542	68.09
652.872	68.16
653.203	68.12
653.533	68.29
653.863	68.32
654.193	68.4
654.523	68.36
654.853	68.44
655.183	68.51
655.513	68.67
655.843	68.67
656.172	68.68
656.502	68.82
656.832	68.79
657.162	68.92
657.491	68.89
657.821	68.9
658.15	68.96
658.48	68.9
658.809	68.94
659.139	69
659.468	69.14
659.798	69.12
660.127	69.12
660.456	69.04
660.785	68.96
661.115	68.83
661.444	69.08
661.773	69.16
662.102	69.17
662.431	69.09
662.76	69.17
663.089	69.15
663.418	69.05
663.747	69.11
664.076	69.26
664.404	69.33
664.733	69.22
665.062	69.22
665.39	69.37
665.719	69.23
666.048	69.23
666.376	69.2
666.705	69.28
667.033	69.39
667.362	69.4
667.69	69.48
668.018	69.73
668.347	69.73
668.675	69.83
669.003	69.9
669.331	69.94
669.659	70
669.987	69.94
670.315	70.1
670.643	70.12
670.971	69.96
671.299	69.89
671.627	69.84
671.955	69.93
672.283	69.86
672.61	69.85
672.938	69.93
673.266	69.95
673.593	69.79
673.921	69.64
674.249	69.84
674.576	69.82
674.904	69.57
675.231	69.44
675.558	69.31
675.886	69.27
676.213	69.27
676.54	69.16
676.867	69.22
677.195	69.22
677.522	69.05
677.849	69.06
678.176	69.07
678.503	69.22
678.83	69.22
679.157	69.32
679.484	69.56
679.81	69.54
680.137	69.6
680.464	69.68
680.791	69.73
681.117	69.63
681.444	69.7
681.771	69.8
682.097	69.86
682.424	69.92
682.75	69.94
683.077	69.86
683.403	69.8
683.729	69.8
684.056	69.89
684.382	70.15
684.708	70.1
685.034	70.23
685.36	70.3
685.686	70.28
686.012	70.19
686.339	70.06
686.664	70.07
686.99	70.07
687.316	70.08
687.642	70.13
687.968	70.04
688.294	70.16
688.619	70.09
688.945	70.06
689.271	70.12
689.596	70.11
689.922	70.08
690.247	69.97
690.573	70.08
690.898	70.05
691.224	70.03
691.549	70.16
691.874	69.9
692.2	69.94
692.525	69.85
692.85	70.04
693.175	69.96
693.5	69.91
693.825	69.92
694.15	70.11
694.475	70.12
694.8	70.27
695.125	70.25
695.45	70.33
695.775	70.35
696.099	70.43
696.424	70.42
696.749	70.45
697.073	70.73
697.398	70.81
697.723	70.67
698.047	70.6
698.372	70.55
698.696	70.56
699.02	70.59
699.345	70.75
699.669	70.76
699.993	70.72
700.318	70.78
700.642	70.89
700.966	70.7
701.29	70.63
701.614	70.63
701.938	70.4
702.262	70.48
702.586	70.34
702.91	70.05
703.234	70.05
703.557	70.11
703.881	69.95
704.205	69.64
704.529	69.71
704.852	69.7
705.176	69.63
705.499	69.83
705.823	69.76
706.146	69.68
706.47	69.5
706.793	69.53
707.117	69.6
707.44	69.36
707.763	69.36
708.086	69.38
708.409	69.24
708.733	69.52
709.056	69.38
709.379	69.6
709.702	69.89
710.025	69.92
710.348	70.05
710.671	69.98
710.993	70.3
711.316	70.31
711.639	70.4
711.962	70.53
712.284	70.37
712.607	70.32
712.93	70.45
713.252	70.64
713.575	70.74
713.897	70.76
714.22	70.91
714.542	70.96
714.864	70.96
715.187	71.17
715.509	71.09
715.831	71.13
716.153	71.3
716.475	71.27
716.798	71.3
717.12	71.27
717.442	71.52
717.764	71.23
718.085	71.2
718.407	71.35
718.729	71.4
719.051	71.47
719.373	71.34
719.695	71.15
720.016	71.04
720.338	70.87
720.659	70.61
720.981	70.69
721.302	70.62
721.624	70.69
721.945	70.35
722.267	70.41
722.588	70.45
722.909	70.38
723.231	70.47
723.552	70.49
723.873	70.64
724.194	70.47
724.515	70.55
724.836	70.58
725.157	70.29
725.478	70.23
725.799	70.43
726.12	70.77
726.441	70.81
726.762	70.74
727.083	70.97
727.403	71.13
727.724	71.12
728.045	71.27
728.365	71.51
728.686	71.77
729.006	71.8
729.327	71.62
729.647	71.33
729.967	71.08
730.288	71.15
730.608	70.98
730.928	71.02
731.249	70.93
731.569	70.91
731.889	71.19
732.209	71.13
732.529	71.04
732.849	70.98
733.169	71.08
733.489	71.23
733.809	71.24
734.129	71.65
734.448	71.32
734.768	71.41
735.088	71.14
735.408	71.11
735.727	71.19
736.047	71.53
736.366	71.82
736.686	71.92
737.005	71.92
737.325	72
737.644	71.88
737.963	72.15
738.283	72.28
738.602	72.02
738.921	72.38
739.24	72.17
739.56	72.04
739.879	71.96
740.198	71.87
740.517	71.84
740.836	71.41
741.155	71.79
741.473	71.82
741.792	71.69
742.111	71.72
742.43	71.59
742.748	71.26
743.067	71.06
743.386	70.96
743.704	70.92
744.023	70.83
744.341	70.79
744.66	71.09
744.978	71.1
745.297	71.27
745.615	71.36
745.933	71.75
746.252	71.86
746.57	72.01
746.888	72.07
747.206	71.97
747.524	71.98
747.842	72.09
748.16	71.94
748.478	72.35
748.796	72.31
749.114	72.41
749.432	72.35
749.749	72.19
750.067	72.53
750.385	72.41
750.703	72.7
751.02	72.84
751.338	72.15
751.655	72.1
751.973	72.07
752.29	71.63
752.608	71.42
752.925	71.44
753.242	71.49
753.56	71.57
753.877	71.62
754.194	71.56
754.511	71.54
754.828	71.7
755.145	71.64
755.462	71.52
755.779	71.81
756.096	71.87
756.413	72.17
756.73	71.87
757.047	72.12
757.364	71.95
757.68	71.91
757.997	72.16
758.314	72.05
758.63	72.02
758.947	72.21
759.264	72.51
759.58	72.36
759.896	72.2
760.213	71.89
760.529	71.72
760.846	71.99
761.162	71.74
761.478	71.55
761.794	71.58
762.11	71.63
762.426	71.18
762.743	71.58
763.059	71.61
763.375	71.77
763.69	71.83
764.006	72.08
764.322	72.39
764.638	72.41
764.954	72.57
765.27	72.53
765.585	72.56
765.901	72.48
766.216	72.64
766.532	72.8
766.848	73.03
767.163	73.22
767.478	73.27
767.794	73.4
768.109	73.33
768.424	73.45
768.74	73.77
769.055	74.19
769.37	74.17
769.685	73.9
770	74.05
770.315	74.09
770.63	73.6
770.945	72.87
771.26	72.74
771.575	72.51
771.89	72.81
772.205	72.75
772.52	72.57
772.834	72.68
773.149	72.11
773.464	72.04
773.778	72.13
774.093	71.76
774.407	72.1
774.722	72.49
775.036	72.27
775.351	72.08
775.665	71.76
775.979	71.57
776.293	71.72
776.608	71.46
776.922	71.59
777.236	71.83
777.55	72.35
777.864	72.74
778.178	72.77
778.492	72.62
778.806	72.26
779.12	72.73
779.434	72.8
779.747	73.13
780.061	72.97
780.375	73.11
780.689	72.94
781.002	72.65
781.316	72.29
781.629	72.3
781.943	72.18
782.256	72
782.57	72.43
782.883	72.79
783.196	72.76
783.51	72.33
783.823	72.35
784.136	72.5
784.449	72.14
784.762	72.46
785.075	72.57
785.388	72.67
785.701	71.88
786.014	72.07
786.327	71.92
786.64	72.25
786.953	72.08
787.266	72.57
787.578	72.24
787.891	72.53
788.204	72.33
788.516	72.1
788.829	72.92
789.141	72.76
789.454	72.84
789.766	73.03
790.079	72.93
790.391	72.61
790.703	72.88
791.016	73.12
791.328	73.06
791.64	72.98
791.952	72.99
792.264	73.65
792.576	73.61
792.888	73.79
793.2	73.99
793.512	74.03
793.824	74.2
794.136	74.01
794.448	74.39
794.76	74.97
795.071	75.35
795.383	74.46
795.695	74.03
796.006	74.15
796.318	74.09
796.629	74.22
796.941	74.15
797.252	74.08
797.564	73.74
797.875	73.52
798.186	73.29
798.497	73.36
798.809	72.84
799.12	72.32
799.431	72.34
799.742	72.3
800.053	72.74
800.364	72.76
800.675	73.3
800.986	72.92
801.297	72.29
801.608	72.31
801.918	73.22
802.229	73.17
802.54	72.76
802.851	72.74
803.161	72.87
803.472	73.42
803.782	72.93
804.093	72.9
804.403	73.18
804.714	73.33
805.024	73.39
805.334	74.28
805.645	74.91
805.955	74.76
806.265	74.21
806.575	73.8
806.885	73.56
807.195	73.39
807.505	73.8
807.815	74.14
808.125	74.5
808.435	73.55
808.745	73.88
809.055	73.88
809.365	73.91
809.674	73.67
809.984	73.48
810.294	74.05
810.603	74.66
810.913	74.4
811.222	74.92
811.532	76.3
811.841	75.42
812.151	74.92
812.46	75.35
812.769	75.51
813.079	75.12
813.388	75.27
813.697	75.62
814.006	75.05
814.315	75.62
814.624	75.45
814.933	76.34
815.242	76.04
815.551	74.94
815.86	74.72
816.169	75.19
816.478	75.01
816.786	74.7
817.095	74.68
817.404	74.96
817.712	74.59
818.021	73.55
818.33	74.52
818.638	74.02
818.947	74.35
819.255	74.78
819.563	75.12
819.872	75.05
820.18	74.36
820.488	74.6
820.796	74.64
821.105	74.58
821.413	74.57
821.721	74.62
822.029	75.04
822.337	75.28
822.645	75.01
822.953	75.26
823.26	75.49
823.568	75.59
823.876	75.34
824.184	75.23
824.491	74.87
824.799	74.65
825.107	74.86
825.414	74.79
825.722	74.9
826.029	75.05
826.337	75.08
826.644	75.47
826.951	75.54
827.259	75.45
827.566	75.16
827.873	75.01
828.18	75
828.488	75.06
828.795	75.19
829.102	75.46
829.409	75.29
829.716	74.73
830.023	74.53
830.329	74.93
830.636	74.95
830.943	75.55
831.25	75.44
831.557	75.68
831.863	75.46
832.17	75.17
832.476	74.61
832.783	74.88
833.089	74.74
833.396	74.25
833.702	74
834.009	74.26
834.315	73.8
834.621	73.53
834.928	73.08
835.234	72.58
835.54	72.64
835.846	72.56
836.152	73.11
836.458	73.01
836.764	72.8
837.07	72.63
837.376	72.13
837.682	72.02
837.988	71.63
838.293	71.8
838.599	72.26
838.905	72.38
839.211	71.92
839.516	71.64
839.822	72.42
840.127	72.26
840.433	72.98
840.738	74.97
841.044	75.71
841.349	76.13
841.654	75.83
841.959	76.12
842.265	75.77
842.57	75.64
842.875	75.48
843.18	76.71
843.485	77.41
843.79	78.21
844.095	78.12
844.4	78.5
844.705	78.43
845.01	76.16
845.315	75.65
845.619	75.04
845.924	75.86
846.229	74.88
846.533	76.96
846.838	76.23
847.142	75.8
847.447	76.08
847.751	76.24
848.056	77.74
848.36	77.88
848.664	78.76
848.969	77.83
849.273	77.11
849.577	75.98
849.881	75.97
850.185	78.67
850.489	80.11
850.794	81.13
851.097	81.82
851.401	81.67
851.705	81.75
852.009	82.99
852.313	83.64
852.617	84.04
852.92	82.4
853.224	82.28
853.528	80.99
853.831	79.23
854.135	78.47
854.438	77.34
854.742	77.39
855.045	76.27
855.349	75.99
855.652	77.71
855.955	76.4
856.259	76.05
856.562	74.5
856.865	75.37
857.168	76.63
857.471	75.73
857.774	76.72
858.077	77.25
858.38	74.14
858.683	72.29
858.986	70.31
859.289	67.69
859.592	69.16
859.894	68.11
860.197	67.3
860.5	69.48
860.802	69.01
861.105	65.74
861.407	66.11
861.71	65.41
862.012	63.96
862.315	63.94
862.617	64.66
862.919	62.03
863.222	59.67
863.524	56.57
863.826	57.47
864.128	57.07
864.43	55.59
864.732	58.51
865.034	59.97
865.336	61.51
865.638	65.12
865.94	62.67
866.242	64.34
866.544	66.53
866.846	67.19
867.147	67.63
867.449	68.28
867.751	69.73
868.052	71.26
868.354	70.47
868.655	71.13
868.957	71.01
869.258	74.36
869.56	78.99
869.861	79.03
870.162	77.46
870.463	77.83
870.765	80.49
871.066	77.78
871.367	74.8
871.668	71.49
871.969	70.87
872.27	70.49
872.571	69.31
872.872	67.42
873.173	63.55
873.473	64.66
873.774	68.12
874.075	67.95
874.376	67.06
874.676	70.27
874.977	68.42
875.277	69.74
875.578	70.85
875.878	67.75
876.179	68.31
876.479	69.08
876.78	68.97
877.08	67.71
877.38	68.54
877.68	71.3
877.981	75.6
878.281	74.95
878.581	78.45
