Data from BA28420_Reflection_00013.txt Node
Date: Mon Nov 18 16:08:41 EST 2019
User: vgr7
Spectrometer: USB2G7710
Scans to average: 3
Trigger mode: 4
Integration Time (sec): 2.000000E-2
Electric dark correction enabled: true
Boxcar width: 10
XAxis mode: Wavelengths
Number of Pixels in Spectrum: 2048
>>>>>Begin Spectral Data<<<<<
177.721	-28.61
178.105	-90.48
178.488	12.28
178.871	35.03
179.254	-21.02
179.636	0.43
180.019	46.78
180.402	241.67
180.785	-637.37
181.168	-451.28
181.55	-1175.86
181.933	161.68
182.316	171.3
182.698	175.59
183.081	234.33
183.463	116.24
183.846	116.7
184.228	95.26
184.611	131.58
184.993	146.83
185.376	241.76
185.758	-30900
186.14	769.9
186.522	1398.51
186.904	-1031.87
187.287	2081.13
187.669	-3506.06
188.051	576.44
188.433	664.25
188.815	335.49
189.197	339.88
189.579	423.08
189.961	293.42
190.342	205.12
190.724	231.09
191.106	191.99
191.488	261.83
191.869	362.41
192.251	479.31
192.633	319.25
193.014	151.98
193.396	161.98
193.777	106.47
194.159	83.05
194.54	67.15
194.922	70.63
195.303	85.87
195.684	132.5
196.065	261.83
196.447	152.63
196.828	191.81
197.209	179.89
197.59	270.48
197.971	415.25
198.352	-654.19
198.733	-634.6
199.114	-683.25
199.495	-335.9
199.876	-259.86
200.257	-232.2
200.638	-153.69
201.018	-113.04
201.399	-90.42
201.78	-64.32
202.16	-83.9
202.541	-107.59
202.922	-127.99
203.302	-124.4
203.683	-82.1
204.063	-106.65
204.444	-87.01
204.824	-45.19
205.204	-44.88
205.585	-35.82
205.965	-23.14
206.345	-18.06
206.725	-24.48
207.106	-36.04
207.486	-145.67
207.866	-152.08
208.246	-259.22
208.626	-394.16
209.006	-272.84
209.386	-392.54
209.766	-385.89
210.145	-849.04
210.525	-352.32
210.905	-215.54
211.285	-229.32
211.664	-283.7
212.044	-405.08
212.424	-311.41
212.803	-681.42
213.183	-419.76
213.562	-324.04
213.942	-261.06
214.321	-237.6
214.701	-288.03
215.08	-252.67
215.459	-199.12
215.838	-190.68
216.218	-148.99
216.597	-96.92
216.976	-88.37
217.355	-61.72
217.734	-80.7
218.113	-58.27
218.492	-40.05
218.871	-64.18
219.25	-43.33
219.629	-63.95
220.008	-66.07
220.387	-75.86
220.766	-76.89
221.144	-84.76
221.523	-65.2
221.902	-101.5
222.28	-102.86
222.659	-71.86
223.037	-60.91
223.416	-63.95
223.794	-80.55
224.173	-67.98
224.551	-54.86
224.929	-58.79
225.308	-48.39
225.686	-44.55
226.064	-41.23
226.442	-43.87
226.821	-30.32
227.199	-23.68
227.577	-20.27
227.955	-19.36
228.333	-19.35
228.711	-13.73
229.089	-11.3
229.467	-14.05
229.845	-9.58
230.222	-7.06
230.6	-4.9
230.978	-4.03
231.356	-0.17
231.733	1.72
232.111	2.56
232.488	0.65
232.866	1.02
233.243	2.16
233.621	3.63
233.998	6.83
234.376	7.42
234.753	6.68
235.13	6.34
235.508	6.38
235.885	6.46
236.262	5.74
236.639	5.46
237.016	5.84
237.393	6.41
237.77	5.87
238.147	5
238.524	3.58
238.901	3.37
239.278	3.2
239.655	4.11
240.032	3.64
240.409	3.66
240.785	4.09
241.162	3.8
241.539	3.82
241.915	3.04
242.292	3.45
242.668	3.77
243.045	4.04
243.421	4.28
243.798	4.47
244.174	4.56
244.551	4.29
244.927	4.24
245.303	4.51
245.679	4.6
246.056	4.72
246.432	4.72
246.808	4.76
247.184	4.7
247.56	4.54
247.936	4.27
248.312	4.27
248.688	4.23
249.064	4.16
249.44	4.15
249.815	4.5
250.191	4.37
250.567	4.37
250.943	4.28
251.318	4.26
251.694	4.26
252.069	4.33
252.445	4.54
252.82	4.41
253.196	4.29
253.571	4.3
253.947	4.16
254.322	4.54
254.697	4.63
255.073	4.46
255.448	4.1
255.823	4.29
256.198	4.16
256.573	4.13
256.948	4.26
257.323	4.45
257.698	4.29
258.073	4.39
258.448	4.32
258.823	4.22
259.198	4.07
259.573	4.07
259.948	4.06
260.322	4.03
260.697	4.02
261.072	4
261.446	3.98
261.821	3.81
262.195	3.84
262.57	3.74
262.944	3.82
263.319	3.94
263.693	3.82
264.067	3.95
264.442	4.01
264.816	3.88
265.19	3.63
265.564	3.74
265.938	3.55
266.313	3.34
266.687	3.42
267.061	3.57
267.435	3.48
267.809	3.43
268.183	3.39
268.556	3.49
268.93	3.41
269.304	3.49
269.678	3.89
270.051	3.72
270.425	3.76
270.799	3.83
271.172	3.9
271.546	4.02
271.919	3.89
272.293	3.85
272.666	4.05
273.04	4.21
273.413	4.16
273.787	4.29
274.16	4.22
274.533	4.13
274.906	4.1
275.279	4.05
275.653	3.98
276.026	3.96
276.399	4.03
276.772	4.04
277.145	4
277.518	3.93
277.891	3.95
278.263	3.97
278.636	3.89
279.009	3.87
279.382	4.04
279.755	4.14
280.127	4.27
280.5	4.16
280.872	4.19
281.245	4.09
281.617	4.18
281.99	4.52
282.362	4.55
282.735	4.43
283.107	4.6
283.479	4.76
283.852	4.81
284.224	4.62
284.596	4.58
284.968	4.55
285.34	4.51
285.713	4.57
286.085	4.65
286.457	4.75
286.829	4.67
287.201	4.62
287.572	4.56
287.944	4.39
288.316	4.38
288.688	4.29
289.06	4.29
289.431	4.24
289.803	4.19
290.175	4.25
290.546	4.27
290.918	4.22
291.289	4.19
291.661	4.25
292.032	4.38
292.403	4.51
292.775	4.61
293.146	4.58
293.517	4.64
293.889	4.63
294.26	4.68
294.631	4.79
295.002	4.75
295.373	4.83
295.744	4.92
296.115	5.02
296.486	4.9
296.857	4.97
297.228	4.92
297.599	4.89
297.97	4.88
298.34	5.05
298.711	5.08
299.082	5.1
299.452	5.04
299.823	5.09
300.194	5.11
300.564	5.03
300.935	5.19
301.305	5.2
301.676	5.14
302.046	5.13
302.416	5.24
302.787	5.32
303.157	5.37
303.527	5.37
303.897	5.39
304.267	5.58
304.637	5.63
305.008	5.6
305.378	5.69
305.748	5.67
306.117	5.64
306.487	5.72
306.857	5.7
307.227	5.78
307.597	5.72
307.967	5.82
308.336	5.92
308.706	5.96
309.076	6.01
309.445	6.14
309.815	6.01
310.184	6.03
310.554	6.11
310.923	6.13
311.293	6.2
311.662	6.13
312.031	6.17
312.401	6.24
312.77	6.37
313.139	6.46
313.508	6.6
313.877	6.63
314.246	6.59
314.616	6.67
314.985	6.78
315.353	6.92
315.722	6.88
316.091	6.92
316.46	6.81
316.829	6.98
317.198	7.07
317.567	7.34
317.935	7.45
318.304	7.52
318.672	7.59
319.041	7.79
319.41	7.76
319.778	7.85
320.147	7.96
320.515	7.99
320.883	7.94
321.252	7.93
321.62	8.07
321.988	8.29
322.357	8.43
322.725	8.53
323.093	8.61
323.461	8.61
323.829	8.76
324.197	9.05
324.565	8.99
324.933	9.02
325.301	9.01
325.669	8.91
326.037	8.92
326.405	9.03
326.772	8.99
327.14	9.15
327.508	9.31
327.875	9.15
328.243	9.21
328.61	9.27
328.978	9.45
329.346	9.48
329.713	9.43
330.08	9.42
330.448	9.34
330.815	9.33
331.182	9.4
331.55	9.39
331.917	9.3
332.284	9.3
332.651	9.31
333.018	9.37
333.385	9.5
333.752	9.65
334.119	9.63
334.486	9.53
334.853	9.55
335.22	9.46
335.587	9.59
335.954	9.77
336.32	9.92
336.687	9.91
337.054	9.91
337.42	10
337.787	10.06
338.153	10
338.52	10.09
338.886	10.14
339.253	10.12
339.619	10.05
339.986	10.17
340.352	10.26
340.718	10.29
341.084	10.26
341.451	10.32
341.817	10.39
342.183	10.42
342.549	10.51
342.915	10.6
343.281	10.65
343.647	10.54
344.013	10.54
344.379	10.55
344.745	10.61
345.11	10.55
345.476	10.59
345.842	10.7
346.208	10.74
346.573	10.87
346.939	10.99
347.304	11.04
347.67	10.98
348.035	10.88
348.401	10.85
348.766	10.82
349.132	10.82
349.497	10.73
349.862	10.83
350.228	10.88
350.593	10.9
350.958	11
351.323	11.05
351.688	11.06
352.053	11.14
352.418	11.09
352.783	11.14
353.148	11.16
353.513	11.12
353.878	11.04
354.243	11.05
354.608	11.02
354.972	11.03
355.337	11.07
355.702	11.18
356.066	11.33
356.431	11.36
356.795	11.4
357.16	11.44
357.524	11.39
357.889	11.33
358.253	11.29
358.618	11.27
358.982	11.24
359.346	11.19
359.71	11.12
360.075	11.17
360.439	11.21
360.803	11.17
361.167	11.18
361.531	11.23
361.895	11.08
362.259	11.1
362.623	11.11
362.987	11.13
363.351	11.11
363.714	11.02
364.078	11
364.442	10.9
364.806	10.87
365.169	10.96
365.533	10.96
365.896	10.96
366.26	10.97
366.623	10.97
366.987	11.06
367.35	11.03
367.714	10.99
368.077	10.89
368.44	10.88
368.803	10.89
369.167	10.81
369.53	10.84
369.893	10.78
370.256	10.81
370.619	10.8
370.982	10.73
371.345	10.7
371.708	10.66
372.071	10.64
372.434	10.7
372.797	10.56
373.159	10.49
373.522	10.52
373.885	10.44
374.247	10.44
374.61	10.3
374.973	10.29
375.335	10.27
375.698	10.29
376.06	10.22
376.423	10.22
376.785	10.21
377.147	10.21
377.51	10.18
377.872	10.1
378.234	10.04
378.596	10.01
378.958	9.97
379.321	9.99
379.683	9.95
380.045	9.89
380.407	9.89
380.769	9.89
381.13	9.84
381.492	9.82
381.854	9.76
382.216	9.77
382.578	9.72
382.939	9.69
383.301	9.64
383.663	9.6
384.024	9.53
384.386	9.52
384.747	9.53
385.109	9.53
385.47	9.51
385.832	9.46
386.193	9.43
386.554	9.49
386.916	9.43
387.277	9.4
387.638	9.37
387.999	9.37
388.36	9.3
388.721	9.25
389.082	9.24
389.443	9.18
389.804	9.11
390.165	9.07
390.526	9.04
390.887	9
391.248	8.99
391.609	9
391.969	8.97
392.33	8.9
392.691	8.82
393.051	8.78
393.412	8.75
393.772	8.71
394.133	8.61
394.493	8.58
394.854	8.52
395.214	8.46
395.574	8.38
395.935	8.43
396.295	8.39
396.655	8.31
397.015	8.27
397.376	8.28
397.736	8.24
398.096	8.2
398.456	8.18
398.816	8.14
399.176	8.05
399.535	8
399.895	7.94
400.255	7.89
400.615	7.87
400.975	7.83
401.334	7.76
401.694	7.73
402.054	7.67
402.413	7.66
402.773	7.6
403.132	7.58
403.492	7.52
403.851	7.48
404.211	7.43
404.57	7.45
404.929	7.4
405.288	7.38
405.648	7.32
406.007	7.28
406.366	7.24
406.725	7.24
407.084	7.22
407.443	7.24
407.802	7.25
408.161	7.22
408.52	7.21
408.879	7.22
409.238	7.21
409.596	7.22
409.955	7.2
410.314	7.2
410.673	7.17
411.031	7.13
411.39	7.11
411.748	7.11
412.107	7.05
412.465	7.03
412.824	7
413.182	6.99
413.54	6.97
413.899	6.96
414.257	6.93
414.615	6.87
414.974	6.82
415.332	6.77
415.69	6.73
416.048	6.67
416.406	6.66
416.764	6.61
417.122	6.58
417.48	6.52
417.838	6.51
418.195	6.49
418.553	6.48
418.911	6.45
419.269	6.43
419.626	6.42
419.984	6.39
420.342	6.38
420.699	6.36
421.057	6.33
421.414	6.31
421.772	6.29
422.129	6.28
422.486	6.26
422.844	6.24
423.201	6.22
423.558	6.22
423.915	6.19
424.273	6.19
424.63	6.17
424.987	6.17
425.344	6.15
425.701	6.14
426.058	6.12
426.415	6.1
426.772	6.08
427.128	6.06
427.485	6.07
427.842	6.05
428.199	6.04
428.555	6.04
428.912	6.03
429.269	6.04
429.625	6.03
429.982	6.02
430.338	6.02
430.695	6.02
431.051	6.01
431.407	5.99
431.764	5.95
432.12	5.95
432.476	5.95
432.832	5.94
433.189	5.95
433.545	5.94
433.901	5.94
434.257	5.95
434.613	5.94
434.969	5.91
435.325	5.9
435.681	5.9
436.036	5.89
436.392	5.91
436.748	5.88
437.104	5.88
437.459	5.88
437.815	5.86
438.171	5.86
438.526	5.84
438.882	5.86
439.237	5.89
439.593	5.9
439.948	5.87
440.304	5.88
440.659	5.86
441.014	5.85
441.369	5.84
441.725	5.84
442.08	5.83
442.435	5.83
442.79	5.84
443.145	5.83
443.5	5.81
443.855	5.77
444.21	5.77
444.565	5.76
444.92	5.76
445.275	5.74
445.629	5.72
445.984	5.71
446.339	5.67
446.693	5.63
447.048	5.6
447.403	5.57
447.757	5.56
448.112	5.55
448.466	5.53
448.82	5.53
449.175	5.5
449.529	5.48
449.883	5.44
450.238	5.41
450.592	5.4
450.946	5.38
451.3	5.34
451.654	5.34
452.008	5.31
452.362	5.27
452.716	5.3
453.07	5.31
453.424	5.32
453.778	5.33
454.132	5.32
454.486	5.32
454.839	5.33
455.193	5.29
455.547	5.27
455.9	5.3
456.254	5.29
456.607	5.28
456.961	5.3
457.314	5.32
457.668	5.33
458.021	5.31
458.375	5.32
458.728	5.35
459.081	5.35
459.434	5.35
459.787	5.39
460.141	5.39
460.494	5.39
460.847	5.41
461.2	5.42
461.553	5.45
461.906	5.48
462.259	5.53
462.611	5.58
462.964	5.62
463.317	5.63
463.67	5.66
464.022	5.7
464.375	5.71
464.728	5.74
465.08	5.78
465.433	5.82
465.785	5.87
466.138	5.89
466.49	5.92
466.843	5.94
467.195	5.93
467.547	5.98
467.899	5.99
468.252	5.99
468.604	6
468.956	5.99
469.308	6.01
469.66	6
470.012	6.01
470.364	6
470.716	6.03
471.068	6.05
471.42	6.05
471.772	6.09
472.123	6.09
472.475	6.09
472.827	6.09
473.178	6.09
473.53	6.09
473.882	6.08
474.233	6.1
474.585	6.09
474.936	6.07
475.288	6.06
475.639	6.09
475.99	6.08
476.342	6.09
476.693	6.07
477.044	6.05
477.395	6.02
477.746	6.03
478.097	6
478.448	5.98
478.8	5.94
479.15	5.91
479.501	5.92
479.852	5.91
480.203	5.91
480.554	5.9
480.905	5.89
481.255	5.88
481.606	5.88
481.957	5.89
482.307	5.88
482.658	5.9
483.009	5.9
483.359	5.91
483.709	5.92
484.06	5.92
484.41	5.93
484.761	5.93
485.111	5.93
485.461	5.94
485.811	5.94
486.162	5.96
486.512	5.97
486.862	5.97
487.212	5.99
487.562	6.01
487.912	6.02
488.262	6.04
488.612	6.07
488.961	6.1
489.311	6.12
489.661	6.14
490.011	6.14
490.36	6.15
490.71	6.18
491.06	6.19
491.409	6.22
491.759	6.25
492.108	6.29
492.458	6.32
492.807	6.33
493.157	6.38
493.506	6.41
493.855	6.44
494.204	6.47
494.554	6.52
494.903	6.54
495.252	6.6
495.601	6.66
495.95	6.7
496.299	6.72
496.648	6.77
496.997	6.84
497.346	6.93
497.695	7
498.043	7.05
498.392	7.1
498.741	7.16
499.09	7.22
499.438	7.29
499.787	7.35
500.135	7.47
500.484	7.54
500.832	7.62
501.181	7.71
501.529	7.8
501.878	7.89
502.226	7.99
502.574	8.08
502.923	8.17
503.271	8.27
503.619	8.39
503.967	8.52
504.315	8.61
504.663	8.7
505.011	8.81
505.359	8.93
505.707	9.05
506.055	9.14
506.403	9.26
506.751	9.39
507.098	9.54
507.446	9.61
507.794	9.71
508.141	9.84
508.489	9.97
508.837	10.08
509.184	10.19
509.531	10.31
509.879	10.44
510.226	10.54
510.574	10.64
510.921	10.75
511.268	10.86
511.616	10.97
511.963	11.11
512.31	11.23
512.657	11.34
513.004	11.46
513.351	11.64
513.698	11.78
514.045	11.92
514.392	12.06
514.739	12.25
515.086	12.44
515.432	12.6
515.779	12.73
516.126	12.91
516.473	13.04
516.819	13.19
517.166	13.33
517.512	13.47
517.859	13.65
518.205	13.81
518.552	13.97
518.898	14.11
519.245	14.23
519.591	14.38
519.937	14.53
520.283	14.71
520.629	14.84
520.976	15.02
521.322	15.22
521.668	15.38
522.014	15.57
522.36	15.73
522.706	15.93
523.052	16.16
523.398	16.4
523.743	16.68
524.089	16.92
524.435	17.13
524.781	17.38
525.126	17.6
525.472	17.79
525.817	17.96
526.163	18.17
526.509	18.36
526.854	18.53
527.199	18.7
527.545	18.85
527.89	19.01
528.235	19.17
528.581	19.34
528.926	19.53
529.271	19.69
529.616	19.89
529.961	20.07
530.306	20.26
530.651	20.45
530.996	20.64
531.341	20.88
531.686	21.12
532.031	21.32
532.376	21.56
532.721	21.81
533.065	22.06
533.41	22.29
533.755	22.54
534.099	22.78
534.444	23.05
534.788	23.3
535.133	23.55
535.477	23.81
535.822	24.09
536.166	24.36
536.51	24.67
536.855	24.98
537.199	25.3
537.543	25.62
537.887	25.98
538.231	26.29
538.576	26.62
538.92	26.95
539.264	27.29
539.608	27.59
539.951	27.88
540.295	28.15
540.639	28.44
540.983	28.71
541.327	28.99
541.671	29.26
542.014	29.53
542.358	29.78
542.701	30.05
543.045	30.26
543.389	30.49
543.732	30.73
544.075	31
544.419	31.27
544.762	31.56
545.105	31.81
545.449	32.13
545.792	32.4
546.135	32.72
546.478	33.03
546.821	33.34
547.165	33.7
547.508	34.08
547.851	34.4
548.194	34.75
548.536	35.1
548.879	35.45
549.222	35.8
549.565	36.17
549.908	36.51
550.25	36.89
550.593	37.27
550.936	37.61
551.278	37.94
551.621	38.35
551.963	38.66
552.306	38.99
552.648	39.29
552.991	39.65
553.333	39.93
553.675	40.26
554.017	40.51
554.36	40.8
554.702	41.08
555.044	41.36
555.386	41.61
555.728	41.88
556.07	42.14
556.412	42.39
556.754	42.66
557.096	42.91
557.438	43.16
557.78	43.48
558.121	43.82
558.463	44.08
558.805	44.29
559.147	44.56
559.488	44.87
559.83	45.13
560.171	45.28
560.513	45.59
560.854	45.84
561.196	46.11
561.537	46.3
561.878	46.41
562.22	46.59
562.561	46.82
562.902	47.05
563.243	47.25
563.584	47.47
563.925	47.68
564.266	47.94
564.607	48.13
564.948	48.3
565.289	48.46
565.63	48.64
565.971	48.81
566.312	49.02
566.653	49.15
566.993	49.34
567.334	49.51
567.675	49.6
568.015	49.7
568.356	49.86
568.696	50.04
569.037	50.23
569.377	50.43
569.718	50.64
570.058	50.79
570.398	50.91
570.739	51.05
571.079	51.16
571.419	51.27
571.759	51.43
572.099	51.58
572.439	51.68
572.779	51.83
573.119	51.97
573.459	52.12
573.799	52.23
574.139	52.35
574.479	52.48
574.819	52.67
575.158	52.82
575.498	52.95
575.838	53.04
576.177	53.19
576.517	53.32
576.856	53.4
577.196	53.47
577.535	53.64
577.875	53.78
578.214	53.9
578.553	54
578.893	54.11
579.232	54.18
579.571	54.37
579.91	54.46
580.25	54.57
580.589	54.64
580.928	54.74
581.267	54.87
581.606	55.04
581.945	55.09
582.283	55.23
582.622	55.38
582.961	55.57
583.3	55.67
583.639	55.73
583.977	55.73
584.316	55.87
584.654	56.01
584.993	56.12
585.332	56.3
585.67	56.42
586.008	56.59
586.347	56.71
586.685	56.73
587.024	56.82
587.362	56.81
587.7	56.85
588.038	56.94
588.376	57.04
588.715	57.07
589.053	57.16
589.391	57.17
589.729	57.16
590.067	57.08
590.404	57.19
590.742	57.24
591.08	57.43
591.418	57.48
591.756	57.54
592.093	57.56
592.431	57.52
592.769	57.5
593.106	57.39
593.444	57.41
593.781	57.56
594.119	57.62
594.456	57.79
594.793	57.87
595.131	57.94
595.468	58
595.805	58.05
596.143	58.09
596.48	58.12
596.817	58.17
597.154	58.3
597.491	58.33
597.828	58.46
598.165	58.48
598.502	58.59
598.839	58.56
599.176	58.67
599.512	58.76
599.849	58.92
600.186	59.02
600.523	59.11
600.859	59.14
601.196	59.15
601.532	59.1
601.869	59.09
602.205	59.14
602.542	59.17
602.878	59.22
603.215	59.28
603.551	59.38
603.887	59.43
604.223	59.44
604.56	59.44
604.896	59.42
605.232	59.46
605.568	59.51
605.904	59.55
606.24	59.57
606.576	59.65
606.912	59.65
607.248	59.78
607.583	59.8
607.919	59.83
608.255	59.9
608.591	59.95
608.926	59.98
609.262	60.01
609.597	60
609.933	60.06
610.268	60.03
610.604	60.04
610.939	60.1
611.275	60.16
611.61	60.18
611.945	60.24
612.281	60.25
612.616	60.24
612.951	60.27
613.286	60.33
613.621	60.3
613.956	60.33
614.291	60.26
614.626	60.28
614.961	60.27
615.296	60.34
615.631	60.41
615.966	60.59
616.3	60.62
616.635	60.71
616.97	60.69
617.304	60.75
617.639	60.76
617.973	60.78
618.308	60.82
618.642	60.93
618.977	60.96
619.311	60.9
619.646	60.84
619.98	60.92
620.314	60.88
620.648	60.9
620.983	60.89
621.317	60.99
621.651	61.02
621.985	61.12
622.319	61.19
622.653	61.2
622.987	61.07
623.321	61.16
623.655	61.17
623.988	61.36
624.322	61.38
624.656	61.4
624.99	61.41
625.323	61.42
625.657	61.37
625.99	61.32
626.324	61.43
626.657	61.53
626.991	61.55
627.324	61.61
627.658	61.7
627.991	61.83
628.324	61.8
628.657	61.77
628.991	61.76
629.324	61.71
629.657	61.79
629.99	61.9
630.323	61.94
630.656	61.95
630.989	61.84
631.322	61.89
631.655	61.9
631.987	61.92
632.32	61.9
632.653	61.97
632.986	62.11
633.318	62.14
633.651	62.13
633.984	62.17
634.316	62.21
634.649	62.17
634.981	62.13
635.313	62.26
635.646	62.37
635.978	62.37
636.31	62.44
636.643	62.33
636.975	62.3
637.307	62.2
637.639	62.23
637.971	62.27
638.303	62.25
638.635	62.27
638.967	62.27
639.299	62.31
639.631	62.27
639.963	62.14
640.295	62.07
640.626	62.13
640.958	62.15
641.29	62.11
641.621	62.13
641.953	62.11
642.285	62.05
642.616	61.97
642.948	61.91
643.279	61.83
643.61	61.89
643.942	61.89
644.273	61.9
644.604	61.82
644.936	61.84
645.267	61.95
645.598	62
645.929	62.04
646.26	62.09
646.591	62.1
646.922	62.24
647.253	62.28
647.584	62.24
647.915	62.19
648.245	62.21
648.576	62.22
648.907	62.24
649.238	62.24
649.568	62.3
649.899	62.46
650.229	62.55
650.56	62.68
650.89	62.74
651.221	62.88
651.551	62.9
651.882	62.97
652.212	62.88
652.542	62.96
652.872	63.03
653.203	62.86
653.533	62.91
653.863	62.83
654.193	62.89
654.523	62.96
654.853	63.13
655.183	63.22
655.513	63.3
655.843	63.23
656.172	63.33
656.502	63.43
656.832	63.33
657.162	63.31
657.491	63.3
657.821	63.3
658.15	63.15
658.48	63.31
658.809	63.26
659.139	63.36
659.468	63.25
659.798	63.21
660.127	63.38
660.456	63.4
660.785	63.51
661.115	63.51
661.444	63.42
661.773	63.31
662.102	63.29
662.431	63.23
662.76	63.28
663.089	63.25
663.418	63.24
663.747	63.3
664.076	63.3
664.404	63.24
664.733	63.39
665.062	63.52
665.39	63.4
665.719	63.41
666.048	63.36
666.376	63.46
666.705	63.41
667.033	63.45
667.362	63.48
667.69	63.48
668.018	63.6
668.347	63.7
668.675	63.68
669.003	63.65
669.331	63.64
669.659	63.73
669.987	63.74
670.315	63.8
670.643	63.69
670.971	63.72
671.299	63.67
671.627	63.5
671.955	63.35
672.283	63.46
672.61	63.46
672.938	63.54
673.266	63.53
673.593	63.71
673.921	63.64
674.249	63.77
674.576	63.68
674.904	63.6
675.231	63.68
675.558	63.79
675.886	63.82
676.213	63.72
676.54	63.65
676.867	63.52
677.195	63.5
677.522	63.65
677.849	63.62
678.176	63.78
678.503	63.83
678.83	63.95
679.157	63.91
679.484	64
679.81	63.95
680.137	63.96
680.464	63.84
680.791	63.91
681.117	63.82
681.444	63.87
681.771	63.78
682.097	63.75
682.424	63.73
682.75	63.83
683.077	63.88
683.403	63.87
683.729	64.01
684.056	63.8
684.382	63.71
684.708	63.68
685.034	63.62
685.36	63.68
685.686	63.71
686.012	63.71
686.339	63.51
686.664	63.44
686.99	63.37
687.316	63.32
687.642	63.27
687.968	63.24
688.294	63.21
688.619	63.21
688.945	63.17
689.271	63.14
689.596	63.1
689.922	63.09
690.247	63.07
690.573	63.01
690.898	63.25
691.224	63.27
691.549	63.24
691.874	63.14
692.2	63.17
692.525	63.17
692.85	63.25
693.175	63.32
693.5	63.47
693.825	63.71
694.15	63.74
694.475	63.68
694.8	63.77
695.125	63.86
695.45	63.76
695.775	63.67
696.099	63.66
696.424	63.49
696.749	63.48
697.073	63.42
697.398	63.42
697.723	63.49
698.047	63.46
698.372	63.6
698.696	63.58
699.02	63.53
699.345	63.56
699.669	63.49
699.993	63.52
700.318	63.58
700.642	63.46
700.966	63.49
701.29	63.42
701.614	63.36
701.938	63.23
702.262	63.43
702.586	63.53
702.91	63.58
703.234	63.8
703.557	64.04
703.881	64.23
704.205	64.46
704.529	64.42
704.852	64.45
705.176	64.39
705.499	64.7
705.823	64.66
706.146	64.7
706.47	64.67
706.793	64.64
707.117	64.43
707.44	64.32
707.763	64.53
708.086	64.71
708.409	64.66
708.733	64.64
709.056	64.56
709.379	64.61
709.702	64.59
710.025	64.43
710.348	64.16
710.671	64.03
710.993	63.87
711.316	63.88
711.639	63.85
711.962	63.82
712.284	63.61
712.607	63.67
712.93	63.72
713.252	63.82
713.575	64.08
713.897	64.2
714.22	64.33
714.542	64.14
714.864	64.03
715.187	64.22
715.509	64.4
715.831	64.46
716.153	64.26
716.475	64.24
716.798	64.5
717.12	64.57
717.442	64.74
717.764	64.72
718.085	64.55
718.407	64.6
718.729	64.59
719.051	64.76
719.373	64.54
719.695	64.24
720.016	64.08
720.338	63.8
720.659	63.61
720.981	63.71
721.302	63.65
721.624	63.7
721.945	63.47
722.267	63.51
722.588	63.26
722.909	63.4
723.231	63.4
723.552	63.27
723.873	63.45
724.194	63.58
724.515	63.73
724.836	63.72
725.157	63.75
725.478	63.81
725.799	63.62
726.12	63.81
726.441	64.2
726.762	64.09
727.083	63.99
727.403	64.23
727.724	64.2
728.045	64.13
728.365	64.08
728.686	64.08
729.006	63.79
729.327	64.06
729.647	64.17
729.967	64.07
730.288	64.12
730.608	64.05
730.928	63.89
731.249	63.9
731.569	64.05
731.889	64.22
732.209	64.06
732.529	64.16
732.849	64.22
733.169	64
733.489	64.25
733.809	64.24
734.129	64.17
734.448	64.13
734.768	64.37
735.088	64.62
735.408	64.51
735.727	64.76
736.047	64.74
736.366	64.66
736.686	64.52
737.005	64.43
737.325	64.52
737.644	64.4
737.963	64.37
738.283	64.18
738.602	63.93
738.921	63.85
739.24	63.81
739.56	63.83
739.879	64.11
740.198	64.07
740.517	64.57
740.836	64.55
741.155	64.65
741.473	64.54
741.792	64.6
742.111	64.79
742.43	64.52
742.748	64.3
743.067	64.59
743.386	64.99
743.704	65.07
744.023	65.08
744.341	65.16
744.66	65.38
744.978	65.59
745.297	65.6
745.615	65.85
745.933	66.09
746.252	66.12
746.57	65.93
746.888	65.82
747.206	65.25
747.524	65.48
747.842	65.15
748.16	65.2
748.478	64.91
748.796	65.04
749.114	65.52
749.432	65.68
749.749	65.53
750.067	65.5
750.385	65.37
750.703	65.19
751.02	65.28
751.338	65.2
751.655	65.28
751.973	65.43
752.29	65.66
752.608	65.59
752.925	65.61
753.242	65.47
753.56	65.61
753.877	65.91
754.194	65.96
754.511	66.03
754.828	65.83
755.145	65.64
755.462	65.49
755.779	65.23
756.096	65.2
756.413	65.13
756.73	64.79
757.047	64.6
757.364	64.76
757.68	64.66
757.997	64.44
758.314	64.26
758.63	64.26
758.947	64.16
759.264	63.99
759.58	64.13
759.896	64.15
760.213	64.19
760.529	64.2
760.846	63.84
761.162	63.76
761.478	64.27
761.794	64.41
762.11	64.71
762.426	64.73
762.743	64.72
763.059	64.54
763.375	64.35
763.69	64.7
764.006	64.77
764.322	64.85
764.638	64.93
764.954	65.06
765.27	64.8
765.585	64.57
765.901	64.78
766.216	64.63
766.532	64.78
766.848	64.57
767.163	64.61
767.478	64.61
767.794	64.83
768.109	64.14
768.424	64.02
768.74	63.72
769.055	63.71
769.37	63.81
769.685	63.88
770	64.3
770.315	63.8
770.63	63.56
770.945	63.62
771.26	63.51
771.575	63.62
771.89	63.85
772.205	64.06
772.52	64.15
772.834	63.9
773.149	63.8
773.464	63.82
773.778	63.77
774.093	64.03
774.407	63.72
774.722	63.9
775.036	63.77
775.351	64.08
775.665	64.03
775.979	63.89
776.293	64.19
776.608	64.33
776.922	64.67
777.236	64.86
777.55	64.24
777.864	64.5
778.178	64.56
778.492	64.88
778.806	64.66
779.12	64.16
779.434	64.71
779.747	65.35
780.061	65.49
780.375	65.66
780.689	65.84
781.002	65.73
781.316	65.8
781.629	66.28
781.943	66.09
782.256	65.92
782.57	65.63
782.883	65.11
783.196	65.04
783.51	65.1
783.823	64.96
784.136	65.36
784.449	64.78
784.762	64.89
785.075	64.75
785.388	65.48
785.701	66.1
786.014	65.77
786.327	64.99
786.64	65.19
786.953	64.94
787.266	64.72
787.578	65
787.891	65.58
788.204	65.85
788.516	65.63
788.829	65.33
789.141	65.64
789.454	65.86
789.766	65.98
790.079	65.62
790.391	66
790.703	66
791.016	66.42
791.328	65.63
791.64	65.5
791.952	65.08
792.264	64.59
792.576	63.97
792.888	63.95
793.2	63.82
793.512	63.94
793.824	64
794.136	63.96
794.448	63.66
794.76	63.1
795.071	63.69
795.383	64.2
795.695	64.54
796.006	64.79
796.318	64.81
796.629	64.89
796.941	64.74
797.252	64.41
797.564	64.55
797.875	64.75
798.186	64.35
798.497	64.01
798.809	64.03
799.12	65.03
799.431	65.33
799.742	64.95
800.053	64.78
800.364	64.63
800.675	64.42
800.986	64.42
801.297	64.67
801.608	64.31
801.918	64.3
802.229	63.95
802.54	64.02
802.851	64.87
803.161	64.86
803.472	64.16
803.782	64.45
804.093	64.15
804.403	64.67
804.714	65.41
805.024	65.87
805.334	65.86
805.645	65.46
805.955	65.41
806.265	65.87
806.575	66.14
806.885	66.63
807.195	66.93
807.505	67.56
807.815	67.7
808.125	66.76
808.435	66.9
808.745	66.96
809.055	66.69
809.365	65.82
809.674	65.18
809.984	66.17
810.294	66.08
810.603	66.1
810.913	66.07
811.222	65.57
811.532	65.97
811.841	66.3
812.151	66.65
812.46	65.94
812.769	66.06
813.079	65.53
813.388	65.26
813.697	65.28
814.006	64.52
814.315	64.18
814.624	65.26
814.933	65.47
815.242	65.55
815.551	65.83
815.86	65.7
816.169	66.52
816.478	66.34
816.786	66.93
817.095	66.72
817.404	66.4
817.712	66.48
818.021	66.3
818.33	65.28
818.638	64.89
818.947	65.02
819.255	64.82
819.563	64.87
819.872	64.56
820.18	64.6
820.488	64.56
820.796	64.72
821.105	64.75
821.413	64.8
821.721	64.74
822.029	64.79
822.337	64.86
822.645	64.97
822.953	64.96
823.26	64.76
823.568	64.86
823.876	64.77
824.184	64.7
824.491	64.54
824.799	64.9
825.107	64.91
825.414	65.04
825.722	65.13
826.029	65.09
826.337	65.18
826.644	65.07
826.951	65.35
827.259	65.42
827.566	65.44
827.873	65.27
828.18	65.48
828.488	65.29
828.795	65.35
829.102	65.35
829.409	65.42
829.716	65.44
830.023	65.44
830.329	65.49
830.636	65.66
830.943	65.82
831.25	65.82
831.557	66.26
831.863	66.12
832.17	66.07
832.476	66.22
832.783	66.32
833.089	66.37
833.396	65.8
833.702	65.88
834.009	65.49
834.315	65.71
834.621	65.43
834.928	65.42
835.234	65.01
835.54	64.9
835.846	64.79
836.152	64.68
836.458	64.57
836.764	64.96
837.07	65.34
837.376	65.18
837.682	65.02
837.988	64
838.293	64.09
838.599	63.81
838.905	63.7
839.211	63.32
839.516	63.46
839.822	63.29
840.127	62.88
840.433	63.19
840.738	62.66
841.044	62.64
841.349	62.36
841.654	63.09
841.959	63.47
842.265	63.34
842.57	63.53
842.875	63.23
843.18	63.56
843.485	63.69
843.79	64.23
844.095	62.17
844.4	62.78
844.705	62.64
845.01	63.58
845.315	63.19
845.619	63.77
845.924	63.28
846.229	64.05
846.533	62.48
846.838	61.02
847.142	60.8
847.447	61.07
847.751	63.4
848.056	61.73
848.36	60.42
848.664	61.62
848.969	60.88
849.273	61.44
849.577	60.4
849.881	56.93
850.185	57.19
850.489	59.65
850.794	58.35
851.097	57.84
851.401	57.87
851.705	58.78
852.009	57.1
852.313	58.23
852.617	59.05
852.92	61.35
853.224	62.49
853.528	62.27
853.831	60.87
854.135	59.81
854.438	61.6
854.742	61.63
855.045	58.59
855.349	62.25
855.652	62.19
855.955	64.65
856.259	66.87
856.562	65.07
856.865	64.09
857.168	65.44
857.471	64.08
857.774	62.39
858.077	62.12
858.38	65.53
858.683	64.24
858.986	64
859.289	63.68
859.592	63.71
859.894	65.58
860.197	64.75
860.5	65.32
860.802	63.7
861.105	63.87
861.407	65.25
861.71	64.39
862.012	63.57
862.315	61.04
862.617	60.62
862.919	64
863.222	64.37
863.524	64.53
863.826	66.93
864.128	68.69
864.43	70.7
864.732	69.87
865.034	70.21
865.336	69.46
865.638	68.26
865.94	66.44
866.242	65.22
866.544	66.3
866.846	64.16
867.147	66.9
867.449	66.69
867.751	67.9
868.052	67.58
868.354	67.43
868.655	65.9
868.957	66.01
869.258	63.35
869.56	62.49
869.861	62.32
870.162	60.49
870.463	58.39
870.765	55.79
871.066	54.42
871.367	55.2
871.668	53.57
871.969	52.43
872.27	56.63
872.571	58.64
872.872	58.7
873.173	59.64
873.473	58.71
873.774	59.06
874.075	58.3
874.376	56.72
874.676	57.14
874.977	57.01
875.277	57.9
875.578	60.52
875.878	61.25
876.179	61.86
876.479	63.61
876.78	64.46
877.08	65.5
877.38	66.84
877.68	66.64
877.981	69.76
878.281	74.45
878.581	70.8
