Data from BA28306_Reflection_00002.txt Node
Date: Mon Nov 18 15:53:28 EST 2019
User: vgr7
Spectrometer: USB2G7710
Scans to average: 3
Trigger mode: 4
Integration Time (sec): 2.000000E-2
Electric dark correction enabled: true
Boxcar width: 10
XAxis mode: Wavelengths
Number of Pixels in Spectrum: 2048
>>>>>Begin Spectral Data<<<<<
177.721	-1628.16
178.105	-231.21
178.488	-276.43
178.871	-333.96
179.254	-1130.77
179.636	48.98
180.019	-40.6
180.402	213.64
180.785	-35.33
181.168	-9.94
181.55	-37.55
181.933	137.55
182.316	146.99
182.698	196.52
183.081	217.84
183.463	524.02
183.846	1673.6
184.228	-1679.01
184.611	-2491.3
184.993	-547.99
185.376	-397.33
185.758	-1068.7
186.14	-652.53
186.522	-417.81
186.904	-385.96
187.287	-453.19
187.669	-326.58
188.051	-383.9
188.433	-276.79
188.815	-347.96
189.197	-273.45
189.579	-323.9
189.961	-261.66
190.342	-168.88
190.724	-128.41
191.106	-204.37
191.488	-168.99
191.869	-155.88
192.251	-177.83
192.633	-144.96
193.014	-128.45
193.396	-124.31
193.777	-87.53
194.159	-84.22
194.54	-93.18
194.922	-88.26
195.303	-75.58
195.684	-81.36
196.065	-61.13
196.447	-60.3
196.828	-95.52
197.209	-81.82
197.59	-124.55
197.971	-182.93
198.352	-180.53
198.733	-287.92
199.114	-139.66
199.495	-117.33
199.876	-119.44
200.257	-169.05
200.638	-127.17
201.018	-143.56
201.399	-156.31
201.78	-133.78
202.16	-164.4
202.541	-187.71
202.922	-250.86
203.302	-380.53
203.683	-340.35
204.063	-451.18
204.444	-349.42
204.824	-205.39
205.204	-217.24
205.585	-163.76
205.965	-134.23
206.345	-169.01
206.725	-139.18
207.106	-179.94
207.486	-251.07
207.866	-201.93
208.246	-128.96
208.626	-149.55
209.006	-120.13
209.386	-96.88
209.766	-103.53
210.145	-94.43
210.525	-70.69
210.905	-93.2
211.285	-63.48
211.664	-68.46
212.044	-58.15
212.424	-49.08
212.803	-54.82
213.183	-59.07
213.562	-65.51
213.942	-58.53
214.321	-50.99
214.701	-53.14
215.08	-35.57
215.459	-28.27
215.838	-26.37
216.218	-37.87
216.597	-34.47
216.976	-30.43
217.355	-32.33
217.734	-29.07
218.113	-16.91
218.492	-14.66
218.871	-9.08
219.25	-21.07
219.629	-5.59
220.008	-24.21
220.387	-36.82
220.766	-35.04
221.144	-46.64
221.523	-45.59
221.902	-62.8
222.28	-58.74
222.659	-45.32
223.037	-46
223.416	-59.46
223.794	-59.51
224.173	-46.92
224.551	-32.7
224.929	-37.86
225.308	-36.33
225.686	-24.62
226.064	-27.15
226.442	-26.67
226.821	-17.65
227.199	-13.49
227.577	-20.73
227.955	-17.22
228.333	-15.12
228.711	-10.02
229.089	-4.47
229.467	-7.67
229.845	-3.36
230.222	-5.82
230.6	-8.2
230.978	-8.19
231.356	-4.47
231.733	-6.27
232.111	-4.21
232.488	-3.2
232.866	-2.34
233.243	-2.37
233.621	-4.11
233.998	-2.7
234.376	-1.39
234.753	-1.62
235.13	-1.36
235.508	-0.52
235.885	1.08
236.262	1.3
236.639	-1.19
237.016	0.97
237.393	3.57
237.77	5.06
238.147	6.29
238.524	5.84
238.901	6.1
239.278	6.23
239.655	6.58
240.032	5.86
240.409	5.32
240.785	5.19
241.162	4.68
241.539	5.24
241.915	4.93
242.292	4.66
242.668	4.49
243.045	4.75
243.421	4.72
243.798	4.25
244.174	3.91
244.551	4.18
244.927	3.78
245.303	3.78
245.679	3.78
246.056	3.81
246.432	4.05
246.808	3.97
247.184	3.68
247.56	3.71
247.936	3.45
248.312	3.27
248.688	3.33
249.064	3.49
249.44	3.28
249.815	3.58
250.191	3.66
250.567	3.79
250.943	3.62
251.318	3.8
251.694	3.77
252.069	4.12
252.445	4.09
252.82	3.92
253.196	3.76
253.571	3.73
253.947	3.65
254.322	3.39
254.697	3.24
255.073	3.1
255.448	2.92
255.823	3.06
256.198	2.99
256.573	3.11
256.948	3.14
257.323	3.15
257.698	3.05
258.073	3.13
258.448	3.18
258.823	3.29
259.198	3.27
259.573	3.37
259.948	3.23
260.322	3.22
260.697	3.32
261.072	3.33
261.446	3.24
261.821	3.09
262.195	3.26
262.57	3.31
262.944	3.31
263.319	3.37
263.693	3.48
264.067	3.73
264.442	3.76
264.816	3.82
265.19	3.8
265.564	3.79
265.938	3.53
266.313	3.36
266.687	3.34
267.061	3.43
267.435	3.55
267.809	3.66
268.183	3.62
268.556	3.5
268.93	3.58
269.304	3.64
269.678	3.85
270.051	3.64
270.425	3.58
270.799	3.64
271.172	3.6
271.546	3.57
271.919	3.54
272.293	3.38
272.666	3.21
273.04	3.22
273.413	3.24
273.787	3.39
274.16	3.4
274.533	3.37
274.906	3.27
275.279	2.97
275.653	2.95
276.026	2.99
276.399	2.97
276.772	2.91
277.145	2.8
277.518	2.76
277.891	2.82
278.263	2.85
278.636	2.92
279.009	2.86
279.382	2.95
279.755	2.87
280.127	3.24
280.5	3.38
280.872	3.49
281.245	3.39
281.617	3.46
281.99	3.49
282.362	3.57
282.735	3.49
283.107	3.66
283.479	3.72
283.852	3.71
284.224	3.83
284.596	3.8
284.968	3.92
285.34	3.86
285.713	3.93
286.085	4.03
286.457	4.01
286.829	4.05
287.201	3.98
287.572	3.88
287.944	3.67
288.316	3.58
288.688	3.58
289.06	3.63
289.431	3.68
289.803	3.79
290.175	3.78
290.546	4.06
290.918	4.11
291.289	3.93
291.661	3.99
292.032	3.92
292.403	3.94
292.775	3.89
293.146	3.95
293.517	3.85
293.889	3.85
294.26	3.8
294.631	3.85
295.002	3.94
295.373	4
295.744	4.13
296.115	4.18
296.486	4.12
296.857	4.08
297.228	4.13
297.599	4.03
297.97	3.98
298.34	3.81
298.711	3.85
299.082	3.97
299.452	3.97
299.823	4.14
300.194	4.12
300.564	4.19
300.935	4.27
301.305	4.24
301.676	4.22
302.046	4.31
302.416	4.36
302.787	4.21
303.157	4.22
303.527	4.15
303.897	4.15
304.267	4.26
304.637	4.27
305.008	4.26
305.378	4.29
305.748	4.18
306.117	4.14
306.487	4.08
306.857	4
307.227	4.01
307.597	3.82
307.967	3.83
308.336	3.79
308.706	3.65
309.076	3.79
309.445	3.7
309.815	3.61
310.184	3.59
310.554	3.73
310.923	3.78
311.293	3.67
311.662	3.58
312.031	3.56
312.401	3.49
312.77	3.53
313.139	3.47
313.508	3.61
313.877	3.64
314.246	3.62
314.616	3.54
314.985	3.62
315.353	3.62
315.722	3.6
316.091	3.43
316.46	3.48
316.829	3.41
317.198	3.4
317.567	3.4
317.935	3.24
318.304	3.2
318.672	3.03
319.041	3.18
319.41	3.24
319.778	3.35
320.147	3.51
320.515	3.35
320.883	3.17
321.252	3.29
321.62	3.17
321.988	3.26
322.357	3.29
322.725	3.23
323.093	3.26
323.461	3.29
323.829	3.41
324.197	3.39
324.565	3.43
324.933	3.48
325.301	3.54
325.669	3.6
326.037	3.55
326.405	3.65
326.772	3.59
327.14	3.7
327.508	3.61
327.875	3.5
328.243	3.54
328.61	3.71
328.978	3.61
329.346	3.65
329.713	3.53
330.08	3.74
330.448	3.55
330.815	3.41
331.182	3.31
331.55	3.24
331.917	3.22
332.284	3.27
332.651	3.22
333.018	3.11
333.385	3.11
333.752	3.21
334.119	3.26
334.486	3.29
334.853	3.22
335.22	3.11
335.587	3.16
335.954	3.09
336.32	3.15
336.687	3.04
337.054	3.13
337.42	3.19
337.787	3.1
338.153	3.22
338.52	3.4
338.886	3.44
339.253	3.36
339.619	3.33
339.986	3.29
340.352	3.44
340.718	3.45
341.084	3.51
341.451	3.51
341.817	3.6
342.183	3.59
342.549	3.55
342.915	3.64
343.281	3.54
343.647	3.56
344.013	3.52
344.379	3.56
344.745	3.52
345.11	3.49
345.476	3.41
345.842	3.43
346.208	3.35
346.573	3.42
346.939	3.54
347.304	3.61
347.67	3.52
348.035	3.44
348.401	3.56
348.766	3.48
349.132	3.4
349.497	3.21
349.862	3.31
350.228	3.33
350.593	3.24
350.958	3.39
351.323	3.41
351.688	3.38
352.053	3.38
352.418	3.43
352.783	3.49
353.148	3.54
353.513	3.5
353.878	3.55
354.243	3.46
354.608	3.48
354.972	3.44
355.337	3.5
355.702	3.51
356.066	3.47
356.431	3.49
356.795	3.51
357.16	3.55
357.524	3.5
357.889	3.5
358.253	3.58
358.618	3.53
358.982	3.51
359.346	3.45
359.71	3.43
360.075	3.37
360.439	3.35
360.803	3.35
361.167	3.34
361.531	3.37
361.895	3.42
362.259	3.4
362.623	3.41
362.987	3.39
363.351	3.39
363.714	3.37
364.078	3.35
364.442	3.3
364.806	3.34
365.169	3.29
365.533	3.32
365.896	3.26
366.26	3.25
366.623	3.24
366.987	3.31
367.35	3.33
367.714	3.43
368.077	3.46
368.44	3.45
368.803	3.48
369.167	3.37
369.53	3.3
369.893	3.36
370.256	3.41
370.619	3.44
370.982	3.36
371.345	3.3
371.708	3.36
372.071	3.36
372.434	3.29
372.797	3.3
373.159	3.28
373.522	3.28
373.885	3.3
374.247	3.36
374.61	3.4
374.973	3.36
375.335	3.34
375.698	3.31
376.06	3.31
376.423	3.28
376.785	3.31
377.147	3.42
377.51	3.37
377.872	3.38
378.234	3.37
378.596	3.41
378.958	3.51
379.321	3.52
379.683	3.58
380.045	3.64
380.407	3.62
380.769	3.6
381.13	3.59
381.492	3.59
381.854	3.52
382.216	3.49
382.578	3.55
382.939	3.52
383.301	3.54
383.663	3.54
384.024	3.56
384.386	3.54
384.747	3.52
385.109	3.53
385.47	3.49
385.832	3.49
386.193	3.51
386.554	3.42
386.916	3.4
387.277	3.38
387.638	3.39
387.999	3.43
388.36	3.43
388.721	3.42
389.082	3.42
389.443	3.44
389.804	3.43
390.165	3.42
390.526	3.42
390.887	3.39
391.248	3.44
391.609	3.44
391.969	3.51
392.33	3.51
392.691	3.5
393.051	3.55
393.412	3.56
393.772	3.56
394.133	3.59
394.493	3.58
394.854	3.59
395.214	3.57
395.574	3.58
395.935	3.59
396.295	3.62
396.655	3.64
397.015	3.66
397.376	3.7
397.736	3.66
398.096	3.67
398.456	3.7
398.816	3.69
399.176	3.67
399.535	3.63
399.895	3.61
400.255	3.63
400.615	3.6
400.975	3.62
401.334	3.61
401.694	3.59
402.054	3.56
402.413	3.56
402.773	3.55
403.132	3.57
403.492	3.6
403.851	3.61
404.211	3.59
404.57	3.55
404.929	3.54
405.288	3.53
405.648	3.53
406.007	3.52
406.366	3.5
406.725	3.53
407.084	3.56
407.443	3.56
407.802	3.56
408.161	3.53
408.52	3.51
408.879	3.49
409.238	3.52
409.596	3.55
409.955	3.53
410.314	3.55
410.673	3.48
411.031	3.47
411.39	3.47
411.748	3.49
412.107	3.51
412.465	3.51
412.824	3.53
413.182	3.53
413.54	3.54
413.899	3.54
414.257	3.56
414.615	3.53
414.974	3.54
415.332	3.51
415.69	3.52
416.048	3.49
416.406	3.52
416.764	3.54
417.122	3.56
417.48	3.56
417.838	3.56
418.195	3.61
418.553	3.62
418.911	3.62
419.269	3.62
419.626	3.64
419.984	3.65
420.342	3.65
420.699	3.64
421.057	3.65
421.414	3.65
421.772	3.64
422.129	3.65
422.486	3.65
422.844	3.66
423.201	3.66
423.558	3.69
423.915	3.7
424.273	3.69
424.63	3.67
424.987	3.69
425.344	3.68
425.701	3.68
426.058	3.67
426.415	3.66
426.772	3.66
427.128	3.65
427.485	3.63
427.842	3.63
428.199	3.65
428.555	3.65
428.912	3.65
429.269	3.65
429.625	3.65
429.982	3.64
430.338	3.66
430.695	3.67
431.051	3.64
431.407	3.64
431.764	3.65
432.12	3.64
432.476	3.65
432.832	3.64
433.189	3.62
433.545	3.62
433.901	3.64
434.257	3.63
434.613	3.64
434.969	3.65
435.325	3.65
435.681	3.65
436.036	3.66
436.392	3.66
436.748	3.66
437.104	3.67
437.459	3.67
437.815	3.65
438.171	3.66
438.526	3.68
438.882	3.69
439.237	3.68
439.593	3.7
439.948	3.7
440.304	3.7
440.659	3.71
441.014	3.71
441.369	3.7
441.725	3.69
442.08	3.69
442.435	3.68
442.79	3.68
443.145	3.68
443.5	3.68
443.855	3.68
444.21	3.67
444.565	3.68
444.92	3.69
445.275	3.7
445.629	3.69
445.984	3.69
446.339	3.66
446.693	3.66
447.048	3.64
447.403	3.64
447.757	3.64
448.112	3.63
448.466	3.64
448.82	3.64
449.175	3.66
449.529	3.67
449.883	3.66
450.238	3.66
450.592	3.66
450.946	3.62
451.3	3.62
451.654	3.65
452.008	3.63
452.362	3.62
452.716	3.62
453.07	3.61
453.424	3.61
453.778	3.62
454.132	3.63
454.486	3.62
454.839	3.61
455.193	3.61
455.547	3.62
455.9	3.63
456.254	3.65
456.607	3.64
456.961	3.63
457.314	3.63
457.668	3.62
458.021	3.62
458.375	3.65
458.728	3.65
459.081	3.65
459.434	3.65
459.787	3.66
460.141	3.66
460.494	3.67
460.847	3.68
461.2	3.69
461.553	3.7
461.906	3.72
462.259	3.73
462.611	3.75
462.964	3.75
463.317	3.73
463.67	3.73
464.022	3.74
464.375	3.74
464.728	3.76
465.08	3.76
465.433	3.77
465.785	3.77
466.138	3.76
466.49	3.72
466.843	3.71
467.195	3.73
467.547	3.73
467.899	3.73
468.252	3.73
468.604	3.73
468.956	3.73
469.308	3.73
469.66	3.73
470.012	3.72
470.364	3.7
470.716	3.68
471.068	3.69
471.42	3.68
471.772	3.68
472.123	3.66
472.475	3.69
472.827	3.69
473.178	3.68
473.53	3.68
473.882	3.71
474.233	3.74
474.585	3.71
474.936	3.69
475.288	3.7
475.639	3.71
475.99	3.7
476.342	3.7
476.693	3.7
477.044	3.71
477.395	3.72
477.746	3.72
478.097	3.74
478.448	3.71
478.8	3.72
479.15	3.71
479.501	3.73
479.852	3.73
480.203	3.74
480.554	3.74
480.905	3.74
481.255	3.74
481.606	3.73
481.957	3.75
482.307	3.75
482.658	3.76
483.009	3.76
483.359	3.77
483.709	3.78
484.06	3.78
484.41	3.78
484.761	3.79
485.111	3.79
485.461	3.8
485.811	3.81
486.162	3.81
486.512	3.83
486.862	3.83
487.212	3.83
487.562	3.83
487.912	3.84
488.262	3.84
488.612	3.87
488.961	3.88
489.311	3.87
489.661	3.88
490.011	3.89
490.36	3.88
490.71	3.88
491.06	3.87
491.409	3.88
491.759	3.87
492.108	3.86
492.458	3.87
492.807	3.85
493.157	3.86
493.506	3.86
493.855	3.86
494.204	3.84
494.554	3.85
494.903	3.86
495.252	3.86
495.601	3.87
495.95	3.84
496.299	3.83
496.648	3.82
496.997	3.82
497.346	3.82
497.695	3.85
498.043	3.85
498.392	3.85
498.741	3.85
499.09	3.85
499.438	3.87
499.787	3.88
500.135	3.9
500.484	3.9
500.832	3.91
501.181	3.92
501.529	3.93
501.878	3.95
502.226	3.96
502.574	3.94
502.923	3.92
503.271	3.93
503.619	3.94
503.967	3.95
504.315	3.95
504.663	3.92
505.011	3.91
505.359	3.89
505.707	3.9
506.055	3.92
506.403	3.95
506.751	3.93
507.098	3.92
507.446	3.94
507.794	3.92
508.141	3.93
508.489	3.9
508.837	3.93
509.184	3.93
509.531	3.93
509.879	3.95
510.226	3.95
510.574	3.97
510.921	3.97
511.268	3.97
511.616	3.99
511.963	3.99
512.31	4
512.657	4.03
513.004	4.04
513.351	4.04
513.698	4.03
514.045	4.04
514.392	4.03
514.739	4.03
515.086	4.05
515.432	4.04
515.779	4.06
516.126	4.06
516.473	4.07
516.819	4.08
517.166	4.08
517.512	4.09
517.859	4.08
518.205	4.08
518.552	4.1
518.898	4.1
519.245	4.13
519.591	4.11
519.937	4.09
520.283	4.1
520.629	4.1
520.976	4.1
521.322	4.11
521.668	4.14
522.014	4.13
522.36	4.14
522.706	4.14
523.052	4.14
523.398	4.13
523.743	4.13
524.089	4.14
524.435	4.15
524.781	4.15
525.126	4.16
525.472	4.15
525.817	4.17
526.163	4.17
526.509	4.18
526.854	4.19
527.199	4.2
527.545	4.21
527.89	4.21
528.235	4.21
528.581	4.22
528.926	4.22
529.271	4.22
529.616	4.22
529.961	4.23
530.306	4.24
530.651	4.24
530.996	4.23
531.341	4.23
531.686	4.22
532.031	4.22
532.376	4.22
532.721	4.24
533.065	4.23
533.41	4.22
533.755	4.21
534.099	4.21
534.444	4.23
534.788	4.23
535.133	4.23
535.477	4.24
535.822	4.24
536.166	4.24
536.51	4.23
536.855	4.24
537.199	4.24
537.543	4.22
537.887	4.24
538.231	4.25
538.576	4.24
538.92	4.25
539.264	4.25
539.608	4.26
539.951	4.26
540.295	4.26
540.639	4.27
540.983	4.29
541.327	4.28
541.671	4.26
542.014	4.26
542.358	4.28
542.701	4.28
543.045	4.3
543.389	4.3
543.732	4.3
544.075	4.31
544.419	4.31
544.762	4.32
545.105	4.32
545.449	4.31
545.792	4.33
546.135	4.35
546.478	4.36
546.821	4.35
547.165	4.35
547.508	4.37
547.851	4.35
548.194	4.35
548.536	4.36
548.879	4.39
549.222	4.36
549.565	4.34
549.908	4.33
550.25	4.3
550.593	4.3
550.936	4.28
551.278	4.28
551.621	4.27
551.963	4.31
552.306	4.31
552.648	4.33
552.991	4.34
553.333	4.32
553.675	4.31
554.017	4.33
554.36	4.32
554.702	4.34
555.044	4.35
555.386	4.35
555.728	4.33
556.07	4.35
556.412	4.37
556.754	4.38
557.096	4.37
557.438	4.37
557.78	4.37
558.121	4.39
558.463	4.4
558.805	4.38
559.147	4.34
559.488	4.35
559.83	4.34
560.171	4.33
560.513	4.35
560.854	4.37
561.196	4.35
561.537	4.37
561.878	4.34
562.22	4.34
562.561	4.36
562.902	4.39
563.243	4.39
563.584	4.39
563.925	4.4
564.266	4.41
564.607	4.43
564.948	4.45
565.289	4.48
565.63	4.47
565.971	4.47
566.312	4.49
566.653	4.5
566.993	4.53
567.334	4.52
567.675	4.53
568.015	4.52
568.356	4.51
568.696	4.5
569.037	4.49
569.377	4.54
569.718	4.53
570.058	4.51
570.398	4.49
570.739	4.5
571.079	4.52
571.419	4.54
571.759	4.57
572.099	4.52
572.439	4.51
572.779	4.52
573.119	4.55
573.459	4.57
573.799	4.55
574.139	4.52
574.479	4.52
574.819	4.52
575.158	4.5
575.498	4.51
575.838	4.51
576.177	4.49
576.517	4.44
576.856	4.44
577.196	4.44
577.535	4.45
577.875	4.45
578.214	4.42
578.553	4.41
578.893	4.38
579.232	4.39
579.571	4.39
579.91	4.4
580.25	4.4
580.589	4.37
580.928	4.39
581.267	4.4
581.606	4.38
581.945	4.35
582.283	4.31
582.622	4.33
582.961	4.31
583.3	4.38
583.639	4.45
583.977	4.47
584.316	4.45
584.654	4.41
584.993	4.41
585.332	4.45
585.67	4.44
586.008	4.41
586.347	4.42
586.685	4.42
587.024	4.42
587.362	4.4
587.7	4.42
588.038	4.42
588.376	4.44
588.715	4.44
589.053	4.49
589.391	4.57
589.729	4.57
590.067	4.61
590.404	4.58
590.742	4.57
591.08	4.55
591.418	4.58
591.756	4.64
592.093	4.65
592.431	4.64
592.769	4.67
593.106	4.71
593.444	4.73
593.781	4.73
594.119	4.72
594.456	4.72
594.793	4.7
595.131	4.67
595.468	4.72
595.805	4.73
596.143	4.72
596.48	4.72
596.817	4.76
597.154	4.77
597.491	4.78
597.828	4.76
598.165	4.75
598.502	4.74
598.839	4.72
599.176	4.72
599.512	4.72
599.849	4.7
600.186	4.72
600.523	4.7
600.859	4.75
601.196	4.77
601.532	4.76
601.869	4.77
602.205	4.8
602.542	4.77
602.878	4.78
603.215	4.78
603.551	4.76
603.887	4.72
604.223	4.71
604.56	4.76
604.896	4.79
605.232	4.79
605.568	4.77
605.904	4.77
606.24	4.79
606.576	4.77
606.912	4.78
607.248	4.77
607.583	4.78
607.919	4.76
608.255	4.74
608.591	4.77
608.926	4.78
609.262	4.8
609.597	4.8
609.933	4.82
610.268	4.85
610.604	4.86
610.939	4.86
611.275	4.89
611.61	4.84
611.945	4.84
612.281	4.84
612.616	4.88
612.951	4.92
613.286	4.88
613.621	4.89
613.956	4.9
614.291	4.86
614.626	4.89
614.961	4.9
615.296	4.87
615.631	4.89
615.966	4.88
616.3	4.85
616.635	4.89
616.97	4.86
617.304	4.83
617.639	4.8
617.973	4.81
618.308	4.82
618.642	4.86
618.977	4.83
619.311	4.83
619.646	4.87
619.98	4.82
620.314	4.84
620.648	4.87
620.983	4.88
621.317	4.86
621.651	4.87
621.985	4.86
622.319	4.89
622.653	4.88
622.987	4.89
623.321	4.88
623.655	4.89
623.988	4.92
624.322	4.93
624.656	5.01
624.99	5.02
625.323	4.98
625.657	5.01
625.99	5.03
626.324	5.05
626.657	5.04
626.991	5.09
627.324	5.11
627.658	5.14
627.991	5.15
628.324	5.2
628.657	5.15
628.991	5.12
629.324	5.19
629.657	5.19
629.99	5.2
630.323	5.22
630.656	5.23
630.989	5.22
631.322	5.24
631.655	5.19
631.987	5.16
632.32	5.19
632.653	5.16
632.986	5.16
633.318	5.18
633.651	5.14
633.984	5.06
634.316	5.03
634.649	4.98
634.981	5
635.313	4.98
635.646	5.04
635.978	5.04
636.31	4.97
636.643	4.97
636.975	5.01
637.307	5.04
637.639	4.99
637.971	4.95
638.303	4.92
638.635	4.93
638.967	5.02
639.299	5
639.631	4.95
639.963	4.91
640.295	4.91
640.626	4.97
640.958	5.09
641.29	5.15
641.621	5.15
641.953	5.08
642.285	5.04
642.616	5.1
642.948	5.13
643.279	5.14
643.61	5.12
643.942	5.1
644.273	5.09
644.604	5.12
644.936	5.17
645.267	5.16
645.598	5.16
645.929	5.13
646.26	5.21
646.591	5.2
646.922	5.23
647.253	5.24
647.584	5.17
647.915	5.09
648.245	5.06
648.576	5.13
648.907	5.22
649.238	5.24
649.568	5.19
649.899	5.2
650.229	5.25
650.56	5.29
650.89	5.22
651.221	5.26
651.551	5.23
651.882	5.23
652.212	5.21
652.542	5.23
652.872	5.13
653.203	5.04
653.533	5.12
653.863	5.11
654.193	5.08
654.523	5.18
654.853	5.18
655.183	5.14
655.513	5.1
655.843	5.06
656.172	5.09
656.502	5.09
656.832	5.09
657.162	5.09
657.491	5.09
657.821	5.14
658.15	5.12
658.48	5.17
658.809	5.16
659.139	5.2
659.468	5.15
659.798	5.26
660.127	5.33
660.456	5.24
660.785	5.28
661.115	5.35
661.444	5.29
661.773	5.38
662.102	5.42
662.431	5.4
662.76	5.42
663.089	5.43
663.418	5.38
663.747	5.36
664.076	5.3
664.404	5.25
664.733	5.26
665.062	5.23
665.39	5.18
665.719	5.2
666.048	5.23
666.376	5.27
666.705	5.2
667.033	5.13
667.362	5.24
667.69	5.1
668.018	5.03
668.347	5.06
668.675	5.02
669.003	5.06
669.331	5.11
669.659	5.11
669.987	5.09
670.315	5.15
670.643	5.27
670.971	5.34
671.299	5.43
671.627	5.42
671.955	5.42
672.283	5.44
672.61	5.4
672.938	5.36
673.266	5.44
673.593	5.57
673.921	5.64
674.249	5.66
674.576	5.81
674.904	5.87
675.231	5.81
675.558	5.77
675.886	5.79
676.213	5.81
676.54	5.78
676.867	5.79
677.195	5.74
677.522	5.61
677.849	5.59
678.176	5.54
678.503	5.54
678.83	5.52
679.157	5.48
679.484	5.5
679.81	5.51
680.137	5.43
680.464	5.38
680.791	5.32
681.117	5.27
681.444	5.24
681.771	5.19
682.097	5.23
682.424	5.19
682.75	5.14
683.077	5.05
683.403	5.14
683.729	5.09
684.056	5.23
684.382	5.34
684.708	5.35
685.034	5.37
685.36	5.38
685.686	5.41
686.012	5.42
686.339	5.41
686.664	5.46
686.99	5.53
687.316	5.53
687.642	5.58
687.968	5.55
688.294	5.56
688.619	5.57
688.945	5.56
689.271	5.53
689.596	5.44
689.922	5.59
690.247	5.56
690.573	5.61
690.898	5.57
691.224	5.51
691.549	5.47
691.874	5.44
692.2	5.56
692.525	5.6
692.85	5.73
693.175	5.85
693.5	5.85
693.825	5.78
694.15	5.82
694.475	5.81
694.8	5.94
695.125	5.89
695.45	5.89
695.775	5.9
696.099	6.02
696.424	6.11
696.749	6.05
697.073	6.03
697.398	5.97
697.723	5.92
698.047	5.91
698.372	5.91
698.696	5.91
699.02	5.83
699.345	5.83
699.669	5.84
699.993	5.83
700.318	5.85
700.642	5.89
700.966	5.91
701.29	5.94
701.614	5.91
701.938	5.96
702.262	6.07
702.586	6.06
702.91	5.98
703.234	6.01
703.557	6.07
703.881	6.1
704.205	6.25
704.529	6.22
704.852	6.27
705.176	6.38
705.499	6.53
705.823	6.37
706.146	6.35
706.47	6.29
706.793	6.18
707.117	6.14
707.44	6.14
707.763	5.91
708.086	5.87
708.409	5.92
708.733	5.91
709.056	5.86
709.379	5.97
709.702	6.03
710.025	5.99
710.348	5.85
710.671	5.75
710.993	5.74
711.316	5.91
711.639	5.82
711.962	5.84
712.284	5.69
712.607	5.79
712.93	5.82
713.252	5.84
713.575	5.87
713.897	5.86
714.22	5.93
714.542	5.98
714.864	6
715.187	5.91
715.509	5.79
715.831	5.83
716.153	5.7
716.475	5.68
716.798	5.73
717.12	5.74
717.442	5.86
717.764	5.73
718.085	5.6
718.407	5.59
718.729	5.57
719.051	5.61
719.373	5.81
719.695	5.62
720.016	5.72
720.338	5.66
720.659	5.63
720.981	5.46
721.302	5.55
721.624	5.59
721.945	5.75
722.267	6.04
722.588	5.87
722.909	5.96
723.231	5.78
723.552	5.79
723.873	6
724.194	5.88
724.515	6.03
724.836	5.93
725.157	6.15
725.478	5.92
725.799	5.92
726.12	5.77
726.441	6
726.762	5.9
727.083	5.86
727.403	6
727.724	6.19
728.045	6.21
728.365	6.09
728.686	5.91
729.006	5.75
729.327	5.9
729.647	6.02
729.967	6.17
730.288	6.25
730.608	6.18
730.928	6.26
731.249	6.16
731.569	6.3
731.889	6.17
732.209	6.43
732.529	6.43
732.849	6.51
733.169	6.51
733.489	6.46
733.809	6.56
734.129	6.48
734.448	6.48
734.768	6.34
735.088	6.6
735.408	6.78
735.727	6.87
736.047	6.91
736.366	6.69
736.686	6.74
737.005	6.65
737.325	6.65
737.644	6.59
737.963	6.64
738.283	6.5
738.602	6.51
738.921	6.44
739.24	6.42
739.56	6.36
739.879	6.31
740.198	6.34
740.517	6.38
740.836	6.48
741.155	6.24
741.473	6.41
741.792	6.14
742.111	5.8
742.43	5.78
742.748	5.56
743.067	5.57
743.386	5.54
743.704	5.38
744.023	5.16
744.341	5.2
744.66	5.21
744.978	5.22
745.297	5.38
745.615	5.51
745.933	5.73
746.252	5.6
746.57	5.76
746.888	5.86
747.206	5.89
747.524	5.79
747.842	6.02
748.16	6.16
748.478	6.55
748.796	6.89
749.114	6.91
749.432	6.89
749.749	7.04
750.067	7.07
750.385	7.15
750.703	7.37
751.02	7.27
751.338	7.25
751.655	7.35
751.973	7.37
752.29	7.51
752.608	7.33
752.925	7.52
753.242	7.26
753.56	7.22
753.877	7.28
754.194	7.22
754.511	7.21
754.828	6.98
755.145	6.69
755.462	6.77
755.779	6.91
756.096	7.09
756.413	6.81
756.73	7.05
757.047	7.21
757.364	7.03
757.68	6.96
757.997	6.87
758.314	7.15
758.63	7.01
758.947	6.89
759.264	6.84
759.58	6.82
759.896	7.1
760.213	6.83
760.529	6.68
760.846	6.61
761.162	6.78
761.478	6.76
761.794	6.77
762.11	6.42
762.426	6.34
762.743	6.44
763.059	6.67
763.375	6.57
763.69	6.69
764.006	6.98
764.322	6.99
764.638	7.11
764.954	6.96
765.27	6.9
765.585	6.88
765.901	7.01
766.216	6.94
766.532	6.83
766.848	6.9
767.163	7.07
767.478	7.31
767.794	7.15
768.109	7.18
768.424	7.2
768.74	7.45
769.055	7.47
769.37	7.54
769.685	7.53
770	7.44
770.315	7.04
770.63	6.74
770.945	6.99
771.26	7.04
771.575	7.09
771.89	7.15
772.205	7.23
772.52	7.15
772.834	6.89
773.149	7.1
773.464	7.18
773.778	7.35
774.093	7.19
774.407	7.45
774.722	7.64
775.036	7.82
775.351	8.01
775.665	7.9
775.979	7.83
776.293	7.83
776.608	7.95
776.922	8.19
777.236	8.4
777.55	8.27
777.864	8.36
778.178	8.35
778.492	8.57
778.806	8.63
779.12	8.78
779.434	9.22
779.747	9.07
780.061	9.22
780.375	9.19
780.689	9.21
781.002	8.81
781.316	8.85
781.629	8.73
781.943	8.53
782.256	8.63
782.57	8.16
782.883	8.34
783.196	8.14
783.51	8.31
783.823	8
784.136	8.04
784.449	8.23
784.762	8.45
785.075	8.39
785.388	8.22
785.701	8.1
786.014	7.8
786.327	7.59
786.64	8
786.953	8.1
787.266	7.78
787.578	7.88
787.891	7.88
788.204	7.57
788.516	7.63
788.829	7.74
789.141	8.26
789.454	8.31
789.766	8.8
790.079	8.68
790.391	9.16
790.703	9.35
791.016	8.81
791.328	8.92
791.64	8.88
791.952	9.02
792.264	8.64
792.576	8.7
792.888	8.61
793.2	8.27
793.512	8.04
793.824	8.32
794.136	8.17
794.448	8.09
794.76	8.04
795.071	8.06
795.383	7.91
795.695	7.59
796.006	7.1
796.318	6.76
796.629	7
796.941	6.89
797.252	6.81
797.564	6.99
797.875	6.78
798.186	6.67
798.497	6.54
798.809	7.15
799.12	7.22
799.431	7.51
799.742	7.42
800.053	7.21
800.364	7.47
800.675	7.64
800.986	8.13
801.297	8.44
801.608	8.26
801.918	8.31
802.229	8.57
802.54	8.98
802.851	8.82
803.161	8.78
803.472	8.75
803.782	8.91
804.093	9.3
804.403	8.97
804.714	8.93
805.024	8.49
805.334	8.79
805.645	8.87
805.955	9.43
806.265	9.77
806.575	10.07
806.885	9.95
807.195	10.77
807.505	10.45
807.815	10.57
808.125	10.21
808.435	10.75
808.745	10.66
809.055	11
809.365	11.38
809.674	11.13
809.984	10.95
810.294	11.16
810.603	11.02
810.913	11.98
811.222	12.44
811.532	13.19
811.841	13.03
812.151	13.43
812.46	12.92
812.769	12.41
813.079	12.23
813.388	12.41
813.697	11.55
814.006	11.36
814.315	11.36
814.624	11.5
814.933	11.05
815.242	11.41
815.551	11.04
815.86	10.65
816.169	10.53
816.478	10.56
816.786	10.55
817.095	10.34
817.404	10.07
817.712	9.54
818.021	9.67
818.33	9.54
818.638	9.43
818.947	9.41
819.255	9.58
819.563	9.83
819.872	9.72
820.18	9.8
820.488	9.74
820.796	9.79
821.105	9.97
821.413	9.83
821.721	9.64
822.029	9.78
822.337	9.87
822.645	9.93
822.953	9.97
823.26	10.13
823.568	10.25
823.876	10.16
824.184	10.17
824.491	10.16
824.799	10.26
825.107	10.25
825.414	10.39
825.722	10.49
826.029	10.48
826.337	10.66
826.644	10.61
826.951	10.7
827.259	10.7
827.566	10.65
827.873	10.87
828.18	10.9
828.488	10.98
828.795	11.24
829.102	11.61
829.409	11.82
829.716	11.69
830.023	11.54
830.329	11.4
830.636	11.93
830.943	11.94
831.25	11.78
831.557	11.71
831.863	11.37
832.17	11.27
832.476	11.18
832.783	11.05
833.089	11.03
833.396	11.44
833.702	11.66
834.009	11.77
834.315	11.58
834.621	12.37
834.928	12.15
835.234	12.06
835.54	11.56
835.846	11.66
836.152	11.39
836.458	11.48
836.764	11.59
837.07	11.37
837.376	10.91
837.682	11.09
837.988	11.49
838.293	11.46
838.599	11.6
838.905	11.9
839.211	11.74
839.516	12
839.822	11.35
840.127	11
840.433	11.7
840.738	12.65
841.044	11.45
841.349	11.8
841.654	11.32
841.959	10.98
842.265	10.23
842.57	10.77
842.875	10.42
843.18	11.8
843.485	11.42
843.79	12.11
844.095	11.42
844.4	11.18
844.705	11.68
845.01	11.58
845.315	11.21
845.619	11.08
845.924	10.79
846.229	10.54
846.533	10.26
846.838	8.69
847.142	7.9
847.447	7.67
847.751	7.77
848.056	6.13
848.36	6.14
848.664	6.08
848.969	5.16
849.273	5.88
849.577	3.26
849.881	3.53
850.185	3.63
850.489	5.23
850.794	4.64
851.097	5.24
851.401	4.65
851.705	4.12
852.009	5.3
852.313	6.11
852.617	5.77
852.92	7.82
853.224	9.34
853.528	10.38
853.831	10.4
854.135	10.11
854.438	10.8
854.742	10.16
855.045	11.19
855.349	10.5
855.652	10.55
855.955	10.39
856.259	9.28
856.562	9.13
856.865	7.85
857.168	6.9
857.471	7.37
857.774	9.06
858.077	10.01
858.38	9.32
858.683	9.65
858.986	10.69
859.289	9.81
859.592	8.65
859.894	7.07
860.197	7.82
860.5	7.71
860.802	9.84
861.105	12.85
861.407	11.3
861.71	12.33
862.012	12.78
862.315	13.44
862.617	13.78
862.919	13.77
863.222	13.51
863.524	15.62
863.826	15.47
864.128	15.19
864.43	15.04
864.732	14.51
865.034	14.04
865.336	11.85
865.638	12.84
865.94	12.78
866.242	13.34
866.544	10.24
866.846	8.93
867.147	9.09
867.449	7.02
867.751	9.35
868.052	9.52
868.354	7.06
868.655	9.19
868.957	9.02
869.258	8.29
869.56	7.69
869.861	7.73
870.162	6.57
870.463	6.47
870.765	5.71
871.066	5.54
871.367	4.97
871.668	7.91
871.969	6.62
872.27	6.82
872.571	7.84
872.872	11.01
873.173	10.86
873.473	8.26
873.774	7.51
874.075	5.78
874.376	5.58
874.676	7.7
874.977	3.89
875.277	4.5
875.578	5.41
875.878	5.97
876.179	5.14
876.479	5.46
876.78	3.6
877.08	3.87
877.38	3.87
877.68	3.71
877.981	2.04
878.281	2.21
878.581	2.68
