Data from BA28415_Reflection_00005.txt Node
Date: Mon Nov 18 16:02:15 EST 2019
User: vgr7
Spectrometer: USB2G7710
Scans to average: 3
Trigger mode: 4
Integration Time (sec): 2.000000E-2
Electric dark correction enabled: true
Boxcar width: 10
XAxis mode: Wavelengths
Number of Pixels in Spectrum: 2048
>>>>>Begin Spectral Data<<<<<
177.721	-52.21
178.105	14.8
178.488	-5.51
178.871	2.82
179.254	81.17
179.636	127.17
180.019	-240.12
180.402	75
180.785	-5.83
181.168	-39.18
181.55	-91.09
181.933	26.52
182.316	35.95
182.698	30.25
183.081	21.17
183.463	16.71
183.846	-15.58
184.228	-42.39
184.611	-4.56
184.993	-24.65
185.376	-16.24
185.758	-12.07
186.14	18.95
186.522	27.35
186.904	45.14
187.287	87.18
187.669	140.12
188.051	303.03
188.433	659.57
188.815	1430.94
189.197	-429.18
189.579	-311.04
189.961	-407.52
190.342	-375.88
190.724	-209.42
191.106	-192.81
191.488	-190.06
191.869	-199.93
192.251	-372.75
192.633	-164.91
193.014	-141.59
193.396	-109.72
193.777	-134.2
194.159	-174.31
194.54	-60.48
194.922	-51.09
195.303	-22.63
195.684	-10.12
196.065	14.21
196.447	7.45
196.828	-26.02
197.209	-25.73
197.59	-1018.81
197.971	-180
198.352	37.16
198.733	-900
199.114	-88.05
199.495	-133.42
199.876	245.23
200.257	179.14
200.638	-267.27
201.018	308.48
201.399	572.39
201.78	-783.87
202.16	462.88
202.541	393.32
202.922	307.29
203.302	256.23
203.683	299.07
204.063	308.77
204.444	470.6
204.824	372.07
205.204	352.86
205.585	1413.9
205.965	276.35
206.345	446.83
206.725	411.63
207.106	410.48
207.486	373.82
207.866	478.13
208.246	956.81
208.626	331.29
209.006	1635.85
209.386	969.47
209.766	836.5
210.145	-5040.85
210.525	-5368.09
210.905	-185.91
211.285	-112.36
211.664	-66.77
212.044	-41.02
212.424	-33.79
212.803	-34.51
213.183	-37.51
213.562	-75.45
213.942	-49.33
214.321	-14.05
214.701	-17.34
215.08	-57.95
215.459	-32.68
215.838	-28.3
216.218	-49.06
216.597	-40.59
216.976	-26.85
217.355	-33.44
217.734	-47.43
218.113	-53.14
218.492	-57.04
218.871	-79.84
219.25	-76.74
219.629	-127.12
220.008	-143.99
220.387	-153.24
220.766	-270.75
221.144	-405.42
221.523	-358.19
221.902	1758.23
222.28	-248.71
222.659	-68.69
223.037	-37.13
223.416	-51.8
223.794	-57.74
224.173	-73.63
224.551	-51.48
224.929	-52.64
225.308	-35.6
225.686	-22.45
226.064	-15.12
226.442	-15.39
226.821	-11.22
227.199	-14.24
227.577	-15.3
227.955	-21.06
228.333	-19.55
228.711	-12.94
229.089	-10.91
229.467	-11.76
229.845	-13.15
230.222	-11.26
230.6	-12.28
230.978	-10.92
231.356	-8.16
231.733	-7.39
232.111	-6.06
232.488	-5.77
232.866	-5.89
233.243	-5.03
233.621	-6.38
233.998	-4.63
234.376	-5.51
234.753	-5.65
235.13	-4.94
235.508	-3.14
235.885	-1.91
236.262	-3.11
236.639	-3.55
237.016	-3.92
237.393	-2.12
237.77	0.69
238.147	0.71
238.524	2.27
238.901	2.1
239.278	3.29
239.655	4.34
240.032	4.17
240.409	4.51
240.785	5.06
241.162	5.38
241.539	5.89
241.915	5.84
242.292	5.71
242.668	5.97
243.045	5.74
243.421	5.71
243.798	5.74
244.174	5.95
244.551	6.21
244.927	6.23
245.303	6.25
245.679	5.97
246.056	6.23
246.432	6
246.808	6.1
247.184	5.75
247.56	5.54
247.936	5.74
248.312	5.86
248.688	5.85
249.064	5.88
249.44	5.79
249.815	5.89
250.191	6.07
250.567	5.8
250.943	5.77
251.318	5.89
251.694	5.96
252.069	6.13
252.445	6.15
252.82	6.14
253.196	6.09
253.571	6.45
253.947	6.42
254.322	6.66
254.697	6.41
255.073	6.45
255.448	6.22
255.823	6.15
256.198	5.69
256.573	5.63
256.948	5.4
257.323	5.65
257.698	5.45
258.073	5.27
258.448	5.25
258.823	5.26
259.198	5.03
259.573	4.96
259.948	4.86
260.322	4.74
260.697	4.76
261.072	4.73
261.446	4.78
261.821	4.69
262.195	4.61
262.57	4.75
262.944	4.65
263.319	4.79
263.693	4.81
264.067	4.88
264.442	4.78
264.816	4.97
265.19	4.47
265.564	4.49
265.938	4.47
266.313	4.58
266.687	4.6
267.061	4.96
267.435	5.12
267.809	5.16
268.183	5.24
268.556	5.3
268.93	5.26
269.304	5.08
269.678	5.11
270.051	5.02
270.425	4.92
270.799	5.07
271.172	5.08
271.546	4.99
271.919	5.02
272.293	5.21
272.666	5.21
273.04	5.38
273.413	5.3
273.787	5.38
274.16	5.24
274.533	5.19
274.906	4.96
275.279	4.84
275.653	4.94
276.026	4.86
276.399	4.87
276.772	4.73
277.145	4.66
277.518	4.75
277.891	4.9
278.263	4.92
278.636	4.94
279.009	4.91
279.382	4.98
279.755	5.04
280.127	5.11
280.5	5.07
280.872	5.16
281.245	5.2
281.617	5.29
281.99	5.5
282.362	5.73
282.735	5.63
283.107	5.5
283.479	5.38
283.852	5.51
284.224	5.4
284.596	5.44
284.968	5.55
285.34	5.54
285.713	5.53
286.085	5.6
286.457	5.61
286.829	5.62
287.201	5.76
287.572	5.65
287.944	5.54
288.316	5.44
288.688	5.36
289.06	5.42
289.431	5.31
289.803	5.15
290.175	5.12
290.546	5.23
290.918	5.37
291.289	5.34
291.661	5.28
292.032	5.4
292.403	5.53
292.775	5.56
293.146	5.49
293.517	5.48
293.889	5.46
294.26	5.51
294.631	5.46
295.002	5.35
295.373	5.52
295.744	5.51
296.115	5.6
296.486	5.67
296.857	5.62
297.228	5.7
297.599	5.71
297.97	5.63
298.34	5.66
298.711	5.84
299.082	5.91
299.452	5.96
299.823	5.97
300.194	6.01
300.564	6
300.935	6.19
301.305	6.08
301.676	6.11
302.046	6.08
302.416	6.22
302.787	6.19
303.157	6.08
303.527	6.17
303.897	6.09
304.267	6.17
304.637	6.29
305.008	6.36
305.378	6.51
305.748	6.57
306.117	6.56
306.487	6.43
306.857	6.41
307.227	6.35
307.597	6.2
307.967	6.12
308.336	6.11
308.706	6
309.076	6.1
309.445	6.09
309.815	6.1
310.184	5.9
310.554	6
310.923	6
311.293	5.91
311.662	5.91
312.031	5.81
312.401	5.79
312.77	5.79
313.139	5.87
313.508	5.91
313.877	5.89
314.246	5.9
314.616	5.87
314.985	5.87
315.353	5.91
315.722	6
316.091	5.97
316.46	5.98
316.829	5.86
317.198	5.94
317.567	5.96
317.935	6.11
318.304	6.11
318.672	6.13
319.041	6.25
319.41	6.29
319.778	6.42
320.147	6.44
320.515	6.36
320.883	6.2
321.252	6.13
321.62	6.16
321.988	6.13
322.357	6.22
322.725	6.28
323.093	6.42
323.461	6.48
323.829	6.51
324.197	6.57
324.565	6.71
324.933	6.59
325.301	6.46
325.669	6.5
326.037	6.45
326.405	6.48
326.772	6.47
327.14	6.53
327.508	6.54
327.875	6.55
328.243	6.58
328.61	6.59
328.978	6.63
329.346	6.8
329.713	6.81
330.08	6.78
330.448	6.72
330.815	6.62
331.182	6.55
331.55	6.44
331.917	6.44
332.284	6.49
332.651	6.49
333.018	6.66
333.385	6.69
333.752	6.83
334.119	6.93
334.486	6.87
334.853	6.86
335.22	6.79
335.587	6.77
335.954	6.82
336.32	6.95
336.687	6.94
337.054	6.82
337.42	6.89
337.787	6.92
338.153	6.88
338.52	6.95
338.886	6.9
339.253	6.86
339.619	6.89
339.986	6.86
340.352	7
340.718	6.86
341.084	6.68
341.451	6.67
341.817	6.63
342.183	6.66
342.549	6.66
342.915	6.61
343.281	6.6
343.647	6.59
344.013	6.5
344.379	6.48
344.745	6.51
345.11	6.47
345.476	6.47
345.842	6.53
346.208	6.47
346.573	6.48
346.939	6.65
347.304	6.56
347.67	6.46
348.035	6.47
348.401	6.56
348.766	6.58
349.132	6.5
349.497	6.46
349.862	6.48
350.228	6.49
350.593	6.51
350.958	6.5
351.323	6.51
351.688	6.56
352.053	6.67
352.418	6.7
352.783	6.67
353.148	6.69
353.513	6.76
353.878	6.83
354.243	6.88
354.608	6.89
354.972	6.89
355.337	7.05
355.702	7.06
356.066	7.01
356.431	7.1
356.795	7.12
357.16	7.11
357.524	7.02
357.889	7
358.253	7.05
358.618	7.1
358.982	7.09
359.346	7.09
359.71	7.02
360.075	7.01
360.439	7.04
360.803	7.04
361.167	6.97
361.531	6.97
361.895	6.91
362.259	6.88
362.623	6.85
362.987	6.75
363.351	6.68
363.714	6.73
364.078	6.7
364.442	6.68
364.806	6.72
365.169	6.78
365.533	6.82
365.896	6.84
366.26	6.84
366.623	6.79
366.987	6.77
367.35	6.78
367.714	6.79
368.077	6.81
368.44	6.79
368.803	6.8
369.167	6.76
369.53	6.79
369.893	6.85
370.256	6.94
370.619	6.99
370.982	7
371.345	6.96
371.708	7.01
372.071	7.03
372.434	6.98
372.797	6.95
373.159	6.95
373.522	6.96
373.885	6.93
374.247	7
374.61	7.07
374.973	7.01
375.335	7.05
375.698	7.05
376.06	7.08
376.423	7.1
376.785	7.18
377.147	7.25
377.51	7.17
377.872	7.17
378.234	7.17
378.596	7.19
378.958	7.14
379.321	7.16
379.683	7.14
380.045	7.17
380.407	7.21
380.769	7.17
381.13	7.17
381.492	7.18
381.854	7.15
382.216	7.12
382.578	7.16
382.939	7.13
383.301	7.1
383.663	7.09
384.024	7.12
384.386	7.13
384.747	7.11
385.109	7.16
385.47	7.16
385.832	7.16
386.193	7.2
386.554	7.27
386.916	7.28
387.277	7.3
387.638	7.31
387.999	7.3
388.36	7.35
388.721	7.37
389.082	7.41
389.443	7.39
389.804	7.35
390.165	7.38
390.526	7.41
390.887	7.41
391.248	7.44
391.609	7.45
391.969	7.45
392.33	7.41
392.691	7.41
393.051	7.4
393.412	7.4
393.772	7.36
394.133	7.34
394.493	7.31
394.854	7.3
395.214	7.3
395.574	7.28
395.935	7.28
396.295	7.28
396.655	7.22
397.015	7.22
397.376	7.24
397.736	7.22
398.096	7.19
398.456	7.25
398.816	7.24
399.176	7.21
399.535	7.16
399.895	7.16
400.255	7.15
400.615	7.14
400.975	7.14
401.334	7.15
401.694	7.15
402.054	7.17
402.413	7.2
402.773	7.16
403.132	7.16
403.492	7.17
403.851	7.14
404.211	7.15
404.57	7.18
404.929	7.17
405.288	7.16
405.648	7.15
406.007	7.09
406.366	7.12
406.725	7.15
407.084	7.18
407.443	7.2
407.802	7.2
408.161	7.22
408.52	7.22
408.879	7.22
409.238	7.24
409.596	7.25
409.955	7.21
410.314	7.25
410.673	7.25
411.031	7.25
411.39	7.24
411.748	7.25
412.107	7.24
412.465	7.25
412.824	7.26
413.182	7.26
413.54	7.28
413.899	7.24
414.257	7.22
414.615	7.2
414.974	7.21
415.332	7.18
415.69	7.18
416.048	7.17
416.406	7.18
416.764	7.17
417.122	7.16
417.48	7.15
417.838	7.15
418.195	7.16
418.553	7.14
418.911	7.17
419.269	7.17
419.626	7.17
419.984	7.18
420.342	7.18
420.699	7.18
421.057	7.18
421.414	7.18
421.772	7.17
422.129	7.15
422.486	7.15
422.844	7.16
423.201	7.13
423.558	7.14
423.915	7.14
424.273	7.14
424.63	7.14
424.987	7.14
425.344	7.15
425.701	7.13
426.058	7.14
426.415	7.11
426.772	7.09
427.128	7.09
427.485	7.07
427.842	7.05
428.199	7.06
428.555	7.03
428.912	7.01
429.269	7.03
429.625	7.05
429.982	7.03
430.338	7.03
430.695	7.04
431.051	7.02
431.407	7.03
431.764	7.02
432.12	6.98
432.476	6.98
432.832	6.96
433.189	6.97
433.545	6.96
433.901	6.96
434.257	6.97
434.613	6.95
434.969	6.96
435.325	6.96
435.681	6.96
436.036	6.99
436.392	7.01
436.748	7
437.104	7.01
437.459	7.02
437.815	7.02
438.171	7.01
438.526	7.04
438.882	7.04
439.237	7.05
439.593	7.09
439.948	7.09
440.304	7.07
440.659	7.07
441.014	7.07
441.369	7.06
441.725	7.06
442.08	7.08
442.435	7.08
442.79	7.08
443.145	7.06
443.5	7.07
443.855	7.07
444.21	7.08
444.565	7.09
444.92	7.09
445.275	7.07
445.629	7.07
445.984	7.06
446.339	7.04
446.693	7.03
447.048	7.01
447.403	7.01
447.757	7.01
448.112	7.02
448.466	7
448.82	7.01
449.175	7.01
449.529	6.99
449.883	6.98
450.238	6.97
450.592	6.99
450.946	6.97
451.3	6.97
451.654	6.95
452.008	6.91
452.362	6.89
452.716	6.91
453.07	6.89
453.424	6.87
453.778	6.86
454.132	6.86
454.486	6.86
454.839	6.84
455.193	6.85
455.547	6.84
455.9	6.88
456.254	6.87
456.607	6.86
456.961	6.86
457.314	6.87
457.668	6.9
458.021	6.88
458.375	6.87
458.728	6.87
459.081	6.87
459.434	6.89
459.787	6.92
460.141	6.9
460.494	6.91
460.847	6.93
461.2	6.94
461.553	6.94
461.906	6.95
462.259	6.98
462.611	6.98
462.964	7
463.317	6.98
463.67	6.97
464.022	7.01
464.375	7.01
464.728	7.02
465.08	7
465.433	7.02
465.785	7.03
466.138	7.02
466.49	7.03
466.843	7.04
467.195	7.04
467.547	7.08
467.899	7.08
468.252	7.08
468.604	7.07
468.956	7.09
469.308	7.09
469.66	7.09
470.012	7.1
470.364	7.11
470.716	7.12
471.068	7.15
471.42	7.14
471.772	7.16
472.123	7.17
472.475	7.2
472.827	7.18
473.178	7.18
473.53	7.19
473.882	7.18
474.233	7.18
474.585	7.13
474.936	7.11
475.288	7.11
475.639	7.12
475.99	7.16
476.342	7.15
476.693	7.14
477.044	7.15
477.395	7.14
477.746	7.13
478.097	7.14
478.448	7.14
478.8	7.14
479.15	7.13
479.501	7.12
479.852	7.13
480.203	7.17
480.554	7.19
480.905	7.21
481.255	7.22
481.606	7.27
481.957	7.3
482.307	7.34
482.658	7.35
483.009	7.35
483.359	7.35
483.709	7.37
484.06	7.38
484.41	7.39
484.761	7.4
485.111	7.4
485.461	7.4
485.811	7.4
486.162	7.39
486.512	7.4
486.862	7.41
487.212	7.41
487.562	7.4
487.912	7.39
488.262	7.39
488.612	7.39
488.961	7.37
489.311	7.36
489.661	7.34
490.011	7.35
490.36	7.35
490.71	7.35
491.06	7.35
491.409	7.35
491.759	7.34
492.108	7.34
492.458	7.36
492.807	7.36
493.157	7.37
493.506	7.4
493.855	7.4
494.204	7.39
494.554	7.41
494.903	7.42
495.252	7.44
495.601	7.46
495.95	7.48
496.299	7.48
496.648	7.5
496.997	7.52
497.346	7.52
497.695	7.52
498.043	7.53
498.392	7.52
498.741	7.54
499.09	7.54
499.438	7.55
499.787	7.52
500.135	7.55
500.484	7.55
500.832	7.55
501.181	7.58
501.529	7.6
501.878	7.59
502.226	7.61
502.574	7.59
502.923	7.58
503.271	7.58
503.619	7.61
503.967	7.62
504.315	7.62
504.663	7.62
505.011	7.65
505.359	7.67
505.707	7.68
506.055	7.68
506.403	7.71
506.751	7.73
507.098	7.76
507.446	7.76
507.794	7.77
508.141	7.79
508.489	7.81
508.837	7.84
509.184	7.85
509.531	7.88
509.879	7.93
510.226	7.95
510.574	7.97
510.921	7.96
511.268	7.95
511.616	7.96
511.963	7.99
512.31	7.97
512.657	7.97
513.004	7.99
513.351	8
513.698	8.03
514.045	8.02
514.392	8.03
514.739	8.05
515.086	8.06
515.432	8.04
515.779	8.03
516.126	8.03
516.473	8.05
516.819	8.05
517.166	8.03
517.512	8.04
517.859	8.06
518.205	8.05
518.552	8.07
518.898	8.06
519.245	8.05
519.591	8.08
519.937	8.09
520.283	8.09
520.629	8.09
520.976	8.09
521.322	8.1
521.668	8.1
522.014	8.12
522.36	8.14
522.706	8.16
523.052	8.18
523.398	8.21
523.743	8.23
524.089	8.25
524.435	8.27
524.781	8.3
525.126	8.32
525.472	8.35
525.817	8.37
526.163	8.39
526.509	8.42
526.854	8.44
527.199	8.46
527.545	8.46
527.89	8.48
528.235	8.5
528.581	8.52
528.926	8.54
529.271	8.55
529.616	8.55
529.961	8.56
530.306	8.57
530.651	8.57
530.996	8.57
531.341	8.58
531.686	8.58
532.031	8.58
532.376	8.58
532.721	8.59
533.065	8.59
533.41	8.6
533.755	8.61
534.099	8.62
534.444	8.61
534.788	8.61
535.133	8.6
535.477	8.59
535.822	8.59
536.166	8.59
536.51	8.59
536.855	8.6
537.199	8.61
537.543	8.6
537.887	8.6
538.231	8.62
538.576	8.61
538.92	8.62
539.264	8.62
539.608	8.62
539.951	8.62
540.295	8.63
540.639	8.64
540.983	8.65
541.327	8.62
541.671	8.63
542.014	8.63
542.358	8.66
542.701	8.66
543.045	8.67
543.389	8.67
543.732	8.67
544.075	8.69
544.419	8.69
544.762	8.69
545.105	8.71
545.449	8.7
545.792	8.72
546.135	8.71
546.478	8.71
546.821	8.71
547.165	8.72
547.508	8.74
547.851	8.74
548.194	8.71
548.536	8.71
548.879	8.71
549.222	8.72
549.565	8.72
549.908	8.73
550.25	8.7
550.593	8.67
550.936	8.67
551.278	8.64
551.621	8.68
551.963	8.69
552.306	8.67
552.648	8.67
552.991	8.66
553.333	8.68
553.675	8.69
554.017	8.7
554.36	8.71
554.702	8.72
555.044	8.7
555.386	8.73
555.728	8.77
556.07	8.79
556.412	8.78
556.754	8.77
557.096	8.78
557.438	8.84
557.78	8.88
558.121	8.87
558.463	8.85
558.805	8.84
559.147	8.83
559.488	8.83
559.83	8.85
560.171	8.84
560.513	8.89
560.854	8.89
561.196	8.88
561.537	8.88
561.878	8.84
562.22	8.86
562.561	8.84
562.902	8.83
563.243	8.82
563.584	8.84
563.925	8.88
564.266	8.88
564.607	8.86
564.948	8.85
565.289	8.88
565.63	8.9
565.971	8.87
566.312	8.85
566.653	8.88
566.993	8.89
567.334	8.92
567.675	8.89
568.015	8.88
568.356	8.92
568.696	8.91
569.037	8.92
569.377	8.91
569.718	8.93
570.058	8.94
570.398	8.95
570.739	8.94
571.079	8.93
571.419	8.93
571.759	8.94
572.099	8.96
572.439	8.96
572.779	8.94
573.119	8.99
573.459	9.03
573.799	9.06
574.139	9.03
574.479	8.99
574.819	8.99
575.158	9
575.498	8.97
575.838	8.97
576.177	8.95
576.517	8.97
576.856	8.98
577.196	8.98
577.535	8.98
577.875	8.96
578.214	8.94
578.553	8.94
578.893	8.93
579.232	8.9
579.571	8.9
579.91	8.94
580.25	8.89
580.589	8.88
580.928	8.83
581.267	8.87
581.606	8.87
581.945	8.87
582.283	8.85
582.622	8.9
582.961	8.89
583.3	8.93
583.639	8.94
583.977	8.94
584.316	8.91
584.654	8.93
584.993	8.95
585.332	8.99
585.67	9.01
586.008	9.01
586.347	9.05
586.685	9.03
587.024	9.02
587.362	9.04
587.7	9.07
588.038	9.07
588.376	9.05
588.715	9.05
589.053	9.08
589.391	9.11
589.729	9.09
590.067	9.13
590.404	9.12
590.742	9.11
591.08	9.09
591.418	9.14
591.756	9.18
592.093	9.2
592.431	9.2
592.769	9.14
593.106	9.14
593.444	9.09
593.781	9.11
594.119	9.14
594.456	9.14
594.793	9.13
595.131	9.15
595.468	9.18
595.805	9.21
596.143	9.19
596.48	9.17
596.817	9.19
597.154	9.21
597.491	9.23
597.828	9.25
598.165	9.26
598.502	9.25
598.839	9.19
599.176	9.18
599.512	9.16
599.849	9.2
600.186	9.26
600.523	9.32
600.859	9.34
601.196	9.33
601.532	9.34
601.869	9.34
602.205	9.38
602.542	9.41
602.878	9.42
603.215	9.42
603.551	9.45
603.887	9.44
604.223	9.44
604.56	9.44
604.896	9.46
605.232	9.46
605.568	9.46
605.904	9.47
606.24	9.5
606.576	9.5
606.912	9.52
607.248	9.5
607.583	9.51
607.919	9.47
608.255	9.47
608.591	9.49
608.926	9.52
609.262	9.53
609.597	9.48
609.933	9.46
610.268	9.48
610.604	9.5
610.939	9.52
611.275	9.54
611.61	9.52
611.945	9.5
612.281	9.51
612.616	9.54
612.951	9.58
613.286	9.57
613.621	9.61
613.956	9.61
614.291	9.61
614.626	9.59
614.961	9.57
615.296	9.58
615.631	9.59
615.966	9.57
616.3	9.52
616.635	9.57
616.97	9.61
617.304	9.57
617.639	9.55
617.973	9.5
618.308	9.49
618.642	9.49
618.977	9.49
619.311	9.52
619.646	9.49
619.98	9.46
620.314	9.45
620.648	9.41
620.983	9.45
621.317	9.48
621.651	9.45
621.985	9.53
622.319	9.53
622.653	9.55
622.987	9.56
623.321	9.61
623.655	9.56
623.988	9.6
624.322	9.62
624.656	9.64
624.99	9.64
625.323	9.69
625.657	9.72
625.99	9.71
626.324	9.67
626.657	9.67
626.991	9.67
627.324	9.69
627.658	9.7
627.991	9.72
628.324	9.72
628.657	9.79
628.991	9.79
629.324	9.78
629.657	9.83
629.99	9.87
630.323	9.9
630.656	9.95
630.989	9.94
631.322	9.95
631.655	9.97
631.987	10.02
632.32	9.98
632.653	9.93
632.986	9.95
633.318	9.95
633.651	9.99
633.984	10.02
634.316	10.02
634.649	10.04
634.981	10
635.313	9.98
635.646	9.97
635.978	9.99
636.31	10
636.643	9.94
636.975	9.92
637.307	9.81
637.639	9.79
637.971	9.79
638.303	9.79
638.635	9.75
638.967	9.77
639.299	9.81
639.631	9.8
639.963	9.75
640.295	9.8
640.626	9.75
640.958	9.76
641.29	9.81
641.621	9.76
641.953	9.76
642.285	9.74
642.616	9.77
642.948	9.69
643.279	9.65
643.61	9.61
643.942	9.58
644.273	9.67
644.604	9.66
644.936	9.64
645.267	9.64
645.598	9.64
645.929	9.65
646.26	9.6
646.591	9.67
646.922	9.66
647.253	9.66
647.584	9.67
647.915	9.68
648.245	9.62
648.576	9.69
648.907	9.68
649.238	9.66
649.568	9.6
649.899	9.68
650.229	9.73
650.56	9.73
650.89	9.75
651.221	9.7
651.551	9.67
651.882	9.7
652.212	9.71
652.542	9.7
652.872	9.68
653.203	9.73
653.533	9.75
653.863	9.76
654.193	9.82
654.523	9.85
654.853	9.83
655.183	9.82
655.513	9.79
655.843	9.8
656.172	9.9
656.502	9.96
656.832	9.88
657.162	9.94
657.491	9.98
657.821	10.03
658.15	10.05
658.48	10.13
658.809	10.12
659.139	10.13
659.468	10.19
659.798	10.19
660.127	10.21
660.456	10.23
660.785	10.26
661.115	10.2
661.444	10.21
661.773	10.21
662.102	10.27
662.431	10.36
662.76	10.41
663.089	10.47
663.418	10.43
663.747	10.46
664.076	10.46
664.404	10.45
664.733	10.44
665.062	10.4
665.39	10.37
665.719	10.38
666.048	10.45
666.376	10.37
666.705	10.41
667.033	10.34
667.362	10.35
667.69	10.37
668.018	10.42
668.347	10.42
668.675	10.45
669.003	10.5
669.331	10.47
669.659	10.41
669.987	10.3
670.315	10.28
670.643	10.36
670.971	10.33
671.299	10.37
671.627	10.41
671.955	10.46
672.283	10.47
672.61	10.53
672.938	10.53
673.266	10.61
673.593	10.73
673.921	10.74
674.249	10.76
674.576	10.74
674.904	10.69
675.231	10.65
675.558	10.63
675.886	10.56
676.213	10.58
676.54	10.67
676.867	10.69
677.195	10.66
677.522	10.71
677.849	10.73
678.176	10.69
678.503	10.63
678.83	10.62
679.157	10.55
679.484	10.46
679.81	10.5
680.137	10.48
680.464	10.44
680.791	10.48
681.117	10.42
681.444	10.4
681.771	10.47
682.097	10.48
682.424	10.58
682.75	10.55
683.077	10.53
683.403	10.49
683.729	10.47
684.056	10.56
684.382	10.51
684.708	10.46
685.034	10.47
685.36	10.54
685.686	10.58
686.012	10.64
686.339	10.7
686.664	10.67
686.99	10.71
687.316	10.57
687.642	10.55
687.968	10.63
688.294	10.79
688.619	10.84
688.945	10.9
689.271	10.74
689.596	10.73
689.922	10.66
690.247	10.74
690.573	10.82
690.898	10.84
691.224	10.84
691.549	10.89
691.874	10.89
692.2	10.83
692.525	10.8
692.85	10.8
693.175	10.88
693.5	10.83
693.825	10.83
694.15	10.87
694.475	10.82
694.8	10.82
695.125	10.75
695.45	10.65
695.775	10.67
696.099	10.75
696.424	10.78
696.749	10.8
697.073	10.68
697.398	10.69
697.723	10.62
698.047	10.64
698.372	10.69
698.696	10.69
699.02	10.67
699.345	10.62
699.669	10.67
699.993	10.6
700.318	10.57
700.642	10.6
700.966	10.61
701.29	10.69
701.614	10.73
701.938	10.76
702.262	10.88
702.586	10.9
702.91	10.76
703.234	10.76
703.557	10.87
703.881	10.96
704.205	10.96
704.529	10.96
704.852	10.97
705.176	10.91
705.499	11.07
705.823	11.16
706.146	11.26
706.47	11.25
706.793	11.25
707.117	11.37
707.44	11.28
707.763	11.3
708.086	11.24
708.409	11.17
708.733	11.06
709.056	11
709.379	11.16
709.702	11.42
710.025	11.54
710.348	11.4
710.671	11.36
710.993	11.37
711.316	11.46
711.639	11.43
711.962	11.41
712.284	11.37
712.607	11.3
712.93	11.41
713.252	11.46
713.575	11.57
713.897	11.5
714.22	11.46
714.542	11.52
714.864	11.67
715.187	11.56
715.509	11.66
715.831	11.75
716.153	11.62
716.475	11.58
716.798	11.51
717.12	11.68
717.442	11.71
717.764	11.64
718.085	11.61
718.407	11.73
718.729	11.74
719.051	11.73
719.373	11.75
719.695	11.43
720.016	11.41
720.338	11.48
720.659	11.55
720.981	11.6
721.302	11.57
721.624	11.27
721.945	11.45
722.267	11.47
722.588	11.35
722.909	11.29
723.231	11.3
723.552	11.3
723.873	11.26
724.194	11.29
724.515	11.34
724.836	11.28
725.157	11.24
725.478	11.21
725.799	11.11
726.12	11.05
726.441	11.21
726.762	11.31
727.083	11.28
727.403	11.27
727.724	11.41
728.045	11.52
728.365	11.74
728.686	11.5
729.006	11.55
729.327	11.51
729.647	11.55
729.967	11.47
730.288	11.55
730.608	11.6
730.928	11.6
731.249	11.58
731.569	11.83
731.889	11.86
732.209	11.91
732.529	12.02
732.849	12.09
733.169	12.16
733.489	12.17
733.809	12.13
734.129	12.07
734.448	11.99
734.768	11.81
735.088	11.7
735.408	11.9
735.727	11.96
736.047	11.95
736.366	11.89
736.686	11.98
737.005	12.13
737.325	12.15
737.644	12.03
737.963	12.1
738.283	11.7
738.602	11.82
738.921	11.94
739.24	11.86
739.56	12.01
739.879	11.98
740.198	11.84
740.517	11.77
740.836	11.9
741.155	11.93
741.473	12.07
741.792	12.23
742.111	12.44
742.43	12.25
742.748	12.33
743.067	12.34
743.386	12.45
743.704	12.23
744.023	12.26
744.341	12.3
744.66	12.59
744.978	12.66
745.297	12.55
745.615	12.68
745.933	12.89
746.252	12.84
746.57	12.88
746.888	12.99
747.206	12.99
747.524	13.13
747.842	13.28
748.16	13.42
748.478	13.45
748.796	13.41
749.114	13.47
749.432	13.18
749.749	13.26
750.067	13.06
750.385	13.08
750.703	12.95
751.02	12.97
751.338	12.56
751.655	12.62
751.973	12.66
752.29	12.57
752.608	12.42
752.925	12.2
753.242	12.15
753.56	12.09
753.877	12.13
754.194	11.98
754.511	11.95
754.828	11.74
755.145	11.45
755.462	11.29
755.779	11.4
756.096	11.56
756.413	11.63
756.73	11.75
757.047	11.77
757.364	11.81
757.68	11.78
757.997	11.69
758.314	11.79
758.63	11.63
758.947	11.54
759.264	11.4
759.58	11.55
759.896	11.76
760.213	11.81
760.529	11.95
760.846	11.83
761.162	11.74
761.478	11.71
761.794	11.67
762.11	11.6
762.426	11.53
762.743	11.92
763.059	11.86
763.375	11.85
763.69	12.11
764.006	12.21
764.322	12.46
764.638	12.78
764.954	12.88
765.27	12.79
765.585	12.76
765.901	12.85
766.216	12.9
766.532	12.75
766.848	12.91
767.163	13.14
767.478	13.26
767.794	13.38
768.109	13.63
768.424	13.96
768.74	14.18
769.055	14.35
769.37	14.12
769.685	14.27
770	14.31
770.315	14.11
770.63	14.04
770.945	14.01
771.26	13.88
771.575	13.85
771.89	13.86
772.205	13.83
772.52	13.91
772.834	13.83
773.149	14.08
773.464	14
773.778	13.65
774.093	13.54
774.407	13.57
774.722	13.62
775.036	13.7
775.351	13.98
775.665	13.66
775.979	13.66
776.293	13.38
776.608	13.49
776.922	13.21
777.236	13.25
777.55	13.04
777.864	12.87
778.178	13.01
778.492	13.34
778.806	13.46
779.12	13.37
779.434	13.69
779.747	13.72
780.061	13.55
780.375	13.63
780.689	14.05
781.002	14.29
781.316	13.95
781.629	13.97
781.943	13.7
782.256	13.94
782.57	13.95
782.883	14.02
783.196	13.88
783.51	14.05
783.823	13.88
784.136	14.17
784.449	14.28
784.762	14.37
785.075	14.57
785.388	14.8
785.701	15.27
786.014	14.81
786.327	15.04
786.64	15.45
786.953	15.75
787.266	15.36
787.578	15.18
787.891	15.08
788.204	15.04
788.516	15.36
788.829	15.26
789.141	15.18
789.454	15.23
789.766	15.36
790.079	15.45
790.391	15.39
790.703	15.61
791.016	15.72
791.328	15.51
791.64	15.45
791.952	15.65
792.264	15.13
792.576	15.2
792.888	14.75
793.2	14.59
793.512	14.07
793.824	14.05
794.136	14.03
794.448	14.3
794.76	14.23
795.071	14.22
795.383	14.47
795.695	14.44
796.006	14.67
796.318	14.56
796.629	14.72
796.941	14.24
797.252	13.98
797.564	13.96
797.875	14.1
798.186	13.57
798.497	13.18
798.809	13.68
799.12	13.87
799.431	13.97
799.742	13.53
800.053	13.81
800.364	13.93
800.675	13.6
800.986	14.06
801.297	13.83
801.608	13.51
801.918	13.5
802.229	13.88
802.54	14.21
802.851	14.44
803.161	14.17
803.472	15.16
803.782	14.85
804.093	15.42
804.403	15.43
804.714	16.11
805.024	16.15
805.334	15.56
805.645	15.63
805.955	15.72
806.265	16.27
806.575	16.13
806.885	16.2
807.195	16.37
807.505	15.83
807.815	15.92
808.125	15.71
808.435	15.12
808.745	14.97
809.055	14.75
809.365	14.56
809.674	14.31
809.984	14.28
810.294	15.06
810.603	14.97
810.913	14.99
811.222	15.01
811.532	15.1
811.841	16.07
812.151	16.56
812.46	16.65
812.769	16.54
813.079	16.23
813.388	16.64
813.697	16.75
814.006	16.9
814.315	17.31
814.624	17.25
814.933	18.22
815.242	18.69
815.551	18.76
815.86	18.83
816.169	18.65
816.478	18.55
816.786	17.69
817.095	17.07
817.404	17.84
817.712	17.57
818.021	17.71
818.33	17.2
818.638	16.58
818.947	16.95
819.255	17.12
819.563	17.15
819.872	16.63
820.18	16.39
820.488	16.25
820.796	16.43
821.105	16.87
821.413	16.68
821.721	16.48
822.029	16.52
822.337	16.63
822.645	16.74
822.953	16.92
823.26	16.99
823.568	16.98
823.876	16.72
824.184	16.81
824.491	16.82
824.799	16.85
825.107	16.92
825.414	16.83
825.722	16.75
826.029	16.88
826.337	17.14
826.644	17.39
826.951	17.55
827.259	17.42
827.566	17.18
827.873	17.33
828.18	17.49
828.488	17.36
828.795	17.35
829.102	17.37
829.409	17.33
829.716	17.19
830.023	17.3
830.329	17.39
830.636	17.51
830.943	17.54
831.25	17.57
831.557	17.7
831.863	17.15
832.17	17.12
832.476	17.06
832.783	16.74
833.089	16.62
833.396	16.61
833.702	17.02
834.009	17.06
834.315	16.85
834.621	16.64
834.928	17.18
835.234	16.88
835.54	17.03
835.846	16.66
836.152	17.02
836.458	17.14
836.764	16.87
837.07	16.44
837.376	16.13
837.682	16.3
837.988	15.92
838.293	16.33
838.599	16.75
838.905	16.14
839.211	16.17
839.516	16.17
839.822	15.87
840.127	15.54
840.433	15.25
840.738	15.56
841.044	16.02
841.349	15.93
841.654	15.95
841.959	16.21
842.265	16.64
842.57	16.9
842.875	16.59
843.18	17.83
843.485	17.69
843.79	17.59
844.095	17.41
844.4	18.44
844.705	18.49
845.01	17.43
845.315	18.52
845.619	19.2
845.924	18.37
846.229	18.86
846.533	17.93
846.838	17.7
847.142	16.9
847.447	15.62
847.751	15.01
848.056	16.13
848.36	16.46
848.664	15.09
848.969	13.71
849.273	12.71
849.577	11.96
849.881	10.75
850.185	11.12
850.489	9.63
850.794	8.68
851.097	9.27
851.401	10.41
851.705	11.31
852.009	9.7
852.313	11.14
852.617	11.08
852.92	12.22
853.224	12.8
853.528	13.33
853.831	13.33
854.135	12.55
854.438	11.48
854.742	9.79
855.045	10
855.349	11.07
855.652	13.24
855.955	12.61
856.259	14.64
856.562	15.3
856.865	16.15
857.168	14.96
857.471	14.45
857.774	15.57
858.077	13.6
858.38	14.96
858.683	14.27
858.986	14.83
859.289	15.68
859.592	15.85
859.894	16.34
860.197	18.49
860.5	19.51
860.802	18.92
861.105	19.01
861.407	19.4
861.71	17.48
862.012	16.26
862.315	16.88
862.617	17.44
862.919	17.63
863.222	18.15
863.524	19.82
863.826	19.62
864.128	17.68
864.43	16.43
864.732	15.88
865.034	16.03
865.336	15.38
865.638	12.08
865.94	11.01
866.242	10.45
866.544	7.32
866.846	6.47
867.147	8.48
867.449	9.73
867.751	11.03
868.052	14.4
868.354	16.07
868.655	15.87
868.957	15.22
869.258	14.1
869.56	13.81
869.861	15.42
870.162	17.85
870.463	18.98
870.765	21.42
871.066	20.65
871.367	19.94
871.668	20.48
871.969	21.22
872.27	22.73
872.571	21.03
872.872	23.64
873.173	23.76
873.473	25.18
873.774	26.45
874.075	25.57
874.376	24.71
874.676	24.27
874.977	22.85
875.277	22.4
875.578	22.52
875.878	22.78
876.179	20.93
876.479	19.53
876.78	18.85
877.08	18.68
877.38	19.47
877.68	20.68
877.981	19.72
878.281	21.51
878.581	21.78
