Data from BA28469_Reflection_00005.txt Node
Date: Mon Nov 18 15:17:54 EST 2019
User: vgr7
Spectrometer: USB2G7710
Scans to average: 3
Trigger mode: 4
Integration Time (sec): 2.000000E-2
Electric dark correction enabled: true
Boxcar width: 10
XAxis mode: Wavelengths
Number of Pixels in Spectrum: 2048
>>>>>Begin Spectral Data<<<<<
177.721	54.28
178.105	-566.67
178.488	7.43
178.871	-17.44
179.254	8.69
179.636	8433.33
180.019	-204.7
180.402	173.68
180.785	-31.4
181.168	-45.72
181.55	-289.67
181.933	-17.95
182.316	72.39
182.698	86.38
183.081	195.42
183.463	182.41
183.846	161.32
184.228	386.14
184.611	108.48
184.993	7544.44
185.376	-486.5
185.758	-293.94
186.14	-270.2
186.522	-962.89
186.904	-180.35
187.287	226.84
187.669	-57.17
188.051	-117
188.433	-30.87
188.815	9.55
189.197	-9.18
189.579	-15.29
189.961	-19.9
190.342	0.47
190.724	9.31
191.106	20.61
191.488	17.41
191.869	24.3
192.251	29.68
192.633	20.47
193.014	9.74
193.396	14
193.777	13.84
194.159	25.65
194.54	15.64
194.922	17.49
195.303	6.91
195.684	-3.1
196.065	7.93
196.447	-11.93
196.828	-27.82
197.209	-13.94
197.59	-23.58
197.971	-34.96
198.352	-11.52
198.733	4.12
199.114	6.07
199.495	18.77
199.876	-5.17
200.257	-22.84
200.638	-15.15
201.018	-30.63
201.399	-36.29
201.78	-22.81
202.16	-59.81
202.541	-101.09
202.922	-152.31
203.302	-181.37
203.683	-137.73
204.063	-142.16
204.444	-84.2
204.824	-87.08
205.204	-77.97
205.585	-46.77
205.965	-34.53
206.345	-65.02
206.725	-79.3
207.106	-139.03
207.486	-135.96
207.866	-129.87
208.246	-100.68
208.626	-107.29
209.006	-69.83
209.386	-73.14
209.766	-44.74
210.145	-20.58
210.525	-15.66
210.905	-19.34
211.285	-7.86
211.664	6.3
212.044	1.89
212.424	-2.9
212.803	-21.82
213.183	-16.3
213.562	-12.61
213.942	-7.53
214.321	-3
214.701	5.02
215.08	9.91
215.459	9.5
215.838	20.18
216.218	20.71
216.597	13.52
216.976	13.52
217.355	13.43
217.734	11.14
218.113	11.41
218.492	10.26
218.871	11.34
219.25	14.98
219.629	-3.34
220.008	10.48
220.387	12.12
220.766	30.35
221.144	10.51
221.523	3.67
221.902	-2.96
222.28	-3.64
222.659	1.29
223.037	1.3
223.416	-7.85
223.794	-24.82
224.173	-26.34
224.551	-7.46
224.929	-6.56
225.308	-6.48
225.686	-8.71
226.064	-1.67
226.442	0.24
226.821	5.63
227.199	1.61
227.577	5.14
227.955	1.34
228.333	0.55
228.711	0.58
229.089	4.72
229.467	0.68
229.845	-0.37
230.222	-0.67
230.6	-0.72
230.978	0.14
231.356	2.03
231.733	1.83
232.111	1.38
232.488	-0.33
232.866	-0.52
233.243	0.38
233.621	0.47
233.998	-0.79
234.376	-0.76
234.753	-2.31
235.13	-2.18
235.508	-1.58
235.885	-0.76
236.262	-0.93
236.639	-1.18
237.016	-0.89
237.393	1.19
237.77	2.2
238.147	3.19
238.524	2.6
238.901	3.18
239.278	3.24
239.655	4.43
240.032	5.14
240.409	4.56
240.785	4.37
241.162	4.42
241.539	4.55
241.915	4.14
242.292	4.02
242.668	4.02
243.045	4.42
243.421	4.3
243.798	4.27
244.174	4.31
244.551	4.27
244.927	3.97
245.303	4
245.679	4.19
246.056	4.12
246.432	4.07
246.808	3.88
247.184	3.74
247.56	3.49
247.936	3.35
248.312	3.48
248.688	3.69
249.064	3.59
249.44	3.74
249.815	3.95
250.191	4.08
250.567	4.15
250.943	3.98
251.318	4.04
251.694	3.98
252.069	3.95
252.445	4.12
252.82	4.18
253.196	4.02
253.571	3.52
253.947	3.42
254.322	3.73
254.697	3.86
255.073	3.79
255.448	3.75
255.823	3.91
256.198	3.86
256.573	3.58
256.948	3.82
257.323	3.79
257.698	3.7
258.073	3.63
258.448	3.51
258.823	3.56
259.198	3.37
259.573	3.33
259.948	3.24
260.322	3.28
260.697	3.3
261.072	3.25
261.446	3.36
261.821	3.4
262.195	3.33
262.57	3.29
262.944	3.3
263.319	3.36
263.693	3.09
264.067	3.24
264.442	3.41
264.816	3.29
265.19	3.17
265.564	3.22
265.938	3.12
266.313	3.12
266.687	3.06
267.061	3.12
267.435	3.19
267.809	3.28
268.183	3.26
268.556	3.15
268.93	3.21
269.304	3.26
269.678	3.41
270.051	3.31
270.425	3.3
270.799	3.34
271.172	3.32
271.546	3.36
271.919	3.22
272.293	3.2
272.666	3.24
273.04	3.3
273.413	3.34
273.787	3.45
274.16	3.47
274.533	3.43
274.906	3.44
275.279	3.53
275.653	3.58
276.026	3.48
276.399	3.49
276.772	3.52
277.145	3.48
277.518	3.34
277.891	3.47
278.263	3.49
278.636	3.48
279.009	3.46
279.382	3.55
279.755	3.45
280.127	3.29
280.5	3.39
280.872	3.32
281.245	3.31
281.617	3.31
281.99	3.46
282.362	3.47
282.735	3.46
283.107	3.37
283.479	3.44
283.852	3.48
284.224	3.53
284.596	3.46
284.968	3.47
285.34	3.48
285.713	3.46
286.085	3.46
286.457	3.56
286.829	3.56
287.201	3.58
287.572	3.61
287.944	3.71
288.316	3.63
288.688	3.64
289.06	3.6
289.431	3.57
289.803	3.53
290.175	3.53
290.546	3.75
290.918	3.7
291.289	3.56
291.661	3.58
292.032	3.69
292.403	3.79
292.775	3.81
293.146	3.82
293.517	3.87
293.889	3.96
294.26	3.94
294.631	3.92
295.002	3.94
295.373	3.99
295.744	3.99
296.115	3.98
296.486	3.96
296.857	4
297.228	3.96
297.599	3.78
297.97	4.01
298.34	3.91
298.711	3.93
299.082	3.9
299.452	3.91
299.823	3.98
300.194	4.03
300.564	3.96
300.935	3.97
301.305	3.91
301.676	3.86
302.046	3.9
302.416	4.03
302.787	3.9
303.157	3.9
303.527	3.88
303.897	3.74
304.267	3.87
304.637	3.79
305.008	4.02
305.378	4.32
305.748	4.16
306.117	4.04
306.487	4.05
306.857	4.11
307.227	4.04
307.597	3.87
307.967	3.85
308.336	3.75
308.706	3.6
309.076	3.58
309.445	3.6
309.815	3.45
310.184	3.33
310.554	3.41
310.923	3.38
311.293	3.42
311.662	3.46
312.031	3.34
312.401	3.39
312.77	3.33
313.139	3.17
313.508	3.18
313.877	3.19
314.246	3.27
314.616	3.3
314.985	3.23
315.353	3.2
315.722	3.15
316.091	3.31
316.46	3.41
316.829	3.43
317.198	3.38
317.567	3.45
317.935	3.47
318.304	3.44
318.672	3.45
319.041	3.5
319.41	3.55
319.778	3.61
320.147	3.61
320.515	3.36
320.883	3.44
321.252	3.36
321.62	3.38
321.988	3.29
322.357	3.27
322.725	3.34
323.093	3.44
323.461	3.51
323.829	3.45
324.197	3.6
324.565	3.52
324.933	3.48
325.301	3.43
325.669	3.42
326.037	3.5
326.405	3.53
326.772	3.49
327.14	3.48
327.508	3.39
327.875	3.34
328.243	3.52
328.61	3.51
328.978	3.55
329.346	3.6
329.713	3.62
330.08	3.59
330.448	3.64
330.815	3.42
331.182	3.27
331.55	3.26
331.917	3.16
332.284	3.26
332.651	3.24
333.018	3.3
333.385	3.21
333.752	3.28
334.119	3.26
334.486	3.24
334.853	3.34
335.22	3.37
335.587	3.43
335.954	3.52
336.32	3.48
336.687	3.47
337.054	3.52
337.42	3.52
337.787	3.56
338.153	3.49
338.52	3.71
338.886	3.72
339.253	3.69
339.619	3.67
339.986	3.73
340.352	3.87
340.718	3.82
341.084	3.95
341.451	3.93
341.817	3.95
342.183	3.94
342.549	3.85
342.915	3.88
343.281	3.86
343.647	3.7
344.013	3.71
344.379	3.67
344.745	3.67
345.11	3.65
345.476	3.64
345.842	3.63
346.208	3.61
346.573	3.66
346.939	3.74
347.304	3.64
347.67	3.56
348.035	3.45
348.401	3.41
348.766	3.39
349.132	3.31
349.497	3.25
349.862	3.37
350.228	3.36
350.593	3.33
350.958	3.3
351.323	3.36
351.688	3.35
352.053	3.43
352.418	3.33
352.783	3.35
353.148	3.34
353.513	3.38
353.878	3.32
354.243	3.42
354.608	3.44
354.972	3.52
355.337	3.59
355.702	3.69
356.066	3.81
356.431	3.75
356.795	3.81
357.16	3.85
357.524	3.72
357.889	3.72
358.253	3.68
358.618	3.69
358.982	3.71
359.346	3.7
359.71	3.69
360.075	3.65
360.439	3.69
360.803	3.7
361.167	3.69
361.531	3.71
361.895	3.66
362.259	3.57
362.623	3.59
362.987	3.59
363.351	3.54
363.714	3.5
364.078	3.46
364.442	3.39
364.806	3.37
365.169	3.35
365.533	3.4
365.896	3.41
366.26	3.36
366.623	3.36
366.987	3.32
367.35	3.31
367.714	3.39
368.077	3.32
368.44	3.26
368.803	3.24
369.167	3.19
369.53	3.18
369.893	3.3
370.256	3.33
370.619	3.32
370.982	3.28
371.345	3.27
371.708	3.36
372.071	3.37
372.434	3.36
372.797	3.4
373.159	3.29
373.522	3.33
373.885	3.39
374.247	3.43
374.61	3.48
374.973	3.48
375.335	3.47
375.698	3.5
376.06	3.49
376.423	3.52
376.785	3.6
377.147	3.58
377.51	3.46
377.872	3.44
378.234	3.42
378.596	3.44
378.958	3.41
379.321	3.41
379.683	3.46
380.045	3.5
380.407	3.52
380.769	3.55
381.13	3.55
381.492	3.52
381.854	3.45
382.216	3.41
382.578	3.45
382.939	3.38
383.301	3.38
383.663	3.4
384.024	3.39
384.386	3.39
384.747	3.43
385.109	3.48
385.47	3.47
385.832	3.47
386.193	3.49
386.554	3.49
386.916	3.47
387.277	3.48
387.638	3.46
387.999	3.45
388.36	3.52
388.721	3.53
389.082	3.51
389.443	3.52
389.804	3.56
390.165	3.56
390.526	3.61
390.887	3.59
391.248	3.6
391.609	3.64
391.969	3.59
392.33	3.57
392.691	3.58
393.051	3.6
393.412	3.58
393.772	3.56
394.133	3.54
394.493	3.56
394.854	3.54
395.214	3.51
395.574	3.51
395.935	3.45
396.295	3.45
396.655	3.46
397.015	3.46
397.376	3.45
397.736	3.42
398.096	3.45
398.456	3.49
398.816	3.49
399.176	3.45
399.535	3.48
399.895	3.48
400.255	3.48
400.615	3.47
400.975	3.47
401.334	3.45
401.694	3.48
402.054	3.47
402.413	3.47
402.773	3.47
403.132	3.44
403.492	3.48
403.851	3.46
404.211	3.47
404.57	3.48
404.929	3.48
405.288	3.49
405.648	3.44
406.007	3.41
406.366	3.37
406.725	3.39
407.084	3.39
407.443	3.37
407.802	3.38
408.161	3.36
408.52	3.35
408.879	3.36
409.238	3.37
409.596	3.35
409.955	3.34
410.314	3.36
410.673	3.38
411.031	3.36
411.39	3.37
411.748	3.35
412.107	3.36
412.465	3.35
412.824	3.33
413.182	3.3
413.54	3.3
413.899	3.34
414.257	3.32
414.615	3.31
414.974	3.3
415.332	3.31
415.69	3.3
416.048	3.31
416.406	3.31
416.764	3.32
417.122	3.34
417.48	3.35
417.838	3.37
418.195	3.36
418.553	3.38
418.911	3.37
419.269	3.38
419.626	3.37
419.984	3.37
420.342	3.39
420.699	3.4
421.057	3.41
421.414	3.39
421.772	3.4
422.129	3.39
422.486	3.4
422.844	3.39
423.201	3.39
423.558	3.39
423.915	3.39
424.273	3.38
424.63	3.35
424.987	3.34
425.344	3.33
425.701	3.33
426.058	3.31
426.415	3.31
426.772	3.31
427.128	3.3
427.485	3.3
427.842	3.28
428.199	3.27
428.555	3.27
428.912	3.26
429.269	3.28
429.625	3.28
429.982	3.27
430.338	3.26
430.695	3.27
431.051	3.27
431.407	3.28
431.764	3.29
432.12	3.28
432.476	3.3
432.832	3.27
433.189	3.27
433.545	3.29
433.901	3.32
434.257	3.31
434.613	3.33
434.969	3.33
435.325	3.35
435.681	3.35
436.036	3.35
436.392	3.36
436.748	3.34
437.104	3.36
437.459	3.36
437.815	3.38
438.171	3.39
438.526	3.38
438.882	3.38
439.237	3.38
439.593	3.41
439.948	3.38
440.304	3.39
440.659	3.4
441.014	3.39
441.369	3.38
441.725	3.37
442.08	3.35
442.435	3.34
442.79	3.33
443.145	3.32
443.5	3.31
443.855	3.3
444.21	3.3
444.565	3.31
444.92	3.31
445.275	3.29
445.629	3.29
445.984	3.28
446.339	3.28
446.693	3.26
447.048	3.25
447.403	3.27
447.757	3.24
448.112	3.24
448.466	3.23
448.82	3.23
449.175	3.24
449.529	3.24
449.883	3.22
450.238	3.21
450.592	3.23
450.946	3.22
451.3	3.23
451.654	3.24
452.008	3.23
452.362	3.22
452.716	3.21
453.07	3.21
453.424	3.22
453.778	3.22
454.132	3.23
454.486	3.24
454.839	3.23
455.193	3.25
455.547	3.25
455.9	3.25
456.254	3.25
456.607	3.27
456.961	3.26
457.314	3.28
457.668	3.28
458.021	3.27
458.375	3.29
458.728	3.27
459.081	3.25
459.434	3.23
459.787	3.24
460.141	3.24
460.494	3.24
460.847	3.24
461.2	3.21
461.553	3.21
461.906	3.2
462.259	3.2
462.611	3.19
462.964	3.19
463.317	3.21
463.67	3.21
464.022	3.21
464.375	3.22
464.728	3.22
465.08	3.23
465.433	3.24
465.785	3.22
466.138	3.22
466.49	3.23
466.843	3.27
467.195	3.29
467.547	3.27
467.899	3.28
468.252	3.28
468.604	3.31
468.956	3.31
469.308	3.31
469.66	3.31
470.012	3.32
470.364	3.33
470.716	3.31
471.068	3.31
471.42	3.32
471.772	3.32
472.123	3.3
472.475	3.3
472.827	3.31
473.178	3.32
473.53	3.32
473.882	3.31
474.233	3.29
474.585	3.27
474.936	3.31
475.288	3.3
475.639	3.32
475.99	3.3
476.342	3.31
476.693	3.32
477.044	3.35
477.395	3.33
477.746	3.33
478.097	3.33
478.448	3.33
478.8	3.33
479.15	3.34
479.501	3.37
479.852	3.37
480.203	3.37
480.554	3.39
480.905	3.4
481.255	3.4
481.606	3.39
481.957	3.4
482.307	3.4
482.658	3.4
483.009	3.4
483.359	3.41
483.709	3.41
484.06	3.4
484.41	3.41
484.761	3.41
485.111	3.42
485.461	3.41
485.811	3.41
486.162	3.41
486.512	3.41
486.862	3.4
487.212	3.39
487.562	3.39
487.912	3.38
488.262	3.37
488.612	3.38
488.961	3.37
489.311	3.38
489.661	3.37
490.011	3.37
490.36	3.38
490.71	3.38
491.06	3.38
491.409	3.38
491.759	3.38
492.108	3.39
492.458	3.38
492.807	3.37
493.157	3.37
493.506	3.38
493.855	3.38
494.204	3.38
494.554	3.37
494.903	3.38
495.252	3.38
495.601	3.39
495.95	3.38
496.299	3.39
496.648	3.38
496.997	3.38
497.346	3.38
497.695	3.38
498.043	3.38
498.392	3.37
498.741	3.38
499.09	3.36
499.438	3.35
499.787	3.37
500.135	3.39
500.484	3.41
500.832	3.41
501.181	3.42
501.529	3.43
501.878	3.44
502.226	3.46
502.574	3.47
502.923	3.47
503.271	3.46
503.619	3.47
503.967	3.49
504.315	3.49
504.663	3.51
505.011	3.5
505.359	3.53
505.707	3.55
506.055	3.55
506.403	3.56
506.751	3.55
507.098	3.55
507.446	3.56
507.794	3.55
508.141	3.56
508.489	3.58
508.837	3.58
509.184	3.6
509.531	3.6
509.879	3.62
510.226	3.63
510.574	3.66
510.921	3.67
511.268	3.65
511.616	3.67
511.963	3.66
512.31	3.67
512.657	3.66
513.004	3.64
513.351	3.66
513.698	3.67
514.045	3.67
514.392	3.67
514.739	3.67
515.086	3.67
515.432	3.68
515.779	3.65
516.126	3.67
516.473	3.69
516.819	3.7
517.166	3.7
517.512	3.71
517.859	3.7
518.205	3.7
518.552	3.72
518.898	3.73
519.245	3.73
519.591	3.74
519.937	3.74
520.283	3.77
520.629	3.77
520.976	3.77
521.322	3.82
521.668	3.83
522.014	3.84
522.36	3.86
522.706	3.86
523.052	3.88
523.398	3.9
523.743	3.88
524.089	3.88
524.435	3.88
524.781	3.86
525.126	3.88
525.472	3.87
525.817	3.88
526.163	3.88
526.509	3.89
526.854	3.89
527.199	3.91
527.545	3.92
527.89	3.92
528.235	3.92
528.581	3.92
528.926	3.92
529.271	3.92
529.616	3.91
529.961	3.91
530.306	3.92
530.651	3.91
530.996	3.93
531.341	3.93
531.686	3.94
532.031	3.96
532.376	3.96
532.721	3.98
533.065	3.99
533.41	3.99
533.755	4
534.099	4.02
534.444	4.02
534.788	4.01
535.133	4.01
535.477	4.01
535.822	4.01
536.166	4.03
536.51	4.05
536.855	4.07
537.199	4.09
537.543	4.1
537.887	4.11
538.231	4.1
538.576	4.13
538.92	4.13
539.264	4.12
539.608	4.13
539.951	4.13
540.295	4.14
540.639	4.15
540.983	4.15
541.327	4.14
541.671	4.13
542.014	4.14
542.358	4.13
542.701	4.14
543.045	4.15
543.389	4.16
543.732	4.15
544.075	4.16
544.419	4.16
544.762	4.14
545.105	4.16
545.449	4.16
545.792	4.16
546.135	4.16
546.478	4.17
546.821	4.17
547.165	4.17
547.508	4.18
547.851	4.16
548.194	4.15
548.536	4.16
548.879	4.2
549.222	4.2
549.565	4.23
549.908	4.24
550.25	4.26
550.593	4.26
550.936	4.25
551.278	4.24
551.621	4.24
551.963	4.26
552.306	4.25
552.648	4.25
552.991	4.28
553.333	4.3
553.675	4.31
554.017	4.31
554.36	4.29
554.702	4.29
555.044	4.3
555.386	4.3
555.728	4.27
556.07	4.26
556.412	4.27
556.754	4.26
557.096	4.27
557.438	4.24
557.78	4.2
558.121	4.23
558.463	4.23
558.805	4.26
559.147	4.26
559.488	4.23
559.83	4.22
560.171	4.2
560.513	4.22
560.854	4.22
561.196	4.24
561.537	4.27
561.878	4.25
562.22	4.27
562.561	4.27
562.902	4.33
563.243	4.36
563.584	4.34
563.925	4.35
564.266	4.31
564.607	4.33
564.948	4.33
565.289	4.33
565.63	4.35
565.971	4.33
566.312	4.35
566.653	4.37
566.993	4.39
567.334	4.36
567.675	4.37
568.015	4.38
568.356	4.38
568.696	4.41
569.037	4.41
569.377	4.41
569.718	4.42
570.058	4.43
570.398	4.41
570.739	4.43
571.079	4.42
571.419	4.44
571.759	4.46
572.099	4.47
572.439	4.44
572.779	4.45
573.119	4.47
573.459	4.46
573.799	4.49
574.139	4.48
574.479	4.49
574.819	4.48
575.158	4.46
575.498	4.45
575.838	4.42
576.177	4.42
576.517	4.41
576.856	4.43
577.196	4.4
577.535	4.4
577.875	4.41
578.214	4.43
578.553	4.45
578.893	4.43
579.232	4.43
579.571	4.44
579.91	4.43
580.25	4.4
580.589	4.43
580.928	4.41
581.267	4.43
581.606	4.42
581.945	4.4
582.283	4.4
582.622	4.41
582.961	4.44
583.3	4.44
583.639	4.48
583.977	4.44
584.316	4.43
584.654	4.45
584.993	4.43
585.332	4.44
585.67	4.43
586.008	4.43
586.347	4.45
586.685	4.49
587.024	4.47
587.362	4.49
587.7	4.43
588.038	4.45
588.376	4.45
588.715	4.46
589.053	4.5
589.391	4.51
589.729	4.52
590.067	4.5
590.404	4.48
590.742	4.52
591.08	4.52
591.418	4.53
591.756	4.51
592.093	4.55
592.431	4.53
592.769	4.5
593.106	4.49
593.444	4.45
593.781	4.46
594.119	4.49
594.456	4.47
594.793	4.48
595.131	4.47
595.468	4.5
595.805	4.53
596.143	4.5
596.48	4.51
596.817	4.52
597.154	4.55
597.491	4.58
597.828	4.53
598.165	4.55
598.502	4.54
598.839	4.54
599.176	4.52
599.512	4.55
599.849	4.59
600.186	4.6
600.523	4.68
600.859	4.66
601.196	4.67
601.532	4.67
601.869	4.67
602.205	4.67
602.542	4.66
602.878	4.63
603.215	4.64
603.551	4.64
603.887	4.63
604.223	4.62
604.56	4.65
604.896	4.69
605.232	4.66
605.568	4.68
605.904	4.68
606.24	4.7
606.576	4.69
606.912	4.73
607.248	4.7
607.583	4.67
607.919	4.66
608.255	4.66
608.591	4.71
608.926	4.74
609.262	4.74
609.597	4.74
609.933	4.75
610.268	4.78
610.604	4.82
610.939	4.85
611.275	4.86
611.61	4.84
611.945	4.85
612.281	4.84
612.616	4.84
612.951	4.85
613.286	4.86
613.621	4.83
613.956	4.78
614.291	4.84
614.626	4.84
614.961	4.84
615.296	4.83
615.631	4.74
615.966	4.75
616.3	4.77
616.635	4.73
616.97	4.74
617.304	4.68
617.639	4.64
617.973	4.64
618.308	4.67
618.642	4.66
618.977	4.63
619.311	4.64
619.646	4.66
619.98	4.68
620.314	4.67
620.648	4.71
620.983	4.75
621.317	4.74
621.651	4.75
621.985	4.82
622.319	4.84
622.653	4.91
622.987	4.88
623.321	4.92
623.655	4.93
623.988	4.96
624.322	4.99
624.656	5.01
624.99	5
625.323	4.96
625.657	4.99
625.99	4.99
626.324	5.01
626.657	5
626.991	5.02
627.324	5.04
627.658	5
627.991	5.03
628.324	5.03
628.657	5.06
628.991	5.02
629.324	5.02
629.657	4.98
629.99	4.98
630.323	4.97
630.656	4.99
630.989	4.96
631.322	4.99
631.655	4.99
631.987	4.97
632.32	5
632.653	4.98
632.986	5.02
633.318	5.03
633.651	5.04
633.984	5.02
634.316	5
634.649	5.04
634.981	4.99
635.313	4.94
635.646	4.91
635.978	4.97
636.31	4.96
636.643	4.99
636.975	5.01
637.307	5.04
637.639	5.03
637.971	5.05
638.303	5.03
638.635	4.96
638.967	4.96
639.299	4.97
639.631	4.93
639.963	4.89
640.295	4.86
640.626	4.87
640.958	4.91
641.29	4.88
641.621	4.86
641.953	4.85
642.285	4.94
642.616	4.95
642.948	4.92
643.279	4.87
643.61	4.87
643.942	4.85
644.273	4.83
644.604	4.86
644.936	4.83
645.267	4.82
645.598	4.89
645.929	4.93
646.26	4.91
646.591	4.94
646.922	4.9
647.253	4.95
647.584	4.96
647.915	4.94
648.245	4.96
648.576	5.02
648.907	5.06
649.238	5
649.568	5.01
649.899	4.97
650.229	5.02
650.56	4.97
650.89	5.01
651.221	4.98
651.551	4.95
651.882	4.99
652.212	5.02
652.542	5.04
652.872	5.05
653.203	5.05
653.533	5.13
653.863	5.17
654.193	5.16
654.523	5.15
654.853	5.18
655.183	5.19
655.513	5.15
655.843	5.1
656.172	5.1
656.502	5.11
656.832	5.14
657.162	5.15
657.491	5.17
657.821	5.2
658.15	5.18
658.48	5.21
658.809	5.13
659.139	5.09
659.468	5.07
659.798	5.12
660.127	5.16
660.456	5.12
660.785	5.16
661.115	5.14
661.444	5.15
661.773	5.18
662.102	5.18
662.431	5.21
662.76	5.24
663.089	5.26
663.418	5.21
663.747	5.13
664.076	5.16
664.404	5.16
664.733	5.23
665.062	5.21
665.39	5.22
665.719	5.26
666.048	5.3
666.376	5.32
666.705	5.19
667.033	5.16
667.362	5.21
667.69	5.2
668.018	5.24
668.347	5.23
668.675	5.19
669.003	5.26
669.331	5.28
669.659	5.27
669.987	5.25
670.315	5.33
670.643	5.34
670.971	5.38
671.299	5.45
671.627	5.44
671.955	5.45
672.283	5.47
672.61	5.46
672.938	5.46
673.266	5.45
673.593	5.56
673.921	5.57
674.249	5.47
674.576	5.33
674.904	5.37
675.231	5.29
675.558	5.27
675.886	5.22
676.213	5.2
676.54	5.23
676.867	5.38
677.195	5.32
677.522	5.3
677.849	5.26
678.176	5.19
678.503	5.12
678.83	5.16
679.157	5.07
679.484	5.15
679.81	5.22
680.137	5.16
680.464	5.11
680.791	5.11
681.117	5.09
681.444	5.13
681.771	5.13
682.097	5.15
682.424	5.17
682.75	5.13
683.077	5.1
683.403	5.11
683.729	5.01
684.056	5.03
684.382	5.16
684.708	5.13
685.034	5.12
685.36	5.14
685.686	5.05
686.012	5.1
686.339	5.14
686.664	5.01
686.99	5.14
687.316	5.08
687.642	5.16
687.968	5.23
688.294	5.32
688.619	5.33
688.945	5.37
689.271	5.34
689.596	5.37
689.922	5.39
690.247	5.39
690.573	5.44
690.898	5.45
691.224	5.43
691.549	5.45
691.874	5.49
692.2	5.5
692.525	5.62
692.85	5.71
693.175	5.7
693.5	5.78
693.825	5.8
694.15	5.87
694.475	5.82
694.8	5.78
695.125	5.68
695.45	5.64
695.775	5.64
696.099	5.65
696.424	5.71
696.749	5.61
697.073	5.7
697.398	5.73
697.723	5.76
698.047	5.67
698.372	5.72
698.696	5.67
699.02	5.73
699.345	5.75
699.669	5.76
699.993	5.68
700.318	5.71
700.642	5.7
700.966	5.77
701.29	5.71
701.614	5.76
701.938	5.86
702.262	5.92
702.586	5.97
702.91	5.93
703.234	5.92
703.557	6.07
703.881	5.94
704.205	5.95
704.529	5.88
704.852	5.88
705.176	5.8
705.499	5.84
705.823	5.73
706.146	5.66
706.47	5.55
706.793	5.55
707.117	5.5
707.44	5.32
707.763	5.21
708.086	5.18
708.409	5.22
708.733	5.13
709.056	5.09
709.379	5.14
709.702	5.23
710.025	5.23
710.348	5.21
710.671	5.1
710.993	5.14
711.316	5.21
711.639	5.22
711.962	5.34
712.284	5.36
712.607	5.41
712.93	5.46
713.252	5.48
713.575	5.57
713.897	5.58
714.22	5.63
714.542	5.65
714.864	5.68
715.187	5.67
715.509	5.76
715.831	5.73
716.153	5.71
716.475	5.71
716.798	5.83
717.12	5.81
717.442	5.98
717.764	5.75
718.085	5.71
718.407	5.72
718.729	5.57
719.051	5.64
719.373	5.59
719.695	5.49
720.016	5.57
720.338	5.58
720.659	5.59
720.981	5.74
721.302	5.81
721.624	5.73
721.945	5.79
722.267	5.75
722.588	5.77
722.909	5.77
723.231	5.75
723.552	5.49
723.873	5.6
724.194	5.62
724.515	5.93
724.836	6.01
725.157	6.35
725.478	6.37
725.799	6.33
726.12	6.34
726.441	6.33
726.762	6.31
727.083	6.23
727.403	6.31
727.724	6.31
728.045	6.36
728.365	6.49
728.686	6.39
729.006	6.33
729.327	6.36
729.647	6.42
729.967	6.27
730.288	6.4
730.608	6.31
730.928	6.31
731.249	6.24
731.569	6.31
731.889	6.04
732.209	6
732.529	6.01
732.849	6.06
733.169	6.17
733.489	6.26
733.809	6.2
734.129	6.2
734.448	6.22
734.768	6.25
735.088	6.25
735.408	6.36
735.727	6.42
736.047	6.55
736.366	6.42
736.686	6.64
737.005	6.68
737.325	6.76
737.644	6.57
737.963	6.52
738.283	6.46
738.602	6.64
738.921	6.92
739.24	6.95
739.56	6.84
739.879	6.99
740.198	7.05
740.517	7.22
740.836	6.97
741.155	6.77
741.473	6.9
741.792	6.78
742.111	6.49
742.43	6.46
742.748	6.34
743.067	6.42
743.386	6.26
743.704	6
744.023	6.01
744.341	6.12
744.66	6.22
744.978	5.99
745.297	5.93
745.615	5.95
745.933	5.98
746.252	6.01
746.57	5.77
746.888	5.43
747.206	5.28
747.524	5.47
747.842	5.55
748.16	5.53
748.478	5.71
748.796	6.13
749.114	6.52
749.432	6.5
749.749	6.46
750.067	6.64
750.385	6.75
750.703	6.56
751.02	6.54
751.338	6.45
751.655	6.69
751.973	7.11
752.29	6.92
752.608	6.91
752.925	7.08
753.242	6.84
753.56	6.92
753.877	7.03
754.194	7.11
754.511	7.47
754.828	7.32
755.145	7.25
755.462	7.09
755.779	6.8
756.096	6.79
756.413	7.06
756.73	7.04
757.047	7.28
757.364	7.47
757.68	7.59
757.997	7.7
758.314	7.44
758.63	6.74
758.947	6.68
759.264	6.48
759.58	6.38
759.896	6.77
760.213	6.87
760.529	6.93
760.846	6.79
761.162	6.61
761.478	6.61
761.794	6.34
762.11	6.36
762.426	6.41
762.743	6.43
763.059	6.25
763.375	6.39
763.69	6.48
764.006	6.53
764.322	6.56
764.638	6.5
764.954	6.71
765.27	6.74
765.585	6.76
765.901	6.96
766.216	6.94
766.532	6.66
766.848	6.57
767.163	6.69
767.478	6.77
767.794	6.8
768.109	6.81
768.424	7.07
768.74	7.02
769.055	7.07
769.37	7.17
769.685	7.25
770	7.3
770.315	7.03
770.63	7.03
770.945	6.81
771.26	6.86
771.575	6.62
771.89	7.01
772.205	7.22
772.52	6.86
772.834	6.7
773.149	6.97
773.464	7.24
773.778	7.15
774.093	6.96
774.407	6.96
774.722	6.76
775.036	6.77
775.351	6.99
775.665	6.69
775.979	6.66
776.293	6.37
776.608	5.91
776.922	5.92
777.236	6.01
777.55	6.07
777.864	6.21
778.178	6.64
778.492	6.76
778.806	6.36
779.12	6.86
779.434	7.21
779.747	7.3
780.061	7.25
780.375	7.28
780.689	7.71
781.002	7.88
781.316	8.2
781.629	8.61
781.943	8.44
782.256	8.83
782.57	8.76
782.883	8.97
783.196	8.9
783.51	8.98
783.823	8.63
784.136	8.97
784.449	9.06
784.762	8.96
785.075	8.98
785.388	9.24
785.701	8.97
786.014	9.2
786.327	9.25
786.64	9.29
786.953	9
787.266	8.71
787.578	8.19
787.891	7.97
788.204	7.4
788.516	7.82
788.829	7.8
789.141	8.1
789.454	8.34
789.766	8.37
790.079	8.55
790.391	8.86
790.703	9.01
791.016	8.8
791.328	8.7
791.64	8.59
791.952	8.83
792.264	8.64
792.576	8.29
792.888	8.72
793.2	8.86
793.512	8.96
793.824	9.14
794.136	9.59
794.448	9.5
794.76	9.86
795.071	9.53
795.383	8.88
795.695	8.44
796.006	8.53
796.318	8.82
796.629	8.99
796.941	8.4
797.252	8.06
797.564	8.19
797.875	8.37
798.186	7.85
798.497	7.81
798.809	8.2
799.12	8.5
799.431	8.11
799.742	7.99
800.053	8.3
800.364	8.28
800.675	7.92
800.986	7.98
801.297	7.74
801.608	7.29
801.918	7.93
802.229	8.11
802.54	7.72
802.851	7.72
803.161	7.22
803.472	7.69
803.782	7.54
804.093	7.17
804.403	6.66
804.714	6.94
805.024	6.66
805.334	6.14
805.645	6.01
805.955	5.95
806.265	5.84
806.575	5.63
806.885	6.12
807.195	6.44
807.505	6.7
807.815	7.08
808.125	7.22
808.435	6.82
808.745	7.08
809.055	7.44
809.365	7.61
809.674	7.45
809.984	7.09
810.294	7.52
810.603	7.35
810.913	7.87
811.222	8.59
811.532	9.01
811.841	10.79
812.151	10.84
812.46	10.41
812.769	9.55
813.079	9.75
813.388	9.48
813.697	9.81
814.006	9.23
814.315	9.19
814.624	8.94
814.933	9.89
815.242	9.24
815.551	9.2
815.86	9.92
816.169	9.9
816.478	10.22
816.786	9.86
817.095	10.53
817.404	10.22
817.712	9.78
818.021	10.3
818.33	8.85
818.638	8.38
818.947	9.45
819.255	9.82
819.563	9.53
819.872	9.07
820.18	9.08
820.488	9.13
820.796	9.09
821.105	9.27
821.413	9.07
821.721	9.07
822.029	9.2
822.337	9.08
822.645	9.11
822.953	9.13
823.26	9.06
823.568	9.08
823.876	9.24
824.184	9.15
824.491	9.04
824.799	9.28
825.107	9.58
825.414	9.39
825.722	9.54
826.029	9.67
826.337	9.86
826.644	9.8
826.951	9.95
827.259	9.86
827.566	9.91
827.873	10
828.18	10.22
828.488	10.14
828.795	10.28
829.102	10.52
829.409	10.75
829.716	10.97
830.023	11.13
830.329	10.92
830.636	11.26
830.943	11.15
831.25	10.89
831.557	10.74
831.863	11.1
832.17	11.12
832.476	11.15
832.783	11.03
833.089	10.82
833.396	11.03
833.702	11.46
834.009	11.49
834.315	11.38
834.621	11.25
834.928	11.14
835.234	10.9
835.54	10.57
835.846	10.32
836.152	10.12
836.458	9.91
836.764	9.96
837.07	9.6
837.376	9.3
837.682	9.54
837.988	8.92
838.293	8.07
838.599	7.15
838.905	6.54
839.211	6.38
839.516	6.36
839.822	6.38
840.127	5.44
840.433	5.81
840.738	5.72
841.044	5.36
841.349	5.1
841.654	4.67
841.959	4.95
842.265	4.69
842.57	5.27
842.875	4.38
843.18	4.99
843.485	5.46
843.79	5.45
844.095	4.16
844.4	4.34
844.705	4.9
845.01	5.76
845.315	5.72
845.619	5.65
845.924	7.36
846.229	7.4
846.533	9.23
846.838	8.53
847.142	8.9
847.447	8.54
847.751	8.45
848.056	8.51
848.36	8.22
848.664	8.72
848.969	8.75
849.273	9.98
849.577	8.81
849.881	8.69
850.185	10.5
850.489	12.32
850.794	12.88
851.097	13.92
851.401	14.25
851.705	14.4
852.009	15.37
852.313	13.48
852.617	10.68
852.92	11.8
853.224	12.63
853.528	13.53
853.831	14.17
854.135	13.99
854.438	13.81
854.742	14.53
855.045	15.85
855.349	17.67
855.652	17.49
855.955	18.03
856.259	17.91
856.562	18.23
856.865	17.5
857.168	18.26
857.471	16.72
857.774	18.66
858.077	20.18
858.38	18.98
858.683	18.84
858.986	20.58
859.289	18.2
859.592	18.68
859.894	17.84
860.197	19.45
860.5	19.95
860.802	20.45
861.105	19.46
861.407	19.05
861.71	16.43
862.012	16.22
862.315	15.07
862.617	15.13
862.919	13.58
863.222	12.94
863.524	12.77
863.826	13.21
864.128	12.21
864.43	12.52
864.732	12.83
865.034	12.98
865.336	12.05
865.638	13.5
865.94	11.99
866.242	11.19
866.544	9.86
866.846	11.63
867.147	12.12
867.449	11.81
867.751	12.05
868.052	13.75
868.354	11.96
868.655	12.97
868.957	10.49
869.258	10.71
869.56	11.17
869.861	11.43
870.162	10.84
870.463	12.12
870.765	10.12
871.066	11.07
871.367	10.21
871.668	11.4
871.969	8.51
872.27	7.63
872.571	9.35
872.872	10.33
873.173	9.72
873.473	9.71
873.774	10.4
874.075	8.86
874.376	7.59
874.676	8.38
874.977	7.65
875.277	10.13
875.578	9.73
875.878	9.76
876.179	9.26
876.479	9.78
876.78	7.51
877.08	8.29
877.38	6.98
877.68	8.3
877.981	7.16
878.281	10.14
878.581	11.86
