Data from BA28301_Reflection_00012.txt Node
Date: Mon Nov 18 15:45:24 EST 2019
User: vgr7
Spectrometer: USB2G7710
Scans to average: 3
Trigger mode: 4
Integration Time (sec): 2.000000E-2
Electric dark correction enabled: true
Boxcar width: 10
XAxis mode: Wavelengths
Number of Pixels in Spectrum: 2048
>>>>>Begin Spectral Data<<<<<
177.721	1170.67
178.105	3528.57
178.488	-136.67
178.871	-3.72
179.254	28.23
179.636	372.73
180.019	417.22
180.402	488.89
180.785	111.41
181.168	532.2
181.55	363.46
181.933	141.55
182.316	170.93
182.698	98.3
183.081	70.9
183.463	44.41
183.846	47.57
184.228	22.33
184.611	41.57
184.993	93.87
185.376	76.48
185.758	116.47
186.14	231.81
186.522	324.57
186.904	-519.3
187.287	2293.28
187.669	-426.2
188.051	-483.14
188.433	-382.22
188.815	-548.8
189.197	-1130.41
189.579	-229.03
189.961	-347.18
190.342	-423.61
190.724	-328.57
191.106	-205.89
191.488	-344.31
191.869	-148.17
192.251	-122.92
192.633	-121.81
193.014	-175.4
193.396	-239.4
193.777	-547.84
194.159	-2194.12
194.54	-431.73
194.922	-313.24
195.303	-512.46
195.684	510.33
196.065	-195.4
196.447	4864.71
196.828	-126.59
197.209	-9.35
197.59	75.21
197.971	372.73
198.352	48.19
198.733	33.22
199.114	162.38
199.495	105.53
199.876	141.84
200.257	101.92
200.638	26.77
201.018	24.92
201.399	31.75
201.78	33.52
202.16	16.54
202.541	16.92
202.922	5.2
203.302	5.75
203.683	9.53
204.063	-33.63
204.444	10.18
204.824	-1.86
205.204	-0.3
205.585	-34.68
205.965	-6.05
206.345	-50.87
206.725	-389.23
207.106	3392.68
207.486	210.86
207.866	123.34
208.246	123.83
208.626	83.85
209.006	59.4
209.386	80.07
209.766	69.73
210.145	39.97
210.525	22.54
210.905	52.1
211.285	-4100
211.664	347.71
212.044	-129.09
212.424	7.92
212.803	5.77
213.183	16.24
213.562	28.61
213.942	20.52
214.321	25.91
214.701	8.89
215.08	-2.47
215.459	-0.95
215.838	-4.76
216.218	-7.7
216.597	-5.07
216.976	-0.37
217.355	14.54
217.734	15.91
218.113	16.48
218.492	14.04
218.871	10.97
219.25	9.93
219.629	2.16
220.008	-1.82
220.387	-2.41
220.766	-10.65
221.144	-19.91
221.523	-22.98
221.902	-26.09
222.28	-19.96
222.659	-10.3
223.037	-3.58
223.416	2.42
223.794	0.34
224.173	5.41
224.551	5.22
224.929	5.01
225.308	3.23
225.686	4.88
226.064	6.26
226.442	1.21
226.821	7.17
227.199	6.32
227.577	6.8
227.955	5.36
228.333	2.67
228.711	4.02
229.089	9.39
229.467	5.93
229.845	6.21
230.222	4.91
230.6	4.44
230.978	3.6
231.356	4.58
231.733	5.68
232.111	4.11
232.488	4.63
232.866	3.47
233.243	3.94
233.621	3.48
233.998	3.26
234.376	4.7
234.753	4.78
235.13	6.36
235.508	7.71
235.885	9.15
236.262	9.98
236.639	10.98
237.016	10.6
237.393	12.59
237.77	11.89
238.147	12.68
238.524	11.82
238.901	11.54
239.278	11.09
239.655	10.25
240.032	9.83
240.409	9.06
240.785	7.93
241.162	7.55
241.539	7.37
241.915	6.94
242.292	6.47
242.668	6.1
243.045	5.69
243.421	5.36
243.798	5.4
244.174	5.13
244.551	5.01
244.927	4.82
245.303	4.8
245.679	5.04
246.056	4.55
246.432	4.37
246.808	4.28
247.184	3.79
247.56	3.81
247.936	3.88
248.312	3.91
248.688	4.36
249.064	4.3
249.44	4.08
249.815	4.09
250.191	4.38
250.567	4.21
250.943	4.12
251.318	4.16
251.694	4.04
252.069	4.21
252.445	4.23
252.82	4.04
253.196	3.73
253.571	3.58
253.947	3.75
254.322	4.47
254.697	4.25
255.073	4.35
255.448	4.15
255.823	4.09
256.198	4.01
256.573	3.92
256.948	3.84
257.323	3.94
257.698	3.96
258.073	3.95
258.448	3.9
258.823	3.92
259.198	3.87
259.573	3.88
259.948	3.71
260.322	3.76
260.697	3.76
261.072	3.78
261.446	3.76
261.821	3.67
262.195	3.51
262.57	3.71
262.944	3.64
263.319	3.59
263.693	3.62
264.067	3.69
264.442	3.64
264.816	3.7
265.19	3.76
265.564	3.61
265.938	3.43
266.313	3.71
266.687	3.82
267.061	3.87
267.435	3.83
267.809	3.89
268.183	3.88
268.556	3.85
268.93	3.72
269.304	3.54
269.678	3.6
270.051	3.5
270.425	3.37
270.799	3.57
271.172	3.57
271.546	3.63
271.919	3.54
272.293	3.45
272.666	3.44
273.04	3.51
273.413	3.75
273.787	3.74
274.16	3.61
274.533	3.52
274.906	3.37
275.279	3.3
275.653	3.29
276.026	3.24
276.399	3.27
276.772	3.33
277.145	3.47
277.518	3.45
277.891	3.4
278.263	3.47
278.636	3.32
279.009	3.33
279.382	3.16
279.755	3.2
280.127	3.56
280.5	3.58
280.872	3.59
281.245	3.44
281.617	3.5
281.99	3.63
282.362	3.68
282.735	3.74
283.107	3.75
283.479	3.77
283.852	3.68
284.224	3.55
284.596	3.56
284.968	3.5
285.34	3.54
285.713	3.56
286.085	3.48
286.457	3.63
286.829	3.63
287.201	3.72
287.572	3.62
287.944	3.35
288.316	3.33
288.688	3.23
289.06	3.31
289.431	3.29
289.803	3.29
290.175	3.27
290.546	3.37
290.918	3.42
291.289	3.52
291.661	3.53
292.032	3.63
292.403	3.76
292.775	3.93
293.146	3.84
293.517	3.83
293.889	3.9
294.26	3.87
294.631	3.88
295.002	3.81
295.373	3.85
295.744	3.83
296.115	3.9
296.486	3.83
296.857	3.84
297.228	3.87
297.599	3.72
297.97	3.64
298.34	3.59
298.711	3.58
299.082	3.56
299.452	3.6
299.823	3.76
300.194	3.72
300.564	3.52
300.935	3.56
301.305	3.55
301.676	3.52
302.046	3.53
302.416	3.55
302.787	3.64
303.157	3.65
303.527	3.8
303.897	3.71
304.267	3.96
304.637	3.96
305.008	4.04
305.378	4.13
305.748	4.44
306.117	4.36
306.487	4.46
306.857	4.38
307.227	4.42
307.597	4.16
307.967	4.16
308.336	4.27
308.706	4.28
309.076	4.37
309.445	4.28
309.815	4.23
310.184	4.35
310.554	4.38
310.923	4.45
311.293	4.55
311.662	4.66
312.031	4.51
312.401	4.38
312.77	4.36
313.139	4.43
313.508	4.31
313.877	4.4
314.246	4.42
314.616	4.42
314.985	4.44
315.353	4.57
315.722	4.73
316.091	4.67
316.46	4.66
316.829	4.64
317.198	4.86
317.567	4.88
317.935	4.8
318.304	4.8
318.672	4.77
319.041	4.73
319.41	4.75
319.778	4.9
320.147	5.11
320.515	5.13
320.883	5.06
321.252	5.14
321.62	5.22
321.988	5.31
322.357	5.44
322.725	5.31
323.093	5.25
323.461	5.2
323.829	5.33
324.197	5.46
324.565	5.6
324.933	5.53
325.301	5.55
325.669	5.65
326.037	5.65
326.405	5.75
326.772	5.75
327.14	5.77
327.508	5.68
327.875	5.66
328.243	5.7
328.61	5.74
328.978	5.71
329.346	5.67
329.713	5.49
330.08	5.48
330.448	5.68
330.815	5.81
331.182	5.77
331.55	5.8
331.917	5.72
332.284	5.62
332.651	5.59
333.018	5.7
333.385	5.62
333.752	5.69
334.119	5.75
334.486	5.67
334.853	5.62
335.22	5.63
335.587	5.74
335.954	5.77
336.32	5.82
336.687	5.84
337.054	5.9
337.42	6
337.787	6.01
338.153	5.95
338.52	6
338.886	5.96
339.253	5.95
339.619	6.01
339.986	6.07
340.352	6.2
340.718	6.06
341.084	6.18
341.451	6.19
341.817	6.16
342.183	6.33
342.549	6.36
342.915	6.52
343.281	6.45
343.647	6.43
344.013	6.45
344.379	6.45
344.745	6.45
345.11	6.47
345.476	6.46
345.842	6.44
346.208	6.44
346.573	6.54
346.939	6.57
347.304	6.6
347.67	6.57
348.035	6.47
348.401	6.47
348.766	6.43
349.132	6.37
349.497	6.38
349.862	6.31
350.228	6.28
350.593	6.18
350.958	6.19
351.323	6.35
351.688	6.28
352.053	6.36
352.418	6.36
352.783	6.37
353.148	6.35
353.513	6.4
353.878	6.34
354.243	6.32
354.608	6.28
354.972	6.29
355.337	6.4
355.702	6.56
356.066	6.69
356.431	6.72
356.795	6.79
357.16	6.75
357.524	6.72
357.889	6.73
358.253	6.79
358.618	6.88
358.982	6.68
359.346	6.69
359.71	6.62
360.075	6.64
360.439	6.59
360.803	6.66
361.167	6.71
361.531	6.72
361.895	6.69
362.259	6.67
362.623	6.61
362.987	6.54
363.351	6.53
363.714	6.49
364.078	6.4
364.442	6.37
364.806	6.4
365.169	6.41
365.533	6.39
365.896	6.38
366.26	6.25
366.623	6.3
366.987	6.26
367.35	6.27
367.714	6.25
368.077	6.28
368.44	6.24
368.803	6.21
369.167	6.19
369.53	6.15
369.893	6.27
370.256	6.3
370.619	6.25
370.982	6.11
371.345	6.06
371.708	6.16
372.071	6.05
372.434	6
372.797	5.91
373.159	5.92
373.522	5.89
373.885	5.91
374.247	5.9
374.61	5.87
374.973	5.75
375.335	5.67
375.698	5.67
376.06	5.61
376.423	5.58
376.785	5.55
377.147	5.6
377.51	5.45
377.872	5.41
378.234	5.41
378.596	5.43
378.958	5.39
379.321	5.33
379.683	5.38
380.045	5.36
380.407	5.42
380.769	5.34
381.13	5.28
381.492	5.24
381.854	5.24
382.216	5.22
382.578	5.3
382.939	5.28
383.301	5.19
383.663	5.19
384.024	5.12
384.386	5.1
384.747	5.06
385.109	5.04
385.47	5.02
385.832	5
386.193	5.02
386.554	4.99
386.916	4.98
387.277	4.94
387.638	4.92
387.999	4.8
388.36	4.76
388.721	4.78
389.082	4.74
389.443	4.69
389.804	4.62
390.165	4.54
390.526	4.53
390.887	4.51
391.248	4.48
391.609	4.46
391.969	4.44
392.33	4.39
392.691	4.37
393.051	4.34
393.412	4.31
393.772	4.27
394.133	4.27
394.493	4.24
394.854	4.18
395.214	4.14
395.574	4.19
395.935	4.2
396.295	4.17
396.655	4.14
397.015	4.12
397.376	4.12
397.736	4.12
398.096	4.09
398.456	4.06
398.816	4.06
399.176	4.03
399.535	4
399.895	3.99
400.255	3.98
400.615	3.96
400.975	3.92
401.334	3.89
401.694	3.87
402.054	3.86
402.413	3.86
402.773	3.83
403.132	3.79
403.492	3.77
403.851	3.73
404.211	3.73
404.57	3.72
404.929	3.72
405.288	3.71
405.648	3.7
406.007	3.71
406.366	3.68
406.725	3.69
407.084	3.7
407.443	3.66
407.802	3.66
408.161	3.68
408.52	3.66
408.879	3.63
409.238	3.64
409.596	3.61
409.955	3.63
410.314	3.66
410.673	3.66
411.031	3.62
411.39	3.61
411.748	3.6
412.107	3.57
412.465	3.56
412.824	3.55
413.182	3.54
413.54	3.55
413.899	3.54
414.257	3.54
414.615	3.5
414.974	3.51
415.332	3.49
415.69	3.45
416.048	3.45
416.406	3.43
416.764	3.39
417.122	3.37
417.48	3.33
417.838	3.29
418.195	3.27
418.553	3.28
418.911	3.28
419.269	3.29
419.626	3.28
419.984	3.27
420.342	3.26
420.699	3.24
421.057	3.22
421.414	3.2
421.772	3.18
422.129	3.18
422.486	3.17
422.844	3.16
423.201	3.16
423.558	3.13
423.915	3.13
424.273	3.12
424.63	3.12
424.987	3.11
425.344	3.11
425.701	3.11
426.058	3.1
426.415	3.09
426.772	3.07
427.128	3.05
427.485	3.06
427.842	3.04
428.199	3.05
428.555	3.06
428.912	3.08
429.269	3.09
429.625	3.09
429.982	3.09
430.338	3.09
430.695	3.09
431.051	3.12
431.407	3.13
431.764	3.13
432.12	3.12
432.476	3.13
432.832	3.11
433.189	3.12
433.545	3.1
433.901	3.09
434.257	3.1
434.613	3.12
434.969	3.13
435.325	3.13
435.681	3.12
436.036	3.1
436.392	3.09
436.748	3.09
437.104	3.09
437.459	3.09
437.815	3.08
438.171	3.07
438.526	3.05
438.882	3.07
439.237	3.08
439.593	3.08
439.948	3.08
440.304	3.09
440.659	3.07
441.014	3.09
441.369	3.08
441.725	3.06
442.08	3.05
442.435	3.04
442.79	3.04
443.145	3.04
443.5	3.04
443.855	3.02
444.21	3.02
444.565	3.01
444.92	3.01
445.275	3
445.629	3.01
445.984	3.03
446.339	3
446.693	2.98
447.048	2.97
447.403	2.98
447.757	2.98
448.112	2.98
448.466	2.96
448.82	2.97
449.175	2.98
449.529	2.97
449.883	2.97
450.238	2.96
450.592	2.96
450.946	2.95
451.3	2.95
451.654	2.95
452.008	2.95
452.362	2.92
452.716	2.94
453.07	2.93
453.424	2.92
453.778	2.92
454.132	2.92
454.486	2.92
454.839	2.89
455.193	2.9
455.547	2.9
455.9	2.93
456.254	2.93
456.607	2.93
456.961	2.94
457.314	2.95
457.668	2.97
458.021	2.97
458.375	2.98
458.728	2.98
459.081	2.98
459.434	2.99
459.787	3.01
460.141	2.99
460.494	3.01
460.847	3.02
461.2	3.04
461.553	3.05
461.906	3.05
462.259	3.04
462.611	3.06
462.964	3.08
463.317	3.07
463.67	3.07
464.022	3.08
464.375	3.07
464.728	3.06
465.08	3.06
465.433	3.07
465.785	3.07
466.138	3.07
466.49	3.07
466.843	3.07
467.195	3.07
467.547	3.07
467.899	3.07
468.252	3.06
468.604	3.06
468.956	3.06
469.308	3.06
469.66	3.08
470.012	3.08
470.364	3.08
470.716	3.08
471.068	3.08
471.42	3.1
471.772	3.12
472.123	3.13
472.475	3.12
472.827	3.11
473.178	3.12
473.53	3.1
473.882	3.1
474.233	3.09
474.585	3.09
474.936	3.1
475.288	3.1
475.639	3.1
475.99	3.09
476.342	3.08
476.693	3.09
477.044	3.1
477.395	3.09
477.746	3.09
478.097	3.08
478.448	3.08
478.8	3.04
479.15	3.02
479.501	3.02
479.852	3.01
480.203	3.02
480.554	3.02
480.905	3.04
481.255	3.03
481.606	3.04
481.957	3.04
482.307	3.04
482.658	3.04
483.009	3.04
483.359	3.05
483.709	3.06
484.06	3.06
484.41	3.06
484.761	3.06
485.111	3.07
485.461	3.07
485.811	3.07
486.162	3.09
486.512	3.11
486.862	3.11
487.212	3.13
487.562	3.13
487.912	3.14
488.262	3.15
488.612	3.15
488.961	3.15
489.311	3.17
489.661	3.18
490.011	3.19
490.36	3.2
490.71	3.22
491.06	3.22
491.409	3.23
491.759	3.23
492.108	3.23
492.458	3.22
492.807	3.24
493.157	3.25
493.506	3.26
493.855	3.25
494.204	3.26
494.554	3.25
494.903	3.27
495.252	3.28
495.601	3.31
495.95	3.34
496.299	3.35
496.648	3.35
496.997	3.35
497.346	3.37
497.695	3.39
498.043	3.41
498.392	3.42
498.741	3.45
499.09	3.49
499.438	3.53
499.787	3.57
500.135	3.6
500.484	3.64
500.832	3.66
501.181	3.69
501.529	3.72
501.878	3.77
502.226	3.8
502.574	3.83
502.923	3.84
503.271	3.85
503.619	3.92
503.967	3.94
504.315	4
504.663	4.02
505.011	4.05
505.359	4.06
505.707	4.1
506.055	4.13
506.403	4.15
506.751	4.19
507.098	4.24
507.446	4.28
507.794	4.31
508.141	4.34
508.489	4.4
508.837	4.44
509.184	4.46
509.531	4.5
509.879	4.55
510.226	4.6
510.574	4.66
510.921	4.68
511.268	4.72
511.616	4.76
511.963	4.81
512.31	4.85
512.657	4.92
513.004	4.95
513.351	5.01
513.698	5.07
514.045	5.13
514.392	5.16
514.739	5.21
515.086	5.26
515.432	5.32
515.779	5.37
516.126	5.43
516.473	5.5
516.819	5.57
517.166	5.61
517.512	5.66
517.859	5.71
518.205	5.76
518.552	5.82
518.898	5.86
519.245	5.92
519.591	5.98
519.937	6.06
520.283	6.15
520.629	6.21
520.976	6.29
521.322	6.37
521.668	6.45
522.014	6.54
522.36	6.62
522.706	6.72
523.052	6.81
523.398	6.93
523.743	7.02
524.089	7.15
524.435	7.26
524.781	7.38
525.126	7.5
525.472	7.61
525.817	7.7
526.163	7.8
526.509	7.89
526.854	7.96
527.199	8.03
527.545	8.11
527.89	8.18
528.235	8.26
528.581	8.35
528.926	8.44
529.271	8.53
529.616	8.62
529.961	8.71
530.306	8.81
530.651	8.91
530.996	9.04
531.341	9.13
531.686	9.24
532.031	9.37
532.376	9.49
532.721	9.61
533.065	9.75
533.41	9.89
533.755	10.04
534.099	10.21
534.444	10.37
534.788	10.52
535.133	10.7
535.477	10.86
535.822	11.01
536.166	11.18
536.51	11.38
536.855	11.6
537.199	11.86
537.543	12.09
537.887	12.33
538.231	12.55
538.576	12.8
538.92	13.05
539.264	13.27
539.608	13.5
539.951	13.71
540.295	13.91
540.639	14.12
540.983	14.35
541.327	14.56
541.671	14.75
542.014	14.93
542.358	15.13
542.701	15.32
543.045	15.54
543.389	15.76
543.732	15.97
544.075	16.2
544.419	16.39
544.762	16.62
545.105	16.84
545.449	17.08
545.792	17.31
546.135	17.57
546.478	17.86
546.821	18.16
547.165	18.47
547.508	18.77
547.851	19.08
548.194	19.36
548.536	19.67
548.879	19.96
549.222	20.31
549.565	20.62
549.908	20.96
550.25	21.27
550.593	21.59
550.936	21.93
551.278	22.29
551.621	22.66
551.963	23
552.306	23.37
552.648	23.73
552.991	24.08
553.333	24.43
553.675	24.75
554.017	25.08
554.36	25.42
554.702	25.73
555.044	26.03
555.386	26.35
555.728	26.66
556.07	27.04
556.412	27.36
556.754	27.74
557.096	28.15
557.438	28.56
557.78	28.95
558.121	29.31
558.463	29.64
558.805	29.94
559.147	30.31
559.488	30.65
559.83	30.95
560.171	31.3
560.513	31.64
560.854	31.92
561.196	32.26
561.537	32.61
561.878	32.99
562.22	33.34
562.561	33.65
562.902	33.94
563.243	34.23
563.584	34.56
563.925	34.81
564.266	35.08
564.607	35.34
564.948	35.65
565.289	35.95
565.63	36.21
565.971	36.46
566.312	36.67
566.653	36.96
566.993	37.24
567.334	37.5
567.675	37.76
568.015	38.05
568.356	38.29
568.696	38.53
569.037	38.72
569.377	38.98
569.718	39.24
570.058	39.48
570.398	39.76
570.739	39.95
571.079	40.19
571.419	40.38
571.759	40.61
572.099	40.73
572.439	40.9
572.779	41.1
573.119	41.34
573.459	41.61
573.799	41.75
574.139	41.97
574.479	42.15
574.819	42.35
575.158	42.54
575.498	42.75
575.838	42.97
576.177	43.19
576.517	43.34
576.856	43.55
577.196	43.76
577.535	43.92
577.875	44.16
578.214	44.35
578.553	44.58
578.893	44.75
579.232	45.02
579.571	45.24
579.91	45.47
580.25	45.64
580.589	45.76
580.928	46
581.267	46.16
581.606	46.35
581.945	46.49
582.283	46.63
582.622	46.73
582.961	46.85
583.3	47.05
583.639	47.29
583.977	47.43
584.316	47.62
584.654	47.74
584.993	47.84
585.332	48
585.67	48.14
586.008	48.29
586.347	48.4
586.685	48.53
587.024	48.67
587.362	48.84
587.7	48.95
588.038	49.11
588.376	49.3
588.715	49.5
589.053	49.67
589.391	49.82
589.729	50.02
590.067	50.11
590.404	50.2
590.742	50.26
591.08	50.41
591.418	50.49
591.756	50.67
592.093	50.84
592.431	50.99
592.769	51.17
593.106	51.24
593.444	51.34
593.781	51.43
594.119	51.54
594.456	51.66
594.793	51.84
595.131	51.96
595.468	52.04
595.805	52.16
596.143	52.3
596.48	52.41
596.817	52.45
597.154	52.58
597.491	52.68
597.828	52.77
598.165	52.83
598.502	52.99
598.839	53.05
599.176	53.17
599.512	53.27
599.849	53.31
600.186	53.47
600.523	53.72
600.859	53.76
601.196	53.9
601.532	53.95
601.869	54.03
602.205	54.1
602.542	54.09
602.878	54.12
603.215	54.19
603.551	54.25
603.887	54.37
604.223	54.35
604.56	54.44
604.896	54.46
605.232	54.58
605.568	54.6
605.904	54.71
606.24	54.78
606.576	54.85
606.912	54.93
607.248	55.01
607.583	54.96
607.919	55.14
608.255	55.21
608.591	55.3
608.926	55.34
609.262	55.35
609.597	55.51
609.933	55.59
610.268	55.57
610.604	55.67
610.939	55.71
611.275	55.9
611.61	55.96
611.945	56.12
612.281	56.13
612.616	56.16
612.951	56.13
613.286	56.19
613.621	56.2
613.956	56.26
614.291	56.28
614.626	56.34
614.961	56.38
615.296	56.31
615.631	56.34
615.966	56.48
616.3	56.54
616.635	56.59
616.97	56.59
617.304	56.7
617.639	56.74
617.973	56.77
618.308	56.69
618.642	56.69
618.977	56.59
619.311	56.68
619.646	56.79
619.98	56.98
620.314	57.01
620.648	57.08
620.983	57.17
621.317	57.27
621.651	57.38
621.985	57.36
622.319	57.49
622.653	57.64
622.987	57.57
623.321	57.62
623.655	57.69
623.988	57.87
624.322	57.92
624.656	57.9
624.99	58.02
625.323	58.18
625.657	58.23
625.99	58.33
626.324	58.33
626.657	58.34
626.991	58.3
627.324	58.31
627.658	58.4
627.991	58.46
628.324	58.44
628.657	58.48
628.991	58.55
629.324	58.59
629.657	58.54
629.99	58.62
630.323	58.67
630.656	58.67
630.989	58.61
631.322	58.69
631.655	58.71
631.987	58.66
632.32	58.68
632.653	58.72
632.986	58.82
633.318	58.84
633.651	58.97
633.984	59.03
634.316	58.94
634.649	58.95
634.981	58.96
635.313	59.05
635.646	59.05
635.978	59.07
636.31	59.07
636.643	59.12
636.975	59.23
637.307	59.38
637.639	59.41
637.971	59.39
638.303	59.36
638.635	59.44
638.967	59.59
639.299	59.57
639.631	59.54
639.963	59.51
640.295	59.52
640.626	59.5
640.958	59.46
641.29	59.7
641.621	59.74
641.953	59.8
642.285	59.75
642.616	59.78
642.948	59.87
643.279	59.88
643.61	59.95
643.942	59.86
644.273	59.8
644.604	59.81
644.936	59.87
645.267	59.79
645.598	59.84
645.929	59.87
646.26	59.98
646.591	60.1
646.922	60.08
647.253	60.22
647.584	60.23
647.915	60.39
648.245	60.39
648.576	60.42
648.907	60.37
649.238	60.46
649.568	60.55
649.899	60.55
650.229	60.53
650.56	60.55
650.89	60.61
651.221	60.7
651.551	60.73
651.882	60.8
652.212	61.07
652.542	61.02
652.872	60.94
653.203	60.92
653.533	60.92
653.863	61.1
654.193	61.02
654.523	60.99
654.853	61
655.183	60.95
655.513	60.92
655.843	60.9
656.172	61
656.502	61.01
656.832	61.1
657.162	61.25
657.491	61.13
657.821	61.07
658.15	61.1
658.48	61.19
658.809	61.18
659.139	60.93
659.468	60.99
659.798	61
660.127	60.98
660.456	61.01
660.785	60.92
661.115	61.02
661.444	61.06
661.773	61.09
662.102	61.22
662.431	61.26
662.76	61.38
663.089	61.36
663.418	61.27
663.747	61.2
664.076	61.19
664.404	61.4
664.733	61.59
665.062	61.51
665.39	61.44
665.719	61.51
666.048	61.63
666.376	61.73
666.705	61.73
667.033	61.69
667.362	61.67
667.69	61.85
668.018	61.94
668.347	61.96
668.675	61.97
669.003	61.87
669.331	62.06
669.659	62.1
669.987	62.05
670.315	62.23
670.643	62.19
670.971	62.23
671.299	62.18
671.627	62.14
671.955	62.12
672.283	62.24
672.61	62.25
672.938	62.45
673.266	62.31
673.593	62.41
673.921	62.53
674.249	62.76
674.576	62.63
674.904	62.54
675.231	62.51
675.558	62.4
675.886	62.51
676.213	62.27
676.54	62.21
676.867	62.2
677.195	62.1
677.522	62.06
677.849	62.01
678.176	62.06
678.503	61.93
678.83	62.12
679.157	62.13
679.484	62.24
679.81	62.18
680.137	62.34
680.464	62.45
680.791	62.58
681.117	62.59
681.444	62.63
681.771	62.76
682.097	62.8
682.424	62.84
682.75	62.95
683.077	63.04
683.403	63.14
683.729	63.05
684.056	63.19
684.382	63.27
684.708	63.33
685.034	63.44
685.36	63.53
685.686	63.52
686.012	63.41
686.339	63.27
686.664	63.26
686.99	63.14
687.316	63.04
687.642	62.99
687.968	62.82
688.294	62.83
688.619	62.7
688.945	62.68
689.271	62.68
689.596	62.57
689.922	62.59
690.247	62.48
690.573	62.54
690.898	62.32
691.224	62.17
691.549	62.17
691.874	61.98
692.2	62.1
692.525	61.93
692.85	62.05
693.175	62.08
693.5	62.19
693.825	62.24
694.15	62.21
694.475	62.15
694.8	62.35
695.125	62.35
695.45	62.38
695.775	62.44
696.099	62.46
696.424	62.53
696.749	62.64
697.073	62.67
697.398	62.75
697.723	62.99
698.047	63.29
698.372	63.37
698.696	63.53
699.02	63.35
699.345	63.27
699.669	63.33
699.993	63.26
700.318	63.13
700.642	63.14
700.966	63.16
701.29	63.21
701.614	63.25
701.938	63.34
702.262	63.41
702.586	63.57
702.91	63.66
703.234	63.54
703.557	63.23
703.881	63.3
704.205	63.38
704.529	63.38
704.852	63.18
705.176	63.1
705.499	62.91
705.823	63.04
706.146	63.19
706.47	63.19
706.793	63.29
707.117	63.38
707.44	63.36
707.763	63.42
708.086	63.22
708.409	63.09
708.733	62.85
709.056	62.78
709.379	62.49
709.702	62.5
710.025	62.48
710.348	62.71
710.671	62.72
710.993	62.75
711.316	62.67
711.639	62.75
711.962	62.85
712.284	62.99
712.607	63.05
712.93	63.24
713.252	63.29
713.575	63.43
713.897	63.66
714.22	63.69
714.542	63.8
714.864	64.08
715.187	64.01
715.509	64.09
715.831	64.19
716.153	64.56
716.475	64.61
716.798	64.84
717.12	65.03
717.442	64.97
717.764	65.02
718.085	65.14
718.407	65.2
718.729	65.12
719.051	65.1
719.373	65.04
719.695	64.85
720.016	64.83
720.338	64.78
720.659	64.6
720.981	64.67
721.302	64.56
721.624	64.35
721.945	64.31
722.267	64.38
722.588	64.54
722.909	64.27
723.231	64.28
723.552	64.18
723.873	64.16
724.194	64.06
724.515	63.98
724.836	63.79
725.157	63.69
725.478	63.47
725.799	63.47
726.12	63.6
726.441	63.81
726.762	63.65
727.083	63.66
727.403	63.86
727.724	63.73
728.045	63.78
728.365	63.87
728.686	64.01
729.006	64.11
729.327	63.93
729.647	63.99
729.967	64.08
730.288	64.3
730.608	64.13
730.928	64.35
731.249	64.28
731.569	64.46
731.889	64.59
732.209	64.97
732.529	64.99
732.849	64.94
733.169	64.71
733.489	64.7
733.809	64.88
734.129	64.61
734.448	64.61
734.768	64.53
735.088	64.5
735.408	64.37
735.727	64.41
736.047	64.5
736.366	64.62
736.686	64.43
737.005	64.14
737.325	64.37
737.644	64.61
737.963	64.62
738.283	64.34
738.602	64.51
738.921	64.43
739.24	64.4
739.56	64.37
739.879	64.51
740.198	64.64
740.517	64.52
740.836	64.66
741.155	64.92
741.473	64.98
741.792	65.11
742.111	65.37
742.43	65.44
742.748	65.38
743.067	65.24
743.386	65.67
743.704	65.89
744.023	65.96
744.341	65.84
744.66	66.26
744.978	66.47
745.297	66.36
745.615	66.55
745.933	66.51
746.252	66.59
746.57	66.74
746.888	66.35
747.206	66.26
747.524	66.5
747.842	66.34
748.16	66.36
748.478	66.33
748.796	66.2
749.114	66.31
749.432	66.45
749.749	66.52
750.067	66.11
750.385	66.21
750.703	65.92
751.02	65.75
751.338	65.16
751.655	65.04
751.973	64.97
752.29	64.98
752.608	65.03
752.925	65.16
753.242	65.02
753.56	65.33
753.877	65.1
754.194	64.63
754.511	64.82
754.828	64.85
755.145	64.9
755.462	65
755.779	64.72
756.096	64.72
756.413	64.84
756.73	64.91
757.047	64.82
757.364	64.73
757.68	64.74
757.997	65.26
758.314	65.52
758.63	65.89
758.947	65.93
759.264	66.08
759.58	65.91
759.896	65.96
760.213	66.03
760.529	66.14
760.846	66.24
761.162	66.37
761.478	66.27
761.794	66.16
762.11	66.11
762.426	66.39
762.743	66.21
763.059	66.09
763.375	66.37
763.69	66.33
764.006	66.55
764.322	66.56
764.638	66.68
764.954	66.53
765.27	66.34
765.585	66.04
765.901	66.01
766.216	66.18
766.532	66.06
766.848	66.04
767.163	66.28
767.478	66.43
767.794	66.29
768.109	66.63
768.424	66.78
768.74	66.76
769.055	66.47
769.37	66.54
769.685	66.59
770	66.56
770.315	66.43
770.63	66.19
770.945	66.07
771.26	65.81
771.575	65.83
771.89	65.66
772.205	66.04
772.52	66.31
772.834	66.15
773.149	66.3
773.464	66.25
773.778	65.87
774.093	65.76
774.407	65.74
774.722	65.43
775.036	65.1
775.351	64.95
775.665	65.17
775.979	65.1
776.293	65.15
776.608	64.88
776.922	65.06
777.236	65.67
777.55	66.1
777.864	66.48
778.178	66.74
778.492	66.57
778.806	66.46
779.12	66.13
779.434	66.25
779.747	66.14
780.061	66.55
780.375	66.94
780.689	67.16
781.002	66.98
781.316	66.85
781.629	66.86
781.943	66.99
782.256	66.91
782.57	66.92
782.883	66.78
783.196	67
783.51	66.54
783.823	66.29
784.136	65.99
784.449	65.71
784.762	65.2
785.075	65.33
785.388	65.03
785.701	65.01
786.014	64.79
786.327	65.3
786.64	65.32
786.953	64.88
787.266	64.49
787.578	64.64
787.891	64.74
788.204	65.15
788.516	65.42
788.829	65.5
789.141	65.67
789.454	65.51
789.766	65.41
790.079	65.75
790.391	65.38
790.703	65.58
791.016	65.07
791.328	65.39
791.64	65.67
791.952	65.78
792.264	65.51
792.576	65.64
792.888	65.86
793.2	65.72
793.512	66.03
793.824	66.44
794.136	66.66
794.448	66.69
794.76	66.69
795.071	66.27
795.383	65.85
795.695	66.18
796.006	66.76
796.318	66.67
796.629	67.02
796.941	67.21
797.252	67.19
797.564	68
797.875	68.18
798.186	68.19
798.497	68.19
798.809	68.17
799.12	68.15
799.431	67.92
799.742	67.69
800.053	67.58
800.364	67.36
800.675	67.46
800.986	67.11
801.297	67.05
801.608	67.03
801.918	67.26
802.229	66.58
802.54	66.62
802.851	66.43
803.161	66.16
803.472	65.56
803.782	65.71
804.093	64.73
804.403	64.72
804.714	64.73
805.024	64.95
805.334	65.69
805.645	65.92
805.955	66.28
806.265	66.59
806.575	67.09
806.885	67.53
807.195	67.31
807.505	68.28
807.815	68.13
808.125	68.44
808.435	69.03
808.745	69.46
809.055	69.35
809.365	69.78
809.674	69.11
809.984	70.26
810.294	69.7
810.603	69.84
810.913	69.6
811.222	69.6
811.532	69.31
811.841	69.24
812.151	69.11
812.46	68.69
812.769	68.37
813.079	67.77
813.388	67.07
813.697	67.17
814.006	66.71
814.315	67.57
814.624	68.03
814.933	67.58
815.242	67.98
815.551	68.15
815.86	67.57
816.169	68.39
816.478	68.29
816.786	68.75
817.095	68.6
817.404	68.66
817.712	68.04
818.021	68.47
818.33	67.6
818.638	67.29
818.947	67.34
819.255	67.07
819.563	67.37
819.872	67.67
820.18	67.39
820.488	67.33
820.796	67.25
821.105	67.02
821.413	66.83
821.721	66.77
822.029	66.59
822.337	66.68
822.645	66.62
822.953	66.63
823.26	66.77
823.568	67
823.876	66.87
824.184	66.93
824.491	66.87
824.799	67.07
825.107	67.14
825.414	66.96
825.722	67.25
826.029	67.27
826.337	67.32
826.644	67.64
826.951	67.75
827.259	67.62
827.566	67.56
827.873	67.84
828.18	67.98
828.488	68.07
828.795	68.09
829.102	67.99
829.409	67.95
829.716	67.73
830.023	68.09
830.329	68.55
830.636	68.85
830.943	69.17
831.25	68.97
831.557	68.99
831.863	69.06
832.17	69.03
832.476	69.07
832.783	68.56
833.089	68.08
833.396	67.69
833.702	67.85
834.009	67.81
834.315	67.45
834.621	67.38
834.928	67.26
835.234	67.41
835.54	67.49
835.846	67.19
836.152	67.47
836.458	66.62
836.764	66.07
837.07	66.32
837.376	65.95
837.682	66.38
837.988	67.11
838.293	67.68
838.599	67.38
838.905	66.85
839.211	67.14
839.516	67.64
839.822	68.26
840.127	67.43
840.433	68
840.738	68.32
841.044	68.44
841.349	69.84
841.654	70.3
841.959	71.37
842.265	72.05
842.57	71.35
842.875	71.53
843.18	73.16
843.485	73.29
843.79	73.96
844.095	74.23
844.4	73.98
844.705	72.67
845.01	73.05
845.315	73.64
845.619	74.61
845.924	74.1
846.229	73.62
846.533	75.86
846.838	75.65
847.142	75.58
847.447	75.35
847.751	75.49
848.056	74.45
848.36	74.89
848.664	75.95
848.969	76.97
849.273	77.68
849.577	76.59
849.881	75.25
850.185	75.66
850.489	74.32
850.794	72.25
851.097	75.27
851.401	75.61
851.705	76.02
852.009	75.96
852.313	75.13
852.617	74.61
852.92	76.36
853.224	78.28
853.528	79.66
853.831	80.55
854.135	80.08
854.438	81.56
854.742	77.37
855.045	77.31
855.349	76.03
855.652	75.06
855.955	75.06
856.259	75.54
856.562	75.36
856.865	76.17
857.168	75.59
857.471	76.07
857.774	76.57
858.077	74.89
858.38	75.93
858.683	78.45
858.986	80.11
859.289	77.52
859.592	75.87
859.894	76.57
860.197	75.01
860.5	75.79
860.802	75.04
861.105	77.6
861.407	76.8
861.71	79.39
862.012	79.79
862.315	79.07
862.617	80.71
862.919	80.33
863.222	79.28
863.524	81.38
863.826	79.23
864.128	77.12
864.43	78.93
864.732	79.09
865.034	74.15
865.336	72.57
865.638	69.65
865.94	68.99
866.242	66.37
866.544	65.58
866.846	64.65
867.147	64.89
867.449	65.04
867.751	67.4
868.052	66.45
868.354	68.76
868.655	70.76
868.957	70.72
869.258	70.85
869.56	71.82
869.861	70.96
870.162	71.7
870.463	72.55
870.765	73.6
871.066	71.93
871.367	76.5
871.668	77.48
871.969	79.06
872.27	80.1
872.571	81.02
872.872	84.61
873.173	81.59
873.473	78.23
873.774	78.65
874.075	75.99
874.376	75.64
874.676	74.81
874.977	74.01
875.277	73.05
875.578	70.69
875.878	70.55
876.179	71.31
876.479	70.63
876.78	70.12
877.08	68.47
877.38	67.63
877.68	66.28
877.981	66.02
878.281	67.63
878.581	67.64
