Data from BA28301_Reflection_00006.txt Node
Date: Mon Nov 18 15:45:09 EST 2019
User: vgr7
Spectrometer: USB2G7710
Scans to average: 3
Trigger mode: 4
Integration Time (sec): 2.000000E-2
Electric dark correction enabled: true
Boxcar width: 10
XAxis mode: Wavelengths
Number of Pixels in Spectrum: 2048
>>>>>Begin Spectral Data<<<<<
177.721	1018.73
178.105	4671.43
178.488	-241.15
178.871	17.55
179.254	119.14
179.636	274.83
180.019	-292.75
180.402	544.44
180.785	183.65
181.168	269.49
181.55	94.33
181.933	95.57
182.316	140.89
182.698	95.48
183.081	71.36
183.463	30.66
183.846	79.22
184.228	59.63
184.611	47.74
184.993	45.54
185.376	34.43
185.758	58.29
186.14	212.48
186.522	280.42
186.904	-489.81
187.287	1999.16
187.669	-360.14
188.051	-569.79
188.433	-264.15
188.815	-240.11
189.197	-720.28
189.579	-207.1
189.961	-201.01
190.342	-327.1
190.724	-126.8
191.106	-145.09
191.488	-154.59
191.869	-37.31
192.251	-35.99
192.633	-73.26
193.014	-117.87
193.396	-170.48
193.777	-311.96
194.159	-300
194.54	117.51
194.922	125.04
195.303	86.16
195.684	-197.87
196.065	143.76
196.447	-2135.29
196.828	-38.97
197.209	17.59
197.59	-428.93
197.971	-1172.73
198.352	27.79
198.733	-41.8
199.114	1.7
199.495	-5.72
199.876	52.42
200.257	20.56
200.638	3.21
201.018	15.58
201.399	16.7
201.78	23.39
202.16	-10.03
202.541	-42.31
202.922	-72.47
203.302	-41.08
203.683	-71.37
204.063	-96.26
204.444	-88.35
204.824	-94.75
205.204	-73.86
205.585	-39.23
205.965	-35.59
206.345	-81.37
206.725	-189.23
207.106	2392.68
207.486	178.39
207.866	207.17
208.246	220.04
208.626	239.94
209.006	277.44
209.386	160.52
209.766	89.38
210.145	71.27
210.525	123.73
210.905	201.6
211.285	27300
211.664	-927.52
212.044	485.45
212.424	-129.4
212.803	-51.94
213.183	-46.85
213.562	-20.72
213.942	-14.95
214.321	6.78
214.701	-22.57
215.08	-19.25
215.459	-13.01
215.838	-4.92
216.218	0.15
216.597	12.67
216.976	3.31
217.355	3.76
217.734	-8.49
218.113	-0.44
218.492	-2.27
218.871	-0.88
219.25	8.92
219.629	7.37
220.008	14.81
220.387	23.37
220.766	25.94
221.144	20.58
221.523	15.76
221.902	13.58
222.28	6.34
222.659	17
223.037	20.86
223.416	26.33
223.794	27.5
224.173	28.07
224.551	18.99
224.929	12.79
225.308	20.99
225.686	20.86
226.064	18.68
226.442	17.5
226.821	16.67
227.199	11.32
227.577	6.42
227.955	3.78
228.333	0.86
228.711	-0.2
229.089	1.63
229.467	1.8
229.845	1.63
230.222	1.84
230.6	2.07
230.978	1.3
231.356	0.89
231.733	0.03
232.111	1.17
232.488	1.06
232.866	2.96
233.243	2.32
233.621	2.67
233.998	3.08
234.376	2.43
234.753	1.47
235.13	1.44
235.508	3.76
235.885	3.92
236.262	2.41
236.639	2.75
237.016	2.61
237.393	4.24
237.77	4.67
238.147	5.16
238.524	5.21
238.901	6.69
239.278	6.27
239.655	6.97
240.032	6.07
240.409	5.94
240.785	5.62
241.162	5.78
241.539	5.46
241.915	5.5
242.292	5.72
242.668	5.69
243.045	5.72
243.421	5.42
243.798	5.55
244.174	5.69
244.551	5.69
244.927	5.38
245.303	5.04
245.679	5.06
246.056	5.04
246.432	4.93
246.808	4.69
247.184	4.49
247.56	4.29
247.936	4.44
248.312	4.46
248.688	4.46
249.064	4.34
249.44	4.26
249.815	4.34
250.191	4.59
250.567	4.43
250.943	4.38
251.318	4.66
251.694	4.51
252.069	4.49
252.445	4.57
252.82	4.61
253.196	4.77
253.571	4.99
253.947	5.09
254.322	5.4
254.697	5.39
255.073	5.58
255.448	5.58
255.823	5.13
256.198	5.06
256.573	5
256.948	4.91
257.323	5.11
257.698	5.03
258.073	4.85
258.448	5.06
258.823	5.14
259.198	4.94
259.573	5.05
259.948	5.04
260.322	4.95
260.697	4.92
261.072	4.9
261.446	4.83
261.821	4.69
262.195	4.51
262.57	4.42
262.944	4.35
263.319	4.34
263.693	4.47
264.067	4.65
264.442	4.77
264.816	4.84
265.19	4.73
265.564	4.75
265.938	4.78
266.313	4.61
266.687	4.59
267.061	4.64
267.435	4.59
267.809	4.51
268.183	4.29
268.556	4.31
268.93	4.43
269.304	4.38
269.678	4.55
270.051	4.58
270.425	4.64
270.799	4.8
271.172	4.86
271.546	4.85
271.919	4.71
272.293	4.59
272.666	4.64
273.04	4.71
273.413	4.71
273.787	4.68
274.16	4.74
274.533	4.71
274.906	4.72
275.279	4.6
275.653	4.83
276.026	5.1
276.399	5.18
276.772	5.16
277.145	5.09
277.518	5.12
277.891	5.2
278.263	5.04
278.636	4.87
279.009	4.72
279.382	4.79
279.755	5.02
280.127	5.1
280.5	5
280.872	5.08
281.245	4.94
281.617	5.04
281.99	5.17
282.362	5.04
282.735	4.95
283.107	4.98
283.479	4.74
283.852	4.51
284.224	4.44
284.596	4.35
284.968	4.4
285.34	4.26
285.713	4.2
286.085	4.28
286.457	4.36
286.829	4.42
287.201	4.38
287.572	4.18
287.944	4.2
288.316	4.23
288.688	4.11
289.06	4.11
289.431	4.03
289.803	4.02
290.175	4.18
290.546	4.43
290.918	4.52
291.289	4.66
291.661	4.88
292.032	4.93
292.403	5.03
292.775	5.01
293.146	5
293.517	5.04
293.889	5.06
294.26	5.02
294.631	5.01
295.002	5
295.373	5.07
295.744	4.96
296.115	4.93
296.486	4.95
296.857	4.89
297.228	4.92
297.599	4.77
297.97	4.75
298.34	4.57
298.711	4.63
299.082	4.59
299.452	4.62
299.823	4.68
300.194	4.6
300.564	4.61
300.935	4.64
301.305	4.45
301.676	4.45
302.046	4.51
302.416	4.45
302.787	4.45
303.157	4.39
303.527	4.46
303.897	4.56
304.267	4.72
304.637	4.85
305.008	4.89
305.378	4.95
305.748	4.93
306.117	4.99
306.487	4.93
306.857	4.92
307.227	4.82
307.597	4.71
307.967	4.72
308.336	4.76
308.706	4.77
309.076	4.86
309.445	4.82
309.815	4.78
310.184	4.77
310.554	4.76
310.923	4.79
311.293	4.7
311.662	4.65
312.031	4.43
312.401	4.44
312.77	4.48
313.139	4.51
313.508	4.41
313.877	4.37
314.246	4.28
314.616	4.26
314.985	4.16
315.353	4.12
315.722	4.09
316.091	3.99
316.46	3.95
316.829	3.98
317.198	4.03
317.567	4.02
317.935	4.13
318.304	4.14
318.672	3.98
319.041	4.1
319.41	4.04
319.778	4.15
320.147	4.1
320.515	3.95
320.883	3.93
321.252	4.03
321.62	3.96
321.988	4.02
322.357	4.01
322.725	4.01
323.093	4.14
323.461	4.21
323.829	4.23
324.197	4.25
324.565	4.23
324.933	4.23
325.301	4.1
325.669	4.01
326.037	3.99
326.405	4.07
326.772	4.12
327.14	4.14
327.508	4.01
327.875	3.94
328.243	3.96
328.61	3.91
328.978	3.98
329.346	4
329.713	3.91
330.08	3.87
330.448	3.87
330.815	3.65
331.182	3.51
331.55	3.51
331.917	3.41
332.284	3.5
332.651	3.43
333.018	3.59
333.385	3.62
333.752	3.63
334.119	3.57
334.486	3.46
334.853	3.46
335.22	3.58
335.587	3.65
335.954	3.66
336.32	3.61
336.687	3.54
337.054	3.67
337.42	3.61
337.787	3.58
338.153	3.64
338.52	3.81
338.886	3.85
339.253	3.9
339.619	3.97
339.986	3.97
340.352	4.1
340.718	4.01
341.084	3.99
341.451	4.12
341.817	4.24
342.183	4.2
342.549	4.26
342.915	4.31
343.281	4.28
343.647	4.22
344.013	4.23
344.379	4.13
344.745	4.06
345.11	4.17
345.476	4.23
345.842	4.21
346.208	4.16
346.573	4.16
346.939	4.12
347.304	4.06
347.67	3.96
348.035	3.9
348.401	3.93
348.766	3.91
349.132	3.89
349.497	3.79
349.862	3.92
350.228	3.83
350.593	3.72
350.958	3.76
351.323	3.77
351.688	3.81
352.053	3.81
352.418	3.91
352.783	3.84
353.148	3.86
353.513	3.94
353.878	3.95
354.243	3.89
354.608	3.95
354.972	3.99
355.337	4.07
355.702	4.09
356.066	4.16
356.431	4.22
356.795	4.2
357.16	4.26
357.524	4.11
357.889	4.1
358.253	4.13
358.618	4.12
358.982	4.12
359.346	3.99
359.71	4.04
360.075	3.98
360.439	4.04
360.803	4.03
361.167	4.01
361.531	3.98
361.895	4.01
362.259	3.96
362.623	3.92
362.987	3.9
363.351	3.9
363.714	3.89
364.078	3.83
364.442	3.78
364.806	3.7
365.169	3.79
365.533	3.81
365.896	3.8
366.26	3.81
366.623	3.84
366.987	3.95
367.35	3.92
367.714	3.9
368.077	3.83
368.44	3.8
368.803	3.77
369.167	3.79
369.53	3.76
369.893	3.76
370.256	3.74
370.619	3.73
370.982	3.66
371.345	3.59
371.708	3.58
372.071	3.51
372.434	3.58
372.797	3.61
373.159	3.52
373.522	3.55
373.885	3.6
374.247	3.6
374.61	3.64
374.973	3.64
375.335	3.6
375.698	3.65
376.06	3.7
376.423	3.71
376.785	3.72
377.147	3.78
377.51	3.8
377.872	3.86
378.234	3.9
378.596	3.96
378.958	3.96
379.321	4.01
379.683	4.09
380.045	4.04
380.407	3.99
380.769	4.04
381.13	4.03
381.492	3.95
381.854	3.94
382.216	3.92
382.578	3.96
382.939	3.96
383.301	3.98
383.663	3.95
384.024	3.94
384.386	3.94
384.747	3.93
385.109	3.94
385.47	3.91
385.832	3.89
386.193	3.93
386.554	3.91
386.916	3.9
387.277	3.91
387.638	3.98
387.999	3.99
388.36	3.99
388.721	4.01
389.082	4.01
389.443	4
389.804	3.99
390.165	3.99
390.526	4
390.887	3.93
391.248	3.93
391.609	3.93
391.969	3.91
392.33	3.89
392.691	3.9
393.051	3.91
393.412	3.89
393.772	3.81
394.133	3.84
394.493	3.83
394.854	3.82
395.214	3.76
395.574	3.77
395.935	3.76
396.295	3.78
396.655	3.77
397.015	3.79
397.376	3.8
397.736	3.78
398.096	3.8
398.456	3.88
398.816	3.89
399.176	3.86
399.535	3.85
399.895	3.89
400.255	3.86
400.615	3.86
400.975	3.91
401.334	3.9
401.694	3.89
402.054	3.86
402.413	3.86
402.773	3.89
403.132	3.88
403.492	3.87
403.851	3.86
404.211	3.88
404.57	3.84
404.929	3.82
405.288	3.83
405.648	3.82
406.007	3.77
406.366	3.77
406.725	3.8
407.084	3.83
407.443	3.79
407.802	3.84
408.161	3.86
408.52	3.84
408.879	3.85
409.238	3.87
409.596	3.9
409.955	3.87
410.314	3.86
410.673	3.85
411.031	3.84
411.39	3.84
411.748	3.84
412.107	3.87
412.465	3.87
412.824	3.88
413.182	3.85
413.54	3.9
413.899	3.9
414.257	3.89
414.615	3.88
414.974	3.91
415.332	3.86
415.69	3.84
416.048	3.82
416.406	3.8
416.764	3.79
417.122	3.79
417.48	3.81
417.838	3.8
418.195	3.78
418.553	3.78
418.911	3.77
419.269	3.77
419.626	3.76
419.984	3.75
420.342	3.76
420.699	3.76
421.057	3.76
421.414	3.74
421.772	3.73
422.129	3.71
422.486	3.7
422.844	3.71
423.201	3.7
423.558	3.7
423.915	3.7
424.273	3.7
424.63	3.69
424.987	3.7
425.344	3.7
425.701	3.71
426.058	3.72
426.415	3.72
426.772	3.71
427.128	3.71
427.485	3.74
427.842	3.71
428.199	3.73
428.555	3.72
428.912	3.75
429.269	3.77
429.625	3.77
429.982	3.78
430.338	3.77
430.695	3.79
431.051	3.79
431.407	3.82
431.764	3.82
432.12	3.82
432.476	3.79
432.832	3.79
433.189	3.81
433.545	3.8
433.901	3.79
434.257	3.78
434.613	3.77
434.969	3.75
435.325	3.76
435.681	3.74
436.036	3.73
436.392	3.73
436.748	3.72
437.104	3.72
437.459	3.72
437.815	3.72
438.171	3.72
438.526	3.72
438.882	3.71
439.237	3.72
439.593	3.72
439.948	3.73
440.304	3.74
440.659	3.73
441.014	3.73
441.369	3.73
441.725	3.74
442.08	3.73
442.435	3.73
442.79	3.72
443.145	3.72
443.5	3.72
443.855	3.71
444.21	3.71
444.565	3.71
444.92	3.71
445.275	3.68
445.629	3.69
445.984	3.69
446.339	3.68
446.693	3.67
447.048	3.67
447.403	3.66
447.757	3.65
448.112	3.65
448.466	3.66
448.82	3.67
449.175	3.67
449.529	3.69
449.883	3.68
450.238	3.68
450.592	3.69
450.946	3.68
451.3	3.69
451.654	3.69
452.008	3.7
452.362	3.7
452.716	3.73
453.07	3.73
453.424	3.73
453.778	3.73
454.132	3.75
454.486	3.74
454.839	3.72
455.193	3.72
455.547	3.7
455.9	3.69
456.254	3.69
456.607	3.66
456.961	3.67
457.314	3.69
457.668	3.7
458.021	3.68
458.375	3.69
458.728	3.7
459.081	3.71
459.434	3.69
459.787	3.71
460.141	3.69
460.494	3.69
460.847	3.7
461.2	3.71
461.553	3.72
461.906	3.73
462.259	3.75
462.611	3.77
462.964	3.78
463.317	3.79
463.67	3.79
464.022	3.82
464.375	3.81
464.728	3.82
465.08	3.82
465.433	3.83
465.785	3.82
466.138	3.82
466.49	3.81
466.843	3.82
467.195	3.8
467.547	3.84
467.899	3.84
468.252	3.82
468.604	3.82
468.956	3.81
469.308	3.81
469.66	3.79
470.012	3.8
470.364	3.81
470.716	3.81
471.068	3.81
471.42	3.81
471.772	3.82
472.123	3.79
472.475	3.8
472.827	3.81
473.178	3.83
473.53	3.82
473.882	3.85
474.233	3.85
474.585	3.86
474.936	3.84
475.288	3.84
475.639	3.85
475.99	3.84
476.342	3.84
476.693	3.85
477.044	3.85
477.395	3.84
477.746	3.83
478.097	3.82
478.448	3.83
478.8	3.82
479.15	3.82
479.501	3.83
479.852	3.83
480.203	3.84
480.554	3.84
480.905	3.86
481.255	3.84
481.606	3.83
481.957	3.83
482.307	3.84
482.658	3.84
483.009	3.84
483.359	3.84
483.709	3.84
484.06	3.83
484.41	3.83
484.761	3.84
485.111	3.85
485.461	3.86
485.811	3.85
486.162	3.85
486.512	3.86
486.862	3.86
487.212	3.86
487.562	3.85
487.912	3.86
488.262	3.85
488.612	3.87
488.961	3.87
489.311	3.87
489.661	3.87
490.011	3.87
490.36	3.87
490.71	3.87
491.06	3.88
491.409	3.89
491.759	3.88
492.108	3.87
492.458	3.86
492.807	3.86
493.157	3.86
493.506	3.87
493.855	3.86
494.204	3.85
494.554	3.85
494.903	3.86
495.252	3.84
495.601	3.85
495.95	3.86
496.299	3.86
496.648	3.86
496.997	3.85
497.346	3.85
497.695	3.88
498.043	3.88
498.392	3.88
498.741	3.88
499.09	3.9
499.438	3.92
499.787	3.94
500.135	3.94
500.484	3.95
500.832	3.96
501.181	3.98
501.529	3.98
501.878	3.99
502.226	3.99
502.574	3.99
502.923	3.97
503.271	3.94
503.619	3.95
503.967	3.96
504.315	3.96
504.663	3.97
505.011	3.97
505.359	3.98
505.707	3.99
506.055	4
506.403	4.02
506.751	4.01
507.098	4.01
507.446	4
507.794	4.01
508.141	4.03
508.489	4.02
508.837	4.03
509.184	4.03
509.531	4.02
509.879	4.03
510.226	4.05
510.574	4.07
510.921	4.09
511.268	4.09
511.616	4.09
511.963	4.09
512.31	4.09
512.657	4.1
513.004	4.1
513.351	4.09
513.698	4.1
514.045	4.1
514.392	4.1
514.739	4.1
515.086	4.1
515.432	4.1
515.779	4.1
516.126	4.09
516.473	4.1
516.819	4.1
517.166	4.1
517.512	4.1
517.859	4.11
518.205	4.09
518.552	4.11
518.898	4.12
519.245	4.11
519.591	4.1
519.937	4.09
520.283	4.09
520.629	4.11
520.976	4.1
521.322	4.11
521.668	4.1
522.014	4.1
522.36	4.11
522.706	4.11
523.052	4.13
523.398	4.16
523.743	4.18
524.089	4.19
524.435	4.2
524.781	4.2
525.126	4.19
525.472	4.2
525.817	4.19
526.163	4.18
526.509	4.18
526.854	4.19
527.199	4.19
527.545	4.19
527.89	4.2
528.235	4.2
528.581	4.2
528.926	4.2
529.271	4.21
529.616	4.21
529.961	4.21
530.306	4.2
530.651	4.2
530.996	4.2
531.341	4.2
531.686	4.21
532.031	4.21
532.376	4.21
532.721	4.21
533.065	4.21
533.41	4.23
533.755	4.23
534.099	4.24
534.444	4.24
534.788	4.25
535.133	4.25
535.477	4.26
535.822	4.26
536.166	4.27
536.51	4.27
536.855	4.26
537.199	4.27
537.543	4.27
537.887	4.27
538.231	4.27
538.576	4.28
538.92	4.28
539.264	4.29
539.608	4.29
539.951	4.29
540.295	4.29
540.639	4.3
540.983	4.3
541.327	4.28
541.671	4.28
542.014	4.29
542.358	4.28
542.701	4.28
543.045	4.29
543.389	4.3
543.732	4.28
544.075	4.28
544.419	4.28
544.762	4.27
545.105	4.28
545.449	4.29
545.792	4.28
546.135	4.27
546.478	4.26
546.821	4.26
547.165	4.26
547.508	4.28
547.851	4.28
548.194	4.28
548.536	4.3
548.879	4.31
549.222	4.31
549.565	4.32
549.908	4.34
550.25	4.37
550.593	4.37
550.936	4.38
551.278	4.39
551.621	4.39
551.963	4.4
552.306	4.4
552.648	4.39
552.991	4.39
553.333	4.4
553.675	4.41
554.017	4.42
554.36	4.44
554.702	4.44
555.044	4.43
555.386	4.46
555.728	4.44
556.07	4.45
556.412	4.41
556.754	4.4
557.096	4.36
557.438	4.36
557.78	4.37
558.121	4.35
558.463	4.38
558.805	4.4
559.147	4.43
559.488	4.43
559.83	4.4
560.171	4.39
560.513	4.39
560.854	4.41
561.196	4.4
561.537	4.43
561.878	4.43
562.22	4.44
562.561	4.43
562.902	4.44
563.243	4.42
563.584	4.44
563.925	4.44
564.266	4.48
564.607	4.46
564.948	4.45
565.289	4.46
565.63	4.46
565.971	4.42
566.312	4.42
566.653	4.44
566.993	4.45
567.334	4.45
567.675	4.47
568.015	4.45
568.356	4.45
568.696	4.42
569.037	4.4
569.377	4.43
569.718	4.41
570.058	4.43
570.398	4.43
570.739	4.43
571.079	4.42
571.419	4.42
571.759	4.42
572.099	4.42
572.439	4.41
572.779	4.39
573.119	4.4
573.459	4.42
573.799	4.43
574.139	4.42
574.479	4.42
574.819	4.42
575.158	4.41
575.498	4.43
575.838	4.43
576.177	4.45
576.517	4.44
576.856	4.47
577.196	4.49
577.535	4.5
577.875	4.53
578.214	4.54
578.553	4.53
578.893	4.52
579.232	4.54
579.571	4.55
579.91	4.56
580.25	4.57
580.589	4.51
580.928	4.49
581.267	4.49
581.606	4.51
581.945	4.52
582.283	4.54
582.622	4.5
582.961	4.52
583.3	4.51
583.639	4.52
583.977	4.53
584.316	4.5
584.654	4.5
584.993	4.51
585.332	4.5
585.67	4.53
586.008	4.52
586.347	4.5
586.685	4.5
587.024	4.5
587.362	4.53
587.7	4.56
588.038	4.56
588.376	4.59
588.715	4.56
589.053	4.56
589.391	4.56
589.729	4.6
590.067	4.58
590.404	4.61
590.742	4.59
591.08	4.54
591.418	4.57
591.756	4.54
592.093	4.53
592.431	4.57
592.769	4.55
593.106	4.55
593.444	4.56
593.781	4.57
594.119	4.57
594.456	4.55
594.793	4.54
595.131	4.5
595.468	4.49
595.805	4.52
596.143	4.51
596.48	4.51
596.817	4.53
597.154	4.54
597.491	4.51
597.828	4.51
598.165	4.53
598.502	4.5
598.839	4.51
599.176	4.51
599.512	4.5
599.849	4.53
600.186	4.53
600.523	4.54
600.859	4.54
601.196	4.58
601.532	4.55
601.869	4.58
602.205	4.6
602.542	4.62
602.878	4.62
603.215	4.61
603.551	4.59
603.887	4.57
604.223	4.58
604.56	4.59
604.896	4.58
605.232	4.56
605.568	4.59
605.904	4.59
606.24	4.58
606.576	4.55
606.912	4.54
607.248	4.54
607.583	4.54
607.919	4.52
608.255	4.5
608.591	4.53
608.926	4.53
609.262	4.56
609.597	4.56
609.933	4.57
610.268	4.57
610.604	4.6
610.939	4.58
611.275	4.56
611.61	4.55
611.945	4.58
612.281	4.6
612.616	4.57
612.951	4.59
613.286	4.59
613.621	4.63
613.956	4.6
614.291	4.61
614.626	4.57
614.961	4.61
615.296	4.61
615.631	4.58
615.966	4.56
616.3	4.55
616.635	4.52
616.97	4.52
617.304	4.5
617.639	4.52
617.973	4.56
618.308	4.55
618.642	4.58
618.977	4.51
619.311	4.55
619.646	4.61
619.98	4.57
620.314	4.59
620.648	4.61
620.983	4.65
621.317	4.67
621.651	4.74
621.985	4.73
622.319	4.72
622.653	4.75
622.987	4.83
623.321	4.87
623.655	4.88
623.988	4.92
624.322	4.94
624.656	4.97
624.99	4.96
625.323	5
625.657	4.99
625.99	5.07
626.324	5.02
626.657	5.02
626.991	5.06
627.324	5.04
627.658	5.02
627.991	5
628.324	4.96
628.657	4.96
628.991	4.98
629.324	4.97
629.657	4.97
629.99	4.96
630.323	4.92
630.656	4.94
630.989	4.95
631.322	4.98
631.655	4.92
631.987	4.94
632.32	4.91
632.653	4.92
632.986	4.89
633.318	4.88
633.651	4.81
633.984	4.79
634.316	4.75
634.649	4.75
634.981	4.75
635.313	4.77
635.646	4.72
635.978	4.74
636.31	4.77
636.643	4.76
636.975	4.77
637.307	4.75
637.639	4.67
637.971	4.64
638.303	4.61
638.635	4.61
638.967	4.53
639.299	4.55
639.631	4.53
639.963	4.53
640.295	4.55
640.626	4.58
640.958	4.59
641.29	4.62
641.621	4.63
641.953	4.63
642.285	4.65
642.616	4.7
642.948	4.68
643.279	4.66
643.61	4.72
643.942	4.65
644.273	4.72
644.604	4.74
644.936	4.73
645.267	4.78
645.598	4.79
645.929	4.88
646.26	4.86
646.591	4.87
646.922	4.82
647.253	4.78
647.584	4.83
647.915	4.82
648.245	4.84
648.576	4.91
648.907	4.94
649.238	4.91
649.568	4.92
649.899	4.92
650.229	4.93
650.56	4.92
650.89	4.91
651.221	4.86
651.551	4.86
651.882	4.88
652.212	4.84
652.542	4.92
652.872	4.89
653.203	4.92
653.533	4.93
653.863	5.05
654.193	5.13
654.523	5.1
654.853	5.1
655.183	5.14
655.513	5.01
655.843	5
656.172	5.06
656.502	5.06
656.832	5.1
657.162	5.08
657.491	5
657.821	5.01
658.15	5.03
658.48	5.1
658.809	5.14
659.139	5.11
659.468	5.05
659.798	5.04
660.127	5.05
660.456	5.05
660.785	5.03
661.115	5
661.444	4.92
661.773	4.97
662.102	4.93
662.431	5.05
662.76	5.05
663.089	5.08
663.418	5.09
663.747	5.04
664.076	5.06
664.404	5.12
664.733	5.18
665.062	5.13
665.39	5.05
665.719	4.98
666.048	5.11
666.376	5.09
666.705	5.11
667.033	5.12
667.362	5.09
667.69	5.03
668.018	5.12
668.347	5.22
668.675	5.18
669.003	5.24
669.331	5.2
669.659	5.18
669.987	5.05
670.315	5.02
670.643	5.07
670.971	5.1
671.299	5.17
671.627	5.11
671.955	5.13
672.283	5.22
672.61	5.21
672.938	5.15
673.266	5.2
673.593	5.24
673.921	5.27
674.249	5.3
674.576	5.28
674.904	5.19
675.231	5.23
675.558	5.24
675.886	5.25
676.213	5.22
676.54	5.29
676.867	5.3
677.195	5.3
677.522	5.26
677.849	5.26
678.176	5.21
678.503	5.25
678.83	5.27
679.157	5.22
679.484	5.25
679.81	5.27
680.137	5.21
680.464	5.18
680.791	5.21
681.117	5.18
681.444	5.22
681.771	5.22
682.097	5.21
682.424	5.26
682.75	5.18
683.077	5.18
683.403	5.2
683.729	5.25
684.056	5.27
684.382	5.3
684.708	5.25
685.034	5.26
685.36	5.27
685.686	5.16
686.012	5.07
686.339	5.15
686.664	5.12
686.99	5.22
687.316	5.19
687.642	5.18
687.968	5.15
688.294	5.21
688.619	5.23
688.945	5.28
689.271	5.23
689.596	5.23
689.922	5.31
690.247	5.27
690.573	5.22
690.898	5.26
691.224	5.25
691.549	5.28
691.874	5.17
692.2	5.15
692.525	5.34
692.85	5.52
693.175	5.43
693.5	5.31
693.825	5.24
694.15	5.25
694.475	5.2
694.8	5.31
695.125	5.25
695.45	5.23
695.775	5.19
696.099	5.19
696.424	5.21
696.749	5.06
697.073	5.03
697.398	5.08
697.723	5.02
698.047	4.97
698.372	4.88
698.696	4.98
699.02	4.93
699.345	4.99
699.669	4.99
699.993	4.98
700.318	5.03
700.642	5.11
700.966	5.15
701.29	5.1
701.614	5.1
701.938	5.18
702.262	5.31
702.586	5.31
702.91	5.27
703.234	5.29
703.557	5.42
703.881	5.47
704.205	5.44
704.529	5.56
704.852	5.55
705.176	5.73
705.499	5.78
705.823	5.88
706.146	5.7
706.47	5.74
706.793	5.86
707.117	5.83
707.44	5.7
707.763	5.74
708.086	5.69
708.409	5.6
708.733	5.47
709.056	5.29
709.379	5.41
709.702	5.44
710.025	5.36
710.348	5.34
710.671	5.19
710.993	5.23
711.316	5.22
711.639	5.46
711.962	5.37
712.284	5.32
712.607	5.25
712.93	5.37
713.252	5.28
713.575	5.15
713.897	5.13
714.22	5.2
714.542	5.25
714.864	5.41
715.187	5.42
715.509	5.45
715.831	5.48
716.153	5.4
716.475	5.51
716.798	5.6
717.12	5.52
717.442	5.7
717.764	5.74
718.085	5.67
718.407	5.47
718.729	5.49
719.051	5.55
719.373	5.56
719.695	5.59
720.016	5.7
720.338	5.82
720.659	5.98
720.981	5.97
721.302	5.86
721.624	5.74
721.945	5.81
722.267	5.91
722.588	5.91
722.909	5.95
723.231	5.72
723.552	5.74
723.873	5.86
724.194	5.77
724.515	5.81
724.836	5.69
725.157	6.02
725.478	6.06
725.799	5.95
726.12	6.02
726.441	5.87
726.762	5.81
727.083	5.72
727.403	5.68
727.724	5.59
728.045	5.63
728.365	5.63
728.686	5.65
729.006	5.55
729.327	5.56
729.647	5.61
729.967	5.71
730.288	5.7
730.608	5.76
730.928	5.7
731.249	5.59
731.569	5.88
731.889	5.61
732.209	5.67
732.529	5.73
732.849	5.75
733.169	5.7
733.489	5.79
733.809	5.92
734.129	5.73
734.448	5.86
734.768	5.84
735.088	6.03
735.408	5.92
735.727	6.15
736.047	6.23
736.366	6.15
736.686	6.23
737.005	6.28
737.325	6.14
737.644	6.28
737.963	6.24
738.283	5.99
738.602	6.09
738.921	6.23
739.24	6.18
739.56	6.21
739.879	6.47
740.198	6.44
740.517	6.27
740.836	6.58
741.155	6.53
741.473	6.63
741.792	6.53
742.111	6.66
742.43	6.5
742.748	6.29
743.067	6.29
743.386	6.32
743.704	6.2
744.023	6.49
744.341	6.41
744.66	6.7
744.978	6.77
745.297	6.85
745.615	6.71
745.933	6.87
746.252	6.86
746.57	6.8
746.888	6.69
747.206	6.67
747.524	6.55
747.842	6.72
748.16	6.77
748.478	6.73
748.796	6.72
749.114	6.76
749.432	6.84
749.749	6.81
750.067	6.88
750.385	6.94
750.703	6.73
751.02	6.6
751.338	6.3
751.655	6.38
751.973	6.42
752.29	6.44
752.608	6.37
752.925	6.24
753.242	6.09
753.56	5.91
753.877	5.98
754.194	6.08
754.511	5.96
754.828	5.58
755.145	5.49
755.462	5.58
755.779	5.42
756.096	5.59
756.413	5.87
756.73	5.85
757.047	5.92
757.364	5.99
757.68	6.28
757.997	6.64
758.314	6.61
758.63	6.36
758.947	6.22
759.264	6.16
759.58	6.21
759.896	6.28
760.213	6.59
760.529	6.6
760.846	6.52
761.162	6.63
761.478	6.89
761.794	7.03
762.11	6.98
762.426	7.15
762.743	7
763.059	7.02
763.375	6.96
763.69	6.94
764.006	6.88
764.322	6.96
764.638	6.83
764.954	6.99
765.27	7.03
765.585	7.06
765.901	7.22
766.216	7.36
766.532	7.26
766.848	7.13
767.163	7.36
767.478	7.56
767.794	7.43
768.109	7.25
768.424	7.37
768.74	7.2
769.055	7.08
769.37	7.27
769.685	7.3
770	7.45
770.315	7.41
770.63	7.5
770.945	7.16
771.26	7.23
771.575	7.02
771.89	7.31
772.205	7.5
772.52	7.47
772.834	7
773.149	7.24
773.464	7.27
773.778	6.98
774.093	6.44
774.407	6.46
774.722	6.46
775.036	6.34
775.351	6.83
775.665	6.74
775.979	6.76
776.293	6.47
776.608	6.2
776.922	6.46
777.236	6.7
777.55	7.1
777.864	7.03
778.178	7.2
778.492	7.1
778.806	6.84
779.12	7.08
779.434	7.43
779.747	7.4
780.061	7.45
780.375	7.61
780.689	7.79
781.002	8.18
781.316	8.5
781.629	8.48
781.943	8.22
782.256	8.21
782.57	8.24
782.883	8.37
783.196	8.47
783.51	8.18
783.823	7.68
784.136	7.97
784.449	7.85
784.762	7.84
785.075	8.03
785.388	8.42
785.701	8.19
786.014	8.16
786.327	8.26
786.64	8.37
786.953	8.69
787.266	8.82
787.578	8.43
787.891	8.32
788.204	8.15
788.516	8.59
788.829	9.02
789.141	9.21
789.454	8.8
789.766	9.05
790.079	9.42
790.391	9.55
790.703	9.32
791.016	9.27
791.328	9.22
791.64	8.96
791.952	8.64
792.264	8.37
792.576	8.02
792.888	7.92
793.2	8.05
793.512	7.35
793.824	7.38
794.136	7.42
794.448	7.19
794.76	7.17
795.071	6.64
795.383	6.09
795.695	5.49
796.006	5.84
796.318	5.88
796.629	5.71
796.941	5.6
797.252	5.61
797.564	6.19
797.875	6.08
798.186	6.03
798.497	6.02
798.809	6.07
799.12	6.08
799.431	5.68
799.742	5.72
800.053	5.94
800.364	5.66
800.675	6.06
800.986	6.15
801.297	5.95
801.608	6.24
801.918	6.54
802.229	7.18
802.54	7.4
802.851	6.95
803.161	6.91
803.472	6.97
803.782	6.79
804.093	6.42
804.403	7.07
804.714	7.27
805.024	7.42
805.334	7.61
805.645	8.41
805.955	9.37
806.265	9.73
806.575	9.49
806.885	9.78
807.195	9.67
807.505	10.31
807.815	10.69
808.125	10.19
808.435	10.47
808.745	10.21
809.055	10.14
809.365	10.36
809.674	10.31
809.984	10.24
810.294	9.77
810.603	10.02
810.913	9.99
811.222	10.22
811.532	10.43
811.841	10.76
812.151	10.54
812.46	9.43
812.769	8.25
813.079	8.32
813.388	8.63
813.697	8.3
814.006	7.93
814.315	7.95
814.624	8.71
814.933	8.32
815.242	8.31
815.551	8.37
815.86	8.66
816.169	8.4
816.478	8.59
816.786	9.24
817.095	8.86
817.404	8.34
817.712	7.88
818.021	7.85
818.33	7.93
818.638	7.89
818.947	8.64
819.255	9.49
819.563	9.66
819.872	9.53
820.18	9.47
820.488	9.31
820.796	9.23
821.105	9
821.413	8.93
821.721	8.92
822.029	8.86
822.337	8.69
822.645	8.75
822.953	8.64
823.26	8.61
823.568	8.71
823.876	8.88
824.184	8.89
824.491	8.8
824.799	8.66
825.107	8.61
825.414	8.49
825.722	8.37
826.029	8.4
826.337	8.59
826.644	8.6
826.951	8.6
827.259	8.68
827.566	8.74
827.873	8.96
828.18	9.04
828.488	8.91
828.795	9.03
829.102	9.2
829.409	9.56
829.716	9.53
830.023	9.46
830.329	9.08
830.636	9.39
830.943	9.33
831.25	9.6
831.557	9.88
831.863	9.97
832.17	9.49
832.476	9.49
832.783	8.65
833.089	8.74
833.396	9.19
833.702	9.24
834.009	9.32
834.315	9.06
834.621	8.91
834.928	9.34
835.234	9.39
835.54	9.11
835.846	8.73
836.152	8.94
836.458	8.91
836.764	9.01
837.07	8.92
837.376	8.78
837.682	8.89
837.988	8.97
838.293	8.96
838.599	9.34
838.905	8.86
839.211	9.56
839.516	9.36
839.822	9.41
840.127	8.84
840.433	8.79
840.738	9.2
841.044	8.9
841.349	7.69
841.654	7.6
841.959	7.35
842.265	7.93
842.57	8.08
842.875	8.21
843.18	8.15
843.485	7.48
843.79	8.69
844.095	8.79
844.4	8.48
844.705	7.77
845.01	8.25
845.315	9.52
845.619	10
845.924	10.07
846.229	9.62
846.533	10.4
846.838	8.88
847.142	8.54
847.447	9.09
847.751	10.91
848.056	10.89
848.36	13.09
848.664	12.9
848.969	12.41
849.273	12.04
849.577	12.31
849.881	12.41
850.185	15
850.489	13.13
850.794	12.23
851.097	13.95
851.401	13.51
851.705	11.71
852.009	10.77
852.313	11.62
852.617	10.83
852.92	12.32
853.224	14.18
853.528	12.68
853.831	13.51
854.135	12.63
854.438	13.29
854.742	12.74
855.045	12.56
855.349	11.57
855.652	11.18
855.955	11.18
856.259	10.77
856.562	7.3
856.865	7.49
857.168	7.38
857.471	6.77
857.774	7.86
858.077	10.84
858.38	12.61
858.683	11.88
858.986	12.33
859.289	10.33
859.592	11.1
859.894	13.23
860.197	11.32
860.5	12.03
860.802	11.24
861.105	11.62
861.407	12.69
861.71	13.51
862.012	15.89
862.315	14.59
862.617	15.96
862.919	15.6
863.222	15.23
863.524	17.02
863.826	17.94
864.128	17.84
864.43	14.44
864.732	15.09
865.034	15.13
865.336	14.04
865.638	13.69
865.94	11.15
866.242	10.51
866.544	13.59
866.846	14.3
867.147	14.17
867.449	14.97
867.751	14.89
868.052	16.04
868.354	16.24
868.655	19.72
868.957	19.27
869.258	17.25
869.56	18.97
869.861	17.29
870.162	16.11
870.463	18.25
870.765	20.76
871.066	18.66
871.367	18.13
871.668	15.81
871.969	17.67
872.27	20.72
872.571	21.11
872.872	19
873.173	18.1
873.473	18.87
873.774	17.79
874.075	18.28
874.376	17.35
874.676	16.32
874.977	12.8
875.277	13.11
875.578	15.39
875.878	14.43
876.179	15.85
876.479	16.83
876.78	13.68
877.08	13.43
877.38	13.02
877.68	14.4
877.981	19.34
878.281	18.13
878.581	17.47
