Data from BA28420_Reflection_00001.txt Node
Date: Mon Nov 18 16:08:12 EST 2019
User: vgr7
Spectrometer: USB2G7710
Scans to average: 3
Trigger mode: 4
Integration Time (sec): 2.000000E-2
Electric dark correction enabled: true
Boxcar width: 10
XAxis mode: Wavelengths
Number of Pixels in Spectrum: 2048
>>>>>Begin Spectral Data<<<<<
177.721	-35.61
178.105	322.22
178.488	-712.87
178.871	-59.13
179.254	-114.44
179.636	-3.17
180.019	-134.36
180.402	283.33
180.785	-320.88
181.168	-318.8
181.55	-716.09
181.933	174.14
182.316	144.64
182.698	207.27
183.081	272.14
183.463	196.67
183.846	188.44
184.228	150.03
184.611	200.35
184.993	225.8
185.376	274.97
185.758	-25122.22
186.14	873.46
186.522	1259.2
186.904	-797.44
187.287	1527.67
187.669	-1405.05
188.051	318.15
188.433	165.18
188.815	16.95
189.197	55.35
189.579	77.78
189.961	49.25
190.342	72.15
190.724	98.75
191.106	104.95
191.488	123.51
191.869	40.9
192.251	211.11
192.633	237.25
193.014	136.73
193.396	136.29
193.777	86.63
194.159	74.76
194.54	91.68
194.922	105.67
195.303	108.9
195.684	152.9
196.065	206.5
196.447	114.2
196.828	133.91
197.209	110.1
197.59	144.95
197.971	139.55
198.352	-121.6
198.733	-50.08
199.114	-16.58
199.495	2.87
199.876	2.95
200.257	11.98
200.638	36.02
201.018	46.84
201.399	54.66
201.78	25.2
202.16	23.45
202.541	13.94
202.922	3.9
203.302	3.72
203.683	0.64
204.063	-20.11
204.444	-24.38
204.824	-32.02
205.204	-32.63
205.585	-23.64
205.965	-23.66
206.345	-59.1
206.725	-117.72
207.106	-123.94
207.486	-320.99
207.866	-220.41
208.246	-177.24
208.626	-178.86
209.006	-170.78
209.386	-221.39
209.766	-124.66
210.145	-203.61
210.525	-70.33
210.905	-31.34
211.285	-52.88
211.664	-62.36
212.044	-61.58
212.424	-31.13
212.803	-18.4
213.183	-20.57
213.562	-3.55
213.942	6.11
214.321	14.13
214.701	32.19
215.08	15.01
215.459	30.33
215.838	19.8
216.218	0.85
216.597	29.96
216.976	50.84
217.355	48.64
217.734	35.98
218.113	34.94
218.492	53.32
218.871	45.86
219.25	55.54
219.629	41.92
220.008	16.85
220.387	10.47
220.766	2.98
221.144	0.86
221.523	-6.68
221.902	-27.15
222.28	-37.32
222.659	-33.19
223.037	-14.38
223.416	-25.19
223.794	-31.1
224.173	-28.31
224.551	-36.62
224.929	-39.21
225.308	-40.93
225.686	-36.11
226.064	-35.39
226.442	-33.1
226.821	-21.83
227.199	-18.43
227.577	-16.43
227.955	-14.47
228.333	-14.7
228.711	-7.59
229.089	-2.04
229.467	-5.45
229.845	-4.58
230.222	-1.14
230.6	-2.67
230.978	-5.49
231.356	-2.36
231.733	-3.28
232.111	0.25
232.488	0.57
232.866	0.49
233.243	1.66
233.621	1.49
233.998	-0.15
234.376	-1.32
234.753	-1.55
235.13	-2.04
235.508	0.91
235.885	0.84
236.262	-0.76
236.639	-2.18
237.016	-1.46
237.393	1.44
237.77	2.83
238.147	2.4
238.524	3.93
238.901	5.18
239.278	5.55
239.655	6.69
240.032	5.77
240.409	5.66
240.785	5.96
241.162	5.56
241.539	5.9
241.915	5.91
242.292	5.63
242.668	5.29
243.045	5.25
243.421	4.7
243.798	4.42
244.174	4.67
244.551	4.61
244.927	4.09
245.303	4.03
245.679	4.22
246.056	4.28
246.432	3.88
246.808	3.52
247.184	3.09
247.56	2.94
247.936	2.96
248.312	2.82
248.688	2.79
249.064	2.89
249.44	2.7
249.815	2.65
250.191	2.83
250.567	2.92
250.943	3
251.318	3.15
251.694	3.29
252.069	3.03
252.445	3.27
252.82	3.5
253.196	3.29
253.571	2.96
253.947	3.07
254.322	3.24
254.697	3.3
255.073	3.41
255.448	3.01
255.823	3.18
256.198	3.47
256.573	3.28
256.948	3.35
257.323	3.3
257.698	3.35
258.073	3.33
258.448	3.04
258.823	2.94
259.198	2.83
259.573	2.85
259.948	2.97
260.322	2.85
260.697	2.76
261.072	2.82
261.446	2.83
261.821	2.79
262.195	3
262.57	2.92
262.944	2.86
263.319	2.92
263.693	2.87
264.067	2.71
264.442	2.82
264.816	2.76
265.19	2.71
265.564	2.74
265.938	2.81
266.313	2.97
266.687	3.15
267.061	3.3
267.435	3.37
267.809	3.34
268.183	3.33
268.556	3.4
268.93	3.39
269.304	3.4
269.678	3.64
270.051	3.39
270.425	3.5
270.799	3.59
271.172	3.74
271.546	3.62
271.919	3.62
272.293	3.49
272.666	3.67
273.04	3.66
273.413	3.61
273.787	3.41
274.16	3.34
274.533	3.19
274.906	3.13
275.279	3.04
275.653	3.01
276.026	3.15
276.399	3.01
276.772	3.14
277.145	3.09
277.518	2.77
277.891	2.8
278.263	2.86
278.636	2.95
279.009	2.9
279.382	2.99
279.755	2.91
280.127	3.23
280.5	3.12
280.872	3.28
281.245	3.32
281.617	3.58
281.99	3.66
282.362	3.72
282.735	3.6
283.107	3.63
283.479	3.65
283.852	3.49
284.224	3.59
284.596	3.54
284.968	3.59
285.34	3.73
285.713	3.77
286.085	3.71
286.457	3.64
286.829	3.66
287.201	3.71
287.572	3.77
287.944	3.62
288.316	3.57
288.688	3.47
289.06	3.42
289.431	3.38
289.803	3.31
290.175	3.26
290.546	3.42
290.918	3.52
291.289	3.63
291.661	3.74
292.032	3.57
292.403	3.45
292.775	3.47
293.146	3.44
293.517	3.52
293.889	3.58
294.26	3.57
294.631	3.62
295.002	3.54
295.373	3.51
295.744	3.55
296.115	3.64
296.486	3.66
296.857	3.75
297.228	3.63
297.599	3.62
297.97	3.66
298.34	3.6
298.711	3.49
299.082	3.33
299.452	3.32
299.823	3.49
300.194	3.58
300.564	3.62
300.935	3.56
301.305	3.41
301.676	3.39
302.046	3.47
302.416	3.51
302.787	3.44
303.157	3.4
303.527	3.27
303.897	3.22
304.267	3.39
304.637	3.23
305.008	3.29
305.378	3.42
305.748	3.38
306.117	3.39
306.487	3.46
306.857	3.66
307.227	3.61
307.597	3.61
307.967	3.57
308.336	3.46
308.706	3.39
309.076	3.41
309.445	3.41
309.815	3.34
310.184	3.18
310.554	3.27
310.923	3.27
311.293	3.34
311.662	3.41
312.031	3.21
312.401	3.36
312.77	3.38
313.139	3.51
313.508	3.56
313.877	3.57
314.246	3.63
314.616	3.59
314.985	3.56
315.353	3.47
315.722	3.59
316.091	3.58
316.46	3.69
316.829	3.81
317.198	3.79
317.567	3.89
317.935	3.97
318.304	3.96
318.672	3.99
319.041	3.97
319.41	3.85
319.778	3.91
320.147	3.75
320.515	3.64
320.883	3.43
321.252	3.51
321.62	3.6
321.988	3.42
322.357	3.34
322.725	3.41
323.093	3.58
323.461	3.57
323.829	3.63
324.197	3.62
324.565	3.49
324.933	3.51
325.301	3.52
325.669	3.42
326.037	3.48
326.405	3.63
326.772	3.74
327.14	3.89
327.508	3.87
327.875	3.99
328.243	4.04
328.61	4.12
328.978	3.94
329.346	3.92
329.713	3.97
330.08	3.94
330.448	3.85
330.815	3.6
331.182	3.5
331.55	3.42
331.917	3.54
332.284	3.65
332.651	3.49
333.018	3.5
333.385	3.64
333.752	3.61
334.119	3.66
334.486	3.53
334.853	3.32
335.22	3.28
335.587	3.24
335.954	3.24
336.32	3.13
336.687	3.23
337.054	3.13
337.42	3.17
337.787	3.22
338.153	3.25
338.52	3.43
338.886	3.44
339.253	3.47
339.619	3.42
339.986	3.44
340.352	3.66
340.718	3.61
341.084	3.55
341.451	3.63
341.817	3.65
342.183	3.74
342.549	3.78
342.915	3.95
343.281	3.91
343.647	3.98
344.013	4.14
344.379	4.13
344.745	4.18
345.11	4.08
345.476	4.08
345.842	4.12
346.208	4.04
346.573	4.06
346.939	4.16
347.304	4.14
347.67	4.11
348.035	4.02
348.401	3.96
348.766	4
349.132	3.93
349.497	3.84
349.862	3.9
350.228	3.88
350.593	3.78
350.958	3.9
351.323	3.89
351.688	3.85
352.053	3.91
352.418	3.97
352.783	4.03
353.148	4
353.513	4.02
353.878	4.04
354.243	4.12
354.608	4.03
354.972	4.02
355.337	4.01
355.702	4.1
356.066	4.19
356.431	4.18
356.795	4.16
357.16	4.09
357.524	3.95
357.889	3.98
358.253	3.91
358.618	3.89
358.982	3.87
359.346	3.79
359.71	3.78
360.075	3.78
360.439	3.77
360.803	3.8
361.167	3.73
361.531	3.72
361.895	3.66
362.259	3.66
362.623	3.66
362.987	3.68
363.351	3.63
363.714	3.64
364.078	3.6
364.442	3.64
364.806	3.68
365.169	3.77
365.533	3.77
365.896	3.8
366.26	3.76
366.623	3.78
366.987	3.81
367.35	3.75
367.714	3.73
368.077	3.73
368.44	3.76
368.803	3.78
369.167	3.74
369.53	3.73
369.893	3.78
370.256	3.76
370.619	3.76
370.982	3.71
371.345	3.66
371.708	3.7
372.071	3.66
372.434	3.63
372.797	3.61
373.159	3.57
373.522	3.7
373.885	3.74
374.247	3.78
374.61	3.79
374.973	3.8
375.335	3.73
375.698	3.74
376.06	3.67
376.423	3.71
376.785	3.82
377.147	3.87
377.51	3.84
377.872	3.88
378.234	3.89
378.596	3.92
378.958	3.91
379.321	3.89
379.683	3.87
380.045	3.88
380.407	3.86
380.769	3.9
381.13	3.82
381.492	3.82
381.854	3.79
382.216	3.78
382.578	3.85
382.939	3.87
383.301	3.89
383.663	3.92
384.024	3.93
384.386	3.96
384.747	3.92
385.109	3.94
385.47	3.91
385.832	3.89
386.193	3.94
386.554	3.93
386.916	3.93
387.277	4.02
387.638	4.06
387.999	4.06
388.36	4.04
388.721	4.04
389.082	4.01
389.443	3.97
389.804	3.98
390.165	3.93
390.526	3.95
390.887	3.94
391.248	3.96
391.609	3.98
391.969	3.94
392.33	3.95
392.691	3.96
393.051	3.97
393.412	3.98
393.772	3.93
394.133	3.98
394.493	4
394.854	3.97
395.214	3.94
395.574	3.96
395.935	3.95
396.295	3.96
396.655	3.96
397.015	3.98
397.376	3.98
397.736	3.98
398.096	3.97
398.456	3.96
398.816	3.95
399.176	3.89
399.535	3.89
399.895	3.91
400.255	3.91
400.615	3.91
400.975	3.9
401.334	3.88
401.694	3.85
402.054	3.85
402.413	3.86
402.773	3.84
403.132	3.84
403.492	3.85
403.851	3.87
404.211	3.88
404.57	3.88
404.929	3.88
405.288	3.91
405.648	3.9
406.007	3.89
406.366	3.9
406.725	3.94
407.084	3.94
407.443	3.95
407.802	3.96
408.161	3.97
408.52	3.97
408.879	3.99
409.238	4
409.596	4.01
409.955	3.99
410.314	4.05
410.673	4.05
411.031	4.05
411.39	4.05
411.748	4.05
412.107	4.07
412.465	4.05
412.824	4.05
413.182	4.05
413.54	4.07
413.899	4.04
414.257	4.03
414.615	4.02
414.974	4.03
415.332	3.99
415.69	4
416.048	4
416.406	4.02
416.764	4.02
417.122	3.99
417.48	3.98
417.838	3.97
418.195	3.96
418.553	3.97
418.911	3.96
419.269	3.96
419.626	3.95
419.984	3.95
420.342	3.96
420.699	3.96
421.057	3.96
421.414	3.97
421.772	3.97
422.129	3.97
422.486	3.97
422.844	3.99
423.201	3.98
423.558	3.99
423.915	3.98
424.273	3.98
424.63	3.99
424.987	4
425.344	4
425.701	4
426.058	4.01
426.415	4.01
426.772	4.01
427.128	4.02
427.485	4.04
427.842	4.03
428.199	4.06
428.555	4.06
428.912	4.08
429.269	4.08
429.625	4.06
429.982	4.04
430.338	4.05
430.695	4.06
431.051	4.04
431.407	4.03
431.764	4.03
432.12	4.04
432.476	4.04
432.832	4.03
433.189	4.03
433.545	4.02
433.901	4.03
434.257	4.03
434.613	4.02
434.969	4.02
435.325	4.02
435.681	4.01
436.036	4.02
436.392	4.01
436.748	4.01
437.104	4
437.459	4
437.815	3.99
438.171	3.99
438.526	4
438.882	4.02
439.237	4.02
439.593	4.02
439.948	4.01
440.304	4
440.659	4.03
441.014	4.02
441.369	4
441.725	3.99
442.08	4
442.435	3.98
442.79	3.98
443.145	3.99
443.5	3.98
443.855	3.97
444.21	3.97
444.565	4
444.92	4.01
445.275	4.01
445.629	4.02
445.984	4.02
446.339	3.99
446.693	4
447.048	3.99
447.403	4
447.757	4.01
448.112	3.98
448.466	3.99
448.82	4.01
449.175	4.03
449.529	4.04
449.883	4.04
450.238	4.05
450.592	4.03
450.946	4.05
451.3	4.05
451.654	4.07
452.008	4.07
452.362	4.05
452.716	4.05
453.07	4.06
453.424	4.07
453.778	4.08
454.132	4.08
454.486	4.07
454.839	4.06
455.193	4.06
455.547	4.06
455.9	4.06
456.254	4.06
456.607	4.05
456.961	4.04
457.314	4.05
457.668	4.05
458.021	4.06
458.375	4.06
458.728	4.06
459.081	4.05
459.434	4.03
459.787	4.05
460.141	4.04
460.494	4.04
460.847	4.03
461.2	4.03
461.553	4.04
461.906	4.06
462.259	4.07
462.611	4.08
462.964	4.1
463.317	4.12
463.67	4.12
464.022	4.11
464.375	4.11
464.728	4.12
465.08	4.12
465.433	4.14
465.785	4.13
466.138	4.15
466.49	4.15
466.843	4.17
467.195	4.14
467.547	4.16
467.899	4.17
468.252	4.18
468.604	4.2
468.956	4.18
469.308	4.2
469.66	4.19
470.012	4.19
470.364	4.2
470.716	4.17
471.068	4.16
471.42	4.19
471.772	4.21
472.123	4.23
472.475	4.2
472.827	4.18
473.178	4.21
473.53	4.21
473.882	4.2
474.233	4.21
474.585	4.22
474.936	4.19
475.288	4.2
475.639	4.18
475.99	4.17
476.342	4.18
476.693	4.16
477.044	4.16
477.395	4.15
477.746	4.15
478.097	4.15
478.448	4.18
478.8	4.19
479.15	4.18
479.501	4.18
479.852	4.21
480.203	4.23
480.554	4.23
480.905	4.23
481.255	4.26
481.606	4.26
481.957	4.27
482.307	4.29
482.658	4.3
483.009	4.31
483.359	4.32
483.709	4.32
484.06	4.33
484.41	4.34
484.761	4.36
485.111	4.36
485.461	4.36
485.811	4.37
486.162	4.36
486.512	4.37
486.862	4.37
487.212	4.38
487.562	4.38
487.912	4.39
488.262	4.39
488.612	4.38
488.961	4.38
489.311	4.39
489.661	4.39
490.011	4.38
490.36	4.38
490.71	4.38
491.06	4.38
491.409	4.38
491.759	4.37
492.108	4.37
492.458	4.37
492.807	4.37
493.157	4.37
493.506	4.38
493.855	4.38
494.204	4.37
494.554	4.36
494.903	4.34
495.252	4.35
495.601	4.36
495.95	4.37
496.299	4.36
496.648	4.37
496.997	4.37
497.346	4.39
497.695	4.39
498.043	4.38
498.392	4.39
498.741	4.41
499.09	4.41
499.438	4.41
499.787	4.41
500.135	4.4
500.484	4.41
500.832	4.39
501.181	4.38
501.529	4.4
501.878	4.42
502.226	4.44
502.574	4.41
502.923	4.4
503.271	4.39
503.619	4.41
503.967	4.4
504.315	4.38
504.663	4.35
505.011	4.37
505.359	4.37
505.707	4.38
506.055	4.37
506.403	4.39
506.751	4.39
507.098	4.4
507.446	4.42
507.794	4.38
508.141	4.4
508.489	4.41
508.837	4.42
509.184	4.42
509.531	4.42
509.879	4.45
510.226	4.47
510.574	4.47
510.921	4.47
511.268	4.47
511.616	4.49
511.963	4.53
512.31	4.53
512.657	4.57
513.004	4.58
513.351	4.59
513.698	4.59
514.045	4.59
514.392	4.6
514.739	4.6
515.086	4.63
515.432	4.63
515.779	4.64
516.126	4.63
516.473	4.63
516.819	4.65
517.166	4.65
517.512	4.65
517.859	4.66
518.205	4.66
518.552	4.68
518.898	4.67
519.245	4.66
519.591	4.66
519.937	4.62
520.283	4.6
520.629	4.59
520.976	4.59
521.322	4.58
521.668	4.59
522.014	4.61
522.36	4.6
522.706	4.62
523.052	4.63
523.398	4.65
523.743	4.65
524.089	4.64
524.435	4.64
524.781	4.64
525.126	4.65
525.472	4.67
525.817	4.66
526.163	4.67
526.509	4.68
526.854	4.68
527.199	4.7
527.545	4.72
527.89	4.72
528.235	4.72
528.581	4.73
528.926	4.74
529.271	4.73
529.616	4.74
529.961	4.73
530.306	4.73
530.651	4.74
530.996	4.75
531.341	4.75
531.686	4.75
532.031	4.76
532.376	4.76
532.721	4.77
533.065	4.77
533.41	4.75
533.755	4.75
534.099	4.76
534.444	4.77
534.788	4.78
535.133	4.79
535.477	4.79
535.822	4.79
536.166	4.77
536.51	4.78
536.855	4.79
537.199	4.81
537.543	4.82
537.887	4.82
538.231	4.81
538.576	4.81
538.92	4.82
539.264	4.82
539.608	4.82
539.951	4.81
540.295	4.82
540.639	4.86
540.983	4.85
541.327	4.84
541.671	4.84
542.014	4.82
542.358	4.82
542.701	4.82
543.045	4.82
543.389	4.83
543.732	4.81
544.075	4.82
544.419	4.81
544.762	4.81
545.105	4.8
545.449	4.8
545.792	4.8
546.135	4.8
546.478	4.81
546.821	4.8
547.165	4.79
547.508	4.8
547.851	4.79
548.194	4.79
548.536	4.78
548.879	4.79
549.222	4.81
549.565	4.81
549.908	4.83
550.25	4.85
550.593	4.85
550.936	4.84
551.278	4.83
551.621	4.84
551.963	4.85
552.306	4.87
552.648	4.88
552.991	4.92
553.333	4.94
553.675	4.95
554.017	4.97
554.36	5
554.702	5.03
555.044	5.02
555.386	5.05
555.728	5.05
556.07	5.06
556.412	5.03
556.754	5.04
557.096	5.04
557.438	5.02
557.78	5.05
558.121	5.08
558.463	5.06
558.805	5.04
559.147	5.02
559.488	5.01
559.83	5
560.171	4.98
560.513	4.99
560.854	4.99
561.196	4.98
561.537	4.98
561.878	4.95
562.22	4.96
562.561	4.92
562.902	4.95
563.243	4.94
563.584	4.98
563.925	5
564.266	5
564.607	5.01
564.948	5.03
565.289	5.03
565.63	5.09
565.971	5.12
566.312	5.13
566.653	5.14
566.993	5.15
567.334	5.15
567.675	5.13
568.015	5.13
568.356	5.13
568.696	5.11
569.037	5.13
569.377	5.12
569.718	5.13
570.058	5.12
570.398	5.14
570.739	5.12
571.079	5.12
571.419	5.13
571.759	5.14
572.099	5.12
572.439	5.11
572.779	5.08
573.119	5.09
573.459	5.09
573.799	5.11
574.139	5.12
574.479	5.13
574.819	5.15
575.158	5.16
575.498	5.15
575.838	5.17
576.177	5.15
576.517	5.14
576.856	5.15
577.196	5.17
577.535	5.15
577.875	5.18
578.214	5.17
578.553	5.17
578.893	5.13
579.232	5.15
579.571	5.18
579.91	5.16
580.25	5.16
580.589	5.18
580.928	5.14
581.267	5.13
581.606	5.1
581.945	5.08
582.283	5.06
582.622	5.09
582.961	5.1
583.3	5.11
583.639	5.15
583.977	5.17
584.316	5.14
584.654	5.14
584.993	5.15
585.332	5.13
585.67	5.17
586.008	5.19
586.347	5.18
586.685	5.19
587.024	5.22
587.362	5.25
587.7	5.25
588.038	5.27
588.376	5.3
588.715	5.34
589.053	5.36
589.391	5.39
589.729	5.4
590.067	5.37
590.404	5.39
590.742	5.43
591.08	5.41
591.418	5.45
591.756	5.43
592.093	5.42
592.431	5.43
592.769	5.42
593.106	5.44
593.444	5.41
593.781	5.41
594.119	5.43
594.456	5.44
594.793	5.41
595.131	5.4
595.468	5.41
595.805	5.39
596.143	5.39
596.48	5.37
596.817	5.38
597.154	5.39
597.491	5.4
597.828	5.4
598.165	5.38
598.502	5.37
598.839	5.42
599.176	5.43
599.512	5.46
599.849	5.46
600.186	5.48
600.523	5.53
600.859	5.53
601.196	5.54
601.532	5.49
601.869	5.49
602.205	5.52
602.542	5.52
602.878	5.5
603.215	5.45
603.551	5.44
603.887	5.43
604.223	5.4
604.56	5.44
604.896	5.44
605.232	5.49
605.568	5.51
605.904	5.5
606.24	5.52
606.576	5.48
606.912	5.46
607.248	5.46
607.583	5.46
607.919	5.46
608.255	5.47
608.591	5.46
608.926	5.49
609.262	5.48
609.597	5.47
609.933	5.52
610.268	5.58
610.604	5.59
610.939	5.58
611.275	5.63
611.61	5.61
611.945	5.63
612.281	5.61
612.616	5.58
612.951	5.55
613.286	5.54
613.621	5.54
613.956	5.55
614.291	5.55
614.626	5.55
614.961	5.52
615.296	5.5
615.631	5.53
615.966	5.51
616.3	5.52
616.635	5.49
616.97	5.46
617.304	5.44
617.639	5.46
617.973	5.44
618.308	5.4
618.642	5.38
618.977	5.31
619.311	5.29
619.646	5.31
619.98	5.38
620.314	5.33
620.648	5.41
620.983	5.48
621.317	5.48
621.651	5.47
621.985	5.48
622.319	5.49
622.653	5.53
622.987	5.57
623.321	5.58
623.655	5.64
623.988	5.66
624.322	5.71
624.656	5.7
624.99	5.77
625.323	5.83
625.657	5.86
625.99	5.9
626.324	5.94
626.657	5.93
626.991	5.9
627.324	5.91
627.658	5.93
627.991	5.89
628.324	5.92
628.657	5.91
628.991	5.94
629.324	5.95
629.657	5.97
629.99	5.96
630.323	5.97
630.656	5.98
630.989	5.99
631.322	6.04
631.655	6.07
631.987	6.07
632.32	6.05
632.653	6
632.986	6.02
633.318	6.04
633.651	6.05
633.984	6.02
634.316	6.08
634.649	6.07
634.981	6.02
635.313	6.02
635.646	6.02
635.978	5.98
636.31	5.97
636.643	5.96
636.975	5.94
637.307	5.9
637.639	5.89
637.971	5.89
638.303	5.84
638.635	5.83
638.967	5.84
639.299	5.86
639.631	5.92
639.963	5.89
640.295	5.88
640.626	5.97
640.958	6.03
641.29	6.04
641.621	6.04
641.953	6.06
642.285	6.07
642.616	6.14
642.948	6.15
643.279	6.2
643.61	6.21
643.942	6.26
644.273	6.31
644.604	6.32
644.936	6.29
645.267	6.29
645.598	6.31
645.929	6.32
646.26	6.33
646.591	6.35
646.922	6.3
647.253	6.31
647.584	6.23
647.915	6.18
648.245	6.18
648.576	6.21
648.907	6.27
649.238	6.23
649.568	6.2
649.899	6.21
650.229	6.2
650.56	6.19
650.89	6.16
651.221	6.12
651.551	6.06
651.882	6.11
652.212	6.1
652.542	6.07
652.872	6.07
653.203	6.07
653.533	6.03
653.863	6.14
654.193	6.11
654.523	6.14
654.853	6.2
655.183	6.21
655.513	6.17
655.843	6.19
656.172	6.21
656.502	6.28
656.832	6.35
657.162	6.39
657.491	6.36
657.821	6.36
658.15	6.42
658.48	6.44
658.809	6.41
659.139	6.42
659.468	6.43
659.798	6.44
660.127	6.4
660.456	6.46
660.785	6.5
661.115	6.53
661.444	6.56
661.773	6.55
662.102	6.58
662.431	6.63
662.76	6.57
663.089	6.6
663.418	6.53
663.747	6.48
664.076	6.47
664.404	6.53
664.733	6.65
665.062	6.63
665.39	6.66
665.719	6.65
666.048	6.59
666.376	6.74
666.705	6.7
667.033	6.75
667.362	6.71
667.69	6.64
668.018	6.62
668.347	6.59
668.675	6.58
669.003	6.5
669.331	6.46
669.659	6.56
669.987	6.5
670.315	6.59
670.643	6.61
670.971	6.56
671.299	6.61
671.627	6.52
671.955	6.51
672.283	6.54
672.61	6.61
672.938	6.69
673.266	6.62
673.593	6.72
673.921	6.69
674.249	6.65
674.576	6.66
674.904	6.57
675.231	6.57
675.558	6.56
675.886	6.61
676.213	6.61
676.54	6.56
676.867	6.64
677.195	6.62
677.522	6.59
677.849	6.65
678.176	6.54
678.503	6.57
678.83	6.59
679.157	6.58
679.484	6.57
679.81	6.56
680.137	6.46
680.464	6.41
680.791	6.46
681.117	6.49
681.444	6.53
681.771	6.63
682.097	6.66
682.424	6.7
682.75	6.71
683.077	6.75
683.403	6.82
683.729	6.82
684.056	6.85
684.382	6.82
684.708	6.78
685.034	6.77
685.36	6.78
685.686	6.75
686.012	6.78
686.339	6.82
686.664	6.81
686.99	6.91
687.316	6.84
687.642	6.88
687.968	6.94
688.294	6.96
688.619	7.03
688.945	6.98
689.271	6.93
689.596	6.82
689.922	6.77
690.247	6.66
690.573	6.59
690.898	6.53
691.224	6.63
691.549	6.62
691.874	6.62
692.2	6.6
692.525	6.59
692.85	6.58
693.175	6.6
693.5	6.62
693.825	6.64
694.15	6.66
694.475	6.7
694.8	6.67
695.125	6.63
695.45	6.51
695.775	6.53
696.099	6.6
696.424	6.71
696.749	6.76
697.073	6.8
697.398	6.89
697.723	6.96
698.047	6.88
698.372	6.93
698.696	7.04
699.02	6.98
699.345	7
699.669	7.13
699.993	7.09
700.318	7.14
700.642	7.1
700.966	7.15
701.29	7.11
701.614	7.09
701.938	7.06
702.262	7.23
702.586	7.22
702.91	7.11
703.234	7.15
703.557	7.17
703.881	7.15
704.205	7.11
704.529	7.06
704.852	7.14
705.176	7.19
705.499	7.21
705.823	7.31
706.146	7.28
706.47	7.15
706.793	7.14
707.117	7.12
707.44	7.06
707.763	7.11
708.086	7.07
708.409	7.08
708.733	7.27
709.056	7.2
709.379	7.39
709.702	7.45
710.025	7.41
710.348	7.43
710.671	7.47
710.993	7.51
711.316	7.52
711.639	7.55
711.962	7.49
712.284	7.46
712.607	7.55
712.93	7.6
713.252	7.53
713.575	7.49
713.897	7.38
714.22	7.44
714.542	7.39
714.864	7.48
715.187	7.48
715.509	7.4
715.831	7.43
716.153	7.39
716.475	7.52
716.798	7.59
717.12	7.56
717.442	7.61
717.764	7.6
718.085	7.47
718.407	7.5
718.729	7.69
719.051	7.75
719.373	7.61
719.695	7.57
720.016	7.64
720.338	7.57
720.659	7.74
720.981	7.71
721.302	7.79
721.624	7.81
721.945	7.78
722.267	7.8
722.588	7.62
722.909	7.43
723.231	7.37
723.552	7.35
723.873	7.43
724.194	7.4
724.515	7.48
724.836	7.57
725.157	7.79
725.478	7.4
725.799	7.38
726.12	7.35
726.441	7.59
726.762	7.55
727.083	7.77
727.403	7.78
727.724	7.87
728.045	7.92
728.365	7.88
728.686	7.83
729.006	7.69
729.327	7.77
729.647	7.89
729.967	7.9
730.288	7.9
730.608	7.88
730.928	7.97
731.249	7.85
731.569	8.06
731.889	7.79
732.209	7.86
732.529	7.7
732.849	7.84
733.169	7.72
733.489	7.92
733.809	8.09
734.129	8.18
734.448	8.3
734.768	8.13
735.088	8.15
735.408	8.32
735.727	8.55
736.047	8.58
736.366	8.62
736.686	8.58
737.005	8.83
737.325	8.84
737.644	8.89
737.963	9.08
738.283	8.91
738.602	9.05
738.921	9.26
739.24	9.58
739.56	9.54
739.879	9.48
740.198	9.36
740.517	9.21
740.836	9.01
741.155	8.93
741.473	9.18
741.792	9.17
742.111	9.22
742.43	9.09
742.748	9.06
743.067	9.13
743.386	9.27
743.704	9.05
744.023	9.13
744.341	9.05
744.66	9.11
744.978	9.01
745.297	8.92
745.615	8.88
745.933	8.68
746.252	8.94
746.57	9.09
746.888	9.01
747.206	9.06
747.524	9.21
747.842	9.46
748.16	9.6
748.478	9.68
748.796	9.66
749.114	9.89
749.432	10.11
749.749	9.98
750.067	9.86
750.385	9.73
750.703	9.61
751.02	9.46
751.338	9.4
751.655	9.35
751.973	9.47
752.29	9.63
752.608	9.65
752.925	9.36
753.242	9.24
753.56	9.2
753.877	8.94
754.194	8.91
754.511	8.71
754.828	8.33
755.145	8.09
755.462	7.98
755.779	7.95
756.096	7.75
756.413	7.69
756.73	7.81
757.047	7.89
757.364	7.96
757.68	8.09
757.997	8.02
758.314	8.21
758.63	8.05
758.947	7.94
759.264	7.77
759.58	7.9
759.896	8.04
760.213	8.1
760.529	8.35
760.846	8.26
761.162	8.13
761.478	8.33
761.794	8.52
762.11	8.6
762.426	8.57
762.743	8.8
763.059	8.81
763.375	8.85
763.69	9.05
764.006	9.12
764.322	9.3
764.638	9.41
764.954	9.42
765.27	9.49
765.585	9.57
765.901	9.75
766.216	9.78
766.532	9.81
766.848	9.87
767.163	9.89
767.478	10.25
767.794	10.25
768.109	10.39
768.424	10.51
768.74	10.6
769.055	10.52
769.37	10.35
769.685	10.45
770	10.57
770.315	10.35
770.63	10.36
770.945	9.95
771.26	9.93
771.575	10.12
771.89	10.08
772.205	10.02
772.52	10.14
772.834	9.95
773.149	10.07
773.464	9.84
773.778	9.78
774.093	9.29
774.407	9.7
774.722	9.42
775.036	9.44
775.351	9.67
775.665	9.6
775.979	9.52
776.293	9.74
776.608	9.63
776.922	9.52
777.236	9.44
777.55	9.8
777.864	9.57
778.178	9.32
778.492	9.98
778.806	9.96
779.12	10.19
779.434	10.35
779.747	10.03
780.061	10.09
780.375	9.88
780.689	10.14
781.002	10
781.316	10.28
781.629	10.36
781.943	10.16
782.256	10.33
782.57	10.45
782.883	10.37
783.196	10.3
783.51	10.34
783.823	10.49
784.136	10.49
784.449	11.01
784.762	11.48
785.075	10.99
785.388	11.17
785.701	10.98
786.014	10.95
786.327	10.9
786.64	11.65
786.953	12.18
787.266	11.83
787.578	11.56
787.891	11.84
788.204	11.65
788.516	11.74
788.829	11.94
789.141	12.11
789.454	12.01
789.766	12.43
790.079	12.5
790.391	12.26
790.703	12.23
791.016	11.74
791.328	11.73
791.64	11.52
791.952	11.64
792.264	11.53
792.576	11.86
792.888	12.34
793.2	12.2
793.512	11.78
793.824	11.9
794.136	12.45
794.448	12.18
794.76	11.86
795.071	11.69
795.383	11.58
795.695	11.48
796.006	11.45
796.318	11.03
796.629	10.93
796.941	11.18
797.252	11.13
797.564	11.57
797.875	11.39
798.186	11.35
798.497	11.12
798.809	11.13
799.12	11.07
799.431	11.15
799.742	10.89
800.053	10.95
800.364	11.48
800.675	10.84
800.986	10.7
801.297	10.8
801.608	11.08
801.918	11.19
802.229	10.99
802.54	10.54
802.851	10.59
803.161	10.96
803.472	10.72
803.782	10.87
804.093	10.49
804.403	10.42
804.714	10.97
805.024	10.6
805.334	10.8
805.645	10.95
805.955	11.4
806.265	11.66
806.575	11.46
806.885	11.24
807.195	11.76
807.505	11.53
807.815	11.8
808.125	11.59
808.435	11.74
808.745	12.37
809.055	13.26
809.365	13.41
809.674	12.98
809.984	13.88
810.294	13.68
810.603	14.11
810.913	15.05
811.222	14.81
811.532	15.43
811.841	15.66
812.151	15.51
812.46	14.36
812.769	14.25
813.079	14.93
813.388	14.78
813.697	14.76
814.006	15.39
814.315	15.69
814.624	15.79
814.933	15.57
815.242	15.3
815.551	15.32
815.86	15.75
816.169	15.96
816.478	15.22
816.786	15.33
817.095	15.34
817.404	14.28
817.712	14.3
818.021	14.34
818.33	13.83
818.638	13.56
818.947	13.86
819.255	13.75
819.563	13.36
819.872	13.17
820.18	13.3
820.488	13.05
820.796	12.87
821.105	12.61
821.413	12.37
821.721	12.17
822.029	12.04
822.337	11.82
822.645	11.87
822.953	11.94
823.26	11.92
823.568	11.81
823.876	12.08
824.184	12.07
824.491	12.05
824.799	12.2
825.107	12.24
825.414	12.37
825.722	12.37
826.029	12.5
826.337	12.53
826.644	12.48
826.951	12.54
827.259	12.59
827.566	12.81
827.873	12.83
828.18	13.04
828.488	13.26
828.795	13.27
829.102	13.52
829.409	13.74
829.716	13.85
830.023	14.06
830.329	13.66
830.636	13.71
830.943	13.8
831.25	13.81
831.557	14.01
831.863	13.67
832.17	13.64
832.476	13.55
832.783	13.6
833.089	13.34
833.396	13.31
833.702	13.52
834.009	13.71
834.315	14.14
834.621	14.35
834.928	14.32
835.234	14.76
835.54	14.12
835.846	13.78
836.152	13.78
836.458	13.66
836.764	13.83
837.07	14.01
837.376	13.62
837.682	13.13
837.988	13.07
838.293	12.79
838.599	13.01
838.905	12.64
839.211	12.51
839.516	12.65
839.822	13.08
840.127	12.67
840.433	12.48
840.738	11.99
841.044	11.19
841.349	11.45
841.654	10.83
841.959	11.35
842.265	11.2
842.57	11.4
842.875	11.79
843.18	12.1
843.485	11.69
843.79	12.01
844.095	12.16
844.4	12.91
844.705	13.9
845.01	13.9
845.315	13.91
845.619	14.91
845.924	14.96
846.229	14.22
846.533	14.07
846.838	14.04
847.142	13.96
847.447	12.92
847.751	11.92
848.056	11.3
848.36	10.87
848.664	11.61
848.969	12.74
849.273	12.01
849.577	9.69
849.881	9.23
850.185	10.04
850.489	12.41
850.794	10.14
851.097	10.28
851.401	9.48
851.705	10.88
852.009	10.8
852.313	12.56
852.617	12.87
852.92	15.17
853.224	13.35
853.528	15.64
853.831	16.81
854.135	17.21
854.438	18
854.742	20.45
855.045	20.5
855.349	19.51
855.652	19.08
855.955	22.04
856.259	22.03
856.562	21.41
856.865	19.82
857.168	21.61
857.471	20.44
857.774	22.32
858.077	21.78
858.38	22.36
858.683	21.46
858.986	21.1
859.289	20.3
859.592	20.94
859.894	18.36
860.197	17.81
860.5	17.39
860.802	18.18
861.105	18.68
861.407	19.53
861.71	20.38
862.012	20.63
862.315	19.6
862.617	20.4
862.919	20.45
863.222	20.82
863.524	20.2
863.826	20.73
864.128	20.35
864.43	19.52
864.732	19.27
865.034	18.67
865.336	18.79
865.638	15.57
865.94	16.77
866.242	18.47
866.544	19.46
866.846	19.96
867.147	19.92
867.449	15.91
867.751	14.24
868.052	12.66
868.354	13.32
868.655	13.3
868.957	13.56
869.258	14.03
869.56	12.09
869.861	11.18
870.162	12.5
870.463	12.23
870.765	11.24
871.066	9.63
871.367	8.53
871.668	7.73
871.969	8.82
872.27	8.25
872.571	9.03
872.872	9.58
873.173	8.51
873.473	7.74
873.774	9.24
874.075	10.99
874.376	8.3
874.676	8.75
874.977	8.2
875.277	7.44
875.578	8.16
875.878	8.57
876.179	8.85
876.479	6.6
876.78	4.5
877.08	6.89
877.38	7.36
877.68	8.84
877.981	10.1
878.281	12.21
878.581	12.44
