Data from BA28305_Reflection_00009.txt Node
Date: Mon Nov 18 15:57:04 EST 2019
User: vgr7
Spectrometer: USB2G7710
Scans to average: 3
Trigger mode: 4
Integration Time (sec): 2.000000E-2
Electric dark correction enabled: true
Boxcar width: 10
XAxis mode: Wavelengths
Number of Pixels in Spectrum: 2048
>>>>>Begin Spectral Data<<<<<
177.721	237.44
178.105	363.16
178.488	389.72
178.871	-189.47
179.254	92.48
179.636	37.5
180.019	175.14
180.402	78.26
180.785	46.64
181.168	-50.94
181.55	-3.45
181.933	70.41
182.316	63.56
182.698	51.32
183.081	31.93
183.463	22.39
183.846	31.62
184.228	10.08
184.611	14.29
184.993	-18.85
185.376	-44.22
185.758	-69.16
186.14	-50.1
186.522	-76.47
186.904	-186.43
187.287	-26.55
187.669	-122.93
188.051	11.88
188.433	-24.26
188.815	-259.22
189.197	-429.41
189.579	135.9
189.961	242.86
190.342	239.66
190.724	122.33
191.106	45.9
191.488	16.91
191.869	-11.53
192.251	-13.12
192.633	1.38
193.014	-10.87
193.396	-38.66
193.777	-64.11
194.159	-91.4
194.54	-141.19
194.922	-208.64
195.303	-235.97
195.684	-119.51
196.065	-104.82
196.447	-90.33
196.828	-95.07
197.209	-114.42
197.59	-171.71
197.971	-133.68
198.352	-67.84
198.733	-71.39
199.114	-26.16
199.495	2.9
199.876	12.8
200.257	-6.65
200.638	-48.3
201.018	-66.99
201.399	-39.68
201.78	-11.33
202.16	8.87
202.541	-1.57
202.922	-74.04
203.302	-42.86
203.683	-77.83
204.063	-91.69
204.444	-74.79
204.824	-191.14
205.204	-212
205.585	-171.32
205.965	-139.02
206.345	-1095.12
206.725	491.3
207.106	251.19
207.486	169.9
207.866	173.72
208.246	127.38
208.626	136.32
209.006	520.69
209.386	306.35
209.766	715.89
210.145	-454.01
210.525	-298.12
210.905	-144.38
211.285	-102.4
211.664	-82.85
212.044	-63.64
212.424	-95.02
212.803	-75.36
213.183	-64.14
213.562	-37.21
213.942	-18.38
214.321	6.88
214.701	16.33
215.08	31.49
215.459	50.92
215.838	43.12
216.218	35.26
216.597	28.03
216.976	48.47
217.355	47.74
217.734	49.48
218.113	90.62
218.492	77.92
218.871	106.03
219.25	64.65
219.629	41.5
220.008	13.2
220.387	14.34
220.766	15.31
221.144	1.1
221.523	-63.3
221.902	-152.23
222.28	-574.42
222.659	-305.62
223.037	-308.93
223.416	-1048.76
223.794	-478.18
224.173	-324.16
224.551	-173.03
224.929	-101.15
225.308	-59.85
225.686	-52.35
226.064	-40.68
226.442	-35.49
226.821	-27.14
227.199	-16.77
227.577	-13.23
227.955	-7.79
228.333	-2.86
228.711	-2.02
229.089	0.98
229.467	2.62
229.845	0.48
230.222	2.61
230.6	1.83
230.978	-0.04
231.356	4.54
231.733	4.89
232.111	6.5
232.488	4.54
232.866	7.74
233.243	6.55
233.621	5.56
233.998	5.9
234.376	4.56
234.753	4.18
235.13	3.56
235.508	3.93
235.885	4.4
236.262	2.68
236.639	1.9
237.016	1.03
237.393	2.41
237.77	3.02
238.147	2.83
238.524	3.96
238.901	5
239.278	4.9
239.655	5.49
240.032	5.1
240.409	5.36
240.785	4.04
241.162	4.09
241.539	4.33
241.915	3.69
242.292	3.73
242.668	3.56
243.045	3.29
243.421	3.2
243.798	3.17
244.174	3.14
244.551	3.26
244.927	3.36
245.303	3.22
245.679	3.28
246.056	3.07
246.432	2.84
246.808	2.84
247.184	2.61
247.56	2.35
247.936	2.17
248.312	1.98
248.688	2.29
249.064	2.09
249.44	2.29
249.815	2.47
250.191	2.48
250.567	2.51
250.943	2.54
251.318	2.67
251.694	2.45
252.069	2.61
252.445	2.52
252.82	2.43
253.196	2.5
253.571	2.41
253.947	2.54
254.322	2.64
254.697	2.55
255.073	2.19
255.448	2.4
255.823	2.45
256.198	2.66
256.573	2.3
256.948	2.64
257.323	2.47
257.698	2.44
258.073	2.55
258.448	2.48
258.823	2.48
259.198	2.18
259.573	2.28
259.948	2.11
260.322	2.24
260.697	2.28
261.072	2.3
261.446	2.4
261.821	2.36
262.195	2.36
262.57	2.3
262.944	2.44
263.319	2.18
263.693	2.07
264.067	2.01
264.442	2.13
264.816	1.99
265.19	1.93
265.564	1.94
265.938	1.79
266.313	1.78
266.687	1.81
267.061	2.09
267.435	1.98
267.809	1.9
268.183	1.69
268.556	1.49
268.93	1.51
269.304	1.48
269.678	1.71
270.051	1.67
270.425	1.74
270.799	1.75
271.172	1.95
271.546	1.96
271.919	1.98
272.293	1.99
272.666	2
273.04	2.15
273.413	2.24
273.787	2.25
274.16	2.17
274.533	2.11
274.906	1.91
275.279	1.93
275.653	2
276.026	2.06
276.399	2.3
276.772	2.37
277.145	2.35
277.518	2.22
277.891	2.29
278.263	2.38
278.636	2.37
279.009	2.45
279.382	2.63
279.755	2.48
280.127	2.66
280.5	2.64
280.872	2.52
281.245	2.5
281.617	2.55
281.99	2.7
282.362	2.74
282.735	2.72
283.107	2.86
283.479	3.06
283.852	3.09
284.224	3.17
284.596	3.06
284.968	3.05
285.34	2.99
285.713	3.02
286.085	2.94
286.457	3.03
286.829	3.04
287.201	3.02
287.572	3.12
287.944	2.93
288.316	2.91
288.688	2.91
289.06	2.82
289.431	2.9
289.803	2.85
290.175	2.91
290.546	3.15
290.918	3.1
291.289	3.04
291.661	3.11
292.032	2.97
292.403	2.95
292.775	3.08
293.146	3.02
293.517	2.97
293.889	2.92
294.26	2.85
294.631	2.88
295.002	2.9
295.373	2.86
295.744	2.86
296.115	2.96
296.486	2.91
296.857	2.94
297.228	2.84
297.599	2.93
297.97	2.9
298.34	2.8
298.711	2.8
299.082	2.78
299.452	2.7
299.823	2.74
300.194	2.8
300.564	2.78
300.935	2.86
301.305	2.78
301.676	2.86
302.046	2.85
302.416	2.85
302.787	2.83
303.157	2.84
303.527	2.92
303.897	2.85
304.267	2.98
304.637	3.1
305.008	3.12
305.378	3.2
305.748	3.23
306.117	3.16
306.487	3.34
306.857	3.37
307.227	3.54
307.597	3.52
307.967	3.51
308.336	3.46
308.706	3.43
309.076	3.57
309.445	3.55
309.815	3.59
310.184	3.54
310.554	3.53
310.923	3.58
311.293	3.6
311.662	3.67
312.031	3.64
312.401	3.61
312.77	3.76
313.139	3.63
313.508	3.64
313.877	3.72
314.246	3.71
314.616	3.68
314.985	3.67
315.353	3.62
315.722	3.55
316.091	3.53
316.46	3.55
316.829	3.53
317.198	3.7
317.567	3.49
317.935	3.47
318.304	3.54
318.672	3.52
319.041	3.64
319.41	3.62
319.778	3.59
320.147	3.51
320.515	3.43
320.883	3.59
321.252	3.6
321.62	3.66
321.988	3.68
322.357	3.71
322.725	3.6
323.093	3.72
323.461	3.85
323.829	3.81
324.197	3.94
324.565	3.99
324.933	3.9
325.301	4.16
325.669	4.14
326.037	4.08
326.405	4.16
326.772	4.04
327.14	4.01
327.508	4.13
327.875	4.18
328.243	4.29
328.61	4.1
328.978	4.13
329.346	4.25
329.713	4.23
330.08	4.21
330.448	4.12
330.815	4.08
331.182	3.95
331.55	4.04
331.917	4.06
332.284	4.13
332.651	4.13
333.018	4.12
333.385	4.03
333.752	4.14
334.119	4.03
334.486	4.12
334.853	4.03
335.22	3.96
335.587	4.01
335.954	3.91
336.32	4.03
336.687	4.2
337.054	4.12
337.42	4.04
337.787	4.04
338.153	4.11
338.52	4.16
338.886	4.14
339.253	4.03
339.619	4
339.986	3.89
340.352	3.96
340.718	3.89
341.084	3.99
341.451	4.04
341.817	4.11
342.183	4.09
342.549	4.12
342.915	4.28
343.281	4.22
343.647	4.27
344.013	4.21
344.379	4.14
344.745	4.2
345.11	4.18
345.476	4.2
345.842	4.25
346.208	4.28
346.573	4.4
346.939	4.48
347.304	4.51
347.67	4.49
348.035	4.41
348.401	4.49
348.766	4.58
349.132	4.61
349.497	4.67
349.862	4.77
350.228	4.81
350.593	4.68
350.958	4.73
351.323	4.73
351.688	4.76
352.053	4.71
352.418	4.69
352.783	4.73
353.148	4.66
353.513	4.61
353.878	4.49
354.243	4.49
354.608	4.45
354.972	4.46
355.337	4.51
355.702	4.54
356.066	4.56
356.431	4.47
356.795	4.44
357.16	4.37
357.524	4.32
357.889	4.3
358.253	4.37
358.618	4.41
358.982	4.32
359.346	4.31
359.71	4.28
360.075	4.23
360.439	4.23
360.803	4.31
361.167	4.34
361.531	4.38
361.895	4.37
362.259	4.39
362.623	4.32
362.987	4.3
363.351	4.27
363.714	4.25
364.078	4.25
364.442	4.21
364.806	4.22
365.169	4.23
365.533	4.29
365.896	4.29
366.26	4.24
366.623	4.31
366.987	4.37
367.35	4.4
367.714	4.46
368.077	4.45
368.44	4.38
368.803	4.39
369.167	4.35
369.53	4.33
369.893	4.38
370.256	4.39
370.619	4.35
370.982	4.38
371.345	4.29
371.708	4.27
372.071	4.16
372.434	4.11
372.797	3.98
373.159	3.91
373.522	3.83
373.885	3.82
374.247	3.81
374.61	3.78
374.973	3.74
375.335	3.69
375.698	3.66
376.06	3.65
376.423	3.59
376.785	3.62
377.147	3.63
377.51	3.56
377.872	3.6
378.234	3.53
378.596	3.52
378.958	3.51
379.321	3.47
379.683	3.54
380.045	3.55
380.407	3.6
380.769	3.6
381.13	3.59
381.492	3.57
381.854	3.51
382.216	3.48
382.578	3.43
382.939	3.38
383.301	3.37
383.663	3.38
384.024	3.38
384.386	3.38
384.747	3.4
385.109	3.36
385.47	3.27
385.832	3.32
386.193	3.31
386.554	3.32
386.916	3.36
387.277	3.33
387.638	3.32
387.999	3.29
388.36	3.26
388.721	3.27
389.082	3.3
389.443	3.28
389.804	3.23
390.165	3.23
390.526	3.24
390.887	3.2
391.248	3.17
391.609	3.14
391.969	3.12
392.33	3.09
392.691	3.1
393.051	3.1
393.412	3.08
393.772	3.06
394.133	3.01
394.493	2.98
394.854	2.95
395.214	2.93
395.574	2.93
395.935	2.93
396.295	2.91
396.655	2.85
397.015	2.84
397.376	2.86
397.736	2.84
398.096	2.83
398.456	2.84
398.816	2.85
399.176	2.88
399.535	2.86
399.895	2.8
400.255	2.8
400.615	2.8
400.975	2.81
401.334	2.76
401.694	2.75
402.054	2.74
402.413	2.75
402.773	2.73
403.132	2.71
403.492	2.7
403.851	2.7
404.211	2.7
404.57	2.69
404.929	2.68
405.288	2.68
405.648	2.67
406.007	2.65
406.366	2.63
406.725	2.62
407.084	2.62
407.443	2.65
407.802	2.62
408.161	2.63
408.52	2.59
408.879	2.61
409.238	2.64
409.596	2.64
409.955	2.63
410.314	2.63
410.673	2.6
411.031	2.58
411.39	2.57
411.748	2.58
412.107	2.57
412.465	2.54
412.824	2.55
413.182	2.54
413.54	2.54
413.899	2.53
414.257	2.5
414.615	2.47
414.974	2.45
415.332	2.45
415.69	2.43
416.048	2.43
416.406	2.45
416.764	2.43
417.122	2.41
417.48	2.41
417.838	2.42
418.195	2.41
418.553	2.41
418.911	2.4
419.269	2.4
419.626	2.41
419.984	2.42
420.342	2.41
420.699	2.41
421.057	2.4
421.414	2.4
421.772	2.39
422.129	2.4
422.486	2.39
422.844	2.39
423.201	2.38
423.558	2.39
423.915	2.38
424.273	2.39
424.63	2.39
424.987	2.37
425.344	2.37
425.701	2.39
426.058	2.4
426.415	2.39
426.772	2.37
427.128	2.37
427.485	2.36
427.842	2.37
428.199	2.37
428.555	2.38
428.912	2.38
429.269	2.39
429.625	2.36
429.982	2.37
430.338	2.37
430.695	2.39
431.051	2.39
431.407	2.38
431.764	2.37
432.12	2.35
432.476	2.37
432.832	2.35
433.189	2.36
433.545	2.35
433.901	2.34
434.257	2.34
434.613	2.36
434.969	2.34
435.325	2.32
435.681	2.31
436.036	2.31
436.392	2.32
436.748	2.31
437.104	2.33
437.459	2.32
437.815	2.33
438.171	2.33
438.526	2.32
438.882	2.3
439.237	2.3
439.593	2.31
439.948	2.32
440.304	2.3
440.659	2.29
441.014	2.3
441.369	2.31
441.725	2.3
442.08	2.3
442.435	2.3
442.79	2.3
443.145	2.29
443.5	2.28
443.855	2.27
444.21	2.27
444.565	2.27
444.92	2.28
445.275	2.27
445.629	2.27
445.984	2.26
446.339	2.28
446.693	2.27
447.048	2.27
447.403	2.25
447.757	2.26
448.112	2.24
448.466	2.22
448.82	2.22
449.175	2.22
449.529	2.2
449.883	2.19
450.238	2.18
450.592	2.18
450.946	2.17
451.3	2.17
451.654	2.18
452.008	2.17
452.362	2.15
452.716	2.15
453.07	2.15
453.424	2.16
453.778	2.15
454.132	2.16
454.486	2.15
454.839	2.17
455.193	2.15
455.547	2.15
455.9	2.15
456.254	2.16
456.607	2.18
456.961	2.19
457.314	2.19
457.668	2.2
458.021	2.19
458.375	2.2
458.728	2.19
459.081	2.19
459.434	2.18
459.787	2.19
460.141	2.18
460.494	2.18
460.847	2.18
461.2	2.17
461.553	2.17
461.906	2.18
462.259	2.18
462.611	2.19
462.964	2.2
463.317	2.2
463.67	2.19
464.022	2.19
464.375	2.17
464.728	2.19
465.08	2.21
465.433	2.24
465.785	2.25
466.138	2.25
466.49	2.26
466.843	2.27
467.195	2.26
467.547	2.28
467.899	2.29
468.252	2.29
468.604	2.31
468.956	2.28
469.308	2.3
469.66	2.28
470.012	2.29
470.364	2.29
470.716	2.29
471.068	2.27
471.42	2.27
471.772	2.3
472.123	2.31
472.475	2.31
472.827	2.29
473.178	2.29
473.53	2.29
473.882	2.27
474.233	2.26
474.585	2.25
474.936	2.24
475.288	2.23
475.639	2.24
475.99	2.24
476.342	2.25
476.693	2.26
477.044	2.29
477.395	2.29
477.746	2.3
478.097	2.3
478.448	2.32
478.8	2.32
479.15	2.29
479.501	2.27
479.852	2.26
480.203	2.27
480.554	2.27
480.905	2.27
481.255	2.28
481.606	2.28
481.957	2.29
482.307	2.3
482.658	2.3
483.009	2.29
483.359	2.3
483.709	2.3
484.06	2.29
484.41	2.29
484.761	2.29
485.111	2.3
485.461	2.3
485.811	2.31
486.162	2.31
486.512	2.32
486.862	2.32
487.212	2.32
487.562	2.32
487.912	2.33
488.262	2.33
488.612	2.34
488.961	2.34
489.311	2.35
489.661	2.35
490.011	2.35
490.36	2.35
490.71	2.36
491.06	2.37
491.409	2.38
491.759	2.39
492.108	2.4
492.458	2.39
492.807	2.4
493.157	2.4
493.506	2.41
493.855	2.42
494.204	2.43
494.554	2.44
494.903	2.46
495.252	2.47
495.601	2.48
495.95	2.48
496.299	2.49
496.648	2.5
496.997	2.52
497.346	2.54
497.695	2.57
498.043	2.57
498.392	2.57
498.741	2.58
499.09	2.59
499.438	2.6
499.787	2.61
500.135	2.62
500.484	2.65
500.832	2.67
501.181	2.69
501.529	2.72
501.878	2.75
502.226	2.76
502.574	2.79
502.923	2.79
503.271	2.83
503.619	2.87
503.967	2.88
504.315	2.92
504.663	2.94
505.011	2.97
505.359	2.98
505.707	3.02
506.055	3.05
506.403	3.09
506.751	3.11
507.098	3.15
507.446	3.2
507.794	3.21
508.141	3.24
508.489	3.26
508.837	3.3
509.184	3.33
509.531	3.35
509.879	3.38
510.226	3.43
510.574	3.47
510.921	3.5
511.268	3.54
511.616	3.56
511.963	3.59
512.31	3.63
512.657	3.69
513.004	3.72
513.351	3.75
513.698	3.79
514.045	3.84
514.392	3.88
514.739	3.92
515.086	3.99
515.432	4.04
515.779	4.09
516.126	4.14
516.473	4.19
516.819	4.24
517.166	4.28
517.512	4.33
517.859	4.38
518.205	4.44
518.552	4.5
518.898	4.55
519.245	4.6
519.591	4.65
519.937	4.71
520.283	4.76
520.629	4.84
520.976	4.91
521.322	4.99
521.668	5.08
522.014	5.15
522.36	5.23
522.706	5.33
523.052	5.44
523.398	5.55
523.743	5.66
524.089	5.76
524.435	5.88
524.781	5.97
525.126	6.06
525.472	6.15
525.817	6.22
526.163	6.3
526.509	6.38
526.854	6.47
527.199	6.56
527.545	6.64
527.89	6.73
528.235	6.81
528.581	6.89
528.926	6.97
529.271	7.05
529.616	7.14
529.961	7.21
530.306	7.3
530.651	7.39
530.996	7.5
531.341	7.61
531.686	7.71
532.031	7.84
532.376	7.96
532.721	8.09
533.065	8.23
533.41	8.38
533.755	8.51
534.099	8.66
534.444	8.79
534.788	8.93
535.133	9.07
535.477	9.22
535.822	9.39
536.166	9.57
536.51	9.76
536.855	9.96
537.199	10.19
537.543	10.4
537.887	10.62
538.231	10.83
538.576	11.06
538.92	11.3
539.264	11.53
539.608	11.76
539.951	11.97
540.295	12.19
540.639	12.41
540.983	12.59
541.327	12.79
541.671	12.99
542.014	13.18
542.358	13.39
542.701	13.61
543.045	13.78
543.389	13.99
543.732	14.21
544.075	14.44
544.419	14.66
544.762	14.9
545.105	15.13
545.449	15.39
545.792	15.65
546.135	15.94
546.478	16.22
546.821	16.51
547.165	16.79
547.508	17.05
547.851	17.34
548.194	17.67
548.536	17.96
548.879	18.27
549.222	18.58
549.565	18.87
549.908	19.18
550.25	19.53
550.593	19.86
550.936	20.13
551.278	20.42
551.621	20.76
551.963	21.1
552.306	21.45
552.648	21.78
552.991	22.11
553.333	22.4
553.675	22.73
554.017	23.02
554.36	23.36
554.702	23.7
555.044	23.95
555.386	24.28
555.728	24.65
556.07	25.02
556.412	25.34
556.754	25.66
557.096	25.95
557.438	26.25
557.78	26.58
558.121	26.99
558.463	27.35
558.805	27.67
559.147	28.01
559.488	28.34
559.83	28.65
560.171	28.95
560.513	29.31
560.854	29.64
561.196	29.97
561.537	30.28
561.878	30.56
562.22	30.93
562.561	31.17
562.902	31.46
563.243	31.73
563.584	32.03
563.925	32.3
564.266	32.61
564.607	32.91
564.948	33.19
565.289	33.41
565.63	33.65
565.971	33.89
566.312	34.15
566.653	34.37
566.993	34.57
567.334	34.83
567.675	35.08
568.015	35.28
568.356	35.57
568.696	35.86
569.037	36.08
569.377	36.32
569.718	36.56
570.058	36.76
570.398	37
570.739	37.26
571.079	37.5
571.419	37.68
571.759	37.86
572.099	38.07
572.439	38.27
572.779	38.49
573.119	38.73
573.459	38.95
573.799	39.14
574.139	39.39
574.479	39.59
574.819	39.78
575.158	39.96
575.498	40.06
575.838	40.19
576.177	40.46
576.517	40.69
576.856	40.89
577.196	41.07
577.535	41.25
577.875	41.44
578.214	41.62
578.553	41.9
578.893	42.12
579.232	42.35
579.571	42.59
579.91	42.78
580.25	42.91
580.589	43.05
580.928	43.24
581.267	43.39
581.606	43.6
581.945	43.78
582.283	44.06
582.622	44.27
582.961	44.38
583.3	44.52
583.639	44.67
583.977	44.88
584.316	45.04
584.654	45.25
584.993	45.38
585.332	45.52
585.67	45.62
586.008	45.79
586.347	45.84
586.685	46.01
587.024	46.13
587.362	46.3
587.7	46.43
588.038	46.59
588.376	46.75
588.715	46.9
589.053	46.99
589.391	47.1
589.729	47.27
590.067	47.41
590.404	47.5
590.742	47.61
591.08	47.71
591.418	47.85
591.756	48.01
592.093	48.1
592.431	48.28
592.769	48.38
593.106	48.49
593.444	48.59
593.781	48.66
594.119	48.78
594.456	48.87
594.793	49.04
595.131	49.14
595.468	49.19
595.805	49.29
596.143	49.37
596.48	49.4
596.817	49.45
597.154	49.62
597.491	49.74
597.828	49.83
598.165	49.91
598.502	49.95
598.839	49.94
599.176	50.09
599.512	50.19
599.849	50.26
600.186	50.38
600.523	50.59
600.859	50.72
601.196	50.83
601.532	50.94
601.869	50.99
602.205	51.06
602.542	51.23
602.878	51.25
603.215	51.33
603.551	51.43
603.887	51.49
604.223	51.53
604.56	51.56
604.896	51.59
605.232	51.66
605.568	51.75
605.904	51.84
606.24	51.93
606.576	51.98
606.912	52.07
607.248	52.16
607.583	52.19
607.919	52.25
608.255	52.35
608.591	52.42
608.926	52.45
609.262	52.57
609.597	52.58
609.933	52.61
610.268	52.68
610.604	52.76
610.939	52.82
611.275	52.91
611.61	52.94
611.945	53.04
612.281	53.06
612.616	53.13
612.951	53.25
613.286	53.29
613.621	53.36
613.956	53.45
614.291	53.51
614.626	53.5
614.961	53.52
615.296	53.46
615.631	53.51
615.966	53.64
616.3	53.62
616.635	53.75
616.97	53.89
617.304	53.84
617.639	53.92
617.973	54.01
618.308	53.98
618.642	54.07
618.977	54.13
619.311	54.21
619.646	54.28
619.98	54.28
620.314	54.32
620.648	54.32
620.983	54.4
621.317	54.46
621.651	54.57
621.985	54.64
622.319	54.75
622.653	54.77
622.987	54.77
623.321	54.86
623.655	54.84
623.988	54.91
624.322	54.98
624.656	54.91
624.99	54.91
625.323	55.01
625.657	55.05
625.99	55.07
626.324	55.15
626.657	55.14
626.991	55.11
627.324	55.14
627.658	55.3
627.991	55.33
628.324	55.39
628.657	55.37
628.991	55.38
629.324	55.44
629.657	55.59
629.99	55.67
630.323	55.68
630.656	55.68
630.989	55.66
631.322	55.76
631.655	55.89
631.987	55.91
632.32	55.92
632.653	55.86
632.986	55.87
633.318	55.86
633.651	55.95
633.984	56.03
634.316	56.07
634.649	56.05
634.981	56.03
635.313	55.96
635.646	55.99
635.978	55.98
636.31	55.94
636.643	55.87
636.975	55.83
637.307	55.87
637.639	56.03
637.971	56.1
638.303	56.14
638.635	56.15
638.967	56.33
639.299	56.32
639.631	56.45
639.963	56.46
640.295	56.59
640.626	56.55
640.958	56.57
641.29	56.7
641.621	56.79
641.953	56.82
642.285	56.87
642.616	56.84
642.948	56.91
643.279	56.99
643.61	57.01
643.942	57.15
644.273	57.2
644.604	57.11
644.936	57.1
645.267	57.09
645.598	57.05
645.929	56.87
646.26	56.97
646.591	57.07
646.922	57.09
647.253	56.99
647.584	57
647.915	57.11
648.245	57.02
648.576	56.97
648.907	56.93
649.238	56.99
649.568	57.08
649.899	57.23
650.229	57.28
650.56	57.4
650.89	57.32
651.221	57.29
651.551	57.28
651.882	57.22
652.212	57.28
652.542	57.23
652.872	57.41
653.203	57.44
653.533	57.36
653.863	57.36
654.193	57.5
654.523	57.67
654.853	57.6
655.183	57.52
655.513	57.55
655.843	57.7
656.172	57.73
656.502	57.9
656.832	57.9
657.162	57.92
657.491	57.83
657.821	57.95
658.15	58.07
658.48	58.05
658.809	58.17
659.139	58.23
659.468	58.32
659.798	58.32
660.127	58.26
660.456	58.36
660.785	58.5
661.115	58.56
661.444	58.52
661.773	58.57
662.102	58.61
662.431	58.59
662.76	58.55
663.089	58.58
663.418	58.4
663.747	58.46
664.076	58.41
664.404	58.5
664.733	58.36
665.062	58.36
665.39	58.35
665.719	58.38
666.048	58.44
666.376	58.49
666.705	58.52
667.033	58.56
667.362	58.57
667.69	58.59
668.018	58.47
668.347	58.51
668.675	58.48
669.003	58.52
669.331	58.68
669.659	58.79
669.987	58.81
670.315	58.86
670.643	58.73
670.971	58.75
671.299	58.71
671.627	58.96
671.955	58.96
672.283	59.03
672.61	58.99
672.938	58.94
673.266	58.91
673.593	58.81
673.921	58.79
674.249	58.62
674.576	58.62
674.904	58.67
675.231	58.65
675.558	58.77
675.886	58.74
676.213	58.64
676.54	58.52
676.867	58.49
677.195	58.6
677.522	58.52
677.849	58.54
678.176	58.55
678.503	58.49
678.83	58.48
679.157	58.48
679.484	58.42
679.81	58.57
680.137	58.54
680.464	58.58
680.791	58.67
681.117	58.77
681.444	58.74
681.771	58.76
682.097	58.68
682.424	58.65
682.75	58.82
683.077	58.86
683.403	58.9
683.729	59.03
684.056	59.04
684.382	59.27
684.708	59.25
685.034	59.33
685.36	59.28
685.686	59.16
686.012	59.28
686.339	59.35
686.664	59.19
686.99	59.28
687.316	59.36
687.642	59.31
687.968	59.26
688.294	59.26
688.619	59.2
688.945	59.25
689.271	59.2
689.596	59.2
689.922	59.25
690.247	59.15
690.573	59.01
690.898	58.94
691.224	58.87
691.549	59.05
691.874	59.03
692.2	58.93
692.525	59.01
692.85	58.97
693.175	59.06
693.5	59.16
693.825	59.1
694.15	58.97
694.475	59.05
694.8	59.2
695.125	59.2
695.45	59.14
695.775	59.04
696.099	59.2
696.424	59.01
696.749	58.96
697.073	59.03
697.398	59.13
697.723	59.13
698.047	59.21
698.372	59.11
698.696	59.11
699.02	59.25
699.345	59.29
699.669	59.3
699.993	59.34
700.318	59.2
700.642	59.26
700.966	59.3
701.29	59.36
701.614	59.35
701.938	59.42
702.262	59.68
702.586	59.78
702.91	59.74
703.234	59.95
703.557	59.98
703.881	59.97
704.205	59.82
704.529	59.9
704.852	59.75
705.176	59.99
705.499	60.1
705.823	60.06
706.146	60.18
706.47	60.37
706.793	60.31
707.117	60.52
707.44	60.59
707.763	60.53
708.086	60.32
708.409	60.28
708.733	60.22
709.056	60.07
709.379	60.22
709.702	60.21
710.025	60.25
710.348	60.15
710.671	60.2
710.993	60.31
711.316	60.24
711.639	60.27
711.962	60.24
712.284	60.19
712.607	60.09
712.93	60.01
713.252	59.79
713.575	59.74
713.897	59.76
714.22	59.72
714.542	59.9
714.864	59.99
715.187	60.07
715.509	60.08
715.831	60.16
716.153	60.32
716.475	60.15
716.798	60.08
717.12	60.24
717.442	60.41
717.764	60.54
718.085	60.47
718.407	60.56
718.729	60.5
719.051	60.54
719.373	60.44
719.695	60.62
720.016	60.6
720.338	60.79
720.659	60.88
720.981	61.04
721.302	60.87
721.624	60.95
721.945	60.71
722.267	60.71
722.588	60.61
722.909	60.41
723.231	60.67
723.552	60.76
723.873	60.48
724.194	60.27
724.515	60.18
724.836	60.52
725.157	60.51
725.478	60.26
725.799	60.24
726.12	60.37
726.441	60.28
726.762	60.43
727.083	60.48
727.403	60.5
727.724	60.33
728.045	60.38
728.365	60.43
728.686	60.56
729.006	60.65
729.327	60.82
729.647	60.8
729.967	60.79
730.288	60.52
730.608	60.73
730.928	60.75
731.249	60.66
731.569	60.65
731.889	60.48
732.209	60.75
732.529	61
732.849	61.14
733.169	61.29
733.489	61.3
733.809	61.19
734.129	60.99
734.448	61.11
734.768	61.21
735.088	61.37
735.408	61.42
735.727	61.41
736.047	61.31
736.366	61.39
736.686	61.3
737.005	61.38
737.325	61.25
737.644	61.41
737.963	61.6
738.283	61.2
738.602	61.22
738.921	61.06
739.24	60.75
739.56	60.87
739.879	60.65
740.198	60.62
740.517	60.56
740.836	60.55
741.155	60.33
741.473	60.38
741.792	60
742.111	60.03
742.43	59.85
742.748	59.74
743.067	59.77
743.386	59.96
743.704	59.94
744.023	60.26
744.341	60.22
744.66	59.99
744.978	60.54
745.297	60.85
745.615	61.28
745.933	61.27
746.252	60.87
746.57	60.78
746.888	60.69
747.206	60.65
747.524	60.56
747.842	60.96
748.16	61.25
748.478	61.55
748.796	61.42
749.114	61.59
749.432	61.86
749.749	62.18
750.067	62.39
750.385	62.71
750.703	62.46
751.02	62.48
751.338	62.73
751.655	62.22
751.973	61.9
752.29	61.53
752.608	61.67
752.925	61.75
753.242	62.08
753.56	62.27
753.877	62.51
754.194	62.64
754.511	62.41
754.828	62.14
755.145	61.92
755.462	61.9
755.779	61.94
756.096	61.8
756.413	61.35
756.73	61.09
757.047	61.14
757.364	61.16
757.68	61.35
757.997	61.28
758.314	61.71
758.63	62.03
758.947	62.26
759.264	62.07
759.58	62.33
759.896	62.19
760.213	62.12
760.529	61.77
760.846	61.62
761.162	61.7
761.478	61.81
761.794	61.97
762.11	62.21
762.426	62.18
762.743	62.09
763.059	62.02
763.375	61.75
763.69	61.51
764.006	61.62
764.322	61.43
764.638	61.35
764.954	61.39
765.27	61.19
765.585	61.27
765.901	61.32
766.216	61.3
766.532	61.48
766.848	61.48
767.163	61.64
767.478	61.92
767.794	61.88
768.109	61.77
768.424	61.58
768.74	61.35
769.055	61.24
769.37	61.63
769.685	61.68
770	61.81
770.315	61.89
770.63	61.96
770.945	61.94
771.26	62.18
771.575	62.26
771.89	62.21
772.205	61.8
772.52	62.07
772.834	61.92
773.149	61.4
773.464	61.57
773.778	61.21
774.093	61.05
774.407	60.8
774.722	61.17
775.036	61.13
775.351	61.28
775.665	61.03
775.979	60.43
776.293	60.3
776.608	60.77
776.922	60.88
777.236	60.73
777.55	60.96
777.864	61
778.178	60.6
778.492	60.86
778.806	60.84
779.12	60.36
779.434	60.38
779.747	60.79
780.061	60.64
780.375	61.3
780.689	61.37
781.002	62
781.316	61.89
781.629	61.75
781.943	61.84
782.256	62.06
782.57	62.29
782.883	62.73
783.196	62.24
783.51	62.14
783.823	62.49
784.136	62.15
784.449	62.03
784.762	62.96
785.075	63.22
785.388	63.16
785.701	63.07
786.014	63.07
786.327	62.54
786.64	62.51
786.953	62.47
787.266	62.13
787.578	61.47
787.891	61.14
788.204	61.08
788.516	60.48
788.829	61.27
789.141	61.83
789.454	61.48
789.766	61.32
790.079	61.22
790.391	60.85
790.703	60.87
791.016	61.02
791.328	60.66
791.64	60.58
791.952	61.03
792.264	61.17
792.576	61.58
792.888	62.19
793.2	61.94
793.512	61.92
793.824	62.5
794.136	62.45
794.448	62.66
794.76	63.31
795.071	64.51
795.383	63.77
795.695	62.98
796.006	63.19
796.318	63.49
796.629	63.59
796.941	63.79
797.252	63.85
797.564	63.6
797.875	63.48
798.186	63.09
798.497	62.59
798.809	63.38
799.12	63.07
799.431	62.37
799.742	62.55
800.053	62.77
800.364	62.17
800.675	62.77
800.986	62.53
801.297	62.23
801.608	61.54
801.918	61.56
802.229	61.65
802.54	62.55
802.851	62.66
803.161	62.93
803.472	63.24
803.782	63.26
804.093	63.73
804.403	63.64
804.714	64.37
805.024	65.01
805.334	64.65
805.645	64.58
805.955	65.58
806.265	65.45
806.575	65.08
806.885	65.81
807.195	65.62
807.505	65.81
807.815	65.88
808.125	66.29
808.435	66.34
808.745	66.13
809.055	64.78
809.365	64.98
809.674	64.86
809.984	64.89
810.294	65.61
810.603	65.27
810.913	65.21
811.222	64.28
811.532	64.23
811.841	63.31
812.151	64.06
812.46	63.44
812.769	63.82
813.079	63.34
813.388	62.81
813.697	62.58
814.006	62.47
814.315	62.32
814.624	62.12
814.933	62.44
815.242	63.13
815.551	62.92
815.86	62.29
816.169	62.26
816.478	61.55
816.786	61.25
817.095	61.78
817.404	62.1
817.712	61.85
818.021	61.55
818.33	62.33
818.638	62.23
818.947	62.77
819.255	62.82
819.563	62.91
819.872	62.9
820.18	63.13
820.488	63.03
820.796	62.53
821.105	62.62
821.413	62.66
821.721	62.66
822.029	63.06
822.337	63.38
822.645	63.6
822.953	63.64
823.26	63.78
823.568	63.47
823.876	63.25
824.184	63.52
824.491	63.41
824.799	63.41
825.107	63.3
825.414	63.21
825.722	63.17
826.029	63.32
826.337	63.23
826.644	63.23
826.951	63.39
827.259	63.72
827.566	63.7
827.873	63.61
828.18	63.54
828.488	63.34
828.795	63.16
829.102	62.92
829.409	62.53
829.716	62.02
830.023	62.32
830.329	62.42
830.636	62.27
830.943	62.35
831.25	62.27
831.557	62.08
831.863	62.2
832.17	62.03
832.476	61.92
832.783	62.3
833.089	62.48
833.396	62.08
833.702	62.45
834.009	62.58
834.315	63.07
834.621	62.93
834.928	63.29
835.234	62.94
835.54	62.74
835.846	63.46
836.152	63.68
836.458	63.68
836.764	63.05
837.07	62.75
837.376	62.66
837.682	62.12
837.988	62.28
838.293	61.73
838.599	61.81
838.905	61.55
839.211	61.15
839.516	60.15
839.822	60.61
840.127	60.37
840.433	59.63
840.738	58.52
841.044	59.02
841.349	58.35
841.654	58.71
841.959	59.51
842.265	59.83
842.57	59.64
842.875	59.37
843.18	61.31
843.485	61.72
843.79	61.99
844.095	62.11
844.4	62.97
844.705	63.78
845.01	65.08
845.315	65.41
845.619	65.31
845.924	65.91
846.229	65.58
846.533	66.2
846.838	66.01
847.142	66.83
847.447	67.85
847.751	66.77
848.056	66.63
848.36	66.88
848.664	65.26
848.969	64.48
849.273	64.18
849.577	64.97
849.881	64.93
850.185	66.53
850.489	66.2
850.794	62.75
851.097	63.52
851.401	62.71
851.705	63.4
852.009	65.16
852.313	67.51
852.617	68.99
852.92	67.9
853.224	69.31
853.528	67.65
853.831	67.48
854.135	68.37
854.438	69.09
854.742	68.36
855.045	70.97
855.349	70.71
855.652	71.61
855.955	70.18
856.259	69.44
856.562	68.49
856.865	70.14
857.168	70.27
857.471	69.99
857.774	69.06
858.077	67.78
858.38	68.79
858.683	67.05
858.986	68.14
859.289	68.94
859.592	70.78
859.894	73.82
860.197	71.55
860.5	71.9
860.802	70.39
861.105	69.9
861.407	67.59
861.71	68.55
862.012	65.49
862.315	65.4
862.617	65.73
862.919	64.92
863.222	63.81
863.524	65.85
863.826	65.61
864.128	66.87
864.43	67.26
864.732	63.15
865.034	61.97
865.336	60.91
865.638	61.32
865.94	58.89
866.242	59.54
866.544	59.64
866.846	59.73
867.147	61.56
867.449	61.12
867.751	58.79
868.052	58.31
868.354	60.25
868.655	59
868.957	60.91
869.258	62.06
869.56	63.01
869.861	63.12
870.162	62.61
870.463	61.09
870.765	63.2
871.066	65.44
871.367	69.33
871.668	67.69
871.969	65.47
872.27	65.27
872.571	63.16
872.872	64.03
873.173	64.04
873.473	61.31
873.774	62.18
874.075	64.5
874.376	64.01
874.676	65.43
874.977	65.04
875.277	65.71
875.578	64.98
875.878	65.68
876.179	65.96
876.479	65.4
876.78	65.94
877.08	63.43
877.38	63.29
877.68	59.98
877.981	59.85
878.281	61.01
878.581	61.57
