Data from BA28474_Reflection_00011.txt Node
Date: Mon Nov 18 15:30:54 EST 2019
User: vgr7
Spectrometer: USB2G7710
Scans to average: 3
Trigger mode: 4
Integration Time (sec): 2.000000E-2
Electric dark correction enabled: true
Boxcar width: 10
XAxis mode: Wavelengths
Number of Pixels in Spectrum: 2048
>>>>>Begin Spectral Data<<<<<
177.721	74.44
178.105	19.93
178.488	26.12
178.871	-9.5
179.254	-307.96
179.636	-57.76
180.019	653.46
180.402	100
180.785	192.96
181.168	-31.84
181.55	22.95
181.933	215.32
182.316	102.13
182.698	95.35
183.081	125.47
183.463	196.82
183.846	201.61
184.228	3877.78
184.611	-102.15
184.993	-67.34
185.376	-11.57
185.758	16.33
186.14	-20.61
186.522	-17.83
186.904	-17.39
187.287	-46.29
187.669	-7.37
188.051	8.8
188.433	37.67
188.815	35.78
189.197	10.14
189.579	-29.12
189.961	-28.38
190.342	-33.46
190.724	-25.4
191.106	-23.12
191.488	-37.06
191.869	-9.76
192.251	-34.3
192.633	-16.15
193.014	-33.49
193.396	-48.92
193.777	-29.35
194.159	-22.29
194.54	5.99
194.922	-9.65
195.303	-15.83
195.684	-31.39
196.065	-19.19
196.447	-27.71
196.828	-0.57
197.209	3.1
197.59	10.91
197.971	30.09
198.352	47.89
198.733	48.19
199.114	48.76
199.495	52.97
199.876	45.4
200.257	54.25
200.638	35.75
201.018	35.26
201.399	30.95
201.78	21.19
202.16	32.23
202.541	-1.71
202.922	-26.92
203.302	0.95
203.683	24.27
204.063	-31.25
204.444	-29.93
204.824	-44.43
205.204	-19.91
205.585	-21.11
205.965	-49.1
206.345	-76.22
206.725	-61.06
207.106	-160.45
207.486	-128.91
207.866	-686.79
208.246	-275.8
208.626	-355.21
209.006	-125.83
209.386	-174.01
209.766	-157.44
210.145	-102.52
210.525	-70.32
210.905	-24.97
211.285	-34.85
211.664	-31.45
212.044	-18.83
212.424	-26.94
212.803	-51.01
213.183	-71.04
213.562	-72.99
213.942	-66.79
214.321	-50.81
214.701	-81.14
215.08	-63.23
215.459	-62.97
215.838	-46.76
216.218	-53.26
216.597	-39.41
216.976	-44.9
217.355	-33.8
217.734	-44.52
218.113	-43.1
218.492	-54.69
218.871	-91.77
219.25	-78.83
219.629	-90.55
220.008	-82.91
220.387	-58.66
220.766	-45.47
221.144	-49.81
221.523	-66.24
221.902	-83.24
222.28	-89.15
222.659	-59.65
223.037	-53.53
223.416	-47.9
223.794	-52.8
224.173	-53.72
224.551	-49.38
224.929	-43.59
225.308	-29.45
225.686	-24.36
226.064	-26.18
226.442	-21.39
226.821	-18.37
227.199	-18.3
227.577	-13.28
227.955	-16.97
228.333	-14.1
228.711	-11.52
229.089	-8.57
229.467	-8.96
229.845	-6.21
230.222	-4.95
230.6	-6.41
230.978	-7.61
231.356	-5.92
231.733	-4.03
232.111	-1.98
232.488	-0.82
232.866	0.39
233.243	-1.58
233.621	-2.71
233.998	-0.64
234.376	-0.21
234.753	4
235.13	4.41
235.508	4.07
235.885	6.3
236.262	4.7
236.639	2.84
237.016	2.54
237.393	4.82
237.77	4.99
238.147	4.35
238.524	5.37
238.901	5.52
239.278	4.58
239.655	5.46
240.032	5.71
240.409	5.26
240.785	5
241.162	5.08
241.539	5.8
241.915	5.7
242.292	4.78
242.668	3.69
243.045	3.59
243.421	3.29
243.798	3.02
244.174	2.77
244.551	2.88
244.927	2.65
245.303	2.9
245.679	2.92
246.056	2.88
246.432	2.89
246.808	3.07
247.184	2.81
247.56	2.39
247.936	2.03
248.312	1.99
248.688	2.14
249.064	2.15
249.44	1.94
249.815	1.87
250.191	2.23
250.567	2.48
250.943	2.61
251.318	2.66
251.694	2.59
252.069	2.8
252.445	3.03
252.82	3.34
253.196	3.01
253.571	3.1
253.947	3.34
254.322	3.58
254.697	3.39
255.073	3.54
255.448	3.52
255.823	3.87
256.198	4.09
256.573	3.91
256.948	4.16
257.323	4.38
257.698	4.26
258.073	4.25
258.448	3.99
258.823	4
259.198	4.12
259.573	4.1
259.948	4.11
260.322	4.14
260.697	4.02
261.072	3.97
261.446	3.89
261.821	3.86
262.195	3.79
262.57	3.73
262.944	3.7
263.319	3.88
263.693	3.7
264.067	3.57
264.442	3.64
264.816	3.52
265.19	3.3
265.564	3.29
265.938	3.11
266.313	3.23
266.687	2.99
267.061	2.9
267.435	3
267.809	2.97
268.183	2.9
268.556	3
268.93	3.21
269.304	3.3
269.678	3.2
270.051	3.15
270.425	3.26
270.799	3.41
271.172	3.33
271.546	3.38
271.919	3.34
272.293	3.3
272.666	3.38
273.04	3.61
273.413	3.67
273.787	3.8
274.16	3.75
274.533	3.86
274.906	3.95
275.279	3.98
275.653	4.1
276.026	4.02
276.399	3.91
276.772	3.84
277.145	3.84
277.518	4.02
277.891	4.17
278.263	4.11
278.636	4.07
279.009	4.03
279.382	4.07
279.755	4.19
280.127	4.32
280.5	4.29
280.872	4.17
281.245	4.14
281.617	4.15
281.99	4.31
282.362	4.26
282.735	4.12
283.107	4.1
283.479	3.98
283.852	3.95
284.224	4.17
284.596	4.07
284.968	4.1
285.34	4.05
285.713	3.9
286.085	3.89
286.457	3.97
286.829	4.02
287.201	4.01
287.572	3.97
287.944	3.95
288.316	3.78
288.688	3.72
289.06	3.67
289.431	3.66
289.803	3.5
290.175	3.49
290.546	3.71
290.918	3.63
291.289	3.68
291.661	3.78
292.032	3.84
292.403	3.97
292.775	4.02
293.146	4
293.517	4.11
293.889	4.28
294.26	4.27
294.631	4.47
295.002	4.56
295.373	4.63
295.744	4.7
296.115	4.84
296.486	4.84
296.857	4.94
297.228	4.92
297.599	5.03
297.97	5.08
298.34	5.01
298.711	5.19
299.082	5.25
299.452	5.29
299.823	5.24
300.194	5.32
300.564	5.42
300.935	5.38
301.305	5.53
301.676	5.64
302.046	5.73
302.416	5.71
302.787	5.74
303.157	5.68
303.527	5.71
303.897	5.74
304.267	5.98
304.637	6.01
305.008	6.15
305.378	6.34
305.748	6.3
306.117	6.21
306.487	6.2
306.857	6.19
307.227	6.36
307.597	6.44
307.967	6.43
308.336	6.46
308.706	6.71
309.076	6.7
309.445	6.63
309.815	6.51
310.184	6.49
310.554	6.5
310.923	6.55
311.293	6.7
311.662	6.64
312.031	6.59
312.401	6.63
312.77	6.73
313.139	6.74
313.508	6.93
313.877	7.05
314.246	7.13
314.616	7.13
314.985	7.13
315.353	7.16
315.722	7.26
316.091	7.26
316.46	7.07
316.829	7.08
317.198	7.19
317.567	7.35
317.935	7.27
318.304	7.35
318.672	7.6
319.041	7.74
319.41	7.97
319.778	7.92
320.147	8.04
320.515	8.01
320.883	7.99
321.252	8.05
321.62	8.24
321.988	8.25
322.357	8.25
322.725	8.24
323.093	8.37
323.461	8.31
323.829	8.29
324.197	8.44
324.565	8.6
324.933	8.54
325.301	8.68
325.669	8.77
326.037	8.8
326.405	8.72
326.772	8.59
327.14	8.48
327.508	8.65
327.875	8.53
328.243	8.57
328.61	8.51
328.978	8.45
329.346	8.53
329.713	8.5
330.08	8.64
330.448	8.63
330.815	8.49
331.182	8.5
331.55	8.69
331.917	8.85
332.284	8.69
332.651	8.78
333.018	8.79
333.385	8.92
333.752	8.94
334.119	9.08
334.486	9.02
334.853	9.06
335.22	9.12
335.587	9.39
335.954	9.27
336.32	9.31
336.687	9.36
337.054	9.31
337.42	9.43
337.787	9.4
338.153	9.39
338.52	9.48
338.886	9.42
339.253	9.3
339.619	9.19
339.986	9.36
340.352	9.41
340.718	9.44
341.084	9.46
341.451	9.46
341.817	9.48
342.183	9.51
342.549	9.57
342.915	9.58
343.281	9.47
343.647	9.5
344.013	9.55
344.379	9.47
344.745	9.51
345.11	9.45
345.476	9.48
345.842	9.48
346.208	9.5
346.573	9.62
346.939	9.69
347.304	9.73
347.67	9.7
348.035	9.67
348.401	9.51
348.766	9.5
349.132	9.5
349.497	9.48
349.862	9.54
350.228	9.62
350.593	9.53
350.958	9.59
351.323	9.69
351.688	9.7
352.053	9.82
352.418	9.78
352.783	9.8
353.148	9.82
353.513	9.94
353.878	9.98
354.243	10.03
354.608	10
354.972	10.07
355.337	9.99
355.702	10.06
356.066	10.2
356.431	10.16
356.795	10.25
357.16	10.2
357.524	10.1
357.889	10.06
358.253	10.08
358.618	10
358.982	9.94
359.346	9.88
359.71	9.85
360.075	9.84
360.439	9.79
360.803	9.78
361.167	9.72
361.531	9.71
361.895	9.59
362.259	9.55
362.623	9.39
362.987	9.41
363.351	9.34
363.714	9.31
364.078	9.28
364.442	9.2
364.806	9.14
365.169	9.19
365.533	9.13
365.896	9.01
366.26	8.97
366.623	8.94
366.987	8.92
367.35	8.84
367.714	8.79
368.077	8.73
368.44	8.58
368.803	8.48
369.167	8.29
369.53	8.28
369.893	8.27
370.256	8.34
370.619	8.29
370.982	8.23
371.345	8.1
371.708	8.05
372.071	7.95
372.434	7.9
372.797	7.86
373.159	7.81
373.522	7.85
373.885	7.86
374.247	7.8
374.61	7.73
374.973	7.64
375.335	7.54
375.698	7.46
376.06	7.48
376.423	7.47
376.785	7.5
377.147	7.44
377.51	7.35
377.872	7.32
378.234	7.25
378.596	7.18
378.958	7.14
379.321	7.07
379.683	7.08
380.045	7.03
380.407	6.96
380.769	6.95
381.13	6.89
381.492	6.82
381.854	6.78
382.216	6.79
382.578	6.73
382.939	6.67
383.301	6.65
383.663	6.64
384.024	6.58
384.386	6.56
384.747	6.51
385.109	6.52
385.47	6.43
385.832	6.38
386.193	6.36
386.554	6.34
386.916	6.33
387.277	6.28
387.638	6.3
387.999	6.23
388.36	6.17
388.721	6.1
389.082	6.07
389.443	6.03
389.804	6.02
390.165	5.99
390.526	5.98
390.887	5.98
391.248	5.95
391.609	5.92
391.969	5.89
392.33	5.87
392.691	5.82
393.051	5.78
393.412	5.77
393.772	5.74
394.133	5.69
394.493	5.66
394.854	5.6
395.214	5.55
395.574	5.54
395.935	5.52
396.295	5.51
396.655	5.44
397.015	5.38
397.376	5.32
397.736	5.3
398.096	5.24
398.456	5.19
398.816	5.12
399.176	5.06
399.535	4.99
399.895	4.94
400.255	4.89
400.615	4.87
400.975	4.83
401.334	4.78
401.694	4.77
402.054	4.73
402.413	4.71
402.773	4.67
403.132	4.6
403.492	4.56
403.851	4.54
404.211	4.55
404.57	4.55
404.929	4.53
405.288	4.54
405.648	4.54
406.007	4.52
406.366	4.49
406.725	4.51
407.084	4.51
407.443	4.48
407.802	4.47
408.161	4.45
408.52	4.43
408.879	4.43
409.238	4.42
409.596	4.41
409.955	4.41
410.314	4.41
410.673	4.41
411.031	4.42
411.39	4.4
411.748	4.37
412.107	4.38
412.465	4.34
412.824	4.29
413.182	4.26
413.54	4.25
413.899	4.25
414.257	4.24
414.615	4.23
414.974	4.24
415.332	4.24
415.69	4.21
416.048	4.19
416.406	4.14
416.764	4.11
417.122	4.11
417.48	4.06
417.838	4.04
418.195	4.03
418.553	4.02
418.911	4
419.269	3.99
419.626	3.97
419.984	3.94
420.342	3.94
420.699	3.92
421.057	3.89
421.414	3.87
421.772	3.85
422.129	3.84
422.486	3.82
422.844	3.8
423.201	3.79
423.558	3.78
423.915	3.78
424.273	3.77
424.63	3.76
424.987	3.74
425.344	3.72
425.701	3.71
426.058	3.69
426.415	3.67
426.772	3.66
427.128	3.64
427.485	3.65
427.842	3.64
428.199	3.65
428.555	3.64
428.912	3.64
429.269	3.64
429.625	3.63
429.982	3.6
430.338	3.59
430.695	3.59
431.051	3.58
431.407	3.57
431.764	3.55
432.12	3.54
432.476	3.54
432.832	3.54
433.189	3.56
433.545	3.55
433.901	3.56
434.257	3.55
434.613	3.56
434.969	3.55
435.325	3.56
435.681	3.56
436.036	3.56
436.392	3.54
436.748	3.53
437.104	3.53
437.459	3.55
437.815	3.54
438.171	3.56
438.526	3.55
438.882	3.56
439.237	3.56
439.593	3.56
439.948	3.56
440.304	3.55
440.659	3.54
441.014	3.54
441.369	3.52
441.725	3.49
442.08	3.49
442.435	3.5
442.79	3.48
443.145	3.46
443.5	3.45
443.855	3.45
444.21	3.45
444.565	3.44
444.92	3.44
445.275	3.44
445.629	3.42
445.984	3.41
446.339	3.39
446.693	3.37
447.048	3.37
447.403	3.36
447.757	3.37
448.112	3.36
448.466	3.35
448.82	3.37
449.175	3.39
449.529	3.39
449.883	3.36
450.238	3.35
450.592	3.35
450.946	3.34
451.3	3.33
451.654	3.31
452.008	3.31
452.362	3.28
452.716	3.27
453.07	3.28
453.424	3.29
453.778	3.32
454.132	3.31
454.486	3.3
454.839	3.29
455.193	3.24
455.547	3.22
455.9	3.23
456.254	3.2
456.607	3.22
456.961	3.2
457.314	3.22
457.668	3.22
458.021	3.23
458.375	3.25
458.728	3.24
459.081	3.26
459.434	3.24
459.787	3.26
460.141	3.25
460.494	3.25
460.847	3.25
461.2	3.23
461.553	3.25
461.906	3.27
462.259	3.29
462.611	3.34
462.964	3.36
463.317	3.36
463.67	3.39
464.022	3.39
464.375	3.39
464.728	3.41
465.08	3.42
465.433	3.43
465.785	3.43
466.138	3.45
466.49	3.46
466.843	3.47
467.195	3.47
467.547	3.51
467.899	3.52
468.252	3.52
468.604	3.55
468.956	3.54
469.308	3.53
469.66	3.51
470.012	3.52
470.364	3.56
470.716	3.57
471.068	3.58
471.42	3.58
471.772	3.63
472.123	3.63
472.475	3.63
472.827	3.64
473.178	3.65
473.53	3.65
473.882	3.67
474.233	3.69
474.585	3.66
474.936	3.63
475.288	3.64
475.639	3.65
475.99	3.62
476.342	3.65
476.693	3.64
477.044	3.67
477.395	3.66
477.746	3.64
478.097	3.63
478.448	3.62
478.8	3.61
479.15	3.57
479.501	3.57
479.852	3.57
480.203	3.55
480.554	3.56
480.905	3.57
481.255	3.56
481.606	3.56
481.957	3.58
482.307	3.59
482.658	3.58
483.009	3.58
483.359	3.58
483.709	3.59
484.06	3.58
484.41	3.59
484.761	3.59
485.111	3.58
485.461	3.59
485.811	3.58
486.162	3.58
486.512	3.59
486.862	3.59
487.212	3.59
487.562	3.6
487.912	3.6
488.262	3.6
488.612	3.61
488.961	3.6
489.311	3.6
489.661	3.6
490.011	3.61
490.36	3.61
490.71	3.62
491.06	3.63
491.409	3.64
491.759	3.63
492.108	3.64
492.458	3.65
492.807	3.66
493.157	3.68
493.506	3.71
493.855	3.71
494.204	3.72
494.554	3.73
494.903	3.73
495.252	3.75
495.601	3.76
495.95	3.79
496.299	3.82
496.648	3.84
496.997	3.89
497.346	3.92
497.695	3.97
498.043	3.98
498.392	3.99
498.741	4.03
499.09	4.08
499.438	4.14
499.787	4.18
500.135	4.22
500.484	4.26
500.832	4.3
501.181	4.36
501.529	4.41
501.878	4.5
502.226	4.57
502.574	4.63
502.923	4.69
503.271	4.77
503.619	4.84
503.967	4.91
504.315	4.96
504.663	5.04
505.011	5.09
505.359	5.17
505.707	5.24
506.055	5.3
506.403	5.37
506.751	5.44
507.098	5.5
507.446	5.59
507.794	5.68
508.141	5.75
508.489	5.83
508.837	5.93
509.184	5.98
509.531	6.08
509.879	6.16
510.226	6.25
510.574	6.33
510.921	6.41
511.268	6.5
511.616	6.58
511.963	6.68
512.31	6.76
512.657	6.87
513.004	6.97
513.351	7.11
513.698	7.23
514.045	7.32
514.392	7.44
514.739	7.54
515.086	7.64
515.432	7.76
515.779	7.86
516.126	7.97
516.473	8.09
516.819	8.17
517.166	8.27
517.512	8.37
517.859	8.46
518.205	8.56
518.552	8.65
518.898	8.74
519.245	8.82
519.591	8.92
519.937	9.01
520.283	9.14
520.629	9.23
520.976	9.34
521.322	9.47
521.668	9.58
522.014	9.71
522.36	9.85
522.706	10.02
523.052	10.18
523.398	10.37
523.743	10.56
524.089	10.74
524.435	10.93
524.781	11.1
525.126	11.25
525.472	11.39
525.817	11.54
526.163	11.66
526.509	11.81
526.854	11.95
527.199	12.07
527.545	12.17
527.89	12.29
528.235	12.4
528.581	12.53
528.926	12.66
529.271	12.79
529.616	12.93
529.961	13.06
530.306	13.19
530.651	13.32
530.996	13.46
531.341	13.63
531.686	13.79
532.031	13.98
532.376	14.18
532.721	14.37
533.065	14.55
533.41	14.78
533.755	14.97
534.099	15.18
534.444	15.39
534.788	15.63
535.133	15.86
535.477	16.08
535.822	16.33
536.166	16.6
536.51	16.86
536.855	17.18
537.199	17.47
537.543	17.79
537.887	18.11
538.231	18.42
538.576	18.76
538.92	19.06
539.264	19.34
539.608	19.62
539.951	19.9
540.295	20.17
540.639	20.41
540.983	20.7
541.327	20.95
541.671	21.17
542.014	21.4
542.358	21.65
542.701	21.91
543.045	22.17
543.389	22.41
543.732	22.7
544.075	22.94
544.419	23.21
544.762	23.48
545.105	23.74
545.449	24.05
545.792	24.33
546.135	24.68
546.478	25.01
546.821	25.39
547.165	25.73
547.508	26.11
547.851	26.48
548.194	26.81
548.536	27.2
548.879	27.59
549.222	27.97
549.565	28.35
549.908	28.72
550.25	29.08
550.593	29.45
550.936	29.78
551.278	30.14
551.621	30.49
551.963	30.9
552.306	31.31
552.648	31.65
552.991	31.98
553.333	32.27
553.675	32.6
554.017	32.92
554.36	33.22
554.702	33.51
555.044	33.82
555.386	34.14
555.728	34.42
556.07	34.77
556.412	35.06
556.754	35.36
557.096	35.66
557.438	36.01
557.78	36.33
558.121	36.69
558.463	37.01
558.805	37.29
559.147	37.52
559.488	37.82
559.83	38.13
560.171	38.43
560.513	38.74
560.854	39.05
561.196	39.34
561.537	39.62
561.878	39.91
562.22	40.2
562.561	40.44
562.902	40.7
563.243	40.93
563.584	41.15
563.925	41.4
564.266	41.63
564.607	41.83
564.948	42.06
565.289	42.24
565.63	42.45
565.971	42.7
566.312	42.98
566.653	43.17
566.993	43.35
567.334	43.51
567.675	43.7
568.015	43.82
568.356	44
568.696	44.2
569.037	44.37
569.377	44.51
569.718	44.7
570.058	44.86
570.398	45.03
570.739	45.26
571.079	45.42
571.419	45.59
571.759	45.75
572.099	45.95
572.439	46.12
572.779	46.28
573.119	46.39
573.459	46.57
573.799	46.68
574.139	46.82
574.479	47
574.819	47.17
575.158	47.33
575.498	47.48
575.838	47.62
576.177	47.77
576.517	47.96
576.856	48.14
577.196	48.28
577.535	48.47
577.875	48.62
578.214	48.8
578.553	48.96
578.893	49.1
579.232	49.15
579.571	49.33
579.91	49.45
580.25	49.63
580.589	49.64
580.928	49.8
581.267	49.95
581.606	50.08
581.945	50.16
582.283	50.32
582.622	50.41
582.961	50.54
583.3	50.69
583.639	50.86
583.977	50.91
584.316	50.99
584.654	51.09
584.993	51.15
585.332	51.25
585.67	51.36
586.008	51.48
586.347	51.61
586.685	51.67
587.024	51.81
587.362	51.87
587.7	52.02
588.038	52.16
588.376	52.24
588.715	52.32
589.053	52.4
589.391	52.47
589.729	52.55
590.067	52.67
590.404	52.7
590.742	52.75
591.08	52.89
591.418	52.99
591.756	53.13
592.093	53.2
592.431	53.27
592.769	53.36
593.106	53.49
593.444	53.63
593.781	53.74
594.119	53.76
594.456	53.86
594.793	53.95
595.131	53.95
595.468	54.06
595.805	54.17
596.143	54.3
596.48	54.44
596.817	54.51
597.154	54.59
597.491	54.64
597.828	54.71
598.165	54.7
598.502	54.78
598.839	54.81
599.176	54.92
599.512	54.93
599.849	55
600.186	55.07
600.523	55.09
600.859	55.1
601.196	55.27
601.532	55.37
601.869	55.47
602.205	55.56
602.542	55.57
602.878	55.6
603.215	55.64
603.551	55.66
603.887	55.71
604.223	55.75
604.56	55.83
604.896	55.88
605.232	56.02
605.568	56.09
605.904	56.19
606.24	56.25
606.576	56.35
606.912	56.35
607.248	56.35
607.583	56.41
607.919	56.54
608.255	56.53
608.591	56.55
608.926	56.56
609.262	56.62
609.597	56.65
609.933	56.64
610.268	56.66
610.604	56.69
610.939	56.8
611.275	56.81
611.61	56.85
611.945	56.89
612.281	56.88
612.616	56.89
612.951	56.89
613.286	56.91
613.621	57.03
613.956	57.11
614.291	57.19
614.626	57.27
614.961	57.24
615.296	57.28
615.631	57.26
615.966	57.29
616.3	57.31
616.635	57.4
616.97	57.48
617.304	57.58
617.639	57.69
617.973	57.63
618.308	57.6
618.642	57.56
618.977	57.62
619.311	57.79
619.646	57.92
619.98	58
620.314	58.11
620.648	58.05
620.983	58.15
621.317	58.22
621.651	58.21
621.985	58.41
622.319	58.43
622.653	58.6
622.987	58.61
623.321	58.76
623.655	58.75
623.988	58.9
624.322	58.85
624.656	58.86
624.99	58.89
625.323	58.98
625.657	59.06
625.99	59.05
626.324	59.01
626.657	59.06
626.991	59.08
627.324	59.01
627.658	59.04
627.991	59.03
628.324	58.97
628.657	58.93
628.991	58.78
629.324	58.78
629.657	58.72
629.99	58.71
630.323	58.6
630.656	58.78
630.989	58.71
631.322	58.77
631.655	58.78
631.987	58.87
632.32	58.87
632.653	58.89
632.986	58.94
633.318	58.93
633.651	58.84
633.984	58.84
634.316	58.94
634.649	58.97
634.981	58.97
635.313	58.99
635.646	59.06
635.978	59.2
636.31	59.3
636.643	59.42
636.975	59.48
637.307	59.58
637.639	59.54
637.971	59.57
638.303	59.56
638.635	59.62
638.967	59.61
639.299	59.62
639.631	59.62
639.963	59.51
640.295	59.5
640.626	59.67
640.958	59.65
641.29	59.63
641.621	59.65
641.953	59.69
642.285	59.83
642.616	59.83
642.948	59.87
643.279	59.88
643.61	59.74
643.942	59.79
644.273	59.71
644.604	59.72
644.936	59.79
645.267	59.85
645.598	59.9
645.929	59.96
646.26	60.06
646.591	60.08
646.922	60.18
647.253	60.18
647.584	60.05
647.915	60.14
648.245	60.14
648.576	60.21
648.907	60.33
649.238	60.32
649.568	60.43
649.899	60.39
650.229	60.31
650.56	60.47
650.89	60.54
651.221	60.69
651.551	60.69
651.882	60.62
652.212	60.62
652.542	60.52
652.872	60.55
653.203	60.49
653.533	60.54
653.863	60.54
654.193	60.58
654.523	60.63
654.853	60.63
655.183	60.62
655.513	60.64
655.843	60.59
656.172	60.59
656.502	60.6
656.832	60.61
657.162	60.7
657.491	60.79
657.821	60.79
658.15	60.91
658.48	60.93
658.809	60.97
659.139	61.03
659.468	61.06
659.798	61
660.127	61.06
660.456	61.11
660.785	61.2
661.115	61.22
661.444	61.29
661.773	61.25
662.102	61.24
662.431	61.21
662.76	61.15
663.089	61.19
663.418	61.25
663.747	61.24
664.076	61.33
664.404	61.12
664.733	61.1
665.062	60.98
665.39	60.95
665.719	60.96
666.048	60.93
666.376	60.92
666.705	60.97
667.033	60.93
667.362	60.94
667.69	60.94
668.018	61
668.347	61.04
668.675	61.15
669.003	61.36
669.331	61.4
669.659	61.51
669.987	61.39
670.315	61.34
670.643	61.43
670.971	61.32
671.299	61.51
671.627	61.54
671.955	61.65
672.283	61.76
672.61	61.77
672.938	61.91
673.266	62.05
673.593	62.09
673.921	62.18
674.249	62.16
674.576	62.18
674.904	62.29
675.231	62.14
675.558	62.14
675.886	62.02
676.213	62.06
676.54	62.13
676.867	62.19
677.195	62.21
677.522	62.13
677.849	62.2
678.176	62.18
678.503	62.23
678.83	62.05
679.157	61.94
679.484	61.92
679.81	61.82
680.137	61.75
680.464	61.63
680.791	61.58
681.117	61.63
681.444	61.56
681.771	61.55
682.097	61.58
682.424	61.55
682.75	61.44
683.077	61.42
683.403	61.33
683.729	61.45
684.056	61.53
684.382	61.48
684.708	61.46
685.034	61.44
685.36	61.39
685.686	61.46
686.012	61.38
686.339	61.5
686.664	61.52
686.99	61.49
687.316	61.71
687.642	61.74
687.968	61.7
688.294	61.89
688.619	61.82
688.945	61.83
689.271	61.91
689.596	62.1
689.922	62.09
690.247	62.21
690.573	62.29
690.898	62.29
691.224	62.34
691.549	62.26
691.874	62.21
692.2	62.21
692.525	62.22
692.85	62.45
693.175	62.46
693.5	62.5
693.825	62.46
694.15	62.36
694.475	62.46
694.8	62.63
695.125	62.64
695.45	62.73
695.775	62.91
696.099	62.75
696.424	62.71
696.749	62.85
697.073	62.88
697.398	62.7
697.723	62.59
698.047	62.67
698.372	62.94
698.696	63.04
699.02	62.96
699.345	63.03
699.669	62.99
699.993	62.95
700.318	63.02
700.642	63.16
700.966	63.22
701.29	63.2
701.614	63.02
701.938	62.88
702.262	62.91
702.586	62.71
702.91	62.99
703.234	63.03
703.557	63.01
703.881	62.93
704.205	62.93
704.529	63.18
704.852	63.17
705.176	63.19
705.499	63.16
705.823	63.21
706.146	63.17
706.47	63.2
706.793	63.27
707.117	63.14
707.44	63.16
707.763	63.12
708.086	63.05
708.409	63.28
708.733	63.41
709.056	63.3
709.379	63.57
709.702	63.46
710.025	63.28
710.348	63.31
710.671	63.37
710.993	63.48
711.316	63.55
711.639	63.66
711.962	63.73
712.284	63.6
712.607	63.86
712.93	63.84
713.252	63.94
713.575	64.06
713.897	64.14
714.22	64.16
714.542	64.26
714.864	64.34
715.187	64.29
715.509	64.29
715.831	64.41
716.153	64.29
716.475	64.2
716.798	64.44
717.12	64.35
717.442	64.38
717.764	64.39
718.085	64.11
718.407	63.98
718.729	63.78
719.051	63.77
719.373	63.74
719.695	63.82
720.016	63.66
720.338	63.58
720.659	63.53
720.981	63.51
721.302	63.46
721.624	63.64
721.945	63.81
722.267	63.81
722.588	63.82
722.909	64.16
723.231	64.16
723.552	64.04
723.873	64.09
724.194	63.86
724.515	63.89
724.836	63.96
725.157	64.19
725.478	64.07
725.799	64.3
726.12	64.12
726.441	64.14
726.762	64.37
727.083	64.3
727.403	64.2
727.724	64.29
728.045	64.45
728.365	64.26
728.686	63.86
729.006	63.98
729.327	63.78
729.647	63.59
729.967	63.95
730.288	64.15
730.608	64.01
730.928	64.26
731.249	64.24
731.569	64.36
731.889	64.46
732.209	64.56
732.529	64.51
732.849	64.73
733.169	64.74
733.489	64.5
733.809	64.54
734.129	64.76
734.448	64.68
734.768	64.41
735.088	64.51
735.408	64.78
735.727	64.59
736.047	64.74
736.366	64.87
736.686	64.78
737.005	64.84
737.325	64.95
737.644	64.87
737.963	64.96
738.283	64.91
738.602	64.58
738.921	64.72
739.24	64.57
739.56	64.23
739.879	64.26
740.198	64.33
740.517	64.48
740.836	64.33
741.155	64.29
741.473	64.41
741.792	64.45
742.111	64.6
742.43	64.72
742.748	64.59
743.067	64.5
743.386	64.35
743.704	64.12
744.023	63.98
744.341	64.03
744.66	64.07
744.978	63.87
745.297	63.92
745.615	63.79
745.933	64
746.252	64.07
746.57	63.98
746.888	64.48
747.206	64.33
747.524	64.14
747.842	64.22
748.16	64.22
748.478	64.29
748.796	64.21
749.114	64.27
749.432	64.46
749.749	64.03
750.067	64.05
750.385	64.5
750.703	64.72
751.02	64.9
751.338	64.64
751.655	64.88
751.973	64.75
752.29	64.92
752.608	65.14
752.925	65.4
753.242	65.33
753.56	65.21
753.877	65.34
754.194	65.72
754.511	65.71
754.828	66.03
755.145	65.71
755.462	65.57
755.779	65.42
756.096	65.48
756.413	65.7
756.73	65.67
757.047	65.11
757.364	65.21
757.68	64.96
757.997	65.33
758.314	65.43
758.63	65.52
758.947	65.44
759.264	65.24
759.58	65.19
759.896	65.35
760.213	64.77
760.529	64.28
760.846	64.21
761.162	64.33
761.478	64.22
761.794	64.32
762.11	64.36
762.426	64.18
762.743	64.2
763.059	64.29
763.375	64.36
763.69	64.45
764.006	64.16
764.322	64.11
764.638	64.16
764.954	64.18
765.27	64.17
765.585	64.08
765.901	64.15
766.216	64.06
766.532	64
766.848	64.07
767.163	64.45
767.478	64.29
767.794	64.44
768.109	64.22
768.424	64.33
768.74	64.48
769.055	64.78
769.37	64.46
769.685	64.41
770	64.33
770.315	64.39
770.63	64.48
770.945	64.67
771.26	64.49
771.575	64.25
771.89	64.39
772.205	64.4
772.52	64.1
772.834	64.22
773.149	64.34
773.464	64.7
773.778	64.85
774.093	65.11
774.407	65.03
774.722	65.12
775.036	65.17
775.351	65.25
775.665	65.18
775.979	65.07
776.293	64.78
776.608	64.34
776.922	64.15
777.236	64.38
777.55	64.35
777.864	64.03
778.178	64.39
778.492	64.32
778.806	64.37
779.12	64.75
779.434	64.84
779.747	64.69
780.061	64.71
780.375	64.91
780.689	64.99
781.002	64.79
781.316	65.21
781.629	65.26
781.943	65.01
782.256	65.32
782.57	66.03
782.883	66.71
783.196	67.09
783.51	67.34
783.823	67.63
784.136	67.25
784.449	67.76
784.762	67.39
785.075	67.48
785.388	67.45
785.701	67.29
786.014	67.4
786.327	67.18
786.64	67.15
786.953	66.7
787.266	66.47
787.578	66.61
787.891	66.81
788.204	67.07
788.516	67.03
788.829	67.49
789.141	67.14
789.454	66.35
789.766	66.44
790.079	66.42
790.391	66.02
790.703	66.41
791.016	66.52
791.328	66.58
791.64	66.55
791.952	66.69
792.264	66.61
792.576	66.34
792.888	66.57
793.2	66.6
793.512	67.03
793.824	67.06
794.136	66.82
794.448	66.44
794.76	65.8
795.071	66.49
795.383	65.87
795.695	65.78
796.006	65.91
796.318	65.87
796.629	65.88
796.941	66.24
797.252	66.07
797.564	65.73
797.875	65.57
798.186	65.4
798.497	65.34
798.809	65.11
799.12	64.9
799.431	65.18
799.742	65.35
800.053	64.57
800.364	64.52
800.675	65.21
800.986	65.03
801.297	64.96
801.608	63.86
801.918	63.92
802.229	63.78
802.54	64.31
802.851	64.93
803.161	64.74
803.472	64.54
803.782	65.55
804.093	66.08
804.403	66.15
804.714	66.33
805.024	65.91
805.334	66.16
805.645	66.48
805.955	66.06
806.265	65.63
806.575	65.92
806.885	66.17
807.195	65.11
807.505	65.15
807.815	65.19
808.125	65.3
808.435	65.19
808.745	65.42
809.055	65.4
809.365	65.1
809.674	65.71
809.984	65.15
810.294	64.34
810.603	63.67
810.913	63.79
811.222	63.41
811.532	63.69
811.841	64.06
812.151	64.2
812.46	64.79
812.769	65.84
813.079	66.29
813.388	66.31
813.697	66.78
814.006	67.78
814.315	67.89
814.624	68.73
814.933	69.04
815.242	68.87
815.551	68.83
815.86	68.99
816.169	68.38
816.478	68.37
816.786	68.24
817.095	68.06
817.404	68.03
817.712	67.75
818.021	67.73
818.33	66.64
818.638	66.55
818.947	66.19
819.255	65.56
819.563	65.29
819.872	65.23
820.18	64.85
820.488	64.27
820.796	64.46
821.105	64.34
821.413	64.16
821.721	64.24
822.029	64.13
822.337	64.09
822.645	64.15
822.953	64.51
823.26	64.51
823.568	64.75
823.876	64.82
824.184	64.98
824.491	64.96
824.799	65.23
825.107	65.23
825.414	65.21
825.722	65.25
826.029	65.33
826.337	65.39
826.644	65.5
826.951	65.62
827.259	65.77
827.566	65.89
827.873	65.85
828.18	65.98
828.488	66.16
828.795	65.88
829.102	65.94
829.409	65.84
829.716	65.55
830.023	65.2
830.329	65.1
830.636	65.16
830.943	65.11
831.25	64.82
831.557	64.6
831.863	64.58
832.17	64.32
832.476	64.25
832.783	64.45
833.089	64.94
833.396	65.27
833.702	65.21
834.009	65.04
834.315	65.55
834.621	65.48
834.928	64.95
835.234	65.25
835.54	65.68
835.846	65.35
836.152	66.21
836.458	65.96
836.764	65.82
837.07	65.65
837.376	65.36
837.682	65.89
837.988	66.03
838.293	66.08
838.599	66.64
838.905	66.31
839.211	65.53
839.516	64.48
839.822	63.81
840.127	63.93
840.433	63.78
840.738	63.42
841.044	63.77
841.349	65.13
841.654	66.28
841.959	65.04
842.265	65.45
842.57	64.76
842.875	65.51
843.18	66.25
843.485	66.7
843.79	67.97
844.095	66.07
844.4	65.76
844.705	65.88
845.01	64.48
845.315	65.76
845.619	66.7
845.924	66.83
846.229	67.51
846.533	65.85
846.838	65.63
847.142	65.56
847.447	65.45
847.751	64.64
848.056	62.74
848.36	63.79
848.664	63.29
848.969	62.35
849.273	63.18
849.577	62.37
849.881	62.05
850.185	63.7
850.489	65.49
850.794	64.96
851.097	63.97
851.401	65.55
851.705	62.75
852.009	61.44
852.313	62.66
852.617	58.59
852.92	60.75
853.224	61.46
853.528	62.41
853.831	63.08
854.135	63.86
854.438	63.06
854.742	61.86
855.045	63.12
855.349	61.89
855.652	60.89
855.955	61.75
856.259	60.74
856.562	57.02
856.865	56.12
857.168	56.58
857.471	57.77
857.774	56.13
858.077	57.59
858.38	60.58
858.683	60.26
858.986	65.88
859.289	62.82
859.592	62.02
859.894	62.06
860.197	61.16
860.5	60.52
860.802	61.96
861.105	63.55
861.407	62.6
861.71	66.58
862.012	67.15
862.315	64.3
862.617	64.99
862.919	65.19
863.222	65.89
863.524	64.48
863.826	63.94
864.128	65.09
864.43	64.45
864.732	63
865.034	63.12
865.336	60.75
865.638	59.79
865.94	60.57
866.242	59.42
866.544	59.98
866.846	59.68
867.147	60.86
867.449	58.76
867.751	57.63
868.052	57.69
868.354	57.5
868.655	59.52
868.957	60.42
869.258	61.92
869.56	62.35
869.861	64.13
870.162	63.44
870.463	63.61
870.765	66.1
871.066	65.51
871.367	64.88
871.668	64.41
871.969	66.97
872.27	65.17
872.571	67.35
872.872	66.56
873.173	67.25
873.473	64
873.774	67.34
874.075	68.9
874.376	67.91
874.676	65.34
874.977	66.38
875.277	66.91
875.578	65.04
875.878	64.95
876.179	65.33
876.479	66.53
876.78	66.31
877.08	64.06
877.38	63.29
877.68	63.93
877.981	65.22
878.281	64.25
878.581	66.16
