Data from BA28471_Reflection_00003.txt Node
Date: Mon Nov 18 15:20:58 EST 2019
User: vgr7
Spectrometer: USB2G7710
Scans to average: 3
Trigger mode: 4
Integration Time (sec): 2.000000E-2
Electric dark correction enabled: true
Boxcar width: 10
XAxis mode: Wavelengths
Number of Pixels in Spectrum: 2048
>>>>>Begin Spectral Data<<<<<
177.721	303.02
178.105	-79.19
178.488	-63.62
178.871	0.84
179.254	9.32
179.636	-57.98
180.019	151.41
180.402	87.18
180.785	-309.64
181.168	8.78
181.55	15.43
181.933	36.1
182.316	10.47
182.698	-10.16
183.081	-46.18
183.463	-99.37
183.846	-217.67
184.228	-152.32
184.611	-455.1
184.993	-6244.83
185.376	1003.23
185.758	269.78
186.14	1119.87
186.522	6626.32
186.904	-257.35
187.287	-118.92
187.669	348.02
188.051	76.39
188.433	50.1
188.815	67.83
189.197	92.62
189.579	101.76
189.961	61.58
190.342	26.71
190.724	18.59
191.106	19.85
191.488	46.34
191.869	43.29
192.251	67
192.633	85.06
193.014	200.47
193.396	175.61
193.777	195.63
194.159	389.23
194.54	219.53
194.922	188.13
195.303	427.22
195.684	282.49
196.065	217.15
196.447	307.38
196.828	391.6
197.209	135.63
197.59	92.6
197.971	108.81
198.352	178.78
198.733	480.7
199.114	274.84
199.495	74.68
199.876	58.98
200.257	33.37
200.638	23.68
201.018	10.04
201.399	10.2
201.78	15.06
202.16	-5
202.541	-22.33
202.922	-45.7
203.302	-72.08
203.683	-58.26
204.063	-97.16
204.444	-83.4
204.824	-61.68
205.204	-53.72
205.585	-50.7
205.965	-42.49
206.345	-47.91
206.725	-48.26
207.106	-58.33
207.486	-69.21
207.866	-65.57
208.246	-61.23
208.626	-67.38
209.006	-54.17
209.386	-77.19
209.766	-118.87
210.145	-85.6
210.525	-53.38
210.905	-30.29
211.285	-8.75
211.664	-8.71
212.044	-2.58
212.424	19.88
212.803	20.8
213.183	44.73
213.562	53.96
213.942	82.43
214.321	95.42
214.701	119.7
215.08	119.51
215.459	140.92
215.838	165.14
216.218	145
216.597	115.21
216.976	100.86
217.355	96.16
217.734	93.15
218.113	97.23
218.492	103.3
218.871	94.75
219.25	107.26
219.629	102.29
220.008	110.22
220.387	88.36
220.766	74.77
221.144	53.93
221.523	52.16
221.902	53.95
222.28	56.48
222.659	61.83
223.037	56.73
223.416	55.84
223.794	39.75
224.173	38.1
224.551	27.32
224.929	18.22
225.308	24.12
225.686	19.07
226.064	17.53
226.442	9.81
226.821	8.19
227.199	4.13
227.577	6.34
227.955	4.89
228.333	3.47
228.711	2.93
229.089	8.76
229.467	4.91
229.845	5.49
230.222	3.99
230.6	2.27
230.978	0.76
231.356	2.54
231.733	1.84
232.111	1.96
232.488	3.68
232.866	5.8
233.243	5.12
233.621	5.85
233.998	7.01
234.376	7.24
234.753	9.13
235.13	9.25
235.508	8.51
235.885	8.53
236.262	8.46
236.639	8.79
237.016	8.51
237.393	10.87
237.77	10.59
238.147	10.52
238.524	10.26
238.901	11.01
239.278	10.53
239.655	10.24
240.032	9.71
240.409	9.37
240.785	8.71
241.162	7.86
241.539	8.27
241.915	8.29
242.292	7.81
242.668	7.53
243.045	7.43
243.421	7.48
243.798	7.32
244.174	7.02
244.551	6.97
244.927	6.82
245.303	6.82
245.679	6.64
246.056	6.47
246.432	6.37
246.808	6.14
247.184	6.16
247.56	6.27
247.936	6.3
248.312	6.18
248.688	6.18
249.064	6.11
249.44	5.91
249.815	5.87
250.191	6.04
250.567	6.05
250.943	6
251.318	6.07
251.694	6.31
252.069	6.64
252.445	6.51
252.82	6.48
253.196	6.13
253.571	5.96
253.947	5.95
254.322	6.26
254.697	6.75
255.073	6.14
255.448	5.77
255.823	6.03
256.198	6.2
256.573	6.14
256.948	6.34
257.323	6.21
257.698	6.05
258.073	6.03
258.448	5.92
258.823	5.76
259.198	5.74
259.573	5.56
259.948	5.53
260.322	5.64
260.697	5.63
261.072	5.52
261.446	5.56
261.821	5.54
262.195	5.47
262.57	5.12
262.944	5.17
263.319	5.28
263.693	5.12
264.067	4.99
264.442	5.17
264.816	5.03
265.19	5.24
265.564	5.35
265.938	5.14
266.313	5.26
266.687	5.45
267.061	5.52
267.435	5.55
267.809	5.36
268.183	5.33
268.556	5.28
268.93	5.58
269.304	5.57
269.678	5.65
270.051	5.57
270.425	5.82
270.799	5.78
271.172	5.78
271.546	5.71
271.919	5.73
272.293	5.58
272.666	5.76
273.04	5.7
273.413	5.75
273.787	5.74
274.16	5.67
274.533	5.62
274.906	5.59
275.279	5.66
275.653	5.67
276.026	5.69
276.399	5.74
276.772	5.66
277.145	5.63
277.518	5.64
277.891	5.69
278.263	5.45
278.636	5.46
279.009	5.29
279.382	5.45
279.755	5.39
280.127	5.64
280.5	5.52
280.872	5.66
281.245	5.57
281.617	5.85
281.99	5.94
282.362	6.01
282.735	5.88
283.107	5.88
283.479	5.96
283.852	5.86
284.224	5.81
284.596	5.82
284.968	5.93
285.34	5.84
285.713	5.7
286.085	5.92
286.457	6.04
286.829	6.16
287.201	6.04
287.572	6.05
287.944	5.88
288.316	5.85
288.688	5.74
289.06	5.7
289.431	5.66
289.803	5.64
290.175	5.57
290.546	5.66
290.918	5.63
291.289	5.66
291.661	5.66
292.032	5.81
292.403	5.81
292.775	5.84
293.146	5.76
293.517	5.85
293.889	5.81
294.26	5.7
294.631	5.66
295.002	5.71
295.373	5.68
295.744	5.72
296.115	5.7
296.486	5.62
296.857	5.6
297.228	5.47
297.599	5.36
297.97	5.35
298.34	5.34
298.711	5.42
299.082	5.32
299.452	5.33
299.823	5.25
300.194	5.27
300.564	5.21
300.935	5.34
301.305	5.31
301.676	5.37
302.046	5.51
302.416	5.68
302.787	5.67
303.157	5.74
303.527	5.8
303.897	5.79
304.267	5.75
304.637	5.8
305.008	6.1
305.378	6.11
305.748	6.2
306.117	6.15
306.487	6.09
306.857	6.14
307.227	6.11
307.597	6.05
307.967	5.96
308.336	5.99
308.706	6.06
309.076	6.05
309.445	5.94
309.815	5.84
310.184	5.75
310.554	5.77
310.923	5.82
311.293	5.73
311.662	5.8
312.031	5.84
312.401	5.86
312.77	5.73
313.139	5.89
313.508	5.86
313.877	5.85
314.246	5.94
314.616	6.05
314.985	5.99
315.353	5.98
315.722	6.04
316.091	6.01
316.46	5.79
316.829	5.85
317.198	5.88
317.567	5.87
317.935	5.83
318.304	5.77
318.672	5.75
319.041	5.79
319.41	5.64
319.778	5.57
320.147	5.6
320.515	5.45
320.883	5.25
321.252	5.25
321.62	5.42
321.988	5.3
322.357	5.31
322.725	5.41
323.093	5.44
323.461	5.34
323.829	5.43
324.197	5.63
324.565	5.53
324.933	5.57
325.301	5.68
325.669	5.73
326.037	5.86
326.405	5.85
326.772	5.96
327.14	6.04
327.508	6.06
327.875	6
328.243	6.13
328.61	6.11
328.978	6.19
329.346	6.07
329.713	5.99
330.08	5.9
330.448	5.84
330.815	5.76
331.182	5.85
331.55	5.75
331.917	5.7
332.284	5.86
332.651	5.82
333.018	5.78
333.385	5.66
333.752	5.7
334.119	5.83
334.486	5.69
334.853	5.81
335.22	5.83
335.587	5.87
335.954	5.88
336.32	5.9
336.687	5.9
337.054	5.99
337.42	6.06
337.787	6.12
338.153	6.17
338.52	6.24
338.886	6
339.253	6.09
339.619	6.09
339.986	6.05
340.352	6.05
340.718	5.99
341.084	6.05
341.451	6.04
341.817	5.85
342.183	5.87
342.549	5.71
342.915	5.75
343.281	5.75
343.647	5.63
344.013	5.66
344.379	5.46
344.745	5.4
345.11	5.41
345.476	5.34
345.842	5.38
346.208	5.36
346.573	5.57
346.939	5.54
347.304	5.49
347.67	5.42
348.035	5.49
348.401	5.61
348.766	5.6
349.132	5.58
349.497	5.57
349.862	5.72
350.228	5.72
350.593	5.71
350.958	5.73
351.323	5.82
351.688	5.78
352.053	5.93
352.418	5.87
352.783	5.93
353.148	5.95
353.513	5.92
353.878	5.91
354.243	5.94
354.608	5.89
354.972	5.88
355.337	5.93
355.702	5.92
356.066	5.83
356.431	5.84
356.795	5.84
357.16	5.88
357.524	5.73
357.889	5.78
358.253	5.74
358.618	5.76
358.982	5.74
359.346	5.81
359.71	5.73
360.075	5.8
360.439	5.77
360.803	5.76
361.167	5.72
361.531	5.72
361.895	5.7
362.259	5.71
362.623	5.73
362.987	5.7
363.351	5.7
363.714	5.72
364.078	5.69
364.442	5.63
364.806	5.63
365.169	5.61
365.533	5.6
365.896	5.58
366.26	5.52
366.623	5.48
366.987	5.34
367.35	5.4
367.714	5.31
368.077	5.26
368.44	5.26
368.803	5.29
369.167	5.29
369.53	5.27
369.893	5.28
370.256	5.31
370.619	5.38
370.982	5.34
371.345	5.36
371.708	5.4
372.071	5.43
372.434	5.42
372.797	5.45
373.159	5.45
373.522	5.51
373.885	5.51
374.247	5.57
374.61	5.65
374.973	5.63
375.335	5.63
375.698	5.71
376.06	5.63
376.423	5.58
376.785	5.62
377.147	5.65
377.51	5.7
377.872	5.75
378.234	5.74
378.596	5.76
378.958	5.72
379.321	5.7
379.683	5.72
380.045	5.72
380.407	5.75
380.769	5.78
381.13	5.78
381.492	5.8
381.854	5.8
382.216	5.82
382.578	5.87
382.939	5.85
383.301	5.83
383.663	5.89
384.024	5.98
384.386	5.97
384.747	5.96
385.109	5.92
385.47	5.86
385.832	5.83
386.193	5.85
386.554	5.87
386.916	5.87
387.277	5.9
387.638	5.88
387.999	5.86
388.36	5.82
388.721	5.77
389.082	5.78
389.443	5.76
389.804	5.68
390.165	5.69
390.526	5.75
390.887	5.73
391.248	5.78
391.609	5.75
391.969	5.8
392.33	5.78
392.691	5.79
393.051	5.79
393.412	5.81
393.772	5.77
394.133	5.75
394.493	5.76
394.854	5.72
395.214	5.72
395.574	5.71
395.935	5.7
396.295	5.77
396.655	5.77
397.015	5.75
397.376	5.81
397.736	5.79
398.096	5.77
398.456	5.8
398.816	5.78
399.176	5.77
399.535	5.73
399.895	5.7
400.255	5.68
400.615	5.69
400.975	5.7
401.334	5.74
401.694	5.77
402.054	5.78
402.413	5.8
402.773	5.83
403.132	5.85
403.492	5.89
403.851	5.87
404.211	5.88
404.57	5.91
404.929	5.91
405.288	5.88
405.648	5.87
406.007	5.86
406.366	5.81
406.725	5.8
407.084	5.81
407.443	5.82
407.802	5.87
408.161	5.88
408.52	5.85
408.879	5.82
409.238	5.81
409.596	5.8
409.955	5.79
410.314	5.8
410.673	5.77
411.031	5.75
411.39	5.73
411.748	5.71
412.107	5.71
412.465	5.7
412.824	5.71
413.182	5.71
413.54	5.71
413.899	5.75
414.257	5.75
414.615	5.74
414.974	5.77
415.332	5.76
415.69	5.73
416.048	5.71
416.406	5.74
416.764	5.72
417.122	5.74
417.48	5.73
417.838	5.75
418.195	5.77
418.553	5.78
418.911	5.8
419.269	5.8
419.626	5.79
419.984	5.8
420.342	5.82
420.699	5.83
421.057	5.83
421.414	5.82
421.772	5.82
422.129	5.83
422.486	5.82
422.844	5.81
423.201	5.81
423.558	5.83
423.915	5.81
424.273	5.81
424.63	5.81
424.987	5.81
425.344	5.78
425.701	5.76
426.058	5.76
426.415	5.75
426.772	5.77
427.128	5.76
427.485	5.75
427.842	5.74
428.199	5.73
428.555	5.72
428.912	5.73
429.269	5.75
429.625	5.76
429.982	5.75
430.338	5.76
430.695	5.75
431.051	5.76
431.407	5.77
431.764	5.79
432.12	5.78
432.476	5.77
432.832	5.8
433.189	5.8
433.545	5.79
433.901	5.79
434.257	5.78
434.613	5.79
434.969	5.79
435.325	5.78
435.681	5.8
436.036	5.81
436.392	5.81
436.748	5.79
437.104	5.78
437.459	5.79
437.815	5.81
438.171	5.85
438.526	5.85
438.882	5.87
439.237	5.88
439.593	5.89
439.948	5.89
440.304	5.9
440.659	5.91
441.014	5.91
441.369	5.89
441.725	5.89
442.08	5.89
442.435	5.89
442.79	5.91
443.145	5.91
443.5	5.89
443.855	5.89
444.21	5.89
444.565	5.89
444.92	5.9
445.275	5.87
445.629	5.86
445.984	5.85
446.339	5.82
446.693	5.8
447.048	5.78
447.403	5.78
447.757	5.76
448.112	5.75
448.466	5.76
448.82	5.77
449.175	5.77
449.529	5.75
449.883	5.76
450.238	5.75
450.592	5.73
450.946	5.72
451.3	5.72
451.654	5.72
452.008	5.72
452.362	5.71
452.716	5.72
453.07	5.71
453.424	5.71
453.778	5.72
454.132	5.76
454.486	5.78
454.839	5.79
455.193	5.8
455.547	5.8
455.9	5.8
456.254	5.82
456.607	5.83
456.961	5.85
457.314	5.86
457.668	5.85
458.021	5.86
458.375	5.88
458.728	5.87
459.081	5.87
459.434	5.85
459.787	5.86
460.141	5.84
460.494	5.85
460.847	5.84
461.2	5.85
461.553	5.86
461.906	5.85
462.259	5.86
462.611	5.86
462.964	5.86
463.317	5.88
463.67	5.86
464.022	5.86
464.375	5.85
464.728	5.84
465.08	5.85
465.433	5.87
465.785	5.86
466.138	5.89
466.49	5.87
466.843	5.87
467.195	5.85
467.547	5.89
467.899	5.88
468.252	5.89
468.604	5.89
468.956	5.88
469.308	5.88
469.66	5.88
470.012	5.87
470.364	5.87
470.716	5.87
471.068	5.86
471.42	5.86
471.772	5.88
472.123	5.89
472.475	5.87
472.827	5.85
473.178	5.86
473.53	5.85
473.882	5.85
474.233	5.85
474.585	5.86
474.936	5.84
475.288	5.85
475.639	5.88
475.99	5.89
476.342	5.88
476.693	5.88
477.044	5.89
477.395	5.89
477.746	5.9
478.097	5.92
478.448	5.95
478.8	5.97
479.15	5.95
479.501	5.97
479.852	5.98
480.203	6
480.554	6.02
480.905	6.05
481.255	6.07
481.606	6.09
481.957	6.11
482.307	6.11
482.658	6.12
483.009	6.11
483.359	6.12
483.709	6.11
484.06	6.11
484.41	6.11
484.761	6.13
485.111	6.12
485.461	6.12
485.811	6.12
486.162	6.12
486.512	6.12
486.862	6.12
487.212	6.13
487.562	6.13
487.912	6.13
488.262	6.12
488.612	6.12
488.961	6.11
489.311	6.1
489.661	6.1
490.011	6.1
490.36	6.1
490.71	6.09
491.06	6.11
491.409	6.12
491.759	6.12
492.108	6.1
492.458	6.12
492.807	6.11
493.157	6.12
493.506	6.13
493.855	6.15
494.204	6.15
494.554	6.16
494.903	6.15
495.252	6.14
495.601	6.18
495.95	6.16
496.299	6.15
496.648	6.15
496.997	6.16
497.346	6.18
497.695	6.19
498.043	6.2
498.392	6.2
498.741	6.19
499.09	6.21
499.438	6.22
499.787	6.2
500.135	6.22
500.484	6.22
500.832	6.22
501.181	6.2
501.529	6.19
501.878	6.21
502.226	6.21
502.574	6.2
502.923	6.17
503.271	6.17
503.619	6.18
503.967	6.21
504.315	6.2
504.663	6.18
505.011	6.18
505.359	6.18
505.707	6.18
506.055	6.21
506.403	6.2
506.751	6.21
507.098	6.23
507.446	6.25
507.794	6.25
508.141	6.27
508.489	6.3
508.837	6.3
509.184	6.28
509.531	6.31
509.879	6.33
510.226	6.37
510.574	6.39
510.921	6.41
511.268	6.39
511.616	6.41
511.963	6.44
512.31	6.45
512.657	6.45
513.004	6.45
513.351	6.45
513.698	6.44
514.045	6.42
514.392	6.43
514.739	6.41
515.086	6.41
515.432	6.37
515.779	6.35
516.126	6.36
516.473	6.4
516.819	6.42
517.166	6.42
517.512	6.4
517.859	6.38
518.205	6.38
518.552	6.41
518.898	6.4
519.245	6.38
519.591	6.37
519.937	6.36
520.283	6.35
520.629	6.35
520.976	6.37
521.322	6.4
521.668	6.42
522.014	6.44
522.36	6.47
522.706	6.52
523.052	6.53
523.398	6.55
523.743	6.55
524.089	6.54
524.435	6.53
524.781	6.57
525.126	6.6
525.472	6.62
525.817	6.62
526.163	6.63
526.509	6.63
526.854	6.64
527.199	6.65
527.545	6.67
527.89	6.66
528.235	6.67
528.581	6.68
528.926	6.68
529.271	6.68
529.616	6.66
529.961	6.65
530.306	6.66
530.651	6.65
530.996	6.65
531.341	6.64
531.686	6.64
532.031	6.63
532.376	6.62
532.721	6.62
533.065	6.62
533.41	6.62
533.755	6.63
534.099	6.65
534.444	6.65
534.788	6.66
535.133	6.67
535.477	6.67
535.822	6.67
536.166	6.66
536.51	6.67
536.855	6.68
537.199	6.68
537.543	6.67
537.887	6.68
538.231	6.67
538.576	6.69
538.92	6.69
539.264	6.7
539.608	6.72
539.951	6.72
540.295	6.72
540.639	6.73
540.983	6.72
541.327	6.72
541.671	6.72
542.014	6.69
542.358	6.68
542.701	6.68
543.045	6.67
543.389	6.69
543.732	6.7
544.075	6.69
544.419	6.71
544.762	6.71
545.105	6.71
545.449	6.72
545.792	6.71
546.135	6.73
546.478	6.71
546.821	6.68
547.165	6.67
547.508	6.69
547.851	6.69
548.194	6.71
548.536	6.71
548.879	6.74
549.222	6.75
549.565	6.76
549.908	6.77
550.25	6.8
550.593	6.79
550.936	6.78
551.278	6.78
551.621	6.77
551.963	6.81
552.306	6.85
552.648	6.86
552.991	6.88
553.333	6.89
553.675	6.93
554.017	6.94
554.36	6.94
554.702	6.92
555.044	6.94
555.386	6.93
555.728	6.94
556.07	6.94
556.412	6.95
556.754	6.95
557.096	6.96
557.438	6.95
557.78	6.97
558.121	6.98
558.463	7.02
558.805	7.03
559.147	6.99
559.488	6.97
559.83	6.96
560.171	6.95
560.513	6.95
560.854	6.93
561.196	6.92
561.537	6.94
561.878	6.97
562.22	6.97
562.561	6.96
562.902	6.97
563.243	6.96
563.584	6.97
563.925	6.97
564.266	6.95
564.607	6.92
564.948	6.93
565.289	6.94
565.63	6.92
565.971	6.89
566.312	6.91
566.653	6.9
566.993	6.91
567.334	6.91
567.675	6.9
568.015	6.92
568.356	6.94
568.696	6.94
569.037	6.91
569.377	6.89
569.718	6.92
570.058	6.94
570.398	6.96
570.739	6.97
571.079	6.99
571.419	7
571.759	7.04
572.099	7.02
572.439	7.04
572.779	7.04
573.119	7.08
573.459	7.09
573.799	7.11
574.139	7.11
574.479	7.12
574.819	7.15
575.158	7.14
575.498	7.13
575.838	7.16
576.177	7.18
576.517	7.21
576.856	7.2
577.196	7.18
577.535	7.17
577.875	7.18
578.214	7.17
578.553	7.23
578.893	7.22
579.232	7.24
579.571	7.24
579.91	7.26
580.25	7.25
580.589	7.26
580.928	7.25
581.267	7.29
581.606	7.27
581.945	7.28
582.283	7.26
582.622	7.26
582.961	7.23
583.3	7.24
583.639	7.25
583.977	7.23
584.316	7.21
584.654	7.23
584.993	7.27
585.332	7.3
585.67	7.29
586.008	7.28
586.347	7.25
586.685	7.25
587.024	7.26
587.362	7.26
587.7	7.28
588.038	7.29
588.376	7.27
588.715	7.29
589.053	7.26
589.391	7.32
589.729	7.35
590.067	7.35
590.404	7.36
590.742	7.36
591.08	7.37
591.418	7.45
591.756	7.47
592.093	7.44
592.431	7.43
592.769	7.43
593.106	7.42
593.444	7.43
593.781	7.41
594.119	7.41
594.456	7.4
594.793	7.39
595.131	7.38
595.468	7.43
595.805	7.45
596.143	7.47
596.48	7.44
596.817	7.44
597.154	7.48
597.491	7.48
597.828	7.48
598.165	7.51
598.502	7.45
598.839	7.44
599.176	7.42
599.512	7.41
599.849	7.4
600.186	7.42
600.523	7.44
600.859	7.47
601.196	7.54
601.532	7.57
601.869	7.57
602.205	7.57
602.542	7.55
602.878	7.54
603.215	7.51
603.551	7.55
603.887	7.54
604.223	7.54
604.56	7.57
604.896	7.55
605.232	7.55
605.568	7.57
605.904	7.53
606.24	7.58
606.576	7.61
606.912	7.62
607.248	7.61
607.583	7.62
607.919	7.64
608.255	7.63
608.591	7.63
608.926	7.66
609.262	7.7
609.597	7.7
609.933	7.75
610.268	7.81
610.604	7.8
610.939	7.79
611.275	7.79
611.61	7.77
611.945	7.81
612.281	7.77
612.616	7.79
612.951	7.84
613.286	7.82
613.621	7.81
613.956	7.8
614.291	7.8
614.626	7.79
614.961	7.79
615.296	7.76
615.631	7.77
615.966	7.78
616.3	7.76
616.635	7.75
616.97	7.71
617.304	7.67
617.639	7.7
617.973	7.72
618.308	7.76
618.642	7.77
618.977	7.78
619.311	7.81
619.646	7.82
619.98	7.85
620.314	7.87
620.648	7.87
620.983	7.91
621.317	7.93
621.651	7.97
621.985	7.97
622.319	7.97
622.653	7.95
622.987	7.93
623.321	7.9
623.655	7.95
623.988	8
624.322	8.03
624.656	8.05
624.99	8.06
625.323	8.03
625.657	7.98
625.99	8.04
626.324	8
626.657	7.98
626.991	7.94
627.324	7.94
627.658	7.96
627.991	7.97
628.324	7.98
628.657	7.94
628.991	7.93
629.324	7.94
629.657	7.94
629.99	7.96
630.323	7.97
630.656	7.97
630.989	7.96
631.322	7.9
631.655	7.87
631.987	7.88
632.32	7.9
632.653	7.95
632.986	7.89
633.318	7.95
633.651	7.99
633.984	8.03
634.316	8.03
634.649	8.04
634.981	8.02
635.313	8
635.646	8.03
635.978	8.07
636.31	8.09
636.643	8.07
636.975	8.11
637.307	8.15
637.639	8.15
637.971	8.1
638.303	8.17
638.635	8.14
638.967	8.16
639.299	8.21
639.631	8.21
639.963	8.24
640.295	8.24
640.626	8.23
640.958	8.27
641.29	8.23
641.621	8.26
641.953	8.24
642.285	8.25
642.616	8.29
642.948	8.27
643.279	8.22
643.61	8.27
643.942	8.23
644.273	8.3
644.604	8.23
644.936	8.24
645.267	8.19
645.598	8.27
645.929	8.25
646.26	8.22
646.591	8.28
646.922	8.22
647.253	8.27
647.584	8.32
647.915	8.31
648.245	8.36
648.576	8.4
648.907	8.45
649.238	8.44
649.568	8.42
649.899	8.43
650.229	8.46
650.56	8.53
650.89	8.53
651.221	8.44
651.551	8.43
651.882	8.48
652.212	8.49
652.542	8.45
652.872	8.38
653.203	8.34
653.533	8.31
653.863	8.39
654.193	8.33
654.523	8.31
654.853	8.32
655.183	8.37
655.513	8.32
655.843	8.33
656.172	8.37
656.502	8.35
656.832	8.39
657.162	8.45
657.491	8.34
657.821	8.37
658.15	8.43
658.48	8.49
658.809	8.49
659.139	8.54
659.468	8.6
659.798	8.7
660.127	8.81
660.456	8.85
660.785	8.84
661.115	8.9
661.444	8.9
661.773	8.91
662.102	8.86
662.431	8.88
662.76	8.87
663.089	8.89
663.418	8.96
663.747	8.93
664.076	8.96
664.404	9.07
664.733	9.14
665.062	9.06
665.39	9.07
665.719	9.06
666.048	9.1
666.376	9.05
666.705	9.03
667.033	8.94
667.362	8.93
667.69	8.92
668.018	8.94
668.347	8.93
668.675	8.89
669.003	8.95
669.331	9.01
669.659	9.05
669.987	9.03
670.315	9.01
670.643	9.02
670.971	9.07
671.299	9.04
671.627	9
671.955	9.06
672.283	9.1
672.61	9.11
672.938	9.13
673.266	9.22
673.593	9.33
673.921	9.39
674.249	9.45
674.576	9.52
674.904	9.45
675.231	9.48
675.558	9.5
675.886	9.49
676.213	9.5
676.54	9.49
676.867	9.57
677.195	9.53
677.522	9.55
677.849	9.52
678.176	9.52
678.503	9.48
678.83	9.48
679.157	9.48
679.484	9.51
679.81	9.53
680.137	9.44
680.464	9.33
680.791	9.34
681.117	9.22
681.444	9.19
681.771	9.27
682.097	9.31
682.424	9.35
682.75	9.32
683.077	9.3
683.403	9.29
683.729	9.25
684.056	9.33
684.382	9.33
684.708	9.3
685.034	9.31
685.36	9.42
685.686	9.52
686.012	9.48
686.339	9.56
686.664	9.5
686.99	9.65
687.316	9.75
687.642	9.77
687.968	9.87
688.294	10.01
688.619	10.07
688.945	10.03
689.271	9.99
689.596	9.99
689.922	10.02
690.247	10.04
690.573	10.08
690.898	10.04
691.224	10.09
691.549	10.05
691.874	10.04
692.2	9.98
692.525	9.92
692.85	10.05
693.175	9.98
693.5	10.11
693.825	10.07
694.15	10.19
694.475	10.18
694.8	10.19
695.125	10.15
695.45	10.11
695.775	10.16
696.099	10.14
696.424	10.22
696.749	10.17
697.073	10.14
697.398	10.14
697.723	10.2
698.047	10.17
698.372	10.21
698.696	10.27
699.02	10.28
699.345	10.26
699.669	10.23
699.993	10.2
700.318	10.17
700.642	10.24
700.966	10.08
701.29	10.09
701.614	10.05
701.938	10.03
702.262	10.14
702.586	10.15
702.91	10.23
703.234	10.26
703.557	10.3
703.881	10.3
704.205	10.39
704.529	10.33
704.852	10.43
705.176	10.4
705.499	10.4
705.823	10.49
706.146	10.58
706.47	10.58
706.793	10.64
707.117	10.65
707.44	10.42
707.763	10.52
708.086	10.56
708.409	10.55
708.733	10.47
709.056	10.38
709.379	10.39
709.702	10.44
710.025	10.28
710.348	10.41
710.671	10.42
710.993	10.42
711.316	10.51
711.639	10.6
711.962	10.71
712.284	10.71
712.607	10.57
712.93	10.61
713.252	10.63
713.575	10.66
713.897	10.62
714.22	10.76
714.542	10.67
714.864	10.68
715.187	10.71
715.509	10.96
715.831	11.03
716.153	11.15
716.475	11.17
716.798	11.43
717.12	11.25
717.442	11.44
717.764	11.36
718.085	11.41
718.407	11.26
718.729	11.23
719.051	11.36
719.373	11.48
719.695	11.41
720.016	11.57
720.338	11.57
720.659	11.47
720.981	11.45
721.302	11.57
721.624	11.59
721.945	11.62
722.267	11.25
722.588	11.19
722.909	11.16
723.231	11.15
723.552	10.94
723.873	11.04
724.194	10.86
724.515	10.94
724.836	11.01
725.157	11.11
725.478	11.07
725.799	10.88
726.12	10.94
726.441	10.97
726.762	10.98
727.083	10.87
727.403	11.01
727.724	11.2
728.045	11.27
728.365	11.24
728.686	11.24
729.006	11.4
729.327	11.34
729.647	11.31
729.967	11.23
730.288	11.45
730.608	11.37
730.928	11.54
731.249	11.4
731.569	11.49
731.889	11.5
732.209	11.46
732.529	11.52
732.849	11.51
733.169	11.52
733.489	11.33
733.809	11.43
734.129	11.47
734.448	11.37
734.768	11.19
735.088	11.28
735.408	11.32
735.727	11.47
736.047	11.69
736.366	11.65
736.686	11.63
737.005	11.52
737.325	11.74
737.644	11.68
737.963	11.82
738.283	11.5
738.602	11.48
738.921	11.58
739.24	11.67
739.56	11.79
739.879	11.81
740.198	11.95
740.517	11.9
740.836	11.87
741.155	11.95
741.473	12.28
741.792	12.27
742.111	12.39
742.43	12.31
742.748	12.17
743.067	12.09
743.386	12.39
743.704	12.53
744.023	12.39
744.341	12.24
744.66	12.5
744.978	12.55
745.297	12.44
745.615	12.59
745.933	12.44
746.252	12.21
746.57	12.26
746.888	12.34
747.206	12.2
747.524	12.15
747.842	12.18
748.16	12.33
748.478	12.28
748.796	12.3
749.114	12.37
749.432	12.22
749.749	12.44
750.067	12.14
750.385	11.71
750.703	11.67
751.02	11.78
751.338	11.69
751.655	11.73
751.973	11.94
752.29	11.86
752.608	12
752.925	12.29
753.242	12.41
753.56	12.27
753.877	12.42
754.194	12.58
754.511	12.4
754.828	12.14
755.145	12.26
755.462	12.09
755.779	11.95
756.096	12.22
756.413	12.24
756.73	12.46
757.047	12.93
757.364	13.26
757.68	13.34
757.997	13.38
758.314	13.27
758.63	13.26
758.947	13.27
759.264	13.34
759.58	13.15
759.896	13.08
760.213	12.9
760.529	13.08
760.846	13.25
761.162	13.21
761.478	13
761.794	12.9
762.11	13.02
762.426	12.94
762.743	12.92
763.059	12.85
763.375	12.86
763.69	12.79
764.006	12.79
764.322	12.89
764.638	12.88
764.954	13.33
765.27	13.2
765.585	13.17
765.901	13.24
766.216	13.22
766.532	13.12
766.848	13.35
767.163	13.21
767.478	13.1
767.794	13.5
768.109	13.64
768.424	14.11
768.74	14.17
769.055	14.28
769.37	14.4
769.685	14.46
770	14.45
770.315	14.43
770.63	14.24
770.945	14.06
771.26	14.06
771.575	13.54
771.89	13.93
772.205	13.98
772.52	13.98
772.834	14
773.149	14.37
773.464	14.48
773.778	14.82
774.093	14.61
774.407	14.1
774.722	14.3
775.036	13.91
775.351	13.74
775.665	13.76
775.979	13.3
776.293	13.34
776.608	13.48
776.922	13.69
777.236	13.86
777.55	13.94
777.864	13.9
778.178	14.41
778.492	14.47
778.806	14.52
779.12	14.68
779.434	14.77
779.747	14.74
780.061	14.76
780.375	14.59
780.689	14.78
781.002	15.16
781.316	15.34
781.629	15.17
781.943	15.47
782.256	15.68
782.57	15.81
782.883	15.76
783.196	15.62
783.51	15.19
783.823	15.06
784.136	15.36
784.449	15.45
784.762	15.44
785.075	15.29
785.388	15.34
785.701	15.67
786.014	15.81
786.327	15.67
786.64	15.48
786.953	15.12
787.266	15.18
787.578	14.97
787.891	14.85
788.204	14.99
788.516	14.89
788.829	14.74
789.141	15.26
789.454	15.53
789.766	15.85
790.079	16.44
790.391	16.57
790.703	16.61
791.016	16.41
791.328	16.46
791.64	16.66
791.952	16.84
792.264	16.25
792.576	16.14
792.888	16.08
793.2	16.39
793.512	16.81
793.824	16.79
794.136	16.68
794.448	16.85
794.76	16.84
795.071	17.19
795.383	16.96
795.695	16.76
796.006	16.33
796.318	16.07
796.629	15.73
796.941	15.86
797.252	15.83
797.564	16.41
797.875	16.14
798.186	15.97
798.497	15.87
798.809	15.95
799.12	16.06
799.431	16.29
799.742	16.13
800.053	16.62
800.364	16.7
800.675	16.54
800.986	16.31
801.297	16.25
801.608	16.09
801.918	16.27
802.229	16.3
802.54	16.46
802.851	16.54
803.161	17.4
803.472	17.49
803.782	17.31
804.093	17.1
804.403	16.61
804.714	16.79
805.024	16.45
805.334	16.55
805.645	16.75
805.955	16.71
806.265	16.75
806.575	16.41
806.885	16.74
807.195	17.25
807.505	16.83
807.815	16.82
808.125	16.37
808.435	16.19
808.745	16.24
809.055	16.58
809.365	16.28
809.674	15.27
809.984	15.4
810.294	15.7
810.603	15.59
810.913	16.73
811.222	16.85
811.532	16.82
811.841	17.66
812.151	17.72
812.46	18.15
812.769	18.14
813.079	18.32
813.388	17.43
813.697	17.36
814.006	17.43
814.315	17.95
814.624	18.41
814.933	18.47
815.242	18.75
815.551	19.02
815.86	19.71
816.169	20.38
816.478	20.04
816.786	19.66
817.095	20.04
817.404	19.51
817.712	19.12
818.021	19.96
818.33	18.53
818.638	18.66
818.947	18.44
819.255	18.58
819.563	18.19
819.872	18.24
820.18	18.46
820.488	18.52
820.796	18.15
821.105	18.1
821.413	18.25
821.721	17.88
822.029	17.6
822.337	17.49
822.645	17.41
822.953	17.28
823.26	17.54
823.568	17.36
823.876	17.35
824.184	17.39
824.491	17.19
824.799	17.37
825.107	17.31
825.414	17.37
825.722	17.37
826.029	17.53
826.337	17.67
826.644	17.62
826.951	17.72
827.259	17.73
827.566	17.57
827.873	17.71
828.18	18.09
828.488	18.52
828.795	18.76
829.102	18.77
829.409	18.95
829.716	18.74
830.023	19.13
830.329	19.07
830.636	19.27
830.943	19.32
831.25	19.44
831.557	19.31
831.863	18.97
832.17	18.8
832.476	18.79
832.783	18.96
833.089	18.91
833.396	19.09
833.702	19.63
834.009	19.95
834.315	19.42
834.621	19.18
834.928	18.85
835.234	18.47
835.54	18.51
835.846	19.02
836.152	18.91
836.458	18.92
836.764	19.31
837.07	18.9
837.376	19.23
837.682	19.15
837.988	19.11
838.293	19.38
838.599	19.4
838.905	19.46
839.211	19.07
839.516	18.96
839.822	18.75
840.127	18.4
840.433	18.56
840.738	18.75
841.044	18.95
841.349	20.01
841.654	20.5
841.959	20.17
842.265	19.59
842.57	20.14
842.875	19.08
843.18	19.75
843.485	20.37
843.79	19.84
844.095	20.29
844.4	22.24
844.705	21.34
845.01	22.49
845.315	22.72
845.619	22.67
845.924	23.46
846.229	23.35
846.533	23.41
846.838	23.83
847.142	25.39
847.447	24.86
847.751	22.53
848.056	22.01
848.36	24.07
848.664	24.46
848.969	23.41
849.273	23.21
849.577	20.88
849.881	21.49
850.185	22.23
850.489	21.04
850.794	17.72
851.097	19.3
851.401	17.52
851.705	16.31
852.009	17.25
852.313	17.35
852.617	16.19
852.92	16.3
853.224	15.87
853.528	14.37
853.831	13.57
854.135	14.93
854.438	15.62
854.742	13.82
855.045	12.68
855.349	13.39
855.652	16.1
855.955	18.59
856.259	15.73
856.562	14.51
856.865	14.65
857.168	16.56
857.471	16.07
857.774	18.48
858.077	17.95
858.38	17.65
858.683	16.59
858.986	18.35
859.289	18.44
859.592	19.52
859.894	20.46
860.197	20.38
860.5	21.61
860.802	21.14
861.105	22.11
861.407	22.41
861.71	22.84
862.012	22.24
862.315	21.05
862.617	22.19
862.919	23.53
863.222	24.09
863.524	23.19
863.826	24.41
864.128	21.66
864.43	22.93
864.732	22.73
865.034	22.54
865.336	22.05
865.638	22.49
865.94	19.6
866.242	18.13
866.544	19.16
866.846	15.75
867.147	14.66
867.449	14.09
867.751	14.78
868.052	14.87
868.354	15.14
868.655	17.89
868.957	17.46
869.258	16.41
869.56	15.45
869.861	15.71
870.162	13.21
870.463	14.29
870.765	15.57
871.066	15.64
871.367	18.54
871.668	17.04
871.969	15.97
872.27	17.29
872.571	17.89
872.872	19.62
873.173	21.89
873.473	24.35
873.774	25.37
874.075	23.92
874.376	23.77
874.676	24.3
874.977	19.9
875.277	21.59
875.578	23.06
875.878	23.85
876.179	24.21
876.479	25.98
876.78	26.66
877.08	25.83
877.38	26.25
877.68	24.19
877.981	26.09
878.281	27.39
878.581	29.29
