Data from BA28415_Reflection_00007.txt Node
Date: Mon Nov 18 16:02:21 EST 2019
User: vgr7
Spectrometer: USB2G7710
Scans to average: 3
Trigger mode: 4
Integration Time (sec): 2.000000E-2
Electric dark correction enabled: true
Boxcar width: 10
XAxis mode: Wavelengths
Number of Pixels in Spectrum: 2048
>>>>>Begin Spectral Data<<<<<
177.721	-7.59
178.105	28.25
178.488	68.01
178.871	157.99
179.254	110.9
179.636	420.65
180.019	-276.78
180.402	50
180.785	227.43
181.168	8.31
181.55	35.52
181.933	94.89
182.316	87.82
182.698	99.6
183.081	56.28
183.463	77.45
183.846	79.88
184.228	40.08
184.611	37.09
184.993	12.24
185.376	6.42
185.758	11.29
186.14	49.13
186.522	63.44
186.904	72.32
187.287	84.7
187.669	90.16
188.051	121.44
188.433	204.69
188.815	438.13
189.197	-151.51
189.579	-134.36
189.961	-21.75
190.342	-78.62
190.724	5.75
191.106	-54.93
191.488	-52.01
191.869	-56.32
192.251	-72.41
192.633	-34.06
193.014	-87.73
193.396	-85.98
193.777	-98.07
194.159	-112.65
194.54	-55.12
194.922	-69.28
195.303	-90.35
195.684	-109.42
196.065	-96.98
196.447	-236.34
196.828	-104.58
197.209	-89.19
197.59	109.9
197.971	-106.96
198.352	-70.56
198.733	-846.9
199.114	-35.33
199.495	-162.9
199.876	145.64
200.257	524.46
200.638	-70.91
201.018	32.86
201.399	-53.37
201.78	725.81
202.16	-334.9
202.541	-122.37
202.922	-62.19
203.302	-65.86
203.683	1.63
204.063	50.45
204.444	91.49
204.824	77.25
205.204	30.4
205.585	95.52
205.965	-1.48
206.345	-16.84
206.725	-23.72
207.106	28.5
207.486	13.73
207.866	-15.35
208.246	-13.16
208.626	78.97
209.006	322.64
209.386	236.84
209.766	382.94
210.145	-1998.59
210.525	-2048.94
210.905	-112.04
211.285	-56.76
211.664	-4.91
212.044	0.8
212.424	-2.07
212.803	-12.03
213.183	-16.48
213.562	-3.99
213.942	9.75
214.321	32.47
214.701	3.68
215.08	3.67
215.459	16.88
215.838	1.21
216.218	-8.08
216.597	35.13
216.976	40.06
217.355	50.84
217.734	61.14
218.113	64.32
218.492	72.21
218.871	67.21
219.25	81.37
219.629	96.61
220.008	87.62
220.387	95.68
220.766	181.24
221.144	37.09
221.523	-197.66
221.902	1530.38
222.28	-248.71
222.659	-33.69
223.037	-18.04
223.416	-23.17
223.794	-24.75
224.173	-17.71
224.551	-24.05
224.929	-19.19
225.308	-2.48
225.686	-6.03
226.064	-0.91
226.442	-2.01
226.821	-0.56
227.199	2.96
227.577	8.52
227.955	13.05
228.333	14.98
228.711	15.4
229.089	21.08
229.467	17.68
229.845	18.15
230.222	18.99
230.6	16.01
230.978	19.1
231.356	18.83
231.733	17.59
232.111	18.27
232.488	16.66
232.866	15.84
233.243	14.93
233.621	13.09
233.998	12.6
234.376	11.77
234.753	11.68
235.13	12.34
235.508	12.03
235.885	10.33
236.262	8.57
236.639	9.22
237.016	8.71
237.393	9.35
237.77	9.18
238.147	9.64
238.524	9.86
238.901	8.59
239.278	8.42
239.655	9.26
240.032	9
240.409	8.6
240.785	8.83
241.162	8.83
241.539	8.58
241.915	8.73
242.292	8.47
242.668	8.7
243.045	8.79
243.421	8.17
243.798	8.16
244.174	8.08
244.551	7.82
244.927	7.66
245.303	7.85
245.679	7.81
246.056	7.48
246.432	7.7
246.808	7.74
247.184	7.68
247.56	7.37
247.936	7.14
248.312	7.43
248.688	7.18
249.064	7.02
249.44	7.05
249.815	6.99
250.191	7.13
250.567	7.04
250.943	6.85
251.318	7.22
251.694	7.35
252.069	7.65
252.445	7.65
252.82	7.41
253.196	7.25
253.571	7.37
253.947	7.4
254.322	7.26
254.697	7.24
255.073	6.93
255.448	6.89
255.823	7.35
256.198	7.06
256.573	7.05
256.948	7.25
257.323	7.31
257.698	7.19
258.073	7.07
258.448	6.99
258.823	6.73
259.198	6.63
259.573	6.55
259.948	6.33
260.322	6.47
260.697	6.46
261.072	6.42
261.446	6.27
261.821	6.29
262.195	6.25
262.57	6.16
262.944	6.18
263.319	6.2
263.693	5.85
264.067	5.9
264.442	5.93
264.816	5.7
265.19	5.47
265.564	5.31
265.938	5.13
266.313	5.15
266.687	5.4
267.061	5.33
267.435	5.43
267.809	5.62
268.183	5.5
268.556	5.76
268.93	5.82
269.304	5.95
269.678	5.96
270.051	5.88
270.425	5.98
270.799	6.19
271.172	6.19
271.546	6.4
271.919	6.38
272.293	6.49
272.666	6.52
273.04	6.63
273.413	6.68
273.787	6.75
274.16	6.68
274.533	6.76
274.906	6.78
275.279	6.68
275.653	6.45
276.026	6.47
276.399	6.21
276.772	6.37
277.145	6.38
277.518	6.31
277.891	6.25
278.263	6.19
278.636	6.1
279.009	6.12
279.382	6.14
279.755	6.1
280.127	6.22
280.5	6.26
280.872	6.2
281.245	6.18
281.617	6.26
281.99	6.43
282.362	6.37
282.735	6.23
283.107	6.36
283.479	6.49
283.852	6.57
284.224	6.73
284.596	6.57
284.968	6.58
285.34	6.69
285.713	6.85
286.085	6.98
286.457	7.11
286.829	7.09
287.201	7.1
287.572	7.08
287.944	6.91
288.316	6.86
288.688	6.94
289.06	7.05
289.431	7.17
289.803	7.28
290.175	7.38
290.546	7.63
290.918	7.63
291.289	7.73
291.661	7.86
292.032	7.86
292.403	8
292.775	8.13
293.146	8.19
293.517	8.08
293.889	8.1
294.26	8.07
294.631	8.25
295.002	8.18
295.373	8.27
295.744	8.5
296.115	8.64
296.486	8.66
296.857	8.57
297.228	8.63
297.599	8.58
297.97	8.56
298.34	8.63
298.711	8.82
299.082	8.92
299.452	9.03
299.823	9.14
300.194	9.1
300.564	9
300.935	9.17
301.305	9.33
301.676	9.35
302.046	9.52
302.416	9.51
302.787	9.71
303.157	9.84
303.527	9.84
303.897	9.92
304.267	10.26
304.637	10.58
305.008	10.66
305.378	10.86
305.748	10.82
306.117	10.85
306.487	10.92
306.857	10.97
307.227	10.88
307.597	11.02
307.967	11.26
308.336	11.49
308.706	11.47
309.076	11.72
309.445	11.84
309.815	11.8
310.184	11.81
310.554	11.84
310.923	11.89
311.293	11.94
311.662	11.93
312.031	11.86
312.401	11.9
312.77	12.03
313.139	12.12
313.508	12.3
313.877	12.34
314.246	12.26
314.616	12.29
314.985	12.36
315.353	12.41
315.722	12.42
316.091	12.42
316.46	12.4
316.829	12.39
317.198	12.57
317.567	12.59
317.935	12.67
318.304	12.82
318.672	12.93
319.041	13.01
319.41	13.13
319.778	13.28
320.147	13.38
320.515	13.33
320.883	13.33
321.252	13.56
321.62	13.75
321.988	13.92
322.357	14.08
322.725	14.23
323.093	14.4
323.461	14.53
323.829	14.52
324.197	14.75
324.565	14.71
324.933	14.81
325.301	14.93
325.669	15.04
326.037	15.2
326.405	15.31
326.772	15.47
327.14	15.6
327.508	15.7
327.875	15.65
328.243	15.8
328.61	15.86
328.978	15.83
329.346	15.72
329.713	15.81
330.08	15.93
330.448	15.85
330.815	15.94
331.182	16
331.55	16.23
331.917	16.24
332.284	16.41
332.651	16.44
333.018	16.48
333.385	16.57
333.752	16.59
334.119	16.63
334.486	16.65
334.853	16.77
335.22	16.78
335.587	16.91
335.954	17.03
336.32	16.92
336.687	16.98
337.054	17.01
337.42	16.96
337.787	17
338.153	17.11
338.52	17.09
338.886	17.12
339.253	17.2
339.619	17.32
339.986	17.42
340.352	17.35
340.718	17.35
341.084	17.36
341.451	17.5
341.817	17.56
342.183	17.57
342.549	17.57
342.915	17.59
343.281	17.63
343.647	17.48
344.013	17.65
344.379	17.7
344.745	17.82
345.11	17.87
345.476	17.82
345.842	17.89
346.208	17.87
346.573	17.89
346.939	17.95
347.304	17.86
347.67	17.8
348.035	17.9
348.401	17.91
348.766	17.94
349.132	17.85
349.497	17.72
349.862	17.79
350.228	17.81
350.593	17.74
350.958	17.71
351.323	17.72
351.688	17.69
352.053	17.69
352.418	17.73
352.783	17.79
353.148	17.83
353.513	17.86
353.878	17.89
354.243	18.02
354.608	18.02
354.972	18.14
355.337	18.17
355.702	18.24
356.066	18.32
356.431	18.33
356.795	18.32
357.16	18.42
357.524	18.32
357.889	18.32
358.253	18.43
358.618	18.47
358.982	18.52
359.346	18.5
359.71	18.43
360.075	18.38
360.439	18.34
360.803	18.35
361.167	18.31
361.531	18.26
361.895	18.17
362.259	18.16
362.623	18.11
362.987	18.09
363.351	18.09
363.714	18.04
364.078	17.96
364.442	17.94
364.806	17.92
365.169	17.92
365.533	17.88
365.896	17.87
366.26	17.87
366.623	17.9
366.987	17.84
367.35	17.86
367.714	17.86
368.077	17.86
368.44	17.79
368.803	17.74
369.167	17.76
369.53	17.71
369.893	17.64
370.256	17.67
370.619	17.63
370.982	17.51
371.345	17.44
371.708	17.5
372.071	17.42
372.434	17.34
372.797	17.31
373.159	17.25
373.522	17.2
373.885	17.13
374.247	17.05
374.61	17.07
374.973	16.99
375.335	16.94
375.698	16.92
376.06	16.92
376.423	16.91
376.785	16.9
377.147	16.77
377.51	16.65
377.872	16.56
378.234	16.49
378.596	16.4
378.958	16.29
379.321	16.23
379.683	16.23
380.045	16.21
380.407	16.18
380.769	16.13
381.13	15.94
381.492	15.89
381.854	15.82
382.216	15.76
382.578	15.66
382.939	15.58
383.301	15.45
383.663	15.36
384.024	15.25
384.386	15.15
384.747	15.24
385.109	15.2
385.47	15.09
385.832	15.02
386.193	15.06
386.554	15
386.916	14.93
387.277	14.82
387.638	14.8
387.999	14.76
388.36	14.67
388.721	14.7
389.082	14.63
389.443	14.57
389.804	14.53
390.165	14.52
390.526	14.43
390.887	14.4
391.248	14.31
391.609	14.28
391.969	14.24
392.33	14.14
392.691	14.09
393.051	14.01
393.412	13.96
393.772	13.82
394.133	13.8
394.493	13.72
394.854	13.65
395.214	13.53
395.574	13.42
395.935	13.37
396.295	13.27
396.655	13.17
397.015	13.12
397.376	12.96
397.736	12.89
398.096	12.87
398.456	12.77
398.816	12.71
399.176	12.61
399.535	12.55
399.895	12.44
400.255	12.36
400.615	12.3
400.975	12.21
401.334	12.14
401.694	12.08
402.054	12.02
402.413	11.95
402.773	11.87
403.132	11.79
403.492	11.75
403.851	11.68
404.211	11.65
404.57	11.56
404.929	11.55
405.288	11.5
405.648	11.47
406.007	11.47
406.366	11.47
406.725	11.46
407.084	11.41
407.443	11.43
407.802	11.41
408.161	11.37
408.52	11.34
408.879	11.3
409.238	11.27
409.596	11.23
409.955	11.18
410.314	11.21
410.673	11.2
411.031	11.16
411.39	11.16
411.748	11.11
412.107	11.1
412.465	11.06
412.824	10.99
413.182	10.94
413.54	10.84
413.899	10.79
414.257	10.7
414.615	10.65
414.974	10.58
415.332	10.54
415.69	10.52
416.048	10.5
416.406	10.51
416.764	10.46
417.122	10.42
417.48	10.4
417.838	10.35
418.195	10.28
418.553	10.24
418.911	10.19
419.269	10.15
419.626	10.13
419.984	10.09
420.342	10.05
420.699	10.01
421.057	9.99
421.414	9.94
421.772	9.9
422.129	9.86
422.486	9.8
422.844	9.77
423.201	9.71
423.558	9.65
423.915	9.58
424.273	9.55
424.63	9.52
424.987	9.47
425.344	9.4
425.701	9.36
426.058	9.31
426.415	9.27
426.772	9.21
427.128	9.13
427.485	9.11
427.842	9.09
428.199	9.02
428.555	8.98
428.912	8.97
429.269	8.94
429.625	8.9
429.982	8.89
430.338	8.84
430.695	8.84
431.051	8.84
431.407	8.84
431.764	8.8
432.12	8.77
432.476	8.78
432.832	8.81
433.189	8.8
433.545	8.79
433.901	8.8
434.257	8.81
434.613	8.81
434.969	8.82
435.325	8.82
435.681	8.85
436.036	8.85
436.392	8.85
436.748	8.85
437.104	8.84
437.459	8.84
437.815	8.86
438.171	8.86
438.526	8.86
438.882	8.86
439.237	8.88
439.593	8.88
439.948	8.87
440.304	8.87
440.659	8.9
441.014	8.91
441.369	8.9
441.725	8.91
442.08	8.92
442.435	8.9
442.79	8.88
443.145	8.87
443.5	8.83
443.855	8.82
444.21	8.79
444.565	8.79
444.92	8.76
445.275	8.75
445.629	8.73
445.984	8.68
446.339	8.66
446.693	8.63
447.048	8.61
447.403	8.59
447.757	8.57
448.112	8.53
448.466	8.5
448.82	8.46
449.175	8.43
449.529	8.4
449.883	8.36
450.238	8.33
450.592	8.28
450.946	8.27
451.3	8.22
451.654	8.19
452.008	8.16
452.362	8.13
452.716	8.1
453.07	8.08
453.424	8.1
453.778	8.09
454.132	8.09
454.486	8.1
454.839	8.1
455.193	8.1
455.547	8.08
455.9	8.08
456.254	8.09
456.607	8.1
456.961	8.11
457.314	8.11
457.668	8.12
458.021	8.14
458.375	8.14
458.728	8.18
459.081	8.21
459.434	8.2
459.787	8.23
460.141	8.24
460.494	8.25
460.847	8.26
461.2	8.26
461.553	8.27
461.906	8.29
462.259	8.32
462.611	8.32
462.964	8.37
463.317	8.38
463.67	8.43
464.022	8.45
464.375	8.47
464.728	8.51
465.08	8.57
465.433	8.59
465.785	8.62
466.138	8.64
466.49	8.66
466.843	8.7
467.195	8.73
467.547	8.8
467.899	8.86
468.252	8.89
468.604	8.93
468.956	8.96
469.308	8.99
469.66	9
470.012	9.06
470.364	9.07
470.716	9.14
471.068	9.15
471.42	9.17
471.772	9.22
472.123	9.26
472.475	9.26
472.827	9.3
473.178	9.33
473.53	9.37
473.882	9.39
474.233	9.42
474.585	9.4
474.936	9.37
475.288	9.37
475.639	9.37
475.99	9.36
476.342	9.36
476.693	9.36
477.044	9.35
477.395	9.32
477.746	9.31
478.097	9.28
478.448	9.28
478.8	9.27
479.15	9.24
479.501	9.24
479.852	9.23
480.203	9.24
480.554	9.23
480.905	9.19
481.255	9.18
481.606	9.17
481.957	9.17
482.307	9.18
482.658	9.17
483.009	9.16
483.359	9.16
483.709	9.16
484.06	9.16
484.41	9.15
484.761	9.15
485.111	9.16
485.461	9.16
485.811	9.14
486.162	9.14
486.512	9.15
486.862	9.14
487.212	9.13
487.562	9.12
487.912	9.11
488.262	9.13
488.612	9.14
488.961	9.14
489.311	9.16
489.661	9.15
490.011	9.16
490.36	9.17
490.71	9.18
491.06	9.18
491.409	9.2
491.759	9.22
492.108	9.24
492.458	9.25
492.807	9.28
493.157	9.33
493.506	9.39
493.855	9.44
494.204	9.49
494.554	9.55
494.903	9.61
495.252	9.7
495.601	9.77
495.95	9.84
496.299	9.92
496.648	9.99
496.997	10.06
497.346	10.17
497.695	10.26
498.043	10.38
498.392	10.48
498.741	10.59
499.09	10.69
499.438	10.81
499.787	10.93
500.135	11.05
500.484	11.15
500.832	11.24
501.181	11.35
501.529	11.48
501.878	11.62
502.226	11.77
502.574	11.9
502.923	12.03
503.271	12.17
503.619	12.36
503.967	12.54
504.315	12.73
504.663	12.89
505.011	13.1
505.359	13.26
505.707	13.45
506.055	13.6
506.403	13.78
506.751	13.93
507.098	14.1
507.446	14.25
507.794	14.45
508.141	14.63
508.489	14.77
508.837	14.95
509.184	15.11
509.531	15.29
509.879	15.45
510.226	15.62
510.574	15.78
510.921	15.92
511.268	16.02
511.616	16.17
511.963	16.32
512.31	16.47
512.657	16.64
513.004	16.82
513.351	17.04
513.698	17.26
514.045	17.48
514.392	17.7
514.739	17.92
515.086	18.14
515.432	18.34
515.779	18.56
516.126	18.7
516.473	18.87
516.819	19.04
517.166	19.2
517.512	19.37
517.859	19.51
518.205	19.69
518.552	19.89
518.898	20.07
519.245	20.24
519.591	20.39
519.937	20.53
520.283	20.7
520.629	20.83
520.976	21.01
521.322	21.2
521.668	21.4
522.014	21.59
522.36	21.8
522.706	22.07
523.052	22.32
523.398	22.63
523.743	22.95
524.089	23.24
524.435	23.53
524.781	23.82
525.126	24.08
525.472	24.33
525.817	24.52
526.163	24.71
526.509	24.89
526.854	25.06
527.199	25.22
527.545	25.36
527.89	25.53
528.235	25.68
528.581	25.84
528.926	25.99
529.271	26.14
529.616	26.29
529.961	26.45
530.306	26.62
530.651	26.79
530.996	26.97
531.341	27.18
531.686	27.36
532.031	27.55
532.376	27.77
532.721	27.97
533.065	28.19
533.41	28.41
533.755	28.67
534.099	28.93
534.444	29.18
534.788	29.43
535.133	29.67
535.477	29.95
535.822	30.22
536.166	30.52
536.51	30.85
536.855	31.17
537.199	31.48
537.543	31.85
537.887	32.24
538.231	32.55
538.576	32.87
538.92	33.21
539.264	33.52
539.608	33.81
539.951	34.12
540.295	34.39
540.639	34.65
540.983	34.87
541.327	35.1
541.671	35.36
542.014	35.61
542.358	35.87
542.701	36.12
543.045	36.35
543.389	36.61
543.732	36.82
544.075	37.08
544.419	37.32
544.762	37.52
545.105	37.74
545.449	38.01
545.792	38.29
546.135	38.58
546.478	38.85
546.821	39.13
547.165	39.45
547.508	39.8
547.851	40.12
548.194	40.47
548.536	40.79
548.879	41.11
549.222	41.42
549.565	41.74
549.908	42.02
550.25	42.34
550.593	42.65
550.936	43.04
551.278	43.34
551.621	43.65
551.963	44.05
552.306	44.35
552.648	44.67
552.991	44.95
553.333	45.17
553.675	45.53
554.017	45.83
554.36	46.01
554.702	46.23
555.044	46.49
555.386	46.74
555.728	47.07
556.07	47.32
556.412	47.63
556.754	47.87
557.096	48.18
557.438	48.46
557.78	48.7
558.121	48.98
558.463	49.23
558.805	49.51
559.147	49.76
559.488	49.96
559.83	50.13
560.171	50.35
560.513	50.7
560.854	50.9
561.196	51.14
561.537	51.39
561.878	51.69
562.22	51.9
562.561	52.14
562.902	52.31
563.243	52.55
563.584	52.72
563.925	52.99
564.266	53.12
564.607	53.28
564.948	53.47
565.289	53.63
565.63	53.82
565.971	53.95
566.312	54.06
566.653	54.28
566.993	54.47
567.334	54.7
567.675	54.81
568.015	55
568.356	55.18
568.696	55.36
569.037	55.47
569.377	55.65
569.718	55.7
570.058	55.89
570.398	55.99
570.739	56.12
571.079	56.18
571.419	56.32
571.759	56.42
572.099	56.57
572.439	56.7
572.779	56.77
573.119	56.93
573.459	57.11
573.799	57.24
574.139	57.42
574.479	57.47
574.819	57.57
575.158	57.67
575.498	57.75
575.838	57.86
576.177	57.92
576.517	58.07
576.856	58.32
577.196	58.4
577.535	58.52
577.875	58.66
578.214	58.83
578.553	59
578.893	59.12
579.232	59.25
579.571	59.35
579.91	59.52
580.25	59.61
580.589	59.66
580.928	59.74
581.267	59.75
581.606	59.86
581.945	59.89
582.283	59.98
582.622	60.12
582.961	60.22
583.3	60.4
583.639	60.44
583.977	60.45
584.316	60.6
584.654	60.78
584.993	60.83
585.332	60.93
585.67	60.99
586.008	61.1
586.347	61.19
586.685	61.19
587.024	61.26
587.362	61.39
587.7	61.45
588.038	61.51
588.376	61.67
588.715	61.77
589.053	61.92
589.391	62.05
589.729	62.11
590.067	62.13
590.404	62.16
590.742	62.16
591.08	62.24
591.418	62.2
591.756	62.18
592.093	62.16
592.431	62.19
592.769	62.17
593.106	62.22
593.444	62.2
593.781	62.35
594.119	62.42
594.456	62.43
594.793	62.44
595.131	62.51
595.468	62.5
595.805	62.53
596.143	62.51
596.48	62.44
596.817	62.46
597.154	62.52
597.491	62.58
597.828	62.63
598.165	62.62
598.502	62.66
598.839	62.66
599.176	62.81
599.512	62.91
599.849	62.99
600.186	62.98
600.523	63.12
600.859	63.12
601.196	63.17
601.532	63.15
601.869	63.16
602.205	63.2
602.542	63.27
602.878	63.27
603.215	63.28
603.551	63.42
603.887	63.48
604.223	63.52
604.56	63.51
604.896	63.6
605.232	63.63
605.568	63.71
605.904	63.81
606.24	63.76
606.576	63.72
606.912	63.8
607.248	63.84
607.583	63.83
607.919	63.9
608.255	63.84
608.591	63.98
608.926	64.08
609.262	64.12
609.597	64.09
609.933	64.19
610.268	64.28
610.604	64.23
610.939	64.25
611.275	64.29
611.61	64.37
611.945	64.35
612.281	64.44
612.616	64.48
612.951	64.5
613.286	64.6
613.621	64.67
613.956	64.66
614.291	64.76
614.626	64.74
614.961	64.66
615.296	64.77
615.631	64.7
615.966	64.68
616.3	64.56
616.635	64.64
616.97	64.61
617.304	64.68
617.639	64.8
617.973	64.74
618.308	64.7
618.642	64.67
618.977	64.61
619.311	64.65
619.646	64.63
619.98	64.7
620.314	64.77
620.648	64.67
620.983	64.66
621.317	64.76
621.651	64.76
621.985	64.89
622.319	64.97
622.653	65.03
622.987	65.11
623.321	65.18
623.655	65.2
623.988	65.25
624.322	65.15
624.656	65.12
624.99	65.14
625.323	65.17
625.657	65.18
625.99	65.3
626.324	65.24
626.657	65.22
626.991	65.16
627.324	65.13
627.658	65.26
627.991	65.34
628.324	65.32
628.657	65.33
628.991	65.3
629.324	65.24
629.657	65.26
629.99	65.24
630.323	65.37
630.656	65.39
630.989	65.4
631.322	65.46
631.655	65.47
631.987	65.59
632.32	65.7
632.653	65.71
632.986	65.73
633.318	65.8
633.651	65.89
633.984	65.96
634.316	66
634.649	66.05
634.981	65.96
635.313	65.96
635.646	66.02
635.978	66.16
636.31	66.13
636.643	66.16
636.975	66.22
637.307	66.1
637.639	66.16
637.971	66.15
638.303	66.17
638.635	66.19
638.967	66.1
639.299	65.99
639.631	66.05
639.963	66.01
640.295	66.02
640.626	66.07
640.958	65.99
641.29	66.05
641.621	65.91
641.953	65.98
642.285	65.95
642.616	65.97
642.948	65.91
643.279	65.95
643.61	65.91
643.942	66.03
644.273	66.22
644.604	66.08
644.936	66.06
645.267	66.04
645.598	65.96
645.929	65.95
646.26	65.89
646.591	65.84
646.922	65.91
647.253	65.9
647.584	65.95
647.915	66.04
648.245	65.9
648.576	65.93
648.907	65.92
649.238	65.88
649.568	65.88
649.899	65.95
650.229	65.99
650.56	65.98
650.89	65.99
651.221	65.91
651.551	65.95
651.882	66.06
652.212	66.07
652.542	66.03
652.872	66.11
653.203	66.2
653.533	66.31
653.863	66.32
654.193	66.28
654.523	66.27
654.853	66.23
655.183	66.4
655.513	66.51
655.843	66.45
656.172	66.5
656.502	66.43
656.832	66.36
657.162	66.34
657.491	66.3
657.821	66.16
658.15	66.06
658.48	66.17
658.809	66.14
659.139	66.21
659.468	66.38
659.798	66.39
660.127	66.45
660.456	66.39
660.785	66.4
661.115	66.42
661.444	66.33
661.773	66.33
662.102	66.29
662.431	66.22
662.76	66.3
663.089	66.3
663.418	66.42
663.747	66.46
664.076	66.53
664.404	66.64
664.733	66.79
665.062	66.9
665.39	66.68
665.719	66.6
666.048	66.63
666.376	66.61
666.705	66.65
667.033	66.5
667.362	66.57
667.69	66.4
668.018	66.39
668.347	66.54
668.675	66.54
669.003	66.49
669.331	66.56
669.659	66.58
669.987	66.65
670.315	66.61
670.643	66.55
670.971	66.46
671.299	66.48
671.627	66.24
671.955	66.2
672.283	66.36
672.61	66.49
672.938	66.58
673.266	66.61
673.593	66.62
673.921	66.63
674.249	66.71
674.576	67.03
674.904	67.02
675.231	66.9
675.558	66.91
675.886	67.02
676.213	66.95
676.54	66.84
676.867	66.91
677.195	66.87
677.522	66.99
677.849	67.19
678.176	67.18
678.503	67.42
678.83	67.53
679.157	67.45
679.484	67.44
679.81	67.24
680.137	67.23
680.464	67.09
680.791	67.17
681.117	67.06
681.444	67
681.771	66.97
682.097	66.98
682.424	67.05
682.75	67
683.077	67.08
683.403	67.26
683.729	67.17
684.056	67.16
684.382	67.09
684.708	66.91
685.034	66.9
685.36	66.89
685.686	66.66
686.012	66.76
686.339	66.67
686.664	66.8
686.99	66.81
687.316	66.95
687.642	67.01
687.968	66.95
688.294	66.93
688.619	67.09
688.945	67.16
689.271	67.23
689.596	67.32
689.922	67.12
690.247	67.06
690.573	67.1
690.898	67.16
691.224	67.1
691.549	67.19
691.874	67.26
692.2	67.33
692.525	67.48
692.85	67.42
693.175	67.48
693.5	67.46
693.825	67.35
694.15	67.35
694.475	67.22
694.8	67.39
695.125	67.53
695.45	67.52
695.775	67.59
696.099	67.46
696.424	67.41
696.749	67.54
697.073	67.5
697.398	67.45
697.723	67.44
698.047	67.41
698.372	67.35
698.696	67.31
699.02	67.17
699.345	67.26
699.669	67.27
699.993	67.32
700.318	67.26
700.642	67.34
700.966	67.28
701.29	67.33
701.614	67.27
701.938	67.05
702.262	67.08
702.586	66.96
702.91	67.01
703.234	66.89
703.557	66.85
703.881	66.87
704.205	66.83
704.529	66.9
704.852	66.97
705.176	67.08
705.499	67.2
705.823	67.29
706.146	67.32
706.47	67.31
706.793	67.24
707.117	67.27
707.44	67.2
707.763	67.21
708.086	67.18
708.409	67.31
708.733	67.66
709.056	67.54
709.379	67.61
709.702	67.71
710.025	67.79
710.348	67.72
710.671	67.63
710.993	67.82
711.316	67.82
711.639	67.95
711.962	67.7
712.284	67.62
712.607	67.49
712.93	67.34
713.252	67.44
713.575	67.27
713.897	67.41
714.22	67.4
714.542	67.47
714.864	67.78
715.187	67.71
715.509	67.65
715.831	67.72
716.153	67.56
716.475	67.48
716.798	67.64
717.12	67.75
717.442	67.76
717.764	67.6
718.085	67.61
718.407	67.47
718.729	67.63
719.051	67.48
719.373	67.6
719.695	67.73
720.016	67.5
720.338	67.91
720.659	67.8
720.981	67.87
721.302	68
721.624	67.78
721.945	68.02
722.267	67.93
722.588	67.95
722.909	68.14
723.231	68.17
723.552	67.8
723.873	67.79
724.194	68.04
724.515	68.38
724.836	68.31
725.157	68.59
725.478	68.84
725.799	69
726.12	68.98
726.441	69
726.762	69.21
727.083	68.94
727.403	68.9
727.724	68.72
728.045	68.65
728.365	68.5
728.686	68.25
729.006	68.02
729.327	68.02
729.647	67.88
729.967	67.92
730.288	68.21
730.608	68.47
730.928	68.39
731.249	68.47
731.569	68.58
731.889	68.28
732.209	68.18
732.529	67.98
732.849	68.23
733.169	68.16
733.489	68.36
733.809	68.47
734.129	68.54
734.448	68.75
734.768	68.53
735.088	68.71
735.408	68.74
735.727	68.89
736.047	68.79
736.366	68.78
736.686	68.39
737.005	68.37
737.325	67.99
737.644	68.13
737.963	67.94
738.283	67.91
738.602	68.03
738.921	67.78
739.24	67.86
739.56	67.58
739.879	67.97
740.198	67.76
740.517	67.77
740.836	67.91
741.155	68.03
741.473	68.07
741.792	68.08
742.111	68.15
742.43	68.08
742.748	67.96
743.067	68.25
743.386	68.69
743.704	68.57
744.023	68.74
744.341	68.76
744.66	68.73
744.978	68.91
745.297	68.7
745.615	68.84
745.933	68.89
746.252	69.01
746.57	68.47
746.888	68.06
747.206	68.17
747.524	67.94
747.842	67.95
748.16	68.32
748.478	68.22
748.796	68.14
749.114	68.16
749.432	68.31
749.749	68.2
750.067	67.92
750.385	67.86
750.703	67.74
751.02	67.7
751.338	67.57
751.655	67.17
751.973	67.48
752.29	67.84
752.608	68.1
752.925	68.05
753.242	68.38
753.56	68.63
753.877	68.66
754.194	68.77
754.511	68.45
754.828	68.26
755.145	67.96
755.462	68.5
755.779	68.42
756.096	68.74
756.413	68.39
756.73	68.59
757.047	68.9
757.364	69.13
757.68	69.43
757.997	69.44
758.314	69.81
758.63	69.73
758.947	69.7
759.264	69.39
759.58	69.23
759.896	69.22
760.213	69.51
760.529	69.54
760.846	69.3
761.162	69.21
761.478	69.19
761.794	69.51
762.11	69.19
762.426	69.54
762.743	69.66
763.059	69.86
763.375	70.04
763.69	70.04
764.006	69.75
764.322	69.38
764.638	69.32
764.954	69.36
765.27	69.32
765.585	69.2
765.901	69.53
766.216	69.66
766.532	69.57
766.848	69.4
767.163	69.52
767.478	69.66
767.794	69.83
768.109	69.93
768.424	69.79
768.74	69.8
769.055	69.56
769.37	69.33
769.685	69.3
770	68.86
770.315	68.7
770.63	69.01
770.945	68.97
771.26	69.34
771.575	69.42
771.89	69.53
772.205	69.65
772.52	69.53
772.834	69.7
773.149	69.79
773.464	70.04
773.778	69.76
774.093	69.85
774.407	70
774.722	70.09
775.036	69.96
775.351	69.97
775.665	69.56
775.979	69.38
776.293	69.55
776.608	69.96
776.922	70.2
777.236	70.01
777.55	69.65
777.864	69.27
778.178	69.15
778.492	69.57
778.806	69.62
779.12	69.53
779.434	69.22
779.747	68.82
780.061	68.92
780.375	69.01
780.689	69.56
781.002	69.58
781.316	69.29
781.629	69.63
781.943	68.83
782.256	69.46
782.57	69.67
782.883	69.67
783.196	69.24
783.51	68.92
783.823	68.75
784.136	69.49
784.449	69.6
784.762	69.7
785.075	69.34
785.388	69.36
785.701	69.53
786.014	69.54
786.327	69.9
786.64	69.74
786.953	69.66
787.266	68.76
787.578	68.81
787.891	69.28
788.204	69.31
788.516	70.15
788.829	69.91
789.141	70.05
789.454	70.61
789.766	71.02
790.079	71.35
790.391	71.88
790.703	71.79
791.016	71.77
791.328	71.71
791.64	71.71
791.952	71.8
792.264	71.41
792.576	71.43
792.888	71.57
793.2	71.42
793.512	71.1
793.824	71.79
794.136	71.43
794.448	71.55
794.76	71.31
795.071	71.73
795.383	72.13
795.695	71.89
796.006	71.39
796.318	71.24
796.629	71.33
796.941	71.18
797.252	71.34
797.564	71.35
797.875	71.37
798.186	71.39
798.497	71.15
798.809	70.74
799.12	71.45
799.431	71.79
799.742	72.36
800.053	73.04
800.364	73.15
800.675	73.11
800.986	72.94
801.297	73.48
801.608	73.19
801.918	73.22
802.229	73.77
802.54	74.29
802.851	74.83
803.161	74.47
803.472	74.99
803.782	75.03
804.093	75.36
804.403	74.88
804.714	75.21
805.024	74.55
805.334	75.12
805.645	74.98
805.955	74.74
806.265	74.21
806.575	73.26
806.885	73.03
807.195	73.21
807.505	72.93
807.815	72.81
808.125	72.82
808.435	72.76
808.745	71.65
809.055	70.46
809.365	69.29
809.674	69.43
809.984	69.57
810.294	69.6
810.603	68.97
810.913	69.27
811.222	68.87
811.532	69.17
811.841	68.55
812.151	67.77
812.46	67.02
812.769	67.09
813.079	68
813.388	68.01
813.697	68.32
814.006	68.29
814.315	68.12
814.624	68.13
814.933	68.06
815.242	68.8
815.551	69.33
815.86	70.34
816.169	69.33
816.478	68.71
816.786	68.46
817.095	68.58
817.404	68.66
817.712	69.41
818.021	70.1
818.33	70.94
818.638	70.2
818.947	70.38
819.255	70.63
819.563	70.7
819.872	70.67
820.18	70.59
820.488	70.19
820.796	70.01
821.105	70.04
821.413	70.16
821.721	70.25
822.029	70.27
822.337	70.17
822.645	70.49
822.953	70.68
823.26	70.58
823.568	70.65
823.876	70.79
824.184	70.71
824.491	70.4
824.799	70.45
825.107	70.77
825.414	70.82
825.722	70.83
826.029	70.67
826.337	70.7
826.644	70.83
826.951	71.29
827.259	71.43
827.566	71.54
827.873	71.42
828.18	71.51
828.488	71.72
828.795	72.07
829.102	72.25
829.409	71.81
829.716	71.77
830.023	71.72
830.329	71.33
830.636	71.1
830.943	71.89
831.25	71.84
831.557	71.77
831.863	71.5
832.17	71.42
832.476	71.56
832.783	71.72
833.089	71.51
833.396	71.28
833.702	71.77
834.009	71.39
834.315	71.13
834.621	70.76
834.928	70.76
835.234	70.15
835.54	69.93
835.846	70.85
836.152	70.92
836.458	70.95
836.764	70.93
837.07	70.87
837.376	70.43
837.682	69.84
837.988	69.32
838.293	69
838.599	69.01
838.905	68.66
839.211	68.3
839.516	68.11
839.822	67.6
840.127	66.51
840.433	66.2
840.738	67.4
841.044	67.81
841.349	67.84
841.654	67.72
841.959	67.39
842.265	66.88
842.57	67.75
842.875	67.73
843.18	69.07
843.485	70.03
843.79	70.24
844.095	70.84
844.4	73.15
844.705	74.02
845.01	73.05
845.315	73.39
845.619	73
845.924	73.38
846.229	73.6
846.533	73.02
846.838	71.92
847.142	70.04
847.447	68.27
847.751	67.52
848.056	68.97
848.36	68.19
848.664	67.02
848.969	66.2
849.273	67.52
849.577	66.96
849.881	66.23
850.185	64.99
850.489	64.6
850.794	61.72
851.097	62.98
851.401	63.29
851.705	64.29
852.009	64.65
852.313	65.08
852.617	66.75
852.92	68.71
853.224	70.28
853.528	73.14
853.831	74.35
854.135	74.84
854.438	74.73
854.742	75.58
855.045	76.04
855.349	74.84
855.652	73.94
855.955	72.32
856.259	70.19
856.562	71.56
856.865	73.87
857.168	72.4
857.471	70.55
857.774	70.07
858.077	67.95
858.38	67.17
858.683	66.1
858.986	63.05
859.289	63.39
859.592	61.98
859.894	60.03
860.197	60.36
860.5	57.89
860.802	56.68
861.105	58.06
861.407	58.06
861.71	61.17
862.012	60.47
862.315	58.91
862.617	60.96
862.919	61.14
863.222	61.78
863.524	63.14
863.826	63.99
864.128	65.2
864.43	66.52
864.732	69.6
865.034	68.37
865.336	69.25
865.638	69.05
865.94	70.02
866.242	70.31
866.544	71.47
866.846	73.16
867.147	73.91
867.449	72.1
867.751	73.38
868.052	69.19
868.354	71.71
868.655	74.87
868.957	73.07
869.258	70.49
869.56	67.63
869.861	69.34
870.162	70.09
870.463	67.12
870.765	68.05
871.066	66.01
871.367	68.04
871.668	71.76
871.969	70.66
872.27	70.84
872.571	68.03
872.872	65.66
873.173	64.68
873.473	65.45
873.774	65.71
874.075	64.66
874.376	65.09
874.676	61.27
874.977	59.05
875.277	61.71
875.578	63.34
875.878	64.36
876.179	63.48
876.479	63.32
876.78	65.77
877.08	64.44
877.38	63.74
877.68	62.76
877.981	57.56
878.281	56.46
878.581	57.93
