Data from BA28308_Reflection_00004.txt Node
Date: Mon Nov 18 15:38:44 EST 2019
User: vgr7
Spectrometer: USB2G7710
Scans to average: 3
Trigger mode: 4
Integration Time (sec): 2.000000E-2
Electric dark correction enabled: true
Boxcar width: 10
XAxis mode: Wavelengths
Number of Pixels in Spectrum: 2048
>>>>>Begin Spectral Data<<<<<
177.721	177.98
178.105	149.54
178.488	180.39
178.871	144.57
179.254	126.71
179.636	-109.82
180.019	-18.63
180.402	229.41
180.785	29.93
181.168	45.65
181.55	167.59
181.933	104.21
182.316	110.96
182.698	104.9
183.081	106.57
183.463	93.01
183.846	131.4
184.228	125.15
184.611	107.29
184.993	194.27
185.376	288.26
185.758	412.75
186.14	868.5
186.522	490.46
186.904	443.79
187.287	379.36
187.669	335.93
188.051	564.75
188.433	-457.64
188.815	-132.46
189.197	-84.32
189.579	-69.09
189.961	-19.65
190.342	-13.56
190.724	-29.58
191.106	-14.83
191.488	-25.44
191.869	-5.91
192.251	-7.43
192.633	-28.91
193.014	-23.23
193.396	-23.47
193.777	-31.94
194.159	10.27
194.54	19.55
194.922	32.22
195.303	-0.94
195.684	-24.76
196.065	6.88
196.447	-25.32
196.828	-40.59
197.209	-42.67
197.59	-40.38
197.971	-69.86
198.352	-48.73
198.733	-77.58
199.114	-75.55
199.495	-40.01
199.876	-14.91
200.257	-39.1
200.638	5.24
201.018	-15.11
201.399	-10.41
201.78	4.44
202.16	-21.53
202.541	-93.37
202.922	-163.38
203.302	-139.94
203.683	-165.94
204.063	-433.15
204.444	-450.25
204.824	-337.83
205.204	-861.7
205.585	-33900
205.965	3576.92
206.345	292.67
206.725	276.8
207.106	197.86
207.486	189.7
207.866	238.33
208.246	276.15
208.626	335.03
209.006	960.76
209.386	665.41
209.766	734.06
210.145	697.66
210.525	-10710.81
210.905	-587.93
211.285	-1454.72
211.664	-1759.3
212.044	-820.48
212.424	-327.82
212.803	-302.31
213.183	-150.34
213.562	-94.26
213.942	-59.17
214.321	-67.12
214.701	-58.34
215.08	-57.26
215.459	-55.47
215.838	-46.87
216.218	-52.95
216.597	-25.53
216.976	-21.01
217.355	-20.68
217.734	-21.07
218.113	-13.47
218.492	-12.76
218.871	19.67
219.25	1.36
219.629	19.13
220.008	43.72
220.387	30.97
220.766	31.33
221.144	19.29
221.523	-5.81
221.902	-29.16
222.28	-36.99
222.659	-2.28
223.037	-5.54
223.416	-17.31
223.794	-17.32
224.173	-8.27
224.551	-13.68
224.929	-16.79
225.308	2.63
225.686	-4.19
226.064	-0.73
226.442	1.79
226.821	0.02
227.199	3.41
227.577	-0.31
227.955	2.15
228.333	2.28
228.711	1.53
229.089	8.21
229.467	7.75
229.845	6.44
230.222	6.49
230.6	3.26
230.978	2.95
231.356	7.24
231.733	7.28
232.111	5.64
232.488	4.57
232.866	4.77
233.243	3.22
233.621	5.13
233.998	4.83
234.376	4.23
234.753	3.28
235.13	2.57
235.508	4.41
235.885	1.93
236.262	0.87
236.639	1.99
237.016	1.57
237.393	3.03
237.77	2.63
238.147	3.08
238.524	3.74
238.901	4.79
239.278	4.93
239.655	5.69
240.032	5.54
240.409	5.53
240.785	5.5
241.162	5.76
241.539	5.72
241.915	5.33
242.292	5.32
242.668	5.74
243.045	5.99
243.421	5.95
243.798	5.86
244.174	5.96
244.551	5.92
244.927	5.59
245.303	5.39
245.679	5.55
246.056	5.35
246.432	5.31
246.808	5.25
247.184	4.72
247.56	4.42
247.936	4.56
248.312	4.75
248.688	4.65
249.064	4.59
249.44	4.44
249.815	4.59
250.191	4.6
250.567	4.67
250.943	4.44
251.318	4.32
251.694	4.2
252.069	4.26
252.445	4.19
252.82	4.25
253.196	4.34
253.571	4.36
253.947	4.67
254.322	4.74
254.697	4.68
255.073	4.79
255.448	4.83
255.823	4.74
256.198	4.79
256.573	4.82
256.948	5.02
257.323	5.02
257.698	5.05
258.073	5.18
258.448	4.84
258.823	4.92
259.198	5.02
259.573	5.05
259.948	4.95
260.322	4.84
260.697	4.8
261.072	4.76
261.446	4.78
261.821	4.71
262.195	4.68
262.57	4.64
262.944	4.66
263.319	4.77
263.693	4.75
264.067	4.63
264.442	4.75
264.816	4.64
265.19	4.65
265.564	4.52
265.938	4.21
266.313	4.38
266.687	4.41
267.061	4.13
267.435	4.1
267.809	4.22
268.183	4.32
268.556	4.35
268.93	4.49
269.304	4.44
269.678	4.44
270.051	4.44
270.425	4.5
270.799	4.55
271.172	4.49
271.546	4.39
271.919	4.41
272.293	4.42
272.666	4.42
273.04	4.46
273.413	4.53
273.787	4.58
274.16	4.58
274.533	4.51
274.906	4.63
275.279	4.61
275.653	4.7
276.026	4.53
276.399	4.49
276.772	4.59
277.145	4.58
277.518	4.63
277.891	4.67
278.263	4.45
278.636	4.45
279.009	4.34
279.382	4.61
279.755	4.52
280.127	4.4
280.5	4.43
280.872	4.38
281.245	4.25
281.617	4.3
281.99	4.29
282.362	4.43
282.735	4.3
283.107	4.4
283.479	4.44
283.852	4.5
284.224	4.53
284.596	4.45
284.968	4.52
285.34	4.5
285.713	4.4
286.085	4.6
286.457	4.62
286.829	4.62
287.201	4.59
287.572	4.63
287.944	4.66
288.316	4.53
288.688	4.49
289.06	4.56
289.431	4.53
289.803	4.58
290.175	4.46
290.546	4.7
290.918	4.67
291.289	4.57
291.661	4.58
292.032	4.59
292.403	4.55
292.775	4.61
293.146	4.64
293.517	4.71
293.889	4.79
294.26	4.82
294.631	4.85
295.002	4.82
295.373	4.82
295.744	4.89
296.115	4.87
296.486	4.87
296.857	4.84
297.228	4.98
297.599	4.92
297.97	4.96
298.34	4.85
298.711	4.98
299.082	4.98
299.452	5.09
299.823	5.07
300.194	5.03
300.564	5.07
300.935	4.89
301.305	4.87
301.676	4.73
302.046	4.87
302.416	5.05
302.787	5.15
303.157	5.27
303.527	5.21
303.897	5.41
304.267	5.51
304.637	5.62
305.008	5.54
305.378	5.54
305.748	5.68
306.117	5.59
306.487	5.43
306.857	5.47
307.227	5.34
307.597	5.36
307.967	5.5
308.336	5.35
308.706	5.58
309.076	5.64
309.445	5.57
309.815	5.36
310.184	5.19
310.554	5.12
310.923	5.04
311.293	5.02
311.662	4.91
312.031	4.9
312.401	4.84
312.77	4.92
313.139	4.95
313.508	4.85
313.877	4.93
314.246	5.01
314.616	4.9
314.985	4.93
315.353	4.86
315.722	4.96
316.091	4.83
316.46	4.7
316.829	4.6
317.198	4.81
317.567	4.89
317.935	4.91
318.304	5
318.672	5.01
319.041	5.11
319.41	5.1
319.778	5.11
320.147	5.14
320.515	5.06
320.883	4.97
321.252	5.11
321.62	5.04
321.988	4.97
322.357	4.94
322.725	4.95
323.093	5.06
323.461	4.88
323.829	5.02
324.197	5.02
324.565	5.14
324.933	5
325.301	4.93
325.669	4.93
326.037	4.93
326.405	4.85
326.772	4.97
327.14	5.04
327.508	5.04
327.875	4.94
328.243	4.98
328.61	5.01
328.978	5.01
329.346	5.12
329.713	5.06
330.08	5.23
330.448	5.09
330.815	4.93
331.182	4.96
331.55	4.96
331.917	4.98
332.284	4.9
332.651	4.86
333.018	4.93
333.385	4.93
333.752	4.82
334.119	4.97
334.486	4.81
334.853	4.82
335.22	4.74
335.587	4.89
335.954	4.87
336.32	4.97
336.687	4.9
337.054	4.73
337.42	4.68
337.787	4.74
338.153	4.78
338.52	4.84
338.886	4.8
339.253	4.78
339.619	4.85
339.986	4.9
340.352	4.98
340.718	5.02
341.084	5
341.451	5.08
341.817	5.06
342.183	5.06
342.549	5.02
342.915	5.12
343.281	5.1
343.647	5.06
344.013	5.03
344.379	5.01
344.745	5.24
345.11	5.29
345.476	5.22
345.842	5.32
346.208	5.37
346.573	5.37
346.939	5.4
347.304	5.34
347.67	5.32
348.035	5.21
348.401	5.14
348.766	5.14
349.132	5.11
349.497	5.04
349.862	5.05
350.228	5.13
350.593	5.05
350.958	5.01
351.323	4.99
351.688	4.99
352.053	5.03
352.418	4.95
352.783	4.99
353.148	4.93
353.513	4.89
353.878	4.81
354.243	4.85
354.608	4.86
354.972	4.9
355.337	4.88
355.702	5.07
356.066	5.13
356.431	5.11
356.795	5.12
357.16	5.1
357.524	5.07
357.889	5.02
358.253	5.11
358.618	5.17
358.982	5.2
359.346	5.12
359.71	5.05
360.075	5
360.439	4.98
360.803	5.02
361.167	4.97
361.531	5.05
361.895	5
362.259	5.03
362.623	5
362.987	4.98
363.351	4.96
363.714	4.92
364.078	4.97
364.442	4.97
364.806	4.93
365.169	4.97
365.533	4.99
365.896	4.96
366.26	4.89
366.623	4.88
366.987	4.93
367.35	5.01
367.714	5.04
368.077	5.07
368.44	5.05
368.803	5.13
369.167	5.06
369.53	4.98
369.893	4.99
370.256	4.98
370.619	4.96
370.982	4.88
371.345	4.89
371.708	4.89
372.071	4.9
372.434	4.93
372.797	4.93
373.159	4.87
373.522	4.88
373.885	4.89
374.247	4.9
374.61	4.87
374.973	4.81
375.335	4.85
375.698	4.85
376.06	4.83
376.423	4.81
376.785	4.88
377.147	4.97
377.51	4.95
377.872	5.01
378.234	5.06
378.596	5.03
378.958	4.99
379.321	4.99
379.683	4.98
380.045	4.97
380.407	4.97
380.769	5.03
381.13	5.01
381.492	4.99
381.854	4.99
382.216	4.99
382.578	5.04
382.939	4.96
383.301	4.92
383.663	4.91
384.024	4.93
384.386	4.94
384.747	4.94
385.109	4.96
385.47	4.91
385.832	4.87
386.193	4.92
386.554	4.97
386.916	4.96
387.277	4.97
387.638	5.02
387.999	5
388.36	4.97
388.721	5
389.082	5.04
389.443	5.01
389.804	5.02
390.165	4.99
390.526	5.02
390.887	5.06
391.248	5.1
391.609	5.1
391.969	5.11
392.33	5.11
392.691	5.09
393.051	5.08
393.412	5.11
393.772	5.1
394.133	5.08
394.493	5.06
394.854	5.07
395.214	5.05
395.574	5.07
395.935	5.06
396.295	5.08
396.655	5.05
397.015	5.06
397.376	5.12
397.736	5.12
398.096	5.14
398.456	5.15
398.816	5.15
399.176	5.12
399.535	5.09
399.895	5.05
400.255	5.09
400.615	5.09
400.975	5.08
401.334	5.09
401.694	5.09
402.054	5.08
402.413	5.08
402.773	5.05
403.132	5.05
403.492	5.05
403.851	5.01
404.211	5.01
404.57	5
404.929	4.98
405.288	4.97
405.648	4.94
406.007	4.91
406.366	4.88
406.725	4.9
407.084	4.9
407.443	4.94
407.802	4.91
408.161	4.92
408.52	4.93
408.879	4.91
409.238	4.93
409.596	4.95
409.955	4.95
410.314	4.98
410.673	4.97
411.031	4.96
411.39	4.97
411.748	4.98
412.107	4.98
412.465	4.95
412.824	4.98
413.182	5
413.54	5.01
413.899	5.04
414.257	5.03
414.615	5.03
414.974	5
415.332	5
415.69	5
416.048	5
416.406	5.02
416.764	5.01
417.122	5
417.48	4.97
417.838	4.95
418.195	4.96
418.553	4.96
418.911	4.95
419.269	4.95
419.626	4.97
419.984	4.98
420.342	4.98
420.699	4.97
421.057	4.98
421.414	4.96
421.772	4.95
422.129	4.95
422.486	4.94
422.844	4.93
423.201	4.93
423.558	4.92
423.915	4.91
424.273	4.89
424.63	4.89
424.987	4.91
425.344	4.94
425.701	4.94
426.058	4.93
426.415	4.94
426.772	4.95
427.128	4.92
427.485	4.92
427.842	4.9
428.199	4.9
428.555	4.89
428.912	4.88
429.269	4.89
429.625	4.88
429.982	4.89
430.338	4.87
430.695	4.88
431.051	4.87
431.407	4.89
431.764	4.9
432.12	4.89
432.476	4.87
432.832	4.84
433.189	4.84
433.545	4.84
433.901	4.83
434.257	4.81
434.613	4.81
434.969	4.8
435.325	4.8
435.681	4.81
436.036	4.79
436.392	4.78
436.748	4.77
437.104	4.77
437.459	4.78
437.815	4.8
438.171	4.78
438.526	4.8
438.882	4.77
439.237	4.78
439.593	4.78
439.948	4.77
440.304	4.78
440.659	4.75
441.014	4.76
441.369	4.74
441.725	4.74
442.08	4.76
442.435	4.75
442.79	4.77
443.145	4.77
443.5	4.77
443.855	4.78
444.21	4.8
444.565	4.81
444.92	4.8
445.275	4.78
445.629	4.77
445.984	4.78
446.339	4.78
446.693	4.77
447.048	4.76
447.403	4.75
447.757	4.73
448.112	4.73
448.466	4.72
448.82	4.73
449.175	4.73
449.529	4.71
449.883	4.7
450.238	4.7
450.592	4.67
450.946	4.68
451.3	4.66
451.654	4.64
452.008	4.64
452.362	4.64
452.716	4.65
453.07	4.67
453.424	4.66
453.778	4.65
454.132	4.65
454.486	4.65
454.839	4.67
455.193	4.68
455.547	4.69
455.9	4.69
456.254	4.7
456.607	4.71
456.961	4.72
457.314	4.72
457.668	4.7
458.021	4.69
458.375	4.69
458.728	4.72
459.081	4.73
459.434	4.72
459.787	4.71
460.141	4.71
460.494	4.7
460.847	4.7
461.2	4.7
461.553	4.69
461.906	4.7
462.259	4.7
462.611	4.69
462.964	4.7
463.317	4.71
463.67	4.71
464.022	4.71
464.375	4.72
464.728	4.72
465.08	4.72
465.433	4.73
465.785	4.71
466.138	4.7
466.49	4.71
466.843	4.71
467.195	4.72
467.547	4.74
467.899	4.74
468.252	4.73
468.604	4.75
468.956	4.74
469.308	4.72
469.66	4.72
470.012	4.75
470.364	4.75
470.716	4.73
471.068	4.72
471.42	4.73
471.772	4.73
472.123	4.74
472.475	4.74
472.827	4.75
473.178	4.81
473.53	4.81
473.882	4.79
474.233	4.8
474.585	4.79
474.936	4.77
475.288	4.77
475.639	4.76
475.99	4.76
476.342	4.77
476.693	4.79
477.044	4.79
477.395	4.79
477.746	4.77
478.097	4.78
478.448	4.79
478.8	4.76
479.15	4.75
479.501	4.77
479.852	4.77
480.203	4.79
480.554	4.79
480.905	4.79
481.255	4.81
481.606	4.83
481.957	4.85
482.307	4.86
482.658	4.87
483.009	4.87
483.359	4.88
483.709	4.88
484.06	4.88
484.41	4.89
484.761	4.9
485.111	4.9
485.461	4.9
485.811	4.9
486.162	4.91
486.512	4.93
486.862	4.93
487.212	4.93
487.562	4.94
487.912	4.94
488.262	4.94
488.612	4.94
488.961	4.93
489.311	4.92
489.661	4.92
490.011	4.92
490.36	4.92
490.71	4.92
491.06	4.92
491.409	4.91
491.759	4.91
492.108	4.9
492.458	4.91
492.807	4.91
493.157	4.91
493.506	4.93
493.855	4.92
494.204	4.92
494.554	4.92
494.903	4.9
495.252	4.89
495.601	4.91
495.95	4.9
496.299	4.91
496.648	4.92
496.997	4.93
497.346	4.93
497.695	4.96
498.043	4.97
498.392	4.97
498.741	4.99
499.09	5
499.438	5.02
499.787	5.03
500.135	5.04
500.484	5.03
500.832	5.03
501.181	5.04
501.529	5.04
501.878	5.06
502.226	5.09
502.574	5.08
502.923	5.06
503.271	5.07
503.619	5.06
503.967	5.07
504.315	5.09
504.663	5.1
505.011	5.12
505.359	5.13
505.707	5.15
506.055	5.16
506.403	5.16
506.751	5.15
507.098	5.16
507.446	5.17
507.794	5.18
508.141	5.19
508.489	5.2
508.837	5.22
509.184	5.21
509.531	5.21
509.879	5.25
510.226	5.27
510.574	5.25
510.921	5.28
511.268	5.29
511.616	5.28
511.963	5.29
512.31	5.29
512.657	5.29
513.004	5.29
513.351	5.3
513.698	5.29
514.045	5.3
514.392	5.3
514.739	5.3
515.086	5.32
515.432	5.33
515.779	5.33
516.126	5.34
516.473	5.35
516.819	5.36
517.166	5.36
517.512	5.37
517.859	5.39
518.205	5.39
518.552	5.39
518.898	5.41
519.245	5.4
519.591	5.4
519.937	5.38
520.283	5.38
520.629	5.38
520.976	5.37
521.322	5.38
521.668	5.37
522.014	5.4
522.36	5.39
522.706	5.4
523.052	5.42
523.398	5.43
523.743	5.45
524.089	5.45
524.435	5.46
524.781	5.48
525.126	5.49
525.472	5.49
525.817	5.5
526.163	5.49
526.509	5.51
526.854	5.51
527.199	5.53
527.545	5.52
527.89	5.54
528.235	5.55
528.581	5.56
528.926	5.58
529.271	5.57
529.616	5.56
529.961	5.56
530.306	5.55
530.651	5.56
530.996	5.55
531.341	5.56
531.686	5.56
532.031	5.55
532.376	5.54
532.721	5.55
533.065	5.54
533.41	5.55
533.755	5.55
534.099	5.56
534.444	5.56
534.788	5.58
535.133	5.58
535.477	5.59
535.822	5.57
536.166	5.57
536.51	5.56
536.855	5.6
537.199	5.59
537.543	5.6
537.887	5.59
538.231	5.6
538.576	5.61
538.92	5.6
539.264	5.62
539.608	5.64
539.951	5.63
540.295	5.65
540.639	5.65
540.983	5.64
541.327	5.65
541.671	5.64
542.014	5.65
542.358	5.64
542.701	5.64
543.045	5.65
543.389	5.65
543.732	5.66
544.075	5.66
544.419	5.68
544.762	5.68
545.105	5.7
545.449	5.69
545.792	5.71
546.135	5.72
546.478	5.73
546.821	5.73
547.165	5.76
547.508	5.75
547.851	5.77
548.194	5.76
548.536	5.75
548.879	5.77
549.222	5.76
549.565	5.75
549.908	5.77
550.25	5.76
550.593	5.77
550.936	5.79
551.278	5.76
551.621	5.77
551.963	5.77
552.306	5.75
552.648	5.73
552.991	5.71
553.333	5.7
553.675	5.68
554.017	5.67
554.36	5.64
554.702	5.65
555.044	5.63
555.386	5.68
555.728	5.68
556.07	5.71
556.412	5.7
556.754	5.71
557.096	5.71
557.438	5.73
557.78	5.76
558.121	5.77
558.463	5.8
558.805	5.76
559.147	5.77
559.488	5.81
559.83	5.82
560.171	5.83
560.513	5.85
560.854	5.84
561.196	5.87
561.537	5.87
561.878	5.84
562.22	5.86
562.561	5.85
562.902	5.86
563.243	5.83
563.584	5.85
563.925	5.88
564.266	5.89
564.607	5.87
564.948	5.86
565.289	5.86
565.63	5.87
565.971	5.88
566.312	5.87
566.653	5.84
566.993	5.83
567.334	5.83
567.675	5.81
568.015	5.81
568.356	5.81
568.696	5.84
569.037	5.85
569.377	5.84
569.718	5.85
570.058	5.86
570.398	5.87
570.739	5.88
571.079	5.86
571.419	5.85
571.759	5.86
572.099	5.86
572.439	5.85
572.779	5.84
573.119	5.85
573.459	5.86
573.799	5.9
574.139	5.9
574.479	5.89
574.819	5.9
575.158	5.9
575.498	5.89
575.838	5.9
576.177	5.88
576.517	5.9
576.856	5.89
577.196	5.87
577.535	5.88
577.875	5.85
578.214	5.88
578.553	5.89
578.893	5.9
579.232	5.91
579.571	5.9
579.91	5.88
580.25	5.86
580.589	5.85
580.928	5.84
581.267	5.88
581.606	5.89
581.945	5.89
582.283	5.92
582.622	5.97
582.961	5.94
583.3	5.95
583.639	5.95
583.977	5.95
584.316	5.93
584.654	5.89
584.993	5.94
585.332	5.92
585.67	5.94
586.008	5.94
586.347	5.95
586.685	5.96
587.024	6.03
587.362	6.04
587.7	6.07
588.038	6.06
588.376	6.07
588.715	6.11
589.053	6.13
589.391	6.12
589.729	6.12
590.067	6.11
590.404	6.11
590.742	6.15
591.08	6.12
591.418	6.13
591.756	6.17
592.093	6.16
592.431	6.16
592.769	6.14
593.106	6.11
593.444	6.07
593.781	6.07
594.119	6.04
594.456	6.03
594.793	6.03
595.131	5.99
595.468	6
595.805	5.96
596.143	5.94
596.48	5.91
596.817	5.92
597.154	5.95
597.491	5.95
597.828	5.96
598.165	5.98
598.502	5.97
598.839	5.97
599.176	5.96
599.512	5.96
599.849	6.03
600.186	6.08
600.523	6.11
600.859	6.14
601.196	6.16
601.532	6.16
601.869	6.13
602.205	6.17
602.542	6.15
602.878	6.15
603.215	6.14
603.551	6.14
603.887	6.13
604.223	6.13
604.56	6.18
604.896	6.14
605.232	6.18
605.568	6.21
605.904	6.21
606.24	6.21
606.576	6.2
606.912	6.16
607.248	6.14
607.583	6.14
607.919	6.13
608.255	6.08
608.591	6.1
608.926	6.14
609.262	6.12
609.597	6.11
609.933	6.13
610.268	6.19
610.604	6.23
610.939	6.23
611.275	6.21
611.61	6.19
611.945	6.24
612.281	6.23
612.616	6.23
612.951	6.24
613.286	6.28
613.621	6.26
613.956	6.27
614.291	6.29
614.626	6.26
614.961	6.23
615.296	6.25
615.631	6.26
615.966	6.26
616.3	6.27
616.635	6.3
616.97	6.33
617.304	6.3
617.639	6.28
617.973	6.28
618.308	6.25
618.642	6.22
618.977	6.24
619.311	6.19
619.646	6.23
619.98	6.2
620.314	6.2
620.648	6.23
620.983	6.24
621.317	6.24
621.651	6.29
621.985	6.33
622.319	6.36
622.653	6.38
622.987	6.35
623.321	6.36
623.655	6.34
623.988	6.34
624.322	6.34
624.656	6.32
624.99	6.3
625.323	6.31
625.657	6.36
625.99	6.32
626.324	6.32
626.657	6.3
626.991	6.32
627.324	6.28
627.658	6.29
627.991	6.28
628.324	6.25
628.657	6.24
628.991	6.24
629.324	6.26
629.657	6.26
629.99	6.3
630.323	6.33
630.656	6.36
630.989	6.36
631.322	6.4
631.655	6.43
631.987	6.45
632.32	6.5
632.653	6.44
632.986	6.44
633.318	6.48
633.651	6.47
633.984	6.46
634.316	6.49
634.649	6.46
634.981	6.52
635.313	6.54
635.646	6.54
635.978	6.54
636.31	6.53
636.643	6.58
636.975	6.56
637.307	6.54
637.639	6.54
637.971	6.52
638.303	6.49
638.635	6.44
638.967	6.45
639.299	6.48
639.631	6.52
639.963	6.5
640.295	6.46
640.626	6.51
640.958	6.52
641.29	6.53
641.621	6.53
641.953	6.45
642.285	6.48
642.616	6.51
642.948	6.52
643.279	6.53
643.61	6.48
643.942	6.51
644.273	6.5
644.604	6.45
644.936	6.41
645.267	6.41
645.598	6.47
645.929	6.44
646.26	6.41
646.591	6.44
646.922	6.51
647.253	6.53
647.584	6.51
647.915	6.48
648.245	6.49
648.576	6.57
648.907	6.62
649.238	6.54
649.568	6.5
649.899	6.51
650.229	6.52
650.56	6.55
650.89	6.55
651.221	6.58
651.551	6.6
651.882	6.67
652.212	6.71
652.542	6.71
652.872	6.76
653.203	6.77
653.533	6.74
653.863	6.64
654.193	6.68
654.523	6.69
654.853	6.72
655.183	6.76
655.513	6.77
655.843	6.71
656.172	6.71
656.502	6.72
656.832	6.76
657.162	6.7
657.491	6.58
657.821	6.57
658.15	6.53
658.48	6.52
658.809	6.53
659.139	6.48
659.468	6.53
659.798	6.51
660.127	6.51
660.456	6.5
660.785	6.59
661.115	6.59
661.444	6.6
661.773	6.63
662.102	6.57
662.431	6.56
662.76	6.6
663.089	6.63
663.418	6.63
663.747	6.55
664.076	6.61
664.404	6.69
664.733	6.67
665.062	6.72
665.39	6.81
665.719	6.78
666.048	6.86
666.376	6.76
666.705	6.73
667.033	6.66
667.362	6.73
667.69	6.66
668.018	6.62
668.347	6.61
668.675	6.54
669.003	6.5
669.331	6.49
669.659	6.54
669.987	6.5
670.315	6.56
670.643	6.64
670.971	6.62
671.299	6.68
671.627	6.74
671.955	6.7
672.283	6.65
672.61	6.61
672.938	6.58
673.266	6.64
673.593	6.76
673.921	6.78
674.249	6.77
674.576	6.81
674.904	6.83
675.231	6.87
675.558	6.94
675.886	7.07
676.213	7.03
676.54	7.04
676.867	7.11
677.195	7.11
677.522	7.11
677.849	7.07
678.176	7.01
678.503	6.94
678.83	6.97
679.157	7
679.484	7.06
679.81	7.03
680.137	7
680.464	6.92
680.791	6.86
681.117	6.86
681.444	6.83
681.771	6.86
682.097	6.76
682.424	6.77
682.75	6.72
683.077	6.7
683.403	6.67
683.729	6.7
684.056	6.64
684.382	6.62
684.708	6.62
685.034	6.67
685.36	6.74
685.686	6.71
686.012	6.67
686.339	6.71
686.664	6.79
686.99	6.77
687.316	6.75
687.642	6.91
687.968	6.86
688.294	6.93
688.619	6.99
688.945	7.01
689.271	6.91
689.596	6.93
689.922	6.93
690.247	6.9
690.573	6.79
690.898	6.84
691.224	6.88
691.549	6.97
691.874	6.86
692.2	6.85
692.525	6.86
692.85	6.9
693.175	6.8
693.5	6.75
693.825	6.83
694.15	6.8
694.475	6.72
694.8	6.8
695.125	6.77
695.45	6.61
695.775	6.77
696.099	6.87
696.424	6.75
696.749	6.74
697.073	6.73
697.398	6.86
697.723	6.85
698.047	6.85
698.372	6.76
698.696	6.75
699.02	6.79
699.345	6.8
699.669	6.82
699.993	6.84
700.318	6.76
700.642	6.71
700.966	6.76
701.29	6.79
701.614	6.73
701.938	6.79
702.262	6.94
702.586	6.8
702.91	6.86
703.234	7
703.557	7.15
703.881	7.11
704.205	7.03
704.529	7.05
704.852	7.04
705.176	7.09
705.499	7.23
705.823	7.11
706.146	7.11
706.47	7.13
706.793	7.16
707.117	7.22
707.44	7.2
707.763	7.15
708.086	7.03
708.409	7.06
708.733	6.96
709.056	6.99
709.379	7.06
709.702	6.92
710.025	6.99
710.348	6.83
710.671	6.89
710.993	6.95
711.316	6.88
711.639	6.9
711.962	6.98
712.284	6.87
712.607	6.85
712.93	6.79
713.252	6.62
713.575	6.59
713.897	6.6
714.22	6.69
714.542	6.86
714.864	7.05
715.187	7.09
715.509	7.07
715.831	6.91
716.153	6.95
716.475	6.96
716.798	6.9
717.12	6.97
717.442	7.04
717.764	6.96
718.085	7.01
718.407	6.92
718.729	6.72
719.051	6.76
719.373	6.83
719.695	6.99
720.016	7.1
720.338	7.1
720.659	7.16
720.981	7.21
721.302	6.97
721.624	6.78
721.945	6.85
722.267	6.95
722.588	7.07
722.909	7.01
723.231	7.02
723.552	6.83
723.873	6.86
724.194	6.9
724.515	6.92
724.836	6.99
725.157	7.03
725.478	7.11
725.799	7.11
726.12	7.08
726.441	7.1
726.762	7.13
727.083	7.29
727.403	7.32
727.724	7.34
728.045	7.5
728.365	7.57
728.686	7.33
729.006	7.32
729.327	7.27
729.647	7.33
729.967	7.43
730.288	7.61
730.608	7.47
730.928	7.48
731.249	7.51
731.569	7.54
731.889	7.62
732.209	7.7
732.529	7.72
732.849	7.81
733.169	7.62
733.489	7.64
733.809	7.56
734.129	7.48
734.448	7.42
734.768	7.38
735.088	7.56
735.408	7.83
735.727	7.93
736.047	8.09
736.366	7.95
736.686	7.92
737.005	8.12
737.325	8.28
737.644	8.2
737.963	8.43
738.283	8.25
738.602	8.1
738.921	8.09
739.24	8.28
739.56	8.07
739.879	8.2
740.198	8.03
740.517	8.05
740.836	8
741.155	7.97
741.473	8.16
741.792	8.07
742.111	8.01
742.43	8.04
742.748	7.84
743.067	7.85
743.386	7.98
743.704	7.7
744.023	7.74
744.341	7.79
744.66	7.84
744.978	7.95
745.297	8
745.615	7.97
745.933	7.87
746.252	8.11
746.57	8.18
746.888	8.34
747.206	8.3
747.524	8.5
747.842	8.57
748.16	8.52
748.478	8.6
748.796	8.54
749.114	8.39
749.432	8.44
749.749	8.7
750.067	8.81
750.385	8.82
750.703	8.67
751.02	8.67
751.338	8.32
751.655	8.32
751.973	8.53
752.29	8.58
752.608	8.62
752.925	8.49
753.242	8.42
753.56	8.35
753.877	8.21
754.194	7.97
754.511	8.06
754.828	7.94
755.145	7.87
755.462	8.03
755.779	8.15
756.096	8.11
756.413	8.23
756.73	7.95
757.047	7.96
757.364	7.95
757.68	7.98
757.997	8.11
758.314	7.97
758.63	8.03
758.947	7.94
759.264	7.74
759.58	7.78
759.896	7.74
760.213	8.04
760.529	8.15
760.846	8.34
761.162	7.99
761.478	7.89
761.794	7.74
762.11	7.54
762.426	7.56
762.743	7.76
763.059	7.75
763.375	7.91
763.69	8.01
764.006	8.18
764.322	8.18
764.638	8.16
764.954	8.43
765.27	8.3
765.585	8.47
765.901	8.55
766.216	8.72
766.532	8.76
766.848	8.55
767.163	8.66
767.478	8.53
767.794	8.67
768.109	8.58
768.424	8.64
768.74	8.96
769.055	9.01
769.37	8.96
769.685	8.73
770	8.62
770.315	8.51
770.63	8.54
770.945	8.59
771.26	8.65
771.575	8.53
771.89	8.58
772.205	8.52
772.52	8.57
772.834	8.27
773.149	8.47
773.464	8.5
773.778	8.74
774.093	8.65
774.407	8.91
774.722	9.21
775.036	9.72
775.351	9.58
775.665	9.49
775.979	9.33
776.293	9.29
776.608	9.53
776.922	9.62
777.236	9.66
777.55	9.8
777.864	9.59
778.178	9.66
778.492	9.97
778.806	9.77
779.12	9.84
779.434	10
779.747	9.77
780.061	9.91
780.375	9.73
780.689	9.93
781.002	10.22
781.316	10.37
781.629	10.33
781.943	10.54
782.256	10.31
782.57	10.58
782.883	10.33
783.196	9.85
783.51	9.68
783.823	9.49
784.136	9.19
784.449	9.27
784.762	8.92
785.075	8.39
785.388	8.77
785.701	8.99
786.014	9.05
786.327	9.29
786.64	9.66
786.953	9.58
787.266	9.57
787.578	9.59
787.891	9.29
788.204	8.9
788.516	9.05
788.829	9.08
789.141	8.9
789.454	8.99
789.766	9.41
790.079	9.82
790.391	9.63
790.703	9.92
791.016	9.7
791.328	10.18
791.64	10.31
791.952	10.19
792.264	9.95
792.576	9.75
792.888	9.83
793.2	9.53
793.512	9.7
793.824	9.98
794.136	9.87
794.448	10.57
794.76	10.61
795.071	10.21
795.383	10.38
795.695	10.61
796.006	10.62
796.318	10.52
796.629	10.11
796.941	10.23
797.252	10.07
797.564	10.39
797.875	10.34
798.186	10.65
798.497	10.83
798.809	10.86
799.12	11.16
799.431	10.79
799.742	10.66
800.053	10.64
800.364	10.29
800.675	9.92
800.986	9.51
801.297	9.68
801.608	9.52
801.918	9.35
802.229	9.06
802.54	9.44
802.851	9.55
803.161	9.64
803.472	9.69
803.782	9.74
804.093	9.84
804.403	9.42
804.714	8.93
805.024	8.98
805.334	9.5
805.645	9.19
805.955	9.36
806.265	9.86
806.575	9.6
806.885	9.77
807.195	10.15
807.505	9.95
807.815	9.67
808.125	9.51
808.435	9.65
808.745	9.88
809.055	10.13
809.365	10.14
809.674	9.93
809.984	10.21
810.294	10.23
810.603	10.44
810.913	10.84
811.222	11.43
811.532	11.04
811.841	11.05
812.151	12.31
812.46	12.54
812.769	12.7
813.079	12.49
813.388	12.31
813.697	12.38
814.006	12.62
814.315	13.15
814.624	13.7
814.933	13.82
815.242	13.58
815.551	13.23
815.86	13.01
816.169	13.33
816.478	13.27
816.786	13.34
817.095	13.07
817.404	12.79
817.712	12.31
818.021	12.76
818.33	12.34
818.638	11.48
818.947	11.76
819.255	11.72
819.563	12.23
819.872	12.07
820.18	12.25
820.488	12.06
820.796	11.87
821.105	11.71
821.413	11.74
821.721	11.76
822.029	11.76
822.337	11.86
822.645	11.76
822.953	11.66
823.26	11.68
823.568	11.71
823.876	11.78
824.184	11.77
824.491	11.63
824.799	11.58
825.107	11.55
825.414	11.5
825.722	11.4
826.029	11.44
826.337	11.7
826.644	11.51
826.951	11.58
827.259	11.68
827.566	11.75
827.873	11.56
828.18	11.64
828.488	11.5
828.795	11.3
829.102	11.59
829.409	11.68
829.716	11.49
830.023	11.37
830.329	11.21
830.636	11.42
830.943	11.49
831.25	11.49
831.557	11.73
831.863	11.61
832.17	11.45
832.476	11.22
832.783	11.14
833.089	10.98
833.396	11.2
833.702	11.13
834.009	11.21
834.315	11.99
834.621	11.78
834.928	11.92
835.234	11.66
835.54	11.29
835.846	11.25
836.152	11.31
836.458	11.39
836.764	11.24
837.07	11.12
837.376	10.62
837.682	10.5
837.988	10.26
838.293	10.22
838.599	10.23
838.905	9.7
839.211	9.1
839.516	9.84
839.822	9.26
840.127	8.63
840.433	8.28
840.738	7.37
841.044	7.17
841.349	7.74
841.654	8.15
841.959	8.33
842.265	8.17
842.57	8.76
842.875	8.9
843.18	9.79
843.485	9.78
843.79	11.23
844.095	11.56
844.4	12.12
844.705	11.46
845.01	12.16
845.315	11.97
845.619	11.42
845.924	10.3
846.229	10.99
846.533	11.05
846.838	10.91
847.142	11.88
847.447	11.08
847.751	9.95
848.056	9.55
848.36	11.16
848.664	11.08
848.969	10.79
849.273	9.12
849.577	7.7
849.881	6.96
850.185	6.61
850.489	6.47
850.794	6.53
851.097	8.05
851.401	6.34
851.705	7.67
852.009	9.69
852.313	8.85
852.617	7.68
852.92	9.82
853.224	10.25
853.528	8.53
853.831	8.58
854.135	7.68
854.438	8.77
854.742	6.63
855.045	6.01
855.349	5.87
855.652	6.58
855.955	6.23
856.259	6.69
856.562	5.93
856.865	6.12
857.168	4.55
857.471	4.21
857.774	7.2
858.077	7.28
858.38	8.38
858.683	8.14
858.986	10.4
859.289	9.01
859.592	7.74
859.894	9.54
860.197	10.15
860.5	10.69
860.802	10.14
861.105	10.94
861.407	10.29
861.71	11.08
862.012	12.72
862.315	13.8
862.617	14.04
862.919	14.09
863.222	15.09
863.524	14.24
863.826	15.89
864.128	14.94
864.43	11.85
864.732	10.88
865.034	12.65
865.336	9.83
865.638	8.92
865.94	10.54
866.242	8.78
866.544	10.37
866.846	11.59
867.147	10.1
867.449	8.64
867.751	12.44
868.052	12.9
868.354	10.96
868.655	12.13
868.957	11.95
869.258	13.23
869.56	12.74
869.861	14.42
870.162	10.95
870.463	10.12
870.765	13.27
871.066	12.99
871.367	12.66
871.668	14.17
871.969	13.96
872.27	11.43
872.571	11.38
872.872	10.38
873.173	10.7
873.473	12.96
873.774	12.74
874.075	9.89
874.376	9.05
874.676	11.13
874.977	8.36
875.277	10.32
875.578	10.65
875.878	10
876.179	9.64
876.479	11.45
876.78	11.25
877.08	10.98
877.38	9.99
877.68	9.14
877.981	8.79
878.281	10.15
878.581	13.78
