Data from BA28470_Reflection_00004.txt Node
Date: Mon Nov 18 15:09:56 EST 2019
User: vgr7
Spectrometer: USB2G7710
Scans to average: 3
Trigger mode: 4
Integration Time (sec): 2.000000E-2
Electric dark correction enabled: true
Boxcar width: 10
XAxis mode: Wavelengths
Number of Pixels in Spectrum: 2048
>>>>>Begin Spectral Data<<<<<
177.721	138.29
178.105	107.87
178.488	-157.64
178.871	140.44
179.254	81.55
179.636	383.19
180.019	-303.12
180.402	39.39
180.785	-2305.41
181.168	-77.15
181.55	-33.55
181.933	144.59
182.316	115.67
182.698	172.93
183.081	66.15
183.463	127.03
183.846	95.2
184.228	72.21
184.611	57.55
184.993	57.84
185.376	58.77
185.758	221.75
186.14	298.84
186.522	296.6
186.904	254.45
187.287	480.88
187.669	316.8
188.051	176.41
188.433	337.68
188.815	508.19
189.197	380.92
189.579	618.47
189.961	836.38
190.342	9477.36
190.724	-1842.08
191.106	7607.04
191.488	3407.69
191.869	-987.53
192.251	-314.09
192.633	-186.65
193.014	-250.59
193.396	-896.6
193.777	-429.66
194.159	-502.31
194.54	-341.82
194.922	-293.28
195.303	-232.36
195.684	-130.64
196.065	-69.8
196.447	-79
196.828	-113.14
197.209	-74.84
197.59	-64.18
197.971	-44.92
198.352	-26.32
198.733	-46.39
199.114	-41.68
199.495	-45.89
199.876	-62.2
200.257	-58.58
200.638	-63.28
201.018	-68.52
201.399	-50.66
201.78	-72.37
202.16	-74.62
202.541	-82.63
202.922	-92.16
203.302	-99.19
203.683	-201.33
204.063	-515.08
204.444	-279.51
204.824	-245.29
205.204	-306.01
205.585	-285.05
205.965	-986.15
206.345	-878.55
206.725	1296.36
207.106	-2612.23
207.486	544.6
207.866	1830.96
208.246	3170.8
208.626	899.49
209.006	-1814.29
209.386	-1226.15
209.766	-483.93
210.145	-441.94
210.525	-430.11
210.905	-601.88
211.285	-487.1
211.664	-177.04
212.044	-127.76
212.424	-122.58
212.803	-143.27
213.183	-138.73
213.562	-107.6
213.942	-81.96
214.321	-92.58
214.701	-75.38
215.08	-88.33
215.459	-53.27
215.838	-45.36
216.218	-42.99
216.597	-32.05
216.976	-26.86
217.355	-23.73
217.734	-29.12
218.113	-29.52
218.492	-31.2
218.871	-25.62
219.25	-23.52
219.629	-42.3
220.008	-43.57
220.387	-40.82
220.766	-37.48
221.144	-43.41
221.523	-47.55
221.902	-47.51
222.28	-57.15
222.659	-46.26
223.037	-43.12
223.416	-56.87
223.794	-62.21
224.173	-65.43
224.551	-55.28
224.929	-57.09
225.308	-41.69
225.686	-36.39
226.064	-21.73
226.442	-9.06
226.821	-2.36
227.199	-3.13
227.577	-1.4
227.955	-4.21
228.333	-2.99
228.711	0.37
229.089	5.68
229.467	5.12
229.845	4.95
230.222	5.15
230.6	2.99
230.978	2.16
231.356	4.52
231.733	6.68
232.111	7.01
232.488	7.3
232.866	7.58
233.243	7.81
233.621	7.6
233.998	5.34
234.376	1.78
234.753	0.48
235.13	-0.02
235.508	1.26
235.885	2.28
236.262	1.24
236.639	1.29
237.016	0.81
237.393	2.35
237.77	2.33
238.147	2.58
238.524	2.55
238.901	3.22
239.278	2.86
239.655	3.43
240.032	3.84
240.409	3.89
240.785	4.16
241.162	3.98
241.539	3.77
241.915	4.28
242.292	4.25
242.668	4.49
243.045	4.41
243.421	4.29
243.798	4.05
244.174	3.81
244.551	3.57
244.927	3.45
245.303	3.31
245.679	3.42
246.056	3.43
246.432	3.82
246.808	3.86
247.184	3.81
247.56	3.53
247.936	3.3
248.312	3.09
248.688	3.08
249.064	3.04
249.44	3.03
249.815	3.08
250.191	3.35
250.567	3.11
250.943	3.12
251.318	3.18
251.694	3.2
252.069	3.47
252.445	3.68
252.82	3.59
253.196	3.61
253.571	3.81
253.947	4.03
254.322	3.88
254.697	3.65
255.073	3.68
255.448	3.68
255.823	3.95
256.198	4.24
256.573	4.17
256.948	4.17
257.323	4.26
257.698	4.36
258.073	4.1
258.448	4.22
258.823	4.16
259.198	4.02
259.573	3.97
259.948	3.89
260.322	3.82
260.697	3.78
261.072	3.79
261.446	3.64
261.821	3.51
262.195	3.56
262.57	3.65
262.944	3.66
263.319	3.63
263.693	3.39
264.067	3.33
264.442	3.31
264.816	3.25
265.19	3.17
265.564	3.02
265.938	3.11
266.313	3.25
266.687	3.27
267.061	3.37
267.435	3.4
267.809	3.65
268.183	3.69
268.556	3.66
268.93	3.59
269.304	3.71
269.678	3.82
270.051	3.75
270.425	3.87
270.799	3.92
271.172	4.01
271.546	4.09
271.919	4.03
272.293	4.06
272.666	3.95
273.04	3.94
273.413	3.89
273.787	3.95
274.16	3.78
274.533	3.79
274.906	3.83
275.279	3.99
275.653	3.89
276.026	3.78
276.399	3.94
276.772	3.96
277.145	3.8
277.518	3.73
277.891	3.81
278.263	3.74
278.636	3.68
279.009	3.56
279.382	3.76
279.755	3.76
280.127	4.01
280.5	4.16
280.872	4.18
281.245	4.1
281.617	4.15
281.99	4.32
282.362	4.4
282.735	4.26
283.107	4.17
283.479	4.15
283.852	4.21
284.224	4.16
284.596	4.17
284.968	4.22
285.34	4.21
285.713	4.05
286.085	3.94
286.457	4.1
286.829	4.1
287.201	4
287.572	3.95
287.944	3.81
288.316	3.86
288.688	3.79
289.06	3.86
289.431	3.77
289.803	3.75
290.175	3.67
290.546	3.85
290.918	3.92
291.289	3.91
291.661	3.87
292.032	3.84
292.403	3.85
292.775	3.98
293.146	4.05
293.517	4.06
293.889	4.17
294.26	4.12
294.631	4.05
295.002	4.13
295.373	4.24
295.744	4.06
296.115	3.99
296.486	3.98
296.857	3.95
297.228	4.01
297.599	3.95
297.97	4.06
298.34	3.96
298.711	3.89
299.082	3.82
299.452	3.91
299.823	4.03
300.194	4.04
300.564	3.87
300.935	3.79
301.305	3.77
301.676	3.8
302.046	3.74
302.416	3.98
302.787	3.9
303.157	3.74
303.527	3.84
303.897	3.77
304.267	3.86
304.637	3.9
305.008	3.92
305.378	4.05
305.748	4.08
306.117	4.01
306.487	3.97
306.857	4.03
307.227	3.97
307.597	3.79
307.967	3.69
308.336	3.69
308.706	3.75
309.076	3.84
309.445	3.78
309.815	3.74
310.184	3.64
310.554	3.63
310.923	3.71
311.293	3.73
311.662	3.82
312.031	3.79
312.401	3.71
312.77	3.7
313.139	3.58
313.508	3.61
313.877	3.61
314.246	3.7
314.616	3.69
314.985	3.65
315.353	3.63
315.722	3.73
316.091	3.79
316.46	3.77
316.829	3.77
317.198	3.81
317.567	3.88
317.935	3.91
318.304	3.97
318.672	3.97
319.041	4.06
319.41	3.9
319.778	4
320.147	4.1
320.515	4
320.883	3.83
321.252	3.68
321.62	3.71
321.988	3.62
322.357	3.57
322.725	3.58
323.093	3.65
323.461	3.68
323.829	3.63
324.197	3.49
324.565	3.45
324.933	3.51
325.301	3.5
325.669	3.41
326.037	3.32
326.405	3.34
326.772	3.36
327.14	3.59
327.508	3.48
327.875	3.43
328.243	3.4
328.61	3.55
328.978	3.56
329.346	3.52
329.713	3.47
330.08	3.43
330.448	3.31
330.815	3.25
331.182	3.18
331.55	3.12
331.917	3.22
332.284	3.28
332.651	3.17
333.018	3.16
333.385	3.15
333.752	3.21
334.119	3.17
334.486	3.18
334.853	3.1
335.22	3.08
335.587	3.07
335.954	3.08
336.32	3.07
336.687	3.04
337.054	3.12
337.42	3.21
337.787	3.25
338.153	3.32
338.52	3.39
338.886	3.32
339.253	3.43
339.619	3.5
339.986	3.46
340.352	3.55
340.718	3.57
341.084	3.7
341.451	3.75
341.817	3.8
342.183	3.72
342.549	3.66
342.915	3.65
343.281	3.72
343.647	3.76
344.013	3.73
344.379	3.69
344.745	3.71
345.11	3.73
345.476	3.76
345.842	3.72
346.208	3.68
346.573	3.73
346.939	3.82
347.304	3.67
347.67	3.63
348.035	3.6
348.401	3.55
348.766	3.54
349.132	3.48
349.497	3.49
349.862	3.58
350.228	3.66
350.593	3.75
350.958	3.69
351.323	3.69
351.688	3.74
352.053	3.85
352.418	3.87
352.783	3.83
353.148	3.81
353.513	3.85
353.878	3.92
354.243	3.94
354.608	3.77
354.972	3.83
355.337	3.85
355.702	3.91
356.066	3.97
356.431	3.92
356.795	3.97
357.16	3.93
357.524	3.87
357.889	3.84
358.253	3.79
358.618	3.86
358.982	3.81
359.346	3.78
359.71	3.73
360.075	3.73
360.439	3.73
360.803	3.75
361.167	3.73
361.531	3.66
361.895	3.64
362.259	3.64
362.623	3.75
362.987	3.76
363.351	3.75
363.714	3.74
364.078	3.77
364.442	3.72
364.806	3.72
365.169	3.66
365.533	3.66
365.896	3.67
366.26	3.64
366.623	3.68
366.987	3.71
367.35	3.66
367.714	3.6
368.077	3.59
368.44	3.59
368.803	3.64
369.167	3.66
369.53	3.67
369.893	3.7
370.256	3.65
370.619	3.69
370.982	3.64
371.345	3.63
371.708	3.65
372.071	3.67
372.434	3.69
372.797	3.76
373.159	3.75
373.522	3.75
373.885	3.75
374.247	3.77
374.61	3.74
374.973	3.75
375.335	3.77
375.698	3.82
376.06	3.79
376.423	3.75
376.785	3.78
377.147	3.82
377.51	3.83
377.872	3.79
378.234	3.76
378.596	3.77
378.958	3.71
379.321	3.65
379.683	3.69
380.045	3.71
380.407	3.72
380.769	3.71
381.13	3.7
381.492	3.73
381.854	3.73
382.216	3.76
382.578	3.79
382.939	3.74
383.301	3.73
383.663	3.72
384.024	3.76
384.386	3.79
384.747	3.78
385.109	3.81
385.47	3.78
385.832	3.77
386.193	3.81
386.554	3.82
386.916	3.81
387.277	3.78
387.638	3.79
387.999	3.73
388.36	3.77
388.721	3.76
389.082	3.72
389.443	3.7
389.804	3.65
390.165	3.62
390.526	3.66
390.887	3.68
391.248	3.72
391.609	3.68
391.969	3.62
392.33	3.59
392.691	3.59
393.051	3.62
393.412	3.6
393.772	3.56
394.133	3.59
394.493	3.61
394.854	3.62
395.214	3.6
395.574	3.63
395.935	3.64
396.295	3.66
396.655	3.66
397.015	3.65
397.376	3.66
397.736	3.7
398.096	3.73
398.456	3.71
398.816	3.68
399.176	3.7
399.535	3.72
399.895	3.71
400.255	3.74
400.615	3.74
400.975	3.8
401.334	3.78
401.694	3.75
402.054	3.75
402.413	3.71
402.773	3.7
403.132	3.69
403.492	3.65
403.851	3.66
404.211	3.66
404.57	3.65
404.929	3.65
405.288	3.61
405.648	3.58
406.007	3.57
406.366	3.59
406.725	3.62
407.084	3.6
407.443	3.61
407.802	3.62
408.161	3.62
408.52	3.58
408.879	3.59
409.238	3.61
409.596	3.61
409.955	3.66
410.314	3.67
410.673	3.65
411.031	3.69
411.39	3.66
411.748	3.67
412.107	3.69
412.465	3.69
412.824	3.71
413.182	3.72
413.54	3.74
413.899	3.73
414.257	3.71
414.615	3.73
414.974	3.74
415.332	3.74
415.69	3.73
416.048	3.75
416.406	3.77
416.764	3.76
417.122	3.75
417.48	3.72
417.838	3.73
418.195	3.73
418.553	3.73
418.911	3.74
419.269	3.74
419.626	3.73
419.984	3.74
420.342	3.75
420.699	3.76
421.057	3.77
421.414	3.77
421.772	3.77
422.129	3.77
422.486	3.76
422.844	3.76
423.201	3.76
423.558	3.76
423.915	3.76
424.273	3.76
424.63	3.77
424.987	3.77
425.344	3.78
425.701	3.79
426.058	3.78
426.415	3.78
426.772	3.79
427.128	3.8
427.485	3.79
427.842	3.78
428.199	3.78
428.555	3.76
428.912	3.76
429.269	3.76
429.625	3.77
429.982	3.77
430.338	3.77
430.695	3.77
431.051	3.78
431.407	3.79
431.764	3.8
432.12	3.8
432.476	3.79
432.832	3.78
433.189	3.8
433.545	3.8
433.901	3.76
434.257	3.76
434.613	3.77
434.969	3.79
435.325	3.79
435.681	3.78
436.036	3.79
436.392	3.79
436.748	3.78
437.104	3.78
437.459	3.78
437.815	3.76
438.171	3.76
438.526	3.76
438.882	3.75
439.237	3.74
439.593	3.75
439.948	3.76
440.304	3.76
440.659	3.75
441.014	3.76
441.369	3.77
441.725	3.74
442.08	3.75
442.435	3.74
442.79	3.73
443.145	3.73
443.5	3.73
443.855	3.73
444.21	3.74
444.565	3.73
444.92	3.73
445.275	3.73
445.629	3.71
445.984	3.72
446.339	3.71
446.693	3.7
447.048	3.68
447.403	3.68
447.757	3.67
448.112	3.67
448.466	3.66
448.82	3.66
449.175	3.68
449.529	3.66
449.883	3.65
450.238	3.66
450.592	3.65
450.946	3.64
451.3	3.63
451.654	3.62
452.008	3.65
452.362	3.63
452.716	3.64
453.07	3.66
453.424	3.63
453.778	3.63
454.132	3.63
454.486	3.63
454.839	3.62
455.193	3.63
455.547	3.61
455.9	3.63
456.254	3.64
456.607	3.63
456.961	3.65
457.314	3.65
457.668	3.65
458.021	3.65
458.375	3.65
458.728	3.65
459.081	3.66
459.434	3.63
459.787	3.64
460.141	3.63
460.494	3.64
460.847	3.66
461.2	3.66
461.553	3.68
461.906	3.7
462.259	3.72
462.611	3.75
462.964	3.76
463.317	3.76
463.67	3.77
464.022	3.76
464.375	3.74
464.728	3.75
465.08	3.77
465.433	3.79
465.785	3.79
466.138	3.79
466.49	3.79
466.843	3.81
467.195	3.81
467.547	3.83
467.899	3.83
468.252	3.81
468.604	3.83
468.956	3.81
469.308	3.8
469.66	3.79
470.012	3.75
470.364	3.76
470.716	3.77
471.068	3.79
471.42	3.81
471.772	3.82
472.123	3.83
472.475	3.83
472.827	3.86
473.178	3.85
473.53	3.84
473.882	3.85
474.233	3.85
474.585	3.83
474.936	3.84
475.288	3.83
475.639	3.86
475.99	3.85
476.342	3.86
476.693	3.87
477.044	3.88
477.395	3.88
477.746	3.86
478.097	3.84
478.448	3.82
478.8	3.82
479.15	3.81
479.501	3.8
479.852	3.8
480.203	3.78
480.554	3.78
480.905	3.79
481.255	3.79
481.606	3.81
481.957	3.83
482.307	3.83
482.658	3.83
483.009	3.83
483.359	3.84
483.709	3.84
484.06	3.84
484.41	3.85
484.761	3.85
485.111	3.86
485.461	3.87
485.811	3.88
486.162	3.87
486.512	3.89
486.862	3.9
487.212	3.9
487.562	3.91
487.912	3.92
488.262	3.92
488.612	3.93
488.961	3.93
489.311	3.91
489.661	3.91
490.011	3.91
490.36	3.91
490.71	3.9
491.06	3.9
491.409	3.89
491.759	3.88
492.108	3.87
492.458	3.88
492.807	3.87
493.157	3.87
493.506	3.89
493.855	3.87
494.204	3.86
494.554	3.85
494.903	3.86
495.252	3.85
495.601	3.85
495.95	3.85
496.299	3.83
496.648	3.84
496.997	3.84
497.346	3.87
497.695	3.88
498.043	3.88
498.392	3.89
498.741	3.92
499.09	3.92
499.438	3.95
499.787	3.96
500.135	3.98
500.484	3.99
500.832	3.97
501.181	4
501.529	3.99
501.878	4.01
502.226	4.01
502.574	4.02
502.923	4
503.271	4
503.619	4.01
503.967	4.02
504.315	4.02
504.663	3.98
505.011	3.99
505.359	3.99
505.707	3.99
506.055	3.97
506.403	3.99
506.751	3.98
507.098	3.97
507.446	3.96
507.794	3.96
508.141	3.97
508.489	3.96
508.837	3.98
509.184	3.98
509.531	4
509.879	4.02
510.226	4.04
510.574	4.05
510.921	4.06
511.268	4.06
511.616	4.07
511.963	4.09
512.31	4.09
512.657	4.1
513.004	4.11
513.351	4.11
513.698	4.09
514.045	4.11
514.392	4.11
514.739	4.12
515.086	4.14
515.432	4.13
515.779	4.13
516.126	4.15
516.473	4.14
516.819	4.13
517.166	4.12
517.512	4.13
517.859	4.13
518.205	4.12
518.552	4.13
518.898	4.13
519.245	4.12
519.591	4.12
519.937	4.1
520.283	4.09
520.629	4.11
520.976	4.14
521.322	4.15
521.668	4.16
522.014	4.16
522.36	4.15
522.706	4.16
523.052	4.16
523.398	4.16
523.743	4.17
524.089	4.18
524.435	4.18
524.781	4.19
525.126	4.19
525.472	4.22
525.817	4.23
526.163	4.21
526.509	4.23
526.854	4.25
527.199	4.26
527.545	4.27
527.89	4.27
528.235	4.27
528.581	4.26
528.926	4.26
529.271	4.25
529.616	4.25
529.961	4.25
530.306	4.25
530.651	4.26
530.996	4.26
531.341	4.26
531.686	4.27
532.031	4.27
532.376	4.27
532.721	4.27
533.065	4.27
533.41	4.29
533.755	4.29
534.099	4.28
534.444	4.29
534.788	4.28
535.133	4.29
535.477	4.29
535.822	4.28
536.166	4.29
536.51	4.29
536.855	4.31
537.199	4.32
537.543	4.33
537.887	4.32
538.231	4.31
538.576	4.32
538.92	4.31
539.264	4.31
539.608	4.32
539.951	4.31
540.295	4.31
540.639	4.32
540.983	4.32
541.327	4.31
541.671	4.3
542.014	4.3
542.358	4.3
542.701	4.3
543.045	4.3
543.389	4.3
543.732	4.3
544.075	4.3
544.419	4.3
544.762	4.29
545.105	4.3
545.449	4.31
545.792	4.31
546.135	4.3
546.478	4.32
546.821	4.31
547.165	4.31
547.508	4.31
547.851	4.3
548.194	4.28
548.536	4.28
548.879	4.29
549.222	4.31
549.565	4.29
549.908	4.3
550.25	4.3
550.593	4.3
550.936	4.29
551.278	4.28
551.621	4.28
551.963	4.3
552.306	4.27
552.648	4.26
552.991	4.25
553.333	4.26
553.675	4.23
554.017	4.24
554.36	4.24
554.702	4.25
555.044	4.26
555.386	4.28
555.728	4.32
556.07	4.35
556.412	4.33
556.754	4.33
557.096	4.35
557.438	4.35
557.78	4.35
558.121	4.39
558.463	4.4
558.805	4.42
559.147	4.4
559.488	4.44
559.83	4.44
560.171	4.47
560.513	4.48
560.854	4.47
561.196	4.48
561.537	4.51
561.878	4.49
562.22	4.49
562.561	4.49
562.902	4.45
563.243	4.43
563.584	4.44
563.925	4.49
564.266	4.48
564.607	4.48
564.948	4.5
565.289	4.5
565.63	4.5
565.971	4.47
566.312	4.49
566.653	4.47
566.993	4.47
567.334	4.47
567.675	4.46
568.015	4.49
568.356	4.49
568.696	4.48
569.037	4.51
569.377	4.52
569.718	4.51
570.058	4.54
570.398	4.56
570.739	4.56
571.079	4.55
571.419	4.55
571.759	4.59
572.099	4.57
572.439	4.55
572.779	4.55
573.119	4.57
573.459	4.58
573.799	4.6
574.139	4.59
574.479	4.57
574.819	4.58
575.158	4.57
575.498	4.57
575.838	4.55
576.177	4.52
576.517	4.53
576.856	4.55
577.196	4.54
577.535	4.52
577.875	4.54
578.214	4.51
578.553	4.54
578.893	4.51
579.232	4.56
579.571	4.57
579.91	4.61
580.25	4.6
580.589	4.61
580.928	4.6
581.267	4.65
581.606	4.63
581.945	4.63
582.283	4.61
582.622	4.6
582.961	4.65
583.3	4.66
583.639	4.67
583.977	4.69
584.316	4.7
584.654	4.7
584.993	4.68
585.332	4.68
585.67	4.69
586.008	4.65
586.347	4.62
586.685	4.67
587.024	4.63
587.362	4.64
587.7	4.62
588.038	4.64
588.376	4.62
588.715	4.65
589.053	4.68
589.391	4.72
589.729	4.73
590.067	4.7
590.404	4.7
590.742	4.7
591.08	4.68
591.418	4.67
591.756	4.69
592.093	4.7
592.431	4.7
592.769	4.72
593.106	4.75
593.444	4.73
593.781	4.67
594.119	4.69
594.456	4.7
594.793	4.71
595.131	4.68
595.468	4.71
595.805	4.67
596.143	4.64
596.48	4.65
596.817	4.64
597.154	4.68
597.491	4.66
597.828	4.64
598.165	4.6
598.502	4.62
598.839	4.6
599.176	4.58
599.512	4.6
599.849	4.57
600.186	4.57
600.523	4.61
600.859	4.65
601.196	4.65
601.532	4.63
601.869	4.6
602.205	4.61
602.542	4.62
602.878	4.64
603.215	4.65
603.551	4.65
603.887	4.67
604.223	4.65
604.56	4.7
604.896	4.71
605.232	4.74
605.568	4.74
605.904	4.73
606.24	4.76
606.576	4.75
606.912	4.77
607.248	4.77
607.583	4.77
607.919	4.76
608.255	4.75
608.591	4.74
608.926	4.78
609.262	4.82
609.597	4.78
609.933	4.8
610.268	4.83
610.604	4.82
610.939	4.78
611.275	4.78
611.61	4.77
611.945	4.79
612.281	4.8
612.616	4.79
612.951	4.87
613.286	4.85
613.621	4.84
613.956	4.82
614.291	4.83
614.626	4.81
614.961	4.8
615.296	4.79
615.631	4.83
615.966	4.79
616.3	4.77
616.635	4.79
616.97	4.8
617.304	4.79
617.639	4.83
617.973	4.85
618.308	4.87
618.642	4.87
618.977	4.88
619.311	4.85
619.646	4.86
619.98	4.8
620.314	4.85
620.648	4.89
620.983	4.89
621.317	4.86
621.651	4.84
621.985	4.85
622.319	4.86
622.653	4.85
622.987	4.85
623.321	4.82
623.655	4.85
623.988	4.87
624.322	4.86
624.656	4.84
624.99	4.82
625.323	4.79
625.657	4.79
625.99	4.77
626.324	4.79
626.657	4.79
626.991	4.85
627.324	4.82
627.658	4.81
627.991	4.84
628.324	4.85
628.657	4.88
628.991	4.91
629.324	4.96
629.657	4.99
629.99	5.02
630.323	5.02
630.656	5.06
630.989	5.06
631.322	5.08
631.655	5.11
631.987	5.13
632.32	5.18
632.653	5.18
632.986	5.2
633.318	5.19
633.651	5.22
633.984	5.18
634.316	5.2
634.649	5.21
634.981	5.19
635.313	5.18
635.646	5.17
635.978	5.18
636.31	5.13
636.643	5.07
636.975	5.13
637.307	5.13
637.639	5.07
637.971	5.05
638.303	5.02
638.635	4.97
638.967	4.99
639.299	4.99
639.631	4.94
639.963	4.93
640.295	4.92
640.626	4.92
640.958	5.08
641.29	5.06
641.621	5.03
641.953	5
642.285	5.08
642.616	5.16
642.948	5.13
643.279	5.17
643.61	5.19
643.942	5.16
644.273	5.16
644.604	5.13
644.936	5.13
645.267	5.17
645.598	5.15
645.929	5.19
646.26	5.23
646.591	5.21
646.922	5.23
647.253	5.29
647.584	5.26
647.915	5.1
648.245	5.05
648.576	5.07
648.907	5.07
649.238	5.06
649.568	5.03
649.899	5.01
650.229	4.95
650.56	5.01
650.89	5
651.221	5.08
651.551	5.09
651.882	5.06
652.212	5.04
652.542	5.04
652.872	4.98
653.203	4.98
653.533	5.06
653.863	5.01
654.193	4.99
654.523	4.98
654.853	5.04
655.183	5.14
655.513	5.14
655.843	5.19
656.172	5.17
656.502	5.17
656.832	5.18
657.162	5.19
657.491	5.12
657.821	5.09
658.15	5.03
658.48	5.13
658.809	5.21
659.139	5.23
659.468	5.24
659.798	5.29
660.127	5.27
660.456	5.25
660.785	5.3
661.115	5.26
661.444	5.3
661.773	5.25
662.102	5.2
662.431	5.24
662.76	5.23
663.089	5.24
663.418	5.19
663.747	5.2
664.076	5.29
664.404	5.35
664.733	5.42
665.062	5.46
665.39	5.38
665.719	5.32
666.048	5.31
666.376	5.33
666.705	5.23
667.033	5.22
667.362	5.25
667.69	5.25
668.018	5.29
668.347	5.3
668.675	5.36
669.003	5.37
669.331	5.43
669.659	5.47
669.987	5.46
670.315	5.5
670.643	5.55
670.971	5.47
671.299	5.51
671.627	5.5
671.955	5.53
672.283	5.54
672.61	5.56
672.938	5.56
673.266	5.57
673.593	5.73
673.921	5.72
674.249	5.71
674.576	5.73
674.904	5.7
675.231	5.67
675.558	5.65
675.886	5.65
676.213	5.57
676.54	5.54
676.867	5.6
677.195	5.57
677.522	5.62
677.849	5.67
678.176	5.61
678.503	5.6
678.83	5.56
679.157	5.53
679.484	5.54
679.81	5.57
680.137	5.51
680.464	5.37
680.791	5.41
681.117	5.35
681.444	5.35
681.771	5.37
682.097	5.35
682.424	5.33
682.75	5.27
683.077	5.23
683.403	5.22
683.729	5.16
684.056	5.29
684.382	5.22
684.708	5.19
685.034	5.23
685.36	5.14
685.686	5.09
686.012	5.13
686.339	5.17
686.664	5.11
686.99	5.16
687.316	5.28
687.642	5.28
687.968	5.29
688.294	5.32
688.619	5.38
688.945	5.39
689.271	5.54
689.596	5.59
689.922	5.65
690.247	5.64
690.573	5.65
690.898	5.59
691.224	5.53
691.549	5.56
691.874	5.51
692.2	5.6
692.525	5.69
692.85	5.69
693.175	5.62
693.5	5.58
693.825	5.65
694.15	5.52
694.475	5.52
694.8	5.6
695.125	5.54
695.45	5.48
695.775	5.53
696.099	5.45
696.424	5.47
696.749	5.42
697.073	5.46
697.398	5.54
697.723	5.55
698.047	5.62
698.372	5.6
698.696	5.6
699.02	5.49
699.345	5.42
699.669	5.52
699.993	5.49
700.318	5.64
700.642	5.62
700.966	5.67
701.29	5.61
701.614	5.59
701.938	5.66
702.262	5.73
702.586	5.77
702.91	5.72
703.234	5.77
703.557	5.84
703.881	5.75
704.205	5.77
704.529	5.76
704.852	5.76
705.176	5.71
705.499	5.77
705.823	5.99
706.146	6.05
706.47	5.9
706.793	5.97
707.117	5.87
707.44	5.83
707.763	5.82
708.086	5.86
708.409	5.81
708.733	5.79
709.056	5.74
709.379	5.72
709.702	5.79
710.025	5.71
710.348	5.61
710.671	5.66
710.993	5.62
711.316	5.59
711.639	5.65
711.962	5.71
712.284	5.69
712.607	5.67
712.93	5.64
713.252	5.65
713.575	5.61
713.897	5.64
714.22	5.62
714.542	5.68
714.864	5.71
715.187	5.85
715.509	5.89
715.831	5.84
716.153	5.89
716.475	5.88
716.798	5.93
717.12	5.89
717.442	6
717.764	6.01
718.085	5.96
718.407	5.91
718.729	5.94
719.051	5.93
719.373	5.9
719.695	5.8
720.016	5.97
720.338	6.14
720.659	6.15
720.981	6.26
721.302	6.19
721.624	6.11
721.945	6.05
722.267	5.95
722.588	5.93
722.909	5.72
723.231	5.69
723.552	5.61
723.873	5.82
724.194	5.72
724.515	5.62
724.836	5.55
725.157	5.65
725.478	5.61
725.799	5.65
726.12	5.57
726.441	5.94
726.762	5.84
727.083	5.86
727.403	5.82
727.724	5.83
728.045	6.04
728.365	6.05
728.686	6.1
729.006	6.24
729.327	6.32
729.647	6.52
729.967	6.69
730.288	6.75
730.608	6.65
730.928	6.63
731.249	6.52
731.569	6.76
731.889	6.78
732.209	6.76
732.529	6.68
732.849	6.8
733.169	6.52
733.489	6.6
733.809	6.49
734.129	6.4
734.448	6.37
734.768	6.27
735.088	6.51
735.408	6.38
735.727	6.35
736.047	6.3
736.366	6.16
736.686	5.93
737.005	5.93
737.325	5.84
737.644	5.94
737.963	6.23
738.283	5.93
738.602	5.78
738.921	5.97
739.24	6.22
739.56	6.25
739.879	6.42
740.198	6.39
740.517	6.21
740.836	6.41
741.155	6.45
741.473	6.3
741.792	6.02
742.111	6.06
742.43	6.02
742.748	6.02
743.067	6.18
743.386	6.15
743.704	6.19
744.023	6.5
744.341	6.46
744.66	6.35
744.978	6.55
745.297	6.73
745.615	6.59
745.933	6.54
746.252	6.44
746.57	6.25
746.888	6.09
747.206	6.12
747.524	5.95
747.842	5.88
748.16	6.05
748.478	6.25
748.796	6.28
749.114	6.42
749.432	6.39
749.749	6.55
750.067	6.61
750.385	6.58
750.703	6.42
751.02	6.36
751.338	6.37
751.655	6.27
751.973	6.27
752.29	6.33
752.608	6.48
752.925	6.37
753.242	6.57
753.56	6.77
753.877	6.94
754.194	6.98
754.511	7.16
754.828	7.12
755.145	6.94
755.462	6.88
755.779	6.76
756.096	7.09
756.413	6.92
756.73	7.15
757.047	7.11
757.364	7.39
757.68	7.24
757.997	7.08
758.314	7
758.63	6.94
758.947	6.85
759.264	6.54
759.58	6.78
759.896	6.83
760.213	6.85
760.529	7.18
760.846	7.43
761.162	7.42
761.478	7.55
761.794	7.32
762.11	7.33
762.426	7.58
762.743	7.36
763.059	7.3
763.375	7.09
763.69	7.03
764.006	6.87
764.322	7.08
764.638	7.23
764.954	7.67
765.27	7.63
765.585	7.6
765.901	7.66
766.216	7.68
766.532	7.58
766.848	7.31
767.163	7.08
767.478	7.22
767.794	7.18
768.109	7.13
768.424	7.43
768.74	7.6
769.055	7.43
769.37	7.42
769.685	7.42
770	7.7
770.315	7.76
770.63	7.94
770.945	7.97
771.26	7.92
771.575	7.39
771.89	7.4
772.205	7.39
772.52	7.23
772.834	7.08
773.149	7.26
773.464	7.5
773.778	7.73
774.093	7.25
774.407	7.4
774.722	7.32
775.036	7.5
775.351	7.17
775.665	7.07
775.979	7.18
776.293	7.5
776.608	7.31
776.922	7.31
777.236	7.09
777.55	7.01
777.864	7.1
778.178	7.28
778.492	7.71
778.806	7.9
779.12	7.87
779.434	7.81
779.747	8.02
780.061	8.19
780.375	7.87
780.689	8.18
781.002	8
781.316	8.36
781.629	8.53
781.943	9.02
782.256	9.14
782.57	9.02
782.883	8.8
783.196	8.76
783.51	9.01
783.823	8.99
784.136	8.89
784.449	8.89
784.762	8.91
785.075	8.76
785.388	8.48
785.701	8.77
786.014	8.7
786.327	8.51
786.64	8.76
786.953	8.84
787.266	8.68
787.578	8.7
787.891	8.45
788.204	7.95
788.516	8.1
788.829	7.66
789.141	8.3
789.454	7.99
789.766	8.07
790.079	8.02
790.391	8.03
790.703	8.1
791.016	8.02
791.328	8.21
791.64	8.16
791.952	8.81
792.264	8.42
792.576	8.49
792.888	8.38
793.2	8.17
793.512	8.03
793.824	7.61
794.136	8.01
794.448	7.84
794.76	7.81
795.071	7.57
795.383	7.5
795.695	6.88
796.006	7
796.318	6.99
796.629	7.11
796.941	7.17
797.252	7.54
797.564	7.68
797.875	7.3
798.186	7.15
798.497	6.95
798.809	7.09
799.12	7.05
799.431	7.09
799.742	7.25
800.053	7.9
800.364	8.74
800.675	8.32
800.986	8.6
801.297	8.65
801.608	8.53
801.918	8.91
802.229	9.27
802.54	9.12
802.851	9.58
803.161	9.83
803.472	10.01
803.782	9.61
804.093	9.73
804.403	10.01
804.714	9.87
805.024	9.54
805.334	10.07
805.645	10.28
805.955	9.88
806.265	9.37
806.575	8.95
806.885	8.45
807.195	8.05
807.505	7.96
807.815	8.13
808.125	7.89
808.435	7.93
808.745	7.54
809.055	8.11
809.365	7.76
809.674	7.31
809.984	7.39
810.294	7.73
810.603	8.17
810.913	8.58
811.222	8.7
811.532	8.84
811.841	9.19
812.151	9.15
812.46	9.99
812.769	10.17
813.079	10.31
813.388	10.08
813.697	10.61
814.006	10.88
814.315	10.67
814.624	10.83
814.933	10.66
815.242	10.39
815.551	10.45
815.86	10.58
816.169	10.79
816.478	10.28
816.786	9.81
817.095	9.47
817.404	9.17
817.712	9.46
818.021	9.63
818.33	9.02
818.638	9.3
818.947	9.65
819.255	9.62
819.563	9.38
819.872	9.68
820.18	9.66
820.488	9.46
820.796	9.51
821.105	9.71
821.413	9.8
821.721	10.16
822.029	10.15
822.337	10.14
822.645	10.08
822.953	10.07
823.26	10.23
823.568	10.22
823.876	10.18
824.184	10.07
824.491	10.09
824.799	10.23
825.107	10.24
825.414	10.16
825.722	10.25
826.029	10.41
826.337	10.39
826.644	10.54
826.951	10.69
827.259	10.81
827.566	10.73
827.873	10.84
828.18	10.84
828.488	10.99
828.795	10.94
829.102	11.09
829.409	11.29
829.716	11.08
830.023	11.09
830.329	11
830.636	11.21
830.943	11.08
831.25	10.89
831.557	10.84
831.863	10.75
832.17	10.39
832.476	10.44
832.783	10.36
833.089	10.35
833.396	10.36
833.702	10.6
834.009	10.83
834.315	10.57
834.621	10.14
834.928	9.89
835.234	10.12
835.54	9.99
835.846	9.93
836.152	10.42
836.458	10.57
836.764	10.77
837.07	10.43
837.376	10.25
837.682	10.35
837.988	9.98
838.293	9.91
838.599	10.11
838.905	9.32
839.211	9.39
839.516	9.13
839.822	9
840.127	8.3
840.433	8.53
840.738	8.19
841.044	8.22
841.349	8.61
841.654	8.62
841.959	8.59
842.265	8.21
842.57	8.26
842.875	7.13
843.18	6.97
843.485	8.15
843.79	9.05
844.095	8.15
844.4	10.42
844.705	9.24
845.01	8.97
845.315	10.23
845.619	9.63
845.924	10.23
846.229	9.84
846.533	10.76
846.838	8.37
847.142	8.93
847.447	8.79
847.751	8.1
848.056	6.51
848.36	6.27
848.664	6.11
848.969	6.57
849.273	7.01
849.577	7.18
849.881	5.89
850.185	5.57
850.489	6.95
850.794	3.79
851.097	5.89
851.401	8.08
851.705	7.6
852.009	10.39
852.313	9.03
852.617	9.45
852.92	9.21
853.224	10.1
853.528	9.99
853.831	8.44
854.135	7.27
854.438	8.78
854.742	9.36
855.045	9.83
855.349	8.32
855.652	8.42
855.955	7.99
856.259	8.3
856.562	8.54
856.865	9.96
857.168	10.15
857.471	11.36
857.774	11.24
858.077	11.87
858.38	10.72
858.683	11.36
858.986	11.74
859.289	12.87
859.592	12.07
859.894	12.76
860.197	13.98
860.5	15.01
860.802	13.75
861.105	13.49
861.407	13.55
861.71	13.27
862.012	12.84
862.315	12.17
862.617	12.35
862.919	9.63
863.222	8.18
863.524	8.26
863.826	8.06
864.128	8.89
864.43	7.79
864.732	7.96
865.034	7.49
865.336	5.47
865.638	3.42
865.94	4.01
866.242	3.42
866.544	5.31
866.846	3.81
867.147	4.43
867.449	4.52
867.751	5.61
868.052	5.38
868.354	6.01
868.655	7.87
868.957	5.93
869.258	10.46
869.56	9.24
869.861	9.86
870.162	9.19
870.463	6.84
870.765	8.02
871.066	8.61
871.367	8.85
871.668	10.29
871.969	8.62
872.27	8.45
872.571	9.78
872.872	7.38
873.173	6.67
873.473	8.86
873.774	9.3
874.075	7.93
874.376	6.92
874.676	8.2
874.977	5.82
875.277	7.7
875.578	5.95
875.878	6.73
876.179	6.17
876.479	5.41
876.78	5.29
877.08	4.69
877.38	2.01
877.68	0.97
877.981	0.63
878.281	3.04
878.581	5.71
