Data from BA28474_Reflection_00002.txt Node
Date: Mon Nov 18 15:30:28 EST 2019
User: vgr7
Spectrometer: USB2G7710
Scans to average: 3
Trigger mode: 4
Integration Time (sec): 2.000000E-2
Electric dark correction enabled: true
Boxcar width: 10
XAxis mode: Wavelengths
Number of Pixels in Spectrum: 2048
>>>>>Begin Spectral Data<<<<<
177.721	-0.91
178.105	-22.91
178.488	-35.59
178.871	6.98
179.254	-168.66
179.636	50.38
180.019	-50.94
180.402	46.67
180.785	-3.59
181.168	-71.64
181.55	-191.46
181.933	510.81
182.316	160.8
182.698	180.28
183.081	176.4
183.463	207.88
183.846	241.26
184.228	22766.67
184.611	-687.1
184.993	-321.05
185.376	-108.5
185.758	-110.1
186.14	-88.35
186.522	-87.43
186.904	-65.57
187.287	-101.01
187.669	-52.27
188.051	-100.39
188.433	-77.5
188.815	-62.82
189.197	-71.22
189.579	3.16
189.961	17.47
190.342	18.79
190.724	28.26
191.106	28.65
191.488	-3.34
191.869	15.81
192.251	31.46
192.633	67.79
193.014	50.53
193.396	58.12
193.777	70.15
194.159	21.89
194.54	50.48
194.922	26.51
195.303	9.18
195.684	-9.68
196.065	11.04
196.447	-0.82
196.828	-10.21
197.209	-4.88
197.59	-7.82
197.971	-21.35
198.352	-18.33
198.733	-26.88
199.114	-24.17
199.495	-5
199.876	-1.27
200.257	-9.48
200.638	-2.97
201.018	-24.54
201.399	-7.92
201.78	-3.64
202.16	-5.57
202.541	-47.79
202.922	-112.42
203.302	-60.27
203.683	-41.99
204.063	-91.03
204.444	-45.72
204.824	-31.72
205.204	6.04
205.585	-15.45
205.965	44.09
206.345	14.97
206.725	8.91
207.106	-57.43
207.486	-150.63
207.866	-566.67
208.246	-177.99
208.626	-278.85
209.006	-65.77
209.386	-138.53
209.766	-147.72
210.145	-77.31
210.525	-50.16
210.905	-19.36
211.285	-20.15
211.664	-2.12
212.044	17.19
212.424	17.27
212.803	15.51
213.183	4.69
213.562	5.5
213.942	16.36
214.321	19.1
214.701	9.16
215.08	13.17
215.459	38.88
215.838	28.99
216.218	38.29
216.597	51.25
216.976	54.65
217.355	68.9
217.734	54.51
218.113	55.04
218.492	68.62
218.871	68.9
219.25	56.02
219.629	23.89
220.008	18.1
220.387	14.89
220.766	8.2
221.144	-1.99
221.523	3.7
221.902	1.42
222.28	-7.92
222.659	-4.9
223.037	0.68
223.416	-10.93
223.794	-12.4
224.173	-23.06
224.551	-17.35
224.929	-11.62
225.308	-6.35
225.686	4.23
226.064	4.39
226.442	-1.85
226.821	6.92
227.199	4.84
227.577	6.27
227.955	7.4
228.333	6.83
228.711	8.58
229.089	7.65
229.467	5.01
229.845	2.21
230.222	4.54
230.6	6.07
230.978	5.92
231.356	9.21
231.733	10.44
232.111	9.64
232.488	10.2
232.866	10.08
233.243	10.2
233.621	8.78
233.998	11.53
234.376	11.21
234.753	9.82
235.13	10.91
235.508	10.59
235.885	9.71
236.262	7.71
236.639	7.67
237.016	8.94
237.393	8.08
237.77	9.11
238.147	8.66
238.524	8.54
238.901	9.3
239.278	8.73
239.655	7.56
240.032	7.14
240.409	6.11
240.785	6.17
241.162	5.76
241.539	5.45
241.915	4.49
242.292	4.62
242.668	4.29
243.045	4.27
243.421	4.23
243.798	4.07
244.174	4.21
244.551	4.11
244.927	4.17
245.303	4.46
245.679	4.33
246.056	4.1
246.432	3.89
246.808	3.53
247.184	3.32
247.56	3.49
247.936	3.32
248.312	3.56
248.688	3.36
249.064	3.31
249.44	3.28
249.815	3.4
250.191	3.48
250.567	3.63
250.943	3.46
251.318	3.48
251.694	3.42
252.069	3.71
252.445	3.87
252.82	3.74
253.196	3.66
253.571	3.6
253.947	3.68
254.322	3.92
254.697	3.81
255.073	3.89
255.448	3.8
255.823	3.91
256.198	4.03
256.573	4.27
256.948	4.36
257.323	4.61
257.698	4.64
258.073	4.7
258.448	4.58
258.823	4.71
259.198	4.65
259.573	4.42
259.948	4.23
260.322	4.4
260.697	4.46
261.072	4.33
261.446	4.33
261.821	4.5
262.195	4.5
262.57	4.8
262.944	4.76
263.319	4.84
263.693	4.75
264.067	4.66
264.442	4.67
264.816	4.48
265.19	4.35
265.564	4.28
265.938	4.11
266.313	4.06
266.687	3.82
267.061	3.78
267.435	4.21
267.809	4.25
268.183	4.08
268.556	4.08
268.93	4.36
269.304	4.44
269.678	4.41
270.051	4.32
270.425	4.11
270.799	4.11
271.172	4.09
271.546	4.08
271.919	4.07
272.293	3.99
272.666	4.08
273.04	4.14
273.413	4.17
273.787	4.24
274.16	4.24
274.533	4.48
274.906	4.6
275.279	4.48
275.653	4.57
276.026	4.42
276.399	4.33
276.772	4.27
277.145	4.19
277.518	4.07
277.891	4.32
278.263	4.17
278.636	4.2
279.009	4.35
279.382	4.5
279.755	4.35
280.127	4.51
280.5	4.75
280.872	4.89
281.245	4.76
281.617	4.98
281.99	5.19
282.362	5.21
282.735	5.06
283.107	5.06
283.479	4.99
283.852	5.05
284.224	4.95
284.596	5.01
284.968	5.08
285.34	5.19
285.713	5.08
286.085	5.28
286.457	5.29
286.829	5.18
287.201	5.17
287.572	5.36
287.944	5.27
288.316	5.15
288.688	4.97
289.06	5.02
289.431	4.88
289.803	4.85
290.175	4.86
290.546	5.02
290.918	4.99
291.289	5.05
291.661	5.16
292.032	5.29
292.403	5.27
292.775	5.26
293.146	5.09
293.517	5.04
293.889	4.9
294.26	4.89
294.631	4.9
295.002	4.9
295.373	4.79
295.744	4.7
296.115	4.78
296.486	4.7
296.857	4.64
297.228	4.66
297.599	4.46
297.97	4.44
298.34	4.51
298.711	4.52
299.082	4.43
299.452	4.3
299.823	4.33
300.194	4.36
300.564	4.34
300.935	4.51
301.305	4.4
301.676	4.51
302.046	4.45
302.416	4.52
302.787	4.55
303.157	4.52
303.527	4.57
303.897	4.52
304.267	4.69
304.637	4.89
305.008	4.93
305.378	5.1
305.748	5.13
306.117	4.92
306.487	4.99
306.857	5.05
307.227	5.09
307.597	5.05
307.967	4.99
308.336	4.86
308.706	4.66
309.076	4.76
309.445	4.72
309.815	4.72
310.184	4.63
310.554	4.51
310.923	4.51
311.293	4.38
311.662	4.41
312.031	4.44
312.401	4.32
312.77	4.29
313.139	4.22
313.508	4.13
313.877	4.15
314.246	4.1
314.616	4.11
314.985	4.03
315.353	3.97
315.722	3.95
316.091	3.93
316.46	3.97
316.829	3.96
317.198	3.94
317.567	3.97
317.935	3.87
318.304	3.94
318.672	3.89
319.041	4.04
319.41	3.99
319.778	3.81
320.147	3.88
320.515	3.95
320.883	4.01
321.252	4.16
321.62	4.33
321.988	4.4
322.357	4.27
322.725	4.39
323.093	4.37
323.461	4.27
323.829	4.39
324.197	4.58
324.565	4.53
324.933	4.58
325.301	4.61
325.669	4.76
326.037	4.82
326.405	4.8
326.772	4.91
327.14	4.99
327.508	4.98
327.875	4.9
328.243	4.91
328.61	4.81
328.978	4.76
329.346	4.63
329.713	4.62
330.08	4.63
330.448	4.63
330.815	4.59
331.182	4.54
331.55	4.6
331.917	4.48
332.284	4.53
332.651	4.54
333.018	4.51
333.385	4.53
333.752	4.48
334.119	4.54
334.486	4.42
334.853	4.33
335.22	4.3
335.587	4.4
335.954	4.32
336.32	4.34
336.687	4.42
337.054	4.31
337.42	4.29
337.787	4.38
338.153	4.29
338.52	4.37
338.886	4.26
339.253	4.18
339.619	4.22
339.986	4.09
340.352	4.09
340.718	4.06
341.084	3.96
341.451	4.03
341.817	4.07
342.183	4.08
342.549	4.11
342.915	4.17
343.281	4.09
343.647	4.01
344.013	3.99
344.379	3.85
344.745	4.03
345.11	4.06
345.476	4.02
345.842	4.05
346.208	4.04
346.573	4.29
346.939	4.29
347.304	4.18
347.67	4.18
348.035	4.07
348.401	4.01
348.766	4.06
349.132	3.98
349.497	3.93
349.862	4.03
350.228	4.06
350.593	4.05
350.958	4.02
351.323	4.11
351.688	4.13
352.053	4.17
352.418	4.14
352.783	4.13
353.148	4.09
353.513	4.08
353.878	4.06
354.243	4
354.608	4.04
354.972	4.04
355.337	4.13
355.702	4.22
356.066	4.29
356.431	4.22
356.795	4.28
357.16	4.25
357.524	4.2
357.889	4.14
358.253	4.2
358.618	4.24
358.982	4.2
359.346	4.18
359.71	4.11
360.075	4.11
360.439	4.11
360.803	4.08
361.167	4.07
361.531	4.07
361.895	4.11
362.259	4.08
362.623	4.09
362.987	4.14
363.351	4.1
363.714	4.05
364.078	4.1
364.442	4.07
364.806	4.06
365.169	4.02
365.533	4.05
365.896	3.96
366.26	3.91
366.623	3.93
366.987	3.89
367.35	3.97
367.714	3.97
368.077	3.87
368.44	4
368.803	4.04
369.167	3.98
369.53	3.9
369.893	3.9
370.256	3.9
370.619	3.81
370.982	3.81
371.345	3.83
371.708	3.83
372.071	3.78
372.434	3.85
372.797	3.91
373.159	3.86
373.522	3.96
373.885	4
374.247	3.96
374.61	4.07
374.973	4.04
375.335	4.06
375.698	4.17
376.06	4.08
376.423	4.06
376.785	4.08
377.147	4.14
377.51	4.09
377.872	4.13
378.234	4.18
378.596	4.18
378.958	4.17
379.321	4.19
379.683	4.22
380.045	4.19
380.407	4.13
380.769	4.15
381.13	4.14
381.492	4.15
381.854	4.2
382.216	4.14
382.578	4.1
382.939	4
383.301	3.92
383.663	3.93
384.024	3.91
384.386	3.94
384.747	3.96
385.109	3.96
385.47	3.95
385.832	3.92
386.193	3.91
386.554	3.94
386.916	3.92
387.277	3.94
387.638	3.96
387.999	3.98
388.36	3.96
388.721	3.94
389.082	3.95
389.443	3.91
389.804	3.9
390.165	3.94
390.526	3.96
390.887	4.03
391.248	4.07
391.609	4.04
391.969	4.03
392.33	4.01
392.691	4.07
393.051	4.03
393.412	4.07
393.772	4.06
394.133	4.07
394.493	4.05
394.854	4.01
395.214	4
395.574	4.03
395.935	4.04
396.295	4.05
396.655	4.01
397.015	4.03
397.376	4.03
397.736	4.04
398.096	4.04
398.456	3.99
398.816	3.96
399.176	4
399.535	3.98
399.895	3.98
400.255	3.95
400.615	3.99
400.975	3.98
401.334	3.99
401.694	3.97
402.054	4
402.413	4.04
402.773	4.04
403.132	4.04
403.492	4.01
403.851	4.01
404.211	4.02
404.57	4.01
404.929	4.02
405.288	4.03
405.648	4.04
406.007	4.04
406.366	4.05
406.725	4.1
407.084	4.14
407.443	4.14
407.802	4.15
408.161	4.14
408.52	4.11
408.879	4.09
409.238	4.11
409.596	4.1
409.955	4.08
410.314	4.08
410.673	4.04
411.031	4.03
411.39	4.03
411.748	4.07
412.107	4.07
412.465	4.07
412.824	4.08
413.182	4.09
413.54	4.09
413.899	4.11
414.257	4.07
414.615	4.07
414.974	4.06
415.332	4.04
415.69	4.01
416.048	4.02
416.406	4.04
416.764	4.03
417.122	4.04
417.48	4.02
417.838	4.02
418.195	4.03
418.553	4.05
418.911	4.03
419.269	4.02
419.626	4.03
419.984	4.03
420.342	4.02
420.699	3.99
421.057	4
421.414	3.99
421.772	3.98
422.129	3.97
422.486	3.96
422.844	3.96
423.201	3.98
423.558	3.97
423.915	3.99
424.273	3.99
424.63	3.97
424.987	3.99
425.344	3.99
425.701	3.99
426.058	4
426.415	4.01
426.772	4.01
427.128	4
427.485	4.01
427.842	4
428.199	4.02
428.555	4.03
428.912	4.05
429.269	4.06
429.625	4.04
429.982	4.05
430.338	4.05
430.695	4.07
431.051	4.09
431.407	4.08
431.764	4.07
432.12	4.07
432.476	4.09
432.832	4.09
433.189	4.07
433.545	4.06
433.901	4.06
434.257	4.05
434.613	4.06
434.969	4.04
435.325	4.07
435.681	4.07
436.036	4.07
436.392	4.04
436.748	4.04
437.104	4.05
437.459	4.05
437.815	4.04
438.171	4.01
438.526	4
438.882	4
439.237	4.01
439.593	4.03
439.948	4.01
440.304	4.01
440.659	4.04
441.014	4.05
441.369	4.03
441.725	4.04
442.08	4.03
442.435	4.05
442.79	4.03
443.145	4.03
443.5	4.03
443.855	4.03
444.21	4.05
444.565	4.06
444.92	4.08
445.275	4.08
445.629	4.08
445.984	4.06
446.339	4.04
446.693	4.03
447.048	4.01
447.403	4.01
447.757	4.01
448.112	3.99
448.466	3.98
448.82	4
449.175	4
449.529	4
449.883	3.98
450.238	3.97
450.592	3.97
450.946	3.96
451.3	3.96
451.654	3.94
452.008	3.93
452.362	3.91
452.716	3.92
453.07	3.93
453.424	3.95
453.778	3.97
454.132	3.95
454.486	3.97
454.839	3.98
455.193	3.98
455.547	3.97
455.9	3.99
456.254	3.98
456.607	3.99
456.961	3.97
457.314	3.96
457.668	3.97
458.021	3.96
458.375	3.95
458.728	3.96
459.081	3.96
459.434	3.94
459.787	3.94
460.141	3.93
460.494	3.95
460.847	3.95
461.2	3.93
461.553	3.94
461.906	3.92
462.259	3.93
462.611	3.95
462.964	3.95
463.317	3.94
463.67	3.95
464.022	3.94
464.375	3.96
464.728	3.96
465.08	3.96
465.433	3.99
465.785	3.99
466.138	3.99
466.49	3.99
466.843	4.01
467.195	4.04
467.547	4.05
467.899	4.04
468.252	4.05
468.604	4.08
468.956	4.08
469.308	4.09
469.66	4.08
470.012	4.08
470.364	4.07
470.716	4.08
471.068	4.09
471.42	4.1
471.772	4.12
472.123	4.14
472.475	4.17
472.827	4.16
473.178	4.18
473.53	4.19
473.882	4.21
474.233	4.18
474.585	4.16
474.936	4.15
475.288	4.15
475.639	4.16
475.99	4.16
476.342	4.17
476.693	4.18
477.044	4.2
477.395	4.2
477.746	4.22
478.097	4.21
478.448	4.19
478.8	4.17
479.15	4.14
479.501	4.14
479.852	4.14
480.203	4.14
480.554	4.14
480.905	4.15
481.255	4.15
481.606	4.16
481.957	4.16
482.307	4.17
482.658	4.17
483.009	4.16
483.359	4.16
483.709	4.16
484.06	4.16
484.41	4.17
484.761	4.17
485.111	4.17
485.461	4.17
485.811	4.16
486.162	4.16
486.512	4.17
486.862	4.18
487.212	4.18
487.562	4.18
487.912	4.17
488.262	4.18
488.612	4.18
488.961	4.19
489.311	4.19
489.661	4.19
490.011	4.2
490.36	4.21
490.71	4.22
491.06	4.21
491.409	4.21
491.759	4.2
492.108	4.19
492.458	4.2
492.807	4.2
493.157	4.22
493.506	4.22
493.855	4.22
494.204	4.19
494.554	4.2
494.903	4.19
495.252	4.21
495.601	4.2
495.95	4.2
496.299	4.18
496.648	4.18
496.997	4.18
497.346	4.19
497.695	4.21
498.043	4.21
498.392	4.22
498.741	4.22
499.09	4.21
499.438	4.22
499.787	4.24
500.135	4.23
500.484	4.23
500.832	4.26
501.181	4.28
501.529	4.31
501.878	4.31
502.226	4.32
502.574	4.31
502.923	4.3
503.271	4.31
503.619	4.34
503.967	4.34
504.315	4.35
504.663	4.34
505.011	4.31
505.359	4.31
505.707	4.32
506.055	4.32
506.403	4.34
506.751	4.31
507.098	4.31
507.446	4.32
507.794	4.32
508.141	4.29
508.489	4.26
508.837	4.27
509.184	4.26
509.531	4.26
509.879	4.28
510.226	4.27
510.574	4.25
510.921	4.21
511.268	4.21
511.616	4.2
511.963	4.2
512.31	4.21
512.657	4.24
513.004	4.24
513.351	4.27
513.698	4.26
514.045	4.29
514.392	4.28
514.739	4.29
515.086	4.31
515.432	4.32
515.779	4.34
516.126	4.33
516.473	4.35
516.819	4.37
517.166	4.36
517.512	4.36
517.859	4.37
518.205	4.4
518.552	4.4
518.898	4.4
519.245	4.39
519.591	4.38
519.937	4.34
520.283	4.33
520.629	4.31
520.976	4.34
521.322	4.34
521.668	4.36
522.014	4.37
522.36	4.36
522.706	4.36
523.052	4.38
523.398	4.4
523.743	4.39
524.089	4.38
524.435	4.4
524.781	4.42
525.126	4.44
525.472	4.46
525.817	4.48
526.163	4.48
526.509	4.49
526.854	4.5
527.199	4.52
527.545	4.52
527.89	4.52
528.235	4.51
528.581	4.51
528.926	4.5
529.271	4.51
529.616	4.5
529.961	4.51
530.306	4.51
530.651	4.5
530.996	4.51
531.341	4.5
531.686	4.51
532.031	4.51
532.376	4.52
532.721	4.53
533.065	4.52
533.41	4.54
533.755	4.53
534.099	4.55
534.444	4.55
534.788	4.56
535.133	4.56
535.477	4.58
535.822	4.59
536.166	4.59
536.51	4.58
536.855	4.6
537.199	4.59
537.543	4.6
537.887	4.61
538.231	4.61
538.576	4.63
538.92	4.62
539.264	4.61
539.608	4.61
539.951	4.6
540.295	4.59
540.639	4.59
540.983	4.6
541.327	4.61
541.671	4.6
542.014	4.6
542.358	4.6
542.701	4.6
543.045	4.62
543.389	4.62
543.732	4.62
544.075	4.63
544.419	4.63
544.762	4.63
545.105	4.64
545.449	4.65
545.792	4.64
546.135	4.66
546.478	4.65
546.821	4.66
547.165	4.67
547.508	4.68
547.851	4.68
548.194	4.67
548.536	4.67
548.879	4.67
549.222	4.67
549.565	4.67
549.908	4.67
550.25	4.63
550.593	4.63
550.936	4.63
551.278	4.64
551.621	4.63
551.963	4.62
552.306	4.61
552.648	4.6
552.991	4.62
553.333	4.64
553.675	4.64
554.017	4.63
554.36	4.64
554.702	4.65
555.044	4.64
555.386	4.64
555.728	4.64
556.07	4.64
556.412	4.65
556.754	4.62
557.096	4.61
557.438	4.63
557.78	4.65
558.121	4.68
558.463	4.69
558.805	4.69
559.147	4.69
559.488	4.7
559.83	4.72
560.171	4.72
560.513	4.69
560.854	4.71
561.196	4.72
561.537	4.74
561.878	4.71
562.22	4.71
562.561	4.72
562.902	4.72
563.243	4.73
563.584	4.76
563.925	4.8
564.266	4.81
564.607	4.81
564.948	4.83
565.289	4.84
565.63	4.81
565.971	4.81
566.312	4.86
566.653	4.82
566.993	4.82
567.334	4.82
567.675	4.82
568.015	4.82
568.356	4.8
568.696	4.8
569.037	4.8
569.377	4.81
569.718	4.82
570.058	4.83
570.398	4.82
570.739	4.83
571.079	4.84
571.419	4.85
571.759	4.89
572.099	4.87
572.439	4.86
572.779	4.87
573.119	4.87
573.459	4.86
573.799	4.89
574.139	4.87
574.479	4.86
574.819	4.87
575.158	4.87
575.498	4.91
575.838	4.9
576.177	4.89
576.517	4.92
576.856	4.9
577.196	4.89
577.535	4.88
577.875	4.87
578.214	4.83
578.553	4.81
578.893	4.78
579.232	4.76
579.571	4.74
579.91	4.75
580.25	4.74
580.589	4.75
580.928	4.72
581.267	4.74
581.606	4.72
581.945	4.71
582.283	4.68
582.622	4.63
582.961	4.67
583.3	4.74
583.639	4.74
583.977	4.71
584.316	4.73
584.654	4.75
584.993	4.76
585.332	4.79
585.67	4.81
586.008	4.8
586.347	4.81
586.685	4.79
587.024	4.8
587.362	4.83
587.7	4.84
588.038	4.88
588.376	4.9
588.715	4.93
589.053	4.96
589.391	5.02
589.729	5.04
590.067	5
590.404	4.98
590.742	4.96
591.08	4.99
591.418	4.96
591.756	4.96
592.093	4.95
592.431	4.94
592.769	4.94
593.106	4.96
593.444	4.97
593.781	5.01
594.119	5.03
594.456	5.02
594.793	5.02
595.131	5.02
595.468	5.05
595.805	5.06
596.143	5.02
596.48	5
596.817	5.01
597.154	5.02
597.491	5.04
597.828	5.04
598.165	5.04
598.502	5.1
598.839	5.12
599.176	5.13
599.512	5.13
599.849	5.16
600.186	5.18
600.523	5.21
600.859	5.26
601.196	5.25
601.532	5.23
601.869	5.18
602.205	5.19
602.542	5.18
602.878	5.18
603.215	5.19
603.551	5.21
603.887	5.2
604.223	5.2
604.56	5.19
604.896	5.18
605.232	5.21
605.568	5.18
605.904	5.14
606.24	5.14
606.576	5.14
606.912	5.12
607.248	5.11
607.583	5.11
607.919	5.05
608.255	5.03
608.591	5.06
608.926	5.13
609.262	5.17
609.597	5.16
609.933	5.13
610.268	5.13
610.604	5.13
610.939	5.11
611.275	5.12
611.61	5.11
611.945	5.14
612.281	5.14
612.616	5.12
612.951	5.14
613.286	5.13
613.621	5.14
613.956	5.18
614.291	5.19
614.626	5.17
614.961	5.14
615.296	5.17
615.631	5.19
615.966	5.2
616.3	5.15
616.635	5.11
616.97	5.17
617.304	5.2
617.639	5.23
617.973	5.24
618.308	5.26
618.642	5.24
618.977	5.22
619.311	5.25
619.646	5.31
619.98	5.35
620.314	5.37
620.648	5.4
620.983	5.38
621.317	5.39
621.651	5.43
621.985	5.48
622.319	5.5
622.653	5.48
622.987	5.49
623.321	5.5
623.655	5.51
623.988	5.51
624.322	5.5
624.656	5.46
624.99	5.46
625.323	5.44
625.657	5.46
625.99	5.49
626.324	5.48
626.657	5.43
626.991	5.38
627.324	5.43
627.658	5.4
627.991	5.38
628.324	5.37
628.657	5.33
628.991	5.31
629.324	5.25
629.657	5.25
629.99	5.22
630.323	5.24
630.656	5.23
630.989	5.25
631.322	5.25
631.655	5.25
631.987	5.26
632.32	5.26
632.653	5.28
632.986	5.22
633.318	5.21
633.651	5.27
633.984	5.27
634.316	5.19
634.649	5.19
634.981	5.17
635.313	5.18
635.646	5.17
635.978	5.2
636.31	5.26
636.643	5.27
636.975	5.24
637.307	5.25
637.639	5.31
637.971	5.26
638.303	5.24
638.635	5.23
638.967	5.25
639.299	5.27
639.631	5.18
639.963	5.23
640.295	5.22
640.626	5.22
640.958	5.3
641.29	5.4
641.621	5.42
641.953	5.46
642.285	5.46
642.616	5.52
642.948	5.51
643.279	5.49
643.61	5.5
643.942	5.53
644.273	5.54
644.604	5.52
644.936	5.54
645.267	5.6
645.598	5.6
645.929	5.61
646.26	5.66
646.591	5.68
646.922	5.67
647.253	5.69
647.584	5.7
647.915	5.64
648.245	5.56
648.576	5.63
648.907	5.63
649.238	5.61
649.568	5.61
649.899	5.65
650.229	5.73
650.56	5.78
650.89	5.82
651.221	5.78
651.551	5.77
651.882	5.79
652.212	5.79
652.542	5.8
652.872	5.76
653.203	5.74
653.533	5.72
653.863	5.7
654.193	5.7
654.523	5.7
654.853	5.77
655.183	5.79
655.513	5.75
655.843	5.77
656.172	5.71
656.502	5.7
656.832	5.67
657.162	5.63
657.491	5.53
657.821	5.46
658.15	5.51
658.48	5.47
658.809	5.51
659.139	5.5
659.468	5.45
659.798	5.48
660.127	5.47
660.456	5.54
660.785	5.61
661.115	5.56
661.444	5.6
661.773	5.5
662.102	5.45
662.431	5.44
662.76	5.39
663.089	5.48
663.418	5.43
663.747	5.45
664.076	5.43
664.404	5.47
664.733	5.53
665.062	5.49
665.39	5.5
665.719	5.46
666.048	5.5
666.376	5.59
666.705	5.56
667.033	5.6
667.362	5.59
667.69	5.56
668.018	5.57
668.347	5.53
668.675	5.61
669.003	5.68
669.331	5.74
669.659	5.76
669.987	5.68
670.315	5.72
670.643	5.69
670.971	5.71
671.299	5.7
671.627	5.65
671.955	5.64
672.283	5.66
672.61	5.72
672.938	5.72
673.266	5.77
673.593	5.84
673.921	5.77
674.249	5.76
674.576	5.72
674.904	5.75
675.231	5.74
675.558	5.78
675.886	5.76
676.213	5.67
676.54	5.68
676.867	5.74
677.195	5.83
677.522	5.82
677.849	5.89
678.176	5.91
678.503	5.89
678.83	5.95
679.157	5.94
679.484	5.9
679.81	5.93
680.137	5.85
680.464	5.82
680.791	5.89
681.117	5.95
681.444	5.97
681.771	5.99
682.097	5.98
682.424	5.93
682.75	5.99
683.077	6
683.403	5.99
683.729	6.03
684.056	5.99
684.382	6.04
684.708	5.93
685.034	5.93
685.36	5.95
685.686	5.91
686.012	5.96
686.339	5.98
686.664	5.89
686.99	5.99
687.316	5.97
687.642	5.98
687.968	5.95
688.294	6.03
688.619	6.02
688.945	6.08
689.271	6.12
689.596	6.02
689.922	6.1
690.247	6.18
690.573	6.13
690.898	6.15
691.224	6.18
691.549	6.28
691.874	6.33
692.2	6.43
692.525	6.51
692.85	6.51
693.175	6.56
693.5	6.51
693.825	6.44
694.15	6.48
694.475	6.4
694.8	6.45
695.125	6.4
695.45	6.37
695.775	6.34
696.099	6.3
696.424	6.4
696.749	6.39
697.073	6.35
697.398	6.42
697.723	6.46
698.047	6.43
698.372	6.4
698.696	6.42
699.02	6.43
699.345	6.35
699.669	6.4
699.993	6.36
700.318	6.49
700.642	6.49
700.966	6.4
701.29	6.5
701.614	6.49
701.938	6.57
702.262	6.74
702.586	6.75
702.91	6.78
703.234	6.79
703.557	6.86
703.881	6.96
704.205	6.87
704.529	6.83
704.852	6.86
705.176	6.86
705.499	6.78
705.823	6.79
706.146	6.86
706.47	6.92
706.793	6.96
707.117	6.84
707.44	6.96
707.763	7.09
708.086	6.85
708.409	6.82
708.733	6.7
709.056	6.55
709.379	6.62
709.702	6.64
710.025	6.52
710.348	6.39
710.671	6.34
710.993	6.58
711.316	6.69
711.639	6.67
711.962	6.83
712.284	6.91
712.607	6.96
712.93	7
713.252	6.87
713.575	6.86
713.897	6.94
714.22	6.85
714.542	6.75
714.864	6.98
715.187	7.05
715.509	7.14
715.831	7.2
716.153	7.14
716.475	7.2
716.798	7.33
717.12	7.3
717.442	7.33
717.764	7.25
718.085	7.1
718.407	7.12
718.729	7.11
719.051	7.14
719.373	6.98
719.695	6.79
720.016	6.8
720.338	6.93
720.659	6.93
720.981	6.93
721.302	7.12
721.624	7.14
721.945	7.07
722.267	7.09
722.588	6.99
722.909	6.97
723.231	7
723.552	7.03
723.873	7.27
724.194	7.16
724.515	7.04
724.836	7.1
725.157	7.09
725.478	6.81
725.799	6.73
726.12	6.72
726.441	6.94
726.762	7.05
727.083	6.83
727.403	6.85
727.724	7.05
728.045	7.06
728.365	7.03
728.686	6.99
729.006	7
729.327	6.88
729.647	7.07
729.967	6.93
730.288	6.9
730.608	6.77
730.928	6.69
731.249	6.69
731.569	6.83
731.889	6.83
732.209	6.93
732.529	6.95
732.849	6.98
733.169	7.08
733.489	7.09
733.809	7.07
734.129	6.94
734.448	6.99
734.768	6.98
735.088	7.03
735.408	7.23
735.727	7.14
736.047	7.33
736.366	7.15
736.686	7.3
737.005	7.5
737.325	7.65
737.644	7.67
737.963	7.76
738.283	7.49
738.602	7.68
738.921	7.75
739.24	7.82
739.56	7.86
739.879	7.8
740.198	7.7
740.517	7.68
740.836	7.8
741.155	7.45
741.473	7.43
741.792	7.55
742.111	7.45
742.43	7.48
742.748	7.68
743.067	7.86
743.386	8.02
743.704	7.94
744.023	7.95
744.341	8.05
744.66	8.07
744.978	8.09
745.297	8
745.615	8.21
745.933	8.13
746.252	8.27
746.57	8.27
746.888	8.48
747.206	8.68
747.524	8.54
747.842	8.38
748.16	8.38
748.478	8.37
748.796	8.36
749.114	8.67
749.432	8.48
749.749	8.53
750.067	8.22
750.385	8
750.703	7.99
751.02	8.03
751.338	7.93
751.655	8.16
751.973	8.21
752.29	7.98
752.608	7.91
752.925	7.77
753.242	7.73
753.56	7.43
753.877	7.37
754.194	7.55
754.511	8.01
754.828	7.9
755.145	7.6
755.462	7.5
755.779	7.34
756.096	7.49
756.413	7.41
756.73	7.62
757.047	7.75
757.364	7.64
757.68	7.72
757.997	7.73
758.314	7.5
758.63	7.39
758.947	7.3
759.264	7.3
759.58	7.36
759.896	7.4
760.213	7.59
760.529	7.65
760.846	7.77
761.162	7.76
761.478	7.81
761.794	7.84
762.11	7.91
762.426	8.13
762.743	7.96
763.059	7.92
763.375	7.96
763.69	7.99
764.006	8.06
764.322	8.09
764.638	8.15
764.954	8.35
765.27	8.4
765.585	8.54
765.901	8.57
766.216	8.74
766.532	8.59
766.848	8.53
767.163	8.63
767.478	8.47
767.794	8.49
768.109	8.54
768.424	8.58
768.74	8.47
769.055	8.41
769.37	8.64
769.685	8.5
770	8.6
770.315	8.47
770.63	8.5
770.945	8.6
771.26	8.8
771.575	8.71
771.89	8.83
772.205	8.77
772.52	9.01
772.834	8.94
773.149	9.09
773.464	9.13
773.778	8.93
774.093	8.96
774.407	8.98
774.722	9.19
775.036	9.35
775.351	9.63
775.665	9.41
775.979	9.43
776.293	9.63
776.608	9.26
776.922	9.28
777.236	9.27
777.55	9.12
777.864	8.96
778.178	9.2
778.492	9.36
778.806	9.21
779.12	9.28
779.434	9.25
779.747	9.38
780.061	9.55
780.375	9.52
780.689	9.22
781.002	9.04
781.316	9.14
781.629	9.15
781.943	8.87
782.256	9.29
782.57	9.17
782.883	9.25
783.196	9.54
783.51	9.54
783.823	9.5
784.136	9.42
784.449	9.27
784.762	9.21
785.075	8.95
785.388	8.81
785.701	8.81
786.014	8.24
786.327	8.08
786.64	8.19
786.953	8.87
787.266	9.15
787.578	9.23
787.891	8.92
788.204	8.87
788.516	9.2
788.829	9.03
789.141	8.93
789.454	9.08
789.766	9.06
790.079	8.94
790.391	8.64
790.703	8.76
791.016	9.12
791.328	9.44
791.64	9.43
791.952	9.63
792.264	9.14
792.576	9.81
792.888	10.12
793.2	10.22
793.512	9.66
793.824	10.14
794.136	10.24
794.448	10.38
794.76	9.94
795.071	10.19
795.383	9.7
795.695	9.82
796.006	9.65
796.318	9.54
796.629	9.79
796.941	10.39
797.252	10.79
797.564	10.79
797.875	10.26
798.186	10.06
798.497	10.18
798.809	10.85
799.12	10.55
799.431	10.5
799.742	10.28
800.053	10.47
800.364	10.35
800.675	10.36
800.986	10.32
801.297	11.12
801.608	10.9
801.918	10.79
802.229	10.84
802.54	10.77
802.851	10.96
803.161	11.31
803.472	11.2
803.782	11.93
804.093	11.96
804.403	12.16
804.714	12.59
805.024	13.1
805.334	13.12
805.645	13.37
805.955	13.4
806.265	13.81
806.575	14.03
806.885	13.94
807.195	13.94
807.505	14.2
807.815	13.49
808.125	13.33
808.435	13.92
808.745	14.13
809.055	14.94
809.365	15.08
809.674	15.17
809.984	14.9
810.294	13.53
810.603	14.15
810.913	14.78
811.222	14.72
811.532	14.55
811.841	14.99
812.151	15.61
812.46	15.33
812.769	15.07
813.079	15.36
813.388	15.2
813.697	14.97
814.006	14.59
814.315	15.44
814.624	15.5
814.933	15.32
815.242	14.86
815.551	14.58
815.86	14.39
816.169	13.97
816.478	13.42
816.786	13.74
817.095	13.06
817.404	12.49
817.712	12.21
818.021	11.57
818.33	10.56
818.638	9.83
818.947	10.33
819.255	10.45
819.563	10.08
819.872	10.32
820.18	10.69
820.488	10.75
820.796	10.74
821.105	10.51
821.413	10.47
821.721	10.5
822.029	10.4
822.337	10.29
822.645	10.29
822.953	10.47
823.26	10.41
823.568	10.3
823.876	10.33
824.184	10.35
824.491	10.51
824.799	10.7
825.107	10.86
825.414	10.82
825.722	10.84
826.029	11.07
826.337	11.05
826.644	10.9
826.951	10.86
827.259	10.67
827.566	10.83
827.873	10.85
828.18	10.89
828.488	10.95
828.795	11.09
829.102	11.28
829.409	11.28
829.716	11.22
830.023	11.38
830.329	11.37
830.636	11.44
830.943	11.45
831.25	11.23
831.557	10.82
831.863	10.75
832.17	10.47
832.476	10.21
832.783	10.27
833.089	10.17
833.396	10.65
833.702	10.84
834.009	10.9
834.315	10.81
834.621	11.09
834.928	11.14
835.234	10.91
835.54	10.63
835.846	10.36
836.152	10.45
836.458	10.55
836.764	10.64
837.07	10.61
837.376	10.24
837.682	10.26
837.988	10.43
838.293	10.04
838.599	10.59
838.905	10.07
839.211	10.15
839.516	10.6
839.822	10.75
840.127	10.3
840.433	9.84
840.738	9.85
841.044	9.29
841.349	8.9
841.654	9.49
841.959	9.97
842.265	10.77
842.57	11.46
842.875	11.33
843.18	10.56
843.485	11.75
843.79	12.58
844.095	12.72
844.4	13.97
844.705	13.96
845.01	13.66
845.315	14.25
845.619	12.8
845.924	12.67
846.229	11.34
846.533	12.5
846.838	12.7
847.142	13.27
847.447	12.17
847.751	11.49
848.056	10.02
848.36	10.15
848.664	9.41
848.969	8.7
849.273	7.68
849.577	8.17
849.881	7.44
850.185	8.44
850.489	9.42
850.794	8.13
851.097	10.35
851.401	9.2
851.705	10.28
852.009	12.43
852.313	12.05
852.617	12.09
852.92	12.04
853.224	12.77
853.528	13.72
853.831	17.88
854.135	19.08
854.438	20.07
854.742	18.87
855.045	19.47
855.349	19.57
855.652	20.64
855.955	21.99
856.259	19.81
856.562	19.4
856.865	20.15
857.168	18.88
857.471	18.81
857.774	20.28
858.077	19.07
858.38	19.96
858.683	20.77
858.986	21.28
859.289	23.31
859.592	23.92
859.894	21.97
860.197	20.19
860.5	22.35
860.802	22.35
861.105	23.01
861.407	22.3
861.71	23.82
862.012	22.84
862.315	20.15
862.617	19.35
862.919	17.94
863.222	17.61
863.524	17.78
863.826	16.16
864.128	15.46
864.43	14.79
864.732	14.59
865.034	14.81
865.336	15.02
865.638	11.78
865.94	12.5
866.242	13.54
866.544	11.77
866.846	9.19
867.147	11.14
867.449	12.27
867.751	13.8
868.052	13.54
868.354	14.48
868.655	16.76
868.957	19.91
869.258	18.82
869.56	17.17
869.861	16.42
870.162	17.83
870.463	19.45
870.765	20.82
871.066	21.13
871.367	21.38
871.668	20.92
871.969	21.3
872.27	18.25
872.571	19.13
872.872	20.89
873.173	20.59
873.473	19.44
873.774	20.61
874.075	20.75
874.376	20.96
874.676	19.65
874.977	17.54
875.277	16.29
875.578	16.4
875.878	16.52
876.179	18.1
876.479	17.6
876.78	15.65
877.08	15.84
877.38	14.19
877.68	12.62
877.981	12.47
878.281	14.21
878.581	17.17
