Data from BA28524_Reflection_00001.txt Node
Date: Tue Nov 19 11:49:33 EST 2019
User: vgr7
Spectrometer: USB2G7710
Scans to average: 3
Trigger mode: 4
Integration Time (sec): 2.000000E-2
Electric dark correction enabled: true
Boxcar width: 10
XAxis mode: Wavelengths
Number of Pixels in Spectrum: 2048
>>>>>Begin Spectral Data<<<<<
177.721	-320.19
178.105	303.7
178.488	-229.93
178.871	3133.33
179.254	822.22
179.636	3219.05
180.019	106.89
180.402	141.18
180.785	-26.67
181.168	-395.61
181.55	-123
181.933	31.24
182.316	-31.91
182.698	-79.79
183.081	-53.8
183.463	-20.87
183.846	-70.91
184.228	-267.58
184.611	-139.93
184.993	-229.63
185.376	-202.26
185.758	-884.85
186.14	-1066.67
186.522	-3177.78
186.904	4466.67
187.287	455.35
187.669	241.27
188.051	56.03
188.433	8.52
188.815	-16.75
189.197	-116.25
189.579	-188.78
189.961	-76.41
190.342	-55.22
190.724	-90.8
191.106	-48.86
191.488	-83.88
191.869	-36.49
192.251	-70.86
192.633	-41.54
193.014	15.07
193.396	-5.31
193.777	73.83
194.159	87.76
194.54	63.36
194.922	-53.21
195.303	-106.67
195.684	-182.37
196.065	-136.69
196.447	-322.48
196.828	-159.69
197.209	-30.7
197.59	33.6
197.971	113.66
198.352	62.46
198.733	-19.05
199.114	-46.26
199.495	10.26
199.876	-258.76
200.257	-296.71
200.638	-545.3
201.018	2403.92
201.399	-493.9
201.78	-238.45
202.16	-342.53
202.541	-263.56
202.922	-741.09
203.302	518.7
203.683	-1044.44
204.063	777.78
204.444	-108.81
204.824	-287.18
205.204	-417.09
205.585	-108.56
205.965	-114.03
206.345	-181.31
206.725	-94.32
207.106	-48.92
207.486	-64.65
207.866	-29.47
208.246	-13.66
208.626	-22.39
209.006	38.03
209.386	12.24
209.766	25.85
210.145	68.71
210.525	86.02
210.905	42.97
211.285	18.84
211.664	44.18
212.044	25.8
212.424	25.16
212.803	39.92
213.183	12.21
213.562	34.87
213.942	21.54
214.321	70.94
214.701	44.91
215.08	-11.45
215.459	19.98
215.838	-0.27
216.218	36.65
216.597	25.71
216.976	-15.83
217.355	-23.99
217.734	-50.61
218.113	-86.65
218.492	-45.59
218.871	-49.79
219.25	-58.14
219.629	-84.28
220.008	-69.32
220.387	-64.26
220.766	-51.83
221.144	-49.6
221.523	-70.42
221.902	-55.99
222.28	-47.38
222.659	-19.49
223.037	-11.56
223.416	-11.34
223.794	-7.24
224.173	-21.4
224.551	-29.72
224.929	-30.76
225.308	-20.94
225.686	-13.77
226.064	-17.46
226.442	-16.9
226.821	-16.18
227.199	-9.39
227.577	-10.33
227.955	-5.17
228.333	-2.97
228.711	-1.22
229.089	4.24
229.467	4.79
229.845	2.92
230.222	3.86
230.6	0.05
230.978	-2.93
231.356	-4.58
231.733	-6.22
232.111	-3.97
232.488	-1.19
232.866	3.33
233.243	1.68
233.621	3.03
233.998	3.73
234.376	4.75
234.753	2.93
235.13	1.58
235.508	3.13
235.885	-0.41
236.262	-0.05
236.639	0.09
237.016	-0.85
237.393	0.54
237.77	0.19
238.147	0.38
238.524	2.13
238.901	1.25
239.278	0.96
239.655	1.49
240.032	1.72
240.409	1.41
240.785	1.01
241.162	1.41
241.539	0.34
241.915	1.9
242.292	2.33
242.668	2.5
243.045	3
243.421	3.27
243.798	3.88
244.174	4.02
244.551	4.11
244.927	3.83
245.303	3.82
245.679	4.13
246.056	4.13
246.432	3.87
246.808	4.45
247.184	4.92
247.56	4.96
247.936	4.95
248.312	5.4
248.688	5.34
249.064	5.42
249.44	5.63
249.815	5.21
250.191	4.98
250.567	4.97
250.943	4.86
251.318	4.47
251.694	4.16
252.069	4.09
252.445	4.15
252.82	4.5
253.196	4.63
253.571	4.4
253.947	4.37
254.322	4.49
254.697	4.28
255.073	4.13
255.448	4.47
255.823	4.41
256.198	3.94
256.573	3.96
256.948	3.92
257.323	3.87
257.698	3.96
258.073	3.87
258.448	4.06
258.823	3.87
259.198	4.04
259.573	3.98
259.948	3.88
260.322	3.64
260.697	3.51
261.072	3.49
261.446	3.53
261.821	3.43
262.195	3.27
262.57	3.4
262.944	3.4
263.319	3.25
263.693	3.2
264.067	3.15
264.442	3.14
264.816	3.1
265.19	3.09
265.564	2.83
265.938	3.01
266.313	2.84
266.687	3.09
267.061	3.04
267.435	3.37
267.809	3.26
268.183	3.23
268.556	3.16
268.93	3.17
269.304	3.11
269.678	3.19
270.051	3.44
270.425	3.15
270.799	2.96
271.172	3.09
271.546	3.19
271.919	3.24
272.293	3.23
272.666	3.35
273.04	3.43
273.413	3.58
273.787	3.48
274.16	3.59
274.533	3.49
274.906	3.49
275.279	3.29
275.653	3.31
276.026	3.52
276.399	3.51
276.772	3.48
277.145	3.61
277.518	3.52
277.891	3.38
278.263	3.52
278.636	3.54
279.009	3.57
279.382	3.64
279.755	3.59
280.127	3.61
280.5	3.47
280.872	3.29
281.245	3.32
281.617	3.29
281.99	3.25
282.362	3.45
282.735	3.56
283.107	3.54
283.479	3.79
283.852	3.74
284.224	3.74
284.596	3.82
284.968	3.66
285.34	3.68
285.713	3.7
286.085	3.67
286.457	3.57
286.829	3.5
287.201	3.4
287.572	3.71
287.944	3.83
288.316	3.84
288.688	4.07
289.06	4.1
289.431	4.27
289.803	4.33
290.175	4.23
290.546	4.16
290.918	4.3
291.289	4.19
291.661	4.18
292.032	4.13
292.403	4.05
292.775	4.07
293.146	4.25
293.517	4.26
293.889	4.31
294.26	4.46
294.631	4.55
295.002	4.46
295.373	4.21
295.744	4.12
296.115	4.21
296.486	4.12
296.857	4.01
297.228	3.81
297.599	3.8
297.97	3.74
298.34	3.71
298.711	3.77
299.082	3.66
299.452	3.64
299.823	3.7
300.194	3.67
300.564	3.61
300.935	3.56
301.305	3.54
301.676	3.42
302.046	3.37
302.416	3.2
302.787	3.19
303.157	3.05
303.527	3.12
303.897	2.92
304.267	2.95
304.637	3.09
305.008	3.11
305.378	3.11
305.748	3.15
306.117	3.28
306.487	2.97
306.857	3.04
307.227	3.27
307.597	3.27
307.967	3.35
308.336	3.38
308.706	3.38
309.076	3.5
309.445	3.67
309.815	3.67
310.184	3.59
310.554	3.74
310.923	3.78
311.293	3.66
311.662	3.84
312.031	3.8
312.401	3.61
312.77	3.74
313.139	3.65
313.508	3.59
313.877	3.55
314.246	3.72
314.616	3.71
314.985	3.46
315.353	3.46
315.722	3.57
316.091	3.66
316.46	3.66
316.829	3.61
317.198	3.35
317.567	3.31
317.935	3.35
318.304	3.38
318.672	3.46
319.041	3.5
319.41	3.3
319.778	3.24
320.147	3.29
320.515	3.09
320.883	3.08
321.252	3.27
321.62	3.37
321.988	3.44
322.357	3.57
322.725	3.69
323.093	3.72
323.461	3.57
323.829	3.72
324.197	3.68
324.565	3.58
324.933	3.65
325.301	3.65
325.669	3.68
326.037	3.68
326.405	3.74
326.772	3.83
327.14	3.81
327.508	3.78
327.875	3.83
328.243	3.86
328.61	4
328.978	3.9
329.346	3.64
329.713	3.71
330.08	3.75
330.448	3.88
330.815	3.8
331.182	3.73
331.55	3.48
331.917	3.52
332.284	3.6
332.651	3.61
333.018	3.47
333.385	3.47
333.752	3.49
334.119	3.41
334.486	3.27
334.853	3.23
335.22	3.19
335.587	3.26
335.954	3.4
336.32	3.2
336.687	3.21
337.054	3.23
337.42	3.09
337.787	2.95
338.153	2.95
338.52	2.96
338.886	3.03
339.253	3.1
339.619	3.07
339.986	2.99
340.352	3.08
340.718	3.21
341.084	3.27
341.451	3.17
341.817	3.25
342.183	3.29
342.549	3.43
342.915	3.57
343.281	3.49
343.647	3.47
344.013	3.47
344.379	3.44
344.745	3.52
345.11	3.5
345.476	3.65
345.842	3.58
346.208	3.67
346.573	3.64
346.939	3.63
347.304	3.51
347.67	3.48
348.035	3.39
348.401	3.33
348.766	3.29
349.132	3.39
349.497	3.32
349.862	3.34
350.228	3.33
350.593	3.3
350.958	3.4
351.323	3.41
351.688	3.52
352.053	3.59
352.418	3.55
352.783	3.56
353.148	3.45
353.513	3.51
353.878	3.45
354.243	3.35
354.608	3.4
354.972	3.49
355.337	3.48
355.702	3.56
356.066	3.62
356.431	3.61
356.795	3.59
357.16	3.67
357.524	3.66
357.889	3.6
358.253	3.65
358.618	3.66
358.982	3.63
359.346	3.58
359.71	3.58
360.075	3.62
360.439	3.64
360.803	3.74
361.167	3.6
361.531	3.63
361.895	3.66
362.259	3.67
362.623	3.64
362.987	3.67
363.351	3.65
363.714	3.62
364.078	3.61
364.442	3.56
364.806	3.46
365.169	3.45
365.533	3.47
365.896	3.45
366.26	3.39
366.623	3.44
366.987	3.53
367.35	3.53
367.714	3.52
368.077	3.54
368.44	3.44
368.803	3.49
369.167	3.44
369.53	3.55
369.893	3.56
370.256	3.68
370.619	3.65
370.982	3.66
371.345	3.75
371.708	3.72
372.071	3.75
372.434	3.84
372.797	3.82
373.159	3.83
373.522	3.8
373.885	3.81
374.247	3.73
374.61	3.7
374.973	3.67
375.335	3.69
375.698	3.67
376.06	3.69
376.423	3.72
376.785	3.78
377.147	3.77
377.51	3.78
377.872	3.71
378.234	3.75
378.596	3.75
378.958	3.71
379.321	3.75
379.683	3.79
380.045	3.76
380.407	3.76
380.769	3.77
381.13	3.77
381.492	3.76
381.854	3.83
382.216	3.81
382.578	3.84
382.939	3.86
383.301	3.88
383.663	3.87
384.024	3.85
384.386	3.84
384.747	3.82
385.109	3.73
385.47	3.75
385.832	3.72
386.193	3.7
386.554	3.66
386.916	3.68
387.277	3.62
387.638	3.6
387.999	3.61
388.36	3.63
388.721	3.65
389.082	3.67
389.443	3.66
389.804	3.68
390.165	3.65
390.526	3.61
390.887	3.59
391.248	3.6
391.609	3.64
391.969	3.6
392.33	3.59
392.691	3.67
393.051	3.65
393.412	3.64
393.772	3.7
394.133	3.72
394.493	3.66
394.854	3.69
395.214	3.71
395.574	3.68
395.935	3.66
396.295	3.65
396.655	3.61
397.015	3.58
397.376	3.57
397.736	3.53
398.096	3.51
398.456	3.53
398.816	3.49
399.176	3.44
399.535	3.48
399.895	3.47
400.255	3.43
400.615	3.47
400.975	3.47
401.334	3.44
401.694	3.42
402.054	3.48
402.413	3.48
402.773	3.51
403.132	3.52
403.492	3.49
403.851	3.49
404.211	3.48
404.57	3.47
404.929	3.47
405.288	3.52
405.648	3.56
406.007	3.57
406.366	3.59
406.725	3.59
407.084	3.59
407.443	3.59
407.802	3.57
408.161	3.53
408.52	3.54
408.879	3.52
409.238	3.54
409.596	3.55
409.955	3.52
410.314	3.48
410.673	3.47
411.031	3.48
411.39	3.5
411.748	3.56
412.107	3.56
412.465	3.58
412.824	3.57
413.182	3.52
413.54	3.52
413.899	3.52
414.257	3.53
414.615	3.52
414.974	3.55
415.332	3.53
415.69	3.57
416.048	3.59
416.406	3.61
416.764	3.62
417.122	3.59
417.48	3.61
417.838	3.61
418.195	3.64
418.553	3.65
418.911	3.65
419.269	3.65
419.626	3.67
419.984	3.66
420.342	3.66
420.699	3.66
421.057	3.65
421.414	3.65
421.772	3.69
422.129	3.69
422.486	3.69
422.844	3.71
423.201	3.72
423.558	3.72
423.915	3.71
424.273	3.71
424.63	3.71
424.987	3.74
425.344	3.74
425.701	3.75
426.058	3.75
426.415	3.74
426.772	3.74
427.128	3.74
427.485	3.75
427.842	3.75
428.199	3.77
428.555	3.78
428.912	3.78
429.269	3.73
429.625	3.72
429.982	3.73
430.338	3.73
430.695	3.71
431.051	3.7
431.407	3.71
431.764	3.7
432.12	3.71
432.476	3.69
432.832	3.7
433.189	3.68
433.545	3.67
433.901	3.66
434.257	3.65
434.613	3.63
434.969	3.63
435.325	3.64
435.681	3.63
436.036	3.63
436.392	3.65
436.748	3.66
437.104	3.65
437.459	3.62
437.815	3.61
438.171	3.63
438.526	3.62
438.882	3.61
439.237	3.61
439.593	3.62
439.948	3.6
440.304	3.59
440.659	3.58
441.014	3.59
441.369	3.6
441.725	3.6
442.08	3.58
442.435	3.58
442.79	3.58
443.145	3.57
443.5	3.57
443.855	3.57
444.21	3.58
444.565	3.58
444.92	3.6
445.275	3.59
445.629	3.56
445.984	3.57
446.339	3.58
446.693	3.59
447.048	3.58
447.403	3.58
447.757	3.58
448.112	3.59
448.466	3.59
448.82	3.58
449.175	3.6
449.529	3.61
449.883	3.59
450.238	3.59
450.592	3.57
450.946	3.58
451.3	3.56
451.654	3.57
452.008	3.58
452.362	3.57
452.716	3.58
453.07	3.6
453.424	3.59
453.778	3.57
454.132	3.56
454.486	3.57
454.839	3.59
455.193	3.62
455.547	3.63
455.9	3.65
456.254	3.67
456.607	3.65
456.961	3.66
457.314	3.68
457.668	3.68
458.021	3.71
458.375	3.72
458.728	3.73
459.081	3.73
459.434	3.73
459.787	3.74
460.141	3.74
460.494	3.72
460.847	3.72
461.2	3.75
461.553	3.78
461.906	3.78
462.259	3.77
462.611	3.76
462.964	3.76
463.317	3.74
463.67	3.72
464.022	3.74
464.375	3.74
464.728	3.74
465.08	3.75
465.433	3.75
465.785	3.74
466.138	3.74
466.49	3.75
466.843	3.76
467.195	3.76
467.547	3.76
467.899	3.77
468.252	3.8
468.604	3.77
468.956	3.75
469.308	3.73
469.66	3.75
470.012	3.75
470.364	3.74
470.716	3.77
471.068	3.78
471.42	3.78
471.772	3.76
472.123	3.77
472.475	3.76
472.827	3.75
473.178	3.75
473.53	3.74
473.882	3.73
474.233	3.72
474.585	3.73
474.936	3.72
475.288	3.72
475.639	3.71
475.99	3.71
476.342	3.72
476.693	3.74
477.044	3.74
477.395	3.73
477.746	3.74
478.097	3.74
478.448	3.72
478.8	3.71
479.15	3.71
479.501	3.69
479.852	3.7
480.203	3.72
480.554	3.73
480.905	3.74
481.255	3.74
481.606	3.73
481.957	3.76
482.307	3.76
482.658	3.77
483.009	3.77
483.359	3.78
483.709	3.79
484.06	3.78
484.41	3.78
484.761	3.78
485.111	3.79
485.461	3.79
485.811	3.8
486.162	3.8
486.512	3.81
486.862	3.83
487.212	3.82
487.562	3.82
487.912	3.82
488.262	3.82
488.612	3.83
488.961	3.84
489.311	3.83
489.661	3.83
490.011	3.83
490.36	3.84
490.71	3.84
491.06	3.83
491.409	3.84
491.759	3.84
492.108	3.84
492.458	3.83
492.807	3.82
493.157	3.83
493.506	3.83
493.855	3.82
494.204	3.82
494.554	3.84
494.903	3.85
495.252	3.86
495.601	3.86
495.95	3.85
496.299	3.85
496.648	3.87
496.997	3.87
497.346	3.87
497.695	3.88
498.043	3.9
498.392	3.89
498.741	3.91
499.09	3.9
499.438	3.9
499.787	3.9
500.135	3.89
500.484	3.9
500.832	3.9
501.181	3.93
501.529	3.92
501.878	3.93
502.226	3.94
502.574	3.93
502.923	3.95
503.271	3.97
503.619	3.96
503.967	3.95
504.315	3.92
504.663	3.94
505.011	3.92
505.359	3.92
505.707	3.92
506.055	3.89
506.403	3.93
506.751	3.92
507.098	3.96
507.446	3.98
507.794	4
508.141	4.02
508.489	4.01
508.837	4.02
509.184	4.03
509.531	4.05
509.879	4.04
510.226	4.03
510.574	4.02
510.921	4.04
511.268	4.04
511.616	4.07
511.963	4.06
512.31	4.09
512.657	4.08
513.004	4.07
513.351	4.08
513.698	4.07
514.045	4.09
514.392	4.08
514.739	4.06
515.086	4.06
515.432	4.06
515.779	4.06
516.126	4.08
516.473	4.07
516.819	4.06
517.166	4.06
517.512	4.06
517.859	4.07
518.205	4.05
518.552	4.07
518.898	4.05
519.245	4.06
519.591	4.05
519.937	4.05
520.283	4.08
520.629	4.07
520.976	4.06
521.322	4.05
521.668	4.04
522.014	4.06
522.36	4.06
522.706	4.05
523.052	4.06
523.398	4.04
523.743	4.05
524.089	4.05
524.435	4.04
524.781	4.04
525.126	4.02
525.472	4.04
525.817	4.02
526.163	4.01
526.509	4.01
526.854	4.01
527.199	4.01
527.545	4
527.89	4.02
528.235	4.03
528.581	4.03
528.926	4.03
529.271	4.03
529.616	4.03
529.961	4.03
530.306	4.02
530.651	4.01
530.996	4.02
531.341	4.03
531.686	4.03
532.031	4.04
532.376	4.06
532.721	4.04
533.065	4.05
533.41	4.09
533.755	4.09
534.099	4.08
534.444	4.11
534.788	4.11
535.133	4.1
535.477	4.11
535.822	4.11
536.166	4.11
536.51	4.12
536.855	4.1
537.199	4.09
537.543	4.11
537.887	4.13
538.231	4.12
538.576	4.1
538.92	4.12
539.264	4.13
539.608	4.12
539.951	4.14
540.295	4.15
540.639	4.14
540.983	4.14
541.327	4.15
541.671	4.15
542.014	4.16
542.358	4.17
542.701	4.16
543.045	4.16
543.389	4.17
543.732	4.16
544.075	4.19
544.419	4.2
544.762	4.19
545.105	4.2
545.449	4.19
545.792	4.2
546.135	4.19
546.478	4.18
546.821	4.2
547.165	4.19
547.508	4.19
547.851	4.19
548.194	4.18
548.536	4.16
548.879	4.17
549.222	4.17
549.565	4.15
549.908	4.14
550.25	4.13
550.593	4.14
550.936	4.15
551.278	4.15
551.621	4.14
551.963	4.16
552.306	4.13
552.648	4.16
552.991	4.15
553.333	4.13
553.675	4.15
554.017	4.12
554.36	4.16
554.702	4.16
555.044	4.16
555.386	4.16
555.728	4.18
556.07	4.15
556.412	4.14
556.754	4.12
557.096	4.14
557.438	4.13
557.78	4.12
558.121	4.09
558.463	4.1
558.805	4.13
559.147	4.17
559.488	4.16
559.83	4.16
560.171	4.16
560.513	4.17
560.854	4.18
561.196	4.23
561.537	4.19
561.878	4.19
562.22	4.18
562.561	4.17
562.902	4.14
563.243	4.16
563.584	4.16
563.925	4.17
564.266	4.18
564.607	4.18
564.948	4.18
565.289	4.21
565.63	4.19
565.971	4.18
566.312	4.14
566.653	4.16
566.993	4.17
567.334	4.15
567.675	4.17
568.015	4.14
568.356	4.11
568.696	4.11
569.037	4.13
569.377	4.15
569.718	4.16
570.058	4.19
570.398	4.2
570.739	4.19
571.079	4.17
571.419	4.18
571.759	4.16
572.099	4.17
572.439	4.13
572.779	4.14
573.119	4.14
573.459	4.14
573.799	4.12
574.139	4.11
574.479	4.14
574.819	4.16
575.158	4.16
575.498	4.17
575.838	4.16
576.177	4.13
576.517	4.12
576.856	4.13
577.196	4.12
577.535	4.12
577.875	4.15
578.214	4.17
578.553	4.19
578.893	4.23
579.232	4.27
579.571	4.35
579.91	4.34
580.25	4.34
580.589	4.37
580.928	4.4
581.267	4.4
581.606	4.39
581.945	4.34
582.283	4.39
582.622	4.38
582.961	4.37
583.3	4.38
583.639	4.38
583.977	4.4
584.316	4.42
584.654	4.41
584.993	4.34
585.332	4.36
585.67	4.36
586.008	4.38
586.347	4.37
586.685	4.28
587.024	4.31
587.362	4.32
587.7	4.31
588.038	4.33
588.376	4.34
588.715	4.38
589.053	4.38
589.391	4.39
589.729	4.34
590.067	4.38
590.404	4.43
590.742	4.4
591.08	4.39
591.418	4.42
591.756	4.41
592.093	4.46
592.431	4.47
592.769	4.48
593.106	4.42
593.444	4.41
593.781	4.45
594.119	4.46
594.456	4.43
594.793	4.42
595.131	4.4
595.468	4.4
595.805	4.39
596.143	4.42
596.48	4.4
596.817	4.43
597.154	4.5
597.491	4.48
597.828	4.5
598.165	4.47
598.502	4.43
598.839	4.45
599.176	4.44
599.512	4.44
599.849	4.41
600.186	4.4
600.523	4.4
600.859	4.43
601.196	4.42
601.532	4.45
601.869	4.5
602.205	4.53
602.542	4.5
602.878	4.46
603.215	4.46
603.551	4.45
603.887	4.46
604.223	4.42
604.56	4.47
604.896	4.49
605.232	4.51
605.568	4.51
605.904	4.47
606.24	4.49
606.576	4.5
606.912	4.5
607.248	4.55
607.583	4.59
607.919	4.57
608.255	4.57
608.591	4.57
608.926	4.52
609.262	4.52
609.597	4.52
609.933	4.57
610.268	4.57
610.604	4.56
610.939	4.6
611.275	4.54
611.61	4.45
611.945	4.43
612.281	4.46
612.616	4.49
612.951	4.54
613.286	4.51
613.621	4.44
613.956	4.46
614.291	4.43
614.626	4.44
614.961	4.46
615.296	4.46
615.631	4.5
615.966	4.51
616.3	4.56
616.635	4.6
616.97	4.57
617.304	4.52
617.639	4.55
617.973	4.51
618.308	4.5
618.642	4.5
618.977	4.49
619.311	4.49
619.646	4.51
619.98	4.53
620.314	4.54
620.648	4.54
620.983	4.49
621.317	4.52
621.651	4.47
621.985	4.5
622.319	4.49
622.653	4.49
622.987	4.54
623.321	4.49
623.655	4.5
623.988	4.52
624.322	4.56
624.656	4.54
624.99	4.5
625.323	4.57
625.657	4.63
625.99	4.65
626.324	4.62
626.657	4.59
626.991	4.56
627.324	4.51
627.658	4.55
627.991	4.6
628.324	4.59
628.657	4.6
628.991	4.59
629.324	4.56
629.657	4.5
629.99	4.49
630.323	4.48
630.656	4.46
630.989	4.46
631.322	4.47
631.655	4.49
631.987	4.54
632.32	4.57
632.653	4.54
632.986	4.58
633.318	4.6
633.651	4.55
633.984	4.58
634.316	4.63
634.649	4.64
634.981	4.64
635.313	4.64
635.646	4.65
635.978	4.66
636.31	4.71
636.643	4.75
636.975	4.75
637.307	4.77
637.639	4.75
637.971	4.74
638.303	4.7
638.635	4.74
638.967	4.75
639.299	4.72
639.631	4.73
639.963	4.68
640.295	4.71
640.626	4.76
640.958	4.71
641.29	4.79
641.621	4.73
641.953	4.7
642.285	4.78
642.616	4.72
642.948	4.71
643.279	4.62
643.61	4.66
643.942	4.61
644.273	4.59
644.604	4.63
644.936	4.59
645.267	4.6
645.598	4.5
645.929	4.41
646.26	4.37
646.591	4.34
646.922	4.4
647.253	4.33
647.584	4.4
647.915	4.43
648.245	4.4
648.576	4.43
648.907	4.46
649.238	4.36
649.568	4.4
649.899	4.41
650.229	4.54
650.56	4.47
650.89	4.51
651.221	4.52
651.551	4.5
651.882	4.54
652.212	4.52
652.542	4.68
652.872	4.77
653.203	4.86
653.533	4.9
653.863	4.9
654.193	4.92
654.523	4.85
654.853	4.9
655.183	4.87
655.513	4.93
655.843	4.99
656.172	5.09
656.502	5.07
656.832	5.09
657.162	4.99
657.491	5.05
657.821	4.99
658.15	5.02
658.48	5.07
658.809	5.09
659.139	5.17
659.468	5.08
659.798	5.11
660.127	5.05
660.456	5.12
660.785	5.09
661.115	5.08
661.444	5.11
661.773	5.12
662.102	5.13
662.431	5.14
662.76	5.09
663.089	5.08
663.418	5.09
663.747	5.02
664.076	5.06
664.404	5.13
664.733	5.16
665.062	5.15
665.39	5.12
665.719	5.11
666.048	5.12
666.376	5.14
666.705	5.12
667.033	5.15
667.362	5.09
667.69	5.08
668.018	5.12
668.347	5.11
668.675	5.07
669.003	5.04
669.331	5.07
669.659	5.03
669.987	5.03
670.315	5.13
670.643	5.11
670.971	5.22
671.299	5.15
671.627	5.2
671.955	5.11
672.283	5.18
672.61	5.19
672.938	5.21
673.266	5.21
673.593	5.16
673.921	5.16
674.249	5.21
674.576	5.22
674.904	5.22
675.231	5.23
675.558	5.24
675.886	5.29
676.213	5.26
676.54	5.3
676.867	5.27
677.195	5.25
677.522	5.35
677.849	5.25
678.176	5.2
678.503	5.17
678.83	5.21
679.157	5.12
679.484	5.16
679.81	5.11
680.137	5.06
680.464	5.07
680.791	4.98
681.117	5.03
681.444	4.98
681.771	5.04
682.097	5.06
682.424	5.05
682.75	5.04
683.077	5.07
683.403	5.13
683.729	5.09
684.056	5.01
684.382	4.94
684.708	4.98
685.034	5
685.36	4.99
685.686	4.93
686.012	5.11
686.339	4.99
686.664	4.98
686.99	4.98
687.316	5.01
687.642	5.12
687.968	5.09
688.294	5.12
688.619	5.06
688.945	5.05
689.271	5
689.596	5.04
689.922	5.01
690.247	4.88
690.573	4.95
690.898	5.01
691.224	5.04
691.549	4.95
691.874	5
692.2	5.06
692.525	5.1
692.85	4.93
693.175	5.04
693.5	4.96
693.825	5.05
694.15	4.98
694.475	4.92
694.8	4.86
695.125	4.84
695.45	4.77
695.775	4.84
696.099	5.07
696.424	5.06
696.749	5.07
697.073	5.11
697.398	5.12
697.723	5.09
698.047	5.18
698.372	5.27
698.696	5.19
699.02	5.2
699.345	5.24
699.669	5.24
699.993	5.17
700.318	5.28
700.642	5.25
700.966	5.3
701.29	5.42
701.614	5.44
701.938	5.54
702.262	5.54
702.586	5.56
702.91	5.5
703.234	5.37
703.557	5.4
703.881	5.46
704.205	5.39
704.529	5.45
704.852	5.28
705.176	5.2
705.499	5.24
705.823	5.13
706.146	5.23
706.47	5.39
706.793	5.53
707.117	5.41
707.44	5.42
707.763	5.46
708.086	5.28
708.409	5.19
708.733	5.09
709.056	5.11
709.379	5.01
709.702	4.9
710.025	4.99
710.348	5
710.671	5
710.993	4.98
711.316	4.97
711.639	4.92
711.962	4.99
712.284	4.99
712.607	5.17
712.93	5.18
713.252	5.02
713.575	5.09
713.897	5.12
714.22	5.13
714.542	5.32
714.864	5.33
715.187	5.27
715.509	5.3
715.831	5.43
716.153	5.44
716.475	5.49
716.798	5.39
717.12	5.43
717.442	5.46
717.764	5.51
718.085	5.52
718.407	5.62
718.729	5.5
719.051	5.61
719.373	5.6
719.695	5.5
720.016	5.67
720.338	5.46
720.659	5.54
720.981	5.47
721.302	5.33
721.624	5.36
721.945	5.62
722.267	5.67
722.588	5.67
722.909	5.49
723.231	5.38
723.552	5.74
723.873	5.53
724.194	5.27
724.515	5.3
724.836	5.32
725.157	5.3
725.478	5.32
725.799	5.18
726.12	5.01
726.441	5.04
726.762	4.84
727.083	5.11
727.403	5.24
727.724	5.33
728.045	5.35
728.365	5.26
728.686	5.1
729.006	5.04
729.327	5.04
729.647	5.22
729.967	5.31
730.288	5.13
730.608	5.35
730.928	5.46
731.249	5.45
731.569	5.29
731.889	5.35
732.209	5.4
732.529	5.55
732.849	5.64
733.169	5.65
733.489	5.61
733.809	5.38
734.129	5.25
734.448	5.16
734.768	4.97
735.088	5.18
735.408	5.21
735.727	5.4
736.047	5.45
736.366	5.4
736.686	5.28
737.005	5.3
737.325	5.18
737.644	5.11
737.963	5.07
738.283	5.18
738.602	5.22
738.921	5.36
739.24	5.42
739.56	5.4
739.879	5.34
740.198	5.38
740.517	5.35
740.836	5.32
741.155	5.49
741.473	5.65
741.792	5.44
742.111	5.62
742.43	5.76
742.748	5.97
743.067	5.95
743.386	6.17
743.704	6.15
744.023	6.25
744.341	6.31
744.66	6.33
744.978	6.44
745.297	6.28
745.615	6.07
745.933	5.74
746.252	5.82
746.57	5.71
746.888	5.98
747.206	6.13
747.524	6.14
747.842	5.9
748.16	5.97
748.478	6.14
748.796	5.92
749.114	5.52
749.432	5.08
749.749	5.32
750.067	5.12
750.385	5.24
750.703	5.12
751.02	5.17
751.338	4.96
751.655	4.54
751.973	4.69
752.29	4.79
752.608	4.82
752.925	4.81
753.242	4.89
753.56	4.64
753.877	4.71
754.194	4.78
754.511	4.72
754.828	4.65
755.145	4.6
755.462	4.77
755.779	4.77
756.096	4.98
756.413	4.82
756.73	4.73
757.047	4.58
757.364	4.72
757.68	4.71
757.997	4.67
758.314	5.12
758.63	5.05
758.947	5.26
759.264	5.38
759.58	5.49
759.896	5.78
760.213	5.75
760.529	5.65
760.846	5.68
761.162	5.92
761.478	5.73
761.794	5.87
762.11	5.65
762.426	5.89
762.743	5.79
763.059	6.01
763.375	6.06
763.69	6.06
764.006	5.91
764.322	6
764.638	6.33
764.954	6.29
765.27	6.23
765.585	6.18
765.901	6.12
766.216	6.1
766.532	5.97
766.848	6.08
767.163	6.14
767.478	6.01
767.794	5.88
768.109	5.77
768.424	5.49
768.74	5.36
769.055	5.33
769.37	5.39
769.685	4.98
770	4.96
770.315	5.17
770.63	5.53
770.945	5.49
771.26	5.17
771.575	5.05
771.89	5.02
772.205	4.72
772.52	4.96
772.834	4.61
773.149	4.45
773.464	4.26
773.778	4.19
774.093	4.42
774.407	4.85
774.722	5.23
775.036	5.48
775.351	5.81
775.665	5.6
775.979	5.63
776.293	6.05
776.608	6.12
776.922	6.2
777.236	5.51
777.55	5.07
777.864	5.27
778.178	5.14
778.492	5.17
778.806	5.59
779.12	5.49
779.434	5.84
779.747	6.15
780.061	6.25
780.375	6.45
780.689	6.41
781.002	6.1
781.316	5.98
781.629	5.64
781.943	5.77
782.256	5.84
782.57	6.08
782.883	6.01
783.196	5.85
783.51	5.6
783.823	5.76
784.136	6.39
784.449	6.64
784.762	7.01
785.075	7.49
785.388	7.24
785.701	7.14
786.014	6.94
786.327	7.03
786.64	7.38
786.953	7.2
787.266	6.93
787.578	6.87
787.891	7.1
788.204	7.46
788.516	7.3
788.829	7.16
789.141	6.83
789.454	6.9
789.766	7.42
790.079	7.24
790.391	7.18
790.703	6.8
791.016	6.54
791.328	6.43
791.64	5.79
791.952	6.27
792.264	6.06
792.576	6.38
792.888	6.24
793.2	5.94
793.512	5.79
793.824	6.12
794.136	6.07
794.448	6.04
794.76	6.21
795.071	6.67
795.383	7.16
795.695	6.84
796.006	6.28
796.318	5.93
796.629	6.47
796.941	6.96
797.252	6.95
797.564	6.91
797.875	6.84
798.186	7.6
798.497	7.08
798.809	6.76
799.12	6.42
799.431	6.89
799.742	6.66
800.053	6.42
800.364	6.55
800.675	6.96
800.986	6.85
801.297	6.83
801.608	6.16
801.918	5.24
802.229	5.59
802.54	5.14
802.851	5.65
803.161	4.73
803.472	4.86
803.782	5.5
804.093	5.24
804.403	5.61
804.714	5.06
805.024	4.21
805.334	5.13
805.645	5.5
805.955	5
806.265	5.62
806.575	5.6
806.885	4.97
807.195	4.84
807.505	5.24
807.815	5.1
808.125	5.33
808.435	6.17
808.745	6.02
809.055	7.05
809.365	6.85
809.674	7.49
809.984	7.48
810.294	7.57
810.603	7.8
810.913	7.2
811.222	6.74
811.532	7.69
811.841	7.77
812.151	7.87
812.46	8
812.769	7.83
813.079	7.62
813.388	8.26
813.697	7.7
814.006	6.98
814.315	7.03
814.624	7
814.933	6.9
815.242	6.47
815.551	6.39
815.86	6.5
816.169	6.5
816.478	5.67
816.786	4.87
817.095	5
817.404	5.09
817.712	6.39
818.021	6.68
818.33	6.22
818.638	5.88
818.947	5.78
819.255	6.27
819.563	7.59
819.872	7.35
820.18	7.51
820.488	8.11
820.796	8.07
821.105	8.16
821.413	8.3
821.721	8.34
822.029	8.25
822.337	8.26
822.645	8.37
822.953	8.46
823.26	8.61
823.568	8.76
823.876	8.74
824.184	8.45
824.491	8.27
824.799	8.32
825.107	8.41
825.414	8.43
825.722	8.29
826.029	7.95
826.337	8
826.644	8.07
826.951	7.74
827.259	7.86
827.566	7.78
827.873	7.53
828.18	7.66
828.488	7.86
828.795	7.83
829.102	7.63
829.409	7.73
829.716	7.48
830.023	7.35
830.329	7.47
830.636	7.85
830.943	7.99
831.25	8.13
831.557	7.91
831.863	8
832.17	8.25
832.476	8.41
832.783	8.48
833.089	8.54
833.396	8.47
833.702	8.5
834.009	8.66
834.315	8.99
834.621	8.89
834.928	8.46
835.234	8.21
835.54	8.04
835.846	7.85
836.152	8.19
836.458	7.88
836.764	8.23
837.07	8.39
837.376	8.59
837.682	8.33
837.988	8.29
838.293	8.02
838.599	7.61
838.905	7.71
839.211	7.56
839.516	7.66
839.822	8.11
840.127	7.51
840.433	7.26
840.738	6.7
841.044	7.57
841.349	7.74
841.654	7.59
841.959	7.79
842.265	8.45
842.57	8.47
842.875	8.9
843.18	7.45
843.485	6.16
843.79	5.04
844.095	6.15
844.4	6.65
844.705	7.52
845.01	7.5
845.315	7.31
845.619	8.3
845.924	6.94
846.229	6.66
846.533	6.97
846.838	6.45
847.142	7.39
847.447	6.56
847.751	7.34
848.056	8.08
848.36	7.97
848.664	5.89
848.969	7.39
849.273	7.13
849.577	6.67
849.881	7.82
850.185	9.96
850.489	8.88
850.794	9.22
851.097	9.06
851.401	8.81
851.705	8.06
852.009	7.48
852.313	9.32
852.617	7.51
852.92	7.63
853.224	8.67
853.528	7.32
853.831	6.76
854.135	7.05
854.438	6.98
854.742	9.26
855.045	10.33
855.349	7.47
855.652	8.11
855.955	9.7
856.259	9.95
856.562	8.65
856.865	8.52
857.168	8.3
857.471	7.71
857.774	7.91
858.077	6.67
858.38	5.45
858.683	4.78
858.986	8.89
859.289	8.16
859.592	8.81
859.894	8.9
860.197	7.14
860.5	7.8
860.802	8.29
861.105	5.93
861.407	6.31
861.71	6.02
862.012	6.42
862.315	6.09
862.617	5.72
862.919	7.79
863.222	7.9
863.524	8.2
863.826	7.11
864.128	6.79
864.43	10.55
864.732	10.22
865.034	10.72
865.336	8.83
865.638	8.58
865.94	8.93
866.242	8.31
866.544	11.79
866.846	10.92
867.147	11.62
867.449	12.49
867.751	11.21
868.052	11.36
868.354	8.63
868.655	8.99
868.957	8.93
869.258	6.84
869.56	6.69
869.861	7.92
870.162	7.69
870.463	8.96
870.765	6.22
871.066	6.85
871.367	5.56
871.668	5.58
871.969	7.42
872.27	6.83
872.571	9.55
872.872	7.35
873.173	5.61
873.473	2.81
873.774	1.55
874.075	4.49
874.376	4.58
874.676	6.44
874.977	8.93
875.277	10.15
875.578	11.79
875.878	12.05
876.179	10.18
876.479	12.27
876.78	12.15
877.08	13.44
877.38	14.86
877.68	16.65
877.981	17.25
878.281	15.79
878.581	15.63
