Data from BA28472_Reflection_00010.txt Node
Date: Mon Nov 18 15:24:36 EST 2019
User: vgr7
Spectrometer: USB2G7710
Scans to average: 3
Trigger mode: 4
Integration Time (sec): 2.000000E-2
Electric dark correction enabled: true
Boxcar width: 10
XAxis mode: Wavelengths
Number of Pixels in Spectrum: 2048
>>>>>Begin Spectral Data<<<<<
177.721	64.31
178.105	157.51
178.488	243.23
178.871	102.84
179.254	74.74
179.636	212.15
180.019	-11081.82
180.402	107.69
180.785	-92.66
181.168	130.61
181.55	-456.89
181.933	187.57
182.316	155.29
182.698	112.92
183.081	126.09
183.463	134.62
183.846	105.87
184.228	87.59
184.611	81.16
184.993	78.8
185.376	108.39
185.758	96.63
186.14	123.43
186.522	151.29
186.904	109.97
187.287	99.03
187.669	108.97
188.051	193.69
188.433	145.58
188.815	188.42
189.197	154.27
189.579	112.32
189.961	157.3
190.342	122.71
190.724	318.3
191.106	285.42
191.488	539.21
191.869	-379.35
192.251	-230.86
192.633	-104.65
193.014	-179.43
193.396	-252.29
193.777	-220.68
194.159	-373.68
194.54	-269.68
194.922	-118.9
195.303	-115.72
195.684	-111.53
196.065	-37.95
196.447	-28.15
196.828	-17.95
197.209	-13.01
197.59	-43.99
197.971	-45.26
198.352	-28.56
198.733	-38.75
199.114	-17.77
199.495	5.89
199.876	-1.78
200.257	75.91
200.638	51.35
201.018	18.92
201.399	48.52
201.78	64.87
202.16	58.87
202.541	32.44
202.922	-30.28
203.302	-26.42
203.683	-11.81
204.063	-34.46
204.444	-45.45
204.824	-60.75
205.204	-34.51
205.585	-16.68
205.965	-8.92
206.345	-34.63
206.725	-69.06
207.106	-102.97
207.486	-136.91
207.866	-80.94
208.246	-127.98
208.626	-211.35
209.006	-181.52
209.386	-232.64
209.766	-449.43
210.145	-970.74
210.525	-556.02
210.905	-522.64
211.285	-827.27
211.664	-570.95
212.044	827.66
212.424	-1185.71
212.803	-261.39
213.183	-328.57
213.562	-831.03
213.942	2031.51
214.321	-196.2
214.701	-123.88
215.08	26.03
215.459	116.16
215.838	128.49
216.218	107.32
216.597	104.87
216.976	101.68
217.355	78.75
217.734	48.81
218.113	66.99
218.492	52.28
218.871	29
219.25	13.75
219.629	9.46
220.008	1.1
220.387	-31.79
220.766	-37.14
221.144	-40.39
221.523	-45.61
221.902	-39.87
222.28	-99.82
222.659	-76.09
223.037	-80.85
223.416	-103.7
223.794	-119.61
224.173	-130.1
224.551	-95.2
224.929	-71.8
225.308	-51.13
225.686	-35.83
226.064	-24.09
226.442	-17.05
226.821	-9.73
227.199	-8.15
227.577	-5.21
227.955	-5.56
228.333	-0.51
228.711	2.33
229.089	7.47
229.467	3.92
229.845	1.35
230.222	5.72
230.6	5.22
230.978	5.4
231.356	5.49
231.733	5.34
232.111	5.42
232.488	4.98
232.866	3.6
233.243	4.71
233.621	4.21
233.998	3.19
234.376	1.33
234.753	1.63
235.13	1.95
235.508	0.95
235.885	2.15
236.262	1.06
236.639	0.41
237.016	-0.3
237.393	1.66
237.77	3.15
238.147	3.28
238.524	3.12
238.901	3.21
239.278	4.02
239.655	4.87
240.032	4.83
240.409	4.03
240.785	4.51
241.162	4.28
241.539	4.11
241.915	4.18
242.292	4.31
242.668	4.09
243.045	4.64
243.421	4.5
243.798	4.4
244.174	4.46
244.551	4.54
244.927	4.51
245.303	4.54
245.679	4.54
246.056	4.22
246.432	4.08
246.808	4.23
247.184	4.02
247.56	3.66
247.936	3.61
248.312	3.76
248.688	3.85
249.064	4.06
249.44	4.21
249.815	4.24
250.191	4.29
250.567	4.3
250.943	4.07
251.318	4.2
251.694	4.27
252.069	4.36
252.445	4.45
252.82	4.38
253.196	4.23
253.571	4.25
253.947	4.29
254.322	4.49
254.697	4.15
255.073	3.88
255.448	4.08
255.823	4.08
256.198	4.25
256.573	4.13
256.948	3.88
257.323	3.97
257.698	3.93
258.073	4.05
258.448	4.05
258.823	4.03
259.198	3.98
259.573	3.91
259.948	3.74
260.322	3.66
260.697	3.68
261.072	3.64
261.446	3.62
261.821	3.7
262.195	3.77
262.57	3.78
262.944	3.95
263.319	3.83
263.693	3.71
264.067	3.82
264.442	3.87
264.816	3.79
265.19	3.68
265.564	3.62
265.938	3.43
266.313	3.34
266.687	3.32
267.061	3.37
267.435	3.24
267.809	3.25
268.183	3.13
268.556	3.13
268.93	3.17
269.304	3.22
269.678	3.3
270.051	3.18
270.425	3.38
270.799	3.27
271.172	3.52
271.546	3.64
271.919	3.45
272.293	3.56
272.666	3.59
273.04	3.63
273.413	3.72
273.787	3.84
274.16	3.79
274.533	3.63
274.906	3.6
275.279	3.59
275.653	3.72
276.026	3.86
276.399	3.89
276.772	4
277.145	3.98
277.518	4.09
277.891	4.12
278.263	3.93
278.636	4.02
279.009	3.84
279.382	4.12
279.755	4.02
280.127	4.02
280.5	4.14
280.872	4.2
281.245	4.05
281.617	4.14
281.99	4.38
282.362	4.65
282.735	4.59
283.107	4.57
283.479	4.6
283.852	4.56
284.224	4.4
284.596	4.28
284.968	4.36
285.34	4.23
285.713	4.25
286.085	4.38
286.457	4.36
286.829	4.44
287.201	4.31
287.572	4.36
287.944	4.3
288.316	4.11
288.688	3.99
289.06	4.04
289.431	4.13
289.803	4.11
290.175	4.05
290.546	4.18
290.918	4.28
291.289	4.31
291.661	4.4
292.032	4.56
292.403	4.7
292.775	4.56
293.146	4.56
293.517	4.51
293.889	4.52
294.26	4.53
294.631	4.5
295.002	4.54
295.373	4.5
295.744	4.51
296.115	4.69
296.486	4.67
296.857	4.67
297.228	4.47
297.599	4.33
297.97	4.35
298.34	4.37
298.711	4.45
299.082	4.37
299.452	4.42
299.823	4.46
300.194	4.47
300.564	4.41
300.935	4.44
301.305	4.54
301.676	4.46
302.046	4.51
302.416	4.72
302.787	4.84
303.157	4.98
303.527	5.07
303.897	5.1
304.267	5.29
304.637	5.48
305.008	5.49
305.378	5.8
305.748	5.93
306.117	5.85
306.487	5.74
306.857	5.77
307.227	5.79
307.597	5.84
307.967	5.9
308.336	6.13
308.706	6.27
309.076	6.26
309.445	6.24
309.815	6.24
310.184	6.02
310.554	5.95
310.923	5.86
311.293	5.93
311.662	5.96
312.031	5.87
312.401	5.91
312.77	6.12
313.139	6.17
313.508	6.01
313.877	6.07
314.246	6.14
314.616	6.29
314.985	6.22
315.353	6.15
315.722	6.22
316.091	6.1
316.46	6.14
316.829	6.19
317.198	6.32
317.567	6.38
317.935	6.43
318.304	6.54
318.672	6.74
319.041	6.78
319.41	6.84
319.778	6.94
320.147	6.9
320.515	6.84
320.883	6.81
321.252	6.95
321.62	6.93
321.988	6.91
322.357	6.87
322.725	6.91
323.093	7
323.461	6.97
323.829	7.19
324.197	7.09
324.565	7.16
324.933	7.28
325.301	7.47
325.669	7.58
326.037	7.5
326.405	7.56
326.772	7.48
327.14	7.54
327.508	7.55
327.875	7.57
328.243	7.74
328.61	7.66
328.978	7.78
329.346	7.98
329.713	8.12
330.08	8.26
330.448	8.3
330.815	8.33
331.182	8.29
331.55	8.42
331.917	8.41
332.284	8.44
332.651	8.43
333.018	8.32
333.385	8.33
333.752	8.45
334.119	8.46
334.486	8.46
334.853	8.4
335.22	8.39
335.587	8.58
335.954	8.56
336.32	8.58
336.687	8.54
337.054	8.49
337.42	8.54
337.787	8.52
338.153	8.6
338.52	8.65
338.886	8.71
339.253	8.42
339.619	8.56
339.986	8.48
340.352	8.54
340.718	8.55
341.084	8.54
341.451	8.6
341.817	8.55
342.183	8.64
342.549	8.67
342.915	8.76
343.281	8.64
343.647	8.57
344.013	8.67
344.379	8.51
344.745	8.47
345.11	8.44
345.476	8.41
345.842	8.36
346.208	8.42
346.573	8.47
346.939	8.69
347.304	8.57
347.67	8.6
348.035	8.6
348.401	8.64
348.766	8.72
349.132	8.7
349.497	8.7
349.862	8.75
350.228	8.81
350.593	8.7
350.958	8.7
351.323	8.77
351.688	8.84
352.053	9.09
352.418	9.12
352.783	9.06
353.148	9.05
353.513	9.06
353.878	9.05
354.243	9.06
354.608	9.02
354.972	9.1
355.337	9.15
355.702	9.1
356.066	9.11
356.431	9.08
356.795	9.04
357.16	9
357.524	8.88
357.889	8.82
358.253	8.93
358.618	8.95
358.982	8.84
359.346	8.68
359.71	8.57
360.075	8.6
360.439	8.59
360.803	8.53
361.167	8.48
361.531	8.38
361.895	8.34
362.259	8.32
362.623	8.32
362.987	8.27
363.351	8.25
363.714	8.18
364.078	8.12
364.442	8.05
364.806	8.05
365.169	8.06
365.533	8.05
365.896	8
366.26	7.96
366.623	7.96
366.987	7.98
367.35	7.99
367.714	7.89
368.077	7.82
368.44	7.83
368.803	7.87
369.167	7.86
369.53	7.82
369.893	7.8
370.256	7.73
370.619	7.7
370.982	7.64
371.345	7.62
371.708	7.66
372.071	7.62
372.434	7.52
372.797	7.41
373.159	7.37
373.522	7.29
373.885	7.27
374.247	7.25
374.61	7.22
374.973	7.12
375.335	7.06
375.698	7.08
376.06	7.02
376.423	6.95
376.785	6.9
377.147	6.86
377.51	6.76
377.872	6.78
378.234	6.76
378.596	6.71
378.958	6.63
379.321	6.56
379.683	6.54
380.045	6.52
380.407	6.51
380.769	6.43
381.13	6.37
381.492	6.25
381.854	6.18
382.216	6.12
382.578	6.13
382.939	6.07
383.301	6.01
383.663	5.94
384.024	5.91
384.386	5.93
384.747	5.91
385.109	5.86
385.47	5.73
385.832	5.66
386.193	5.66
386.554	5.66
386.916	5.59
387.277	5.57
387.638	5.55
387.999	5.54
388.36	5.53
388.721	5.51
389.082	5.51
389.443	5.46
389.804	5.41
390.165	5.36
390.526	5.35
390.887	5.29
391.248	5.31
391.609	5.25
391.969	5.18
392.33	5.15
392.691	5.14
393.051	5.14
393.412	5.11
393.772	5.07
394.133	5.05
394.493	5.02
394.854	4.97
395.214	4.92
395.574	4.87
395.935	4.84
396.295	4.85
396.655	4.82
397.015	4.82
397.376	4.81
397.736	4.75
398.096	4.73
398.456	4.72
398.816	4.66
399.176	4.66
399.535	4.61
399.895	4.55
400.255	4.54
400.615	4.5
400.975	4.45
401.334	4.42
401.694	4.35
402.054	4.32
402.413	4.29
402.773	4.26
403.132	4.26
403.492	4.21
403.851	4.13
404.211	4.11
404.57	4.08
404.929	4.07
405.288	4.06
405.648	4.02
406.007	3.99
406.366	3.96
406.725	3.97
407.084	3.97
407.443	3.98
407.802	3.99
408.161	3.99
408.52	3.97
408.879	3.93
409.238	3.92
409.596	3.92
409.955	3.96
410.314	3.99
410.673	3.95
411.031	3.95
411.39	3.94
411.748	3.94
412.107	3.95
412.465	3.92
412.824	3.91
413.182	3.89
413.54	3.89
413.899	3.88
414.257	3.85
414.615	3.82
414.974	3.81
415.332	3.78
415.69	3.77
416.048	3.77
416.406	3.76
416.764	3.74
417.122	3.72
417.48	3.68
417.838	3.66
418.195	3.64
418.553	3.62
418.911	3.62
419.269	3.61
419.626	3.61
419.984	3.59
420.342	3.58
420.699	3.56
421.057	3.54
421.414	3.54
421.772	3.52
422.129	3.52
422.486	3.5
422.844	3.5
423.201	3.46
423.558	3.45
423.915	3.45
424.273	3.45
424.63	3.44
424.987	3.43
425.344	3.42
425.701	3.43
426.058	3.41
426.415	3.41
426.772	3.4
427.128	3.38
427.485	3.37
427.842	3.37
428.199	3.38
428.555	3.39
428.912	3.39
429.269	3.38
429.625	3.39
429.982	3.37
430.338	3.33
430.695	3.33
431.051	3.31
431.407	3.32
431.764	3.31
432.12	3.3
432.476	3.3
432.832	3.3
433.189	3.31
433.545	3.31
433.901	3.32
434.257	3.31
434.613	3.32
434.969	3.32
435.325	3.31
435.681	3.3
436.036	3.29
436.392	3.28
436.748	3.28
437.104	3.27
437.459	3.28
437.815	3.29
438.171	3.32
438.526	3.34
438.882	3.34
439.237	3.34
439.593	3.35
439.948	3.35
440.304	3.35
440.659	3.35
441.014	3.35
441.369	3.35
441.725	3.33
442.08	3.31
442.435	3.31
442.79	3.3
443.145	3.3
443.5	3.3
443.855	3.3
444.21	3.29
444.565	3.29
444.92	3.29
445.275	3.26
445.629	3.24
445.984	3.24
446.339	3.22
446.693	3.19
447.048	3.17
447.403	3.18
447.757	3.17
448.112	3.14
448.466	3.14
448.82	3.13
449.175	3.13
449.529	3.14
449.883	3.12
450.238	3.12
450.592	3.13
450.946	3.11
451.3	3.1
451.654	3.1
452.008	3.1
452.362	3.09
452.716	3.11
453.07	3.13
453.424	3.12
453.778	3.13
454.132	3.16
454.486	3.17
454.839	3.14
455.193	3.13
455.547	3.13
455.9	3.12
456.254	3.12
456.607	3.14
456.961	3.13
457.314	3.13
457.668	3.14
458.021	3.12
458.375	3.12
458.728	3.12
459.081	3.11
459.434	3.11
459.787	3.12
460.141	3.11
460.494	3.1
460.847	3.11
461.2	3.11
461.553	3.1
461.906	3.1
462.259	3.11
462.611	3.12
462.964	3.16
463.317	3.17
463.67	3.16
464.022	3.15
464.375	3.15
464.728	3.15
465.08	3.16
465.433	3.18
465.785	3.16
466.138	3.18
466.49	3.19
466.843	3.19
467.195	3.18
467.547	3.22
467.899	3.23
468.252	3.24
468.604	3.25
468.956	3.26
469.308	3.29
469.66	3.29
470.012	3.31
470.364	3.29
470.716	3.29
471.068	3.32
471.42	3.34
471.772	3.37
472.123	3.39
472.475	3.4
472.827	3.41
473.178	3.45
473.53	3.44
473.882	3.45
474.233	3.47
474.585	3.46
474.936	3.44
475.288	3.42
475.639	3.43
475.99	3.42
476.342	3.44
476.693	3.43
477.044	3.44
477.395	3.43
477.746	3.43
478.097	3.43
478.448	3.44
478.8	3.41
479.15	3.38
479.501	3.37
479.852	3.37
480.203	3.35
480.554	3.36
480.905	3.37
481.255	3.37
481.606	3.36
481.957	3.36
482.307	3.36
482.658	3.37
483.009	3.37
483.359	3.36
483.709	3.35
484.06	3.35
484.41	3.35
484.761	3.34
485.111	3.33
485.461	3.33
485.811	3.33
486.162	3.33
486.512	3.34
486.862	3.35
487.212	3.34
487.562	3.35
487.912	3.34
488.262	3.34
488.612	3.34
488.961	3.34
489.311	3.33
489.661	3.33
490.011	3.32
490.36	3.32
490.71	3.33
491.06	3.33
491.409	3.34
491.759	3.34
492.108	3.36
492.458	3.36
492.807	3.36
493.157	3.38
493.506	3.39
493.855	3.39
494.204	3.39
494.554	3.42
494.903	3.43
495.252	3.45
495.601	3.46
495.95	3.49
496.299	3.51
496.648	3.53
496.997	3.56
497.346	3.6
497.695	3.63
498.043	3.65
498.392	3.66
498.741	3.7
499.09	3.72
499.438	3.76
499.787	3.8
500.135	3.83
500.484	3.87
500.832	3.91
501.181	3.97
501.529	4
501.878	4.06
502.226	4.11
502.574	4.16
502.923	4.2
503.271	4.24
503.619	4.29
503.967	4.36
504.315	4.42
504.663	4.5
505.011	4.56
505.359	4.63
505.707	4.73
506.055	4.8
506.403	4.9
506.751	4.97
507.098	5.06
507.446	5.14
507.794	5.19
508.141	5.28
508.489	5.35
508.837	5.45
509.184	5.52
509.531	5.58
509.879	5.69
510.226	5.79
510.574	5.88
510.921	6
511.268	6.1
511.616	6.2
511.963	6.29
512.31	6.4
512.657	6.53
513.004	6.62
513.351	6.72
513.698	6.85
514.045	6.96
514.392	7.09
514.739	7.21
515.086	7.35
515.432	7.46
515.779	7.56
516.126	7.67
516.473	7.79
516.819	7.92
517.166	8.03
517.512	8.15
517.859	8.25
518.205	8.34
518.552	8.45
518.898	8.55
519.245	8.66
519.591	8.77
519.937	8.86
520.283	8.99
520.629	9.12
520.976	9.24
521.322	9.4
521.668	9.54
522.014	9.7
522.36	9.88
522.706	10.07
523.052	10.28
523.398	10.51
523.743	10.73
524.089	10.96
524.435	11.14
524.781	11.34
525.126	11.55
525.472	11.73
525.817	11.87
526.163	12.02
526.509	12.17
526.854	12.3
527.199	12.43
527.545	12.55
527.89	12.66
528.235	12.8
528.581	12.92
528.926	13.05
529.271	13.19
529.616	13.32
529.961	13.45
530.306	13.6
530.651	13.74
530.996	13.88
531.341	14.03
531.686	14.21
532.031	14.39
532.376	14.56
532.721	14.76
533.065	14.95
533.41	15.13
533.755	15.35
534.099	15.57
534.444	15.77
534.788	16
535.133	16.24
535.477	16.46
535.822	16.69
536.166	16.95
536.51	17.22
536.855	17.5
537.199	17.8
537.543	18.1
537.887	18.4
538.231	18.72
538.576	19.06
538.92	19.35
539.264	19.64
539.608	19.92
539.951	20.18
540.295	20.43
540.639	20.7
540.983	20.95
541.327	21.21
541.671	21.47
542.014	21.71
542.358	21.92
542.701	22.16
543.045	22.42
543.389	22.64
543.732	22.89
544.075	23.14
544.419	23.41
544.762	23.67
545.105	23.96
545.449	24.21
545.792	24.5
546.135	24.83
546.478	25.1
546.821	25.41
547.165	25.72
547.508	26.07
547.851	26.42
548.194	26.74
548.536	27.04
548.879	27.39
549.222	27.72
549.565	28.1
549.908	28.45
550.25	28.81
550.593	29.2
550.936	29.56
551.278	29.91
551.621	30.22
551.963	30.54
552.306	30.83
552.648	31.18
552.991	31.51
553.333	31.78
553.675	32.14
554.017	32.5
554.36	32.82
554.702	33.17
555.044	33.48
555.386	33.8
555.728	34.11
556.07	34.44
556.412	34.73
556.754	35.01
557.096	35.31
557.438	35.58
557.78	35.91
558.121	36.2
558.463	36.47
558.805	36.81
559.147	37.11
559.488	37.4
559.83	37.69
560.171	37.95
560.513	38.27
560.854	38.53
561.196	38.77
561.537	39.05
561.878	39.25
562.22	39.45
562.561	39.66
562.902	39.92
563.243	40.13
563.584	40.38
563.925	40.61
564.266	40.85
564.607	41.09
564.948	41.31
565.289	41.58
565.63	41.85
565.971	42.03
566.312	42.26
566.653	42.48
566.993	42.67
567.334	42.93
567.675	43.1
568.015	43.31
568.356	43.53
568.696	43.76
569.037	43.96
569.377	44.2
569.718	44.42
570.058	44.57
570.398	44.75
570.739	44.97
571.079	45.16
571.419	45.29
571.759	45.47
572.099	45.62
572.439	45.68
572.779	45.78
573.119	45.97
573.459	46.1
573.799	46.31
574.139	46.49
574.479	46.57
574.819	46.68
575.158	46.79
575.498	46.95
575.838	47.1
576.177	47.26
576.517	47.47
576.856	47.66
577.196	47.82
577.535	47.99
577.875	48.11
578.214	48.22
578.553	48.37
578.893	48.53
579.232	48.67
579.571	48.9
579.91	49.03
580.25	49.16
580.589	49.35
580.928	49.41
581.267	49.51
581.606	49.64
581.945	49.84
582.283	50.1
582.622	50.19
582.961	50.29
583.3	50.43
583.639	50.46
583.977	50.52
584.316	50.7
584.654	50.77
584.993	50.9
585.332	51.12
585.67	51.24
586.008	51.36
586.347	51.5
586.685	51.63
587.024	51.72
587.362	51.81
587.7	51.93
588.038	52.08
588.376	52.25
588.715	52.4
589.053	52.48
589.391	52.52
589.729	52.58
590.067	52.69
590.404	52.8
590.742	52.89
591.08	53.03
591.418	53.11
591.756	53.28
592.093	53.4
592.431	53.47
592.769	53.55
593.106	53.6
593.444	53.66
593.781	53.7
594.119	53.88
594.456	53.94
594.793	54
595.131	54.06
595.468	54.11
595.805	54.23
596.143	54.32
596.48	54.37
596.817	54.51
597.154	54.58
597.491	54.66
597.828	54.72
598.165	54.77
598.502	54.82
598.839	54.9
599.176	54.91
599.512	54.96
599.849	55.04
600.186	55.22
600.523	55.34
600.859	55.42
601.196	55.42
601.532	55.56
601.869	55.57
602.205	55.66
602.542	55.65
602.878	55.55
603.215	55.67
603.551	55.7
603.887	55.74
604.223	55.76
604.56	55.72
604.896	55.74
605.232	55.8
605.568	55.86
605.904	55.87
606.24	55.99
606.576	56.11
606.912	56.15
607.248	56.08
607.583	56.1
607.919	56.12
608.255	56.21
608.591	56.25
608.926	56.38
609.262	56.44
609.597	56.57
609.933	56.68
610.268	56.64
610.604	56.71
610.939	56.7
611.275	56.81
611.61	56.89
611.945	57
612.281	57.01
612.616	57.02
612.951	57.11
613.286	57.12
613.621	57.1
613.956	57.09
614.291	57.2
614.626	57.25
614.961	57.37
615.296	57.37
615.631	57.45
615.966	57.51
616.3	57.53
616.635	57.58
616.97	57.68
617.304	57.75
617.639	57.9
617.973	57.95
618.308	57.89
618.642	57.98
618.977	57.93
619.311	57.93
619.646	58
619.98	57.92
620.314	58.01
620.648	58.01
620.983	58.11
621.317	58.17
621.651	58.16
621.985	58.16
622.319	58.24
622.653	58.23
622.987	58.25
623.321	58.23
623.655	58.24
623.988	58.26
624.322	58.32
624.656	58.26
624.99	58.33
625.323	58.41
625.657	58.47
625.99	58.58
626.324	58.67
626.657	58.73
626.991	58.84
627.324	58.81
627.658	58.86
627.991	58.96
628.324	59.03
628.657	58.99
628.991	58.9
629.324	58.94
629.657	58.99
629.99	58.94
630.323	59.02
630.656	59.09
630.989	59.16
631.322	59.17
631.655	59.22
631.987	59.26
632.32	59.27
632.653	59.24
632.986	59.25
633.318	59.34
633.651	59.3
633.984	59.35
634.316	59.31
634.649	59.32
634.981	59.3
635.313	59.24
635.646	59.33
635.978	59.49
636.31	59.44
636.643	59.38
636.975	59.44
637.307	59.52
637.639	59.46
637.971	59.48
638.303	59.49
638.635	59.51
638.967	59.47
639.299	59.48
639.631	59.48
639.963	59.45
640.295	59.37
640.626	59.45
640.958	59.45
641.29	59.56
641.621	59.55
641.953	59.55
642.285	59.69
642.616	59.79
642.948	59.74
643.279	59.74
643.61	59.73
643.942	59.81
644.273	59.72
644.604	59.8
644.936	59.81
645.267	59.73
645.598	59.62
645.929	59.76
646.26	59.77
646.591	59.89
646.922	59.99
647.253	60.07
647.584	60.12
647.915	60.08
648.245	60.11
648.576	60.25
648.907	60.2
649.238	60.16
649.568	60.05
649.899	60.17
650.229	60.26
650.56	60.33
650.89	60.38
651.221	60.46
651.551	60.46
651.882	60.48
652.212	60.56
652.542	60.63
652.872	60.62
653.203	60.72
653.533	60.7
653.863	60.69
654.193	60.6
654.523	60.71
654.853	60.81
655.183	60.8
655.513	60.84
655.843	61.04
656.172	61.07
656.502	61.18
656.832	61.29
657.162	61.34
657.491	61.44
657.821	61.45
658.15	61.43
658.48	61.37
658.809	61.42
659.139	61.47
659.468	61.63
659.798	61.63
660.127	61.59
660.456	61.59
660.785	61.61
661.115	61.7
661.444	61.71
661.773	61.75
662.102	61.82
662.431	61.71
662.76	61.86
663.089	61.79
663.418	61.97
663.747	61.86
664.076	61.84
664.404	61.83
664.733	61.76
665.062	61.77
665.39	61.82
665.719	61.83
666.048	61.85
666.376	61.76
666.705	61.71
667.033	61.77
667.362	61.73
667.69	61.61
668.018	61.61
668.347	61.58
668.675	61.58
669.003	61.46
669.331	61.64
669.659	61.51
669.987	61.58
670.315	61.34
670.643	61.4
670.971	61.24
671.299	61.14
671.627	61.14
671.955	61.23
672.283	61.31
672.61	61.22
672.938	61.23
673.266	61.14
673.593	61.23
673.921	61.12
674.249	61.1
674.576	61.19
674.904	61.18
675.231	61
675.558	60.84
675.886	60.9
676.213	60.88
676.54	60.97
676.867	60.98
677.195	61.14
677.522	61.2
677.849	61.39
678.176	61.42
678.503	61.5
678.83	61.45
679.157	61.39
679.484	61.43
679.81	61.55
680.137	61.58
680.464	61.45
680.791	61.51
681.117	61.61
681.444	61.71
681.771	61.75
682.097	61.83
682.424	61.99
682.75	62.15
683.077	62.07
683.403	61.87
683.729	61.85
684.056	61.7
684.382	61.61
684.708	61.63
685.034	61.6
685.36	61.55
685.686	61.55
686.012	61.69
686.339	61.7
686.664	61.62
686.99	61.79
687.316	61.87
687.642	61.98
687.968	62.08
688.294	62.1
688.619	62.09
688.945	62.11
689.271	62.15
689.596	62.04
689.922	62.2
690.247	62.28
690.573	62.23
690.898	62.48
691.224	62.5
691.549	62.47
691.874	62.51
692.2	62.59
692.525	62.62
692.85	62.47
693.175	62.48
693.5	62.47
693.825	62.29
694.15	62.33
694.475	62.32
694.8	62.38
695.125	62.23
695.45	62.13
695.775	62.36
696.099	62.29
696.424	62.23
696.749	62.19
697.073	62.1
697.398	62.25
697.723	62.13
698.047	62.09
698.372	62.21
698.696	62.34
699.02	62.37
699.345	62.37
699.669	62.42
699.993	62.36
700.318	62.48
700.642	62.53
700.966	62.49
701.29	62.42
701.614	62.41
701.938	62.36
702.262	62.53
702.586	62.4
702.91	62.45
703.234	62.56
703.557	62.51
703.881	62.73
704.205	62.71
704.529	62.73
704.852	62.91
705.176	62.88
705.499	62.85
705.823	62.61
706.146	62.62
706.47	62.61
706.793	62.79
707.117	62.58
707.44	62.58
707.763	62.66
708.086	62.74
708.409	62.84
708.733	63
709.056	62.84
709.379	62.76
709.702	62.94
710.025	62.87
710.348	62.8
710.671	62.8
710.993	62.77
711.316	62.82
711.639	62.73
711.962	62.59
712.284	62.58
712.607	62.54
712.93	62.49
713.252	62.46
713.575	62.36
713.897	62.48
714.22	62.53
714.542	62.48
714.864	62.41
715.187	62.14
715.509	62.11
715.831	62.13
716.153	62.29
716.475	62.11
716.798	62.14
717.12	62.16
717.442	62.06
717.764	62.17
718.085	61.96
718.407	61.98
718.729	61.96
719.051	61.96
719.373	62.14
719.695	62.15
720.016	62.31
720.338	62.55
720.659	62.48
720.981	62.51
721.302	62.73
721.624	62.72
721.945	62.72
722.267	62.88
722.588	63.11
722.909	62.98
723.231	62.77
723.552	62.71
723.873	62.83
724.194	62.84
724.515	62.62
724.836	62.72
725.157	62.62
725.478	62.83
725.799	62.83
726.12	62.66
726.441	62.68
726.762	62.48
727.083	62.33
727.403	62.54
727.724	62.57
728.045	62.53
728.365	62.53
728.686	62.85
729.006	62.67
729.327	62.77
729.647	62.62
729.967	62.71
730.288	62.61
730.608	62.6
730.928	62.64
731.249	62.95
731.569	63.13
731.889	63.15
732.209	63.11
732.529	63
732.849	63.3
733.169	63.24
733.489	63.24
733.809	63.21
734.129	62.95
734.448	62.86
734.768	62.67
735.088	62.7
735.408	62.52
735.727	62.5
736.047	62.41
736.366	62.54
736.686	62.85
737.005	63.17
737.325	63.12
737.644	63.1
737.963	62.89
738.283	62.77
738.602	62.83
738.921	62.85
739.24	62.94
739.56	62.63
739.879	62.79
740.198	62.81
740.517	62.72
740.836	62.84
741.155	63.01
741.473	63.31
741.792	63.43
742.111	63.28
742.43	63.35
742.748	63.16
743.067	63.51
743.386	63.37
743.704	63.17
744.023	63.22
744.341	63.23
744.66	63.29
744.978	63.36
745.297	63.3
745.615	63.39
745.933	63.58
746.252	63.67
746.57	63.76
746.888	64.2
747.206	64.31
747.524	64.56
747.842	64.65
748.16	64.44
748.478	64.23
748.796	64.54
749.114	65.1
749.432	64.89
749.749	64.57
750.067	64.39
750.385	64.64
750.703	64.7
751.02	64.76
751.338	64.8
751.655	64.76
751.973	65.13
752.29	65.08
752.608	64.86
752.925	65.07
753.242	64.93
753.56	64.43
753.877	64.43
754.194	64.34
754.511	64.14
754.828	64.07
755.145	64.16
755.462	63.98
755.779	63.25
756.096	63.59
756.413	63.34
756.73	63.47
757.047	63.12
757.364	63.12
757.68	63.05
757.997	62.87
758.314	62.98
758.63	62.61
758.947	62.49
759.264	62.63
759.58	62.54
759.896	62.51
760.213	62.66
760.529	62.75
760.846	62.44
761.162	62.25
761.478	62.38
761.794	62.36
762.11	62.52
762.426	62.7
762.743	62.59
763.059	62.75
763.375	63.03
763.69	63.33
764.006	63.33
764.322	63.48
764.638	63.52
764.954	63.4
765.27	63.7
765.585	63.72
765.901	63.67
766.216	63.51
766.532	63.66
766.848	63.69
767.163	63.81
767.478	64.02
767.794	64.34
768.109	64.15
768.424	64.3
768.74	64.18
769.055	64.45
769.37	64.72
769.685	64.54
770	64.29
770.315	64.25
770.63	64.05
770.945	64.19
771.26	63.89
771.575	64.19
771.89	64.13
772.205	64.14
772.52	64.27
772.834	64.64
773.149	64.57
773.464	64.86
773.778	64.8
774.093	64.85
774.407	64.96
774.722	65.63
775.036	65.82
775.351	66.23
775.665	65.87
775.979	65.84
776.293	66.42
776.608	66.49
776.922	65.89
777.236	66.15
777.55	65.88
777.864	66.8
778.178	67.05
778.492	66.83
778.806	66.22
779.12	65.92
779.434	65.53
779.747	65.74
780.061	65.48
780.375	65.16
780.689	65.44
781.002	65.26
781.316	64.69
781.629	64.69
781.943	64.68
782.256	65.26
782.57	65.02
782.883	64.32
783.196	64.35
783.51	65.03
783.823	65.01
784.136	65.2
784.449	64.77
784.762	64.47
785.075	64.14
785.388	65.1
785.701	65.03
786.014	65.26
786.327	65.69
786.64	65.8
786.953	65.9
787.266	65.41
787.578	65.34
787.891	65.37
788.204	64.92
788.516	64.45
788.829	63.96
789.141	64.16
789.454	64.9
789.766	64.6
790.079	64.75
790.391	65.09
790.703	65.16
791.016	64.66
791.328	64.43
791.64	64.7
791.952	64.45
792.264	64.59
792.576	64.31
792.888	63.54
793.2	63.62
793.512	63.85
793.824	63.96
794.136	63.81
794.448	63.94
794.76	64.32
795.071	63.94
795.383	63.78
795.695	63.83
796.006	63.58
796.318	63.85
796.629	63.8
796.941	63.32
797.252	63.01
797.564	63.65
797.875	63.83
798.186	63.79
798.497	63.97
798.809	63.8
799.12	64.01
799.431	63.91
799.742	63.78
800.053	63.66
800.364	64.05
800.675	64.55
800.986	64.64
801.297	64.6
801.608	65.38
801.918	65.66
802.229	65.77
802.54	66.22
802.851	65.95
803.161	65.51
803.472	65.57
803.782	65.72
804.093	65.29
804.403	64.99
804.714	65.57
805.024	65.29
805.334	65.44
805.645	65.52
805.955	65.41
806.265	65.81
806.575	65.4
806.885	64.88
807.195	65.23
807.505	64.98
807.815	64.62
808.125	64.41
808.435	63.92
808.745	63.49
809.055	63.26
809.365	63.56
809.674	64.24
809.984	64.33
810.294	64.67
810.603	65.2
810.913	66.41
811.222	66.44
811.532	66.95
811.841	67.21
812.151	67.52
812.46	67.96
812.769	68.24
813.079	68.1
813.388	67.69
813.697	67
814.006	67.76
814.315	67.87
814.624	68.06
814.933	68.64
815.242	68.77
815.551	68.38
815.86	68.61
816.169	68.28
816.478	68.06
816.786	67.23
817.095	67.83
817.404	66.65
817.712	65.24
818.021	64.4
818.33	64.43
818.638	64.38
818.947	64.12
819.255	63.93
819.563	64.23
819.872	64.36
820.18	64.45
820.488	64.11
820.796	64.12
821.105	64.34
821.413	64.36
821.721	64.29
822.029	63.99
822.337	63.75
822.645	63.64
822.953	63.71
823.26	63.66
823.568	63.46
823.876	63.55
824.184	63.65
824.491	63.76
824.799	63.68
825.107	63.71
825.414	63.53
825.722	63.4
826.029	63.33
826.337	63.35
826.644	63.2
826.951	63.14
827.259	63.13
827.566	62.91
827.873	62.9
828.18	63.04
828.488	63.33
828.795	63.51
829.102	63.73
829.409	63.71
829.716	63.99
830.023	63.96
830.329	64.08
830.636	64.34
830.943	64.36
831.25	64.26
831.557	64.36
831.863	64.73
832.17	64.87
832.476	64.98
832.783	65.07
833.089	64.81
833.396	65.62
833.702	65.6
834.009	65.97
834.315	65.84
834.621	65.62
834.928	65.63
835.234	65.76
835.54	64.99
835.846	65.03
836.152	65.03
836.458	65.31
836.764	65.49
837.07	65.88
837.376	66.05
837.682	66.35
837.988	66.25
838.293	66.78
838.599	67.29
838.905	67.37
839.211	67.34
839.516	68.34
839.822	67.68
840.127	68.35
840.433	67.83
840.738	67.99
841.044	67.91
841.349	69.09
841.654	68.68
841.959	70.05
842.265	70.12
842.57	70.85
842.875	70.73
843.18	70.15
843.485	69.8
843.79	68.88
844.095	69.21
844.4	69.25
844.705	67.9
845.01	67.97
845.315	68.65
845.619	69.31
845.924	68.27
846.229	68.23
846.533	68.35
846.838	67.56
847.142	68.4
847.447	68.32
847.751	65.19
848.056	64.51
848.36	65.64
848.664	66.06
848.969	64.32
849.273	64.43
849.577	62.32
849.881	62.01
850.185	64.8
850.489	64.81
850.794	65.44
851.097	67.25
851.401	65.64
851.705	63.99
852.009	64.25
852.313	63.79
852.617	64.77
852.92	63.35
853.224	66.45
853.528	64.24
853.831	65.65
854.135	68.41
854.438	69.18
854.742	65.8
855.045	65.87
855.349	66.79
855.652	67.86
855.955	70.22
856.259	69.66
856.562	66.52
856.865	65.76
857.168	62.52
857.471	63.79
857.774	63.33
858.077	64.78
858.38	64.62
858.683	65.83
858.986	64.63
859.289	66.51
859.592	63.45
859.894	65.53
860.197	63.41
860.5	62.22
860.802	62.32
861.105	64.07
861.407	64.49
861.71	63.69
862.012	61.27
862.315	61.87
862.617	60.42
862.919	60.9
863.222	63.16
863.524	65.04
863.826	63.28
864.128	63.58
864.43	63.68
864.732	62.85
865.034	63.24
865.336	61.83
865.638	60.26
865.94	61.14
866.242	59.71
866.544	61.54
866.846	63.91
867.147	63.91
867.449	64.02
867.751	62.24
868.052	63.27
868.354	63.59
868.655	62.88
868.957	65.49
869.258	66.64
869.56	67.58
869.861	68.05
870.162	67.41
870.463	69.36
870.765	70.19
871.066	70.39
871.367	69.75
871.668	71.34
871.969	72.07
872.27	71.28
872.571	72.49
872.872	70.03
873.173	67.3
873.473	69.42
873.774	68.76
874.075	71.15
874.376	70.84
874.676	71.15
874.977	67.9
875.277	65.09
875.578	66.6
875.878	64.05
876.179	64.55
876.479	65.58
876.78	63.63
877.08	62.15
877.38	61.96
877.68	62.53
877.981	62.08
878.281	61.77
878.581	62.55
