Data from BA28416_Reflection_00013.txt Node
Date: Mon Nov 18 16:05:40 EST 2019
User: vgr7
Spectrometer: USB2G7710
Scans to average: 3
Trigger mode: 4
Integration Time (sec): 2.000000E-2
Electric dark correction enabled: true
Boxcar width: 10
XAxis mode: Wavelengths
Number of Pixels in Spectrum: 2048
>>>>>Begin Spectral Data<<<<<
177.721	-14.72
178.105	65.52
178.488	114.15
178.871	1306.9
179.254	-734.71
179.636	-112.77
180.019	-1654.1
180.402	62.22
180.785	-30.04
181.168	-8.96
181.55	-22.48
181.933	35.24
182.316	50.21
182.698	34.14
183.081	46.69
183.463	42.11
183.846	31.02
184.228	43.08
184.611	33.68
184.993	31.82
185.376	8.44
185.758	15.29
186.14	33.6
186.522	27.21
186.904	25.08
187.287	20.77
187.669	7.85
188.051	9.77
188.433	3.01
188.815	33.73
189.197	21.86
189.579	5.3
189.961	48.07
190.342	24.65
190.724	19.9
191.106	-27.38
191.488	-54.46
191.869	-45.26
192.251	-34.31
192.633	3.61
193.014	-29.27
193.396	16.93
193.777	1.2
194.159	-21.89
194.54	73.35
194.922	-85.96
195.303	-498.75
195.684	-445.71
196.065	-139.67
196.447	-118.16
196.828	-39.24
197.209	-38.36
197.59	-58.86
197.971	-54.57
198.352	-30.25
198.733	-76.19
199.114	-51.11
199.495	-54.94
199.876	-51.49
200.257	-47.31
200.638	-5.14
201.018	-6.87
201.399	-7.57
201.78	-26.61
202.16	-35.74
202.541	-58.6
202.922	-160.17
203.302	-127.95
203.683	-307.74
204.063	-498.75
204.444	-123.39
204.824	-158.31
205.204	-176.6
205.585	14.08
205.965	10.92
206.345	-103.41
206.725	-1300
207.106	403.94
207.486	202.45
207.866	212.21
208.246	120.55
208.626	151.1
209.006	262.55
209.386	320.28
209.766	300.45
210.145	193.94
210.525	95.4
210.905	58.83
211.285	37.33
211.664	98.94
212.044	67.55
212.424	107.28
212.803	110.17
213.183	90.82
213.562	109.91
213.942	144.43
214.321	145.94
214.701	137.9
215.08	134.85
215.459	138.6
215.838	243.76
216.218	1621.74
216.597	428.6
216.976	821.36
217.355	7100
217.734	899.33
218.113	-3106.19
218.492	-1413.83
218.871	-388.42
219.25	-401.61
219.629	-643.07
220.008	-738.26
220.387	-513.24
220.766	-261.65
221.144	-462.06
221.523	-333.14
221.902	-498.03
222.28	8684.91
222.659	-720.84
223.037	-275.1
223.416	-328.8
223.794	-231.31
224.173	-187.49
224.551	-101.58
224.929	-93.89
225.308	-66.41
225.686	-48.18
226.064	-40.77
226.442	-22.77
226.821	-21.37
227.199	-17.56
227.577	-13.94
227.955	-11.39
228.333	-9.85
228.711	-8.29
229.089	-3.05
229.467	-5.22
229.845	-5.67
230.222	-4.03
230.6	-2.24
230.978	-2.11
231.356	2.58
231.733	4.37
232.111	3.56
232.488	3.95
232.866	5.55
233.243	5.72
233.621	4.79
233.998	5.06
234.376	4.47
234.753	4.47
235.13	4.1
235.508	5.89
235.885	6.25
236.262	5.17
236.639	4.31
237.016	3.01
237.393	2.41
237.77	2.19
238.147	3.08
238.524	2.09
238.901	2.67
239.278	1.72
239.655	2.21
240.032	2.55
240.409	2.62
240.785	2.31
241.162	3.06
241.539	3.49
241.915	3.39
242.292	2.97
242.668	3.21
243.045	3.47
243.421	3.23
243.798	3.07
244.174	3.21
244.551	3.27
244.927	3.51
245.303	3.82
245.679	3.83
246.056	3.54
246.432	3.73
246.808	3.58
247.184	3.38
247.56	3.07
247.936	2.98
248.312	2.93
248.688	3.15
249.064	3.04
249.44	2.88
249.815	2.84
250.191	3.09
250.567	3.22
250.943	2.95
251.318	3.24
251.694	3.14
252.069	3.47
252.445	3.57
252.82	3.53
253.196	3.3
253.571	3.25
253.947	3.51
254.322	3.62
254.697	3.61
255.073	4.02
255.448	4.17
255.823	4.2
256.198	4.35
256.573	4.18
256.948	4.19
257.323	4.27
257.698	4.29
258.073	4.12
258.448	3.86
258.823	3.88
259.198	3.57
259.573	3.68
259.948	3.47
260.322	3.35
260.697	3.25
261.072	3.19
261.446	3.21
261.821	3.2
262.195	3.02
262.57	3.08
262.944	3
263.319	2.97
263.693	2.89
264.067	2.86
264.442	2.89
264.816	2.65
265.19	2.51
265.564	2.69
265.938	2.68
266.313	2.7
266.687	2.87
267.061	2.98
267.435	2.78
267.809	2.82
268.183	2.76
268.556	2.75
268.93	2.98
269.304	3.1
269.678	3.14
270.051	3.13
270.425	3.11
270.799	3.14
271.172	3.14
271.546	3.06
271.919	2.9
272.293	2.78
272.666	3.15
273.04	3.14
273.413	3.01
273.787	3.11
274.16	3.27
274.533	3.11
274.906	2.99
275.279	3.12
275.653	3.13
276.026	3.15
276.399	3.16
276.772	3.17
277.145	3
277.518	3.08
277.891	3.18
278.263	3.18
278.636	3.12
279.009	3.07
279.382	3.35
279.755	3.38
280.127	3.6
280.5	3.5
280.872	3.69
281.245	3.66
281.617	3.7
281.99	3.7
282.362	3.81
282.735	3.78
283.107	3.91
283.479	3.93
283.852	4
284.224	3.95
284.596	3.93
284.968	3.93
285.34	3.86
285.713	3.87
286.085	3.9
286.457	4.05
286.829	4.03
287.201	3.99
287.572	4.03
287.944	3.85
288.316	3.88
288.688	3.7
289.06	3.67
289.431	3.6
289.803	3.52
290.175	3.57
290.546	3.77
290.918	3.63
291.289	3.63
291.661	3.72
292.032	3.87
292.403	3.82
292.775	3.9
293.146	3.79
293.517	3.82
293.889	3.92
294.26	3.77
294.631	3.82
295.002	3.82
295.373	3.86
295.744	3.97
296.115	3.84
296.486	3.94
296.857	3.96
297.228	3.93
297.599	3.77
297.97	3.78
298.34	3.61
298.711	3.63
299.082	3.61
299.452	3.49
299.823	3.6
300.194	3.6
300.564	3.48
300.935	3.54
301.305	3.45
301.676	3.51
302.046	3.6
302.416	3.63
302.787	3.66
303.157	3.63
303.527	3.64
303.897	3.67
304.267	3.75
304.637	3.9
305.008	4.02
305.378	4.31
305.748	4.29
306.117	4.35
306.487	4.45
306.857	4.47
307.227	4.47
307.597	4.39
307.967	4.5
308.336	4.59
308.706	4.7
309.076	4.7
309.445	4.51
309.815	4.52
310.184	4.57
310.554	4.55
310.923	4.49
311.293	4.57
311.662	4.66
312.031	4.57
312.401	4.41
312.77	4.38
313.139	4.44
313.508	4.4
313.877	4.54
314.246	4.5
314.616	4.54
314.985	4.63
315.353	4.6
315.722	4.62
316.091	4.62
316.46	4.48
316.829	4.59
317.198	4.78
317.567	4.8
317.935	4.83
318.304	4.72
318.672	4.79
319.041	4.81
319.41	4.71
319.778	4.87
320.147	4.92
320.515	4.92
320.883	4.9
321.252	5.03
321.62	5.04
321.988	4.91
322.357	4.93
322.725	4.91
323.093	4.91
323.461	4.75
323.829	4.82
324.197	4.99
324.565	4.92
324.933	4.87
325.301	4.95
325.669	4.93
326.037	4.96
326.405	5.06
326.772	4.98
327.14	5.12
327.508	5.11
327.875	5.18
328.243	5.31
328.61	5.29
328.978	5.33
329.346	5.34
329.713	5.34
330.08	5.25
330.448	5.23
330.815	5.23
331.182	5.42
331.55	5.55
331.917	5.63
332.284	5.65
332.651	5.71
333.018	5.53
333.385	5.6
333.752	5.76
334.119	5.77
334.486	5.67
334.853	5.68
335.22	5.59
335.587	5.69
335.954	5.6
336.32	5.55
336.687	5.55
337.054	5.59
337.42	5.73
337.787	5.77
338.153	5.78
338.52	5.92
338.886	5.86
339.253	5.76
339.619	5.67
339.986	5.77
340.352	5.77
340.718	5.9
341.084	5.78
341.451	5.8
341.817	5.81
342.183	5.95
342.549	5.97
342.915	6.06
343.281	6.04
343.647	6.06
344.013	6.13
344.379	6.19
344.745	6.26
345.11	6.22
345.476	6.28
345.842	6.29
346.208	6.2
346.573	6.24
346.939	6.37
347.304	6.28
347.67	6.12
348.035	6
348.401	6
348.766	6.14
349.132	6.15
349.497	6.05
349.862	6.15
350.228	6.09
350.593	6.01
350.958	6.06
351.323	6.11
351.688	6.09
352.053	5.99
352.418	5.99
352.783	6.09
353.148	6.07
353.513	6.11
353.878	6.15
354.243	6.21
354.608	6.11
354.972	6.21
355.337	6.38
355.702	6.45
356.066	6.55
356.431	6.51
356.795	6.5
357.16	6.54
357.524	6.47
357.889	6.45
358.253	6.51
358.618	6.49
358.982	6.44
359.346	6.42
359.71	6.37
360.075	6.3
360.439	6.33
360.803	6.33
361.167	6.28
361.531	6.25
361.895	6.13
362.259	6.06
362.623	6.03
362.987	6.01
363.351	6.03
363.714	5.97
364.078	5.94
364.442	5.86
364.806	5.85
365.169	5.82
365.533	5.86
365.896	5.78
366.26	5.73
366.623	5.68
366.987	5.68
367.35	5.74
367.714	5.79
368.077	5.67
368.44	5.64
368.803	5.66
369.167	5.57
369.53	5.62
369.893	5.68
370.256	5.66
370.619	5.61
370.982	5.53
371.345	5.41
371.708	5.36
372.071	5.32
372.434	5.26
372.797	5.24
373.159	5.14
373.522	5.17
373.885	5.18
374.247	5.14
374.61	5.15
374.973	5.05
375.335	4.93
375.698	4.94
376.06	4.91
376.423	4.88
376.785	4.94
377.147	4.97
377.51	4.93
377.872	4.94
378.234	4.92
378.596	4.94
378.958	4.97
379.321	5
379.683	5.04
380.045	5.07
380.407	5.03
380.769	5.04
381.13	4.96
381.492	4.91
381.854	4.98
382.216	4.94
382.578	4.99
382.939	4.97
383.301	4.94
383.663	4.89
384.024	4.85
384.386	4.85
384.747	4.83
385.109	4.82
385.47	4.74
385.832	4.72
386.193	4.7
386.554	4.65
386.916	4.62
387.277	4.57
387.638	4.55
387.999	4.52
388.36	4.51
388.721	4.54
389.082	4.54
389.443	4.47
389.804	4.41
390.165	4.35
390.526	4.4
390.887	4.35
391.248	4.37
391.609	4.35
391.969	4.29
392.33	4.23
392.691	4.18
393.051	4.16
393.412	4.16
393.772	4.14
394.133	4.12
394.493	4.11
394.854	4.07
395.214	4.01
395.574	4.01
395.935	3.96
396.295	3.98
396.655	3.94
397.015	3.91
397.376	3.9
397.736	3.88
398.096	3.84
398.456	3.85
398.816	3.85
399.176	3.84
399.535	3.8
399.895	3.77
400.255	3.81
400.615	3.81
400.975	3.76
401.334	3.74
401.694	3.71
402.054	3.68
402.413	3.68
402.773	3.7
403.132	3.66
403.492	3.65
403.851	3.58
404.211	3.57
404.57	3.54
404.929	3.57
405.288	3.57
405.648	3.56
406.007	3.56
406.366	3.5
406.725	3.5
407.084	3.51
407.443	3.49
407.802	3.51
408.161	3.5
408.52	3.49
408.879	3.46
409.238	3.49
409.596	3.5
409.955	3.5
410.314	3.46
410.673	3.46
411.031	3.45
411.39	3.46
411.748	3.46
412.107	3.52
412.465	3.47
412.824	3.46
413.182	3.42
413.54	3.41
413.899	3.42
414.257	3.39
414.615	3.4
414.974	3.39
415.332	3.34
415.69	3.31
416.048	3.31
416.406	3.29
416.764	3.25
417.122	3.23
417.48	3.21
417.838	3.23
418.195	3.22
418.553	3.21
418.911	3.2
419.269	3.2
419.626	3.17
419.984	3.17
420.342	3.17
420.699	3.18
421.057	3.19
421.414	3.19
421.772	3.19
422.129	3.19
422.486	3.19
422.844	3.18
423.201	3.18
423.558	3.17
423.915	3.18
424.273	3.17
424.63	3.16
424.987	3.16
425.344	3.14
425.701	3.14
426.058	3.16
426.415	3.15
426.772	3.14
427.128	3.15
427.485	3.16
427.842	3.13
428.199	3.12
428.555	3.09
428.912	3.09
429.269	3.1
429.625	3.07
429.982	3.05
430.338	3.05
430.695	3.05
431.051	3.05
431.407	3.03
431.764	3.05
432.12	3.05
432.476	3.05
432.832	3.04
433.189	3.04
433.545	3.01
433.901	3.02
434.257	3
434.613	2.99
434.969	2.98
435.325	2.99
435.681	3
436.036	3.01
436.392	3
436.748	2.98
437.104	2.97
437.459	2.98
437.815	2.98
438.171	2.97
438.526	2.98
438.882	2.98
439.237	2.99
439.593	2.98
439.948	2.99
440.304	3
440.659	3
441.014	3
441.369	2.99
441.725	3
442.08	3
442.435	3
442.79	3
443.145	2.98
443.5	2.98
443.855	2.96
444.21	2.97
444.565	2.97
444.92	2.98
445.275	2.99
445.629	2.99
445.984	2.98
446.339	2.97
446.693	2.95
447.048	2.94
447.403	2.94
447.757	2.94
448.112	2.93
448.466	2.92
448.82	2.93
449.175	2.93
449.529	2.92
449.883	2.91
450.238	2.9
450.592	2.9
450.946	2.89
451.3	2.9
451.654	2.89
452.008	2.89
452.362	2.86
452.716	2.86
453.07	2.87
453.424	2.87
453.778	2.89
454.132	2.89
454.486	2.9
454.839	2.89
455.193	2.88
455.547	2.88
455.9	2.88
456.254	2.87
456.607	2.86
456.961	2.85
457.314	2.85
457.668	2.88
458.021	2.87
458.375	2.86
458.728	2.87
459.081	2.87
459.434	2.88
459.787	2.89
460.141	2.89
460.494	2.9
460.847	2.88
461.2	2.88
461.553	2.88
461.906	2.89
462.259	2.89
462.611	2.9
462.964	2.91
463.317	2.93
463.67	2.92
464.022	2.92
464.375	2.93
464.728	2.94
465.08	2.92
465.433	2.94
465.785	2.97
466.138	2.96
466.49	2.98
466.843	2.98
467.195	2.99
467.547	2.98
467.899	2.98
468.252	2.99
468.604	3
468.956	3
469.308	3.02
469.66	3.02
470.012	3.05
470.364	3.03
470.716	3.02
471.068	3.03
471.42	3.04
471.772	3.07
472.123	3.09
472.475	3.11
472.827	3.12
473.178	3.12
473.53	3.13
473.882	3.14
474.233	3.15
474.585	3.15
474.936	3.14
475.288	3.12
475.639	3.12
475.99	3.13
476.342	3.13
476.693	3.1
477.044	3.11
477.395	3.09
477.746	3.09
478.097	3.09
478.448	3.09
478.8	3.09
479.15	3.07
479.501	3.05
479.852	3.05
480.203	3.04
480.554	3.04
480.905	3.04
481.255	3.03
481.606	3.03
481.957	3.05
482.307	3.05
482.658	3.05
483.009	3.04
483.359	3.04
483.709	3.04
484.06	3.04
484.41	3.03
484.761	3.04
485.111	3.04
485.461	3.04
485.811	3.04
486.162	3.03
486.512	3.05
486.862	3.05
487.212	3.04
487.562	3.04
487.912	3.04
488.262	3.05
488.612	3.05
488.961	3.04
489.311	3.04
489.661	3.05
490.011	3.07
490.36	3.07
490.71	3.07
491.06	3.07
491.409	3.09
491.759	3.1
492.108	3.1
492.458	3.1
492.807	3.1
493.157	3.11
493.506	3.12
493.855	3.11
494.204	3.13
494.554	3.14
494.903	3.16
495.252	3.17
495.601	3.18
495.95	3.21
496.299	3.22
496.648	3.24
496.997	3.25
497.346	3.29
497.695	3.31
498.043	3.34
498.392	3.37
498.741	3.39
499.09	3.4
499.438	3.45
499.787	3.49
500.135	3.54
500.484	3.58
500.832	3.61
501.181	3.65
501.529	3.65
501.878	3.71
502.226	3.76
502.574	3.81
502.923	3.83
503.271	3.86
503.619	3.92
503.967	3.96
504.315	4.01
504.663	4.04
505.011	4.07
505.359	4.14
505.707	4.18
506.055	4.22
506.403	4.29
506.751	4.35
507.098	4.42
507.446	4.49
507.794	4.52
508.141	4.6
508.489	4.67
508.837	4.75
509.184	4.81
509.531	4.87
509.879	4.94
510.226	5.03
510.574	5.09
510.921	5.15
511.268	5.22
511.616	5.28
511.963	5.37
512.31	5.45
512.657	5.53
513.004	5.62
513.351	5.71
513.698	5.81
514.045	5.88
514.392	5.96
514.739	6.03
515.086	6.15
515.432	6.24
515.779	6.33
516.126	6.43
516.473	6.51
516.819	6.58
517.166	6.66
517.512	6.74
517.859	6.85
518.205	6.92
518.552	6.99
518.898	7.07
519.245	7.16
519.591	7.27
519.937	7.34
520.283	7.44
520.629	7.55
520.976	7.66
521.322	7.78
521.668	7.9
522.014	8.06
522.36	8.19
522.706	8.33
523.052	8.49
523.398	8.68
523.743	8.87
524.089	9.05
524.435	9.24
524.781	9.42
525.126	9.59
525.472	9.73
525.817	9.88
526.163	10.02
526.509	10.15
526.854	10.25
527.199	10.38
527.545	10.49
527.89	10.62
528.235	10.74
528.581	10.86
528.926	10.99
529.271	11.12
529.616	11.25
529.961	11.4
530.306	11.54
530.651	11.67
530.996	11.83
531.341	11.99
531.686	12.15
532.031	12.32
532.376	12.5
532.721	12.7
533.065	12.91
533.41	13.1
533.755	13.32
534.099	13.56
534.444	13.79
534.788	14.02
535.133	14.22
535.477	14.44
535.822	14.69
536.166	14.95
536.51	15.23
536.855	15.53
537.199	15.81
537.543	16.12
537.887	16.46
538.231	16.77
538.576	17.06
538.92	17.33
539.264	17.61
539.608	17.89
539.951	18.16
540.295	18.42
540.639	18.69
540.983	18.92
541.327	19.14
541.671	19.37
542.014	19.59
542.358	19.84
542.701	20.07
543.045	20.3
543.389	20.55
543.732	20.78
544.075	21.02
544.419	21.28
544.762	21.56
545.105	21.81
545.449	22.09
545.792	22.42
546.135	22.78
546.478	23.12
546.821	23.46
547.165	23.8
547.508	24.13
547.851	24.49
548.194	24.83
548.536	25.18
548.879	25.56
549.222	25.95
549.565	26.29
549.908	26.7
550.25	27.05
550.593	27.42
550.936	27.77
551.278	28.14
551.621	28.53
551.963	28.8
552.306	29.22
552.648	29.56
552.991	29.88
553.333	30.23
553.675	30.52
554.017	30.84
554.36	31.15
554.702	31.42
555.044	31.7
555.386	31.99
555.728	32.37
556.07	32.65
556.412	32.98
556.754	33.36
557.096	33.69
557.438	34.04
557.78	34.33
558.121	34.63
558.463	34.96
558.805	35.21
559.147	35.57
559.488	35.83
559.83	36.13
560.171	36.46
560.513	36.69
560.854	36.99
561.196	37.28
561.537	37.57
561.878	37.89
562.22	38.15
562.561	38.45
562.902	38.7
563.243	38.95
563.584	39.17
563.925	39.34
564.266	39.54
564.607	39.81
564.948	40.08
565.289	40.31
565.63	40.49
565.971	40.7
566.312	40.91
566.653	41.15
566.993	41.34
567.334	41.53
567.675	41.78
568.015	42.04
568.356	42.19
568.696	42.45
569.037	42.7
569.377	42.92
569.718	43.13
570.058	43.27
570.398	43.48
570.739	43.68
571.079	43.91
571.419	44.12
571.759	44.26
572.099	44.42
572.439	44.63
572.779	44.8
573.119	45.02
573.459	45.23
573.799	45.36
574.139	45.5
574.479	45.62
574.819	45.81
575.158	45.96
575.498	46.11
575.838	46.24
576.177	46.35
576.517	46.48
576.856	46.65
577.196	46.84
577.535	47.01
577.875	47.2
578.214	47.33
578.553	47.43
578.893	47.59
579.232	47.74
579.571	47.9
579.91	48.13
580.25	48.28
580.589	48.37
580.928	48.49
581.267	48.71
581.606	48.87
581.945	48.98
582.283	49.11
582.622	49.28
582.961	49.41
583.3	49.51
583.639	49.71
583.977	49.77
584.316	49.85
584.654	49.94
584.993	50.02
585.332	50.17
585.67	50.37
586.008	50.5
586.347	50.67
586.685	50.75
587.024	50.81
587.362	50.96
587.7	51.07
588.038	51.16
588.376	51.17
588.715	51.27
589.053	51.42
589.391	51.57
589.729	51.67
590.067	51.8
590.404	51.94
590.742	52.08
591.08	52.23
591.418	52.44
591.756	52.53
592.093	52.65
592.431	52.75
592.769	52.81
593.106	52.9
593.444	52.91
593.781	52.99
594.119	53.1
594.456	53.15
594.793	53.26
595.131	53.35
595.468	53.51
595.805	53.57
596.143	53.61
596.48	53.65
596.817	53.75
597.154	53.79
597.491	53.87
597.828	53.91
598.165	53.96
598.502	53.98
598.839	54.08
599.176	54.18
599.512	54.21
599.849	54.24
600.186	54.36
600.523	54.41
600.859	54.57
601.196	54.65
601.532	54.69
601.869	54.67
602.205	54.76
602.542	54.85
602.878	54.95
603.215	55
603.551	55.07
603.887	55.12
604.223	55.16
604.56	55.18
604.896	55.24
605.232	55.28
605.568	55.3
605.904	55.35
606.24	55.34
606.576	55.47
606.912	55.57
607.248	55.57
607.583	55.7
607.919	55.7
608.255	55.62
608.591	55.79
608.926	55.92
609.262	56.04
609.597	56.08
609.933	56.14
610.268	56.19
610.604	56.24
610.939	56.3
611.275	56.41
611.61	56.51
611.945	56.59
612.281	56.67
612.616	56.72
612.951	56.82
613.286	56.94
613.621	56.94
613.956	56.91
614.291	57
614.626	57.11
614.961	57.18
615.296	57.33
615.631	57.31
615.966	57.31
616.3	57.21
616.635	57.17
616.97	57.14
617.304	57.13
617.639	57.24
617.973	57.25
618.308	57.18
618.642	57.1
618.977	57.11
619.311	57.17
619.646	57.27
619.98	57.29
620.314	57.37
620.648	57.34
620.983	57.43
621.317	57.46
621.651	57.44
621.985	57.51
622.319	57.61
622.653	57.66
622.987	57.79
623.321	57.97
623.655	58.15
623.988	58.22
624.322	58.35
624.656	58.3
624.99	58.34
625.323	58.38
625.657	58.5
625.99	58.5
626.324	58.41
626.657	58.4
626.991	58.39
627.324	58.37
627.658	58.49
627.991	58.49
628.324	58.52
628.657	58.65
628.991	58.66
629.324	58.67
629.657	58.67
629.99	58.72
630.323	58.67
630.656	58.61
630.989	58.61
631.322	58.55
631.655	58.56
631.987	58.59
632.32	58.55
632.653	58.59
632.986	58.56
633.318	58.67
633.651	58.68
633.984	58.74
634.316	58.81
634.649	58.89
634.981	58.92
635.313	58.92
635.646	58.85
635.978	58.9
636.31	58.9
636.643	58.94
636.975	58.89
637.307	58.88
637.639	58.91
637.971	59.02
638.303	59.16
638.635	59.23
638.967	59.23
639.299	59.42
639.631	59.33
639.963	59.4
640.295	59.39
640.626	59.45
640.958	59.45
641.29	59.49
641.621	59.38
641.953	59.47
642.285	59.46
642.616	59.53
642.948	59.49
643.279	59.47
643.61	59.46
643.942	59.64
644.273	59.66
644.604	59.74
644.936	59.67
645.267	59.66
645.598	59.67
645.929	59.65
646.26	59.57
646.591	59.7
646.922	59.68
647.253	59.7
647.584	59.7
647.915	59.62
648.245	59.59
648.576	59.69
648.907	59.69
649.238	59.82
649.568	59.73
649.899	59.68
650.229	59.73
650.56	59.83
650.89	59.72
651.221	59.85
651.551	59.81
651.882	59.88
652.212	59.9
652.542	59.87
652.872	59.89
653.203	59.98
653.533	60.04
653.863	60.11
654.193	60.13
654.523	60.18
654.853	60.26
655.183	60.32
655.513	60.25
655.843	60.25
656.172	60.15
656.502	60.2
656.832	60.27
657.162	60.34
657.491	60.3
657.821	60.36
658.15	60.33
658.48	60.28
658.809	60.2
659.139	60.12
659.468	60.1
659.798	60.17
660.127	60.09
660.456	60.04
660.785	60.02
661.115	60.06
661.444	60.06
661.773	60.13
662.102	60.12
662.431	60.11
662.76	60.18
663.089	60.22
663.418	60.24
663.747	60.17
664.076	60.16
664.404	60.19
664.733	60.12
665.062	60.17
665.39	60.35
665.719	60.46
666.048	60.54
666.376	60.64
666.705	60.58
667.033	60.61
667.362	60.65
667.69	60.62
668.018	60.69
668.347	60.61
668.675	60.65
669.003	60.68
669.331	60.68
669.659	60.62
669.987	60.68
670.315	60.71
670.643	60.8
670.971	60.74
671.299	60.78
671.627	60.87
671.955	60.75
672.283	60.65
672.61	60.62
672.938	60.61
673.266	60.43
673.593	60.46
673.921	60.47
674.249	60.49
674.576	60.59
674.904	60.58
675.231	60.6
675.558	60.62
675.886	60.64
676.213	60.75
676.54	60.79
676.867	60.89
677.195	60.86
677.522	60.87
677.849	61
678.176	61.01
678.503	60.89
678.83	60.86
679.157	60.82
679.484	60.76
679.81	60.93
680.137	61.07
680.464	61.1
680.791	61.13
681.117	61.1
681.444	61.05
681.771	60.93
682.097	60.89
682.424	60.92
682.75	60.89
683.077	60.93
683.403	60.98
683.729	60.89
684.056	60.86
684.382	60.93
684.708	60.85
685.034	60.74
685.36	60.83
685.686	60.92
686.012	60.96
686.339	61.06
686.664	60.85
686.99	60.9
687.316	60.88
687.642	60.92
687.968	60.99
688.294	61
688.619	61.19
688.945	61.43
689.271	61.37
689.596	61.35
689.922	61.26
690.247	61.26
690.573	61.4
690.898	61.42
691.224	61.23
691.549	61.27
691.874	61.31
692.2	61.41
692.525	61.59
692.85	61.59
693.175	61.62
693.5	61.66
693.825	61.66
694.15	61.59
694.475	61.55
694.8	61.49
695.125	61.45
695.45	61.28
695.775	61.19
696.099	61.29
696.424	61.38
696.749	61.54
697.073	61.47
697.398	61.51
697.723	61.56
698.047	61.64
698.372	61.55
698.696	61.52
699.02	61.41
699.345	61.23
699.669	61.35
699.993	61.31
700.318	61.27
700.642	61.29
700.966	61.48
701.29	61.66
701.614	61.68
701.938	61.81
702.262	61.93
702.586	61.87
702.91	61.82
703.234	61.86
703.557	61.82
703.881	61.86
704.205	61.57
704.529	61.45
704.852	61.5
705.176	61.77
705.499	61.84
705.823	61.78
706.146	62
706.47	61.85
706.793	61.81
707.117	62
707.44	61.99
707.763	61.81
708.086	61.76
708.409	61.74
708.733	61.82
709.056	61.85
709.379	62.08
709.702	61.97
710.025	61.86
710.348	61.79
710.671	61.72
710.993	61.86
711.316	62.02
711.639	62.06
711.962	61.98
712.284	61.91
712.607	62.06
712.93	62.07
713.252	62.03
713.575	61.94
713.897	61.94
714.22	62.17
714.542	62.37
714.864	62.23
715.187	62.14
715.509	62.13
715.831	62.21
716.153	62.14
716.475	62.36
716.798	62.44
717.12	62.24
717.442	62.45
717.764	62.53
718.085	62.5
718.407	62.46
718.729	62.46
719.051	62.7
719.373	62.59
719.695	62.66
720.016	62.84
720.338	62.92
720.659	62.87
720.981	62.61
721.302	62.43
721.624	62.46
721.945	62.52
722.267	62.64
722.588	62.45
722.909	62.43
723.231	62.36
723.552	62.29
723.873	62.58
724.194	62.36
724.515	62.23
724.836	62.26
725.157	62.4
725.478	62.12
725.799	62.05
726.12	62.08
726.441	61.8
726.762	61.91
727.083	62.15
727.403	62.29
727.724	62.69
728.045	62.7
728.365	62.67
728.686	62.7
729.006	62.59
729.327	62.82
729.647	62.85
729.967	62.64
730.288	62.65
730.608	62.44
730.928	62.51
731.249	62.58
731.569	62.55
731.889	62.51
732.209	62.47
732.529	62.21
732.849	62.26
733.169	62.25
733.489	62.07
733.809	62.11
734.129	61.88
734.448	61.54
734.768	61.63
735.088	61.91
735.408	62.01
735.727	61.96
736.047	61.92
736.366	61.72
736.686	61.84
737.005	61.91
737.325	62.07
737.644	62
737.963	61.77
738.283	61.9
738.602	61.87
738.921	62.3
739.24	62.62
739.56	62.39
739.879	62.46
740.198	62.67
740.517	62.48
740.836	62.65
741.155	62.61
741.473	62.32
741.792	62.18
742.111	61.99
742.43	61.97
742.748	61.97
743.067	62.03
743.386	62.33
743.704	62.41
744.023	62.66
744.341	62.78
744.66	62.99
744.978	62.82
745.297	62.78
745.615	62.44
745.933	62.34
746.252	62.37
746.57	62.07
746.888	61.86
747.206	61.79
747.524	61.46
747.842	61.36
748.16	61.57
748.478	61.9
748.796	62.28
749.114	62.34
749.432	62.18
749.749	62.08
750.067	61.8
750.385	61.84
750.703	61.56
751.02	61.48
751.338	61.6
751.655	61.67
751.973	61.8
752.29	61.86
752.608	61.87
752.925	62.27
753.242	62.56
753.56	62.27
753.877	62.72
754.194	63.08
754.511	63.38
754.828	63.65
755.145	63.17
755.462	62.95
755.779	63.05
756.096	62.99
756.413	63.13
756.73	63.37
757.047	63.22
757.364	63.23
757.68	63.45
757.997	63.42
758.314	63.36
758.63	63.62
758.947	63.77
759.264	63.77
759.58	63.8
759.896	63.77
760.213	64
760.529	63.67
760.846	63.6
761.162	63.5
761.478	62.95
761.794	63.15
762.11	63.12
762.426	63.07
762.743	63.39
763.059	63.58
763.375	63.33
763.69	63.47
764.006	63.71
764.322	63.59
764.638	63.53
764.954	63.78
765.27	63.63
765.585	63.44
765.901	63.5
766.216	63.23
766.532	63.48
766.848	63.5
767.163	63.44
767.478	63.45
767.794	63.19
768.109	63.52
768.424	63.34
768.74	63.26
769.055	63.22
769.37	62.85
769.685	62.69
770	63.01
770.315	62.87
770.63	62.58
770.945	62.99
771.26	62.58
771.575	62.34
771.89	62.34
772.205	62.51
772.52	62.36
772.834	62.87
773.149	62.56
773.464	62.96
773.778	63.13
774.093	63.02
774.407	63.54
774.722	63.54
775.036	63.83
775.351	63.91
775.665	63.91
775.979	64.21
776.293	63.96
776.608	63.7
776.922	63.28
777.236	63.04
777.55	62.85
777.864	63.38
778.178	63.51
778.492	63.5
778.806	63.42
779.12	64.16
779.434	63.99
779.747	64.37
780.061	64.05
780.375	63.82
780.689	63.63
781.002	63.47
781.316	63.84
781.629	63.95
781.943	64.24
782.256	64.25
782.57	63.79
782.883	63.94
783.196	63.71
783.51	64.31
783.823	64.53
784.136	64.26
784.449	64.13
784.762	63.94
785.075	63.85
785.388	64.12
785.701	63.16
786.014	62.75
786.327	62.14
786.64	62.72
786.953	63
787.266	63.26
787.578	63.53
787.891	62.96
788.204	62.71
788.516	62.63
788.829	62.76
789.141	63.19
789.454	63.23
789.766	63.86
790.079	63.75
790.391	63.8
790.703	64.09
791.016	64.21
791.328	64.02
791.64	63.99
791.952	64.11
792.264	64.09
792.576	64.42
792.888	64.76
793.2	64.24
793.512	64.61
793.824	64.73
794.136	64.51
794.448	65
794.76	64.7
795.071	64.54
795.383	64.41
795.695	64.27
796.006	64.25
796.318	63.84
796.629	63.74
796.941	63.49
797.252	63.23
797.564	63.29
797.875	62.88
798.186	62.99
798.497	63.1
798.809	63.44
799.12	63.42
799.431	63.63
799.742	63.28
800.053	63.51
800.364	62.93
800.675	62.26
800.986	62.28
801.297	62.82
801.608	62.69
801.918	62.99
802.229	63.03
802.54	63.29
802.851	62.94
803.161	63.2
803.472	63.87
803.782	63.65
804.093	63.68
804.403	64.48
804.714	64.56
805.024	64.55
805.334	64.2
805.645	64.3
805.955	64.36
806.265	64.23
806.575	63.59
806.885	63.93
807.195	64.34
807.505	64.35
807.815	64.3
808.125	64.7
808.435	64.5
808.745	63.92
809.055	64.11
809.365	64.21
809.674	63.96
809.984	63.62
810.294	64.16
810.603	64.18
810.913	65.01
811.222	64.74
811.532	63.93
811.841	64.26
812.151	64.14
812.46	64.14
812.769	64.12
813.079	64.39
813.388	64.76
813.697	64.97
814.006	64.84
814.315	64.24
814.624	64.61
814.933	64.49
815.242	64.82
815.551	64.1
815.86	64.19
816.169	64.25
816.478	64.38
816.786	64.77
817.095	65.87
817.404	65.65
817.712	66.49
818.021	67.27
818.33	67.05
818.638	67.45
818.947	66.97
819.255	67.11
819.563	66.66
819.872	65.99
820.18	65.92
820.488	65.97
820.796	66.3
821.105	65.7
821.413	65.59
821.721	65.58
822.029	65.43
822.337	65.67
822.645	65.65
822.953	65.49
823.26	65.18
823.568	64.88
823.876	64.69
824.184	64.43
824.491	64.23
824.799	64.31
825.107	64.22
825.414	64.17
825.722	64.09
826.029	64.24
826.337	64.35
826.644	64.35
826.951	64.06
827.259	63.83
827.566	64.01
827.873	64.04
828.18	64.26
828.488	64.49
828.795	63.97
829.102	63.94
829.409	64.27
829.716	64.19
830.023	64.2
830.329	64.32
830.636	64.45
830.943	64.44
831.25	64.19
831.557	64.25
831.863	64.39
832.17	64.28
832.476	64.07
832.783	64.36
833.089	64.49
833.396	64.74
833.702	64.73
834.009	64.54
834.315	64.49
834.621	64.12
834.928	64.19
835.234	64.84
835.54	64.51
835.846	63.91
836.152	64.39
836.458	64.47
836.764	64.02
837.07	63.81
837.376	63.96
837.682	64.48
837.988	63.88
838.293	63.23
838.599	63.64
838.905	63.26
839.211	62.01
839.516	61.71
839.822	61.59
840.127	61.16
840.433	60.41
840.738	59.97
841.044	60.02
841.349	60.06
841.654	59.92
841.959	61.75
842.265	62.32
842.57	62.51
842.875	62.27
843.18	63.3
843.485	62.87
843.79	63.58
844.095	63.52
844.4	63.92
844.705	64.24
845.01	63.68
845.315	64.09
845.619	65.93
845.924	66.07
846.229	66.01
846.533	68.19
846.838	68.85
847.142	70.28
847.447	68.55
847.751	68
848.056	66.12
848.36	64.2
848.664	64.3
848.969	63.4
849.273	64.33
849.577	65.28
849.881	67.64
850.185	68.31
850.489	66.35
850.794	65.41
851.097	66.76
851.401	67.1
851.705	64.93
852.009	65.25
852.313	63.49
852.617	64.6
852.92	62.94
853.224	64.16
853.528	62.43
853.831	63.68
854.135	62.9
854.438	64.39
854.742	65.76
855.045	64.41
855.349	65.08
855.652	63.44
855.955	62.65
856.259	60.23
856.562	60.91
856.865	61.88
857.168	63.94
857.471	62.85
857.774	61.77
858.077	63.87
858.38	63.73
858.683	66.31
858.986	65.18
859.289	65.67
859.592	65.92
859.894	66.89
860.197	68.38
860.5	67.65
860.802	69.1
861.105	65.22
861.407	64.3
861.71	63.91
862.012	63.73
862.315	62.04
862.617	61.06
862.919	58.12
863.222	57.97
863.524	56.91
863.826	56.73
864.128	58.51
864.43	60.55
864.732	59.86
865.034	58.84
865.336	59.57
865.638	57.84
865.94	53.93
866.242	52.6
866.544	50.86
866.846	52.36
867.147	49.74
867.449	53.65
867.751	53.48
868.052	54.02
868.354	54.32
868.655	56.66
868.957	59.92
869.258	61.18
869.56	64.09
869.861	64.16
870.162	62.65
870.463	64.79
870.765	61
871.066	59.68
871.367	60.18
871.668	61.5
871.969	64.48
872.27	66.96
872.571	68.01
872.872	67.62
873.173	69.78
873.473	71.26
873.774	69.39
874.075	71.86
874.376	72.41
874.676	73.46
874.977	71.3
875.277	68.86
875.578	70.38
875.878	67.68
876.179	67.84
876.479	71.41
876.78	68.29
877.08	70.13
877.38	72.88
877.68	73.24
877.981	71.05
878.281	68.52
878.581	72.88
