Data from BA28524_Reflection_00010.txt Node
Date: Tue Nov 19 11:49:52 EST 2019
User: vgr7
Spectrometer: USB2G7710
Scans to average: 3
Trigger mode: 4
Integration Time (sec): 2.000000E-2
Electric dark correction enabled: true
Boxcar width: 10
XAxis mode: Wavelengths
Number of Pixels in Spectrum: 2048
>>>>>Begin Spectral Data<<<<<
177.721	-85.45
178.105	7.41
178.488	266.67
178.871	-2233.33
179.254	-488.89
179.636	-519.05
180.019	-96.97
180.402	-29.41
180.785	98.67
181.168	292.98
181.55	182.16
181.933	126.81
182.316	66.03
182.698	106.56
183.081	29.86
183.463	68.19
183.846	28.87
184.228	42.92
184.611	131.14
184.993	407.41
185.376	402.26
185.758	1903.03
186.14	4066.67
186.522	6377.78
186.904	-5466.67
187.287	-576.1
187.669	-288.89
188.051	-242.54
188.433	-297.24
188.815	-174.56
189.197	-262.26
189.579	-274.59
189.961	-203.12
190.342	-165.38
190.724	-225.04
191.106	-157.67
191.488	-223.16
191.869	-195.61
192.251	-320.34
192.633	-185.59
193.014	-125.42
193.396	-157.88
193.777	-237.47
194.159	-192.84
194.54	-253.43
194.922	-168.31
195.303	-201.9
195.684	-295.32
196.065	-268.35
196.447	-686.82
196.828	-919.38
197.209	-308.87
197.59	-386.45
197.971	-667.76
198.352	-421.02
198.733	-482.25
199.114	-753.74
199.495	-425.64
199.876	-744.63
200.257	-672.3
200.638	-1408.55
201.018	3443.14
201.399	-728.64
201.78	-346.83
202.16	-360.92
202.541	-360.28
202.922	-1524.03
203.302	1803.25
203.683	-5088.89
204.063	4822.22
204.444	-863.6
204.824	-1020.51
205.204	-1639.32
205.585	-352.64
205.965	-369.03
206.345	-301.23
206.725	-295.55
207.106	-211.15
207.486	-305.05
207.866	-173.96
208.246	-122.03
208.626	-187.21
209.006	-173.77
209.386	-237.36
209.766	-213.61
210.145	-232.69
210.525	-324.73
210.905	-155.26
211.285	-87.25
211.664	-73.09
212.044	-71.89
212.424	-42.79
212.803	-56.22
213.183	-79.81
213.562	-31.79
213.942	-24.88
214.321	-77.34
214.701	-54.11
215.08	-150.51
215.459	-65.46
215.838	-74.63
216.218	-69.13
216.597	-26.64
216.976	-47.79
217.355	-65.19
217.734	-69.5
218.113	-66.67
218.492	-47.15
218.871	-46.41
219.25	-38.24
219.629	-53.98
220.008	-42.81
220.387	-56.46
220.766	-40.24
221.144	-32.05
221.523	-54.48
221.902	-52.6
222.28	-25.58
222.659	-19.18
223.037	-13.96
223.416	-27.66
223.794	-27.97
224.173	-40.53
224.551	-34.56
224.929	-29.63
225.308	-24.58
225.686	-29.26
226.064	-26.71
226.442	-20.7
226.821	-17.06
227.199	-15.32
227.577	-7.74
227.955	-7.69
228.333	-8.88
228.711	-6.18
229.089	-7.09
229.467	-5.4
229.845	-9.09
230.222	-9.31
230.6	-10.32
230.978	-11.56
231.356	-12.71
231.733	-10.82
232.111	-8.22
232.488	-6.65
232.866	-4.68
233.243	-1.97
233.621	2.16
233.998	3.81
234.376	2.55
234.753	-0.51
235.13	-2.01
235.508	-2.64
235.885	-2.31
236.262	-4.24
236.639	-5.83
237.016	-5.51
237.393	-3.7
237.77	-1.17
238.147	-0.48
238.524	1.34
238.901	3.12
239.278	4.43
239.655	4.49
240.032	4.79
240.409	4.1
240.785	3.99
241.162	3.38
241.539	2.87
241.915	2.74
242.292	3.64
242.668	4.74
243.045	5.16
243.421	5.32
243.798	5.47
244.174	6.13
244.551	6.31
244.927	6.58
245.303	6.17
245.679	5.99
246.056	6.22
246.432	5.99
246.808	5.63
247.184	5.9
247.56	5.67
247.936	5.79
248.312	5.82
248.688	5.64
249.064	5.83
249.44	5.88
249.815	5.83
250.191	5.49
250.567	5.19
250.943	5.14
251.318	4.84
251.694	4.52
252.069	4.33
252.445	4.49
252.82	4.79
253.196	5.06
253.571	5.22
253.947	4.9
254.322	4.71
254.697	4.57
255.073	4.17
255.448	4.28
255.823	4.2
256.198	4.3
256.573	4.31
256.948	4.37
257.323	4.5
257.698	4.6
258.073	4.57
258.448	4.71
258.823	4.64
259.198	4.97
259.573	5.01
259.948	5.19
260.322	5.03
260.697	4.96
261.072	4.9
261.446	4.91
261.821	4.79
262.195	4.8
262.57	4.88
262.944	4.91
263.319	4.82
263.693	4.96
264.067	5
264.442	5.22
264.816	5.25
265.19	5.17
265.564	5.28
265.938	5.4
266.313	5.05
266.687	5.25
267.061	4.97
267.435	5.19
267.809	5.15
268.183	5.07
268.556	4.92
268.93	4.9
269.304	4.8
269.678	4.88
270.051	4.89
270.425	4.91
270.799	4.75
271.172	4.95
271.546	4.76
271.919	4.72
272.293	4.62
272.666	4.63
273.04	4.58
273.413	4.38
273.787	4.44
274.16	4.5
274.533	4.34
274.906	4.36
275.279	4.2
275.653	4.13
276.026	4.29
276.399	4.4
276.772	4.49
277.145	4.52
277.518	4.53
277.891	4.62
278.263	4.73
278.636	4.93
279.009	4.83
279.382	4.77
279.755	4.84
280.127	4.85
280.5	4.75
280.872	4.92
281.245	5.01
281.617	4.75
281.99	4.94
282.362	5.05
282.735	4.93
283.107	5.05
283.479	4.98
283.852	4.99
284.224	4.95
284.596	4.88
284.968	4.92
285.34	4.9
285.713	4.89
286.085	4.93
286.457	5
286.829	4.93
287.201	5.04
287.572	4.99
287.944	5.01
288.316	5.09
288.688	5.14
289.06	5.16
289.431	5.44
289.803	5.4
290.175	5.24
290.546	5.49
290.918	5.42
291.289	5.45
291.661	5.43
292.032	5.46
292.403	5.54
292.775	5.67
293.146	5.69
293.517	5.6
293.889	5.58
294.26	5.4
294.631	5.55
295.002	5.69
295.373	5.73
295.744	5.82
296.115	5.86
296.486	5.81
296.857	5.94
297.228	5.8
297.599	5.79
297.97	5.99
298.34	6.14
298.711	6.27
299.082	6.25
299.452	6.22
299.823	6.14
300.194	6.23
300.564	6.15
300.935	6.34
301.305	6.6
301.676	6.54
302.046	6.7
302.416	6.7
302.787	6.6
303.157	6.63
303.527	6.68
303.897	6.68
304.267	6.67
304.637	6.64
305.008	6.68
305.378	6.91
305.748	6.89
306.117	6.74
306.487	6.7
306.857	6.86
307.227	7
307.597	7.13
307.967	7.3
308.336	7.28
308.706	7.32
309.076	7.24
309.445	7.43
309.815	7.63
310.184	7.7
310.554	7.71
310.923	7.73
311.293	7.64
311.662	7.66
312.031	7.56
312.401	7.51
312.77	7.59
313.139	7.64
313.508	7.61
313.877	7.6
314.246	7.56
314.616	7.51
314.985	7.38
315.353	7.47
315.722	7.18
316.091	7.14
316.46	6.95
316.829	6.78
317.198	6.67
317.567	6.52
317.935	6.39
318.304	6.48
318.672	6.69
319.041	6.84
319.41	6.74
319.778	6.93
320.147	7
320.515	6.95
320.883	6.66
321.252	6.7
321.62	6.79
321.988	6.92
322.357	7.03
322.725	7.25
323.093	7.13
323.461	7.3
323.829	7.38
324.197	7.5
324.565	7.74
324.933	7.65
325.301	7.71
325.669	7.82
326.037	7.87
326.405	7.79
326.772	7.89
327.14	7.9
327.508	7.89
327.875	7.96
328.243	7.97
328.61	8.11
328.978	8.17
329.346	8.25
329.713	8.31
330.08	8.36
330.448	8.31
330.815	8.3
331.182	8.29
331.55	8.34
331.917	8.38
332.284	8.51
332.651	8.61
333.018	8.51
333.385	8.43
333.752	8.28
334.119	8.21
334.486	7.94
334.853	7.97
335.22	8.04
335.587	7.94
335.954	7.99
336.32	7.95
336.687	7.92
337.054	7.79
337.42	7.76
337.787	7.63
338.153	7.57
338.52	7.63
338.886	7.59
339.253	7.54
339.619	7.61
339.986	7.35
340.352	7.37
340.718	7.36
341.084	7.46
341.451	7.57
341.817	7.5
342.183	7.51
342.549	7.58
342.915	7.53
343.281	7.48
343.647	7.45
344.013	7.56
344.379	7.52
344.745	7.48
345.11	7.54
345.476	7.68
345.842	7.74
346.208	7.76
346.573	7.84
346.939	7.84
347.304	7.77
347.67	7.78
348.035	7.84
348.401	7.82
348.766	7.73
349.132	7.66
349.497	7.7
349.862	7.65
350.228	7.74
350.593	7.74
350.958	7.83
351.323	7.81
351.688	7.71
352.053	7.75
352.418	7.77
352.783	7.68
353.148	7.58
353.513	7.47
353.878	7.53
354.243	7.33
354.608	7.42
354.972	7.44
355.337	7.53
355.702	7.54
356.066	7.63
356.431	7.68
356.795	7.74
357.16	7.76
357.524	7.84
357.889	7.74
358.253	7.64
358.618	7.59
358.982	7.66
359.346	7.68
359.71	7.67
360.075	7.73
360.439	7.72
360.803	7.7
361.167	7.79
361.531	7.78
361.895	7.85
362.259	7.86
362.623	7.81
362.987	7.76
363.351	7.67
363.714	7.58
364.078	7.54
364.442	7.42
364.806	7.38
365.169	7.32
365.533	7.23
365.896	7.29
366.26	7.24
366.623	7.15
366.987	7.08
367.35	7.06
367.714	6.96
368.077	6.92
368.44	6.96
368.803	6.86
369.167	6.68
369.53	6.59
369.893	6.47
370.256	6.39
370.619	6.33
370.982	6.26
371.345	6.31
371.708	6.24
372.071	6.26
372.434	6.26
372.797	6.31
373.159	6.3
373.522	6.19
373.885	6.14
374.247	6.13
374.61	6.13
374.973	6.1
375.335	6.03
375.698	5.97
376.06	5.89
376.423	5.91
376.785	5.98
377.147	5.94
377.51	5.89
377.872	5.9
378.234	5.88
378.596	5.86
378.958	5.76
379.321	5.78
379.683	5.78
380.045	5.68
380.407	5.61
380.769	5.59
381.13	5.59
381.492	5.6
381.854	5.58
382.216	5.54
382.578	5.55
382.939	5.55
383.301	5.57
383.663	5.61
384.024	5.57
384.386	5.49
384.747	5.53
385.109	5.48
385.47	5.42
385.832	5.38
386.193	5.39
386.554	5.39
386.916	5.36
387.277	5.3
387.638	5.31
387.999	5.21
388.36	5.24
388.721	5.24
389.082	5.24
389.443	5.24
389.804	5.26
390.165	5.21
390.526	5.21
390.887	5.18
391.248	5.11
391.609	5.09
391.969	5.05
392.33	5
392.691	5
393.051	4.99
393.412	5
393.772	5.01
394.133	4.98
394.493	4.95
394.854	4.92
395.214	4.88
395.574	4.92
395.935	4.89
396.295	4.85
396.655	4.83
397.015	4.79
397.376	4.74
397.736	4.73
398.096	4.67
398.456	4.67
398.816	4.65
399.176	4.63
399.535	4.62
399.895	4.58
400.255	4.57
400.615	4.58
400.975	4.59
401.334	4.52
401.694	4.55
402.054	4.55
402.413	4.54
402.773	4.56
403.132	4.57
403.492	4.56
403.851	4.55
404.211	4.54
404.57	4.52
404.929	4.46
405.288	4.42
405.648	4.38
406.007	4.37
406.366	4.39
406.725	4.4
407.084	4.38
407.443	4.4
407.802	4.41
408.161	4.42
408.52	4.4
408.879	4.37
409.238	4.32
409.596	4.33
409.955	4.33
410.314	4.29
410.673	4.29
411.031	4.27
411.39	4.27
411.748	4.26
412.107	4.25
412.465	4.26
412.824	4.27
413.182	4.34
413.54	4.31
413.899	4.25
414.257	4.24
414.615	4.24
414.974	4.22
415.332	4.22
415.69	4.19
416.048	4.15
416.406	4.17
416.764	4.21
417.122	4.17
417.48	4.17
417.838	4.18
418.195	4.17
418.553	4.15
418.911	4.13
419.269	4.13
419.626	4.14
419.984	4.15
420.342	4.15
420.699	4.12
421.057	4.1
421.414	4.12
421.772	4.12
422.129	4.11
422.486	4.12
422.844	4.1
423.201	4.1
423.558	4.11
423.915	4.1
424.273	4.07
424.63	4.07
424.987	4.07
425.344	4.07
425.701	4.06
426.058	4.06
426.415	4.08
426.772	4.08
427.128	4.08
427.485	4.07
427.842	4.07
428.199	4.07
428.555	4.09
428.912	4.07
429.269	4.05
429.625	4.06
429.982	4.07
430.338	4.08
430.695	4.06
431.051	4.06
431.407	4.08
431.764	4.07
432.12	4.09
432.476	4.08
432.832	4.07
433.189	4.07
433.545	4.08
433.901	4.06
434.257	4.04
434.613	4.01
434.969	4
435.325	3.99
435.681	3.97
436.036	3.97
436.392	3.97
436.748	3.97
437.104	3.95
437.459	3.93
437.815	3.92
438.171	3.91
438.526	3.91
438.882	3.89
439.237	3.89
439.593	3.88
439.948	3.87
440.304	3.87
440.659	3.85
441.014	3.82
441.369	3.82
441.725	3.81
442.08	3.82
442.435	3.81
442.79	3.81
443.145	3.82
443.5	3.83
443.855	3.81
444.21	3.81
444.565	3.83
444.92	3.84
445.275	3.86
445.629	3.87
445.984	3.87
446.339	3.88
446.693	3.88
447.048	3.88
447.403	3.89
447.757	3.88
448.112	3.88
448.466	3.9
448.82	3.89
449.175	3.89
449.529	3.89
449.883	3.88
450.238	3.88
450.592	3.89
450.946	3.88
451.3	3.91
451.654	3.89
452.008	3.88
452.362	3.86
452.716	3.84
453.07	3.81
453.424	3.78
453.778	3.77
454.132	3.74
454.486	3.74
454.839	3.73
455.193	3.74
455.547	3.72
455.9	3.73
456.254	3.75
456.607	3.76
456.961	3.78
457.314	3.8
457.668	3.82
458.021	3.81
458.375	3.8
458.728	3.77
459.081	3.79
459.434	3.79
459.787	3.8
460.141	3.81
460.494	3.83
460.847	3.84
461.2	3.85
461.553	3.87
461.906	3.87
462.259	3.85
462.611	3.86
462.964	3.89
463.317	3.89
463.67	3.89
464.022	3.89
464.375	3.89
464.728	3.87
465.08	3.86
465.433	3.86
465.785	3.87
466.138	3.89
466.49	3.9
466.843	3.91
467.195	3.9
467.547	3.89
467.899	3.88
468.252	3.91
468.604	3.92
468.956	3.92
469.308	3.91
469.66	3.95
470.012	3.96
470.364	3.94
470.716	3.93
471.068	3.96
471.42	3.95
471.772	3.95
472.123	3.97
472.475	3.99
472.827	3.99
473.178	4
473.53	3.99
473.882	3.97
474.233	3.97
474.585	3.97
474.936	3.95
475.288	3.97
475.639	3.96
475.99	3.95
476.342	3.97
476.693	3.96
477.044	3.97
477.395	3.96
477.746	3.97
478.097	3.96
478.448	3.94
478.8	3.94
479.15	3.94
479.501	3.93
479.852	3.91
480.203	3.92
480.554	3.9
480.905	3.9
481.255	3.92
481.606	3.93
481.957	3.94
482.307	3.95
482.658	3.95
483.009	3.95
483.359	3.95
483.709	3.95
484.06	3.96
484.41	3.96
484.761	3.96
485.111	3.96
485.461	3.96
485.811	3.96
486.162	3.98
486.512	3.98
486.862	3.99
487.212	3.99
487.562	3.99
487.912	4
488.262	4.01
488.612	4.02
488.961	4.03
489.311	4.03
489.661	4.03
490.011	4.03
490.36	4.03
490.71	4.03
491.06	4.04
491.409	4.03
491.759	4.06
492.108	4.05
492.458	4.06
492.807	4.07
493.157	4.07
493.506	4.08
493.855	4.06
494.204	4.07
494.554	4.09
494.903	4.11
495.252	4.13
495.601	4.15
495.95	4.16
496.299	4.16
496.648	4.18
496.997	4.2
497.346	4.23
497.695	4.26
498.043	4.31
498.392	4.34
498.741	4.38
499.09	4.38
499.438	4.44
499.787	4.47
500.135	4.51
500.484	4.53
500.832	4.55
501.181	4.61
501.529	4.65
501.878	4.68
502.226	4.71
502.574	4.75
502.923	4.75
503.271	4.78
503.619	4.83
503.967	4.84
504.315	4.87
504.663	4.89
505.011	4.92
505.359	4.94
505.707	4.94
506.055	4.96
506.403	4.99
506.751	5
507.098	5.05
507.446	5.1
507.794	5.15
508.141	5.18
508.489	5.22
508.837	5.24
509.184	5.26
509.531	5.28
509.879	5.31
510.226	5.38
510.574	5.4
510.921	5.42
511.268	5.49
511.616	5.55
511.963	5.59
512.31	5.63
512.657	5.69
513.004	5.74
513.351	5.78
513.698	5.84
514.045	5.87
514.392	5.92
514.739	5.95
515.086	6.01
515.432	6.09
515.779	6.15
516.126	6.24
516.473	6.3
516.819	6.39
517.166	6.44
517.512	6.5
517.859	6.56
518.205	6.61
518.552	6.64
518.898	6.68
519.245	6.75
519.591	6.78
519.937	6.82
520.283	6.89
520.629	6.95
520.976	7.02
521.322	7.09
521.668	7.16
522.014	7.26
522.36	7.33
522.706	7.39
523.052	7.49
523.398	7.57
523.743	7.66
524.089	7.75
524.435	7.83
524.781	7.94
525.126	8.02
525.472	8.11
525.817	8.18
526.163	8.25
526.509	8.32
526.854	8.38
527.199	8.45
527.545	8.53
527.89	8.61
528.235	8.68
528.581	8.76
528.926	8.84
529.271	8.91
529.616	9
529.961	9.08
530.306	9.13
530.651	9.22
530.996	9.32
531.341	9.43
531.686	9.55
532.031	9.64
532.376	9.74
532.721	9.87
533.065	9.99
533.41	10.12
533.755	10.23
534.099	10.36
534.444	10.5
534.788	10.61
535.133	10.75
535.477	10.87
535.822	11.03
536.166	11.17
536.51	11.33
536.855	11.48
537.199	11.68
537.543	11.91
537.887	12.12
538.231	12.29
538.576	12.44
538.92	12.62
539.264	12.81
539.608	12.98
539.951	13.13
540.295	13.31
540.639	13.47
540.983	13.65
541.327	13.82
541.671	13.96
542.014	14.13
542.358	14.29
542.701	14.43
543.045	14.57
543.389	14.74
543.732	14.88
544.075	15.07
544.419	15.22
544.762	15.37
545.105	15.52
545.449	15.76
545.792	16
546.135	16.21
546.478	16.43
546.821	16.71
547.165	16.96
547.508	17.19
547.851	17.45
548.194	17.69
548.536	17.92
548.879	18.24
549.222	18.48
549.565	18.74
549.908	19.04
550.25	19.33
550.593	19.63
550.936	19.95
551.278	20.23
551.621	20.53
551.963	20.87
552.306	21.18
552.648	21.43
552.991	21.64
553.333	21.91
553.675	22.18
554.017	22.38
554.36	22.67
554.702	22.97
555.044	23.23
555.386	23.48
555.728	23.78
556.07	23.98
556.412	24.3
556.754	24.55
557.096	24.8
557.438	25.06
557.78	25.31
558.121	25.63
558.463	25.9
558.805	26.17
559.147	26.44
559.488	26.64
559.83	26.91
560.171	27.16
560.513	27.36
560.854	27.66
561.196	27.95
561.537	28.2
561.878	28.48
562.22	28.79
562.561	29.07
562.902	29.31
563.243	29.56
563.584	29.81
563.925	30.12
564.266	30.37
564.607	30.59
564.948	30.85
565.289	31.02
565.63	31.27
565.971	31.52
566.312	31.71
566.653	31.99
566.993	32.25
567.334	32.56
567.675	32.85
568.015	33.04
568.356	33.24
568.696	33.45
569.037	33.64
569.377	33.85
569.718	34.06
570.058	34.35
570.398	34.59
570.739	34.81
571.079	34.97
571.419	35.22
571.759	35.43
572.099	35.63
572.439	35.8
572.779	35.98
573.119	36.15
573.459	36.33
573.799	36.54
574.139	36.68
574.479	36.88
574.819	37.06
575.158	37.25
575.498	37.47
575.838	37.65
576.177	37.79
576.517	37.96
576.856	38.2
577.196	38.32
577.535	38.48
577.875	38.62
578.214	38.83
578.553	38.96
578.893	39.16
579.232	39.38
579.571	39.58
579.91	39.78
580.25	39.88
580.589	40.07
580.928	40.22
581.267	40.4
581.606	40.55
581.945	40.71
582.283	40.91
582.622	41.08
582.961	41.29
583.3	41.54
583.639	41.65
583.977	41.8
584.316	42
584.654	42.22
584.993	42.34
585.332	42.49
585.67	42.7
586.008	42.82
586.347	42.95
586.685	43.06
587.024	43.28
587.362	43.5
587.7	43.59
588.038	43.71
588.376	43.81
588.715	43.95
589.053	44.01
589.391	44.15
589.729	44.28
590.067	44.41
590.404	44.54
590.742	44.64
591.08	44.71
591.418	44.88
591.756	44.94
592.093	45.19
592.431	45.31
592.769	45.45
593.106	45.6
593.444	45.76
593.781	45.94
594.119	46.04
594.456	46.19
594.793	46.36
595.131	46.51
595.468	46.64
595.805	46.72
596.143	46.82
596.48	46.89
596.817	46.97
597.154	47.05
597.491	47.17
597.828	47.31
598.165	47.41
598.502	47.47
598.839	47.57
599.176	47.6
599.512	47.75
599.849	47.78
600.186	47.91
600.523	47.94
600.859	48.06
601.196	48.14
601.532	48.23
601.869	48.35
602.205	48.4
602.542	48.5
602.878	48.62
603.215	48.82
603.551	48.91
603.887	48.98
604.223	49
604.56	49
604.896	49.07
605.232	49.15
605.568	49.28
605.904	49.29
606.24	49.38
606.576	49.51
606.912	49.66
607.248	49.7
607.583	49.8
607.919	49.84
608.255	49.88
608.591	49.94
608.926	50.02
609.262	50.09
609.597	50.16
609.933	50.17
610.268	50.17
610.604	50.18
610.939	50.3
611.275	50.38
611.61	50.48
611.945	50.57
612.281	50.68
612.616	50.65
612.951	50.78
613.286	50.86
613.621	50.85
613.956	50.91
614.291	50.98
614.626	50.99
614.961	51.06
615.296	51.09
615.631	51.13
615.966	51.11
616.3	51.19
616.635	51.23
616.97	51.26
617.304	51.24
617.639	51.31
617.973	51.35
618.308	51.41
618.642	51.46
618.977	51.5
619.311	51.56
619.646	51.6
619.98	51.7
620.314	51.71
620.648	51.72
620.983	51.69
621.317	51.66
621.651	51.77
621.985	51.91
622.319	51.98
622.653	52.13
622.987	52.1
623.321	52.13
623.655	52.25
623.988	52.27
624.322	52.42
624.656	52.51
624.99	52.57
625.323	52.63
625.657	52.65
625.99	52.62
626.324	52.57
626.657	52.61
626.991	52.61
627.324	52.72
627.658	52.82
627.991	52.91
628.324	52.94
628.657	52.95
628.991	52.98
629.324	53.01
629.657	53
629.99	53.08
630.323	53.11
630.656	53.04
630.989	53.13
631.322	53.14
631.655	53.03
631.987	53.01
632.32	52.96
632.653	53.01
632.986	53.13
633.318	53.23
633.651	53.33
633.984	53.35
634.316	53.31
634.649	53.24
634.981	53.27
635.313	53.31
635.646	53.32
635.978	53.35
636.31	53.37
636.643	53.25
636.975	53.34
637.307	53.5
637.639	53.6
637.971	53.61
638.303	53.58
638.635	53.77
638.967	53.76
639.299	53.95
639.631	53.92
639.963	53.89
640.295	53.95
640.626	53.94
640.958	53.95
641.29	54.02
641.621	54.11
641.953	54.04
642.285	54.07
642.616	54.18
642.948	54.09
643.279	54.1
643.61	54.16
643.942	54.15
644.273	54.03
644.604	54.03
644.936	53.94
645.267	53.93
645.598	53.95
645.929	53.88
646.26	53.77
646.591	53.88
646.922	54
647.253	53.96
647.584	53.89
647.915	53.9
648.245	53.9
648.576	53.92
648.907	53.96
649.238	54.04
649.568	54.04
649.899	54.06
650.229	54.14
650.56	54.29
650.89	54.35
651.221	54.42
651.551	54.41
651.882	54.55
652.212	54.62
652.542	54.64
652.872	54.88
653.203	54.76
653.533	54.74
653.863	54.81
654.193	54.85
654.523	54.9
654.853	55.03
655.183	55.11
655.513	55.14
655.843	55.22
656.172	55.19
656.502	55.14
656.832	55.24
657.162	55.25
657.491	55.24
657.821	55.21
658.15	55.09
658.48	55.2
658.809	55.25
659.139	55.26
659.468	55.27
659.798	55.23
660.127	55.49
660.456	55.51
660.785	55.46
661.115	55.44
661.444	55.52
661.773	55.61
662.102	55.59
662.431	55.6
662.76	55.57
663.089	55.69
663.418	55.69
663.747	55.72
664.076	55.81
664.404	55.87
664.733	55.97
665.062	56.13
665.39	56.03
665.719	56.01
666.048	56.01
666.376	56.02
666.705	56.12
667.033	56.04
667.362	56.06
667.69	55.97
668.018	56.02
668.347	56.1
668.675	55.96
669.003	55.95
669.331	55.98
669.659	55.9
669.987	55.82
670.315	55.89
670.643	55.84
670.971	55.76
671.299	55.73
671.627	55.75
671.955	55.76
672.283	55.83
672.61	55.82
672.938	56.09
673.266	56.04
673.593	56.05
673.921	56.04
674.249	55.98
674.576	56.12
674.904	56.19
675.231	56.09
675.558	56.22
675.886	56.29
676.213	56.3
676.54	56.32
676.867	56.23
677.195	56.28
677.522	56.3
677.849	56.45
678.176	56.52
678.503	56.57
678.83	56.66
679.157	56.69
679.484	56.76
679.81	56.5
680.137	56.49
680.464	56.38
680.791	56.48
681.117	56.56
681.444	56.44
681.771	56.39
682.097	56.36
682.424	56.37
682.75	56.42
683.077	56.3
683.403	56.36
683.729	56.54
684.056	56.56
684.382	56.54
684.708	56.5
685.034	56.38
685.36	56.28
685.686	56.31
686.012	56.37
686.339	56.22
686.664	56.35
686.99	56.39
687.316	56.36
687.642	56.21
687.968	56.31
688.294	56.48
688.619	56.47
688.945	56.37
689.271	56.22
689.596	56.06
689.922	56.11
690.247	56.3
690.573	56.08
690.898	55.87
691.224	56
691.549	55.99
691.874	56.21
692.2	56.31
692.525	56.16
692.85	56.29
693.175	56.47
693.5	56.49
693.825	56.46
694.15	56.31
694.475	56.29
694.8	56.13
695.125	56.03
695.45	56.19
695.775	56.4
696.099	56.57
696.424	56.72
696.749	56.72
697.073	56.51
697.398	56.81
697.723	56.95
698.047	57.01
698.372	57
698.696	56.9
699.02	56.73
699.345	56.81
699.669	56.62
699.993	56.7
700.318	56.76
700.642	56.87
700.966	56.92
701.29	56.98
701.614	57.09
701.938	57.22
702.262	57.1
702.586	57.2
702.91	57.12
703.234	56.98
703.557	57.15
703.881	57.3
704.205	57.06
704.529	57.22
704.852	57.1
705.176	57.1
705.499	57.21
705.823	57.54
706.146	57.45
706.47	57.52
706.793	57.16
707.117	57.1
707.44	57.14
707.763	57.53
708.086	57.69
708.409	57.74
708.733	57.6
709.056	57.71
709.379	57.65
709.702	57.59
710.025	57.8
710.348	57.74
710.671	57.95
710.993	57.98
711.316	57.94
711.639	57.88
711.962	57.97
712.284	57.66
712.607	57.65
712.93	57.7
713.252	57.54
713.575	57.62
713.897	57.64
714.22	57.69
714.542	57.66
714.864	57.56
715.187	57.45
715.509	57.42
715.831	57.47
716.153	57.54
716.475	57.74
716.798	57.52
717.12	57.54
717.442	57.39
717.764	57.4
718.085	57.31
718.407	57.37
718.729	57.36
719.051	57.57
719.373	57.5
719.695	57.63
720.016	57.76
720.338	57.87
720.659	57.7
720.981	57.63
721.302	57.41
721.624	57.36
721.945	57.4
722.267	57.48
722.588	57.42
722.909	57.36
723.231	57.2
723.552	57.53
723.873	57.42
724.194	57.49
724.515	57.71
724.836	57.59
725.157	57.72
725.478	57.84
725.799	57.75
726.12	57.73
726.441	57.54
726.762	57.78
727.083	57.94
727.403	58.16
727.724	58.32
728.045	58.28
728.365	58.39
728.686	58.59
729.006	58.48
729.327	58.27
729.647	58.3
729.967	58.25
730.288	57.97
730.608	58.01
730.928	57.9
731.249	57.54
731.569	57.74
731.889	57.68
732.209	57.45
732.529	57.8
732.849	57.62
733.169	57.59
733.489	57.47
733.809	57.27
734.129	57.24
734.448	57.03
734.768	56.99
735.088	57.05
735.408	56.96
735.727	57
736.047	57.04
736.366	57.02
736.686	57.19
737.005	57.4
737.325	57.37
737.644	57.27
737.963	57.6
738.283	57.44
738.602	57.31
738.921	57.46
739.24	56.98
739.56	57.26
739.879	57.55
740.198	57.38
740.517	57.51
740.836	57.25
741.155	57.38
741.473	57.49
741.792	57.48
742.111	57.44
742.43	57.63
742.748	57.69
743.067	57.4
743.386	57.09
743.704	56.81
744.023	57.14
744.341	57.18
744.66	56.99
744.978	57.12
745.297	57.2
745.615	56.94
745.933	57.44
746.252	57.28
746.57	56.98
746.888	57.33
747.206	57.34
747.524	57.46
747.842	57.26
748.16	57.06
748.478	56.91
748.796	56.94
749.114	56.89
749.432	57.01
749.749	57.52
750.067	57.68
750.385	57.58
750.703	57.17
751.02	57.32
751.338	57.12
751.655	56.67
751.973	56.58
752.29	56.39
752.608	56.13
752.925	55.88
753.242	55.88
753.56	55.48
753.877	55.24
754.194	55.39
754.511	55.62
754.828	55.99
755.145	56.04
755.462	55.91
755.779	55.7
756.096	55.85
756.413	55.46
756.73	55.61
757.047	55.93
757.364	56.08
757.68	56.13
757.997	56.59
758.314	57.11
758.63	57.27
758.947	57.46
759.264	57.24
759.58	57.52
759.896	57.99
760.213	58.13
760.529	58.46
760.846	58.55
761.162	58.42
761.478	58.22
761.794	58.25
762.11	58.3
762.426	58.39
762.743	58.17
763.059	58.41
763.375	58.2
763.69	58.21
764.006	58.29
764.322	58.17
764.638	58.1
764.954	58.15
765.27	58.15
765.585	58.31
765.901	58.52
766.216	58.39
766.532	58.27
766.848	58.4
767.163	58.26
767.478	58.31
767.794	58.21
768.109	58.31
768.424	58.39
768.74	58.33
769.055	58.3
769.37	58.04
769.685	57.68
770	57.98
770.315	57.82
770.63	57.79
770.945	58.03
771.26	58.14
771.575	57.85
771.89	57.65
772.205	57.5
772.52	57.57
772.834	57.7
773.149	57.52
773.464	57.07
773.778	57.1
774.093	56.76
774.407	56.78
774.722	56.77
775.036	56.28
775.351	56.29
775.665	56.55
775.979	56.94
776.293	57.03
776.608	56.44
776.922	56.6
777.236	56.74
777.55	56.49
777.864	56.24
778.178	56.5
778.492	56.86
778.806	56.87
779.12	56.72
779.434	56.9
779.747	56.9
780.061	56.96
780.375	56.81
780.689	56.76
781.002	56.87
781.316	57.07
781.629	57.77
781.943	58.24
782.256	58.13
782.57	58.12
782.883	57.95
783.196	58.25
783.51	58.27
783.823	57.4
784.136	57.14
784.449	57.03
784.762	56.6
785.075	56.35
785.388	56.32
785.701	56.51
786.014	56.14
786.327	55.94
786.64	56.33
786.953	56.29
787.266	56.44
787.578	56.45
787.891	56.61
788.204	56.4
788.516	56.06
788.829	55.8
789.141	55.59
789.454	56.4
789.766	57.01
790.079	57.07
790.391	57.95
790.703	58.3
791.016	58.62
791.328	59.37
791.64	59.29
791.952	59.62
792.264	59.14
792.576	59.15
792.888	59.52
793.2	59.54
793.512	59.72
793.824	59.59
794.136	59.4
794.448	58.97
794.76	58.67
795.071	58.11
795.383	58.59
795.695	58.82
796.006	58.07
796.318	58.11
796.629	57.83
796.941	57.76
797.252	57.64
797.564	57.85
797.875	57.66
798.186	58.04
798.497	57.46
798.809	57.45
799.12	57.58
799.431	57.37
799.742	56.89
800.053	56.13
800.364	56.89
800.675	57.66
800.986	57.42
801.297	58.09
801.608	58.47
801.918	58.26
802.229	58.43
802.54	58.58
802.851	57.76
803.161	58.21
803.472	58.31
803.782	58.19
804.093	57.34
804.403	57.46
804.714	57.46
805.024	57.63
805.334	57.8
805.645	57.8
805.955	58.3
806.265	58.28
806.575	58.67
806.885	57.8
807.195	57.35
807.505	57.25
807.815	56.93
808.125	56.97
808.435	56.48
808.745	55.83
809.055	55.99
809.365	56.23
809.674	55.88
809.984	55.51
810.294	56.13
810.603	57.16
810.913	56.63
811.222	56.46
811.532	57
811.841	57.42
812.151	57.8
812.46	57.71
812.769	57.76
813.079	58.26
813.388	58.15
813.697	57.95
814.006	58.34
814.315	57.87
814.624	57.86
814.933	58.64
815.242	59.22
815.551	58.92
815.86	59
816.169	58.98
816.478	58.53
816.786	57.91
817.095	57.27
817.404	56.95
817.712	56.67
818.021	57.24
818.33	57.26
818.638	57.14
818.947	56.69
819.255	56.66
819.563	56.73
819.872	57.22
820.18	57.34
820.488	57.55
820.796	58.03
821.105	58
821.413	58.25
821.721	58.62
822.029	58.5
822.337	58.59
822.645	58.77
822.953	58.74
823.26	58.88
823.568	59.12
823.876	59.08
824.184	59.13
824.491	58.91
824.799	58.85
825.107	59.05
825.414	59.17
825.722	59.32
826.029	59.6
826.337	59.6
826.644	59.76
826.951	59.77
827.259	59.73
827.566	59.75
827.873	59.77
828.18	59.41
828.488	59.9
828.795	60.3
829.102	60
829.409	60.24
829.716	60.34
830.023	60.26
830.329	60.69
830.636	60.91
830.943	61.19
831.25	61.4
831.557	60.59
831.863	60.64
832.17	60.81
832.476	60.34
832.783	60.05
833.089	59.94
833.396	60.33
833.702	60.49
834.009	61.05
834.315	60.63
834.621	60.88
834.928	60.04
835.234	59.15
835.54	59.81
835.846	59.75
836.152	59.39
836.458	58.7
836.764	58.45
837.07	58.39
837.376	58.17
837.682	57.71
837.988	58.47
838.293	58.66
838.599	59.26
838.905	59.48
839.211	60.07
839.516	60.52
839.822	60.08
840.127	58.59
840.433	58.23
840.738	57.38
841.044	57.12
841.349	57.62
841.654	57.37
841.959	56.59
842.265	56.92
842.57	57.65
842.875	57.54
843.18	57.75
843.485	57.57
843.79	57.25
844.095	57.53
844.4	56.88
844.705	56.19
845.01	55
845.315	53.86
845.619	53.68
845.924	52.11
846.229	52.38
846.533	53.38
846.838	52.97
847.142	53.29
847.447	53.77
847.751	54.17
848.056	54.71
848.36	54.58
848.664	52.25
848.969	52.08
849.273	53.44
849.577	53.38
849.881	52.54
850.185	51.8
850.489	52.86
850.794	52.23
851.097	52.32
851.401	49.03
851.705	50.34
852.009	49.48
852.313	47.6
852.617	46.53
852.92	46.71
853.224	48
853.528	51.49
853.831	50.41
854.135	48.7
854.438	48.29
854.742	46.89
855.045	48.73
855.349	48.63
855.652	48.02
855.955	48.17
856.259	46.89
856.562	46.25
856.865	47.75
857.168	48.52
857.471	49.11
857.774	51.16
858.077	51.53
858.38	51.42
858.683	52.54
858.986	53.08
859.289	53.73
859.592	51.77
859.894	50.52
860.197	51.04
860.5	51.9
860.802	51.72
861.105	52.6
861.407	53.42
861.71	52.54
862.012	53.26
862.315	52.99
862.617	54.53
862.919	55.15
863.222	53.57
863.524	52.98
863.826	50.52
864.128	50.11
864.43	49.81
864.732	51.68
865.034	54.53
865.336	53.81
865.638	53.67
865.94	53.96
866.242	54.78
866.544	55.51
866.846	54.19
867.147	56.53
867.449	57.75
867.751	55.22
868.052	56.28
868.354	57.5
868.655	56.11
868.957	57.08
869.258	56.66
869.56	56.59
869.861	56.77
870.162	55.43
870.463	55.37
870.765	53.41
871.066	52.76
871.367	50.64
871.668	49.26
871.969	48.46
872.27	47.44
872.571	44.44
872.872	45.31
873.173	47.48
873.473	44.8
873.774	42.89
874.075	46.54
874.376	46.08
874.676	46.72
874.977	49.53
875.277	49.18
875.578	49.26
875.878	49.01
876.179	48.45
876.479	51.29
876.78	53.13
877.08	55.26
877.38	53.44
877.68	53.76
877.981	56.23
878.281	57.29
878.581	60.56
