Data from BA28304_Reflection_00005.txt Node
Date: Mon Nov 18 15:36:01 EST 2019
User: vgr7
Spectrometer: USB2G7710
Scans to average: 3
Trigger mode: 4
Integration Time (sec): 2.000000E-2
Electric dark correction enabled: true
Boxcar width: 10
XAxis mode: Wavelengths
Number of Pixels in Spectrum: 2048
>>>>>Begin Spectral Data<<<<<
177.721	41.7
178.105	58.23
178.488	-28.18
178.871	-172.28
179.254	-37.83
179.636	-8.03
180.019	-145.12
180.402	158.06
180.785	-133.08
181.168	-2400
181.55	1217.65
181.933	72.07
182.316	94.68
182.698	64.97
183.081	117.8
183.463	2867.44
183.846	-551.88
184.228	-565.89
184.611	3354.55
184.993	1682.28
185.376	-1068.22
185.758	-309.02
186.14	-234.67
186.522	-366.01
186.904	-1432.02
187.287	-1354.18
187.669	-443.39
188.051	-641.47
188.433	-458.96
188.815	-346.76
189.197	-354.09
189.579	-224.4
189.961	-233.97
190.342	-180.58
190.724	-118.45
191.106	-124.77
191.488	-132.75
191.869	-115.76
192.251	-98.32
192.633	-83.68
193.014	-83.2
193.396	-128.34
193.777	-109.91
194.159	-120.75
194.54	-95.1
194.922	-65.27
195.303	-55.51
195.684	-59.91
196.065	-57.39
196.447	-75.42
196.828	-81.89
197.209	-71.34
197.59	-92.51
197.971	-101.58
198.352	-83.11
198.733	-158.36
199.114	-137.86
199.495	-103.22
199.876	-145.77
200.257	-210.78
200.638	-139.38
201.018	-208.34
201.399	-149.69
201.78	-144.36
202.16	-154.01
202.541	-282.99
202.922	-1029.26
203.302	-2300.78
203.683	-908.34
204.063	647100
204.444	-1311.13
204.824	-646.65
205.204	-322.33
205.585	-435.69
205.965	-535.34
206.345	-1216.25
206.725	-855.08
207.106	-1725.15
207.486	3969.96
207.866	-4888.44
208.246	-697.75
208.626	-931.88
209.006	-620.16
209.386	-1124.46
209.766	-1078.22
210.145	-640.9
210.525	-362.19
210.905	-287.33
211.285	-201.08
211.664	-187.06
212.044	-216.64
212.424	-204.82
212.803	-203.62
213.183	-296.09
213.562	-230.05
213.942	-181.18
214.321	-129.11
214.701	-213.74
215.08	-163.1
215.459	-128.69
215.838	-112.31
216.218	-142.18
216.597	-141.09
216.976	-118.98
217.355	-103.7
217.734	-105.65
218.113	-88.25
218.492	-120.26
218.871	-113.58
219.25	-109.85
219.629	-125.56
220.008	-63.27
220.387	-62.63
220.766	-56.9
221.144	-73.56
221.523	-61.62
221.902	-51.45
222.28	-72.28
222.659	-58.82
223.037	-55.81
223.416	-53.64
223.794	-51.55
224.173	-42.86
224.551	-38.06
224.929	-29.71
225.308	-24.81
225.686	-24.23
226.064	-21.41
226.442	-19.06
226.821	-15.11
227.199	-16.78
227.577	-17.68
227.955	-19.5
228.333	-22.73
228.711	-18.09
229.089	-12.01
229.467	-14.18
229.845	-15.18
230.222	-11.67
230.6	-10.54
230.978	-11.71
231.356	-9.23
231.733	-8.44
232.111	-6.97
232.488	-8.37
232.866	-10.03
233.243	-9.96
233.621	-9.32
233.998	-8.9
234.376	-7.8
234.753	-9.37
235.13	-9.38
235.508	-7.82
235.885	-7
236.262	-5.57
236.639	-4.89
237.016	-4.74
237.393	-2.54
237.77	-1.49
238.147	-1.04
238.524	-0.44
238.901	1.23
239.278	1.18
239.655	1.71
240.032	2.08
240.409	2.37
240.785	2.42
241.162	2.77
241.539	2.81
241.915	2.75
242.292	2.41
242.668	3.04
243.045	2.88
243.421	2.66
243.798	2.82
244.174	2.78
244.551	2.94
244.927	3.2
245.303	3.38
245.679	3.57
246.056	3.73
246.432	3.63
246.808	3.63
247.184	3.06
247.56	3.04
247.936	2.73
248.312	2.81
248.688	2.93
249.064	3.07
249.44	3.18
249.815	3.33
250.191	3.73
250.567	3.74
250.943	3.93
251.318	4.06
251.694	3.96
252.069	4.05
252.445	3.67
252.82	3.5
253.196	3.26
253.571	2.93
253.947	2.93
254.322	2.99
254.697	2.88
255.073	3.44
255.448	3.37
255.823	3.69
256.198	3.65
256.573	3.71
256.948	3.79
257.323	3.79
257.698	3.72
258.073	3.49
258.448	3.59
258.823	3.71
259.198	3.57
259.573	3.67
259.948	3.67
260.322	3.84
260.697	3.76
261.072	3.56
261.446	3.71
261.821	3.51
262.195	3.61
262.57	3.57
262.944	3.49
263.319	3.51
263.693	3.45
264.067	3.53
264.442	3.41
264.816	3.27
265.19	3.09
265.564	3
265.938	2.84
266.313	2.62
266.687	2.46
267.061	2.78
267.435	2.73
267.809	2.76
268.183	2.84
268.556	2.88
268.93	3.06
269.304	3.05
269.678	3.29
270.051	3.18
270.425	3.25
270.799	3.34
271.172	3.35
271.546	3.2
271.919	3.08
272.293	3.18
272.666	3.08
273.04	3.07
273.413	3.01
273.787	3.13
274.16	3.22
274.533	3.26
274.906	3.02
275.279	3
275.653	2.96
276.026	2.82
276.399	2.83
276.772	2.84
277.145	2.92
277.518	2.78
277.891	2.83
278.263	2.71
278.636	2.85
279.009	2.88
279.382	3.27
279.755	3.33
280.127	3.43
280.5	3.69
280.872	3.86
281.245	3.77
281.617	4.02
281.99	4.13
282.362	4.21
282.735	4.22
283.107	4.17
283.479	4.3
283.852	4.35
284.224	4.31
284.596	4.26
284.968	4.26
285.34	4.35
285.713	4.34
286.085	4.4
286.457	4.46
286.829	4.47
287.201	4.28
287.572	4.26
287.944	4.01
288.316	3.93
288.688	3.96
289.06	4.03
289.431	3.93
289.803	3.83
290.175	3.74
290.546	3.85
290.918	4.02
291.289	4.01
291.661	4.06
292.032	4.2
292.403	4.32
292.775	4.24
293.146	4.19
293.517	4.22
293.889	4.32
294.26	4.2
294.631	4.21
295.002	4.19
295.373	4.16
295.744	4.3
296.115	4.32
296.486	4.12
296.857	4.07
297.228	4.09
297.599	3.95
297.97	3.91
298.34	3.93
298.711	3.99
299.082	3.89
299.452	3.86
299.823	3.76
300.194	3.74
300.564	3.68
300.935	3.65
301.305	3.6
301.676	3.56
302.046	3.54
302.416	3.59
302.787	3.67
303.157	3.65
303.527	3.6
303.897	3.53
304.267	3.66
304.637	3.69
305.008	3.67
305.378	3.76
305.748	3.85
306.117	3.7
306.487	3.48
306.857	3.53
307.227	3.5
307.597	3.5
307.967	3.51
308.336	3.52
308.706	3.53
309.076	3.5
309.445	3.39
309.815	3.31
310.184	3.18
310.554	3.15
310.923	3.12
311.293	3.08
311.662	2.99
312.031	2.99
312.401	3.04
312.77	2.97
313.139	2.99
313.508	2.85
313.877	2.91
314.246	2.99
314.616	2.95
314.985	2.88
315.353	2.82
315.722	2.72
316.091	2.73
316.46	2.69
316.829	2.77
317.198	2.78
317.567	2.71
317.935	2.82
318.304	2.66
318.672	2.63
319.041	2.77
319.41	2.97
319.778	2.93
320.147	2.86
320.515	2.91
320.883	2.91
321.252	3.05
321.62	3.07
321.988	2.97
322.357	2.95
322.725	2.92
323.093	3.04
323.461	3.02
323.829	2.91
324.197	2.9
324.565	2.84
324.933	2.91
325.301	2.99
325.669	2.94
326.037	3.11
326.405	3.14
326.772	2.99
327.14	2.93
327.508	2.92
327.875	2.82
328.243	2.84
328.61	2.87
328.978	2.88
329.346	2.92
329.713	2.85
330.08	2.9
330.448	2.86
330.815	2.71
331.182	2.71
331.55	2.79
331.917	2.82
332.284	2.77
332.651	2.75
333.018	2.64
333.385	2.67
333.752	2.68
334.119	2.76
334.486	2.86
334.853	2.79
335.22	2.73
335.587	2.88
335.954	2.91
336.32	2.82
336.687	2.83
337.054	2.77
337.42	2.79
337.787	2.85
338.153	2.93
338.52	3.02
338.886	2.94
339.253	2.93
339.619	2.88
339.986	2.96
340.352	3
340.718	3.07
341.084	2.94
341.451	2.89
341.817	2.83
342.183	2.81
342.549	2.86
342.915	2.89
343.281	2.79
343.647	2.74
344.013	2.87
344.379	2.88
344.745	2.86
345.11	2.95
345.476	2.91
345.842	2.92
346.208	2.88
346.573	3
346.939	3.09
347.304	3.19
347.67	3.09
348.035	3
348.401	3.09
348.766	3.15
349.132	3.14
349.497	3.15
349.862	3.29
350.228	3.2
350.593	3.13
350.958	3.16
351.323	3.12
351.688	3.08
352.053	3.15
352.418	3.17
352.783	3.11
353.148	3.09
353.513	3.13
353.878	3.16
354.243	3.15
354.608	3.17
354.972	3.16
355.337	3.22
355.702	3.3
356.066	3.34
356.431	3.32
356.795	3.31
357.16	3.29
357.524	3.15
357.889	3.22
358.253	3.35
358.618	3.39
358.982	3.34
359.346	3.29
359.71	3.22
360.075	3.24
360.439	3.3
360.803	3.28
361.167	3.16
361.531	3.11
361.895	3.07
362.259	3.02
362.623	3
362.987	3
363.351	3.01
363.714	2.92
364.078	2.88
364.442	2.85
364.806	2.88
365.169	2.91
365.533	2.92
365.896	2.84
366.26	2.83
366.623	2.92
366.987	2.9
367.35	2.88
367.714	2.85
368.077	2.79
368.44	2.78
368.803	2.88
369.167	2.91
369.53	2.87
369.893	2.89
370.256	2.86
370.619	2.92
370.982	2.9
371.345	2.82
371.708	2.9
372.071	2.93
372.434	2.94
372.797	2.94
373.159	2.92
373.522	2.95
373.885	2.91
374.247	2.89
374.61	2.97
374.973	3
375.335	2.99
375.698	3.02
376.06	3.09
376.423	3.11
376.785	3.17
377.147	3.24
377.51	3.21
377.872	3.31
378.234	3.26
378.596	3.27
378.958	3.36
379.321	3.34
379.683	3.37
380.045	3.4
380.407	3.37
380.769	3.36
381.13	3.37
381.492	3.43
381.854	3.43
382.216	3.38
382.578	3.35
382.939	3.29
383.301	3.26
383.663	3.21
384.024	3.16
384.386	3.16
384.747	3.17
385.109	3.2
385.47	3.09
385.832	3.06
386.193	3.01
386.554	3.01
386.916	3
387.277	3.02
387.638	3
387.999	3.01
388.36	3.04
388.721	3.07
389.082	3.07
389.443	3.06
389.804	3.06
390.165	3.04
390.526	3.13
390.887	3.13
391.248	3.15
391.609	3.15
391.969	3.15
392.33	3.15
392.691	3.13
393.051	3.16
393.412	3.2
393.772	3.22
394.133	3.22
394.493	3.24
394.854	3.19
395.214	3.16
395.574	3.17
395.935	3.13
396.295	3.12
396.655	3.1
397.015	3.1
397.376	3.1
397.736	3.14
398.096	3.09
398.456	3.1
398.816	3.08
399.176	3.07
399.535	3.04
399.895	3.01
400.255	3.02
400.615	3.05
400.975	3.03
401.334	2.99
401.694	3
402.054	2.99
402.413	3.02
402.773	3.04
403.132	3.02
403.492	3.06
403.851	3.06
404.211	3.06
404.57	3.04
404.929	3.08
405.288	3.08
405.648	3.09
406.007	3.09
406.366	3.1
406.725	3.13
407.084	3.11
407.443	3.12
407.802	3.11
408.161	3.09
408.52	3.07
408.879	3.09
409.238	3.13
409.596	3.11
409.955	3.09
410.314	3.11
410.673	3.09
411.031	3.05
411.39	3.06
411.748	3.04
412.107	3.02
412.465	2.99
412.824	2.99
413.182	3
413.54	3.01
413.899	3.02
414.257	3.04
414.615	3.04
414.974	3.08
415.332	3.08
415.69	3.08
416.048	3.08
416.406	3.09
416.764	3.05
417.122	3.08
417.48	3.08
417.838	3.08
418.195	3.1
418.553	3.1
418.911	3.1
419.269	3.12
419.626	3.15
419.984	3.17
420.342	3.18
420.699	3.16
421.057	3.18
421.414	3.17
421.772	3.17
422.129	3.18
422.486	3.17
422.844	3.18
423.201	3.17
423.558	3.17
423.915	3.18
424.273	3.19
424.63	3.17
424.987	3.17
425.344	3.17
425.701	3.17
426.058	3.18
426.415	3.19
426.772	3.17
427.128	3.15
427.485	3.14
427.842	3.13
428.199	3.14
428.555	3.12
428.912	3.14
429.269	3.15
429.625	3.14
429.982	3.14
430.338	3.15
430.695	3.15
431.051	3.14
431.407	3.15
431.764	3.14
432.12	3.14
432.476	3.14
432.832	3.13
433.189	3.14
433.545	3.13
433.901	3.12
434.257	3.13
434.613	3.15
434.969	3.16
435.325	3.19
435.681	3.19
436.036	3.19
436.392	3.19
436.748	3.16
437.104	3.15
437.459	3.15
437.815	3.13
438.171	3.14
438.526	3.15
438.882	3.15
439.237	3.17
439.593	3.19
439.948	3.19
440.304	3.2
440.659	3.18
441.014	3.18
441.369	3.18
441.725	3.17
442.08	3.16
442.435	3.17
442.79	3.14
443.145	3.14
443.5	3.15
443.855	3.12
444.21	3.14
444.565	3.15
444.92	3.15
445.275	3.15
445.629	3.16
445.984	3.16
446.339	3.14
446.693	3.13
447.048	3.12
447.403	3.11
447.757	3.09
448.112	3.08
448.466	3.08
448.82	3.09
449.175	3.1
449.529	3.1
449.883	3.07
450.238	3.07
450.592	3.07
450.946	3.05
451.3	3.06
451.654	3.05
452.008	3.05
452.362	3.05
452.716	3.06
453.07	3.04
453.424	3.04
453.778	3.04
454.132	3.04
454.486	3.03
454.839	3.03
455.193	3.03
455.547	3.05
455.9	3.05
456.254	3.06
456.607	3.04
456.961	3.04
457.314	3.05
457.668	3.06
458.021	3.05
458.375	3.06
458.728	3.06
459.081	3.06
459.434	3.05
459.787	3.04
460.141	3.04
460.494	3.05
460.847	3.05
461.2	3.06
461.553	3.06
461.906	3.07
462.259	3.09
462.611	3.11
462.964	3.12
463.317	3.12
463.67	3.13
464.022	3.13
464.375	3.13
464.728	3.14
465.08	3.14
465.433	3.14
465.785	3.16
466.138	3.17
466.49	3.16
466.843	3.17
467.195	3.19
467.547	3.19
467.899	3.18
468.252	3.18
468.604	3.18
468.956	3.18
469.308	3.16
469.66	3.14
470.012	3.14
470.364	3.14
470.716	3.13
471.068	3.13
471.42	3.13
471.772	3.15
472.123	3.14
472.475	3.11
472.827	3.11
473.178	3.12
473.53	3.12
473.882	3.13
474.233	3.13
474.585	3.11
474.936	3.1
475.288	3.1
475.639	3.11
475.99	3.1
476.342	3.11
476.693	3.12
477.044	3.15
477.395	3.15
477.746	3.16
478.097	3.17
478.448	3.18
478.8	3.19
479.15	3.17
479.501	3.17
479.852	3.2
480.203	3.21
480.554	3.21
480.905	3.22
481.255	3.22
481.606	3.22
481.957	3.23
482.307	3.25
482.658	3.25
483.009	3.25
483.359	3.26
483.709	3.27
484.06	3.27
484.41	3.27
484.761	3.27
485.111	3.26
485.461	3.26
485.811	3.26
486.162	3.27
486.512	3.28
486.862	3.28
487.212	3.27
487.562	3.27
487.912	3.26
488.262	3.26
488.612	3.26
488.961	3.27
489.311	3.27
489.661	3.26
490.011	3.25
490.36	3.24
490.71	3.23
491.06	3.23
491.409	3.21
491.759	3.21
492.108	3.2
492.458	3.22
492.807	3.22
493.157	3.22
493.506	3.21
493.855	3.2
494.204	3.2
494.554	3.19
494.903	3.18
495.252	3.18
495.601	3.2
495.95	3.2
496.299	3.19
496.648	3.18
496.997	3.18
497.346	3.2
497.695	3.2
498.043	3.19
498.392	3.2
498.741	3.22
499.09	3.22
499.438	3.23
499.787	3.22
500.135	3.21
500.484	3.22
500.832	3.22
501.181	3.22
501.529	3.22
501.878	3.24
502.226	3.24
502.574	3.24
502.923	3.24
503.271	3.23
503.619	3.24
503.967	3.24
504.315	3.23
504.663	3.24
505.011	3.25
505.359	3.24
505.707	3.25
506.055	3.26
506.403	3.3
506.751	3.29
507.098	3.3
507.446	3.31
507.794	3.32
508.141	3.3
508.489	3.3
508.837	3.34
509.184	3.34
509.531	3.36
509.879	3.38
510.226	3.38
510.574	3.41
510.921	3.43
511.268	3.42
511.616	3.44
511.963	3.44
512.31	3.44
512.657	3.48
513.004	3.47
513.351	3.48
513.698	3.45
514.045	3.46
514.392	3.45
514.739	3.44
515.086	3.43
515.432	3.44
515.779	3.44
516.126	3.43
516.473	3.45
516.819	3.44
517.166	3.44
517.512	3.44
517.859	3.43
518.205	3.41
518.552	3.43
518.898	3.43
519.245	3.43
519.591	3.44
519.937	3.44
520.283	3.43
520.629	3.43
520.976	3.44
521.322	3.46
521.668	3.47
522.014	3.48
522.36	3.49
522.706	3.51
523.052	3.52
523.398	3.53
523.743	3.52
524.089	3.55
524.435	3.54
524.781	3.55
525.126	3.55
525.472	3.55
525.817	3.56
526.163	3.55
526.509	3.55
526.854	3.56
527.199	3.55
527.545	3.57
527.89	3.57
528.235	3.58
528.581	3.57
528.926	3.58
529.271	3.58
529.616	3.58
529.961	3.56
530.306	3.56
530.651	3.56
530.996	3.56
531.341	3.56
531.686	3.57
532.031	3.57
532.376	3.58
532.721	3.58
533.065	3.58
533.41	3.59
533.755	3.59
534.099	3.6
534.444	3.61
534.788	3.62
535.133	3.62
535.477	3.62
535.822	3.62
536.166	3.61
536.51	3.64
536.855	3.64
537.199	3.65
537.543	3.65
537.887	3.65
538.231	3.64
538.576	3.65
538.92	3.66
539.264	3.66
539.608	3.66
539.951	3.66
540.295	3.67
540.639	3.68
540.983	3.68
541.327	3.68
541.671	3.67
542.014	3.65
542.358	3.64
542.701	3.64
543.045	3.64
543.389	3.64
543.732	3.63
544.075	3.64
544.419	3.66
544.762	3.68
545.105	3.68
545.449	3.68
545.792	3.67
546.135	3.67
546.478	3.66
546.821	3.68
547.165	3.67
547.508	3.67
547.851	3.67
548.194	3.67
548.536	3.67
548.879	3.72
549.222	3.74
549.565	3.75
549.908	3.77
550.25	3.78
550.593	3.78
550.936	3.76
551.278	3.74
551.621	3.75
551.963	3.73
552.306	3.75
552.648	3.76
552.991	3.76
553.333	3.76
553.675	3.8
554.017	3.78
554.36	3.76
554.702	3.8
555.044	3.76
555.386	3.76
555.728	3.76
556.07	3.74
556.412	3.73
556.754	3.73
557.096	3.71
557.438	3.73
557.78	3.74
558.121	3.75
558.463	3.76
558.805	3.78
559.147	3.78
559.488	3.75
559.83	3.75
560.171	3.73
560.513	3.75
560.854	3.72
561.196	3.73
561.537	3.78
561.878	3.74
562.22	3.73
562.561	3.73
562.902	3.73
563.243	3.72
563.584	3.75
563.925	3.75
564.266	3.72
564.607	3.72
564.948	3.75
565.289	3.76
565.63	3.75
565.971	3.71
566.312	3.74
566.653	3.75
566.993	3.75
567.334	3.77
567.675	3.75
568.015	3.75
568.356	3.75
568.696	3.74
569.037	3.74
569.377	3.76
569.718	3.8
570.058	3.78
570.398	3.77
570.739	3.76
571.079	3.74
571.419	3.79
571.759	3.81
572.099	3.78
572.439	3.79
572.779	3.8
573.119	3.82
573.459	3.8
573.799	3.81
574.139	3.79
574.479	3.78
574.819	3.8
575.158	3.82
575.498	3.81
575.838	3.78
576.177	3.78
576.517	3.78
576.856	3.74
577.196	3.76
577.535	3.76
577.875	3.74
578.214	3.77
578.553	3.75
578.893	3.74
579.232	3.73
579.571	3.71
579.91	3.71
580.25	3.71
580.589	3.72
580.928	3.73
581.267	3.75
581.606	3.76
581.945	3.74
582.283	3.72
582.622	3.76
582.961	3.79
583.3	3.76
583.639	3.79
583.977	3.82
584.316	3.81
584.654	3.83
584.993	3.84
585.332	3.83
585.67	3.81
586.008	3.78
586.347	3.78
586.685	3.79
587.024	3.83
587.362	3.82
587.7	3.78
588.038	3.77
588.376	3.76
588.715	3.74
589.053	3.73
589.391	3.74
589.729	3.77
590.067	3.75
590.404	3.82
590.742	3.81
591.08	3.78
591.418	3.81
591.756	3.8
592.093	3.81
592.431	3.79
592.769	3.8
593.106	3.78
593.444	3.78
593.781	3.79
594.119	3.81
594.456	3.8
594.793	3.81
595.131	3.78
595.468	3.79
595.805	3.8
596.143	3.82
596.48	3.79
596.817	3.78
597.154	3.77
597.491	3.71
597.828	3.72
598.165	3.73
598.502	3.68
598.839	3.69
599.176	3.7
599.512	3.7
599.849	3.73
600.186	3.77
600.523	3.81
600.859	3.83
601.196	3.8
601.532	3.78
601.869	3.8
602.205	3.81
602.542	3.83
602.878	3.81
603.215	3.82
603.551	3.85
603.887	3.83
604.223	3.83
604.56	3.87
604.896	3.87
605.232	3.89
605.568	3.91
605.904	3.9
606.24	3.94
606.576	3.93
606.912	3.93
607.248	3.9
607.583	3.9
607.919	3.88
608.255	3.86
608.591	3.87
608.926	3.83
609.262	3.88
609.597	3.85
609.933	3.91
610.268	3.95
610.604	3.93
610.939	3.95
611.275	3.96
611.61	3.97
611.945	3.94
612.281	3.97
612.616	3.97
612.951	3.99
613.286	3.99
613.621	4.01
613.956	3.99
614.291	3.99
614.626	3.99
614.961	3.96
615.296	3.97
615.631	3.99
615.966	4.02
616.3	4.02
616.635	4.04
616.97	3.99
617.304	3.92
617.639	3.94
617.973	3.95
618.308	3.96
618.642	3.96
618.977	3.99
619.311	3.92
619.646	3.96
619.98	3.94
620.314	3.91
620.648	3.93
620.983	3.92
621.317	3.96
621.651	3.96
621.985	4.01
622.319	4.02
622.653	4.07
622.987	4.12
623.321	4.1
623.655	4.11
623.988	4.19
624.322	4.19
624.656	4.23
624.99	4.23
625.323	4.24
625.657	4.21
625.99	4.19
626.324	4.21
626.657	4.19
626.991	4.2
627.324	4.2
627.658	4.23
627.991	4.23
628.324	4.23
628.657	4.22
628.991	4.22
629.324	4.24
629.657	4.27
629.99	4.23
630.323	4.22
630.656	4.26
630.989	4.24
631.322	4.26
631.655	4.2
631.987	4.22
632.32	4.24
632.653	4.28
632.986	4.34
633.318	4.26
633.651	4.28
633.984	4.25
634.316	4.23
634.649	4.18
634.981	4.16
635.313	4.14
635.646	4.15
635.978	4.13
636.31	4.08
636.643	4.04
636.975	4.02
637.307	3.98
637.639	3.9
637.971	3.82
638.303	3.77
638.635	3.74
638.967	3.72
639.299	3.69
639.631	3.61
639.963	3.56
640.295	3.59
640.626	3.58
640.958	3.59
641.29	3.61
641.621	3.62
641.953	3.6
642.285	3.63
642.616	3.64
642.948	3.65
643.279	3.66
643.61	3.62
643.942	3.6
644.273	3.72
644.604	3.76
644.936	3.8
645.267	3.83
645.598	3.84
645.929	3.88
646.26	3.9
646.591	3.95
646.922	3.91
647.253	3.93
647.584	3.94
647.915	3.94
648.245	3.9
648.576	3.96
648.907	4.02
649.238	3.98
649.568	3.95
649.899	3.93
650.229	3.92
650.56	3.98
650.89	3.97
651.221	3.9
651.551	3.87
651.882	3.89
652.212	3.93
652.542	3.89
652.872	3.84
653.203	3.8
653.533	3.85
653.863	3.91
654.193	3.98
654.523	3.94
654.853	3.99
655.183	4.04
655.513	4.01
655.843	4.03
656.172	4.05
656.502	4.13
656.832	4.16
657.162	4.23
657.491	4.18
657.821	4.18
658.15	4.17
658.48	4.2
658.809	4.15
659.139	4.1
659.468	4.19
659.798	4.21
660.127	4.28
660.456	4.25
660.785	4.27
661.115	4.27
661.444	4.32
661.773	4.27
662.102	4.28
662.431	4.36
662.76	4.34
663.089	4.3
663.418	4.28
663.747	4.31
664.076	4.26
664.404	4.33
664.733	4.43
665.062	4.56
665.39	4.56
665.719	4.61
666.048	4.73
666.376	4.69
666.705	4.6
667.033	4.53
667.362	4.58
667.69	4.55
668.018	4.54
668.347	4.59
668.675	4.57
669.003	4.59
669.331	4.53
669.659	4.58
669.987	4.59
670.315	4.61
670.643	4.57
670.971	4.6
671.299	4.61
671.627	4.58
671.955	4.48
672.283	4.49
672.61	4.46
672.938	4.4
673.266	4.42
673.593	4.56
673.921	4.57
674.249	4.53
674.576	4.55
674.904	4.58
675.231	4.56
675.558	4.65
675.886	4.65
676.213	4.64
676.54	4.59
676.867	4.64
677.195	4.6
677.522	4.59
677.849	4.61
678.176	4.57
678.503	4.55
678.83	4.57
679.157	4.62
679.484	4.63
679.81	4.61
680.137	4.6
680.464	4.56
680.791	4.62
681.117	4.57
681.444	4.54
681.771	4.56
682.097	4.49
682.424	4.48
682.75	4.43
683.077	4.44
683.403	4.51
683.729	4.5
684.056	4.49
684.382	4.54
684.708	4.59
685.034	4.58
685.36	4.63
685.686	4.58
686.012	4.51
686.339	4.52
686.664	4.55
686.99	4.71
687.316	4.74
687.642	4.76
687.968	4.84
688.294	4.9
688.619	4.97
688.945	5
689.271	4.99
689.596	4.88
689.922	4.83
690.247	4.7
690.573	4.81
690.898	4.78
691.224	4.77
691.549	4.71
691.874	4.68
692.2	4.63
692.525	4.72
692.85	4.8
693.175	4.93
693.5	4.96
693.825	4.87
694.15	4.9
694.475	4.79
694.8	4.8
695.125	4.75
695.45	4.6
695.775	4.66
696.099	4.74
696.424	4.82
696.749	4.86
697.073	4.94
697.398	4.87
697.723	5.03
698.047	4.97
698.372	4.95
698.696	5.02
699.02	5.03
699.345	4.98
699.669	5.05
699.993	4.94
700.318	4.87
700.642	4.8
700.966	4.73
701.29	4.8
701.614	4.81
701.938	4.86
702.262	4.99
702.586	5.01
702.91	4.88
703.234	5.01
703.557	5.05
703.881	5.04
704.205	5.04
704.529	4.97
704.852	5.12
705.176	5.04
705.499	5.04
705.823	5.09
706.146	5.04
706.47	4.96
706.793	4.94
707.117	4.94
707.44	4.96
707.763	4.95
708.086	4.86
708.409	4.9
708.733	4.78
709.056	4.61
709.379	4.67
709.702	4.76
710.025	4.66
710.348	4.61
710.671	4.52
710.993	4.59
711.316	4.54
711.639	4.57
711.962	4.73
712.284	4.66
712.607	4.65
712.93	4.72
713.252	4.62
713.575	4.6
713.897	4.73
714.22	4.79
714.542	4.74
714.864	4.8
715.187	4.87
715.509	5.04
715.831	5.17
716.153	5.09
716.475	5.05
716.798	5.2
717.12	5.12
717.442	5.2
717.764	5.15
718.085	5.13
718.407	5.07
718.729	5.08
719.051	5.21
719.373	5.2
719.695	5.22
720.016	5.29
720.338	5.43
720.659	5.29
720.981	5.33
721.302	5.37
721.624	5.36
721.945	5.07
722.267	5.04
722.588	4.92
722.909	5
723.231	4.95
723.552	4.77
723.873	4.95
724.194	4.93
724.515	4.94
724.836	4.96
725.157	4.99
725.478	4.92
725.799	4.81
726.12	4.81
726.441	4.85
726.762	4.74
727.083	4.81
727.403	4.9
727.724	5
728.045	5.13
728.365	5.09
728.686	5.2
729.006	5.11
729.327	5.18
729.647	5.21
729.967	5.3
730.288	5.34
730.608	5.38
730.928	5.37
731.249	5.36
731.569	5.47
731.889	5.34
732.209	5.33
732.529	5.37
732.849	5.45
733.169	5.38
733.489	5.62
733.809	5.44
734.129	5.33
734.448	5.27
734.768	5.11
735.088	5.35
735.408	5.53
735.727	5.6
736.047	5.71
736.366	5.55
736.686	5.48
737.005	5.61
737.325	5.61
737.644	5.61
737.963	5.71
738.283	5.58
738.602	5.8
738.921	5.88
739.24	5.71
739.56	5.57
739.879	5.57
740.198	5.5
740.517	5.65
740.836	5.76
741.155	5.75
741.473	6.08
741.792	5.95
742.111	5.78
742.43	5.88
742.748	5.59
743.067	5.79
743.386	5.97
743.704	5.9
744.023	5.85
744.341	5.86
744.66	5.88
744.978	5.74
745.297	5.63
745.615	5.79
745.933	6.11
746.252	6.31
746.57	6.38
746.888	5.97
747.206	5.81
747.524	5.88
747.842	5.94
748.16	6
748.478	5.8
748.796	5.96
749.114	6.11
749.432	6.25
749.749	6.19
750.067	5.91
750.385	6.11
750.703	6.2
751.02	6.18
751.338	5.88
751.655	6.27
751.973	6.39
752.29	6.17
752.608	5.93
752.925	5.81
753.242	5.84
753.56	6.25
753.877	6.41
754.194	6.39
754.511	6.34
754.828	6.04
755.145	5.94
755.462	5.6
755.779	5.31
756.096	5.42
756.413	5.65
756.73	6.06
757.047	5.64
757.364	5.43
757.68	5.63
757.997	5.77
758.314	5.75
758.63	5.6
758.947	5.72
759.264	5.78
759.58	5.63
759.896	5.91
760.213	5.78
760.529	5.78
760.846	5.73
761.162	5.71
761.478	5.74
761.794	5.84
762.11	6.07
762.426	6.26
762.743	6.28
763.059	6.11
763.375	5.98
763.69	6.29
764.006	6.57
764.322	6.6
764.638	6.69
764.954	6.88
765.27	6.76
765.585	6.61
765.901	6.68
766.216	6.88
766.532	6.71
766.848	6.65
767.163	6.72
767.478	6.7
767.794	6.63
768.109	6.53
768.424	6.94
768.74	6.82
769.055	6.59
769.37	6.4
769.685	6.29
770	6.28
770.315	6.06
770.63	5.91
770.945	5.87
771.26	5.79
771.575	5.14
771.89	5.58
772.205	5.77
772.52	6.04
772.834	5.98
773.149	5.79
773.464	5.78
773.778	5.79
774.093	5.61
774.407	5.76
774.722	6.11
775.036	5.67
775.351	5.91
775.665	5.6
775.979	5.83
776.293	5.97
776.608	5.99
776.922	5.92
777.236	5.81
777.55	5.68
777.864	5.68
778.178	5.79
778.492	5.52
778.806	5.25
779.12	5.01
779.434	5.06
779.747	5.3
780.061	5.68
780.375	5.46
780.689	5.71
781.002	5.68
781.316	5.74
781.629	5.91
781.943	5.99
782.256	6.53
782.57	6.59
782.883	6.61
783.196	6.53
783.51	6.7
783.823	6.61
784.136	6.28
784.449	6.19
784.762	6.35
785.075	6.47
785.388	6.64
785.701	6.43
786.014	6.2
786.327	6.22
786.64	6.44
786.953	6.73
787.266	6.46
787.578	6.52
787.891	6.05
788.204	5.77
788.516	5.79
788.829	5.73
789.141	6.1
789.454	6.31
789.766	6.83
790.079	6.62
790.391	6.53
790.703	7.03
791.016	7.72
791.328	7.78
791.64	7.87
791.952	7.88
792.264	7.88
792.576	7.84
792.888	7.58
793.2	7.47
793.512	7.15
793.824	7.17
794.136	7.24
794.448	7.87
794.76	7.83
795.071	7.67
795.383	7.4
795.695	7.08
796.006	6.9
796.318	6.3
796.629	6.57
796.941	6.62
797.252	6.73
797.564	6.18
797.875	6.03
798.186	5.53
798.497	5.47
798.809	5.79
799.12	6.34
799.431	6.55
799.742	6.69
800.053	6.94
800.364	7.29
800.675	7.24
800.986	6.63
801.297	6.4
801.608	5.89
801.918	6.43
802.229	6.1
802.54	6.33
802.851	6.49
803.161	6.2
803.472	6.34
803.782	5.82
804.093	5.93
804.403	5.78
804.714	6.1
805.024	5.83
805.334	5.75
805.645	6.09
805.955	5.88
806.265	5.91
806.575	6.03
806.885	6.4
807.195	6.42
807.505	6.91
807.815	7.57
808.125	7.93
808.435	7.88
808.745	7.99
809.055	7.6
809.365	7.85
809.674	7.82
809.984	7.77
810.294	7.84
810.603	7.85
810.913	8.43
811.222	8.85
811.532	9.27
811.841	9.52
812.151	9.49
812.46	9.68
812.769	9.41
813.079	8.66
813.388	8.36
813.697	8.36
814.006	8.58
814.315	8.67
814.624	8.61
814.933	8.85
815.242	8.61
815.551	9.09
815.86	8.7
816.169	9.19
816.478	9.2
816.786	9.78
817.095	9.76
817.404	9.76
817.712	9.67
818.021	9.47
818.33	9.14
818.638	8.96
818.947	9.44
819.255	9.37
819.563	9.69
819.872	9.74
820.18	9.89
820.488	9.63
820.796	9.55
821.105	9.48
821.413	9.48
821.721	9.88
822.029	9.82
822.337	10.02
822.645	10.06
822.953	10.04
823.26	9.89
823.568	9.97
823.876	9.93
824.184	9.9
824.491	10.08
824.799	10.21
825.107	10.13
825.414	10.04
825.722	10.12
826.029	10.21
826.337	10.19
826.644	10.18
826.951	10.16
827.259	10.15
827.566	10.38
827.873	10.11
828.18	9.97
828.488	9.9
828.795	9.67
829.102	9.73
829.409	9.94
829.716	9.84
830.023	9.73
830.329	9.8
830.636	9.92
830.943	9.58
831.25	9.39
831.557	9.44
831.863	9.24
832.17	9.13
832.476	9.16
832.783	9.46
833.089	9.67
833.396	9.99
833.702	10.66
834.009	10.79
834.315	11.1
834.621	10.95
834.928	11.12
835.234	11.18
835.54	10.88
835.846	10.65
836.152	11.19
836.458	11.13
836.764	10.85
837.07	10.84
837.376	11.09
837.682	11.2
837.988	11.38
838.293	11.32
838.599	11.48
838.905	11.46
839.211	11.05
839.516	10.9
839.822	11.1
840.127	10.25
840.433	10.04
840.738	10.26
841.044	10.11
841.349	9.35
841.654	9.42
841.959	9.7
842.265	10.06
842.57	10.02
842.875	10.05
843.18	10.66
843.485	10.32
843.79	10
844.095	10.1
844.4	10.73
844.705	10.21
845.01	9.96
845.315	9.73
845.619	10.23
845.924	10.42
846.229	9.79
846.533	11
846.838	9.95
847.142	9.67
847.447	8.73
847.751	9.83
848.056	9.07
848.36	7.67
848.664	5.74
848.969	3.19
849.273	3.96
849.577	3.18
849.881	3.33
850.185	4.26
850.489	3.96
850.794	3.18
851.097	4.55
851.401	4.22
851.705	4.08
852.009	4.97
852.313	3.44
852.617	3.43
852.92	3.52
853.224	5.38
853.528	5.15
853.831	3.82
854.135	4.49
854.438	5.44
854.742	6.59
855.045	8.74
855.349	11.09
855.652	9.42
855.955	9.67
856.259	7.27
856.562	7.31
856.865	6.8
857.168	6.86
857.471	7.18
857.774	8.05
858.077	8.39
858.38	7.12
858.683	8.02
858.986	8.62
859.289	8.11
859.592	6.35
859.894	9.79
860.197	12.27
860.5	11.7
860.802	9.77
861.105	9.75
861.407	9.99
861.71	9.3
862.012	9.58
862.315	9.97
862.617	10.38
862.919	9.69
863.222	10.87
863.524	9.23
863.826	9.78
864.128	7.49
864.43	7.58
864.732	7.45
865.034	5.62
865.336	4.4
865.638	2.91
865.94	3.72
866.242	0.62
866.544	-0.23
866.846	0.21
867.147	-0.18
867.449	0.36
867.751	0.2
868.052	0.27
868.354	-1.27
868.655	-1.44
868.957	-0.5
869.258	-0.63
869.56	-0.67
869.861	-1.01
870.162	-0.89
870.463	0.55
870.765	2.4
871.066	1.92
871.367	0.98
871.668	2.53
871.969	2.87
872.27	2.88
872.571	1.35
872.872	2.02
873.173	-1.23
873.473	1.24
873.774	0.34
874.075	0.51
874.376	1.66
874.676	4.04
874.977	3.08
875.277	2.89
875.578	1.32
875.878	-0.3
876.179	0.77
876.479	-0.45
876.78	-0.81
877.08	-4.43
877.38	-4.92
877.68	-2.05
877.981	-3.96
878.281	-5.04
878.581	-6.23
