Data from BA28415_Reflection_00008.txt Node
Date: Mon Nov 18 16:02:23 EST 2019
User: vgr7
Spectrometer: USB2G7710
Scans to average: 3
Trigger mode: 4
Integration Time (sec): 2.000000E-2
Electric dark correction enabled: true
Boxcar width: 10
XAxis mode: Wavelengths
Number of Pixels in Spectrum: 2048
>>>>>Begin Spectral Data<<<<<
177.721	181.8
178.105	274.89
178.488	269.5
178.871	165.83
179.254	55.4
179.636	360.87
180.019	-272.71
180.402	92.86
180.785	-10.15
181.168	12.93
181.55	26.14
181.933	94.11
182.316	96.46
182.698	122.72
183.081	117.56
183.463	128.99
183.846	140.71
184.228	184.11
184.611	150.76
184.993	188.88
185.376	156.65
185.758	150.63
186.14	192.23
186.522	193.01
186.904	152.84
187.287	123.56
187.669	224.91
188.051	444.26
188.433	1172.2
188.815	2193.53
189.197	-594.16
189.579	-323.31
189.961	-240.63
190.342	-240.29
190.724	-112.68
191.106	-102.37
191.488	-114.46
191.869	-77.26
192.251	-96.89
192.633	-63.57
193.014	-27.9
193.396	-17.02
193.777	-46.3
194.159	-92.09
194.54	-35.45
194.922	-71.3
195.303	-64.7
195.684	-43.22
196.065	-9.13
196.447	11.96
196.828	-71.85
197.209	-79.79
197.59	-1296.04
197.971	-239.13
198.352	-110.05
198.733	-510.62
199.114	-52.9
199.495	18.92
199.876	-36.93
200.257	78.42
200.638	-41.82
201.018	343.82
201.399	1001.84
201.78	-693.55
202.16	208.03
202.541	95.91
202.922	97.4
203.302	89.68
203.683	134.86
204.063	121.93
204.444	132.81
204.824	91.81
205.204	39.21
205.585	86.55
205.965	20.2
206.345	86.2
206.725	113.95
207.106	191.09
207.486	273.29
207.866	361.79
208.246	799.77
208.626	284.19
209.006	1107.55
209.386	561.05
209.766	637.8
210.145	-4421.13
210.525	-5580.85
210.905	-281.67
211.285	-138.61
211.664	-98.3
212.044	-97.86
212.424	-86.66
212.803	-62.98
213.183	-64.78
213.562	-55.29
213.942	-46.7
214.321	-46.37
214.701	-67.08
215.08	-74.57
215.459	-37.84
215.838	-40.81
216.218	-33.79
216.597	-25.92
216.976	-17.93
217.355	-21.83
217.734	-9.46
218.113	0.54
218.492	-17.08
218.871	-39.8
219.25	-75.83
219.629	-146.1
220.008	-168.75
220.387	-224.11
220.766	-445.05
221.144	-817.57
221.523	-1334.78
221.902	5226.58
222.28	-539.08
222.659	-146.48
223.037	-105.22
223.416	-99.52
223.794	-90.16
224.173	-114.36
224.551	-80.13
224.929	-96.71
225.308	-59.52
225.686	-49.16
226.064	-49.59
226.442	-42.62
226.821	-29.38
227.199	-23.18
227.577	-20.28
227.955	-15.22
228.333	-14.48
228.711	-13.95
229.089	-6.14
229.467	-9.46
229.845	-8.96
230.222	-8.88
230.6	-9.95
230.978	-7.8
231.356	-5.58
231.733	-5.89
232.111	-4.02
232.488	-4.85
232.866	-1.06
233.243	-1.33
233.621	-1.99
233.998	0.73
234.376	-0.75
234.753	-0.24
235.13	-1.1
235.508	-0.9
235.885	-2.18
236.262	-1.22
236.639	-1.03
237.016	-2.23
237.393	-0.44
237.77	0.03
238.147	1.48
238.524	1.64
238.901	2.21
239.278	2.92
239.655	3.87
240.032	4.26
240.409	4.23
240.785	4.04
241.162	4.36
241.539	4.36
241.915	4.43
242.292	4.54
242.668	4.71
243.045	5.28
243.421	5.39
243.798	5.42
244.174	5.47
244.551	5.79
244.927	5.79
245.303	6.05
245.679	6.27
246.056	6.04
246.432	6.18
246.808	6.38
247.184	6.17
247.56	6.05
247.936	5.83
248.312	5.78
248.688	5.74
249.064	5.93
249.44	6.08
249.815	6.09
250.191	6.29
250.567	6.13
250.943	5.82
251.318	5.94
251.694	6.13
252.069	6.18
252.445	6.23
252.82	6.67
253.196	6.5
253.571	6.32
253.947	6.41
254.322	6.67
254.697	6.3
255.073	6.21
255.448	6.07
255.823	6.09
256.198	6.28
256.573	6.36
256.948	6.32
257.323	6.38
257.698	6.38
258.073	6.47
258.448	6.29
258.823	6.33
259.198	6.18
259.573	6.18
259.948	6.06
260.322	5.96
260.697	5.69
261.072	5.59
261.446	5.61
261.821	5.56
262.195	5.46
262.57	5.6
262.944	5.6
263.319	5.59
263.693	5.41
264.067	5.42
264.442	5.39
264.816	5.28
265.19	5.04
265.564	4.85
265.938	4.57
266.313	4.77
266.687	4.91
267.061	5.18
267.435	5.1
267.809	5.33
268.183	5.4
268.556	5.38
268.93	5.64
269.304	5.67
269.678	5.74
270.051	5.58
270.425	5.55
270.799	5.62
271.172	5.67
271.546	5.72
271.919	5.58
272.293	5.61
272.666	5.61
273.04	5.66
273.413	5.71
273.787	5.85
274.16	5.81
274.533	5.86
274.906	5.65
275.279	5.53
275.653	5.49
276.026	5.19
276.399	5.33
276.772	5.28
277.145	5.14
277.518	5.25
277.891	5.45
278.263	5.4
278.636	5.57
279.009	5.51
279.382	5.71
279.755	5.69
280.127	5.63
280.5	5.6
280.872	5.67
281.245	5.65
281.617	5.78
281.99	5.84
282.362	5.82
282.735	5.76
283.107	5.93
283.479	5.74
283.852	5.98
284.224	5.92
284.596	5.93
284.968	6.03
285.34	6.01
285.713	5.86
286.085	5.93
286.457	5.87
286.829	5.96
287.201	5.96
287.572	6.07
287.944	6.15
288.316	6.18
288.688	6.12
289.06	6.24
289.431	6.25
289.803	6.28
290.175	6.46
290.546	6.67
290.918	6.63
291.289	6.78
291.661	6.98
292.032	7
292.403	6.93
292.775	7.06
293.146	7.12
293.517	7.17
293.889	7.28
294.26	7.25
294.631	7.33
295.002	7.44
295.373	7.52
295.744	7.55
296.115	7.73
296.486	7.78
296.857	7.93
297.228	8
297.599	8.04
297.97	7.94
298.34	8.02
298.711	8.27
299.082	8.39
299.452	8.37
299.823	8.53
300.194	8.68
300.564	8.81
300.935	8.85
301.305	9.04
301.676	9.08
302.046	9.2
302.416	9.41
302.787	9.65
303.157	9.55
303.527	9.62
303.897	9.57
304.267	9.81
304.637	9.66
305.008	9.72
305.378	9.89
305.748	10.21
306.117	10.19
306.487	10.33
306.857	10.41
307.227	10.49
307.597	10.56
307.967	10.71
308.336	10.86
308.706	11.06
309.076	11.13
309.445	11.08
309.815	11.16
310.184	11.2
310.554	11.11
310.923	11.42
311.293	11.52
311.662	11.62
312.031	11.65
312.401	11.8
312.77	11.91
313.139	12.01
313.508	11.9
313.877	12.1
314.246	12.1
314.616	12.18
314.985	12.23
315.353	12.32
315.722	12.51
316.091	12.47
316.46	12.36
316.829	12.42
317.198	12.7
317.567	12.9
317.935	12.9
318.304	13.19
318.672	13.11
319.041	13.36
319.41	13.34
319.778	13.42
320.147	13.65
320.515	13.79
320.883	13.83
321.252	14.01
321.62	14.12
321.988	14.23
322.357	14.26
322.725	14.42
323.093	14.51
323.461	14.34
323.829	14.5
324.197	14.58
324.565	14.79
324.933	14.74
325.301	14.87
325.669	14.88
326.037	14.71
326.405	14.77
326.772	14.75
327.14	14.99
327.508	15.02
327.875	14.86
328.243	14.8
328.61	14.76
328.978	14.84
329.346	14.78
329.713	14.85
330.08	14.9
330.448	14.88
330.815	14.87
331.182	15.01
331.55	15.02
331.917	15.28
332.284	15.36
332.651	15.48
333.018	15.57
333.385	15.68
333.752	15.98
334.119	16.06
334.486	16.14
334.853	16.2
335.22	16.28
335.587	16.45
335.954	16.45
336.32	16.56
336.687	16.57
337.054	16.63
337.42	16.58
337.787	16.71
338.153	16.73
338.52	16.88
338.886	16.9
339.253	16.95
339.619	16.99
339.986	16.96
340.352	17.03
340.718	16.97
341.084	17
341.451	16.98
341.817	17.12
342.183	17.12
342.549	17.14
342.915	17.23
343.281	17.22
343.647	17.26
344.013	17.47
344.379	17.52
344.745	17.6
345.11	17.65
345.476	17.72
345.842	17.83
346.208	17.73
346.573	17.79
346.939	17.88
347.304	17.84
347.67	17.75
348.035	17.7
348.401	17.7
348.766	17.76
349.132	17.82
349.497	17.74
349.862	17.95
350.228	17.93
350.593	17.97
350.958	18.17
351.323	18.22
351.688	18.15
352.053	18.16
352.418	18.2
352.783	18.31
353.148	18.29
353.513	18.28
353.878	18.44
354.243	18.55
354.608	18.52
354.972	18.49
355.337	18.61
355.702	18.71
356.066	18.77
356.431	18.71
356.795	18.69
357.16	18.74
357.524	18.53
357.889	18.61
358.253	18.62
358.618	18.62
358.982	18.6
359.346	18.58
359.71	18.53
360.075	18.51
360.439	18.46
360.803	18.45
361.167	18.41
361.531	18.4
361.895	18.31
362.259	18.32
362.623	18.3
362.987	18.24
363.351	18.23
363.714	18.22
364.078	18.19
364.442	18.18
364.806	18.15
365.169	18.19
365.533	18.1
365.896	18.09
366.26	17.99
366.623	17.93
366.987	17.84
367.35	17.77
367.714	17.69
368.077	17.61
368.44	17.52
368.803	17.54
369.167	17.42
369.53	17.34
369.893	17.31
370.256	17.29
370.619	17.3
370.982	17.17
371.345	17.1
371.708	17.09
372.071	17.05
372.434	16.96
372.797	16.92
373.159	16.82
373.522	16.76
373.885	16.74
374.247	16.78
374.61	16.83
374.973	16.82
375.335	16.8
375.698	16.77
376.06	16.81
376.423	16.67
376.785	16.72
377.147	16.71
377.51	16.61
377.872	16.6
378.234	16.6
378.596	16.61
378.958	16.56
379.321	16.53
379.683	16.44
380.045	16.47
380.407	16.43
380.769	16.45
381.13	16.37
381.492	16.32
381.854	16.24
382.216	16.11
382.578	16.08
382.939	16.05
383.301	15.99
383.663	15.89
384.024	15.9
384.386	15.79
384.747	15.75
385.109	15.68
385.47	15.57
385.832	15.5
386.193	15.45
386.554	15.4
386.916	15.33
387.277	15.24
387.638	15.17
387.999	15.1
388.36	15
388.721	14.97
389.082	14.91
389.443	14.85
389.804	14.81
390.165	14.76
390.526	14.66
390.887	14.59
391.248	14.56
391.609	14.51
391.969	14.45
392.33	14.39
392.691	14.37
393.051	14.3
393.412	14.2
393.772	14.07
394.133	14
394.493	13.95
394.854	13.91
395.214	13.8
395.574	13.74
395.935	13.65
396.295	13.54
396.655	13.45
397.015	13.38
397.376	13.3
397.736	13.19
398.096	13.14
398.456	13.03
398.816	12.95
399.176	12.88
399.535	12.8
399.895	12.7
400.255	12.66
400.615	12.59
400.975	12.52
401.334	12.48
401.694	12.39
402.054	12.32
402.413	12.26
402.773	12.23
403.132	12.15
403.492	12.12
403.851	12.09
404.211	12.08
404.57	12.02
404.929	11.98
405.288	11.94
405.648	11.89
406.007	11.88
406.366	11.87
406.725	11.83
407.084	11.77
407.443	11.76
407.802	11.71
408.161	11.67
408.52	11.65
408.879	11.6
409.238	11.6
409.596	11.6
409.955	11.57
410.314	11.53
410.673	11.52
411.031	11.51
411.39	11.47
411.748	11.41
412.107	11.38
412.465	11.35
412.824	11.31
413.182	11.26
413.54	11.25
413.899	11.21
414.257	11.13
414.615	11.11
414.974	11.07
415.332	11.02
415.69	10.98
416.048	10.94
416.406	10.92
416.764	10.85
417.122	10.81
417.48	10.77
417.838	10.73
418.195	10.69
418.553	10.63
418.911	10.58
419.269	10.54
419.626	10.5
419.984	10.46
420.342	10.43
420.699	10.38
421.057	10.32
421.414	10.27
421.772	10.23
422.129	10.2
422.486	10.16
422.844	10.13
423.201	10.08
423.558	10.02
423.915	9.96
424.273	9.93
424.63	9.87
424.987	9.83
425.344	9.81
425.701	9.75
426.058	9.72
426.415	9.69
426.772	9.65
427.128	9.62
427.485	9.55
427.842	9.48
428.199	9.46
428.555	9.44
428.912	9.42
429.269	9.42
429.625	9.36
429.982	9.32
430.338	9.28
430.695	9.27
431.051	9.26
431.407	9.26
431.764	9.24
432.12	9.25
432.476	9.22
432.832	9.18
433.189	9.18
433.545	9.19
433.901	9.17
434.257	9.17
434.613	9.17
434.969	9.19
435.325	9.21
435.681	9.23
436.036	9.22
436.392	9.22
436.748	9.21
437.104	9.24
437.459	9.24
437.815	9.26
438.171	9.24
438.526	9.27
438.882	9.27
439.237	9.29
439.593	9.28
439.948	9.27
440.304	9.28
440.659	9.27
441.014	9.27
441.369	9.28
441.725	9.26
442.08	9.26
442.435	9.24
442.79	9.23
443.145	9.21
443.5	9.18
443.855	9.15
444.21	9.11
444.565	9.09
444.92	9.08
445.275	9.05
445.629	9.05
445.984	9.03
446.339	9.01
446.693	8.95
447.048	8.93
447.403	8.91
447.757	8.87
448.112	8.85
448.466	8.82
448.82	8.8
449.175	8.79
449.529	8.75
449.883	8.73
450.238	8.69
450.592	8.67
450.946	8.65
451.3	8.63
451.654	8.6
452.008	8.58
452.362	8.53
452.716	8.48
453.07	8.46
453.424	8.42
453.778	8.39
454.132	8.39
454.486	8.37
454.839	8.4
455.193	8.42
455.547	8.41
455.9	8.42
456.254	8.39
456.607	8.37
456.961	8.38
457.314	8.39
457.668	8.4
458.021	8.41
458.375	8.42
458.728	8.42
459.081	8.42
459.434	8.42
459.787	8.46
460.141	8.48
460.494	8.47
460.847	8.5
461.2	8.53
461.553	8.55
461.906	8.58
462.259	8.6
462.611	8.62
462.964	8.67
463.317	8.69
463.67	8.73
464.022	8.76
464.375	8.77
464.728	8.82
465.08	8.88
465.433	8.89
465.785	8.93
466.138	9.01
466.49	9.08
466.843	9.12
467.195	9.13
467.547	9.19
467.899	9.24
468.252	9.28
468.604	9.31
468.956	9.36
469.308	9.42
469.66	9.43
470.012	9.44
470.364	9.47
470.716	9.49
471.068	9.5
471.42	9.54
471.772	9.58
472.123	9.59
472.475	9.59
472.827	9.63
473.178	9.64
473.53	9.67
473.882	9.65
474.233	9.67
474.585	9.68
474.936	9.69
475.288	9.69
475.639	9.69
475.99	9.66
476.342	9.66
476.693	9.64
477.044	9.63
477.395	9.62
477.746	9.58
478.097	9.59
478.448	9.61
478.8	9.59
479.15	9.56
479.501	9.56
479.852	9.55
480.203	9.57
480.554	9.57
480.905	9.55
481.255	9.57
481.606	9.56
481.957	9.55
482.307	9.55
482.658	9.56
483.009	9.55
483.359	9.55
483.709	9.55
484.06	9.54
484.41	9.53
484.761	9.54
485.111	9.55
485.461	9.54
485.811	9.53
486.162	9.53
486.512	9.56
486.862	9.55
487.212	9.56
487.562	9.55
487.912	9.55
488.262	9.55
488.612	9.54
488.961	9.54
489.311	9.56
489.661	9.58
490.011	9.57
490.36	9.57
490.71	9.59
491.06	9.59
491.409	9.62
491.759	9.65
492.108	9.66
492.458	9.69
492.807	9.72
493.157	9.77
493.506	9.8
493.855	9.84
494.204	9.88
494.554	9.92
494.903	9.98
495.252	10.02
495.601	10.1
495.95	10.15
496.299	10.25
496.648	10.32
496.997	10.39
497.346	10.5
497.695	10.62
498.043	10.72
498.392	10.83
498.741	10.94
499.09	11.03
499.438	11.15
499.787	11.28
500.135	11.41
500.484	11.52
500.832	11.65
501.181	11.78
501.529	11.94
501.878	12.09
502.226	12.24
502.574	12.41
502.923	12.59
503.271	12.78
503.619	12.95
503.967	13.12
504.315	13.29
504.663	13.45
505.011	13.61
505.359	13.8
505.707	13.98
506.055	14.14
506.403	14.32
506.751	14.49
507.098	14.65
507.446	14.83
507.794	15.01
508.141	15.22
508.489	15.39
508.837	15.56
509.184	15.72
509.531	15.9
509.879	16.07
510.226	16.21
510.574	16.36
510.921	16.51
511.268	16.67
511.616	16.83
511.963	17.01
512.31	17.18
512.657	17.35
513.004	17.57
513.351	17.75
513.698	17.96
514.045	18.16
514.392	18.36
514.739	18.56
515.086	18.76
515.432	18.91
515.779	19.11
516.126	19.27
516.473	19.47
516.819	19.66
517.166	19.85
517.512	20.02
517.859	20.18
518.205	20.37
518.552	20.53
518.898	20.67
519.245	20.84
519.591	21.01
519.937	21.17
520.283	21.34
520.629	21.54
520.976	21.75
521.322	21.96
521.668	22.17
522.014	22.34
522.36	22.57
522.706	22.81
523.052	23.07
523.398	23.36
523.743	23.68
524.089	23.97
524.435	24.27
524.781	24.57
525.126	24.8
525.472	25.04
525.817	25.27
526.163	25.48
526.509	25.64
526.854	25.83
527.199	26
527.545	26.12
527.89	26.26
528.235	26.4
528.581	26.57
528.926	26.73
529.271	26.89
529.616	27.05
529.961	27.23
530.306	27.4
530.651	27.58
530.996	27.75
531.341	27.94
531.686	28.11
532.031	28.28
532.376	28.5
532.721	28.67
533.065	28.88
533.41	29.1
533.755	29.34
534.099	29.57
534.444	29.79
534.788	30.06
535.133	30.29
535.477	30.56
535.822	30.8
536.166	31.09
536.51	31.45
536.855	31.77
537.199	32.1
537.543	32.43
537.887	32.77
538.231	33.09
538.576	33.41
538.92	33.76
539.264	34.06
539.608	34.38
539.951	34.67
540.295	34.89
540.639	35.12
540.983	35.35
541.327	35.57
541.671	35.81
542.014	36.06
542.358	36.3
542.701	36.53
543.045	36.75
543.389	36.97
543.732	37.16
544.075	37.39
544.419	37.58
544.762	37.78
545.105	38.01
545.449	38.25
545.792	38.49
546.135	38.73
546.478	39.01
546.821	39.26
547.165	39.56
547.508	39.93
547.851	40.28
548.194	40.58
548.536	40.94
548.879	41.27
549.222	41.55
549.565	41.9
549.908	42.17
550.25	42.5
550.593	42.81
550.936	43.16
551.278	43.44
551.621	43.75
551.963	44.08
552.306	44.34
552.648	44.67
552.991	44.98
553.333	45.23
553.675	45.53
554.017	45.76
554.36	46.08
554.702	46.28
555.044	46.5
555.386	46.76
555.728	46.97
556.07	47.19
556.412	47.48
556.754	47.66
557.096	47.92
557.438	48.15
557.78	48.35
558.121	48.6
558.463	48.93
558.805	49.23
559.147	49.45
559.488	49.7
559.83	49.85
560.171	50.04
560.513	50.3
560.854	50.53
561.196	50.77
561.537	50.88
561.878	51.1
562.22	51.3
562.561	51.54
562.902	51.72
563.243	51.95
563.584	52.13
563.925	52.4
564.266	52.59
564.607	52.77
564.948	53.01
565.289	53.21
565.63	53.38
565.971	53.51
566.312	53.72
566.653	53.91
566.993	54.07
567.334	54.28
567.675	54.42
568.015	54.57
568.356	54.73
568.696	54.88
569.037	54.97
569.377	55.19
569.718	55.3
570.058	55.49
570.398	55.59
570.739	55.68
571.079	55.8
571.419	55.91
571.759	56.05
572.099	56.19
572.439	56.28
572.779	56.32
573.119	56.43
573.459	56.56
573.799	56.63
574.139	56.74
574.479	56.77
574.819	56.84
575.158	56.94
575.498	57.03
575.838	57.18
576.177	57.3
576.517	57.38
576.856	57.54
577.196	57.6
577.535	57.76
577.875	57.86
578.214	57.99
578.553	58.09
578.893	58.12
579.232	58.19
579.571	58.27
579.91	58.41
580.25	58.48
580.589	58.48
580.928	58.6
581.267	58.71
581.606	58.85
581.945	58.97
582.283	58.99
582.622	59.07
582.961	59.13
583.3	59.27
583.639	59.38
583.977	59.46
584.316	59.56
584.654	59.71
584.993	59.84
585.332	59.83
585.67	59.95
586.008	60.07
586.347	60.13
586.685	60.17
587.024	60.21
587.362	60.3
587.7	60.42
588.038	60.44
588.376	60.5
588.715	60.5
589.053	60.61
589.391	60.73
589.729	60.87
590.067	60.94
590.404	60.95
590.742	60.86
591.08	60.76
591.418	60.85
591.756	60.82
592.093	60.78
592.431	60.88
592.769	60.86
593.106	60.85
593.444	60.91
593.781	60.97
594.119	61
594.456	61.09
594.793	61.05
595.131	61.12
595.468	61.15
595.805	61.3
596.143	61.26
596.48	61.22
596.817	61.21
597.154	61.33
597.491	61.37
597.828	61.44
598.165	61.55
598.502	61.56
598.839	61.54
599.176	61.57
599.512	61.65
599.849	61.72
600.186	61.8
600.523	61.85
600.859	61.95
601.196	61.99
601.532	61.92
601.869	61.96
602.205	61.97
602.542	61.99
602.878	61.98
603.215	62.07
603.551	62.15
603.887	62.2
604.223	62.18
604.56	62.19
604.896	62.32
605.232	62.32
605.568	62.35
605.904	62.44
606.24	62.5
606.576	62.53
606.912	62.54
607.248	62.47
607.583	62.55
607.919	62.59
608.255	62.57
608.591	62.76
608.926	62.84
609.262	62.93
609.597	62.99
609.933	62.97
610.268	62.97
610.604	63.03
610.939	63.08
611.275	63.08
611.61	63.17
611.945	63.16
612.281	63.31
612.616	63.33
612.951	63.34
613.286	63.36
613.621	63.36
613.956	63.48
614.291	63.66
614.626	63.62
614.961	63.47
615.296	63.47
615.631	63.41
615.966	63.39
616.3	63.37
616.635	63.34
616.97	63.41
617.304	63.5
617.639	63.54
617.973	63.45
618.308	63.49
618.642	63.48
618.977	63.47
619.311	63.39
619.646	63.43
619.98	63.4
620.314	63.45
620.648	63.42
620.983	63.36
621.317	63.38
621.651	63.34
621.985	63.5
622.319	63.72
622.653	63.75
622.987	63.77
623.321	63.86
623.655	63.91
623.988	63.91
624.322	63.88
624.656	63.8
624.99	63.78
625.323	63.8
625.657	63.84
625.99	63.87
626.324	63.77
626.657	63.79
626.991	63.87
627.324	63.9
627.658	63.96
627.991	64
628.324	64.02
628.657	63.99
628.991	63.89
629.324	63.86
629.657	63.86
629.99	63.94
630.323	63.93
630.656	63.97
630.989	64.08
631.322	64.07
631.655	64.17
631.987	64.3
632.32	64.42
632.653	64.39
632.986	64.4
633.318	64.5
633.651	64.5
633.984	64.52
634.316	64.51
634.649	64.49
634.981	64.51
635.313	64.58
635.646	64.73
635.978	64.87
636.31	64.77
636.643	64.77
636.975	64.72
637.307	64.71
637.639	64.73
637.971	64.67
638.303	64.68
638.635	64.54
638.967	64.47
639.299	64.4
639.631	64.49
639.963	64.54
640.295	64.52
640.626	64.61
640.958	64.6
641.29	64.63
641.621	64.51
641.953	64.59
642.285	64.53
642.616	64.53
642.948	64.49
643.279	64.53
643.61	64.45
643.942	64.6
644.273	64.69
644.604	64.66
644.936	64.61
645.267	64.69
645.598	64.79
645.929	64.85
646.26	64.79
646.591	64.72
646.922	64.57
647.253	64.68
647.584	64.68
647.915	64.7
648.245	64.68
648.576	64.91
648.907	64.83
649.238	64.87
649.568	64.84
649.899	64.91
650.229	64.96
650.56	65.03
650.89	64.95
651.221	65
651.551	65.02
651.882	65.08
652.212	65.1
652.542	65.18
652.872	65.18
653.203	65.33
653.533	65.28
653.863	65.34
654.193	65.32
654.523	65.4
654.853	65.32
655.183	65.38
655.513	65.38
655.843	65.32
656.172	65.27
656.502	65.26
656.832	65.19
657.162	65.16
657.491	65.13
657.821	65.08
658.15	64.91
658.48	64.96
658.809	65.01
659.139	65.02
659.468	64.96
659.798	64.9
660.127	64.86
660.456	64.87
660.785	64.96
661.115	64.9
661.444	64.81
661.773	64.83
662.102	64.81
662.431	64.82
662.76	64.91
663.089	64.91
663.418	65
663.747	65.09
664.076	65.21
664.404	65.34
664.733	65.41
665.062	65.53
665.39	65.36
665.719	65.41
666.048	65.44
666.376	65.47
666.705	65.46
667.033	65.38
667.362	65.46
667.69	65.31
668.018	65.33
668.347	65.27
668.675	65.25
669.003	65.28
669.331	65.16
669.659	65.2
669.987	65.2
670.315	65.15
670.643	65.16
670.971	65.09
671.299	65.03
671.627	65.02
671.955	65
672.283	65.13
672.61	65.02
672.938	65
673.266	64.93
673.593	65.04
673.921	65.06
674.249	65.1
674.576	65.32
674.904	65.38
675.231	65.42
675.558	65.42
675.886	65.4
676.213	65.34
676.54	65.33
676.867	65.38
677.195	65.35
677.522	65.26
677.849	65.29
678.176	65.27
678.503	65.35
678.83	65.34
679.157	65.24
679.484	65.28
679.81	65.24
680.137	65.3
680.464	65.2
680.791	65.2
681.117	65.14
681.444	65.1
681.771	65.08
682.097	65.13
682.424	65.27
682.75	65.34
683.077	65.4
683.403	65.49
683.729	65.49
684.056	65.53
684.382	65.6
684.708	65.65
685.034	65.65
685.36	65.72
685.686	65.69
686.012	65.65
686.339	65.58
686.664	65.6
686.99	65.63
687.316	65.78
687.642	65.86
687.968	65.87
688.294	65.94
688.619	66.03
688.945	66.03
689.271	65.93
689.596	66
689.922	66.07
690.247	66.03
690.573	66.09
690.898	66.08
691.224	66.03
691.549	66.04
691.874	66.09
692.2	66
692.525	66.09
692.85	66.3
693.175	66.26
693.5	66.23
693.825	66.24
694.15	66.28
694.475	66.17
694.8	66.25
695.125	66.17
695.45	66.07
695.775	66.17
696.099	66.31
696.424	66.23
696.749	66.16
697.073	66.02
697.398	65.96
697.723	66.05
698.047	66.02
698.372	66.03
698.696	66
699.02	65.9
699.345	65.85
699.669	65.81
699.993	65.81
700.318	65.95
700.642	65.96
700.966	65.88
701.29	65.86
701.614	65.83
701.938	65.78
702.262	65.82
702.586	65.7
702.91	65.5
703.234	65.37
703.557	65.45
703.881	65.41
704.205	65.43
704.529	65.25
704.852	65.23
705.176	65.32
705.499	65.41
705.823	65.57
706.146	65.7
706.47	65.82
706.793	65.94
707.117	65.81
707.44	65.77
707.763	65.7
708.086	65.79
708.409	65.9
708.733	66.04
709.056	65.99
709.379	66.15
709.702	66.31
710.025	66.48
710.348	66.14
710.671	66.17
710.993	66.21
711.316	66.36
711.639	66.56
711.962	66.33
712.284	66.13
712.607	66.34
712.93	66.28
713.252	66.17
713.575	66.13
713.897	66.12
714.22	66.06
714.542	66.07
714.864	66.14
715.187	66.04
715.509	66.02
715.831	66.1
716.153	65.87
716.475	65.93
716.798	66.01
717.12	66.21
717.442	66.25
717.764	66.19
718.085	66.07
718.407	65.83
718.729	65.71
719.051	65.81
719.373	65.54
719.695	65.63
720.016	65.61
720.338	65.68
720.659	65.65
720.981	65.74
721.302	66.05
721.624	65.87
721.945	65.74
722.267	65.45
722.588	65.49
722.909	65.54
723.231	65.46
723.552	65.22
723.873	65.36
724.194	65.39
724.515	65.28
724.836	65.29
725.157	65.33
725.478	65.58
725.799	65.71
726.12	65.55
726.441	65.47
726.762	65.48
727.083	65.3
727.403	65.19
727.724	65.28
728.045	65.1
728.365	65.2
728.686	65.24
729.006	65.34
729.327	65.19
729.647	65.32
729.967	65.4
730.288	65.46
730.608	65.64
730.928	65.78
731.249	66
731.569	66.23
731.889	66.26
732.209	66.24
732.529	66.17
732.849	66.22
733.169	66.26
733.489	66.41
733.809	66.64
734.129	66.77
734.448	66.89
734.768	66.8
735.088	66.77
735.408	66.92
735.727	67.08
736.047	67.12
736.366	67
736.686	66.75
737.005	66.9
737.325	66.6
737.644	66.85
737.963	66.58
738.283	66.19
738.602	66.34
738.921	66.52
739.24	66.54
739.56	66.65
739.879	66.71
740.198	66.73
740.517	66.53
740.836	66.6
741.155	66.12
741.473	66.13
741.792	66.18
742.111	66.07
742.43	65.98
742.748	66.05
743.067	66.11
743.386	66.52
743.704	66.43
744.023	66.46
744.341	66.14
744.66	66.51
744.978	66.76
745.297	66.71
745.615	66.44
745.933	66.5
746.252	66.56
746.57	66.35
746.888	65.95
747.206	66.09
747.524	65.91
747.842	66.31
748.16	66.61
748.478	66.36
748.796	66.57
749.114	66.56
749.432	66.43
749.749	66.34
750.067	66.11
750.385	65.85
750.703	65.75
751.02	65.6
751.338	65.39
751.655	65.57
751.973	65.68
752.29	65.99
752.608	66.06
752.925	66.05
753.242	66.13
753.56	66.17
753.877	66.07
754.194	66.08
754.511	65.74
754.828	65.56
755.145	65.58
755.462	65.71
755.779	65.36
756.096	65.57
756.413	65.78
756.73	65.8
757.047	65.91
757.364	65.84
757.68	65.81
757.997	65.77
758.314	65.58
758.63	65.27
758.947	64.9
759.264	64.91
759.58	64.9
759.896	65.16
760.213	65.45
760.529	65.37
760.846	65.54
761.162	65.7
761.478	65.85
761.794	66.18
762.11	66.04
762.426	66.37
762.743	66.38
763.059	66.36
763.375	66.38
763.69	66.65
764.006	66.74
764.322	66.75
764.638	66.71
764.954	66.89
765.27	66.76
765.585	66.89
765.901	66.92
766.216	67.07
766.532	67.12
766.848	66.96
767.163	67.28
767.478	67.32
767.794	67.34
768.109	67.29
768.424	67.02
768.74	66.95
769.055	67.07
769.37	66.75
769.685	66.38
770	66.32
770.315	66.05
770.63	66.16
770.945	66.46
771.26	66.51
771.575	66.44
771.89	67.09
772.205	67.31
772.52	67.27
772.834	67.18
773.149	67.16
773.464	67.32
773.778	67.08
774.093	66.73
774.407	66.69
774.722	66.84
775.036	66.65
775.351	66.76
775.665	66.67
775.979	66.92
776.293	67.4
776.608	67.54
776.922	67.92
777.236	67.78
777.55	67.26
777.864	67.47
778.178	67.41
778.492	67.08
778.806	66.82
779.12	66.79
779.434	66.4
779.747	65.99
780.061	66.2
780.375	66.11
780.689	66.43
781.002	66.44
781.316	66.01
781.629	66.39
781.943	66.48
782.256	66.36
782.57	66.41
782.883	66.25
783.196	66.12
783.51	65.68
783.823	65.68
784.136	65.81
784.449	65.4
784.762	65.84
785.075	65.86
785.388	66.06
785.701	66.09
786.014	66.01
786.327	66.28
786.64	66.1
786.953	66.68
787.266	66.38
787.578	66.17
787.891	67
788.204	67.27
788.516	67.57
788.829	67.82
789.141	68.14
789.454	68.65
789.766	68.59
790.079	68.55
790.391	68.84
790.703	68.86
791.016	69.42
791.328	68.65
791.64	69.07
791.952	68.82
792.264	68.78
792.576	69
792.888	68.97
793.2	69.41
793.512	69.2
793.824	69.39
794.136	69.42
794.448	69.33
794.76	68.98
795.071	69.07
795.383	69.08
795.695	68.51
796.006	67.86
796.318	68.23
796.629	68.97
796.941	68.89
797.252	69.01
797.564	68.69
797.875	68.77
798.186	68.33
798.497	68.28
798.809	68.25
799.12	68.2
799.431	67.84
799.742	67.46
800.053	67.43
800.364	67.71
800.675	67.98
800.986	67.33
801.297	67.7
801.608	67.06
801.918	66.37
802.229	66.46
802.54	66.57
802.851	66.3
803.161	65.97
803.472	66.21
803.782	66.66
804.093	66.93
804.403	67.44
804.714	67.71
805.024	67.81
805.334	67.71
805.645	67.57
805.955	68.39
806.265	68.28
806.575	67.66
806.885	67.73
807.195	67.55
807.505	68.07
807.815	67.98
808.125	68.69
808.435	68.77
808.745	68.32
809.055	68.49
809.365	67.99
809.674	68.32
809.984	68.13
810.294	67.58
810.603	66.94
810.913	67.01
811.222	66.66
811.532	66.58
811.841	66.43
812.151	66.66
812.46	65.8
812.769	65.64
813.079	65.22
813.388	65.19
813.697	65.48
814.006	64.86
814.315	64.96
814.624	64.15
814.933	64.43
815.242	65.35
815.551	65.6
815.86	66.55
816.169	65.66
816.478	65.74
816.786	65.53
817.095	65.65
817.404	66.2
817.712	66.57
818.021	67
818.33	67.82
818.638	67.68
818.947	68.79
819.255	68.89
819.563	68.79
819.872	68.43
820.18	68.72
820.488	68.37
820.796	68.11
821.105	68.26
821.413	68.44
821.721	68.5
822.029	68.26
822.337	68.09
822.645	68.06
822.953	68.05
823.26	68.3
823.568	68.31
823.876	67.87
824.184	67.81
824.491	67.73
824.799	67.57
825.107	67.73
825.414	67.36
825.722	67.37
826.029	67.52
826.337	67.69
826.644	67.51
826.951	67.89
827.259	68.06
827.566	67.89
827.873	67.85
828.18	67.87
828.488	67.98
828.795	68.03
829.102	68.34
829.409	68.3
829.716	67.97
830.023	67.9
830.329	68.52
830.636	68.73
830.943	68.85
831.25	69.14
831.557	68.95
831.863	68.98
832.17	69.31
832.476	69.33
832.783	68.77
833.089	69.16
833.396	68.86
833.702	68.78
834.009	68.8
834.315	68.78
834.621	68.54
834.928	68.28
835.234	67.94
835.54	67.45
835.846	67.83
836.152	68.14
836.458	68.09
836.764	67.43
837.07	67.37
837.376	67.42
837.682	67.2
837.988	67.04
838.293	66.9
838.599	66.54
838.905	66.08
839.211	66.59
839.516	65.66
839.822	65.44
840.127	64.96
840.433	65.14
840.738	64.56
841.044	64.9
841.349	65.96
841.654	65.57
841.959	65.64
842.265	65.33
842.57	65.74
842.875	66.23
843.18	66.75
843.485	67.37
843.79	66.97
844.095	66.7
844.4	67.94
844.705	68.49
845.01	67.85
845.315	69.13
845.619	69.02
845.924	69.96
846.229	69.61
846.533	69.44
846.838	68.23
847.142	69.96
847.447	67.26
847.751	65.55
848.056	67.05
848.36	66.25
848.664	63.65
848.969	63.19
849.273	63.38
849.577	63.1
849.881	60.82
850.185	61.64
850.489	59.61
850.794	57.58
851.097	58.2
851.401	58.11
851.705	57.7
852.009	57.34
852.313	56.12
852.617	55.94
852.92	57.67
853.224	58.67
853.528	59.58
853.831	58.72
854.135	60.58
854.438	60.23
854.742	59.63
855.045	60.71
855.349	58.34
855.652	58.17
855.955	57.06
856.259	56.36
856.562	55.29
856.865	58.96
857.168	59.27
857.471	58.1
857.774	58.76
858.077	59.94
858.38	59.78
858.683	59.96
858.986	60.04
859.289	58.68
859.592	58.16
859.894	57.24
860.197	61.26
860.5	60.85
860.802	60.63
861.105	60.86
861.407	61.76
861.71	63.2
862.012	63.58
862.315	63.7
862.617	65.28
862.919	65.07
863.222	65
863.524	63.01
863.826	63.33
864.128	63.81
864.43	63.63
864.732	67.6
865.034	68.05
865.336	69.31
865.638	71.32
865.94	70.91
866.242	71.21
866.544	68.44
866.846	67.48
867.147	69.79
867.449	72.38
867.751	68.83
868.052	68.65
868.354	67.7
868.655	70.4
868.957	70.05
869.258	69.74
869.56	65.69
869.861	68.79
870.162	71.01
870.463	68.83
870.765	68.32
871.066	62.64
871.367	63.3
871.668	61.07
871.969	57.49
872.27	58.37
872.571	56.1
872.872	57.09
873.173	55.41
873.473	53.14
873.774	53.54
874.075	56.32
874.376	55.51
874.676	55.04
874.977	53.35
875.277	51.41
875.578	53.2
875.878	54.79
876.179	53.73
876.479	51.4
876.78	51.36
877.08	50.62
877.38	52.14
877.68	50.6
877.981	51.71
878.281	53.18
878.581	53.95
