Data from BA28467_Reflection_00009.txt Node
Date: Mon Nov 18 15:33:17 EST 2019
User: vgr7
Spectrometer: USB2G7710
Scans to average: 3
Trigger mode: 4
Integration Time (sec): 2.000000E-2
Electric dark correction enabled: true
Boxcar width: 10
XAxis mode: Wavelengths
Number of Pixels in Spectrum: 2048
>>>>>Begin Spectral Data<<<<<
177.721	-153.06
178.105	-174.11
178.488	-121.54
178.871	-192.37
179.254	386.43
179.636	105.93
180.019	-165.82
180.402	33.33
180.785	-602.13
181.168	-224.32
181.55	-406.49
181.933	187.02
182.316	116.76
182.698	74.2
183.081	117.57
183.463	231.93
183.846	549.59
184.228	837.02
184.611	1134.04
184.993	1084.56
185.376	-1049.78
185.758	-1293.31
186.14	-715.46
186.522	-273.1
186.904	-292.28
187.287	-2121.37
187.669	-247.74
188.051	563.56
188.433	-319.9
188.815	-145.25
189.197	-255.93
189.579	-195.61
189.961	-202.7
190.342	-160.62
190.724	-91.84
191.106	-101.3
191.488	-97.25
191.869	-55.46
192.251	-65.89
192.633	-63.58
193.014	-41.56
193.396	-77.65
193.777	-7.66
194.159	-33.65
194.54	1.92
194.922	-13.42
195.303	16.57
195.684	14.68
196.065	57.46
196.447	117.6
196.828	559.07
197.209	170.69
197.59	371.46
197.971	-1021.74
198.352	3482.98
198.733	-231.42
199.114	-448.98
199.495	-536.71
199.876	-309.24
200.257	1092.03
200.638	244.1
201.018	101.57
201.399	79.66
201.78	82.59
202.16	131.36
202.541	82.42
202.922	108.68
203.302	66.34
203.683	37.45
204.063	49.88
204.444	-47.75
204.824	-67.74
205.204	-162.14
205.585	-51.73
205.965	3.43
206.345	-23.93
206.725	-41.31
207.106	-185.54
207.486	-197.15
207.866	-172.12
208.246	-612.06
208.626	838.69
209.006	243.66
209.386	137.92
209.766	241.29
210.145	3175.95
210.525	-1629.93
210.905	-338.9
211.285	-96.98
211.664	-103.14
212.044	-81.47
212.424	-48.33
212.803	-33.94
213.183	-30.08
213.562	-6.1
213.942	-4.79
214.321	10.72
214.701	-1.01
215.08	10.68
215.459	-7.78
215.838	-4.7
216.218	10.99
216.597	24.58
216.976	23.36
217.355	29.63
217.734	27.41
218.113	21.88
218.492	40.86
218.871	18.92
219.25	-10.23
219.629	-8.82
220.008	6.65
220.387	2.69
220.766	6.22
221.144	-7.82
221.523	-21.1
221.902	-36.11
222.28	-70.71
222.659	-26.86
223.037	-22.99
223.416	-3.56
223.794	4.96
224.173	-1.14
224.551	6.58
224.929	0.95
225.308	11.97
225.686	12.04
226.064	13.56
226.442	6.46
226.821	14.35
227.199	16.25
227.577	13.03
227.955	7.65
228.333	5.54
228.711	4.32
229.089	11.75
229.467	10.71
229.845	7.86
230.222	7.05
230.6	4.93
230.978	2.54
231.356	1.61
231.733	0.12
232.111	0.27
232.488	0.79
232.866	1.33
233.243	0.8
233.621	1.28
233.998	2.39
234.376	2.13
234.753	2.97
235.13	2.9
235.508	3.89
235.885	4.13
236.262	6.23
236.639	5.84
237.016	5.27
237.393	7.17
237.77	8.17
238.147	8.92
238.524	7.83
238.901	8.56
239.278	8.36
239.655	8.57
240.032	8.37
240.409	7.23
240.785	6.94
241.162	6.78
241.539	6.41
241.915	6.08
242.292	5.85
242.668	5.24
243.045	5.09
243.421	4.79
243.798	4.46
244.174	4.33
244.551	4.15
244.927	3.94
245.303	3.61
245.679	3.42
246.056	3.34
246.432	3.45
246.808	3.25
247.184	3
247.56	2.98
247.936	2.98
248.312	2.9
248.688	3.13
249.064	3.18
249.44	3.09
249.815	3.12
250.191	3.39
250.567	3.61
250.943	3.33
251.318	3.42
251.694	3.64
252.069	3.39
252.445	3.41
252.82	3.27
253.196	3.03
253.571	3.09
253.947	3.22
254.322	3.43
254.697	3.41
255.073	3.32
255.448	2.92
255.823	2.98
256.198	3.24
256.573	3.01
256.948	3.01
257.323	3.1
257.698	3.04
258.073	2.86
258.448	2.66
258.823	2.97
259.198	2.91
259.573	2.85
259.948	2.88
260.322	2.99
260.697	3.05
261.072	3.13
261.446	3.17
261.821	3.06
262.195	3.07
262.57	3.19
262.944	3.24
263.319	3.24
263.693	3.12
264.067	3.03
264.442	3.01
264.816	2.93
265.19	2.98
265.564	2.95
265.938	2.99
266.313	3.02
266.687	2.92
267.061	3.02
267.435	3.13
267.809	3.26
268.183	3.28
268.556	3.26
268.93	3.33
269.304	3.25
269.678	3.34
270.051	3.34
270.425	3.09
270.799	3.14
271.172	3.24
271.546	3.13
271.919	3.15
272.293	3.32
272.666	3.39
273.04	3.43
273.413	3.5
273.787	3.52
274.16	3.66
274.533	3.77
274.906	3.78
275.279	3.86
275.653	3.84
276.026	3.79
276.399	3.78
276.772	3.88
277.145	3.91
277.518	3.95
277.891	4.02
278.263	4.27
278.636	4.27
279.009	4.15
279.382	4.39
279.755	4.34
280.127	4.29
280.5	4.26
280.872	4.14
281.245	4.13
281.617	4.27
281.99	4.21
282.362	4.11
282.735	3.86
283.107	3.65
283.479	3.55
283.852	3.53
284.224	3.54
284.596	3.37
284.968	3.51
285.34	3.61
285.713	3.52
286.085	3.54
286.457	3.59
286.829	3.77
287.201	3.74
287.572	3.65
287.944	3.52
288.316	3.53
288.688	3.53
289.06	3.6
289.431	3.45
289.803	3.51
290.175	3.49
290.546	3.7
290.918	3.78
291.289	3.8
291.661	3.86
292.032	3.87
292.403	3.92
292.775	3.86
293.146	3.7
293.517	3.74
293.889	3.7
294.26	3.61
294.631	3.63
295.002	3.52
295.373	3.7
295.744	3.79
296.115	3.7
296.486	3.55
296.857	3.48
297.228	3.52
297.599	3.45
297.97	3.53
298.34	3.51
298.711	3.53
299.082	3.59
299.452	3.57
299.823	3.64
300.194	3.66
300.564	3.63
300.935	3.56
301.305	3.49
301.676	3.53
302.046	3.69
302.416	3.65
302.787	3.75
303.157	3.71
303.527	3.7
303.897	3.85
304.267	4.26
304.637	4.29
305.008	4.36
305.378	4.48
305.748	4.44
306.117	4.41
306.487	4.5
306.857	4.52
307.227	4.47
307.597	4.44
307.967	4.41
308.336	4.48
308.706	4.55
309.076	4.64
309.445	4.55
309.815	4.55
310.184	4.51
310.554	4.54
310.923	4.53
311.293	4.58
311.662	4.57
312.031	4.45
312.401	4.58
312.77	4.51
313.139	4.44
313.508	4.36
313.877	4.5
314.246	4.37
314.616	4.43
314.985	4.51
315.353	4.47
315.722	4.57
316.091	4.56
316.46	4.56
316.829	4.53
317.198	4.79
317.567	4.72
317.935	4.74
318.304	4.72
318.672	4.88
319.041	4.96
319.41	4.94
319.778	4.98
320.147	4.94
320.515	4.96
320.883	5.22
321.252	5.35
321.62	5.31
321.988	5.4
322.357	5.42
322.725	5.44
323.093	5.41
323.461	5.4
323.829	5.4
324.197	5.44
324.565	5.52
324.933	5.41
325.301	5.46
325.669	5.58
326.037	5.62
326.405	5.54
326.772	5.5
327.14	5.6
327.508	5.65
327.875	5.58
328.243	5.74
328.61	5.56
328.978	5.76
329.346	5.74
329.713	5.77
330.08	5.98
330.448	5.98
330.815	5.95
331.182	6.12
331.55	6.15
331.917	6.27
332.284	6.33
332.651	6.47
333.018	6.64
333.385	6.76
333.752	6.87
334.119	6.94
334.486	6.91
334.853	6.92
335.22	6.88
335.587	6.93
335.954	6.95
336.32	7.05
336.687	6.98
337.054	6.95
337.42	7.09
337.787	6.95
338.153	6.99
338.52	7.17
338.886	7.07
339.253	7.13
339.619	7.1
339.986	7.02
340.352	6.99
340.718	6.83
341.084	6.75
341.451	6.75
341.817	6.78
342.183	6.9
342.549	6.97
342.915	6.98
343.281	7.01
343.647	7
344.013	7.05
344.379	7.06
344.745	7.25
345.11	7.11
345.476	7.13
345.842	7.2
346.208	7.26
346.573	7.27
346.939	7.36
347.304	7.44
347.67	7.4
348.035	7.29
348.401	7.33
348.766	7.35
349.132	7.36
349.497	7.39
349.862	7.45
350.228	7.38
350.593	7.36
350.958	7.42
351.323	7.55
351.688	7.59
352.053	7.65
352.418	7.66
352.783	7.75
353.148	7.71
353.513	7.66
353.878	7.61
354.243	7.74
354.608	7.66
354.972	7.6
355.337	7.69
355.702	7.76
356.066	7.78
356.431	7.78
356.795	7.74
357.16	7.69
357.524	7.59
357.889	7.58
358.253	7.63
358.618	7.6
358.982	7.45
359.346	7.34
359.71	7.27
360.075	7.22
360.439	7.19
360.803	7.14
361.167	7.08
361.531	7.08
361.895	7.02
362.259	7
362.623	7.05
362.987	7.03
363.351	7.08
363.714	7.06
364.078	7.05
364.442	6.98
364.806	6.95
365.169	6.96
365.533	6.9
365.896	6.87
366.26	6.83
366.623	6.83
366.987	6.87
367.35	6.84
367.714	6.77
368.077	6.7
368.44	6.72
368.803	6.75
369.167	6.7
369.53	6.65
369.893	6.64
370.256	6.56
370.619	6.53
370.982	6.42
371.345	6.36
371.708	6.32
372.071	6.34
372.434	6.31
372.797	6.26
373.159	6.32
373.522	6.31
373.885	6.31
374.247	6.28
374.61	6.24
374.973	6.16
375.335	6.09
375.698	6.14
376.06	6.13
376.423	6.04
376.785	6.06
377.147	6.05
377.51	6.02
377.872	5.98
378.234	5.92
378.596	5.92
378.958	5.87
379.321	5.83
379.683	5.82
380.045	5.81
380.407	5.77
380.769	5.71
381.13	5.66
381.492	5.59
381.854	5.57
382.216	5.51
382.578	5.54
382.939	5.54
383.301	5.52
383.663	5.46
384.024	5.46
384.386	5.44
384.747	5.41
385.109	5.36
385.47	5.35
385.832	5.39
386.193	5.35
386.554	5.36
386.916	5.33
387.277	5.29
387.638	5.23
387.999	5.17
388.36	5.14
388.721	5.14
389.082	5.13
389.443	5.08
389.804	5.08
390.165	5.01
390.526	4.98
390.887	4.92
391.248	4.9
391.609	4.9
391.969	4.84
392.33	4.84
392.691	4.82
393.051	4.78
393.412	4.72
393.772	4.67
394.133	4.66
394.493	4.66
394.854	4.62
395.214	4.63
395.574	4.65
395.935	4.6
396.295	4.57
396.655	4.52
397.015	4.5
397.376	4.48
397.736	4.44
398.096	4.44
398.456	4.42
398.816	4.42
399.176	4.34
399.535	4.3
399.895	4.25
400.255	4.26
400.615	4.25
400.975	4.25
401.334	4.24
401.694	4.19
402.054	4.15
402.413	4.14
402.773	4.1
403.132	4.05
403.492	4.05
403.851	4.02
404.211	4.01
404.57	3.99
404.929	3.97
405.288	3.98
405.648	3.92
406.007	3.91
406.366	3.88
406.725	3.9
407.084	3.91
407.443	3.87
407.802	3.86
408.161	3.81
408.52	3.75
408.879	3.75
409.238	3.73
409.596	3.72
409.955	3.71
410.314	3.71
410.673	3.7
411.031	3.68
411.39	3.67
411.748	3.66
412.107	3.69
412.465	3.69
412.824	3.67
413.182	3.65
413.54	3.66
413.899	3.63
414.257	3.62
414.615	3.6
414.974	3.61
415.332	3.57
415.69	3.6
416.048	3.61
416.406	3.57
416.764	3.56
417.122	3.56
417.48	3.54
417.838	3.53
418.195	3.52
418.553	3.51
418.911	3.51
419.269	3.5
419.626	3.48
419.984	3.46
420.342	3.45
420.699	3.45
421.057	3.44
421.414	3.43
421.772	3.41
422.129	3.39
422.486	3.38
422.844	3.39
423.201	3.37
423.558	3.36
423.915	3.38
424.273	3.38
424.63	3.36
424.987	3.35
425.344	3.34
425.701	3.35
426.058	3.36
426.415	3.36
426.772	3.36
427.128	3.35
427.485	3.36
427.842	3.37
428.199	3.36
428.555	3.35
428.912	3.35
429.269	3.37
429.625	3.37
429.982	3.34
430.338	3.34
430.695	3.34
431.051	3.34
431.407	3.32
431.764	3.33
432.12	3.33
432.476	3.32
432.832	3.31
433.189	3.3
433.545	3.29
433.901	3.29
434.257	3.29
434.613	3.28
434.969	3.27
435.325	3.25
435.681	3.28
436.036	3.3
436.392	3.29
436.748	3.29
437.104	3.29
437.459	3.3
437.815	3.28
438.171	3.28
438.526	3.29
438.882	3.3
439.237	3.28
439.593	3.3
439.948	3.31
440.304	3.32
440.659	3.31
441.014	3.3
441.369	3.28
441.725	3.27
442.08	3.27
442.435	3.26
442.79	3.27
443.145	3.25
443.5	3.24
443.855	3.23
444.21	3.22
444.565	3.23
444.92	3.23
445.275	3.24
445.629	3.23
445.984	3.22
446.339	3.2
446.693	3.19
447.048	3.16
447.403	3.15
447.757	3.14
448.112	3.14
448.466	3.14
448.82	3.15
449.175	3.16
449.529	3.17
449.883	3.15
450.238	3.13
450.592	3.14
450.946	3.12
451.3	3.11
451.654	3.09
452.008	3.1
452.362	3.09
452.716	3.06
453.07	3.08
453.424	3.07
453.778	3.08
454.132	3.08
454.486	3.09
454.839	3.1
455.193	3.09
455.547	3.08
455.9	3.1
456.254	3.1
456.607	3.1
456.961	3.09
457.314	3.11
457.668	3.13
458.021	3.11
458.375	3.13
458.728	3.14
459.081	3.16
459.434	3.15
459.787	3.15
460.141	3.17
460.494	3.19
460.847	3.19
461.2	3.18
461.553	3.19
461.906	3.21
462.259	3.2
462.611	3.23
462.964	3.25
463.317	3.24
463.67	3.25
464.022	3.24
464.375	3.25
464.728	3.26
465.08	3.27
465.433	3.28
465.785	3.29
466.138	3.31
466.49	3.3
466.843	3.32
467.195	3.31
467.547	3.32
467.899	3.31
468.252	3.3
468.604	3.32
468.956	3.32
469.308	3.32
469.66	3.31
470.012	3.33
470.364	3.33
470.716	3.32
471.068	3.33
471.42	3.34
471.772	3.34
472.123	3.33
472.475	3.33
472.827	3.32
473.178	3.31
473.53	3.3
473.882	3.31
474.233	3.3
474.585	3.28
474.936	3.29
475.288	3.29
475.639	3.3
475.99	3.28
476.342	3.28
476.693	3.28
477.044	3.31
477.395	3.29
477.746	3.3
478.097	3.3
478.448	3.28
478.8	3.27
479.15	3.26
479.501	3.26
479.852	3.26
480.203	3.26
480.554	3.27
480.905	3.27
481.255	3.27
481.606	3.28
481.957	3.3
482.307	3.3
482.658	3.3
483.009	3.29
483.359	3.3
483.709	3.31
484.06	3.31
484.41	3.31
484.761	3.31
485.111	3.31
485.461	3.31
485.811	3.32
486.162	3.33
486.512	3.34
486.862	3.35
487.212	3.35
487.562	3.36
487.912	3.37
488.262	3.38
488.612	3.39
488.961	3.41
489.311	3.41
489.661	3.41
490.011	3.42
490.36	3.44
490.71	3.44
491.06	3.44
491.409	3.46
491.759	3.46
492.108	3.47
492.458	3.47
492.807	3.48
493.157	3.5
493.506	3.51
493.855	3.51
494.204	3.52
494.554	3.54
494.903	3.55
495.252	3.56
495.601	3.57
495.95	3.58
496.299	3.57
496.648	3.58
496.997	3.6
497.346	3.62
497.695	3.64
498.043	3.66
498.392	3.68
498.741	3.71
499.09	3.74
499.438	3.77
499.787	3.81
500.135	3.84
500.484	3.86
500.832	3.89
501.181	3.93
501.529	3.96
501.878	3.99
502.226	4.02
502.574	4.05
502.923	4.09
503.271	4.11
503.619	4.17
503.967	4.22
504.315	4.24
504.663	4.28
505.011	4.32
505.359	4.35
505.707	4.4
506.055	4.43
506.403	4.48
506.751	4.52
507.098	4.55
507.446	4.6
507.794	4.64
508.141	4.68
508.489	4.73
508.837	4.76
509.184	4.8
509.531	4.86
509.879	4.92
510.226	4.97
510.574	5.01
510.921	5.04
511.268	5.08
511.616	5.12
511.963	5.17
512.31	5.24
512.657	5.3
513.004	5.36
513.351	5.45
513.698	5.49
514.045	5.55
514.392	5.62
514.739	5.67
515.086	5.72
515.432	5.79
515.779	5.84
516.126	5.92
516.473	5.98
516.819	6.02
517.166	6.07
517.512	6.14
517.859	6.2
518.205	6.26
518.552	6.31
518.898	6.38
519.245	6.44
519.591	6.49
519.937	6.53
520.283	6.59
520.629	6.65
520.976	6.75
521.322	6.84
521.668	6.93
522.014	7.04
522.36	7.14
522.706	7.26
523.052	7.39
523.398	7.51
523.743	7.64
524.089	7.78
524.435	7.89
524.781	7.99
525.126	8.12
525.472	8.24
525.817	8.35
526.163	8.43
526.509	8.53
526.854	8.62
527.199	8.7
527.545	8.79
527.89	8.87
528.235	8.94
528.581	9.02
528.926	9.11
529.271	9.2
529.616	9.31
529.961	9.38
530.306	9.48
530.651	9.57
530.996	9.67
531.341	9.77
531.686	9.89
532.031	10.03
532.376	10.15
532.721	10.28
533.065	10.42
533.41	10.58
533.755	10.72
534.099	10.89
534.444	11.07
534.788	11.24
535.133	11.39
535.477	11.57
535.822	11.75
536.166	11.93
536.51	12.14
536.855	12.34
537.199	12.59
537.543	12.82
537.887	13.07
538.231	13.32
538.576	13.6
538.92	13.85
539.264	14.07
539.608	14.31
539.951	14.53
540.295	14.73
540.639	14.94
540.983	15.16
541.327	15.36
541.671	15.55
542.014	15.73
542.358	15.95
542.701	16.17
543.045	16.36
543.389	16.61
543.732	16.82
544.075	17.06
544.419	17.31
544.762	17.54
545.105	17.8
545.449	18.06
545.792	18.33
546.135	18.61
546.478	18.94
546.821	19.25
547.165	19.59
547.508	19.93
547.851	20.29
548.194	20.62
548.536	20.97
548.879	21.32
549.222	21.69
549.565	22.06
549.908	22.4
550.25	22.75
550.593	23.06
550.936	23.42
551.278	23.75
551.621	24.06
551.963	24.47
552.306	24.82
552.648	25.2
552.991	25.55
553.333	25.91
553.675	26.21
554.017	26.58
554.36	26.95
554.702	27.26
555.044	27.59
555.386	27.89
555.728	28.26
556.07	28.59
556.412	28.94
556.754	29.28
557.096	29.63
557.438	30.03
557.78	30.45
558.121	30.85
558.463	31.24
558.805	31.6
559.147	31.9
559.488	32.27
559.83	32.63
560.171	32.98
560.513	33.33
560.854	33.68
561.196	33.99
561.537	34.3
561.878	34.67
562.22	34.96
562.561	35.36
562.902	35.62
563.243	35.93
563.584	36.24
563.925	36.5
564.266	36.77
564.607	37.02
564.948	37.28
565.289	37.56
565.63	37.86
565.971	38.17
566.312	38.45
566.653	38.71
566.993	38.97
567.334	39.24
567.675	39.47
568.015	39.72
568.356	39.97
568.696	40.24
569.037	40.47
569.377	40.68
569.718	40.89
570.058	41.17
570.398	41.42
570.739	41.68
571.079	41.96
571.419	42.22
571.759	42.47
572.099	42.72
572.439	42.93
572.779	43.12
573.119	43.33
573.459	43.54
573.799	43.78
574.139	44
574.479	44.21
574.819	44.46
575.158	44.65
575.498	44.83
575.838	45.06
576.177	45.25
576.517	45.53
576.856	45.68
577.196	45.88
577.535	46.15
577.875	46.3
578.214	46.53
578.553	46.77
578.893	46.97
579.232	47.12
579.571	47.28
579.91	47.49
580.25	47.63
580.589	47.81
580.928	47.96
581.267	48.19
581.606	48.37
581.945	48.57
582.283	48.66
582.622	48.82
582.961	48.94
583.3	49.14
583.639	49.38
583.977	49.6
584.316	49.74
584.654	49.85
584.993	50.01
585.332	50.17
585.67	50.28
586.008	50.41
586.347	50.48
586.685	50.7
587.024	50.74
587.362	50.9
587.7	51.01
588.038	51.11
588.376	51.18
588.715	51.29
589.053	51.37
589.391	51.52
589.729	51.68
590.067	51.81
590.404	51.85
590.742	51.86
591.08	51.9
591.418	51.97
591.756	52.09
592.093	52.17
592.431	52.23
592.769	52.29
593.106	52.44
593.444	52.63
593.781	52.68
594.119	52.82
594.456	52.97
594.793	53.07
595.131	53.1
595.468	53.16
595.805	53.23
596.143	53.31
596.48	53.4
596.817	53.49
597.154	53.54
597.491	53.7
597.828	53.75
598.165	53.89
598.502	53.97
598.839	54.05
599.176	54.18
599.512	54.25
599.849	54.41
600.186	54.44
600.523	54.54
600.859	54.6
601.196	54.77
601.532	54.78
601.869	54.9
602.205	54.98
602.542	55.07
602.878	55.13
603.215	55.15
603.551	55.25
603.887	55.2
604.223	55.29
604.56	55.35
604.896	55.41
605.232	55.39
605.568	55.47
605.904	55.52
606.24	55.59
606.576	55.64
606.912	55.61
607.248	55.66
607.583	55.7
607.919	55.79
608.255	55.75
608.591	55.87
608.926	55.94
609.262	56.13
609.597	56.2
609.933	56.27
610.268	56.36
610.604	56.42
610.939	56.62
611.275	56.6
611.61	56.62
611.945	56.71
612.281	56.85
612.616	56.95
612.951	57.02
613.286	57.01
613.621	57.05
613.956	57.24
614.291	57.35
614.626	57.41
614.961	57.49
615.296	57.55
615.631	57.61
615.966	57.58
616.3	57.58
616.635	57.54
616.97	57.58
617.304	57.69
617.639	57.77
617.973	57.75
618.308	57.84
618.642	57.89
618.977	57.94
619.311	58.02
619.646	58.03
619.98	58.04
620.314	58.09
620.648	58.22
620.983	58.21
621.317	58.31
621.651	58.29
621.985	58.34
622.319	58.39
622.653	58.38
622.987	58.53
623.321	58.55
623.655	58.67
623.988	58.76
624.322	58.73
624.656	58.8
624.99	58.77
625.323	58.8
625.657	58.86
625.99	58.87
626.324	58.81
626.657	58.82
626.991	58.8
627.324	58.91
627.658	58.91
627.991	58.95
628.324	58.98
628.657	59.07
628.991	59.09
629.324	59.17
629.657	59.21
629.99	59.12
630.323	59.18
630.656	59.22
630.989	59.16
631.322	59.12
631.655	59.11
631.987	59.26
632.32	59.3
632.653	59.3
632.986	59.34
633.318	59.36
633.651	59.39
633.984	59.51
634.316	59.51
634.649	59.49
634.981	59.45
635.313	59.39
635.646	59.41
635.978	59.43
636.31	59.44
636.643	59.51
636.975	59.62
637.307	59.52
637.639	59.47
637.971	59.48
638.303	59.63
638.635	59.6
638.967	59.6
639.299	59.72
639.631	59.78
639.963	59.9
640.295	60.02
640.626	60.16
640.958	60.15
641.29	60.23
641.621	60.23
641.953	60.37
642.285	60.47
642.616	60.5
642.948	60.46
643.279	60.51
643.61	60.52
643.942	60.54
644.273	60.7
644.604	60.78
644.936	60.85
645.267	60.89
645.598	60.88
645.929	60.97
646.26	60.84
646.591	60.79
646.922	60.74
647.253	60.77
647.584	60.64
647.915	60.7
648.245	60.65
648.576	60.83
648.907	60.83
649.238	60.87
649.568	60.91
649.899	60.94
650.229	60.93
650.56	60.93
650.89	60.88
651.221	60.86
651.551	60.88
651.882	60.97
652.212	60.9
652.542	60.87
652.872	60.9
653.203	60.97
653.533	61.06
653.863	61.11
654.193	61.11
654.523	61.26
654.853	61.14
655.183	61.2
655.513	61.15
655.843	61.11
656.172	61.08
656.502	61.06
656.832	61.05
657.162	61.05
657.491	61.01
657.821	61.15
658.15	61.19
658.48	61.13
658.809	61.1
659.139	61.18
659.468	61.31
659.798	61.27
660.127	61.18
660.456	61.22
660.785	61.15
661.115	61.16
661.444	61.05
661.773	61.22
662.102	61.23
662.431	61.24
662.76	61.37
663.089	61.42
663.418	61.45
663.747	61.56
664.076	61.61
664.404	61.64
664.733	61.56
665.062	61.49
665.39	61.57
665.719	61.66
666.048	61.59
666.376	61.53
666.705	61.59
667.033	61.6
667.362	61.59
667.69	61.64
668.018	61.62
668.347	61.68
668.675	61.61
669.003	61.52
669.331	61.56
669.659	61.51
669.987	61.44
670.315	61.45
670.643	61.39
670.971	61.39
671.299	61.46
671.627	61.54
671.955	61.62
672.283	61.62
672.61	61.46
672.938	61.48
673.266	61.59
673.593	61.62
673.921	61.8
674.249	61.89
674.576	61.94
674.904	62.01
675.231	62.05
675.558	62.06
675.886	62.19
676.213	62.31
676.54	62.33
676.867	62.53
677.195	62.47
677.522	62.48
677.849	62.55
678.176	62.55
678.503	62.5
678.83	62.52
679.157	62.47
679.484	62.49
679.81	62.62
680.137	62.54
680.464	62.46
680.791	62.43
681.117	62.25
681.444	62.27
681.771	62.38
682.097	62.44
682.424	62.55
682.75	62.57
683.077	62.49
683.403	62.59
683.729	62.43
684.056	62.52
684.382	62.52
684.708	62.46
685.034	62.38
685.36	62.42
685.686	62.42
686.012	62.54
686.339	62.6
686.664	62.52
686.99	62.53
687.316	62.57
687.642	62.58
687.968	62.62
688.294	62.55
688.619	62.61
688.945	62.52
689.271	62.46
689.596	62.31
689.922	62.18
690.247	62.06
690.573	62
690.898	62.02
691.224	62.21
691.549	62.29
691.874	62.47
692.2	62.35
692.525	62.34
692.85	62.42
693.175	62.41
693.5	62.29
693.825	62.36
694.15	62.34
694.475	62.45
694.8	62.56
695.125	62.52
695.45	62.33
695.775	62.43
696.099	62.53
696.424	62.59
696.749	62.72
697.073	62.73
697.398	62.91
697.723	62.89
698.047	62.68
698.372	62.57
698.696	62.58
699.02	62.71
699.345	62.74
699.669	62.72
699.993	62.82
700.318	62.91
700.642	62.93
700.966	63.02
701.29	62.88
701.614	62.91
701.938	63.01
702.262	63.2
702.586	63.27
702.91	63.12
703.234	63.13
703.557	63.1
703.881	63.27
704.205	63.17
704.529	63.11
704.852	63.2
705.176	63.49
705.499	63.43
705.823	63.42
706.146	63.3
706.47	63.23
706.793	63.11
707.117	63.08
707.44	63.06
707.763	62.92
708.086	63
708.409	63
708.733	63.01
709.056	62.8
709.379	62.69
709.702	62.64
710.025	62.77
710.348	62.72
710.671	62.55
710.993	62.47
711.316	62.49
711.639	62.45
711.962	62.28
712.284	62.4
712.607	62.48
712.93	62.59
713.252	62.63
713.575	62.55
713.897	62.6
714.22	62.56
714.542	62.58
714.864	62.62
715.187	62.73
715.509	62.83
715.831	62.95
716.153	62.91
716.475	63.11
716.798	62.94
717.12	62.94
717.442	63.22
717.764	63.37
718.085	63.45
718.407	63.57
718.729	63.59
719.051	63.55
719.373	63.43
719.695	63.51
720.016	63.55
720.338	63.87
720.659	64.13
720.981	64.23
721.302	64.38
721.624	64.47
721.945	64.65
722.267	64.56
722.588	64.46
722.909	64.63
723.231	64.4
723.552	64.57
723.873	64.72
724.194	64.38
724.515	64.27
724.836	64.24
725.157	64.17
725.478	64.34
725.799	64.13
726.12	64.16
726.441	64.11
726.762	64.35
727.083	64.34
727.403	63.96
727.724	64.23
728.045	64.39
728.365	64.43
728.686	63.93
729.006	64.04
729.327	63.94
729.647	63.86
729.967	63.89
730.288	63.95
730.608	63.76
730.928	63.79
731.249	63.84
731.569	63.86
731.889	64.14
732.209	64.12
732.529	64.25
732.849	64.21
733.169	64.14
733.489	63.84
733.809	63.74
734.129	63.98
734.448	63.7
734.768	63.43
735.088	63.41
735.408	63.7
735.727	63.64
736.047	63.93
736.366	63.92
736.686	63.89
737.005	63.85
737.325	64.08
737.644	64.18
737.963	64.51
738.283	64.77
738.602	64.47
738.921	64.43
739.24	64.38
739.56	64.39
739.879	64.58
740.198	64.85
740.517	64.66
740.836	64.56
741.155	64.76
741.473	64.74
741.792	64.88
742.111	64.73
742.43	64.29
742.748	63.98
743.067	63.88
743.386	64.16
743.704	64.11
744.023	63.91
744.341	63.91
744.66	63.4
744.978	63.4
745.297	63.73
745.615	63.58
745.933	64.01
746.252	64.11
746.57	64.04
746.888	64.01
747.206	64.42
747.524	64.54
747.842	64.24
748.16	64.49
748.478	64.63
748.796	64.42
749.114	65.03
749.432	65.18
749.749	65.46
750.067	65.33
750.385	65.56
750.703	65.83
751.02	65.66
751.338	66.1
751.655	65.95
751.973	65.81
752.29	65.86
752.608	65.58
752.925	65.89
753.242	65.94
753.56	65.64
753.877	65.39
754.194	65.34
754.511	65.56
754.828	65.41
755.145	65.27
755.462	65.87
755.779	65.7
756.096	65.75
756.413	65.78
756.73	65.9
757.047	66.06
757.364	65.82
757.68	66.01
757.997	65.49
758.314	65.55
758.63	65.42
758.947	65.45
759.264	65.36
759.58	65.18
759.896	65.08
760.213	65.49
760.529	65.48
760.846	65.27
761.162	65.41
761.478	65.29
761.794	65.41
762.11	65.21
762.426	65.19
762.743	65.37
763.059	65.39
763.375	65.37
763.69	65.44
764.006	65.58
764.322	65.36
764.638	65.62
764.954	65.5
765.27	65.67
765.585	65.66
765.901	66.05
766.216	65.99
766.532	66
766.848	65.66
767.163	65.64
767.478	65.72
767.794	65.7
768.109	65.58
768.424	65.28
768.74	65.25
769.055	65.22
769.37	65
769.685	64.76
770	65
770.315	64.77
770.63	64.63
770.945	64.91
771.26	64.86
771.575	64.96
771.89	64.7
772.205	64.87
772.52	64.27
772.834	63.89
773.149	64.47
773.464	64.84
773.778	65.19
774.093	65.04
774.407	65.28
774.722	65.84
775.036	65.87
775.351	65.54
775.665	66
775.979	65.9
776.293	66.49
776.608	66.42
776.922	66.04
777.236	66.52
777.55	66.63
777.864	66.41
778.178	66.46
778.492	66.59
778.806	66.51
779.12	66.79
779.434	67.4
779.747	66.69
780.061	66.69
780.375	66.66
780.689	67.36
781.002	67.06
781.316	66.86
781.629	67.13
781.943	67.67
782.256	67.6
782.57	67.86
782.883	67.33
783.196	66.55
783.51	66.94
783.823	66.69
784.136	66.39
784.449	66.74
784.762	66.64
785.075	65.98
785.388	66.31
785.701	66.39
786.014	66.18
786.327	66.13
786.64	65.96
786.953	66.24
787.266	65.16
787.578	64.82
787.891	65.09
788.204	64.47
788.516	64.32
788.829	64.53
789.141	64.79
789.454	64.75
789.766	65.7
790.079	65.25
790.391	64.66
790.703	64.84
791.016	64.71
791.328	64.96
791.64	65.25
791.952	65.03
792.264	64.46
792.576	64.41
792.888	64.81
793.2	65.11
793.512	64.76
793.824	65.36
794.136	65.75
794.448	65.68
794.76	66.1
795.071	66.03
795.383	65.63
795.695	64.97
796.006	64.74
796.318	64.05
796.629	64.74
796.941	65.15
797.252	65.01
797.564	65.29
797.875	65.02
798.186	65.3
798.497	65.47
798.809	65.09
799.12	64.95
799.431	64.98
799.742	64.76
800.053	65.05
800.364	65.14
800.675	64.98
800.986	64.58
801.297	64.74
801.608	64.83
801.918	64.27
802.229	64.95
802.54	65.16
802.851	65.58
803.161	65.52
803.472	65.35
803.782	65.21
804.093	65.37
804.403	66.09
804.714	66.63
805.024	66.5
805.334	68.01
805.645	68.45
805.955	67.76
806.265	68.07
806.575	67.94
806.885	68.6
807.195	67.7
807.505	68.06
807.815	67.56
808.125	68.03
808.435	68.53
808.745	68.01
809.055	68.23
809.365	68.27
809.674	67.83
809.984	68.06
810.294	68.21
810.603	67.83
810.913	67.67
811.222	67.14
811.532	66.92
811.841	66.45
812.151	66.67
812.46	67.34
812.769	66.97
813.079	66.75
813.388	66.19
813.697	67.61
814.006	68.74
814.315	69.03
814.624	68.63
814.933	69.05
815.242	69.09
815.551	69.39
815.86	69.6
816.169	69.84
816.478	69.43
816.786	69.47
817.095	69.2
817.404	69.01
817.712	68.6
818.021	68.51
818.33	68.36
818.638	67.79
818.947	67.78
819.255	67.68
819.563	67.69
819.872	67.76
820.18	67.32
820.488	66.91
820.796	67.11
821.105	66.75
821.413	66.57
821.721	66.51
822.029	66.68
822.337	66.7
822.645	66.67
822.953	66.88
823.26	66.83
823.568	67.06
823.876	67.04
824.184	67.08
824.491	67.39
824.799	67.23
825.107	67.39
825.414	67.21
825.722	67.28
826.029	67.04
826.337	66.98
826.644	67.27
826.951	67.28
827.259	67.2
827.566	67.48
827.873	67.63
828.18	67.79
828.488	67.5
828.795	67.3
829.102	67.49
829.409	67.37
829.716	67.6
830.023	67.23
830.329	66.87
830.636	66.79
830.943	66.52
831.25	66.51
831.557	66.14
831.863	66.52
832.17	66.41
832.476	66.86
832.783	66.91
833.089	66.77
833.396	66.54
833.702	66.65
834.009	66.87
834.315	66.73
834.621	66.47
834.928	66.36
835.234	66.32
835.54	66
835.846	66.11
836.152	65.72
836.458	65.53
836.764	66.13
837.07	66.38
837.376	65.93
837.682	66.77
837.988	67.12
838.293	66.44
838.599	66.41
838.905	66.72
839.211	66.46
839.516	66.01
839.822	66.3
840.127	66.18
840.433	65.99
840.738	65.52
841.044	65.49
841.349	66.41
841.654	67.1
841.959	67.62
842.265	67.49
842.57	68.56
842.875	69.08
843.18	68.27
843.485	68.49
843.79	67.55
844.095	66.52
844.4	65.85
844.705	66.72
845.01	67.92
845.315	66.85
845.619	67.25
845.924	67.9
846.229	67.9
846.533	67.76
846.838	67.02
847.142	67.56
847.447	67.44
847.751	68.5
848.056	67.78
848.36	67.89
848.664	69.59
848.969	68.56
849.273	70.21
849.577	71.55
849.881	72.51
850.185	74.62
850.489	74.28
850.794	75.24
851.097	76.22
851.401	73.49
851.705	74.04
852.009	72.51
852.313	71.06
852.617	70.83
852.92	70.22
853.224	70.81
853.528	71.4
853.831	73.08
854.135	71.24
854.438	71.86
854.742	70.94
855.045	66.95
855.349	68.42
855.652	67.4
855.955	65.65
856.259	64.2
856.562	61.94
856.865	62.22
857.168	61.74
857.471	61.98
857.774	65.26
858.077	65.17
858.38	68.52
858.683	68.35
858.986	69
859.289	70.14
859.592	68.87
859.894	68.08
860.197	70.27
860.5	70.23
860.802	70.12
861.105	71.13
861.407	71.73
861.71	71.86
862.012	72.71
862.315	73.63
862.617	74.77
862.919	77.77
863.222	78.02
863.524	77.85
863.826	78.37
864.128	75.3
864.43	75.24
864.732	73.89
865.034	74.89
865.336	75.51
865.638	73.12
865.94	74.44
866.242	79.98
866.544	76.74
866.846	78.67
867.147	79.55
867.449	82.18
867.751	84.2
868.052	80.27
868.354	78.95
868.655	76.79
868.957	74.34
869.258	74.75
869.56	74.28
869.861	75.69
870.162	74.96
870.463	75.69
870.765	78.16
871.066	74.12
871.367	72.14
871.668	68.79
871.969	69.51
872.27	70.38
872.571	66.06
872.872	67.21
873.173	64.76
873.473	65.03
873.774	59.97
874.075	61.61
874.376	63.24
874.676	64.47
874.977	68.81
875.277	72.96
875.578	73.1
875.878	73.45
876.179	72.44
876.479	71.07
876.78	71.39
877.08	69.46
877.38	72.99
877.68	76.64
877.981	81.07
878.281	83.74
878.581	82.51
