Data from BA28474_Reflection_00005.txt Node
Date: Mon Nov 18 15:30:36 EST 2019
User: vgr7
Spectrometer: USB2G7710
Scans to average: 3
Trigger mode: 4
Integration Time (sec): 2.000000E-2
Electric dark correction enabled: true
Boxcar width: 10
XAxis mode: Wavelengths
Number of Pixels in Spectrum: 2048
>>>>>Begin Spectral Data<<<<<
177.721	146.08
178.105	114.9
178.488	238.64
178.871	159.11
179.254	423.38
179.636	247.58
180.019	-912.58
180.402	31.11
180.785	5.71
181.168	-102.74
181.55	-213.23
181.933	415.32
182.316	145.33
182.698	128.5
183.081	226.59
183.463	433.33
183.846	413.51
184.228	42211.11
184.611	-624.73
184.993	-338.6
185.376	-136.4
185.758	-167.85
186.14	-173.03
186.522	-154.25
186.904	-194.79
187.287	-275.77
187.669	-234.31
188.051	-378.48
188.433	-331.59
188.815	-296.65
189.197	-392.41
189.579	-389.12
189.961	-244.34
190.342	-172.27
190.724	-157.51
191.106	-171.07
191.488	-156.55
191.869	-119.21
192.251	-118.41
192.633	-193.31
193.014	-166.59
193.396	-235.66
193.777	-163.68
194.159	-118.15
194.54	-100.57
194.922	-84.02
195.303	-95.79
195.684	-73.38
196.065	-57.68
196.447	-68.96
196.828	-61.1
197.209	-38.3
197.59	-35.41
197.971	-29.09
198.352	-17.12
198.733	-19.22
199.114	-18.5
199.495	-5.28
199.876	-0.02
200.257	2.6
200.638	0.77
201.018	-14.41
201.399	-13.43
201.78	-5.53
202.16	-27.4
202.541	-33.89
202.922	-85.04
203.302	-70.84
203.683	-79.18
204.063	-130.67
204.444	-79.11
204.824	-73.89
205.204	-96.42
205.585	-145.05
205.965	-231.9
206.345	-240.73
206.725	-276.9
207.106	-431.58
207.486	-472.26
207.866	-1903
208.246	-843.37
208.626	-914.68
209.006	-329.43
209.386	-370.34
209.766	-388.77
210.145	-268.1
210.525	-211.09
210.905	-163.45
211.285	-148.16
211.664	-153.21
212.044	-124.8
212.424	-114.27
212.803	-123.11
213.183	-124.25
213.562	-104.75
213.942	-92.93
214.321	-72.53
214.701	-89.91
215.08	-72.48
215.459	-69.85
215.838	-55.15
216.218	-41.76
216.597	-43.9
216.976	-51.94
217.355	-40.16
217.734	-45.23
218.113	-40.92
218.492	-52.22
218.871	-51.93
219.25	-63.88
219.629	-73.55
220.008	-75.54
220.387	-90.96
220.766	-92.88
221.144	-105.99
221.523	-127.29
221.902	-132.53
222.28	-157.91
222.659	-112.79
223.037	-111.26
223.416	-95.68
223.794	-88.61
224.173	-112.76
224.551	-90.36
224.929	-69.63
225.308	-51.74
225.686	-43.45
226.064	-43.23
226.442	-32.68
226.821	-26.34
227.199	-22.18
227.577	-20.8
227.955	-21.05
228.333	-20.61
228.711	-19.06
229.089	-13.96
229.467	-13.69
229.845	-10.74
230.222	-7.66
230.6	-9.3
230.978	-6.76
231.356	-5.11
231.733	-6.16
232.111	-2.94
232.488	-3.44
232.866	-2.41
233.243	-1.48
233.621	-4.05
233.998	-1.96
234.376	-3.39
234.753	-3.42
235.13	-2.63
235.508	-1.66
235.885	-0.92
236.262	-1.7
236.639	-2.63
237.016	-3.02
237.393	-1.3
237.77	-1.85
238.147	-0.87
238.524	0.83
238.901	1.09
239.278	0.62
239.655	1.16
240.032	1.02
240.409	1.46
240.785	1.14
241.162	0.83
241.539	1.2
241.915	1.23
242.292	1.03
242.668	1.04
243.045	1.05
243.421	1.07
243.798	1.43
244.174	1.91
244.551	2.11
244.927	2.07
245.303	2.51
245.679	3.09
246.056	3.14
246.432	3.12
246.808	3.17
247.184	3.2
247.56	3.23
247.936	3.16
248.312	3.15
248.688	3.15
249.064	3.02
249.44	2.96
249.815	2.98
250.191	3.25
250.567	3.23
250.943	2.94
251.318	3.11
251.694	3.14
252.069	3.15
252.445	3.22
252.82	3.22
253.196	2.84
253.571	2.24
253.947	2
254.322	2.19
254.697	1.98
255.073	2.09
255.448	2.14
255.823	2.58
256.198	2.83
256.573	2.79
256.948	2.95
257.323	3.33
257.698	3.52
258.073	3.49
258.448	3.63
258.823	3.76
259.198	3.71
259.573	3.68
259.948	3.71
260.322	3.78
260.697	3.79
261.072	3.81
261.446	4.06
261.821	3.98
262.195	3.85
262.57	3.93
262.944	3.87
263.319	3.85
263.693	3.63
264.067	3.57
264.442	3.61
264.816	3.48
265.19	3.41
265.564	3.14
265.938	3.14
266.313	3.06
266.687	3.1
267.061	3.09
267.435	3.11
267.809	3.14
268.183	3.24
268.556	3.09
268.93	3.16
269.304	3.01
269.678	3.14
270.051	3.25
270.425	3.16
270.799	3.05
271.172	3.15
271.546	3.24
271.919	3.11
272.293	3.1
272.666	3.27
273.04	3.22
273.413	3.26
273.787	3.19
274.16	3.23
274.533	3.08
274.906	3.06
275.279	2.93
275.653	2.74
276.026	2.52
276.399	2.55
276.772	2.55
277.145	2.51
277.518	2.38
277.891	2.33
278.263	2.38
278.636	2.62
279.009	2.53
279.382	2.53
279.755	2.5
280.127	2.7
280.5	2.57
280.872	2.74
281.245	2.73
281.617	2.79
281.99	2.83
282.362	2.97
282.735	2.96
283.107	2.99
283.479	3.12
283.852	3.18
284.224	3.22
284.596	3.24
284.968	3.25
285.34	3.32
285.713	3.3
286.085	3.28
286.457	3.3
286.829	3.27
287.201	3.21
287.572	3.21
287.944	3
288.316	3.07
288.688	2.98
289.06	3.01
289.431	3.04
289.803	3.05
290.175	3.05
290.546	3.16
290.918	3.17
291.289	3.12
291.661	3.15
292.032	3.18
292.403	3.14
292.775	3.2
293.146	3.25
293.517	3.28
293.889	3.44
294.26	3.37
294.631	3.49
295.002	3.56
295.373	3.72
295.744	3.91
296.115	3.94
296.486	3.75
296.857	3.79
297.228	3.88
297.599	3.78
297.97	3.74
298.34	3.79
298.711	3.8
299.082	3.74
299.452	3.75
299.823	3.83
300.194	3.85
300.564	3.78
300.935	3.75
301.305	3.64
301.676	3.61
302.046	3.63
302.416	3.62
302.787	3.54
303.157	3.5
303.527	3.27
303.897	3.32
304.267	3.59
304.637	3.58
305.008	3.46
305.378	3.68
305.748	3.71
306.117	3.56
306.487	3.59
306.857	3.74
307.227	3.58
307.597	3.52
307.967	3.37
308.336	3.29
308.706	3.33
309.076	3.42
309.445	3.4
309.815	3.27
310.184	3.18
310.554	3.29
310.923	3.25
311.293	3.35
311.662	3.24
312.031	3.07
312.401	3.03
312.77	3
313.139	2.86
313.508	2.85
313.877	2.85
314.246	2.89
314.616	2.75
314.985	2.88
315.353	2.77
315.722	2.89
316.091	2.96
316.46	2.87
316.829	2.89
317.198	2.88
317.567	3
317.935	2.97
318.304	2.95
318.672	2.94
319.041	2.93
319.41	2.94
319.778	3.05
320.147	3.15
320.515	3.1
320.883	3.16
321.252	3.21
321.62	3.34
321.988	3.29
322.357	3.3
322.725	3.23
323.093	3.41
323.461	3.3
323.829	3.33
324.197	3.39
324.565	3.4
324.933	3.37
325.301	3.31
325.669	3.31
326.037	3.16
326.405	3.18
326.772	3.22
327.14	3.33
327.508	3.31
327.875	3.24
328.243	3.31
328.61	3.18
328.978	3.18
329.346	3.07
329.713	3.02
330.08	3.03
330.448	3.02
330.815	2.81
331.182	2.8
331.55	2.81
331.917	2.75
332.284	2.77
332.651	2.76
333.018	2.81
333.385	2.81
333.752	2.94
334.119	2.86
334.486	2.8
334.853	2.73
335.22	2.77
335.587	2.81
335.954	2.75
336.32	2.74
336.687	2.62
337.054	2.62
337.42	2.66
337.787	2.65
338.153	2.71
338.52	2.85
338.886	2.75
339.253	2.58
339.619	2.65
339.986	2.6
340.352	2.61
340.718	2.5
341.084	2.54
341.451	2.59
341.817	2.7
342.183	2.73
342.549	2.65
342.915	2.61
343.281	2.57
343.647	2.55
344.013	2.61
344.379	2.78
344.745	2.78
345.11	2.74
345.476	2.81
345.842	2.69
346.208	2.65
346.573	2.85
346.939	3.01
347.304	3.05
347.67	3
348.035	3.08
348.401	3.26
348.766	3.43
349.132	3.38
349.497	3.32
349.862	3.33
350.228	3.43
350.593	3.44
350.958	3.46
351.323	3.5
351.688	3.45
352.053	3.42
352.418	3.47
352.783	3.48
353.148	3.45
353.513	3.48
353.878	3.47
354.243	3.43
354.608	3.42
354.972	3.35
355.337	3.36
355.702	3.38
356.066	3.3
356.431	3.15
356.795	3.16
357.16	3.15
357.524	3.11
357.889	3.07
358.253	3.13
358.618	3.21
358.982	3.19
359.346	3.19
359.71	3.17
360.075	3.2
360.439	3.21
360.803	3.21
361.167	3.3
361.531	3.32
361.895	3.34
362.259	3.33
362.623	3.33
362.987	3.37
363.351	3.36
363.714	3.41
364.078	3.46
364.442	3.4
364.806	3.35
365.169	3.41
365.533	3.45
365.896	3.37
366.26	3.28
366.623	3.28
366.987	3.24
367.35	3.28
367.714	3.26
368.077	3.33
368.44	3.3
368.803	3.22
369.167	3.15
369.53	3.08
369.893	3.05
370.256	3.06
370.619	3.06
370.982	3.02
371.345	2.95
371.708	2.93
372.071	2.94
372.434	3
372.797	2.99
373.159	2.94
373.522	2.99
373.885	3.05
374.247	3.08
374.61	3.13
374.973	3.05
375.335	3.03
375.698	2.96
376.06	2.98
376.423	3.06
376.785	3.15
377.147	3.2
377.51	3.21
377.872	3.27
378.234	3.27
378.596	3.26
378.958	3.29
379.321	3.21
379.683	3.26
380.045	3.3
380.407	3.3
380.769	3.3
381.13	3.27
381.492	3.23
381.854	3.23
382.216	3.25
382.578	3.32
382.939	3.29
383.301	3.35
383.663	3.38
384.024	3.35
384.386	3.35
384.747	3.36
385.109	3.42
385.47	3.38
385.832	3.41
386.193	3.43
386.554	3.46
386.916	3.48
387.277	3.48
387.638	3.45
387.999	3.45
388.36	3.44
388.721	3.48
389.082	3.5
389.443	3.52
389.804	3.53
390.165	3.49
390.526	3.5
390.887	3.49
391.248	3.5
391.609	3.49
391.969	3.5
392.33	3.47
392.691	3.43
393.051	3.42
393.412	3.39
393.772	3.37
394.133	3.38
394.493	3.42
394.854	3.42
395.214	3.44
395.574	3.44
395.935	3.46
396.295	3.46
396.655	3.45
397.015	3.43
397.376	3.41
397.736	3.44
398.096	3.46
398.456	3.48
398.816	3.43
399.176	3.4
399.535	3.36
399.895	3.32
400.255	3.33
400.615	3.31
400.975	3.33
401.334	3.35
401.694	3.33
402.054	3.35
402.413	3.37
402.773	3.37
403.132	3.36
403.492	3.36
403.851	3.37
404.211	3.34
404.57	3.36
404.929	3.39
405.288	3.39
405.648	3.4
406.007	3.37
406.366	3.4
406.725	3.45
407.084	3.48
407.443	3.55
407.802	3.56
408.161	3.6
408.52	3.59
408.879	3.56
409.238	3.57
409.596	3.55
409.955	3.56
410.314	3.55
410.673	3.55
411.031	3.54
411.39	3.53
411.748	3.56
412.107	3.58
412.465	3.56
412.824	3.54
413.182	3.49
413.54	3.49
413.899	3.47
414.257	3.44
414.615	3.41
414.974	3.4
415.332	3.39
415.69	3.36
416.048	3.37
416.406	3.4
416.764	3.38
417.122	3.39
417.48	3.36
417.838	3.39
418.195	3.4
418.553	3.4
418.911	3.42
419.269	3.43
419.626	3.43
419.984	3.43
420.342	3.44
420.699	3.46
421.057	3.47
421.414	3.48
421.772	3.5
422.129	3.53
422.486	3.52
422.844	3.54
423.201	3.54
423.558	3.55
423.915	3.55
424.273	3.56
424.63	3.56
424.987	3.56
425.344	3.55
425.701	3.54
426.058	3.55
426.415	3.54
426.772	3.53
427.128	3.5
427.485	3.51
427.842	3.51
428.199	3.51
428.555	3.49
428.912	3.5
429.269	3.49
429.625	3.47
429.982	3.47
430.338	3.47
430.695	3.48
431.051	3.46
431.407	3.46
431.764	3.47
432.12	3.46
432.476	3.47
432.832	3.44
433.189	3.44
433.545	3.45
433.901	3.42
434.257	3.43
434.613	3.46
434.969	3.45
435.325	3.45
435.681	3.46
436.036	3.46
436.392	3.47
436.748	3.46
437.104	3.45
437.459	3.46
437.815	3.46
438.171	3.48
438.526	3.49
438.882	3.47
439.237	3.46
439.593	3.49
439.948	3.49
440.304	3.51
440.659	3.52
441.014	3.52
441.369	3.53
441.725	3.52
442.08	3.53
442.435	3.55
442.79	3.54
443.145	3.53
443.5	3.54
443.855	3.52
444.21	3.52
444.565	3.53
444.92	3.53
445.275	3.51
445.629	3.5
445.984	3.51
446.339	3.51
446.693	3.51
447.048	3.5
447.403	3.49
447.757	3.49
448.112	3.47
448.466	3.46
448.82	3.48
449.175	3.49
449.529	3.48
449.883	3.46
450.238	3.46
450.592	3.47
450.946	3.48
451.3	3.48
451.654	3.48
452.008	3.49
452.362	3.48
452.716	3.49
453.07	3.49
453.424	3.49
453.778	3.49
454.132	3.49
454.486	3.49
454.839	3.5
455.193	3.5
455.547	3.51
455.9	3.52
456.254	3.51
456.607	3.49
456.961	3.49
457.314	3.5
457.668	3.5
458.021	3.49
458.375	3.47
458.728	3.49
459.081	3.49
459.434	3.5
459.787	3.51
460.141	3.5
460.494	3.51
460.847	3.5
461.2	3.49
461.553	3.48
461.906	3.48
462.259	3.49
462.611	3.5
462.964	3.5
463.317	3.51
463.67	3.51
464.022	3.53
464.375	3.52
464.728	3.51
465.08	3.51
465.433	3.51
465.785	3.51
466.138	3.51
466.49	3.51
466.843	3.48
467.195	3.47
467.547	3.48
467.899	3.48
468.252	3.49
468.604	3.5
468.956	3.5
469.308	3.5
469.66	3.47
470.012	3.46
470.364	3.47
470.716	3.47
471.068	3.46
471.42	3.43
471.772	3.48
472.123	3.48
472.475	3.48
472.827	3.5
473.178	3.51
473.53	3.49
473.882	3.52
474.233	3.54
474.585	3.52
474.936	3.51
475.288	3.5
475.639	3.51
475.99	3.5
476.342	3.52
476.693	3.53
477.044	3.55
477.395	3.58
477.746	3.56
478.097	3.55
478.448	3.54
478.8	3.57
479.15	3.54
479.501	3.55
479.852	3.56
480.203	3.56
480.554	3.56
480.905	3.57
481.255	3.56
481.606	3.58
481.957	3.6
482.307	3.62
482.658	3.62
483.009	3.62
483.359	3.64
483.709	3.64
484.06	3.64
484.41	3.66
484.761	3.66
485.111	3.67
485.461	3.68
485.811	3.69
486.162	3.68
486.512	3.7
486.862	3.7
487.212	3.69
487.562	3.7
487.912	3.71
488.262	3.71
488.612	3.72
488.961	3.72
489.311	3.73
489.661	3.72
490.011	3.72
490.36	3.72
490.71	3.72
491.06	3.71
491.409	3.7
491.759	3.69
492.108	3.69
492.458	3.68
492.807	3.67
493.157	3.68
493.506	3.69
493.855	3.68
494.204	3.69
494.554	3.7
494.903	3.69
495.252	3.68
495.601	3.69
495.95	3.67
496.299	3.66
496.648	3.64
496.997	3.66
497.346	3.67
497.695	3.67
498.043	3.66
498.392	3.67
498.741	3.7
499.09	3.69
499.438	3.7
499.787	3.7
500.135	3.69
500.484	3.69
500.832	3.69
501.181	3.7
501.529	3.71
501.878	3.71
502.226	3.73
502.574	3.74
502.923	3.72
503.271	3.74
503.619	3.73
503.967	3.77
504.315	3.76
504.663	3.75
505.011	3.76
505.359	3.77
505.707	3.78
506.055	3.76
506.403	3.78
506.751	3.79
507.098	3.79
507.446	3.79
507.794	3.79
508.141	3.78
508.489	3.78
508.837	3.77
509.184	3.77
509.531	3.78
509.879	3.8
510.226	3.84
510.574	3.83
510.921	3.84
511.268	3.82
511.616	3.83
511.963	3.83
512.31	3.84
512.657	3.86
513.004	3.86
513.351	3.89
513.698	3.88
514.045	3.86
514.392	3.85
514.739	3.88
515.086	3.89
515.432	3.91
515.779	3.9
516.126	3.9
516.473	3.9
516.819	3.89
517.166	3.88
517.512	3.86
517.859	3.87
518.205	3.87
518.552	3.88
518.898	3.87
519.245	3.85
519.591	3.84
519.937	3.8
520.283	3.82
520.629	3.8
520.976	3.81
521.322	3.82
521.668	3.81
522.014	3.81
522.36	3.81
522.706	3.79
523.052	3.8
523.398	3.83
523.743	3.84
524.089	3.85
524.435	3.85
524.781	3.86
525.126	3.87
525.472	3.88
525.817	3.89
526.163	3.9
526.509	3.91
526.854	3.94
527.199	3.97
527.545	3.96
527.89	3.96
528.235	3.96
528.581	3.98
528.926	4
529.271	4
529.616	3.99
529.961	3.99
530.306	4.01
530.651	4
530.996	4.01
531.341	4.01
531.686	4.01
532.031	4.02
532.376	4.02
532.721	4.02
533.065	4
533.41	4
533.755	3.99
534.099	3.99
534.444	3.97
534.788	3.99
535.133	3.99
535.477	3.98
535.822	3.97
536.166	3.94
536.51	3.93
536.855	3.95
537.199	3.96
537.543	3.95
537.887	3.95
538.231	3.93
538.576	3.94
538.92	3.94
539.264	3.93
539.608	3.95
539.951	3.95
540.295	3.97
540.639	4
540.983	3.99
541.327	4
541.671	4
542.014	3.99
542.358	4
542.701	4.01
543.045	4.01
543.389	4.05
543.732	4.06
544.075	4.06
544.419	4.07
544.762	4.06
545.105	4.08
545.449	4.08
545.792	4.08
546.135	4.08
546.478	4.1
546.821	4.08
547.165	4.07
547.508	4.06
547.851	4.04
548.194	4.05
548.536	4.01
548.879	4.01
549.222	4.01
549.565	4.01
549.908	4
550.25	4
550.593	3.98
550.936	3.96
551.278	3.94
551.621	3.94
551.963	3.97
552.306	3.96
552.648	3.98
552.991	4
553.333	4
553.675	3.98
554.017	3.99
554.36	4
554.702	4
555.044	4
555.386	4
555.728	4
556.07	4.01
556.412	4
556.754	3.97
557.096	3.96
557.438	3.95
557.78	3.93
558.121	3.98
558.463	3.97
558.805	3.98
559.147	3.97
559.488	3.97
559.83	3.97
560.171	3.96
560.513	3.98
560.854	3.97
561.196	3.96
561.537	3.95
561.878	3.95
562.22	3.96
562.561	3.97
562.902	3.99
563.243	4.02
563.584	4.02
563.925	4.07
564.266	4.08
564.607	4.07
564.948	4.12
565.289	4.1
565.63	4.11
565.971	4.08
566.312	4.06
566.653	4.07
566.993	4.04
567.334	4.01
567.675	3.98
568.015	4.01
568.356	4.01
568.696	4.04
569.037	4.06
569.377	4.06
569.718	4.06
570.058	4.06
570.398	4.06
570.739	4.06
571.079	4.04
571.419	4.04
571.759	4.05
572.099	4.01
572.439	4.02
572.779	4.01
573.119	4.05
573.459	4.08
573.799	4.08
574.139	4.09
574.479	4.09
574.819	4.12
575.158	4.09
575.498	4.12
575.838	4.12
576.177	4.08
576.517	4.09
576.856	4.1
577.196	4.11
577.535	4.09
577.875	4.12
578.214	4.14
578.553	4.16
578.893	4.17
579.232	4.2
579.571	4.19
579.91	4.15
580.25	4.12
580.589	4.1
580.928	4.1
581.267	4.11
581.606	4.11
581.945	4.09
582.283	4.1
582.622	4.07
582.961	4.06
583.3	4.05
583.639	4.07
583.977	4.06
584.316	4.05
584.654	4.04
584.993	4.07
585.332	4.03
585.67	4.01
586.008	4.01
586.347	3.97
586.685	3.98
587.024	4.02
587.362	4.03
587.7	4.03
588.038	4.04
588.376	4
588.715	4.03
589.053	4.06
589.391	4.06
589.729	4.11
590.067	4.06
590.404	4.08
590.742	4.03
591.08	4.01
591.418	4
591.756	3.99
592.093	3.94
592.431	3.96
592.769	3.98
593.106	3.99
593.444	3.97
593.781	3.97
594.119	3.97
594.456	3.99
594.793	3.96
595.131	3.93
595.468	3.98
595.805	3.99
596.143	3.99
596.48	4.01
596.817	4
597.154	4.03
597.491	4.06
597.828	4.12
598.165	4.13
598.502	4.16
598.839	4.14
599.176	4.13
599.512	4.14
599.849	4.14
600.186	4.13
600.523	4.19
600.859	4.21
601.196	4.22
601.532	4.16
601.869	4.18
602.205	4.22
602.542	4.23
602.878	4.23
603.215	4.24
603.551	4.24
603.887	4.24
604.223	4.26
604.56	4.28
604.896	4.25
605.232	4.28
605.568	4.27
605.904	4.29
606.24	4.35
606.576	4.34
606.912	4.34
607.248	4.34
607.583	4.32
607.919	4.32
608.255	4.3
608.591	4.38
608.926	4.41
609.262	4.4
609.597	4.41
609.933	4.42
610.268	4.43
610.604	4.41
610.939	4.38
611.275	4.35
611.61	4.31
611.945	4.31
612.281	4.3
612.616	4.29
612.951	4.28
613.286	4.24
613.621	4.25
613.956	4.23
614.291	4.22
614.626	4.22
614.961	4.23
615.296	4.23
615.631	4.19
615.966	4.18
616.3	4.19
616.635	4.15
616.97	4.12
617.304	4.05
617.639	4.08
617.973	4.06
618.308	4.06
618.642	4.1
618.977	4.08
619.311	4.04
619.646	4.08
619.98	4.11
620.314	4.15
620.648	4.13
620.983	4.22
621.317	4.27
621.651	4.28
621.985	4.27
622.319	4.29
622.653	4.33
622.987	4.35
623.321	4.31
623.655	4.31
623.988	4.35
624.322	4.38
624.656	4.38
624.99	4.43
625.323	4.43
625.657	4.46
625.99	4.48
626.324	4.46
626.657	4.45
626.991	4.43
627.324	4.41
627.658	4.45
627.991	4.39
628.324	4.36
628.657	4.34
628.991	4.36
629.324	4.37
629.657	4.33
629.99	4.32
630.323	4.29
630.656	4.32
630.989	4.33
631.322	4.36
631.655	4.31
631.987	4.31
632.32	4.35
632.653	4.32
632.986	4.3
633.318	4.32
633.651	4.3
633.984	4.32
634.316	4.29
634.649	4.28
634.981	4.22
635.313	4.22
635.646	4.23
635.978	4.23
636.31	4.23
636.643	4.21
636.975	4.24
637.307	4.24
637.639	4.19
637.971	4.14
638.303	4.1
638.635	4.11
638.967	4.08
639.299	4.08
639.631	4.08
639.963	4.07
640.295	4.09
640.626	4.08
640.958	4.1
641.29	4.14
641.621	4.1
641.953	4.14
642.285	4.18
642.616	4.24
642.948	4.16
643.279	4.1
643.61	4.16
643.942	4.08
644.273	4.17
644.604	4.17
644.936	4.2
645.267	4.19
645.598	4.23
645.929	4.3
646.26	4.33
646.591	4.32
646.922	4.33
647.253	4.34
647.584	4.34
647.915	4.32
648.245	4.34
648.576	4.42
648.907	4.46
649.238	4.41
649.568	4.38
649.899	4.43
650.229	4.48
650.56	4.56
650.89	4.61
651.221	4.6
651.551	4.65
651.882	4.65
652.212	4.68
652.542	4.68
652.872	4.65
653.203	4.58
653.533	4.67
653.863	4.67
654.193	4.67
654.523	4.67
654.853	4.75
655.183	4.69
655.513	4.64
655.843	4.63
656.172	4.67
656.502	4.71
656.832	4.72
657.162	4.73
657.491	4.66
657.821	4.67
658.15	4.67
658.48	4.64
658.809	4.64
659.139	4.64
659.468	4.6
659.798	4.57
660.127	4.61
660.456	4.59
660.785	4.65
661.115	4.6
661.444	4.59
661.773	4.54
662.102	4.58
662.431	4.62
662.76	4.63
663.089	4.65
663.418	4.61
663.747	4.61
664.076	4.58
664.404	4.59
664.733	4.63
665.062	4.61
665.39	4.63
665.719	4.59
666.048	4.66
666.376	4.69
666.705	4.65
667.033	4.66
667.362	4.66
667.69	4.58
668.018	4.61
668.347	4.64
668.675	4.63
669.003	4.6
669.331	4.61
669.659	4.59
669.987	4.56
670.315	4.52
670.643	4.47
670.971	4.52
671.299	4.58
671.627	4.48
671.955	4.49
672.283	4.54
672.61	4.55
672.938	4.5
673.266	4.55
673.593	4.69
673.921	4.62
674.249	4.54
674.576	4.48
674.904	4.53
675.231	4.55
675.558	4.6
675.886	4.64
676.213	4.6
676.54	4.61
676.867	4.62
677.195	4.65
677.522	4.69
677.849	4.65
678.176	4.6
678.503	4.6
678.83	4.57
679.157	4.51
679.484	4.51
679.81	4.47
680.137	4.41
680.464	4.38
680.791	4.47
681.117	4.48
681.444	4.51
681.771	4.5
682.097	4.46
682.424	4.45
682.75	4.44
683.077	4.4
683.403	4.41
683.729	4.43
684.056	4.41
684.382	4.45
684.708	4.44
685.034	4.44
685.36	4.5
685.686	4.47
686.012	4.45
686.339	4.56
686.664	4.57
686.99	4.65
687.316	4.68
687.642	4.66
687.968	4.66
688.294	4.75
688.619	4.78
688.945	4.89
689.271	4.8
689.596	4.79
689.922	4.84
690.247	4.83
690.573	4.83
690.898	4.81
691.224	4.8
691.549	4.81
691.874	4.87
692.2	4.85
692.525	5.02
692.85	5.16
693.175	5.1
693.5	5.05
693.825	4.95
694.15	4.87
694.475	4.8
694.8	4.89
695.125	4.89
695.45	4.83
695.775	4.82
696.099	4.88
696.424	4.91
696.749	4.82
697.073	4.84
697.398	4.86
697.723	4.94
698.047	4.96
698.372	4.96
698.696	4.86
699.02	4.81
699.345	4.73
699.669	4.73
699.993	4.64
700.318	4.71
700.642	4.75
700.966	4.78
701.29	4.77
701.614	4.84
701.938	4.85
702.262	4.98
702.586	5
702.91	4.97
703.234	4.93
703.557	5.11
703.881	5.07
704.205	5.15
704.529	5.16
704.852	5.18
705.176	5.22
705.499	5.4
705.823	5.46
706.146	5.49
706.47	5.45
706.793	5.62
707.117	5.68
707.44	5.72
707.763	5.69
708.086	5.66
708.409	5.51
708.733	5.48
709.056	5.42
709.379	5.48
709.702	5.4
710.025	5.48
710.348	5.45
710.671	5.41
710.993	5.34
711.316	5.31
711.639	5.3
711.962	5.37
712.284	5.35
712.607	5.32
712.93	5.36
713.252	5.4
713.575	5.41
713.897	5.39
714.22	5.34
714.542	5.54
714.864	5.62
715.187	5.68
715.509	5.73
715.831	5.74
716.153	5.69
716.475	5.96
716.798	6.03
717.12	5.92
717.442	5.89
717.764	5.79
718.085	5.65
718.407	5.58
718.729	5.53
719.051	5.4
719.373	5.41
719.695	5.41
720.016	5.4
720.338	5.29
720.659	5.18
720.981	5.3
721.302	5.09
721.624	5.1
721.945	5.29
722.267	5.22
722.588	5.06
722.909	4.99
723.231	4.71
723.552	4.5
723.873	4.78
724.194	4.9
724.515	5.03
724.836	5.1
725.157	5.11
725.478	5.09
725.799	5.06
726.12	5.21
726.441	5.28
726.762	5.31
727.083	5.3
727.403	5.43
727.724	5.45
728.045	5.49
728.365	5.35
728.686	5.03
729.006	5
729.327	5.05
729.647	5.22
729.967	5.26
730.288	5.4
730.608	5.2
730.928	5.24
731.249	5.23
731.569	5.24
731.889	5.22
732.209	5.27
732.529	5.32
732.849	5.2
733.169	5.05
733.489	4.95
733.809	4.98
734.129	4.94
734.448	4.91
734.768	4.92
735.088	5.01
735.408	5.07
735.727	5.19
736.047	5.34
736.366	5.07
736.686	5.01
737.005	4.98
737.325	5
737.644	4.89
737.963	4.92
738.283	4.9
738.602	5.19
738.921	5.13
739.24	5.34
739.56	5.27
739.879	5.31
740.198	5.22
740.517	5.21
740.836	5.21
741.155	5.13
741.473	5.25
741.792	5.26
742.111	5.29
742.43	5.04
742.748	5.06
743.067	5.39
743.386	5.66
743.704	5.64
744.023	5.73
744.341	5.71
744.66	6.01
744.978	6.07
745.297	6.03
745.615	5.98
745.933	5.77
746.252	5.96
746.57	5.95
746.888	5.96
747.206	5.72
747.524	5.82
747.842	6.18
748.16	5.91
748.478	6.17
748.796	6.39
749.114	6.71
749.432	6.58
749.749	6.68
750.067	6.3
750.385	6.13
750.703	6.18
751.02	6.21
751.338	6.06
751.655	6.27
751.973	6.18
752.29	6.2
752.608	6.22
752.925	6.27
753.242	6.4
753.56	6.36
753.877	6.37
754.194	6.32
754.511	5.97
754.828	5.99
755.145	5.53
755.462	5.05
755.779	5.06
756.096	5.12
756.413	4.89
756.73	4.99
757.047	5.43
757.364	5.33
757.68	5.46
757.997	5.26
758.314	4.95
758.63	4.8
758.947	4.81
759.264	4.86
759.58	4.61
759.896	4.78
760.213	5.1
760.529	5.5
760.846	5.6
761.162	5.62
761.478	5.86
761.794	6.02
762.11	6.36
762.426	6.24
762.743	6.45
763.059	6.5
763.375	6.6
763.69	6.39
764.006	6.5
764.322	6.66
764.638	6.63
764.954	6.96
765.27	7
765.585	7.17
765.901	7.36
766.216	7.47
766.532	7.28
766.848	7.21
767.163	7.25
767.478	7.14
767.794	7.23
768.109	7.16
768.424	7.17
768.74	7.21
769.055	7.29
769.37	7.13
769.685	6.9
770	7.19
770.315	7.18
770.63	6.88
770.945	6.53
771.26	6.8
771.575	6.31
771.89	6.32
772.205	6.36
772.52	5.83
772.834	5.75
773.149	5.91
773.464	5.95
773.778	5.98
774.093	6.08
774.407	5.97
774.722	5.87
775.036	5.77
775.351	5.76
775.665	5.48
775.979	5.33
776.293	5.52
776.608	5.15
776.922	5.2
777.236	5.39
777.55	5.52
777.864	5.34
778.178	6.07
778.492	6.37
778.806	6
779.12	6.35
779.434	6.68
779.747	6.55
780.061	6.63
780.375	6.4
780.689	6.17
781.002	6.28
781.316	6.52
781.629	7.09
781.943	6.66
782.256	7.16
782.57	7.2
782.883	7.29
783.196	7.04
783.51	6.95
783.823	6.74
784.136	7.06
784.449	7.09
784.762	6.76
785.075	6.45
785.388	6.58
785.701	6.61
786.014	6.35
786.327	6.2
786.64	6.62
786.953	6.71
787.266	6.92
787.578	6.74
787.891	6.55
788.204	5.95
788.516	6.07
788.829	5.94
789.141	6.12
789.454	6.32
789.766	7.1
790.079	7.24
790.391	7.22
790.703	7.37
791.016	7.28
791.328	7.32
791.64	7.16
791.952	7.37
792.264	6.83
792.576	6.67
792.888	6.68
793.2	6.58
793.512	6.46
793.824	6.27
794.136	6.51
794.448	6.35
794.76	6.46
795.071	6.43
795.383	6.21
795.695	6.01
796.006	5.74
796.318	5.33
796.629	5.8
796.941	5.92
797.252	5.43
797.564	5.89
797.875	5.57
798.186	5.59
798.497	5.74
798.809	5.9
799.12	6.06
799.431	6.32
799.742	5.69
800.053	6.05
800.364	6.19
800.675	6.02
800.986	6.06
801.297	5.81
801.608	5.83
801.918	5.68
802.229	5.74
802.54	5.37
802.851	5.17
803.161	4.62
803.472	4.77
803.782	4.94
804.093	4.88
804.403	4.75
804.714	5.04
805.024	4.63
805.334	5.25
805.645	5.67
805.955	5.71
806.265	6.04
806.575	5.4
806.885	5.74
807.195	5.88
807.505	6.18
807.815	6.55
808.125	6.72
808.435	7.12
808.745	6.97
809.055	7.86
809.365	7.91
809.674	7.99
809.984	7.97
810.294	7.84
810.603	7.99
810.913	8.55
811.222	8.84
811.532	9.13
811.841	9.74
812.151	9.84
812.46	9.98
812.769	9.76
813.079	9.87
813.388	9.6
813.697	9.99
814.006	9.6
814.315	9.58
814.624	9.61
814.933	9.57
815.242	10.15
815.551	10.04
815.86	9.98
816.169	10.06
816.478	10.08
816.786	10.17
817.095	9.64
817.404	9.74
817.712	9.47
818.021	9.27
818.33	8.34
818.638	8.62
818.947	8.48
819.255	9.01
819.563	9.22
819.872	9.23
820.18	9.2
820.488	9.27
820.796	9.54
821.105	9.73
821.413	9.67
821.721	9.39
822.029	9.41
822.337	9.49
822.645	9.52
822.953	9.43
823.26	9.41
823.568	9.56
823.876	9.45
824.184	9.35
824.491	9.32
824.799	9.36
825.107	9.22
825.414	9.23
825.722	9.28
826.029	9.32
826.337	9.4
826.644	9.37
826.951	9.27
827.259	9.16
827.566	8.95
827.873	9.1
828.18	9.16
828.488	8.95
828.795	8.85
829.102	8.73
829.409	8.93
829.716	8.96
830.023	8.68
830.329	8.56
830.636	8.49
830.943	8.72
831.25	8.83
831.557	8.65
831.863	8.8
832.17	8.15
832.476	8.2
832.783	8.15
833.089	7.82
833.396	8.27
833.702	8.44
834.009	8.47
834.315	8.38
834.621	8.32
834.928	8.23
835.234	8.27
835.54	8.49
835.846	8.49
836.152	8.4
836.458	8.31
836.764	8.64
837.07	8.44
837.376	7.76
837.682	7.38
837.988	7.28
838.293	6.62
838.599	6.61
838.905	5.94
839.211	5.07
839.516	5.19
839.822	5.21
840.127	4.42
840.433	3.94
840.738	3.11
841.044	3.31
841.349	3.39
841.654	2.91
841.959	2.96
842.265	3.3
842.57	3.64
842.875	3.41
843.18	3.16
843.485	5.09
843.79	4.93
844.095	4.63
844.4	5.65
844.705	6.44
845.01	6.8
845.315	6.44
845.619	6.71
845.924	5.76
846.229	4.53
846.533	4.7
846.838	5.21
847.142	4.69
847.447	3.23
847.751	3.92
848.056	2.46
848.36	1.1
848.664	-0.6
848.969	-0.61
849.273	-1.56
849.577	-2.23
849.881	-5.66
850.185	-3.7
850.489	-2.8
850.794	-5.94
851.097	-4.43
851.401	-5.68
851.705	-3.39
852.009	-2.14
852.313	-1.47
852.617	-0.47
852.92	1.06
853.224	0.58
853.528	1.86
853.831	3.03
854.135	2.49
854.438	3.75
854.742	2.62
855.045	3.19
855.349	1.99
855.652	3.26
855.955	2.8
856.259	4.54
856.562	4.63
856.865	5.99
857.168	8.25
857.471	6.34
857.774	9.01
858.077	9.64
858.38	10.86
858.683	10.88
858.986	10.16
859.289	8.23
859.592	7.53
859.894	6.33
860.197	4.71
860.5	4.71
860.802	4.98
861.105	7.34
861.407	6.95
861.71	6.86
862.012	7.01
862.315	5.85
862.617	6
862.919	3.5
863.222	2.01
863.524	1.46
863.826	0.78
864.128	0.44
864.43	-1.9
864.732	-3.5
865.034	-3.13
865.336	-3.9
865.638	-4.36
865.94	-3.22
866.242	-1.82
866.544	0.23
866.846	1.04
867.147	3.62
867.449	4.76
867.751	5.21
868.052	4.35
868.354	4.97
868.655	6.59
868.957	5.93
869.258	6.75
869.56	7.96
869.861	7.51
870.162	6.71
870.463	5.11
870.765	4.79
871.066	5.24
871.367	5.87
871.668	4.96
871.969	3.91
872.27	3.47
872.571	1.62
872.872	1.23
873.173	-0.31
873.473	-0.59
873.774	-2.85
874.075	-2.71
874.376	-3.14
874.676	-2.39
874.977	-3.58
875.277	-3.76
875.578	-2.4
875.878	-4.29
876.179	-3.67
876.479	-2.29
876.78	-2.71
877.08	-1.76
877.38	-1.98
877.68	-3.21
877.981	-1.13
878.281	1.31
878.581	2.2
