Data from BA28470_Reflection_00008.txt Node
Date: Mon Nov 18 15:10:07 EST 2019
User: vgr7
Spectrometer: USB2G7710
Scans to average: 3
Trigger mode: 4
Integration Time (sec): 2.000000E-2
Electric dark correction enabled: true
Boxcar width: 10
XAxis mode: Wavelengths
Number of Pixels in Spectrum: 2048
>>>>>Begin Spectral Data<<<<<
177.721	238.02
178.105	186.61
178.488	200.44
178.871	125.74
179.254	-125.09
179.636	-63.72
180.019	222.49
180.402	39.39
180.785	2505.41
181.168	143.05
181.55	96.74
181.933	78.34
182.316	156.22
182.698	101.24
183.081	63.69
183.463	11.46
183.846	5.97
184.228	-23.8
184.611	24.29
184.993	28.89
185.376	54.94
185.758	134.2
186.14	197.24
186.522	234.96
186.904	195.83
187.287	411.08
187.669	312.26
188.051	177.52
188.433	235.7
188.815	365.55
189.197	239.02
189.579	345.86
189.961	481.37
190.342	3741.51
190.724	-714.67
191.106	1973.24
191.488	1617.48
191.869	-493
192.251	-177.16
192.633	-96.17
193.014	-136.92
193.396	-461.97
193.777	-250.68
194.159	-261.85
194.54	-213.15
194.922	-210.4
195.303	-189.99
195.684	-102.94
196.065	-58.23
196.447	-62.23
196.828	-108.58
197.209	-100.3
197.59	-71.12
197.971	-62.17
198.352	-54.45
198.733	-75.97
199.114	-60.71
199.495	-49.26
199.876	-59.44
200.257	-62.75
200.638	-45.48
201.018	-59.32
201.399	-64.19
201.78	-62.59
202.16	-80.34
202.541	-94.33
202.922	-80.28
203.302	-75.43
203.683	-108.79
204.063	-252.41
204.444	-170.45
204.824	-146.64
205.204	-204.72
205.585	-286.94
205.965	-752.31
206.345	-916.09
206.725	1347.27
207.106	-3144.6
207.486	623.14
207.866	1780.2
208.246	2816.81
208.626	1089.72
209.006	-2340
209.386	-1306.15
209.766	-641.75
210.145	-540.48
210.525	-439.55
210.905	-483.21
211.285	-497.42
211.664	-244.13
212.044	-221.34
212.424	-214.36
212.803	-229.61
213.183	-208.02
213.562	-144.13
213.942	-132.49
214.321	-83.93
214.701	-67.72
215.08	-65.64
215.459	-44.22
215.838	-56.37
216.218	-62.09
216.597	-29.89
216.976	-14.33
217.355	-5.06
217.734	1.62
218.113	-6.94
218.492	5.43
218.871	-16.06
219.25	-14.59
219.629	-16.78
220.008	-9.6
220.387	-4.86
220.766	-7.81
221.144	-15.05
221.523	-28.46
221.902	-26.3
222.28	-45.69
222.659	-38.19
223.037	-36.87
223.416	-42.32
223.794	-33.96
224.173	-29.55
224.551	-24.68
224.929	-24.37
225.308	-21.47
225.686	-15.71
226.064	-12.68
226.442	-19.76
226.821	-13.81
227.199	-11.54
227.577	-12.22
227.955	-15.23
228.333	-10.4
228.711	-7.28
229.089	-1.15
229.467	1.05
229.845	-1.19
230.222	0.7
230.6	-2.82
230.978	-2.9
231.356	1.23
231.733	3.04
232.111	5.01
232.488	4.73
232.866	4.11
233.243	3.88
233.621	3.45
233.998	5.1
234.376	5.83
234.753	7.35
235.13	7.78
235.508	8.45
235.885	8.22
236.262	6.25
236.639	5.18
237.016	3.02
237.393	3.33
237.77	4.01
238.147	4.2
238.524	4.86
238.901	5.65
239.278	4.79
239.655	4.69
240.032	4.22
240.409	4.11
240.785	3.74
241.162	3.69
241.539	3.81
241.915	3.82
242.292	3.74
242.668	3.89
243.045	4.01
243.421	4.24
243.798	4.4
244.174	4.54
244.551	4.76
244.927	4.92
245.303	5.28
245.679	5.2
246.056	5.16
246.432	4.86
246.808	4.84
247.184	4.58
247.56	4.06
247.936	4.03
248.312	3.93
248.688	4.19
249.064	4.22
249.44	4.19
249.815	4.29
250.191	4.1
250.567	4.01
250.943	3.78
251.318	3.73
251.694	3.91
252.069	3.88
252.445	3.72
252.82	3.84
253.196	3.52
253.571	3.4
253.947	3.3
254.322	3.87
254.697	3.7
255.073	3.89
255.448	3.91
255.823	3.96
256.198	4.11
256.573	3.87
256.948	4.1
257.323	4.16
257.698	4.07
258.073	4.18
258.448	4.01
258.823	4.06
259.198	3.95
259.573	3.84
259.948	3.77
260.322	3.8
260.697	3.67
261.072	3.57
261.446	3.71
261.821	3.74
262.195	3.76
262.57	3.64
262.944	3.59
263.319	3.71
263.693	3.6
264.067	3.57
264.442	3.55
264.816	3.39
265.19	3.2
265.564	3.1
265.938	3.05
266.313	3.25
266.687	3.4
267.061	3.4
267.435	3.35
267.809	3.4
268.183	3.49
268.556	3.24
268.93	3.3
269.304	3.43
269.678	3.3
270.051	3.16
270.425	3.34
270.799	3.36
271.172	3.34
271.546	3.39
271.919	3.3
272.293	3.32
272.666	3.35
273.04	3.32
273.413	3.35
273.787	3.44
274.16	3.38
274.533	3.32
274.906	3.32
275.279	3.31
275.653	3.21
276.026	3.02
276.399	3.24
276.772	3.26
277.145	3.08
277.518	3.18
277.891	3.09
278.263	2.94
278.636	2.89
279.009	2.87
279.382	3
279.755	3.18
280.127	3.31
280.5	3.36
280.872	3.46
281.245	3.49
281.617	3.63
281.99	3.5
282.362	3.45
282.735	3.37
283.107	3.37
283.479	3.49
283.852	3.56
284.224	3.6
284.596	3.63
284.968	3.7
285.34	3.6
285.713	3.79
286.085	3.88
286.457	4.02
286.829	4.09
287.201	4
287.572	3.97
287.944	3.94
288.316	3.94
288.688	3.93
289.06	3.95
289.431	3.84
289.803	4.05
290.175	4.01
290.546	4.14
290.918	4.14
291.289	4.15
291.661	4.17
292.032	4.13
292.403	4.07
292.775	4.05
293.146	4.17
293.517	4.12
293.889	4.18
294.26	4.09
294.631	4.03
295.002	4
295.373	3.96
295.744	3.87
296.115	3.88
296.486	3.83
296.857	3.79
297.228	3.88
297.599	3.84
297.97	3.92
298.34	3.96
298.711	4.01
299.082	4.01
299.452	4.11
299.823	4.15
300.194	4.18
300.564	4.19
300.935	4.2
301.305	4.16
301.676	4.14
302.046	4.13
302.416	4.29
302.787	4.45
303.157	4.55
303.527	4.7
303.897	4.8
304.267	5.1
304.637	5.23
305.008	5.34
305.378	5.38
305.748	5.45
306.117	5.44
306.487	5.53
306.857	5.56
307.227	5.59
307.597	5.65
307.967	5.67
308.336	5.75
308.706	5.79
309.076	5.8
309.445	5.82
309.815	5.79
310.184	5.72
310.554	5.65
310.923	5.62
311.293	5.55
311.662	5.44
312.031	5.26
312.401	5.12
312.77	5.01
313.139	5.18
313.508	5.25
313.877	5.3
314.246	5.26
314.616	5.29
314.985	5.3
315.353	5.4
315.722	5.51
316.091	5.41
316.46	5.41
316.829	5.47
317.198	5.58
317.567	5.71
317.935	5.78
318.304	5.72
318.672	5.67
319.041	5.81
319.41	5.96
319.778	6.08
320.147	6.33
320.515	6.41
320.883	6.23
321.252	6.25
321.62	6.27
321.988	6.32
322.357	6.36
322.725	6.31
323.093	6.45
323.461	6.49
323.829	6.72
324.197	6.83
324.565	6.94
324.933	6.97
325.301	6.99
325.669	7.07
326.037	7.15
326.405	7.31
326.772	7.46
327.14	7.43
327.508	7.56
327.875	7.4
328.243	7.41
328.61	7.48
328.978	7.53
329.346	7.62
329.713	7.53
330.08	7.64
330.448	7.61
330.815	7.4
331.182	7.42
331.55	7.41
331.917	7.34
332.284	7.4
332.651	7.43
333.018	7.59
333.385	7.52
333.752	7.67
334.119	7.68
334.486	7.64
334.853	7.7
335.22	7.66
335.587	7.81
335.954	7.85
336.32	7.79
336.687	7.76
337.054	7.82
337.42	7.95
337.787	7.86
338.153	7.98
338.52	8.16
338.886	8.16
339.253	8.1
339.619	8.18
339.986	8.2
340.352	8.28
340.718	8.13
341.084	8.16
341.451	8.17
341.817	8.25
342.183	8.19
342.549	8.28
342.915	8.29
343.281	8.4
343.647	8.43
344.013	8.43
344.379	8.36
344.745	8.28
345.11	8.39
345.476	8.5
345.842	8.5
346.208	8.5
346.573	8.49
346.939	8.64
347.304	8.58
347.67	8.49
348.035	8.36
348.401	8.44
348.766	8.49
349.132	8.54
349.497	8.5
349.862	8.55
350.228	8.47
350.593	8.42
350.958	8.29
351.323	8.21
351.688	8.31
352.053	8.4
352.418	8.41
352.783	8.3
353.148	8.22
353.513	8.13
353.878	8.08
354.243	8.14
354.608	8.07
354.972	8.09
355.337	8.13
355.702	8.19
356.066	8.23
356.431	8.2
356.795	8.09
357.16	8.01
357.524	7.97
357.889	7.95
358.253	8.01
358.618	8.05
358.982	8.05
359.346	7.93
359.71	7.9
360.075	7.93
360.439	7.92
360.803	7.88
361.167	7.88
361.531	7.91
361.895	7.84
362.259	7.81
362.623	7.77
362.987	7.76
363.351	7.7
363.714	7.69
364.078	7.64
364.442	7.64
364.806	7.62
365.169	7.63
365.533	7.67
365.896	7.57
366.26	7.53
366.623	7.5
366.987	7.58
367.35	7.54
367.714	7.48
368.077	7.4
368.44	7.37
368.803	7.32
369.167	7.2
369.53	7.16
369.893	7.18
370.256	7.19
370.619	7.1
370.982	7.02
371.345	6.97
371.708	6.97
372.071	6.91
372.434	6.89
372.797	6.8
373.159	6.69
373.522	6.67
373.885	6.63
374.247	6.57
374.61	6.46
374.973	6.42
375.335	6.37
375.698	6.36
376.06	6.33
376.423	6.32
376.785	6.33
377.147	6.36
377.51	6.28
377.872	6.23
378.234	6.2
378.596	6.18
378.958	6.18
379.321	6.13
379.683	6.11
380.045	6.09
380.407	6.05
380.769	6.03
381.13	5.95
381.492	5.91
381.854	5.95
382.216	5.91
382.578	5.95
382.939	5.88
383.301	5.87
383.663	5.82
384.024	5.8
384.386	5.73
384.747	5.65
385.109	5.56
385.47	5.52
385.832	5.51
386.193	5.54
386.554	5.48
386.916	5.46
387.277	5.43
387.638	5.41
387.999	5.32
388.36	5.27
388.721	5.24
389.082	5.17
389.443	5.09
389.804	5.06
390.165	4.98
390.526	5.01
390.887	4.95
391.248	4.93
391.609	4.9
391.969	4.88
392.33	4.85
392.691	4.84
393.051	4.82
393.412	4.8
393.772	4.72
394.133	4.67
394.493	4.62
394.854	4.57
395.214	4.51
395.574	4.54
395.935	4.5
396.295	4.51
396.655	4.5
397.015	4.51
397.376	4.48
397.736	4.44
398.096	4.4
398.456	4.38
398.816	4.35
399.176	4.31
399.535	4.3
399.895	4.28
400.255	4.26
400.615	4.21
400.975	4.2
401.334	4.19
401.694	4.16
402.054	4.14
402.413	4.14
402.773	4.11
403.132	4.1
403.492	4.1
403.851	4.07
404.211	4.06
404.57	4.03
404.929	4.03
405.288	4.02
405.648	3.98
406.007	3.97
406.366	3.94
406.725	3.94
407.084	3.95
407.443	3.94
407.802	3.95
408.161	3.92
408.52	3.86
408.879	3.83
409.238	3.83
409.596	3.84
409.955	3.84
410.314	3.84
410.673	3.84
411.031	3.81
411.39	3.79
411.748	3.77
412.107	3.78
412.465	3.76
412.824	3.73
413.182	3.72
413.54	3.73
413.899	3.75
414.257	3.72
414.615	3.69
414.974	3.7
415.332	3.67
415.69	3.69
416.048	3.68
416.406	3.68
416.764	3.67
417.122	3.67
417.48	3.64
417.838	3.64
418.195	3.63
418.553	3.61
418.911	3.59
419.269	3.6
419.626	3.57
419.984	3.55
420.342	3.56
420.699	3.55
421.057	3.52
421.414	3.5
421.772	3.5
422.129	3.48
422.486	3.46
422.844	3.46
423.201	3.44
423.558	3.43
423.915	3.42
424.273	3.42
424.63	3.4
424.987	3.4
425.344	3.39
425.701	3.38
426.058	3.38
426.415	3.39
426.772	3.37
427.128	3.36
427.485	3.36
427.842	3.35
428.199	3.35
428.555	3.37
428.912	3.37
429.269	3.36
429.625	3.34
429.982	3.34
430.338	3.32
430.695	3.34
431.051	3.34
431.407	3.33
431.764	3.32
432.12	3.29
432.476	3.27
432.832	3.27
433.189	3.25
433.545	3.26
433.901	3.24
434.257	3.24
434.613	3.25
434.969	3.26
435.325	3.24
435.681	3.24
436.036	3.22
436.392	3.22
436.748	3.2
437.104	3.2
437.459	3.2
437.815	3.21
438.171	3.21
438.526	3.22
438.882	3.23
439.237	3.23
439.593	3.25
439.948	3.24
440.304	3.24
440.659	3.26
441.014	3.24
441.369	3.24
441.725	3.22
442.08	3.21
442.435	3.21
442.79	3.21
443.145	3.2
443.5	3.2
443.855	3.2
444.21	3.19
444.565	3.21
444.92	3.21
445.275	3.19
445.629	3.18
445.984	3.19
446.339	3.18
446.693	3.18
447.048	3.15
447.403	3.16
447.757	3.14
448.112	3.11
448.466	3.12
448.82	3.12
449.175	3.12
449.529	3.13
449.883	3.11
450.238	3.12
450.592	3.13
450.946	3.13
451.3	3.12
451.654	3.14
452.008	3.12
452.362	3.11
452.716	3.12
453.07	3.12
453.424	3.12
453.778	3.13
454.132	3.1
454.486	3.11
454.839	3.11
455.193	3.1
455.547	3.11
455.9	3.12
456.254	3.11
456.607	3.12
456.961	3.11
457.314	3.12
457.668	3.12
458.021	3.1
458.375	3.09
458.728	3.1
459.081	3.11
459.434	3.11
459.787	3.12
460.141	3.11
460.494	3.11
460.847	3.11
461.2	3.1
461.553	3.12
461.906	3.12
462.259	3.13
462.611	3.15
462.964	3.16
463.317	3.16
463.67	3.16
464.022	3.18
464.375	3.18
464.728	3.19
465.08	3.19
465.433	3.21
465.785	3.22
466.138	3.22
466.49	3.24
466.843	3.23
467.195	3.22
467.547	3.21
467.899	3.21
468.252	3.21
468.604	3.22
468.956	3.21
469.308	3.23
469.66	3.22
470.012	3.23
470.364	3.25
470.716	3.27
471.068	3.29
471.42	3.29
471.772	3.32
472.123	3.31
472.475	3.34
472.827	3.34
473.178	3.36
473.53	3.36
473.882	3.33
474.233	3.36
474.585	3.35
474.936	3.38
475.288	3.4
475.639	3.42
475.99	3.41
476.342	3.42
476.693	3.41
477.044	3.41
477.395	3.38
477.746	3.36
478.097	3.34
478.448	3.34
478.8	3.32
479.15	3.29
479.501	3.28
479.852	3.27
480.203	3.26
480.554	3.26
480.905	3.26
481.255	3.27
481.606	3.27
481.957	3.28
482.307	3.28
482.658	3.27
483.009	3.26
483.359	3.25
483.709	3.26
484.06	3.26
484.41	3.26
484.761	3.27
485.111	3.27
485.461	3.28
485.811	3.28
486.162	3.28
486.512	3.3
486.862	3.31
487.212	3.32
487.562	3.32
487.912	3.32
488.262	3.32
488.612	3.31
488.961	3.31
489.311	3.32
489.661	3.32
490.011	3.32
490.36	3.33
490.71	3.34
491.06	3.34
491.409	3.36
491.759	3.37
492.108	3.37
492.458	3.37
492.807	3.37
493.157	3.38
493.506	3.4
493.855	3.4
494.204	3.38
494.554	3.38
494.903	3.39
495.252	3.41
495.601	3.43
495.95	3.45
496.299	3.47
496.648	3.48
496.997	3.49
497.346	3.51
497.695	3.56
498.043	3.57
498.392	3.59
498.741	3.6
499.09	3.61
499.438	3.63
499.787	3.66
500.135	3.69
500.484	3.73
500.832	3.76
501.181	3.8
501.529	3.85
501.878	3.87
502.226	3.89
502.574	3.94
502.923	3.97
503.271	4
503.619	4.03
503.967	4.06
504.315	4.1
504.663	4.15
505.011	4.18
505.359	4.21
505.707	4.28
506.055	4.31
506.403	4.37
506.751	4.41
507.098	4.43
507.446	4.47
507.794	4.5
508.141	4.54
508.489	4.57
508.837	4.62
509.184	4.68
509.531	4.75
509.879	4.81
510.226	4.86
510.574	4.91
510.921	4.98
511.268	5.03
511.616	5.09
511.963	5.13
512.31	5.17
512.657	5.23
513.004	5.27
513.351	5.34
513.698	5.41
514.045	5.49
514.392	5.58
514.739	5.64
515.086	5.72
515.432	5.76
515.779	5.85
516.126	5.91
516.473	5.96
516.819	6.03
517.166	6.07
517.512	6.13
517.859	6.19
518.205	6.22
518.552	6.3
518.898	6.37
519.245	6.42
519.591	6.5
519.937	6.57
520.283	6.65
520.629	6.75
520.976	6.81
521.322	6.89
521.668	6.97
522.014	7.06
522.36	7.18
522.706	7.29
523.052	7.39
523.398	7.51
523.743	7.65
524.089	7.76
524.435	7.91
524.781	8.03
525.126	8.14
525.472	8.24
525.817	8.32
526.163	8.42
526.509	8.52
526.854	8.6
527.199	8.68
527.545	8.75
527.89	8.84
528.235	8.92
528.581	9.02
528.926	9.1
529.271	9.19
529.616	9.27
529.961	9.37
530.306	9.47
530.651	9.56
530.996	9.67
531.341	9.79
531.686	9.9
532.031	10.03
532.376	10.16
532.721	10.3
533.065	10.43
533.41	10.57
533.755	10.71
534.099	10.87
534.444	11.02
534.788	11.17
535.133	11.31
535.477	11.47
535.822	11.64
536.166	11.85
536.51	12.05
536.855	12.28
537.199	12.5
537.543	12.73
537.887	12.98
538.231	13.22
538.576	13.46
538.92	13.69
539.264	13.92
539.608	14.13
539.951	14.35
540.295	14.6
540.639	14.81
540.983	15
541.327	15.2
541.671	15.41
542.014	15.62
542.358	15.84
542.701	16.04
543.045	16.23
543.389	16.44
543.732	16.66
544.075	16.87
544.419	17.09
544.762	17.32
545.105	17.58
545.449	17.85
545.792	18.14
546.135	18.44
546.478	18.78
546.821	19.12
547.165	19.44
547.508	19.75
547.851	20.08
548.194	20.45
548.536	20.81
548.879	21.2
549.222	21.58
549.565	21.94
549.908	22.34
550.25	22.73
550.593	23.11
550.936	23.47
551.278	23.87
551.621	24.29
551.963	24.73
552.306	25.1
552.648	25.45
552.991	25.82
553.333	26.21
553.675	26.51
554.017	26.9
554.36	27.26
554.702	27.64
555.044	28
555.386	28.36
555.728	28.73
556.07	29.13
556.412	29.53
556.754	29.92
557.096	30.26
557.438	30.66
557.78	31.03
558.121	31.5
558.463	31.93
558.805	32.35
559.147	32.72
559.488	33.16
559.83	33.55
560.171	33.95
560.513	34.33
560.854	34.79
561.196	35.15
561.537	35.58
561.878	36.01
562.22	36.41
562.561	36.76
562.902	37.12
563.243	37.49
563.584	37.85
563.925	38.26
564.266	38.65
564.607	39.02
564.948	39.39
565.289	39.7
565.63	39.95
565.971	40.26
566.312	40.59
566.653	40.91
566.993	41.24
567.334	41.56
567.675	41.85
568.015	42.17
568.356	42.5
568.696	42.83
569.037	43.11
569.377	43.41
569.718	43.7
570.058	44.05
570.398	44.32
570.739	44.63
571.079	44.94
571.419	45.29
571.759	45.56
572.099	45.84
572.439	46.18
572.779	46.48
573.119	46.72
573.459	47.02
573.799	47.27
574.139	47.55
574.479	47.83
574.819	48.07
575.158	48.24
575.498	48.52
575.838	48.7
576.177	48.97
576.517	49.25
576.856	49.59
577.196	49.85
577.535	50.14
577.875	50.45
578.214	50.67
578.553	50.94
578.893	51.21
579.232	51.54
579.571	51.68
579.91	51.98
580.25	52.37
580.589	52.59
580.928	52.87
581.267	53.15
581.606	53.33
581.945	53.58
582.283	53.86
582.622	54.15
582.961	54.45
583.3	54.67
583.639	54.89
583.977	55.05
584.316	55.23
584.654	55.45
584.993	55.61
585.332	55.8
585.67	55.99
586.008	56.15
586.347	56.26
586.685	56.52
587.024	56.62
587.362	56.71
587.7	56.78
588.038	57
588.376	57.04
588.715	57.24
589.053	57.39
589.391	57.55
589.729	57.68
590.067	57.78
590.404	58
590.742	58.11
591.08	58.28
591.418	58.53
591.756	58.61
592.093	58.73
592.431	58.93
592.769	59.05
593.106	59.25
593.444	59.42
593.781	59.53
594.119	59.77
594.456	59.89
594.793	60.13
595.131	60.14
595.468	60.27
595.805	60.34
596.143	60.53
596.48	60.65
596.817	60.68
597.154	60.81
597.491	60.78
597.828	60.96
598.165	61.04
598.502	61.07
598.839	61.18
599.176	61.3
599.512	61.43
599.849	61.6
600.186	61.69
600.523	61.77
600.859	61.86
601.196	61.94
601.532	62.07
601.869	62.08
602.205	62.2
602.542	62.4
602.878	62.49
603.215	62.52
603.551	62.56
603.887	62.65
604.223	62.67
604.56	62.85
604.896	62.86
605.232	62.97
605.568	63.1
605.904	63.25
606.24	63.35
606.576	63.4
606.912	63.51
607.248	63.57
607.583	63.66
607.919	63.79
608.255	63.79
608.591	63.89
608.926	64.02
609.262	64.13
609.597	64.16
609.933	64.3
610.268	64.44
610.604	64.56
610.939	64.66
611.275	64.83
611.61	64.84
611.945	64.96
612.281	65.06
612.616	65.14
612.951	65.26
613.286	65.37
613.621	65.33
613.956	65.32
614.291	65.37
614.626	65.49
614.961	65.47
615.296	65.58
615.631	65.65
615.966	65.69
616.3	65.74
616.635	65.83
616.97	65.84
617.304	65.85
617.639	66.03
617.973	66.14
618.308	66.23
618.642	66.28
618.977	66.33
619.311	66.36
619.646	66.38
619.98	66.3
620.314	66.34
620.648	66.45
620.983	66.48
621.317	66.58
621.651	66.5
621.985	66.66
622.319	66.69
622.653	66.76
622.987	66.81
623.321	66.87
623.655	66.8
623.988	66.84
624.322	66.9
624.656	66.88
624.99	66.85
625.323	66.88
625.657	67
625.99	66.99
626.324	67.06
626.657	67.12
626.991	67.11
627.324	67.1
627.658	67.16
627.991	67.21
628.324	67.24
628.657	67.42
628.991	67.52
629.324	67.63
629.657	67.63
629.99	67.67
630.323	67.58
630.656	67.76
630.989	67.91
631.322	67.98
631.655	68.04
631.987	68.16
632.32	68.21
632.653	68.14
632.986	68.25
633.318	68.3
633.651	68.28
633.984	68.45
634.316	68.5
634.649	68.57
634.981	68.59
635.313	68.7
635.646	68.69
635.978	68.66
636.31	68.66
636.643	68.65
636.975	68.72
637.307	68.81
637.639	68.79
637.971	68.72
638.303	68.64
638.635	68.51
638.967	68.47
639.299	68.32
639.631	68.42
639.963	68.37
640.295	68.31
640.626	68.38
640.958	68.43
641.29	68.4
641.621	68.41
641.953	68.52
642.285	68.68
642.616	68.68
642.948	68.67
643.279	68.68
643.61	68.73
643.942	68.74
644.273	68.86
644.604	68.82
644.936	68.92
645.267	68.99
645.598	69.11
645.929	69.22
646.26	69.42
646.591	69.42
646.922	69.43
647.253	69.44
647.584	69.45
647.915	69.54
648.245	69.61
648.576	69.61
648.907	69.57
649.238	69.44
649.568	69.46
649.899	69.46
650.229	69.5
650.56	69.63
650.89	69.61
651.221	69.54
651.551	69.54
651.882	69.52
652.212	69.55
652.542	69.53
652.872	69.62
653.203	69.62
653.533	69.68
653.863	69.72
654.193	69.9
654.523	69.87
654.853	69.91
655.183	70.01
655.513	70.09
655.843	70.23
656.172	70.01
656.502	69.98
656.832	70.14
657.162	70.35
657.491	70.19
657.821	70.24
658.15	70.35
658.48	70.47
658.809	70.49
659.139	70.5
659.468	70.49
659.798	70.43
660.127	70.55
660.456	70.53
660.785	70.58
661.115	70.41
661.444	70.36
661.773	70.24
662.102	70.17
662.431	70.12
662.76	70
663.089	70.22
663.418	70.23
663.747	70.05
664.076	69.94
664.404	70.13
664.733	70.24
665.062	70.31
665.39	70.29
665.719	70.32
666.048	70.49
666.376	70.52
666.705	70.45
667.033	70.4
667.362	70.51
667.69	70.55
668.018	70.71
668.347	70.98
668.675	71.02
669.003	71.02
669.331	71.08
669.659	71.16
669.987	71.08
670.315	71.19
670.643	71.33
670.971	71.3
671.299	71.45
671.627	71.33
671.955	71.27
672.283	71.24
672.61	71.24
672.938	71.1
673.266	71.17
673.593	71.23
673.921	71.04
674.249	70.98
674.576	71.06
674.904	71.18
675.231	70.96
675.558	71.05
675.886	70.99
676.213	70.99
676.54	70.91
676.867	70.94
677.195	70.9
677.522	71.1
677.849	71.12
678.176	70.92
678.503	71.14
678.83	71.19
679.157	71.3
679.484	71.26
679.81	71.21
680.137	71.26
680.464	71.26
680.791	71.46
681.117	71.52
681.444	71.42
681.771	71.22
682.097	71.38
682.424	71.31
682.75	71.31
683.077	71.38
683.403	71.48
683.729	71.56
684.056	71.72
684.382	71.6
684.708	71.59
685.034	71.63
685.36	71.49
685.686	71.36
686.012	71.36
686.339	71.44
686.664	71.41
686.99	71.46
687.316	71.41
687.642	71.41
687.968	71.31
688.294	71.44
688.619	71.57
688.945	71.57
689.271	71.71
689.596	71.79
689.922	71.81
690.247	71.74
690.573	71.87
690.898	71.72
691.224	71.79
691.549	71.85
691.874	72.04
692.2	72
692.525	72.01
692.85	71.95
693.175	71.69
693.5	71.68
693.825	71.63
694.15	71.88
694.475	71.72
694.8	71.82
695.125	71.79
695.45	71.79
695.775	71.64
696.099	71.53
696.424	71.68
696.749	71.64
697.073	71.77
697.398	71.63
697.723	71.62
698.047	71.49
698.372	71.52
698.696	71.46
699.02	71.59
699.345	71.64
699.669	71.59
699.993	71.85
700.318	72.01
700.642	72.1
700.966	71.89
701.29	71.89
701.614	71.94
701.938	71.87
702.262	71.95
702.586	71.94
702.91	71.98
703.234	71.89
703.557	71.91
703.881	71.79
704.205	71.78
704.529	71.95
704.852	72.06
705.176	72.07
705.499	71.99
705.823	71.82
706.146	71.9
706.47	71.97
706.793	71.85
707.117	71.82
707.44	71.56
707.763	71.75
708.086	71.78
708.409	71.66
708.733	71.85
709.056	71.67
709.379	71.9
709.702	71.75
710.025	71.65
710.348	71.65
710.671	71.5
710.993	71.58
711.316	71.46
711.639	71.13
711.962	70.81
712.284	70.88
712.607	70.94
712.93	70.9
713.252	70.89
713.575	70.75
713.897	70.89
714.22	70.95
714.542	70.93
714.864	70.92
715.187	70.8
715.509	70.74
715.831	70.85
716.153	70.79
716.475	71.02
716.798	71.03
717.12	71.12
717.442	71.53
717.764	71.52
718.085	71.62
718.407	71.93
718.729	72.16
719.051	72.08
719.373	71.82
719.695	71.83
720.016	71.77
720.338	72.06
720.659	72.01
720.981	72.03
721.302	71.95
721.624	71.96
721.945	72.36
722.267	72.4
722.588	72.33
722.909	72.4
723.231	72.15
723.552	72.12
723.873	72.21
724.194	71.87
724.515	72.08
724.836	71.87
725.157	71.68
725.478	71.78
725.799	71.82
726.12	72.08
726.441	72.16
726.762	72.25
727.083	72.2
727.403	72.14
727.724	72.28
728.045	72.56
728.365	72.79
728.686	72.75
729.006	72.71
729.327	72.81
729.647	72.8
729.967	72.81
730.288	72.75
730.608	72.53
730.928	72.42
731.249	72.29
731.569	72.35
731.889	72.61
732.209	72.41
732.529	72.32
732.849	72.12
733.169	72.18
733.489	72.33
733.809	72.25
734.129	72.33
734.448	72.37
734.768	72.26
735.088	72.18
735.408	72.2
735.727	72.3
736.047	72.05
736.366	71.91
736.686	71.96
737.005	72.34
737.325	72.15
737.644	72.27
737.963	72.2
738.283	72.15
738.602	71.78
738.921	72.1
739.24	72.15
739.56	72.52
739.879	72.59
740.198	72.54
740.517	72.53
740.836	72.4
741.155	72.26
741.473	72.26
741.792	72.22
742.111	71.78
742.43	71.51
742.748	71.87
743.067	72.27
743.386	72.26
743.704	72.1
744.023	72.3
744.341	72.49
744.66	72.71
744.978	72.54
745.297	72.69
745.615	72.45
745.933	72.58
746.252	72.66
746.57	72.59
746.888	72.37
747.206	72.27
747.524	72.4
747.842	72.51
748.16	72.41
748.478	72.44
748.796	72.91
749.114	73.44
749.432	73.13
749.749	72.72
750.067	72.83
750.385	72.77
750.703	72.94
751.02	72.64
751.338	72.36
751.655	72.64
751.973	73.12
752.29	73.13
752.608	73.06
752.925	72.52
753.242	72.44
753.56	72.53
753.877	72.63
754.194	72.64
754.511	72.65
754.828	72.62
755.145	72.7
755.462	72.26
755.779	71.67
756.096	71.85
756.413	71.62
756.73	71.64
757.047	71.57
757.364	71.43
757.68	71.68
757.997	72.06
758.314	72.07
758.63	71.59
758.947	71.63
759.264	71.61
759.58	72.11
759.896	71.94
760.213	71.94
760.529	71.96
760.846	72.09
761.162	72.13
761.478	71.97
761.794	72
762.11	72.26
762.426	72.7
762.743	72.77
763.059	72.79
763.375	72.43
763.69	72.38
764.006	72.42
764.322	72.42
764.638	72.28
764.954	72.09
765.27	72.25
765.585	72.37
765.901	72.43
766.216	72.33
766.532	72.57
766.848	72.56
767.163	72.68
767.478	72.78
767.794	72.9
768.109	73.23
768.424	73.27
768.74	73.29
769.055	72.99
769.37	73.08
769.685	73.52
770	74.12
770.315	74.22
770.63	74.55
770.945	74.47
771.26	74.6
771.575	74.92
771.89	74.89
772.205	74.55
772.52	74.61
772.834	74.82
773.149	74.78
773.464	74.98
773.778	74.83
774.093	74.36
774.407	74.3
774.722	74.54
775.036	74.6
775.351	74.23
775.665	74.24
775.979	73.87
776.293	73.73
776.608	73.71
776.922	73.91
777.236	73.43
777.55	73.02
777.864	73.02
778.178	73.08
778.492	73.21
778.806	73.52
779.12	73.58
779.434	73.15
779.747	73.21
780.061	73.1
780.375	73.09
780.689	73.14
781.002	72.66
781.316	71.83
781.629	72
781.943	72.38
782.256	72.35
782.57	72.21
782.883	72.13
783.196	72.18
783.51	71.89
783.823	72.17
784.136	72.6
784.449	71.88
784.762	71.93
785.075	71.9
785.388	71.78
785.701	71.85
786.014	71.65
786.327	70.88
786.64	70.93
786.953	71.08
787.266	70.98
787.578	71.37
787.891	71.69
788.204	71.39
788.516	72.21
788.829	72.31
789.141	72.53
789.454	72.81
789.766	72.63
790.079	73.08
790.391	72.9
790.703	72.97
791.016	73.37
791.328	72.93
791.64	72.61
791.952	72.21
792.264	71.65
792.576	72.12
792.888	72.41
793.2	72.02
793.512	71.96
793.824	71.99
794.136	72
794.448	72.2
794.76	72.15
795.071	71.04
795.383	71.45
795.695	71.28
796.006	70.85
796.318	70.51
796.629	70.18
796.941	70.31
797.252	70.75
797.564	70.77
797.875	70.97
798.186	70.88
798.497	71.34
798.809	71.92
799.12	71.92
799.431	72.85
799.742	73
800.053	73.12
800.364	73.67
800.675	74.21
800.986	74.68
801.297	74.8
801.608	74.76
801.918	73.94
802.229	74.09
802.54	74.49
802.851	75.26
803.161	75.69
803.472	75.6
803.782	74.43
804.093	74.99
804.403	74.74
804.714	74.3
805.024	73.56
805.334	73.41
805.645	73.39
805.955	72.54
806.265	72.17
806.575	71.63
806.885	71.68
807.195	70.94
807.505	70.5
807.815	69.64
808.125	69.71
808.435	69.89
808.745	69.85
809.055	69.19
809.365	69.11
809.674	68.52
809.984	68.73
810.294	69.54
810.603	69.48
810.913	69.78
811.222	70.55
811.532	72.04
811.841	72.01
812.151	72.24
812.46	72.46
812.769	72.59
813.079	73.49
813.388	72.86
813.697	72.76
814.006	72.52
814.315	73.14
814.624	73.72
814.933	73.96
815.242	73.78
815.551	74.24
815.86	73.57
816.169	73.27
816.478	72.59
816.786	72.04
817.095	71.33
817.404	71.1
817.712	70.8
818.021	70.62
818.33	70.46
818.638	71.21
818.947	71.56
819.255	71.81
819.563	72.07
819.872	72.57
820.18	73.03
820.488	72.91
820.796	73.23
821.105	73.22
821.413	73.66
821.721	73.71
822.029	73.67
822.337	73.94
822.645	73.89
822.953	74.09
823.26	74.24
823.568	74.37
823.876	74.49
824.184	74.42
824.491	74.47
824.799	74.61
825.107	74.22
825.414	74.25
825.722	74.42
826.029	74.23
826.337	74.17
826.644	73.93
826.951	73.91
827.259	73.49
827.566	73.35
827.873	73.22
828.18	73.36
828.488	73.53
828.795	73.25
829.102	73.45
829.409	73.41
829.716	73.35
830.023	73.2
830.329	73.42
830.636	74.11
830.943	73.57
831.25	73.15
831.557	73.44
831.863	73.13
832.17	72.86
832.476	73.04
832.783	72.5
833.089	73.16
833.396	73.77
833.702	74.29
834.009	74.42
834.315	73.41
834.621	73.51
834.928	73.15
835.234	72.81
835.54	73
835.846	72.72
836.152	72.74
836.458	72.7
836.764	72.82
837.07	72.18
837.376	72.26
837.682	72.78
837.988	72.78
838.293	73.04
838.599	72.59
838.905	72.69
839.211	73.76
839.516	73.17
839.822	72.46
840.127	72.51
840.433	71.53
840.738	72.89
841.044	71.61
841.349	71.19
841.654	72.65
841.959	71.49
842.265	71.74
842.57	71.04
842.875	70.74
843.18	70.06
843.485	70.8
843.79	71.6
844.095	70.47
844.4	70.06
844.705	69.3
845.01	70.22
845.315	71.26
845.619	70.54
845.924	69.83
846.229	70.5
846.533	71.66
846.838	73.61
847.142	71.15
847.447	72.83
847.751	71.13
848.056	70.24
848.36	72.46
848.664	72.13
848.969	73.76
849.273	74.33
849.577	72.7
849.881	73.12
850.185	72.42
850.489	73.86
850.794	74.08
851.097	72.85
851.401	73.36
851.705	70.95
852.009	72.56
852.313	72.62
852.617	72.95
852.92	73.05
853.224	73.25
853.528	75.63
853.831	75.84
854.135	78.38
854.438	78.81
854.742	79.29
855.045	79.64
855.349	76.91
855.652	75.71
855.955	77.78
856.259	76.54
856.562	76.45
856.865	77.17
857.168	78.21
857.471	81.02
857.774	81.43
858.077	81.63
858.38	77.98
858.683	78.66
858.986	77.94
859.289	72.71
859.592	70.96
859.894	72
860.197	71.6
860.5	72.06
860.802	71.76
861.105	70.51
861.407	70.9
861.71	71.36
862.012	72.88
862.315	68.47
862.617	67.27
862.919	66.07
863.222	64.76
863.524	63.48
863.826	62.64
864.128	63.51
864.43	64.83
864.732	67.86
865.034	69.18
865.336	67.48
865.638	70.21
865.94	70.51
866.242	67.16
866.544	64.94
866.846	64.46
867.147	64.52
867.449	61.88
867.751	60.92
868.052	61.51
868.354	60.92
868.655	66.31
868.957	67.99
869.258	71.42
869.56	73.31
869.861	75.26
870.162	74.38
870.463	73.74
870.765	74.02
871.066	70.37
871.367	69.06
871.668	69.34
871.969	68.47
872.27	68.96
872.571	71.98
872.872	73.49
873.173	71.62
873.473	73.47
873.774	76.08
874.075	78.64
874.376	78.82
874.676	80.88
874.977	79.41
875.277	78.45
875.578	76.44
875.878	75.63
876.179	74.68
876.479	76.47
876.78	75.3
877.08	73.72
877.38	75.15
877.68	75.4
877.981	77.08
878.281	80.96
878.581	82.21
