Data from BA28467_Reflection_00011.txt Node
Date: Mon Nov 18 15:33:22 EST 2019
User: vgr7
Spectrometer: USB2G7710
Scans to average: 3
Trigger mode: 4
Integration Time (sec): 2.000000E-2
Electric dark correction enabled: true
Boxcar width: 10
XAxis mode: Wavelengths
Number of Pixels in Spectrum: 2048
>>>>>Begin Spectral Data<<<<<
177.721	-116.36
178.105	-158.88
178.488	-73.24
178.871	-179.66
179.254	250.75
179.636	-30.43
180.019	1391.14
180.402	56.67
180.785	-4751.06
181.168	-2129.73
181.55	-1614.29
181.933	310.69
182.316	274.3
182.698	217.28
183.081	265.69
183.463	501.53
183.846	803
184.228	1158.82
184.611	1402.13
184.993	1258.3
185.376	-1115.86
185.758	-1330.96
186.14	-842.64
186.522	-367.14
186.904	-445.45
187.287	-2739.69
187.669	-642.63
188.051	1149.56
188.433	-638.62
188.815	-207.18
189.197	-322.43
189.579	-216.1
189.961	-241.66
190.342	-97.84
190.724	-27.11
191.106	-39.08
191.488	-39.24
191.869	-29.39
192.251	-72.22
192.633	-84.22
193.014	-140.47
193.396	-225.27
193.777	-249.18
194.159	-241.23
194.54	-190.87
194.922	-149.07
195.303	-233.7
195.684	-144.43
196.065	-59.86
196.447	-86.09
196.828	-732.74
197.209	-250.61
197.59	-735.27
197.971	2186.96
198.352	-7687.23
198.733	625.11
199.114	698.89
199.495	685.09
199.876	396.46
200.257	-1334.26
200.638	-293.01
201.018	-176.87
201.399	-156.08
201.78	-141.39
202.16	-177.75
202.541	-251.62
202.922	-530.67
203.302	-438.52
203.683	-500.5
204.063	-1475.18
204.444	-1390.36
204.824	-543.45
205.204	-1088.35
205.585	-480.3
205.965	-321.11
206.345	-437.8
206.725	-442.08
207.106	-745.49
207.486	-876.93
207.866	-692.83
208.246	-2444.75
208.626	3326.13
209.006	1705.63
209.386	456.88
209.766	612.6
210.145	7239.24
210.525	-3403.65
210.905	-643.55
211.285	-275.85
211.664	-388.71
212.044	-213.9
212.424	-173.67
212.803	-267.94
213.183	-211.13
213.562	-172.83
213.942	-159.27
214.321	-136.16
214.701	-182.35
215.08	-150.09
215.459	-136.48
215.838	-102.48
216.218	-118.71
216.597	-85.99
216.976	-97.52
217.355	-71
217.734	-91.44
218.113	-135.37
218.492	-158.6
218.871	-178.64
219.25	-184.47
219.629	-159.57
220.008	-201.96
220.387	-155.32
220.766	-142.5
221.144	-130.14
221.523	-165.36
221.902	-172.22
222.28	-236.13
222.659	-168.33
223.037	-167.84
223.416	-167.75
223.794	-207.2
224.173	-143.7
224.551	-119.15
224.929	-102.96
225.308	-89.37
225.686	-73.43
226.064	-42.58
226.442	-41.12
226.821	-35.55
227.199	-33.21
227.577	-32.2
227.955	-25.44
228.333	-24.7
228.711	-19.37
229.089	-15.88
229.467	-15.84
229.845	-16.63
230.222	-12.69
230.6	-12.34
230.978	-14.74
231.356	-12.85
231.733	-15.05
232.111	-15.19
232.488	-15.18
232.866	-14.43
233.243	-15.28
233.621	-15.86
233.998	-18.52
234.376	-16.52
234.753	-15.45
235.13	-15.04
235.508	-12.81
235.885	-14.08
236.262	-14.27
236.639	-15.01
237.016	-14.87
237.393	-12.62
237.77	-11.16
238.147	-9.36
238.524	-7.64
238.901	-5.78
239.278	-4.51
239.655	-2.49
240.032	-2.06
240.409	-2.61
240.785	-1.62
241.162	-1.04
241.539	-0.64
241.915	-0.27
242.292	-0.14
242.668	0.04
243.045	0.72
243.421	1.27
243.798	1.91
244.174	2.16
244.551	2.55
244.927	2.62
245.303	2.94
245.679	3.12
246.056	3.03
246.432	3.26
246.808	3.22
247.184	3.25
247.56	3.08
247.936	3.12
248.312	3.23
248.688	3.25
249.064	3.21
249.44	3.21
249.815	3.11
250.191	3.04
250.567	3.07
250.943	3
251.318	2.82
251.694	2.87
252.069	2.63
252.445	2.38
252.82	2.5
253.196	2.39
253.571	2.48
253.947	2.45
254.322	2.51
254.697	2.58
255.073	2.46
255.448	2.46
255.823	2.55
256.198	2.65
256.573	2.64
256.948	2.78
257.323	2.87
257.698	2.84
258.073	3.05
258.448	3.04
258.823	3
259.198	3.02
259.573	2.95
259.948	3.09
260.322	3.19
260.697	2.99
261.072	2.86
261.446	3.03
261.821	2.98
262.195	2.9
262.57	2.79
262.944	2.66
263.319	2.66
263.693	2.56
264.067	2.56
264.442	2.46
264.816	2.65
265.19	2.71
265.564	2.86
265.938	2.71
266.313	2.54
266.687	2.54
267.061	2.63
267.435	2.79
267.809	2.64
268.183	2.63
268.556	2.8
268.93	2.88
269.304	2.53
269.678	2.6
270.051	2.57
270.425	2.68
270.799	2.71
271.172	2.86
271.546	2.86
271.919	2.73
272.293	2.66
272.666	2.54
273.04	2.47
273.413	2.36
273.787	2.39
274.16	2.48
274.533	2.51
274.906	2.39
275.279	2.08
275.653	2.15
276.026	2.08
276.399	1.9
276.772	1.98
277.145	2
277.518	1.95
277.891	2.04
278.263	1.93
278.636	1.99
279.009	1.98
279.382	2.23
279.755	2.42
280.127	2.63
280.5	2.75
280.872	2.79
281.245	2.97
281.617	3.06
281.99	2.99
282.362	3.04
282.735	3.02
283.107	3.14
283.479	3.21
283.852	3.27
284.224	3.41
284.596	3.29
284.968	3.4
285.34	3.5
285.713	3.43
286.085	3.51
286.457	3.63
286.829	3.57
287.201	3.54
287.572	3.43
287.944	3.32
288.316	3.2
288.688	3.14
289.06	3.03
289.431	3.01
289.803	3.08
290.175	3.1
290.546	3.26
290.918	3.41
291.289	3.43
291.661	3.55
292.032	3.55
292.403	3.53
292.775	3.56
293.146	3.51
293.517	3.59
293.889	3.63
294.26	3.67
294.631	3.74
295.002	3.74
295.373	3.94
295.744	3.99
296.115	4.02
296.486	4.01
296.857	4.06
297.228	4.1
297.599	4.14
297.97	4.08
298.34	4.01
298.711	3.86
299.082	3.8
299.452	3.77
299.823	3.85
300.194	3.97
300.564	3.91
300.935	3.88
301.305	3.86
301.676	3.86
302.046	3.74
302.416	3.87
302.787	3.77
303.157	3.73
303.527	3.73
303.897	3.8
304.267	3.87
304.637	3.89
305.008	3.89
305.378	4.05
305.748	4.17
306.117	4.19
306.487	4.33
306.857	4.45
307.227	4.41
307.597	4.38
307.967	4.32
308.336	4.35
308.706	4.55
309.076	4.6
309.445	4.65
309.815	4.76
310.184	4.69
310.554	4.72
310.923	4.54
311.293	4.56
311.662	4.55
312.031	4.57
312.401	4.58
312.77	4.67
313.139	4.66
313.508	4.59
313.877	4.64
314.246	4.71
314.616	4.71
314.985	4.86
315.353	4.78
315.722	4.99
316.091	5.01
316.46	5.02
316.829	5.01
317.198	5.01
317.567	5
317.935	4.93
318.304	4.95
318.672	5.18
319.041	5.34
319.41	5.36
319.778	5.31
320.147	5.43
320.515	5.3
320.883	5.22
321.252	5.37
321.62	5.41
321.988	5.51
322.357	5.71
322.725	5.58
323.093	5.74
323.461	5.69
323.829	5.93
324.197	5.94
324.565	6.1
324.933	6.08
325.301	6.04
325.669	6.16
326.037	6.26
326.405	6.37
326.772	6.3
327.14	6.24
327.508	6.36
327.875	6.27
328.243	6.39
328.61	6.34
328.978	6.26
329.346	6.22
329.713	6.04
330.08	5.95
330.448	6.05
330.815	6.03
331.182	6.08
331.55	5.94
331.917	5.97
332.284	5.83
332.651	5.85
333.018	6.06
333.385	6.11
333.752	6.19
334.119	6.19
334.486	6.2
334.853	6.34
335.22	6.38
335.587	6.54
335.954	6.56
336.32	6.69
336.687	6.83
337.054	6.92
337.42	7.07
337.787	7.11
338.153	7.17
338.52	7.37
338.886	7.25
339.253	7.29
339.619	7.3
339.986	7.39
340.352	7.63
340.718	7.49
341.084	7.41
341.451	7.4
341.817	7.43
342.183	7.48
342.549	7.46
342.915	7.5
343.281	7.56
343.647	7.54
344.013	7.53
344.379	7.45
344.745	7.52
345.11	7.54
345.476	7.53
345.842	7.48
346.208	7.33
346.573	7.44
346.939	7.43
347.304	7.46
347.67	7.5
348.035	7.35
348.401	7.46
348.766	7.59
349.132	7.61
349.497	7.58
349.862	7.57
350.228	7.59
350.593	7.52
350.958	7.43
351.323	7.46
351.688	7.5
352.053	7.59
352.418	7.55
352.783	7.57
353.148	7.51
353.513	7.52
353.878	7.61
354.243	7.68
354.608	7.72
354.972	7.75
355.337	7.79
355.702	7.88
356.066	7.89
356.431	7.79
356.795	7.74
357.16	7.77
357.524	7.78
357.889	7.7
358.253	7.7
358.618	7.76
358.982	7.76
359.346	7.71
359.71	7.7
360.075	7.66
360.439	7.61
360.803	7.65
361.167	7.6
361.531	7.54
361.895	7.48
362.259	7.44
362.623	7.4
362.987	7.38
363.351	7.3
363.714	7.27
364.078	7.25
364.442	7.26
364.806	7.22
365.169	7.22
365.533	7.26
365.896	7.24
366.26	7.19
366.623	7.14
366.987	7.16
367.35	7.18
367.714	7.15
368.077	7.13
368.44	7.07
368.803	7.09
369.167	7.03
369.53	6.95
369.893	6.97
370.256	6.94
370.619	6.83
370.982	6.76
371.345	6.69
371.708	6.73
372.071	6.67
372.434	6.56
372.797	6.52
373.159	6.48
373.522	6.48
373.885	6.47
374.247	6.49
374.61	6.43
374.973	6.36
375.335	6.42
375.698	6.37
376.06	6.37
376.423	6.33
376.785	6.34
377.147	6.38
377.51	6.28
377.872	6.26
378.234	6.27
378.596	6.31
378.958	6.3
379.321	6.25
379.683	6.21
380.045	6.23
380.407	6.18
380.769	6.1
381.13	6.08
381.492	6.05
381.854	5.99
382.216	5.96
382.578	5.93
382.939	5.81
383.301	5.8
383.663	5.74
384.024	5.7
384.386	5.7
384.747	5.62
385.109	5.68
385.47	5.56
385.832	5.52
386.193	5.46
386.554	5.37
386.916	5.35
387.277	5.34
387.638	5.33
387.999	5.31
388.36	5.29
388.721	5.29
389.082	5.25
389.443	5.19
389.804	5.15
390.165	5.09
390.526	5.08
390.887	5.01
391.248	5.01
391.609	5.01
391.969	4.94
392.33	4.95
392.691	4.88
393.051	4.91
393.412	4.88
393.772	4.83
394.133	4.83
394.493	4.74
394.854	4.71
395.214	4.66
395.574	4.64
395.935	4.64
396.295	4.61
396.655	4.57
397.015	4.54
397.376	4.5
397.736	4.49
398.096	4.46
398.456	4.46
398.816	4.44
399.176	4.38
399.535	4.37
399.895	4.32
400.255	4.28
400.615	4.25
400.975	4.22
401.334	4.25
401.694	4.24
402.054	4.27
402.413	4.28
402.773	4.26
403.132	4.23
403.492	4.2
403.851	4.2
404.211	4.17
404.57	4.15
404.929	4.16
405.288	4.13
405.648	4.11
406.007	4.12
406.366	4.08
406.725	4.1
407.084	4.09
407.443	4.09
407.802	4.1
408.161	4.1
408.52	4.11
408.879	4.08
409.238	4.07
409.596	4.06
409.955	4.05
410.314	4.05
410.673	4.04
411.031	4.01
411.39	3.97
411.748	3.98
412.107	4
412.465	3.99
412.824	4.03
413.182	4.01
413.54	3.97
413.899	3.99
414.257	3.95
414.615	3.94
414.974	3.93
415.332	3.91
415.69	3.88
416.048	3.86
416.406	3.86
416.764	3.8
417.122	3.79
417.48	3.74
417.838	3.73
418.195	3.72
418.553	3.72
418.911	3.71
419.269	3.71
419.626	3.69
419.984	3.66
420.342	3.63
420.699	3.63
421.057	3.63
421.414	3.6
421.772	3.6
422.129	3.6
422.486	3.58
422.844	3.58
423.201	3.57
423.558	3.55
423.915	3.56
424.273	3.56
424.63	3.56
424.987	3.56
425.344	3.55
425.701	3.54
426.058	3.53
426.415	3.51
426.772	3.5
427.128	3.49
427.485	3.49
427.842	3.51
428.199	3.5
428.555	3.51
428.912	3.52
429.269	3.52
429.625	3.51
429.982	3.52
430.338	3.52
430.695	3.51
431.051	3.49
431.407	3.47
431.764	3.48
432.12	3.47
432.476	3.48
432.832	3.47
433.189	3.45
433.545	3.45
433.901	3.46
434.257	3.45
434.613	3.46
434.969	3.46
435.325	3.44
435.681	3.45
436.036	3.42
436.392	3.42
436.748	3.41
437.104	3.39
437.459	3.39
437.815	3.38
438.171	3.39
438.526	3.41
438.882	3.41
439.237	3.41
439.593	3.41
439.948	3.4
440.304	3.4
440.659	3.4
441.014	3.4
441.369	3.39
441.725	3.38
442.08	3.37
442.435	3.37
442.79	3.37
443.145	3.36
443.5	3.37
443.855	3.36
444.21	3.37
444.565	3.38
444.92	3.38
445.275	3.37
445.629	3.37
445.984	3.35
446.339	3.34
446.693	3.33
447.048	3.31
447.403	3.31
447.757	3.31
448.112	3.3
448.466	3.29
448.82	3.29
449.175	3.3
449.529	3.29
449.883	3.28
450.238	3.26
450.592	3.26
450.946	3.24
451.3	3.22
451.654	3.21
452.008	3.2
452.362	3.18
452.716	3.17
453.07	3.16
453.424	3.17
453.778	3.17
454.132	3.18
454.486	3.17
454.839	3.17
455.193	3.17
455.547	3.16
455.9	3.17
456.254	3.17
456.607	3.17
456.961	3.17
457.314	3.18
457.668	3.19
458.021	3.17
458.375	3.19
458.728	3.2
459.081	3.19
459.434	3.2
459.787	3.2
460.141	3.21
460.494	3.21
460.847	3.21
461.2	3.23
461.553	3.23
461.906	3.24
462.259	3.25
462.611	3.27
462.964	3.3
463.317	3.29
463.67	3.3
464.022	3.31
464.375	3.3
464.728	3.31
465.08	3.32
465.433	3.35
465.785	3.35
466.138	3.36
466.49	3.39
466.843	3.38
467.195	3.41
467.547	3.41
467.899	3.42
468.252	3.41
468.604	3.41
468.956	3.4
469.308	3.42
469.66	3.4
470.012	3.42
470.364	3.42
470.716	3.44
471.068	3.43
471.42	3.45
471.772	3.49
472.123	3.5
472.475	3.52
472.827	3.5
473.178	3.51
473.53	3.51
473.882	3.49
474.233	3.51
474.585	3.49
474.936	3.48
475.288	3.48
475.639	3.5
475.99	3.49
476.342	3.47
476.693	3.47
477.044	3.48
477.395	3.47
477.746	3.46
478.097	3.44
478.448	3.46
478.8	3.44
479.15	3.42
479.501	3.42
479.852	3.43
480.203	3.42
480.554	3.43
480.905	3.43
481.255	3.43
481.606	3.42
481.957	3.43
482.307	3.45
482.658	3.45
483.009	3.45
483.359	3.47
483.709	3.48
484.06	3.47
484.41	3.47
484.761	3.48
485.111	3.48
485.461	3.49
485.811	3.49
486.162	3.5
486.512	3.52
486.862	3.52
487.212	3.52
487.562	3.54
487.912	3.53
488.262	3.54
488.612	3.54
488.961	3.55
489.311	3.55
489.661	3.55
490.011	3.55
490.36	3.56
490.71	3.55
491.06	3.57
491.409	3.58
491.759	3.58
492.108	3.6
492.458	3.6
492.807	3.62
493.157	3.62
493.506	3.63
493.855	3.63
494.204	3.64
494.554	3.64
494.903	3.65
495.252	3.67
495.601	3.68
495.95	3.71
496.299	3.73
496.648	3.75
496.997	3.77
497.346	3.8
497.695	3.81
498.043	3.84
498.392	3.87
498.741	3.91
499.09	3.95
499.438	3.98
499.787	4.01
500.135	4.04
500.484	4.07
500.832	4.13
501.181	4.14
501.529	4.17
501.878	4.23
502.226	4.26
502.574	4.29
502.923	4.36
503.271	4.37
503.619	4.43
503.967	4.47
504.315	4.52
504.663	4.56
505.011	4.6
505.359	4.62
505.707	4.67
506.055	4.7
506.403	4.75
506.751	4.79
507.098	4.85
507.446	4.92
507.794	4.98
508.141	5.01
508.489	5.06
508.837	5.09
509.184	5.13
509.531	5.2
509.879	5.25
510.226	5.33
510.574	5.4
510.921	5.44
511.268	5.52
511.616	5.58
511.963	5.65
512.31	5.71
512.657	5.78
513.004	5.84
513.351	5.9
513.698	5.95
514.045	6.02
514.392	6.07
514.739	6.13
515.086	6.18
515.432	6.25
515.779	6.31
516.126	6.42
516.473	6.48
516.819	6.56
517.166	6.63
517.512	6.65
517.859	6.71
518.205	6.77
518.552	6.82
518.898	6.84
519.245	6.9
519.591	6.97
519.937	7.02
520.283	7.1
520.629	7.17
520.976	7.26
521.322	7.3
521.668	7.39
522.014	7.48
522.36	7.6
522.706	7.71
523.052	7.85
523.398	7.95
523.743	8.09
524.089	8.21
524.435	8.34
524.781	8.47
525.126	8.58
525.472	8.69
525.817	8.79
526.163	8.89
526.509	8.97
526.854	9.05
527.199	9.14
527.545	9.2
527.89	9.3
528.235	9.39
528.581	9.49
528.926	9.57
529.271	9.66
529.616	9.75
529.961	9.83
530.306	9.91
530.651	10
530.996	10.09
531.341	10.19
531.686	10.3
532.031	10.41
532.376	10.53
532.721	10.64
533.065	10.78
533.41	10.91
533.755	11.06
534.099	11.21
534.444	11.38
534.788	11.55
535.133	11.67
535.477	11.8
535.822	11.96
536.166	12.11
536.51	12.31
536.855	12.51
537.199	12.74
537.543	12.98
537.887	13.19
538.231	13.42
538.576	13.64
538.92	13.87
539.264	14.1
539.608	14.31
539.951	14.51
540.295	14.7
540.639	14.89
540.983	15.08
541.327	15.27
541.671	15.45
542.014	15.61
542.358	15.82
542.701	16.01
543.045	16.21
543.389	16.43
543.732	16.63
544.075	16.83
544.419	17.03
544.762	17.23
545.105	17.47
545.449	17.7
545.792	17.95
546.135	18.21
546.478	18.47
546.821	18.78
547.165	19.06
547.508	19.38
547.851	19.7
548.194	19.97
548.536	20.25
548.879	20.56
549.222	20.87
549.565	21.18
549.908	21.52
550.25	21.87
550.593	22.19
550.936	22.51
551.278	22.84
551.621	23.14
551.963	23.47
552.306	23.75
552.648	24.07
552.991	24.37
553.333	24.68
553.675	24.95
554.017	25.25
554.36	25.55
554.702	25.81
555.044	26.09
555.386	26.4
555.728	26.7
556.07	27.01
556.412	27.32
556.754	27.63
557.096	27.87
557.438	28.2
557.78	28.52
558.121	28.82
558.463	29.1
558.805	29.41
559.147	29.66
559.488	29.95
559.83	30.2
560.171	30.5
560.513	30.78
560.854	31.07
561.196	31.36
561.537	31.63
561.878	31.92
562.22	32.2
562.561	32.49
562.902	32.77
563.243	33.02
563.584	33.25
563.925	33.45
564.266	33.74
564.607	33.94
564.948	34.18
565.289	34.4
565.63	34.62
565.971	34.81
566.312	35.1
566.653	35.39
566.993	35.66
567.334	35.9
567.675	36.11
568.015	36.33
568.356	36.49
568.696	36.76
569.037	36.96
569.377	37.11
569.718	37.31
570.058	37.5
570.398	37.69
570.739	37.92
571.079	38.17
571.419	38.32
571.759	38.5
572.099	38.64
572.439	38.83
572.779	38.99
573.119	39.18
573.459	39.31
573.799	39.47
574.139	39.61
574.479	39.79
574.819	39.89
575.158	40.05
575.498	40.17
575.838	40.3
576.177	40.42
576.517	40.6
576.856	40.74
577.196	40.91
577.535	41.08
577.875	41.22
578.214	41.32
578.553	41.52
578.893	41.66
579.232	41.83
579.571	41.95
579.91	42.15
580.25	42.28
580.589	42.42
580.928	42.53
581.267	42.65
581.606	42.76
581.945	42.93
582.283	43.06
582.622	43.29
582.961	43.43
583.3	43.57
583.639	43.72
583.977	43.88
584.316	44.04
584.654	44.09
584.993	44.18
585.332	44.36
585.67	44.46
586.008	44.56
586.347	44.69
586.685	44.79
587.024	44.85
587.362	44.97
587.7	45.04
588.038	45.17
588.376	45.28
588.715	45.36
589.053	45.46
589.391	45.49
589.729	45.51
590.067	45.56
590.404	45.63
590.742	45.75
591.08	45.77
591.418	45.82
591.756	45.98
592.093	46.05
592.431	46.02
592.769	46.09
593.106	46.2
593.444	46.2
593.781	46.27
594.119	46.31
594.456	46.37
594.793	46.45
595.131	46.44
595.468	46.5
595.805	46.54
596.143	46.61
596.48	46.66
596.817	46.72
597.154	46.78
597.491	46.87
597.828	46.91
598.165	46.99
598.502	47.06
598.839	47.11
599.176	47.17
599.512	47.26
599.849	47.33
600.186	47.35
600.523	47.5
600.859	47.56
601.196	47.62
601.532	47.67
601.869	47.72
602.205	47.79
602.542	47.87
602.878	47.94
603.215	47.98
603.551	48.04
603.887	48.02
604.223	48.11
604.56	48.2
604.896	48.24
605.232	48.24
605.568	48.3
605.904	48.32
606.24	48.39
606.576	48.45
606.912	48.49
607.248	48.51
607.583	48.54
607.919	48.6
608.255	48.68
608.591	48.76
608.926	48.81
609.262	48.93
609.597	48.97
609.933	49.01
610.268	49.11
610.604	49.14
610.939	49.29
611.275	49.28
611.61	49.3
611.945	49.33
612.281	49.38
612.616	49.33
612.951	49.35
613.286	49.43
613.621	49.5
613.956	49.55
614.291	49.7
614.626	49.67
614.961	49.67
615.296	49.72
615.631	49.78
615.966	49.87
616.3	49.88
616.635	49.92
616.97	49.9
617.304	49.86
617.639	49.98
617.973	49.95
618.308	49.97
618.642	49.95
618.977	49.96
619.311	50.04
619.646	50.14
619.98	50.17
620.314	50.14
620.648	50.19
620.983	50.21
621.317	50.21
621.651	50.28
621.985	50.38
622.319	50.46
622.653	50.5
622.987	50.49
623.321	50.42
623.655	50.46
623.988	50.49
624.322	50.49
624.656	50.64
624.99	50.6
625.323	50.74
625.657	50.78
625.99	50.74
626.324	50.74
626.657	50.74
626.991	50.78
627.324	50.8
627.658	50.77
627.991	50.8
628.324	50.8
628.657	50.91
628.991	50.88
629.324	50.86
629.657	50.83
629.99	50.83
630.323	50.94
630.656	50.91
630.989	50.9
631.322	50.91
631.655	50.78
631.987	50.91
632.32	50.88
632.653	50.94
632.986	51.05
633.318	51.09
633.651	51.12
633.984	51.17
634.316	51.17
634.649	51.07
634.981	51.06
635.313	51.08
635.646	50.98
635.978	51.06
636.31	51.07
636.643	51.14
636.975	51.12
637.307	51.01
637.639	51.03
637.971	51.04
638.303	51.14
638.635	51.2
638.967	51.21
639.299	51.21
639.631	51.11
639.963	51.23
640.295	51.34
640.626	51.44
640.958	51.47
641.29	51.59
641.621	51.75
641.953	51.81
642.285	51.86
642.616	51.97
642.948	51.91
643.279	51.99
643.61	51.99
643.942	52.06
644.273	52.23
644.604	52.32
644.936	52.55
645.267	52.58
645.598	52.51
645.929	52.56
646.26	52.6
646.591	52.58
646.922	52.49
647.253	52.47
647.584	52.37
647.915	52.45
648.245	52.32
648.576	52.36
648.907	52.38
649.238	52.41
649.568	52.44
649.899	52.53
650.229	52.45
650.56	52.54
650.89	52.61
651.221	52.48
651.551	52.41
651.882	52.31
652.212	52.24
652.542	52.33
652.872	52.39
653.203	52.34
653.533	52.39
653.863	52.44
654.193	52.4
654.523	52.53
654.853	52.35
655.183	52.49
655.513	52.54
655.843	52.53
656.172	52.5
656.502	52.45
656.832	52.46
657.162	52.55
657.491	52.4
657.821	52.39
658.15	52.54
658.48	52.51
658.809	52.53
659.139	52.56
659.468	52.47
659.798	52.37
660.127	52.33
660.456	52.38
660.785	52.31
661.115	52.27
661.444	52.18
661.773	52.25
662.102	52.21
662.431	52.23
662.76	52.27
663.089	52.25
663.418	52.23
663.747	52.21
664.076	52.12
664.404	52.13
664.733	52.08
665.062	52.03
665.39	52.17
665.719	52.17
666.048	52.09
666.376	52.16
666.705	52.28
667.033	52.23
667.362	52.28
667.69	52.3
668.018	52.28
668.347	52.29
668.675	52.32
669.003	52.22
669.331	52.12
669.659	51.96
669.987	51.88
670.315	51.87
670.643	51.9
670.971	51.9
671.299	52.08
671.627	52.12
671.955	52.19
672.283	52.13
672.61	52.12
672.938	52.13
673.266	52.21
673.593	52.2
673.921	52.32
674.249	52.31
674.576	52.34
674.904	52.4
675.231	52.42
675.558	52.44
675.886	52.65
676.213	52.78
676.54	52.84
676.867	52.93
677.195	52.94
677.522	52.92
677.849	53.08
678.176	52.92
678.503	52.97
678.83	52.88
679.157	52.83
679.484	52.8
679.81	52.86
680.137	52.81
680.464	52.79
680.791	52.66
681.117	52.65
681.444	52.62
681.771	52.7
682.097	52.77
682.424	52.83
682.75	52.74
683.077	52.64
683.403	52.69
683.729	52.72
684.056	52.69
684.382	52.55
684.708	52.46
685.034	52.41
685.36	52.34
685.686	52.42
686.012	52.59
686.339	52.62
686.664	52.6
686.99	52.68
687.316	52.71
687.642	52.83
687.968	52.9
688.294	53.05
688.619	53.04
688.945	52.93
689.271	52.85
689.596	52.84
689.922	52.83
690.247	52.8
690.573	52.92
690.898	52.95
691.224	53.26
691.549	53.29
691.874	53.44
692.2	53.52
692.525	53.5
692.85	53.48
693.175	53.42
693.5	53.4
693.825	53.31
694.15	53.24
694.475	53.29
694.8	53.16
695.125	52.96
695.45	52.93
695.775	53.07
696.099	53.12
696.424	53.19
696.749	53.2
697.073	53.13
697.398	53.07
697.723	53.18
698.047	52.91
698.372	52.82
698.696	52.75
699.02	52.65
699.345	52.61
699.669	52.65
699.993	52.65
700.318	52.84
700.642	52.82
700.966	52.87
701.29	52.88
701.614	52.95
701.938	53.06
702.262	53.11
702.586	52.99
702.91	52.92
703.234	52.8
703.557	52.75
703.881	52.85
704.205	52.85
704.529	52.74
704.852	52.83
705.176	53.01
705.499	53.23
705.823	53.31
706.146	53.32
706.47	53.31
706.793	53.32
707.117	53.23
707.44	53.14
707.763	53.19
708.086	53.12
708.409	53.09
708.733	53.03
709.056	53.02
709.379	53.2
709.702	53.19
710.025	53.45
710.348	53.58
710.671	53.53
710.993	53.46
711.316	53.38
711.639	53.55
711.962	53.47
712.284	53.41
712.607	53.21
712.93	53.32
713.252	53.25
713.575	53.23
713.897	53.06
714.22	53.07
714.542	52.91
714.864	53.02
715.187	52.99
715.509	53.02
715.831	53.01
716.153	52.76
716.475	52.88
716.798	52.46
717.12	52.46
717.442	52.65
717.764	52.76
718.085	52.72
718.407	52.54
718.729	52.66
719.051	52.59
719.373	52.79
719.695	52.57
720.016	52.48
720.338	52.56
720.659	52.71
720.981	52.85
721.302	52.84
721.624	52.69
721.945	52.95
722.267	53.03
722.588	53.05
722.909	53.21
723.231	52.86
723.552	52.96
723.873	52.8
724.194	52.53
724.515	52.43
724.836	52.65
725.157	52.69
725.478	52.7
725.799	52.7
726.12	52.74
726.441	52.88
726.762	52.92
727.083	52.83
727.403	52.81
727.724	52.82
728.045	52.64
728.365	52.67
728.686	52.38
729.006	52.43
729.327	52.33
729.647	52.3
729.967	52.42
730.288	52.83
730.608	52.69
730.928	52.56
731.249	52.41
731.569	52.44
731.889	52.49
732.209	52.23
732.529	52.14
732.849	51.99
733.169	51.91
733.489	51.82
733.809	51.84
734.129	51.96
734.448	52
734.768	52.2
735.088	52.21
735.408	52.47
735.727	52.5
736.047	52.51
736.366	52.28
736.686	52.18
737.005	52
737.325	52.08
737.644	52.26
737.963	52.42
738.283	52.3
738.602	52.24
738.921	52.66
739.24	52.73
739.56	52.96
739.879	53.07
740.198	53.35
740.517	53.18
740.836	52.75
741.155	52.74
741.473	52.66
741.792	52.74
742.111	52.36
742.43	52.01
742.748	51.94
743.067	52.03
743.386	52.33
743.704	52.32
744.023	52.39
744.341	52.49
744.66	52.26
744.978	52.34
745.297	52.49
745.615	52.12
745.933	52.25
746.252	52.2
746.57	51.86
746.888	51.64
747.206	52.11
747.524	52.3
747.842	52.13
748.16	52.24
748.478	52.2
748.796	52.58
749.114	52.83
749.432	52.75
749.749	52.97
750.067	52.87
750.385	53
750.703	53.15
751.02	53.08
751.338	53.39
751.655	53.54
751.973	53.48
752.29	53.61
752.608	53.66
752.925	53.77
753.242	54.3
753.56	54.23
753.877	53.94
754.194	54.13
754.511	54.09
754.828	53.94
755.145	53.8
755.462	53.57
755.779	53.65
756.096	54.08
756.413	54.1
756.73	54.25
757.047	54.31
757.364	54.42
757.68	54.31
757.997	54.15
758.314	54.19
758.63	54.03
758.947	54.06
759.264	53.98
759.58	53.87
759.896	53.64
760.213	53.72
760.529	53.63
760.846	53.58
761.162	53.75
761.478	53.88
761.794	53.97
762.11	54.09
762.426	54.03
762.743	53.9
763.059	54.17
763.375	54.02
763.69	53.75
764.006	53.69
764.322	53.71
764.638	53.79
764.954	53.73
765.27	53.82
765.585	53.71
765.901	53.58
766.216	53.61
766.532	53.42
766.848	53.29
767.163	53.39
767.478	53.28
767.794	53.3
768.109	53.15
768.424	53.11
768.74	53.14
769.055	52.88
769.37	52.92
769.685	52.46
770	52.31
770.315	52.12
770.63	52.12
770.945	52.04
771.26	51.86
771.575	51.45
771.89	51.38
772.205	51.48
772.52	51.64
772.834	51.29
773.149	51.6
773.464	51.84
773.778	51.86
774.093	51.88
774.407	51.81
774.722	52.06
775.036	52.12
775.351	51.94
775.665	52.1
775.979	51.87
776.293	51.92
776.608	51.53
776.922	51.93
777.236	52.05
777.55	52.27
777.864	52.37
778.178	52.97
778.492	52.72
778.806	52.88
779.12	52.63
779.434	52.81
779.747	52.66
780.061	52.79
780.375	52.73
780.689	52.75
781.002	52.61
781.316	52.43
781.629	52.68
781.943	52.77
782.256	53.34
782.57	53.27
782.883	53.45
783.196	53.86
783.51	53.62
783.823	53.14
784.136	52.79
784.449	53.21
784.762	53.12
785.075	52.97
785.388	52.38
785.701	52.71
786.014	52.48
786.327	52.45
786.64	52.01
786.953	51.95
787.266	51.73
787.578	51.69
787.891	52.41
788.204	52.5
788.516	52.14
788.829	51.77
789.141	51.87
789.454	52.17
789.766	52.38
790.079	52.26
790.391	52.11
790.703	52.69
791.016	52.74
791.328	52.92
791.64	53.43
791.952	53.93
792.264	53.44
792.576	53.57
792.888	53.85
793.2	54.26
793.512	54.22
793.824	54.18
794.136	54.56
794.448	53.71
794.76	53.01
795.071	53.22
795.383	52.93
795.695	53.06
796.006	52.38
796.318	52.59
796.629	53.8
796.941	54.03
797.252	53.64
797.564	53.07
797.875	52.41
798.186	52.11
798.497	52.35
798.809	52.37
799.12	52.56
799.431	52.52
799.742	52.33
800.053	52.88
800.364	53.04
800.675	52.38
800.986	52.51
801.297	52.88
801.608	52.47
801.918	52.38
802.229	52.68
802.54	52.67
802.851	52.87
803.161	51.94
803.472	52.36
803.782	52.33
804.093	52.11
804.403	52.73
804.714	52.93
805.024	52.27
805.334	53.26
805.645	53.22
805.955	53.38
806.265	53.66
806.575	53.35
806.885	54.05
807.195	54.4
807.505	54.94
807.815	54.85
808.125	55.59
808.435	56.14
808.745	55.28
809.055	55.49
809.365	54.91
809.674	54.24
809.984	54.05
810.294	53.72
810.603	54.4
810.913	54.46
811.222	54.15
811.532	54.33
811.841	54.28
812.151	54.88
812.46	54.66
812.769	53.77
813.079	53.55
813.388	52.99
813.697	53.37
814.006	52.9
814.315	53.76
814.624	53.48
814.933	53.86
815.242	54.79
815.551	55.02
815.86	54.82
816.169	55.39
816.478	54.71
816.786	55.08
817.095	54.92
817.404	54.94
817.712	55.3
818.021	55.29
818.33	54.7
818.638	53.8
818.947	54.04
819.255	54.32
819.563	54.43
819.872	54.57
820.18	54.41
820.488	54.53
820.796	54.2
821.105	53.99
821.413	54
821.721	54.03
822.029	54.07
822.337	54.33
822.645	54.51
822.953	54.72
823.26	54.8
823.568	54.84
823.876	54.79
824.184	54.68
824.491	54.74
824.799	54.67
825.107	54.83
825.414	54.74
825.722	54.98
826.029	55.11
826.337	55.03
826.644	55
826.951	54.95
827.259	55.08
827.566	55.25
827.873	55.28
828.18	55
828.488	54.72
828.795	54.59
829.102	54.47
829.409	54.39
829.716	54.37
830.023	54.25
830.329	53.76
830.636	54.29
830.943	54.28
831.25	54.49
831.557	54.55
831.863	54.31
832.17	53.66
832.476	53.29
832.783	53.24
833.089	53.29
833.396	53.17
833.702	52.9
834.009	53.25
834.315	53.01
834.621	53.85
834.928	53.83
835.234	53.69
835.54	53.29
835.846	53.48
836.152	53.35
836.458	53.26
836.764	53.72
837.07	53.02
837.376	52.69
837.682	52.74
837.988	52.6
838.293	52.93
838.599	53.23
838.905	53
839.211	52.85
839.516	52.42
839.822	52.25
840.127	52.1
840.433	51.41
840.738	50.73
841.044	49.25
841.349	50.68
841.654	51.02
841.959	51.78
842.265	51.21
842.57	51.36
842.875	50.16
843.18	49.9
843.485	49.74
843.79	48.72
844.095	48.45
844.4	47.53
844.705	47.52
845.01	47.53
845.315	47.16
845.619	47.42
845.924	47.32
846.229	48.06
846.533	48.29
846.838	48.82
847.142	48.33
847.447	47.14
847.751	46.86
848.056	46.61
848.36	44.87
848.664	44.56
848.969	44.25
849.273	45.83
849.577	44.45
849.881	45.37
850.185	46.63
850.489	46.63
850.794	48.31
851.097	49.54
851.401	47.69
851.705	49.17
852.009	48.23
852.313	48.28
852.617	49.42
852.92	48.49
853.224	48.4
853.528	50.97
853.831	50.52
854.135	50.1
854.438	48.61
854.742	50.18
855.045	48.49
855.349	48.92
855.652	49.04
855.955	50.05
856.259	47.43
856.562	48.23
856.865	45.82
857.168	44.56
857.471	42.93
857.774	43.6
858.077	42.53
858.38	43.68
858.683	44.63
858.986	41.89
859.289	42.74
859.592	40.77
859.894	40.11
860.197	45.2
860.5	43.96
860.802	45.66
861.105	45.33
861.407	45.81
861.71	46.08
862.012	45.03
862.315	46.04
862.617	48.72
862.919	48.56
863.222	50.43
863.524	48.9
863.826	51.61
864.128	54.11
864.43	56.12
864.732	57.43
865.034	60.16
865.336	62.66
865.638	61.82
865.94	62.6
866.242	65.04
866.544	59.61
866.846	60.13
867.147	59.8
867.449	60.11
867.751	62.94
868.052	63.77
868.354	66.6
868.655	65.47
868.957	65.41
869.258	65.64
869.56	66.39
869.861	69.17
870.162	66.54
870.463	63.71
870.765	64.86
871.066	59.69
871.367	54.94
871.668	52.67
871.969	51.59
872.27	53.44
872.571	52.2
872.872	54.08
873.173	51.68
873.473	51.06
873.774	50.58
874.075	49.04
874.376	47.65
874.676	47.53
874.977	46.66
875.277	47.09
875.578	47.59
875.878	46.16
876.179	46.14
876.479	45.82
876.78	47.03
877.08	45.13
877.38	48.27
877.68	50.82
877.981	52.07
878.281	54.65
878.581	52.2
