Data from BA28471_Reflection_00014.txt Node
Date: Mon Nov 18 15:21:38 EST 2019
User: vgr7
Spectrometer: USB2G7710
Scans to average: 3
Trigger mode: 4
Integration Time (sec): 2.000000E-2
Electric dark correction enabled: true
Boxcar width: 10
XAxis mode: Wavelengths
Number of Pixels in Spectrum: 2048
>>>>>Begin Spectral Data<<<<<
177.721	946.65
178.105	-189.02
178.488	-91.38
178.871	-82.67
179.254	5.9
179.636	-137.79
180.019	-90.23
180.402	82.05
180.785	943.37
181.168	45.73
181.55	95.77
181.933	68.05
182.316	85.56
182.698	84.48
183.081	78.74
183.463	97.9
183.846	174.55
184.228	218.74
184.611	459.18
184.993	2927.59
185.376	-333.18
185.758	-222.58
186.14	-1277.48
186.522	-11794.74
186.904	612.97
187.287	497.03
187.669	-527.97
188.051	-351
188.433	-153.54
188.815	-129.75
189.197	-139.33
189.579	-91.65
189.961	-85.03
190.342	-89.65
190.724	-62.81
191.106	-50.84
191.488	-52.98
191.869	-45.33
192.251	-68.17
192.633	-113.59
193.014	-283.05
193.396	-406.62
193.777	-469.65
194.159	-835.38
194.54	-288.47
194.922	-198.73
195.303	-421.86
195.684	-422.81
196.065	-178.05
196.447	-328.71
196.828	-590.97
197.209	-265.61
197.59	-342.18
197.971	-305.29
198.352	-306.45
198.733	-1084.99
199.114	-855.22
199.495	-330.38
199.876	-287.2
200.257	-153.21
200.638	-101.7
201.018	-100.82
201.399	-100.7
201.78	-75.08
202.16	-70.16
202.541	-74.63
202.922	-96.12
203.302	-89.76
203.683	-107.23
204.063	-154.64
204.444	-139.98
204.824	-121.54
205.204	-114.87
205.585	-129.74
205.965	-121.07
206.345	-107.35
206.725	-106.49
207.106	-107.16
207.486	-131.54
207.866	-123.16
208.246	-130.39
208.626	-149.06
209.006	-115.28
209.386	-151.24
209.766	-178.25
210.145	-159.41
210.525	-149.75
210.905	-120.95
211.285	-117.5
211.664	-88.02
212.044	-80.96
212.424	-87.8
212.803	-78.45
213.183	-73.33
213.562	-65.84
213.942	-66.93
214.321	-76.1
214.701	-99.57
215.08	-106.38
215.459	-94.37
215.838	-102.95
216.218	-103.71
216.597	-72.09
216.976	-82.41
217.355	-75.65
217.734	-74.74
218.113	-82.68
218.492	-85.42
218.871	-100.52
219.25	-100.81
219.629	-117.6
220.008	-124.89
220.387	-110.38
220.766	-112.31
221.144	-140.63
221.523	-162.03
221.902	-168.4
222.28	-177.28
222.659	-125.74
223.037	-101.65
223.416	-100.32
223.794	-91.43
224.173	-85.25
224.551	-74.26
224.929	-68.48
225.308	-52.74
225.686	-53.51
226.064	-40.38
226.442	-38.81
226.821	-26.36
227.199	-23.47
227.577	-19.5
227.955	-17.01
228.333	-19.45
228.711	-14.94
229.089	-8.5
229.467	-7.25
229.845	-10.62
230.222	-10.36
230.6	-10.18
230.978	-13.38
231.356	-12.75
231.733	-11.28
232.111	-8.34
232.488	-7.69
232.866	-8.08
233.243	-7.89
233.621	-8.56
233.998	-8.71
234.376	-8.88
234.753	-7.78
235.13	-7.21
235.508	-5.21
235.885	-6.3
236.262	-4.6
236.639	-4.72
237.016	-5.65
237.393	-4.24
237.77	-2.46
238.147	-1.33
238.524	0.04
238.901	1.63
239.278	2.24
239.655	3.52
240.032	3.34
240.409	2.99
240.785	3.53
241.162	3.72
241.539	5.12
241.915	5.53
242.292	5.71
242.668	5.62
243.045	5.35
243.421	5.14
243.798	5.09
244.174	5.02
244.551	4.96
244.927	5.06
245.303	5.15
245.679	5.15
246.056	5.08
246.432	4.83
246.808	4.8
247.184	4.68
247.56	4.4
247.936	4.43
248.312	4.77
248.688	4.71
249.064	4.82
249.44	4.44
249.815	4.32
250.191	4.32
250.567	4.32
250.943	4.48
251.318	4.53
251.694	4.75
252.069	4.65
252.445	4.68
252.82	4.86
253.196	4.75
253.571	5.02
253.947	5.08
254.322	5.2
254.697	5.19
255.073	5.36
255.448	5.02
255.823	4.87
256.198	4.75
256.573	4.73
256.948	4.87
257.323	5.01
257.698	5.06
258.073	5.05
258.448	5.07
258.823	5.08
259.198	5.04
259.573	5.02
259.948	5.04
260.322	5.04
260.697	4.94
261.072	4.92
261.446	4.79
261.821	4.74
262.195	4.71
262.57	4.58
262.944	4.41
263.319	4.45
263.693	4.48
264.067	4.35
264.442	4.31
264.816	4.08
265.19	3.97
265.564	3.98
265.938	3.92
266.313	3.68
266.687	3.6
267.061	3.7
267.435	3.77
267.809	3.81
268.183	3.89
268.556	3.66
268.93	3.74
269.304	3.65
269.678	3.89
270.051	3.78
270.425	3.83
270.799	3.86
271.172	4.06
271.546	4.02
271.919	4.06
272.293	4.16
272.666	4.25
273.04	4.2
273.413	4.13
273.787	4.26
274.16	4.44
274.533	4.42
274.906	4.3
275.279	4.15
275.653	4.14
276.026	4.03
276.399	4.24
276.772	4.17
277.145	4.2
277.518	4.22
277.891	4.41
278.263	4.34
278.636	4.62
279.009	4.51
279.382	4.64
279.755	4.65
280.127	4.7
280.5	4.78
280.872	4.89
281.245	5
281.617	4.95
281.99	5.02
282.362	5.08
282.735	5.11
283.107	5.2
283.479	5.36
283.852	5.41
284.224	5.51
284.596	5.46
284.968	5.55
285.34	5.45
285.713	5.39
286.085	5.43
286.457	5.34
286.829	5.36
287.201	5.35
287.572	5.37
287.944	5.32
288.316	5.37
288.688	5.24
289.06	5.2
289.431	5.25
289.803	5.22
290.175	5.18
290.546	5.21
290.918	5.18
291.289	5.02
291.661	4.99
292.032	4.91
292.403	5.05
292.775	5.19
293.146	5.14
293.517	5.27
293.889	5.36
294.26	5.47
294.631	5.52
295.002	5.51
295.373	5.56
295.744	5.54
296.115	5.4
296.486	5.46
296.857	5.51
297.228	5.54
297.599	5.63
297.97	5.74
298.34	5.83
298.711	5.94
299.082	6.06
299.452	6.12
299.823	6.26
300.194	6.21
300.564	6.14
300.935	6.2
301.305	6.22
301.676	6.33
302.046	6.35
302.416	6.44
302.787	6.45
303.157	6.5
303.527	6.57
303.897	6.72
304.267	6.84
304.637	6.88
305.008	6.96
305.378	6.98
305.748	7.02
306.117	7
306.487	7.13
306.857	7.32
307.227	7.36
307.597	7.43
307.967	7.61
308.336	7.72
308.706	7.93
309.076	7.93
309.445	8.02
309.815	8.06
310.184	8.08
310.554	8.22
310.923	8.26
311.293	8.46
311.662	8.55
312.031	8.65
312.401	8.72
312.77	8.83
313.139	9.01
313.508	9.2
313.877	9.29
314.246	9.35
314.616	9.33
314.985	9.51
315.353	9.58
315.722	9.81
316.091	9.9
316.46	9.89
316.829	9.93
317.198	9.97
317.567	10.04
317.935	10.22
318.304	10.3
318.672	10.45
319.041	10.5
319.41	10.69
319.778	10.88
320.147	11.07
320.515	11.02
320.883	10.98
321.252	10.91
321.62	11.07
321.988	10.98
322.357	11.06
322.725	11.02
323.093	11.09
323.461	10.94
323.829	10.94
324.197	11.09
324.565	11.32
324.933	11.47
325.301	11.47
325.669	11.53
326.037	11.54
326.405	11.55
326.772	11.56
327.14	11.63
327.508	11.66
327.875	11.5
328.243	11.56
328.61	11.54
328.978	11.49
329.346	11.54
329.713	11.61
330.08	11.75
330.448	11.8
330.815	11.76
331.182	11.85
331.55	11.85
331.917	11.85
332.284	11.89
332.651	11.81
333.018	11.95
333.385	11.95
333.752	12.1
334.119	12.32
334.486	12.32
334.853	12.21
335.22	12.14
335.587	12.42
335.954	12.46
336.32	12.63
336.687	12.81
337.054	12.86
337.42	12.97
337.787	12.97
338.153	13.04
338.52	13.17
338.886	13.11
339.253	13.16
339.619	13.34
339.986	13.43
340.352	13.6
340.718	13.55
341.084	13.69
341.451	13.81
341.817	13.75
342.183	13.85
342.549	13.97
342.915	14.07
343.281	13.95
343.647	14.05
344.013	14.15
344.379	14.09
344.745	14.23
345.11	14.27
345.476	14.29
345.842	14.31
346.208	14.27
346.573	14.42
346.939	14.52
347.304	14.36
347.67	14.35
348.035	14.41
348.401	14.5
348.766	14.47
349.132	14.46
349.497	14.46
349.862	14.56
350.228	14.59
350.593	14.55
350.958	14.64
351.323	14.61
351.688	14.62
352.053	14.67
352.418	14.54
352.783	14.58
353.148	14.52
353.513	14.59
353.878	14.62
354.243	14.71
354.608	14.71
354.972	14.8
355.337	14.83
355.702	14.75
356.066	14.76
356.431	14.78
356.795	14.78
357.16	14.85
357.524	14.76
357.889	14.73
358.253	14.89
358.618	14.94
358.982	14.93
359.346	14.79
359.71	14.83
360.075	14.82
360.439	14.78
360.803	14.82
361.167	14.75
361.531	14.74
361.895	14.69
362.259	14.63
362.623	14.55
362.987	14.5
363.351	14.59
363.714	14.59
364.078	14.57
364.442	14.41
364.806	14.34
365.169	14.39
365.533	14.37
365.896	14.19
366.26	14.08
366.623	14.1
366.987	14.02
367.35	13.95
367.714	13.91
368.077	13.88
368.44	13.82
368.803	13.82
369.167	13.83
369.53	13.72
369.893	13.73
370.256	13.74
370.619	13.69
370.982	13.53
371.345	13.45
371.708	13.36
372.071	13.38
372.434	13.28
372.797	13.22
373.159	13.19
373.522	13.23
373.885	13.18
374.247	13.09
374.61	13.15
374.973	13.11
375.335	13.05
375.698	12.97
376.06	12.89
376.423	12.78
376.785	12.72
377.147	12.73
377.51	12.66
377.872	12.65
378.234	12.6
378.596	12.56
378.958	12.51
379.321	12.44
379.683	12.42
380.045	12.4
380.407	12.28
380.769	12.22
381.13	12.08
381.492	12.01
381.854	11.98
382.216	11.87
382.578	11.8
382.939	11.72
383.301	11.67
383.663	11.69
384.024	11.73
384.386	11.68
384.747	11.63
385.109	11.58
385.47	11.47
385.832	11.41
386.193	11.37
386.554	11.31
386.916	11.28
387.277	11.2
387.638	11.18
387.999	11.14
388.36	11.07
388.721	11.04
389.082	11.01
389.443	10.93
389.804	10.9
390.165	10.83
390.526	10.78
390.887	10.75
391.248	10.67
391.609	10.61
391.969	10.55
392.33	10.48
392.691	10.47
393.051	10.43
393.412	10.39
393.772	10.34
394.133	10.31
394.493	10.26
394.854	10.21
395.214	10.11
395.574	10.06
395.935	9.98
396.295	9.91
396.655	9.84
397.015	9.78
397.376	9.73
397.736	9.71
398.096	9.66
398.456	9.6
398.816	9.57
399.176	9.47
399.535	9.38
399.895	9.3
400.255	9.22
400.615	9.18
400.975	9.14
401.334	9.07
401.694	9.02
402.054	9
402.413	8.99
402.773	8.95
403.132	8.92
403.492	8.93
403.851	8.9
404.211	8.87
404.57	8.85
404.929	8.85
405.288	8.84
405.648	8.81
406.007	8.76
406.366	8.68
406.725	8.68
407.084	8.67
407.443	8.65
407.802	8.63
408.161	8.6
408.52	8.54
408.879	8.53
409.238	8.53
409.596	8.47
409.955	8.41
410.314	8.38
410.673	8.38
411.031	8.35
411.39	8.31
411.748	8.31
412.107	8.33
412.465	8.24
412.824	8.21
413.182	8.22
413.54	8.21
413.899	8.24
414.257	8.2
414.615	8.14
414.974	8.11
415.332	8.09
415.69	8.03
416.048	8
416.406	7.97
416.764	7.89
417.122	7.87
417.48	7.86
417.838	7.86
418.195	7.81
418.553	7.77
418.911	7.76
419.269	7.73
419.626	7.69
419.984	7.69
420.342	7.66
420.699	7.62
421.057	7.59
421.414	7.55
421.772	7.53
422.129	7.51
422.486	7.5
422.844	7.48
423.201	7.46
423.558	7.45
423.915	7.42
424.273	7.41
424.63	7.38
424.987	7.35
425.344	7.33
425.701	7.32
426.058	7.29
426.415	7.27
426.772	7.25
427.128	7.22
427.485	7.2
427.842	7.17
428.199	7.15
428.555	7.14
428.912	7.13
429.269	7.13
429.625	7.12
429.982	7.09
430.338	7.09
430.695	7.11
431.051	7.09
431.407	7.09
431.764	7.1
432.12	7.12
432.476	7.12
432.832	7.11
433.189	7.1
433.545	7.14
433.901	7.12
434.257	7.11
434.613	7.13
434.969	7.1
435.325	7.11
435.681	7.12
436.036	7.12
436.392	7.13
436.748	7.13
437.104	7.1
437.459	7.13
437.815	7.1
438.171	7.1
438.526	7.14
438.882	7.13
439.237	7.1
439.593	7.09
439.948	7.09
440.304	7.09
440.659	7.08
441.014	7.05
441.369	7.05
441.725	7.05
442.08	7.02
442.435	7.01
442.79	7.01
443.145	7.01
443.5	6.99
443.855	6.97
444.21	6.96
444.565	6.97
444.92	6.94
445.275	6.93
445.629	6.9
445.984	6.87
446.339	6.87
446.693	6.85
447.048	6.83
447.403	6.82
447.757	6.78
448.112	6.76
448.466	6.75
448.82	6.73
449.175	6.72
449.529	6.72
449.883	6.67
450.238	6.65
450.592	6.63
450.946	6.62
451.3	6.61
451.654	6.59
452.008	6.59
452.362	6.58
452.716	6.58
453.07	6.58
453.424	6.58
453.778	6.56
454.132	6.56
454.486	6.54
454.839	6.55
455.193	6.57
455.547	6.58
455.9	6.59
456.254	6.61
456.607	6.6
456.961	6.61
457.314	6.65
457.668	6.66
458.021	6.66
458.375	6.65
458.728	6.65
459.081	6.67
459.434	6.67
459.787	6.68
460.141	6.67
460.494	6.69
460.847	6.71
461.2	6.71
461.553	6.74
461.906	6.77
462.259	6.77
462.611	6.8
462.964	6.82
463.317	6.85
463.67	6.86
464.022	6.9
464.375	6.9
464.728	6.92
465.08	6.94
465.433	6.96
465.785	7.01
466.138	7.05
466.49	7.04
466.843	7.07
467.195	7.08
467.547	7.13
467.899	7.16
468.252	7.15
468.604	7.16
468.956	7.17
469.308	7.18
469.66	7.2
470.012	7.19
470.364	7.19
470.716	7.17
471.068	7.18
471.42	7.18
471.772	7.23
472.123	7.25
472.475	7.27
472.827	7.26
473.178	7.27
473.53	7.27
473.882	7.29
474.233	7.28
474.585	7.28
474.936	7.26
475.288	7.25
475.639	7.28
475.99	7.3
476.342	7.29
476.693	7.3
477.044	7.3
477.395	7.31
477.746	7.29
478.097	7.31
478.448	7.29
478.8	7.29
479.15	7.24
479.501	7.25
479.852	7.25
480.203	7.24
480.554	7.23
480.905	7.24
481.255	7.24
481.606	7.23
481.957	7.24
482.307	7.25
482.658	7.24
483.009	7.25
483.359	7.25
483.709	7.25
484.06	7.25
484.41	7.25
484.761	7.26
485.111	7.27
485.461	7.26
485.811	7.28
486.162	7.29
486.512	7.32
486.862	7.31
487.212	7.31
487.562	7.33
487.912	7.34
488.262	7.36
488.612	7.37
488.961	7.4
489.311	7.4
489.661	7.42
490.011	7.43
490.36	7.43
490.71	7.45
491.06	7.47
491.409	7.49
491.759	7.51
492.108	7.53
492.458	7.56
492.807	7.6
493.157	7.65
493.506	7.66
493.855	7.7
494.204	7.72
494.554	7.77
494.903	7.8
495.252	7.85
495.601	7.88
495.95	7.94
496.299	7.98
496.648	8.03
496.997	8.07
497.346	8.16
497.695	8.23
498.043	8.3
498.392	8.36
498.741	8.43
499.09	8.5
499.438	8.59
499.787	8.68
500.135	8.77
500.484	8.82
500.832	8.91
501.181	8.98
501.529	9.1
501.878	9.21
502.226	9.3
502.574	9.39
502.923	9.49
503.271	9.59
503.619	9.72
503.967	9.85
504.315	9.96
504.663	10.07
505.011	10.22
505.359	10.33
505.707	10.46
506.055	10.59
506.403	10.74
506.751	10.85
507.098	10.99
507.446	11.1
507.794	11.24
508.141	11.38
508.489	11.52
508.837	11.66
509.184	11.8
509.531	11.94
509.879	12.09
510.226	12.23
510.574	12.36
510.921	12.46
511.268	12.59
511.616	12.76
511.963	12.93
512.31	13.06
512.657	13.23
513.004	13.39
513.351	13.58
513.698	13.74
514.045	13.92
514.392	14.08
514.739	14.3
515.086	14.48
515.432	14.64
515.779	14.8
516.126	14.96
516.473	15.11
516.819	15.3
517.166	15.44
517.512	15.61
517.859	15.77
518.205	15.94
518.552	16.1
518.898	16.2
519.245	16.34
519.591	16.48
519.937	16.63
520.283	16.78
520.629	16.92
520.976	17.08
521.322	17.24
521.668	17.42
522.014	17.58
522.36	17.77
522.706	17.98
523.052	18.21
523.398	18.48
523.743	18.7
524.089	18.95
524.435	19.19
524.781	19.42
525.126	19.63
525.472	19.83
525.817	20
526.163	20.2
526.509	20.34
526.854	20.49
527.199	20.62
527.545	20.76
527.89	20.9
528.235	21.04
528.581	21.19
528.926	21.34
529.271	21.49
529.616	21.65
529.961	21.78
530.306	21.93
530.651	22.04
530.996	22.21
531.341	22.35
531.686	22.52
532.031	22.68
532.376	22.85
532.721	23.01
533.065	23.2
533.41	23.36
533.755	23.57
534.099	23.78
534.444	23.96
534.788	24.15
535.133	24.35
535.477	24.55
535.822	24.77
536.166	24.99
536.51	25.23
536.855	25.46
537.199	25.75
537.543	26.02
537.887	26.32
538.231	26.59
538.576	26.88
538.92	27.13
539.264	27.41
539.608	27.66
539.951	27.92
540.295	28.11
540.639	28.34
540.983	28.53
541.327	28.71
541.671	28.92
542.014	29.13
542.358	29.33
542.701	29.53
543.045	29.7
543.389	29.88
543.732	30.04
544.075	30.23
544.419	30.41
544.762	30.62
545.105	30.82
545.449	31.05
545.792	31.28
546.135	31.52
546.478	31.76
546.821	32
547.165	32.25
547.508	32.53
547.851	32.82
548.194	33.08
548.536	33.37
548.879	33.65
549.222	33.92
549.565	34.23
549.908	34.47
550.25	34.77
550.593	35.08
550.936	35.37
551.278	35.68
551.621	35.97
551.963	36.23
552.306	36.51
552.648	36.77
552.991	37.01
553.333	37.26
553.675	37.45
554.017	37.74
554.36	37.97
554.702	38.21
555.044	38.45
555.386	38.7
555.728	38.93
556.07	39.18
556.412	39.43
556.754	39.63
557.096	39.86
557.438	40.09
557.78	40.29
558.121	40.54
558.463	40.75
558.805	40.99
559.147	41.19
559.488	41.42
559.83	41.61
560.171	41.83
560.513	42.05
560.854	42.27
561.196	42.4
561.537	42.57
561.878	42.81
562.22	42.99
562.561	43.17
562.902	43.37
563.243	43.52
563.584	43.69
563.925	43.83
564.266	44
564.607	44.09
564.948	44.3
565.289	44.43
565.63	44.6
565.971	44.73
566.312	44.85
566.653	44.94
566.993	45.08
567.334	45.22
567.675	45.35
568.015	45.54
568.356	45.65
568.696	45.81
569.037	45.98
569.377	46.05
569.718	46.18
570.058	46.33
570.398	46.4
570.739	46.53
571.079	46.69
571.419	46.83
571.759	46.99
572.099	47.1
572.439	47.21
572.779	47.29
573.119	47.42
573.459	47.6
573.799	47.76
574.139	47.91
574.479	48.05
574.819	48.15
575.158	48.23
575.498	48.34
575.838	48.42
576.177	48.45
576.517	48.62
576.856	48.74
577.196	48.8
577.535	48.95
577.875	49.04
578.214	49.11
578.553	49.22
578.893	49.27
579.232	49.36
579.571	49.48
579.91	49.62
580.25	49.69
580.589	49.78
580.928	49.86
581.267	49.91
581.606	49.94
581.945	50.02
582.283	50.06
582.622	50.16
582.961	50.24
583.3	50.3
583.639	50.35
583.977	50.43
584.316	50.59
584.654	50.71
584.993	50.8
585.332	50.94
585.67	51
586.008	51.11
586.347	51.15
586.685	51.24
587.024	51.37
587.362	51.43
587.7	51.48
588.038	51.5
588.376	51.57
588.715	51.68
589.053	51.76
589.391	51.85
589.729	51.92
590.067	52.02
590.404	52.2
590.742	52.26
591.08	52.33
591.418	52.33
591.756	52.34
592.093	52.31
592.431	52.29
592.769	52.31
593.106	52.4
593.444	52.44
593.781	52.48
594.119	52.54
594.456	52.6
594.793	52.58
595.131	52.65
595.468	52.69
595.805	52.68
596.143	52.77
596.48	52.79
596.817	52.83
597.154	52.8
597.491	52.75
597.828	52.8
598.165	52.8
598.502	52.84
598.839	52.94
599.176	53.02
599.512	53.08
599.849	53.18
600.186	53.21
600.523	53.28
600.859	53.35
601.196	53.32
601.532	53.34
601.869	53.4
602.205	53.43
602.542	53.51
602.878	53.44
603.215	53.44
603.551	53.46
603.887	53.5
604.223	53.52
604.56	53.6
604.896	53.66
605.232	53.75
605.568	53.75
605.904	53.75
606.24	53.86
606.576	53.93
606.912	53.95
607.248	54.01
607.583	54.01
607.919	54.02
608.255	54.05
608.591	54.12
608.926	54.12
609.262	54.16
609.597	54.13
609.933	54.33
610.268	54.27
610.604	54.34
610.939	54.34
611.275	54.41
611.61	54.39
611.945	54.33
612.281	54.38
612.616	54.48
612.951	54.55
613.286	54.57
613.621	54.58
613.956	54.64
614.291	54.66
614.626	54.72
614.961	54.68
615.296	54.75
615.631	54.74
615.966	54.85
616.3	54.88
616.635	54.99
616.97	54.91
617.304	54.99
617.639	54.98
617.973	55.05
618.308	55.05
618.642	55.15
618.977	55.3
619.311	55.3
619.646	55.3
619.98	55.35
620.314	55.33
620.648	55.33
620.983	55.28
621.317	55.29
621.651	55.35
621.985	55.48
622.319	55.45
622.653	55.57
622.987	55.61
623.321	55.65
623.655	55.7
623.988	55.77
624.322	55.81
624.656	55.88
624.99	55.86
625.323	55.86
625.657	55.78
625.99	55.68
626.324	55.71
626.657	55.74
626.991	55.69
627.324	55.71
627.658	55.73
627.991	55.85
628.324	55.82
628.657	55.8
628.991	55.75
629.324	55.85
629.657	55.85
629.99	55.87
630.323	55.85
630.656	55.76
630.989	55.75
631.322	55.77
631.655	55.8
631.987	55.84
632.32	55.83
632.653	55.86
632.986	55.92
633.318	55.89
633.651	55.86
633.984	55.88
634.316	55.89
634.649	55.88
634.981	55.73
635.313	55.76
635.646	55.84
635.978	55.85
636.31	55.8
636.643	55.74
636.975	55.69
637.307	55.7
637.639	55.81
637.971	55.78
638.303	55.77
638.635	55.72
638.967	55.77
639.299	55.9
639.631	55.99
639.963	56
640.295	56.14
640.626	56.23
640.958	56.2
641.29	56.24
641.621	56.26
641.953	56.37
642.285	56.46
642.616	56.45
642.948	56.45
643.279	56.45
643.61	56.52
643.942	56.59
644.273	56.58
644.604	56.49
644.936	56.61
645.267	56.64
645.598	56.64
645.929	56.62
646.26	56.6
646.591	56.58
646.922	56.59
647.253	56.5
647.584	56.44
647.915	56.57
648.245	56.48
648.576	56.44
648.907	56.43
649.238	56.31
649.568	56.29
649.899	56.29
650.229	56.2
650.56	56.17
650.89	56.18
651.221	56.19
651.551	56.25
651.882	56.2
652.212	56.22
652.542	56.18
652.872	56.18
653.203	56.18
653.533	56.21
653.863	56.15
654.193	56.13
654.523	56.15
654.853	56
655.183	56.13
655.513	56.01
655.843	56.11
656.172	56.11
656.502	56.16
656.832	56.2
657.162	56.39
657.491	56.35
657.821	56.34
658.15	56.33
658.48	56.24
658.809	56.23
659.139	56.16
659.468	56.09
659.798	56.13
660.127	56.07
660.456	56.02
660.785	56.05
661.115	56.01
661.444	55.99
661.773	56.12
662.102	56.03
662.431	56.18
662.76	56.1
663.089	56.09
663.418	56.01
663.747	55.86
664.076	55.82
664.404	55.88
664.733	55.92
665.062	55.92
665.39	55.93
665.719	55.95
666.048	56.14
666.376	56.24
666.705	56.15
667.033	56.23
667.362	56.34
667.69	56.26
668.018	56.21
668.347	56.19
668.675	56.11
669.003	56.08
669.331	56.17
669.659	56.13
669.987	56.16
670.315	56.2
670.643	56.3
670.971	56.23
671.299	56.18
671.627	56.14
671.955	56.2
672.283	56.38
672.61	56.33
672.938	56.19
673.266	56.22
673.593	56.33
673.921	56.29
674.249	56.28
674.576	56.44
674.904	56.62
675.231	56.83
675.558	56.98
675.886	57.13
676.213	57.12
676.54	57.17
676.867	57.18
677.195	57.22
677.522	57.27
677.849	57.2
678.176	57.22
678.503	57.22
678.83	57.3
679.157	57.15
679.484	57.31
679.81	57.33
680.137	57.39
680.464	57.42
680.791	57.51
681.117	57.46
681.444	57.3
681.771	57.31
682.097	57.31
682.424	57.15
682.75	57.17
683.077	57.17
683.403	57.13
683.729	57.16
684.056	57.18
684.382	57.14
684.708	57.31
685.034	57.36
685.36	57.27
685.686	57.11
686.012	57.11
686.339	56.93
686.664	56.99
686.99	56.99
687.316	56.89
687.642	56.86
687.968	56.83
688.294	57.16
688.619	57.03
688.945	56.97
689.271	57.01
689.596	56.93
689.922	56.86
690.247	56.81
690.573	56.81
690.898	56.74
691.224	56.7
691.549	56.64
691.874	56.48
692.2	56.48
692.525	56.54
692.85	56.76
693.175	56.89
693.5	56.9
693.825	56.8
694.15	56.92
694.475	56.83
694.8	56.9
695.125	56.69
695.45	56.7
695.775	56.72
696.099	56.85
696.424	56.8
696.749	56.77
697.073	56.91
697.398	56.91
697.723	56.92
698.047	56.97
698.372	56.98
698.696	57.1
699.02	57.23
699.345	57.1
699.669	57.07
699.993	56.97
700.318	56.9
700.642	56.89
700.966	56.77
701.29	56.89
701.614	56.76
701.938	56.81
702.262	56.96
702.586	56.96
702.91	56.87
703.234	56.78
703.557	56.86
703.881	56.87
704.205	56.86
704.529	56.9
704.852	56.94
705.176	56.92
705.499	56.94
705.823	56.99
706.146	57.11
706.47	57.14
706.793	57.27
707.117	57.16
707.44	57.15
707.763	57.2
708.086	57.11
708.409	57.14
708.733	57.1
709.056	56.92
709.379	56.88
709.702	56.73
710.025	56.72
710.348	56.87
710.671	56.66
710.993	56.9
711.316	57.02
711.639	57.05
711.962	57.01
712.284	56.93
712.607	56.72
712.93	56.86
713.252	56.69
713.575	56.77
713.897	56.84
714.22	56.82
714.542	56.89
714.864	56.82
715.187	56.86
715.509	56.97
715.831	57.03
716.153	57.02
716.475	57.21
716.798	57.3
717.12	57.05
717.442	57.26
717.764	57.25
718.085	57.08
718.407	56.9
718.729	56.86
719.051	56.87
719.373	56.89
719.695	56.73
720.016	56.96
720.338	56.84
720.659	56.88
720.981	56.99
721.302	56.83
721.624	56.87
721.945	56.78
722.267	56.73
722.588	56.62
722.909	56.47
723.231	56.23
723.552	56.42
723.873	56.68
724.194	56.68
724.515	56.6
724.836	56.71
725.157	56.9
725.478	56.91
725.799	56.89
726.12	57
726.441	57.02
726.762	56.76
727.083	56.65
727.403	56.58
727.724	56.56
728.045	56.49
728.365	56.35
728.686	56.53
729.006	56.45
729.327	56.39
729.647	56.46
729.967	56.64
730.288	56.66
730.608	56.57
730.928	56.52
731.249	56.3
731.569	56.22
731.889	56.27
732.209	56.32
732.529	56.28
732.849	56.07
733.169	55.95
733.489	56.01
733.809	56.04
734.129	55.99
734.448	56.21
734.768	56.21
735.088	56.36
735.408	56.42
735.727	56.26
736.047	56.45
736.366	56.39
736.686	56.27
737.005	56.12
737.325	56.04
737.644	55.96
737.963	55.83
738.283	55.85
738.602	55.57
738.921	55.67
739.24	55.98
739.56	56.15
739.879	56.22
740.198	56.48
740.517	56.59
740.836	56.65
741.155	56.25
741.473	56.38
741.792	56.49
742.111	56.47
742.43	56.83
742.748	56.97
743.067	57.15
743.386	57.07
743.704	57.03
744.023	57.21
744.341	57.43
744.66	57.73
744.978	57.58
745.297	57.77
745.615	58.05
745.933	57.77
746.252	57.78
746.57	58.09
746.888	57.9
747.206	57.67
747.524	57.72
747.842	57.82
748.16	57.98
748.478	57.67
748.796	57.79
749.114	57.49
749.432	57.18
749.749	56.9
750.067	57.05
750.385	57.22
750.703	57.18
751.02	56.95
751.338	57
751.655	56.96
751.973	57.09
752.29	56.53
752.608	56.52
752.925	56.63
753.242	56.27
753.56	56.03
753.877	55.97
754.194	56.13
754.511	56.35
754.828	56.38
755.145	56.44
755.462	56.21
755.779	56.13
756.096	56.18
756.413	56.26
756.73	56.18
757.047	55.79
757.364	55.68
757.68	55.76
757.997	55.61
758.314	55.88
758.63	55.81
758.947	56.04
759.264	56.02
759.58	55.81
759.896	56.26
760.213	56.32
760.529	56.5
760.846	56.49
761.162	56.38
761.478	55.99
761.794	56.17
762.11	55.96
762.426	56.34
762.743	56.31
763.059	56.31
763.375	56.57
763.69	56.95
764.006	56.91
764.322	56.95
764.638	57.02
764.954	57.09
765.27	56.9
765.585	56.79
765.901	56.74
766.216	56.89
766.532	56.73
766.848	56.72
767.163	56.51
767.478	56.45
767.794	56.46
768.109	56.63
768.424	56.66
768.74	57.04
769.055	56.68
769.37	56.82
769.685	57.01
770	57.01
770.315	56.81
770.63	56.96
770.945	57.04
771.26	56.8
771.575	56.54
771.89	57.19
772.205	56.85
772.52	56.71
772.834	56.73
773.149	56.57
773.464	56.31
773.778	56.55
774.093	56.77
774.407	56.88
774.722	57.15
775.036	56.77
775.351	56.63
775.665	56.5
775.979	56.04
776.293	55.64
776.608	55.16
776.922	55.21
777.236	54.86
777.55	54.4
777.864	54.22
778.178	54.17
778.492	53.74
778.806	54.58
779.12	55.01
779.434	55.15
779.747	55.75
780.061	55.95
780.375	56.22
780.689	55.69
781.002	55.62
781.316	55.66
781.629	56.2
781.943	56.55
782.256	56.69
782.57	56.68
782.883	56.82
783.196	56.66
783.51	56.61
783.823	56.45
784.136	56.66
784.449	57.14
784.762	57.05
785.075	57.13
785.388	56.52
785.701	56.24
786.014	56.09
786.327	55.29
786.64	55.71
786.953	55.9
787.266	55.96
787.578	55.84
787.891	56.32
788.204	55.78
788.516	55.71
788.829	55.66
789.141	55.73
789.454	55.82
789.766	56.66
790.079	56.72
790.391	56.7
790.703	56.83
791.016	56.53
791.328	56.26
791.64	56.09
791.952	55.99
792.264	55.98
792.576	55.95
792.888	56.35
793.2	55.97
793.512	55.62
793.824	56.2
794.136	56.36
794.448	55.63
794.76	55.43
795.071	55.39
795.383	55.45
795.695	55.74
796.006	55.97
796.318	55.76
796.629	55.62
796.941	55.61
797.252	55.8
797.564	55.86
797.875	56.39
798.186	56.38
798.497	56.94
798.809	57.2
799.12	57.39
799.431	56.96
799.742	56.77
800.053	57
800.364	56.61
800.675	56.09
800.986	56.2
801.297	56.88
801.608	56.39
801.918	56.44
802.229	56.45
802.54	55.95
802.851	55.59
803.161	55.71
803.472	56.24
803.782	55.84
804.093	56.12
804.403	55.68
804.714	55.7
805.024	55.41
805.334	55.84
805.645	55.69
805.955	55.61
806.265	55.94
806.575	55.61
806.885	55.25
807.195	55.52
807.505	55.62
807.815	55.66
808.125	55.54
808.435	55.51
808.745	55.27
809.055	55.64
809.365	55.53
809.674	55.17
809.984	55.47
810.294	55.84
810.603	56.05
810.913	57.48
811.222	57.98
811.532	58.07
811.841	57.9
812.151	57.29
812.46	57.7
812.769	58.28
813.079	57.92
813.388	58.55
813.697	59.08
814.006	58.32
814.315	57.85
814.624	58.16
814.933	58.44
815.242	58.84
815.551	58.92
815.86	58.88
816.169	59.1
816.478	58.36
816.786	57.94
817.095	57.57
817.404	56.54
817.712	56.15
818.021	56.35
818.33	55.76
818.638	56.09
818.947	56.86
819.255	56.35
819.563	56
819.872	56.51
820.18	56.58
820.488	57.32
820.796	57.32
821.105	57.16
821.413	57.25
821.721	57.31
822.029	57.26
822.337	57.42
822.645	57.64
822.953	57.77
823.26	57.95
823.568	58.02
823.876	58.14
824.184	58.12
824.491	57.98
824.799	58.13
825.107	58.14
825.414	57.96
825.722	58.18
826.029	58.58
826.337	58.43
826.644	58.21
826.951	58
827.259	58.19
827.566	58.18
827.873	58.13
828.18	58.03
828.488	58.19
828.795	58.38
829.102	57.94
829.409	57.92
829.716	57.73
830.023	57.72
830.329	57.57
830.636	57.94
830.943	58.31
831.25	58.41
831.557	58.2
831.863	57.99
832.17	57.6
832.476	57.25
832.783	57.34
833.089	57.79
833.396	57.85
833.702	58.19
834.009	58.69
834.315	58.95
834.621	58.81
834.928	58.52
835.234	58.3
835.54	58.22
835.846	58.69
836.152	58.57
836.458	58.39
836.764	58.19
837.07	57.19
837.376	56.93
837.682	56.43
837.988	57.01
838.293	56.71
838.599	56.71
838.905	56.54
839.211	55.73
839.516	56.04
839.822	55.67
840.127	54.51
840.433	54.53
840.738	53.03
841.044	53.47
841.349	53.1
841.654	52.51
841.959	52.99
842.265	52.04
842.57	51.69
842.875	51.64
843.18	52.78
843.485	52.86
843.79	52.53
844.095	52.41
844.4	52.03
844.705	52.32
845.01	52.99
845.315	53.12
845.619	52.55
845.924	51.4
846.229	51.14
846.533	51.88
846.838	50.13
847.142	50.13
847.447	49.45
847.751	49.48
848.056	47.78
848.36	49.41
848.664	48.12
848.969	49.33
849.273	49.98
849.577	47.42
849.881	48.41
850.185	47.17
850.489	47.97
850.794	48.14
851.097	48.1
851.401	48.49
851.705	48.33
852.009	51.17
852.313	51.57
852.617	50.46
852.92	49.12
853.224	49.42
853.528	51.98
853.831	51.29
854.135	52.31
854.438	55.9
854.742	55.49
855.045	55.67
855.349	53
855.652	52.43
855.955	53.86
856.259	53.81
856.562	54.5
856.865	54.61
857.168	54.97
857.471	55.75
857.774	55.17
858.077	55.68
858.38	53.7
858.683	51.79
858.986	52.56
859.289	53.82
859.592	53.45
859.894	52.16
860.197	54.16
860.5	52.82
860.802	49.3
861.105	47.5
861.407	46.78
861.71	47.83
862.012	46.1
862.315	44.07
862.617	43.83
862.919	43.38
863.222	42.45
863.524	43.16
863.826	44.82
864.128	44.92
864.43	45.1
864.732	45.68
865.034	46.95
865.336	47.03
865.638	45.8
865.94	44.6
866.242	43.54
866.544	41.57
866.846	43.88
867.147	45.87
867.449	47.39
867.751	49.85
868.052	49.98
868.354	50.36
868.655	52.12
868.957	52.02
869.258	54.65
869.56	55.44
869.861	52.43
870.162	48.77
870.463	47.39
870.765	49.41
871.066	49.45
871.367	48.48
871.668	48.08
871.969	47.29
872.27	48.22
872.571	50.8
872.872	51.8
873.173	48.68
873.473	48.44
873.774	50.5
874.075	50.27
874.376	51.23
874.676	52.75
874.977	51.96
875.277	53.29
875.578	49.66
875.878	48.69
876.179	50.01
876.479	51.68
876.78	52.19
877.08	49.3
877.38	49.46
877.68	50.76
877.981	51.78
878.281	53.43
878.581	55.85
