Data from BA28471_Reflection_00015.txt Node
Date: Mon Nov 18 15:21:41 EST 2019
User: vgr7
Spectrometer: USB2G7710
Scans to average: 3
Trigger mode: 4
Integration Time (sec): 2.000000E-2
Electric dark correction enabled: true
Boxcar width: 10
XAxis mode: Wavelengths
Number of Pixels in Spectrum: 2048
>>>>>Begin Spectral Data<<<<<
177.721	534.13
178.105	-264.16
178.488	-55.59
178.871	-19
179.254	30.71
179.636	-36.81
180.019	92.29
180.402	56.41
180.785	1798.8
181.168	34.18
181.55	119.03
181.933	86.58
182.316	110.83
182.698	144.22
183.081	74.09
183.463	115.74
183.846	309.08
184.228	239.15
184.611	651.02
184.993	5582.76
185.376	-1075.12
185.758	-394.06
186.14	-1270.86
186.522	-14268.42
186.904	973.2
187.287	740.07
187.669	-794.46
188.051	-420.66
188.433	-245.92
188.815	-163.64
189.197	-176.75
189.579	-151.87
189.961	-141.08
190.342	-179.94
190.724	-145.26
191.106	-150.87
191.488	-201.56
191.869	-204.39
192.251	-243.27
192.633	-296.56
193.014	-620.57
193.396	-767.67
193.777	-766.94
194.159	-1183.08
194.54	-434.69
194.922	-305.53
195.303	-555.85
195.684	-569.54
196.065	-312.84
196.447	-435.39
196.828	-770.05
197.209	-353.14
197.59	-346.81
197.971	-373.13
198.352	-284.06
198.733	-937.53
199.114	-686.78
199.495	-300.19
199.876	-207.63
200.257	-147.03
200.638	-93.19
201.018	-98.61
201.399	-85.83
201.78	-69.66
202.16	-71.2
202.541	-69.22
202.922	-79.23
203.302	-89.5
203.683	-85.43
204.063	-86.61
204.444	-68.79
204.824	-67.54
205.204	-65.78
205.585	-74.86
205.965	-42.72
206.345	-48.14
206.725	-53.86
207.106	-58.57
207.486	-44.13
207.866	-48
208.246	-52.37
208.626	-69.13
209.006	-55.82
209.386	-69.59
209.766	-129.95
210.145	-105.3
210.525	-100.54
210.905	-72.02
211.285	-46.16
211.664	-37
212.044	-47.14
212.424	-46.21
212.803	-58.14
213.183	-66.62
213.562	-73.42
213.942	-100.5
214.321	-95.42
214.701	-114.56
215.08	-106
215.459	-102.78
215.838	-104.66
216.218	-79.69
216.597	-49.04
216.976	-44.59
217.355	-25.98
217.734	-8.63
218.113	-4.02
218.492	3.99
218.871	-2.28
219.25	-4.46
219.629	-17.26
220.008	-18.83
220.387	-23.57
220.766	-20.73
221.144	-9.53
221.523	-5.19
221.902	11.84
222.28	11.41
222.659	7.14
223.037	20.37
223.416	7.81
223.794	14.48
224.173	11.33
224.551	7.85
224.929	8.16
225.308	10.22
225.686	16.14
226.064	11.45
226.442	5.91
226.821	3.64
227.199	-2.95
227.577	-2.46
227.955	-2.71
228.333	-3.32
228.711	3.9
229.089	4.66
229.467	2.45
229.845	0.2
230.222	0.57
230.6	1.72
230.978	0.72
231.356	3.41
231.733	5.07
232.111	8.95
232.488	8.67
232.866	9.32
233.243	7.94
233.621	6.75
233.998	7.69
234.376	6.69
234.753	7.08
235.13	10.04
235.508	11.63
235.885	11.09
236.262	11.72
236.639	8.33
237.016	8.49
237.393	9.49
237.77	9.89
238.147	9.88
238.524	9.4
238.901	9.71
239.278	9.11
239.655	9.23
240.032	8.44
240.409	8
240.785	7.42
241.162	7.41
241.539	7.29
241.915	7.32
242.292	7.62
242.668	7.9
243.045	7.62
243.421	7.25
243.798	7.31
244.174	7.39
244.551	7.78
244.927	7.55
245.303	7.9
245.679	8.29
246.056	8.47
246.432	8.62
246.808	8.56
247.184	8.22
247.56	8
247.936	7.98
248.312	8.12
248.688	8.36
249.064	8.42
249.44	8.52
249.815	8.59
250.191	8.78
250.567	8.98
250.943	8.73
251.318	8.9
251.694	9.19
252.069	9.41
252.445	9.68
252.82	9.99
253.196	9.99
253.571	9.91
253.947	9.73
254.322	9.68
254.697	9.53
255.073	9.61
255.448	9.47
255.823	9.47
256.198	9.56
256.573	9.56
256.948	9.42
257.323	9.33
257.698	9.25
258.073	9.07
258.448	8.81
258.823	8.91
259.198	8.88
259.573	8.85
259.948	8.63
260.322	8.47
260.697	8.26
261.072	8.08
261.446	7.92
261.821	7.85
262.195	7.81
262.57	7.86
262.944	7.89
263.319	7.83
263.693	7.7
264.067	7.65
264.442	7.6
264.816	7.53
265.19	7.34
265.564	7.22
265.938	7.15
266.313	7.02
266.687	7.08
267.061	7.06
267.435	7.08
267.809	7.17
268.183	7.29
268.556	7.4
268.93	7.51
269.304	7.69
269.678	7.77
270.051	7.86
270.425	7.94
270.799	8.01
271.172	8.01
271.546	7.87
271.919	7.7
272.293	7.61
272.666	7.64
273.04	7.72
273.413	7.68
273.787	7.72
274.16	7.84
274.533	7.8
274.906	7.89
275.279	7.78
275.653	7.72
276.026	7.54
276.399	7.43
276.772	7.41
277.145	7.26
277.518	7.16
277.891	7.06
278.263	6.96
278.636	6.9
279.009	6.92
279.382	7.22
279.755	7.23
280.127	7.58
280.5	7.79
280.872	7.8
281.245	7.88
281.617	7.84
281.99	7.89
282.362	8.03
282.735	7.85
283.107	7.91
283.479	8.02
283.852	8.18
284.224	8.24
284.596	8.21
284.968	8.17
285.34	8.16
285.713	8.26
286.085	8.29
286.457	8.43
286.829	8.53
287.201	8.5
287.572	8.48
287.944	8.37
288.316	8.43
288.688	8.54
289.06	8.67
289.431	8.84
289.803	8.91
290.175	8.93
290.546	9.18
290.918	9.3
291.289	9.25
291.661	9.29
292.032	9.46
292.403	9.56
292.775	9.85
293.146	9.92
293.517	10.01
293.889	10.14
294.26	10.2
294.631	10.41
295.002	10.53
295.373	10.75
295.744	10.91
296.115	10.89
296.486	10.9
296.857	10.98
297.228	10.99
297.599	11.08
297.97	11.11
298.34	11.05
298.711	11.11
299.082	11.31
299.452	11.42
299.823	11.63
300.194	11.8
300.564	11.78
300.935	12.02
301.305	12.1
301.676	12.29
302.046	12.43
302.416	12.51
302.787	12.64
303.157	12.78
303.527	12.74
303.897	12.83
304.267	13.1
304.637	13.25
305.008	13.36
305.378	13.5
305.748	13.72
306.117	13.91
306.487	14.1
306.857	14.18
307.227	14.26
307.597	14.26
307.967	14.25
308.336	14.45
308.706	14.56
309.076	14.71
309.445	14.7
309.815	14.88
310.184	14.97
310.554	15.14
310.923	15.22
311.293	15.44
311.662	15.52
312.031	15.62
312.401	15.69
312.77	15.95
313.139	16.09
313.508	16.16
313.877	16.2
314.246	16.22
314.616	16.29
314.985	16.42
315.353	16.55
315.722	16.63
316.091	16.71
316.46	16.87
316.829	16.93
317.198	17.06
317.567	17
317.935	17.05
318.304	17.05
318.672	17.2
319.041	17.24
319.41	17.42
319.778	17.4
320.147	17.63
320.515	17.71
320.883	17.67
321.252	17.59
321.62	17.72
321.988	17.82
322.357	17.99
322.725	18.12
323.093	18.39
323.461	18.56
323.829	18.86
324.197	18.94
324.565	19.02
324.933	19.04
325.301	19.24
325.669	19.35
326.037	19.5
326.405	19.57
326.772	19.52
327.14	19.53
327.508	19.7
327.875	19.45
328.243	19.48
328.61	19.52
328.978	19.65
329.346	19.78
329.713	19.85
330.08	20.01
330.448	20.08
330.815	19.82
331.182	19.9
331.55	19.77
331.917	19.66
332.284	19.82
332.651	19.9
333.018	19.99
333.385	20.1
333.752	20.18
334.119	20.29
334.486	20.41
334.853	20.59
335.22	20.6
335.587	20.75
335.954	20.77
336.32	20.88
336.687	21.03
337.054	21.06
337.42	21.04
337.787	21.04
338.153	21.05
338.52	21.23
338.886	21.27
339.253	21.2
339.619	21.44
339.986	21.53
340.352	21.69
340.718	21.8
341.084	21.8
341.451	21.8
341.817	21.88
342.183	21.9
342.549	21.94
342.915	22.05
343.281	22.13
343.647	22.18
344.013	22.25
344.379	22.24
344.745	22.28
345.11	22.53
345.476	22.63
345.842	22.73
346.208	22.77
346.573	22.93
346.939	23.13
347.304	23.09
347.67	23.05
348.035	23.03
348.401	23.03
348.766	23.09
349.132	23.1
349.497	22.98
349.862	23.16
350.228	23.21
350.593	23.31
350.958	23.47
351.323	23.46
351.688	23.61
352.053	23.78
352.418	23.87
352.783	23.76
353.148	23.68
353.513	23.7
353.878	23.72
354.243	23.83
354.608	23.81
354.972	23.82
355.337	23.79
355.702	23.82
356.066	23.88
356.431	23.92
356.795	24.09
357.16	24.27
357.524	24.19
357.889	24.16
358.253	24.07
358.618	24.04
358.982	24.1
359.346	24.02
359.71	23.97
360.075	23.92
360.439	23.98
360.803	24
361.167	24
361.531	24.01
361.895	23.92
362.259	23.9
362.623	23.95
362.987	24.06
363.351	24.1
363.714	24.1
364.078	24.05
364.442	23.92
364.806	23.8
365.169	23.81
365.533	23.79
365.896	23.75
366.26	23.64
366.623	23.53
366.987	23.41
367.35	23.32
367.714	23.34
368.077	23.27
368.44	23.25
368.803	23.19
369.167	23.16
369.53	23.07
369.893	23.08
370.256	23.05
370.619	22.97
370.982	22.94
371.345	22.76
371.708	22.7
372.071	22.68
372.434	22.61
372.797	22.53
373.159	22.52
373.522	22.49
373.885	22.48
374.247	22.45
374.61	22.51
374.973	22.5
375.335	22.43
375.698	22.35
376.06	22.3
376.423	22.27
376.785	22.26
377.147	22.18
377.51	22.08
377.872	22.01
378.234	21.92
378.596	21.82
378.958	21.78
379.321	21.75
379.683	21.67
380.045	21.64
380.407	21.62
380.769	21.59
381.13	21.56
381.492	21.55
381.854	21.51
382.216	21.42
382.578	21.39
382.939	21.34
383.301	21.31
383.663	21.2
384.024	21.12
384.386	21.1
384.747	21.07
385.109	21.06
385.47	20.97
385.832	20.93
386.193	20.84
386.554	20.85
386.916	20.81
387.277	20.77
387.638	20.75
387.999	20.68
388.36	20.54
388.721	20.46
389.082	20.4
389.443	20.33
389.804	20.26
390.165	20.19
390.526	20.13
390.887	20.05
391.248	20.06
391.609	20.05
391.969	19.94
392.33	19.87
392.691	19.84
393.051	19.81
393.412	19.75
393.772	19.71
394.133	19.62
394.493	19.57
394.854	19.47
395.214	19.34
395.574	19.26
395.935	19.2
396.295	19.11
396.655	19.01
397.015	18.95
397.376	18.87
397.736	18.8
398.096	18.7
398.456	18.64
398.816	18.56
399.176	18.44
399.535	18.29
399.895	18.24
400.255	18.12
400.615	18.04
400.975	17.93
401.334	17.86
401.694	17.79
402.054	17.69
402.413	17.68
402.773	17.68
403.132	17.66
403.492	17.61
403.851	17.6
404.211	17.54
404.57	17.46
404.929	17.41
405.288	17.37
405.648	17.31
406.007	17.27
406.366	17.25
406.725	17.22
407.084	17.25
407.443	17.19
407.802	17.18
408.161	17.11
408.52	17.1
408.879	17.06
409.238	17.01
409.596	16.99
409.955	16.89
410.314	16.81
410.673	16.74
411.031	16.7
411.39	16.64
411.748	16.59
412.107	16.55
412.465	16.5
412.824	16.45
413.182	16.43
413.54	16.33
413.899	16.25
414.257	16.21
414.615	16.12
414.974	16.09
415.332	16.01
415.69	15.93
416.048	15.85
416.406	15.79
416.764	15.73
417.122	15.69
417.48	15.65
417.838	15.61
418.195	15.59
418.553	15.49
418.911	15.43
419.269	15.37
419.626	15.31
419.984	15.24
420.342	15.17
420.699	15.13
421.057	15.07
421.414	15
421.772	14.94
422.129	14.89
422.486	14.81
422.844	14.76
423.201	14.71
423.558	14.66
423.915	14.6
424.273	14.55
424.63	14.47
424.987	14.4
425.344	14.33
425.701	14.24
426.058	14.22
426.415	14.17
426.772	14.13
427.128	14.08
427.485	14.08
427.842	14.04
428.199	13.96
428.555	13.95
428.912	13.94
429.269	13.89
429.625	13.86
429.982	13.86
430.338	13.84
430.695	13.82
431.051	13.84
431.407	13.81
431.764	13.79
432.12	13.81
432.476	13.81
432.832	13.81
433.189	13.83
433.545	13.79
433.901	13.79
434.257	13.79
434.613	13.84
434.969	13.81
435.325	13.8
435.681	13.82
436.036	13.81
436.392	13.81
436.748	13.82
437.104	13.82
437.459	13.83
437.815	13.85
438.171	13.86
438.526	13.84
438.882	13.85
439.237	13.85
439.593	13.85
439.948	13.86
440.304	13.85
440.659	13.83
441.014	13.85
441.369	13.83
441.725	13.8
442.08	13.76
442.435	13.74
442.79	13.73
443.145	13.71
443.5	13.69
443.855	13.64
444.21	13.6
444.565	13.58
444.92	13.53
445.275	13.47
445.629	13.42
445.984	13.38
446.339	13.34
446.693	13.3
447.048	13.25
447.403	13.21
447.757	13.17
448.112	13.12
448.466	13.07
448.82	13.03
449.175	13.01
449.529	12.97
449.883	12.91
450.238	12.85
450.592	12.83
450.946	12.77
451.3	12.75
451.654	12.71
452.008	12.69
452.362	12.65
452.716	12.62
453.07	12.62
453.424	12.61
453.778	12.58
454.132	12.57
454.486	12.55
454.839	12.55
455.193	12.57
455.547	12.57
455.9	12.59
456.254	12.59
456.607	12.6
456.961	12.6
457.314	12.61
457.668	12.62
458.021	12.62
458.375	12.63
458.728	12.65
459.081	12.68
459.434	12.67
459.787	12.7
460.141	12.72
460.494	12.74
460.847	12.78
461.2	12.82
461.553	12.84
461.906	12.86
462.259	12.91
462.611	12.96
462.964	13.01
463.317	13.08
463.67	13.15
464.022	13.21
464.375	13.25
464.728	13.33
465.08	13.43
465.433	13.51
465.785	13.58
466.138	13.64
466.49	13.69
466.843	13.75
467.195	13.82
467.547	13.9
467.899	13.95
468.252	13.98
468.604	14.04
468.956	14.1
469.308	14.17
469.66	14.2
470.012	14.23
470.364	14.29
470.716	14.32
471.068	14.34
471.42	14.36
471.772	14.45
472.123	14.48
472.475	14.47
472.827	14.47
473.178	14.49
473.53	14.51
473.882	14.51
474.233	14.55
474.585	14.53
474.936	14.52
475.288	14.52
475.639	14.51
475.99	14.5
476.342	14.49
476.693	14.45
477.044	14.44
477.395	14.43
477.746	14.4
478.097	14.37
478.448	14.32
478.8	14.31
479.15	14.27
479.501	14.27
479.852	14.29
480.203	14.29
480.554	14.29
480.905	14.27
481.255	14.29
481.606	14.28
481.957	14.27
482.307	14.27
482.658	14.26
483.009	14.24
483.359	14.24
483.709	14.23
484.06	14.23
484.41	14.23
484.761	14.23
485.111	14.21
485.461	14.21
485.811	14.2
486.162	14.21
486.512	14.21
486.862	14.2
487.212	14.19
487.562	14.2
487.912	14.22
488.262	14.23
488.612	14.23
488.961	14.25
489.311	14.26
489.661	14.28
490.011	14.31
490.36	14.34
490.71	14.36
491.06	14.4
491.409	14.44
491.759	14.47
492.108	14.52
492.458	14.61
492.807	14.68
493.157	14.77
493.506	14.83
493.855	14.9
494.204	14.98
494.554	15.07
494.903	15.15
495.252	15.24
495.601	15.36
495.95	15.48
496.299	15.59
496.648	15.73
496.997	15.85
497.346	15.98
497.695	16.12
498.043	16.27
498.392	16.42
498.741	16.56
499.09	16.71
499.438	16.86
499.787	16.98
500.135	17.14
500.484	17.27
500.832	17.44
501.181	17.62
501.529	17.78
501.878	17.99
502.226	18.18
502.574	18.33
502.923	18.48
503.271	18.67
503.619	18.87
503.967	19.06
504.315	19.26
504.663	19.46
505.011	19.68
505.359	19.91
505.707	20.07
506.055	20.27
506.403	20.47
506.751	20.63
507.098	20.82
507.446	21
507.794	21.22
508.141	21.4
508.489	21.57
508.837	21.77
509.184	21.91
509.531	22.1
509.879	22.35
510.226	22.55
510.574	22.71
510.921	22.87
511.268	23.05
511.616	23.19
511.963	23.39
512.31	23.54
512.657	23.7
513.004	23.93
513.351	24.16
513.698	24.34
514.045	24.58
514.392	24.79
514.739	24.99
515.086	25.16
515.432	25.35
515.779	25.6
516.126	25.82
516.473	26.04
516.819	26.2
517.166	26.36
517.512	26.54
517.859	26.69
518.205	26.88
518.552	27.04
518.898	27.22
519.245	27.36
519.591	27.55
519.937	27.71
520.283	27.85
520.629	28.04
520.976	28.25
521.322	28.43
521.668	28.64
522.014	28.84
522.36	29.07
522.706	29.32
523.052	29.55
523.398	29.82
523.743	30.06
524.089	30.39
524.435	30.66
524.781	30.93
525.126	31.17
525.472	31.42
525.817	31.63
526.163	31.81
526.509	31.96
526.854	32.11
527.199	32.28
527.545	32.42
527.89	32.53
528.235	32.69
528.581	32.8
528.926	32.97
529.271	33.11
529.616	33.25
529.961	33.38
530.306	33.52
530.651	33.67
530.996	33.85
531.341	33.97
531.686	34.12
532.031	34.27
532.376	34.45
532.721	34.6
533.065	34.77
533.41	34.95
533.755	35.16
534.099	35.36
534.444	35.55
534.788	35.77
535.133	35.97
535.477	36.11
535.822	36.38
536.166	36.62
536.51	36.9
536.855	37.19
537.199	37.52
537.543	37.82
537.887	38.1
538.231	38.39
538.576	38.72
538.92	38.96
539.264	39.27
539.608	39.53
539.951	39.78
540.295	39.98
540.639	40.21
540.983	40.43
541.327	40.65
541.671	40.85
542.014	41.02
542.358	41.23
542.701	41.45
543.045	41.66
543.389	41.88
543.732	42.08
544.075	42.26
544.419	42.41
544.762	42.61
545.105	42.82
545.449	43.02
545.792	43.21
546.135	43.45
546.478	43.66
546.821	43.9
547.165	44.18
547.508	44.49
547.851	44.75
548.194	45
548.536	45.23
548.879	45.54
549.222	45.86
549.565	46.14
549.908	46.45
550.25	46.72
550.593	46.89
550.936	47.16
551.278	47.49
551.621	47.81
551.963	48.09
552.306	48.35
552.648	48.67
552.991	48.92
553.333	49.15
553.675	49.36
554.017	49.63
554.36	49.85
554.702	50.08
555.044	50.4
555.386	50.63
555.728	50.92
556.07	51.15
556.412	51.45
556.754	51.69
557.096	51.9
557.438	52.14
557.78	52.43
558.121	52.66
558.463	52.86
558.805	53.07
559.147	53.27
559.488	53.49
559.83	53.63
560.171	53.87
560.513	54.17
560.854	54.41
561.196	54.58
561.537	54.79
561.878	55.01
562.22	55.17
562.561	55.43
562.902	55.66
563.243	55.91
563.584	56.04
563.925	56.24
564.266	56.45
564.607	56.54
564.948	56.71
565.289	56.83
565.63	57
565.971	57.14
566.312	57.29
566.653	57.41
566.993	57.64
567.334	57.79
567.675	57.94
568.015	58.15
568.356	58.33
568.696	58.52
569.037	58.59
569.377	58.7
569.718	58.83
570.058	58.91
570.398	58.97
570.739	59.1
571.079	59.25
571.419	59.36
571.759	59.48
572.099	59.61
572.439	59.76
572.779	59.88
573.119	60.01
573.459	60.16
573.799	60.29
574.139	60.36
574.479	60.45
574.819	60.51
575.158	60.56
575.498	60.61
575.838	60.59
576.177	60.71
576.517	60.84
576.856	60.93
577.196	61
577.535	61.1
577.875	61.19
578.214	61.25
578.553	61.38
578.893	61.52
579.232	61.62
579.571	61.66
579.91	61.76
580.25	61.82
580.589	61.87
580.928	62
581.267	62.08
581.606	62.12
581.945	62.22
582.283	62.33
582.622	62.43
582.961	62.52
583.3	62.63
583.639	62.69
583.977	62.76
584.316	62.87
584.654	62.99
584.993	63.07
585.332	63.23
585.67	63.26
586.008	63.31
586.347	63.39
586.685	63.49
587.024	63.6
587.362	63.66
587.7	63.75
588.038	63.85
588.376	63.94
588.715	64.1
589.053	64.15
589.391	64.15
589.729	64.24
590.067	64.22
590.404	64.36
590.742	64.41
591.08	64.51
591.418	64.53
591.756	64.62
592.093	64.63
592.431	64.63
592.769	64.75
593.106	64.86
593.444	64.81
593.781	64.91
594.119	64.96
594.456	65.02
594.793	65
595.131	65.01
595.468	65.1
595.805	65.1
596.143	65.19
596.48	65.24
596.817	65.31
597.154	65.45
597.491	65.43
597.828	65.45
598.165	65.47
598.502	65.6
598.839	65.62
599.176	65.71
599.512	65.81
599.849	65.8
600.186	65.86
600.523	65.96
600.859	66.08
601.196	66.15
601.532	66.26
601.869	66.38
602.205	66.38
602.542	66.39
602.878	66.44
603.215	66.46
603.551	66.46
603.887	66.43
604.223	66.45
604.56	66.5
604.896	66.54
605.232	66.55
605.568	66.55
605.904	66.53
606.24	66.62
606.576	66.58
606.912	66.57
607.248	66.57
607.583	66.58
607.919	66.56
608.255	66.47
608.591	66.48
608.926	66.52
609.262	66.6
609.597	66.54
609.933	66.59
610.268	66.58
610.604	66.69
610.939	66.7
611.275	66.74
611.61	66.73
611.945	66.78
612.281	66.89
612.616	66.95
612.951	66.97
613.286	67.02
613.621	67.04
613.956	67.15
614.291	67.23
614.626	67.28
614.961	67.2
615.296	67.3
615.631	67.28
615.966	67.26
616.3	67.18
616.635	67.32
616.97	67.27
617.304	67.32
617.639	67.33
617.973	67.32
618.308	67.3
618.642	67.39
618.977	67.39
619.311	67.37
619.646	67.36
619.98	67.43
620.314	67.37
620.648	67.35
620.983	67.31
621.317	67.3
621.651	67.3
621.985	67.48
622.319	67.44
622.653	67.48
622.987	67.54
623.321	67.67
623.655	67.67
623.988	67.68
624.322	67.7
624.656	67.67
624.99	67.78
625.323	67.92
625.657	67.84
625.99	67.8
626.324	67.84
626.657	67.88
626.991	67.83
627.324	67.87
627.658	67.96
627.991	68.05
628.324	67.96
628.657	68.02
628.991	67.91
629.324	68.01
629.657	67.92
629.99	67.89
630.323	67.84
630.656	67.81
630.989	67.85
631.322	67.91
631.655	67.9
631.987	67.84
632.32	67.73
632.653	67.8
632.986	67.88
633.318	67.84
633.651	67.78
633.984	67.85
634.316	67.83
634.649	67.9
634.981	67.83
635.313	67.95
635.646	68.05
635.978	68.03
636.31	68.08
636.643	68.23
636.975	68.21
637.307	68.11
637.639	68.16
637.971	68.17
638.303	68.15
638.635	68.2
638.967	68.23
639.299	68.26
639.631	68.24
639.963	68.23
640.295	68.26
640.626	68.34
640.958	68.24
641.29	68.18
641.621	68.06
641.953	68.12
642.285	68.09
642.616	68.05
642.948	68.04
643.279	67.92
643.61	67.92
643.942	68.03
644.273	68.22
644.604	68.22
644.936	68.37
645.267	68.31
645.598	68.29
645.929	68.19
646.26	68.21
646.591	68.33
646.922	68.29
647.253	68.41
647.584	68.41
647.915	68.46
648.245	68.69
648.576	68.69
648.907	68.56
649.238	68.58
649.568	68.51
649.899	68.53
650.229	68.56
650.56	68.52
650.89	68.49
651.221	68.41
651.551	68.42
651.882	68.31
652.212	68.29
652.542	68.24
652.872	68.36
653.203	68.43
653.533	68.42
653.863	68.38
654.193	68.17
654.523	68.14
654.853	68.13
655.183	68.01
655.513	68.02
655.843	68.13
656.172	68.15
656.502	68.15
656.832	68.38
657.162	68.51
657.491	68.57
657.821	68.52
658.15	68.64
658.48	68.6
658.809	68.56
659.139	68.57
659.468	68.6
659.798	68.7
660.127	68.7
660.456	68.7
660.785	68.82
661.115	68.84
661.444	68.8
661.773	68.94
662.102	68.88
662.431	68.93
662.76	68.94
663.089	68.94
663.418	69.02
663.747	68.81
664.076	68.72
664.404	68.77
664.733	68.91
665.062	68.86
665.39	68.87
665.719	68.84
666.048	68.89
666.376	68.9
666.705	68.77
667.033	68.88
667.362	68.84
667.69	68.73
668.018	68.84
668.347	68.89
668.675	68.78
669.003	68.95
669.331	69.08
669.659	68.98
669.987	68.91
670.315	68.84
670.643	68.97
670.971	68.98
671.299	68.87
671.627	68.82
671.955	68.88
672.283	69.03
672.61	68.98
672.938	69.07
673.266	69.22
673.593	69.32
673.921	69.22
674.249	69.23
674.576	69.38
674.904	69.31
675.231	69.26
675.558	69.23
675.886	69.18
676.213	69.21
676.54	69.25
676.867	69.3
677.195	69.36
677.522	69.24
677.849	69.27
678.176	69.22
678.503	69.31
678.83	69.24
679.157	69.07
679.484	69.24
679.81	69.22
680.137	69.11
680.464	69.11
680.791	69.1
681.117	68.99
681.444	68.87
681.771	68.93
682.097	69.11
682.424	69.15
682.75	69.06
683.077	69.06
683.403	69.02
683.729	68.96
684.056	68.93
684.382	69.01
684.708	68.93
685.034	68.91
685.36	68.71
685.686	68.76
686.012	68.81
686.339	68.71
686.664	68.8
686.99	68.83
687.316	68.77
687.642	68.76
687.968	68.87
688.294	68.99
688.619	69.07
688.945	69.02
689.271	68.97
689.596	69.11
689.922	69.02
690.247	69.15
690.573	69.24
690.898	69.24
691.224	69.29
691.549	69.31
691.874	69.33
692.2	69.39
692.525	69.36
692.85	69.5
693.175	69.43
693.5	69.33
693.825	69.51
694.15	69.58
694.475	69.5
694.8	69.55
695.125	69.48
695.45	69.5
695.775	69.57
696.099	69.71
696.424	69.71
696.749	69.76
697.073	69.79
697.398	69.89
697.723	69.92
698.047	69.96
698.372	70.01
698.696	70.05
699.02	70.16
699.345	70.14
699.669	70.03
699.993	70.12
700.318	70.2
700.642	70.14
700.966	70.11
701.29	70.39
701.614	70.23
701.938	70.36
702.262	70.49
702.586	70.48
702.91	70.57
703.234	70.59
703.557	70.44
703.881	70.51
704.205	70.48
704.529	70.41
704.852	70.28
705.176	70.1
705.499	70.19
705.823	69.96
706.146	70
706.47	70.3
706.793	70.47
707.117	70.19
707.44	70.16
707.763	70.01
708.086	69.79
708.409	69.84
708.733	69.93
709.056	69.67
709.379	69.69
709.702	69.61
710.025	69.41
710.348	69.71
710.671	69.5
710.993	69.41
711.316	69.57
711.639	69.54
711.962	69.7
712.284	69.74
712.607	69.89
712.93	69.81
713.252	69.59
713.575	69.63
713.897	69.91
714.22	69.85
714.542	70.09
714.864	70.06
715.187	69.99
715.509	69.91
715.831	69.88
716.153	69.91
716.475	69.85
716.798	69.91
717.12	69.53
717.442	69.73
717.764	70.01
718.085	69.83
718.407	69.81
718.729	69.83
719.051	69.65
719.373	69.69
719.695	69.83
720.016	69.86
720.338	69.67
720.659	69.58
720.981	69.62
721.302	69.49
721.624	69.48
721.945	69.55
722.267	69.53
722.588	69.58
722.909	69.36
723.231	69.29
723.552	69.35
723.873	69.45
724.194	69.53
724.515	69.29
724.836	69.63
725.157	69.73
725.478	69.74
725.799	69.97
726.12	69.88
726.441	69.77
726.762	69.56
727.083	69.3
727.403	69.18
727.724	69.3
728.045	69.16
728.365	69.09
728.686	69.17
729.006	69.2
729.327	69.2
729.647	69.2
729.967	69.22
730.288	69.25
730.608	69.39
730.928	69.14
731.249	69.12
731.569	68.92
731.889	68.83
732.209	68.94
732.529	68.83
732.849	68.8
733.169	68.9
733.489	69.25
733.809	69.53
734.129	69.51
734.448	69.42
734.768	69.43
735.088	69.71
735.408	69.8
735.727	69.68
736.047	69.8
736.366	69.75
736.686	69.77
737.005	69.73
737.325	69.8
737.644	69.76
737.963	69.59
738.283	69.53
738.602	69.74
738.921	69.62
739.24	69.86
739.56	70.27
739.879	70.14
740.198	70.09
740.517	70.27
740.836	70.56
741.155	70.43
741.473	70.69
741.792	70.58
742.111	70.77
742.43	70.98
742.748	70.84
743.067	70.94
743.386	70.79
743.704	70.98
744.023	70.73
744.341	70.81
744.66	70.93
744.978	70.89
745.297	70.75
745.615	71.13
745.933	71.02
746.252	70.55
746.57	70.75
746.888	70.46
747.206	70.06
747.524	69.59
747.842	69.55
748.16	69.71
748.478	69.33
748.796	69.27
749.114	68.86
749.432	68.74
749.749	68.81
750.067	69.26
750.385	69.22
750.703	69.52
751.02	69.61
751.338	69.85
751.655	69.81
751.973	69.92
752.29	69.17
752.608	69.21
752.925	69.44
753.242	69.38
753.56	69.36
753.877	69.32
754.194	69.59
754.511	69.8
754.828	69.78
755.145	70.2
755.462	69.89
755.779	69.91
756.096	69.98
756.413	69.73
756.73	69.74
757.047	69.76
757.364	69.32
757.68	69.51
757.997	69.42
758.314	69.81
758.63	69.76
758.947	69.85
759.264	69.67
759.58	69.49
759.896	69.71
760.213	69.61
760.529	70
760.846	70.23
761.162	70.38
761.478	70.21
761.794	70.28
762.11	70.23
762.426	70.41
762.743	70.46
763.059	70.76
763.375	70.58
763.69	70.48
764.006	70.8
764.322	70.6
764.638	70.69
764.954	70.76
765.27	70.7
765.585	70.81
765.901	70.94
766.216	70.85
766.532	70.74
766.848	70.96
767.163	70.88
767.478	70.95
767.794	70.45
768.109	70.31
768.424	70.14
768.74	70.35
769.055	70.26
769.37	70.55
769.685	70.42
770	70.66
770.315	70.83
770.63	70.42
770.945	70.79
771.26	70.54
771.575	70.33
771.89	70.39
772.205	70.31
772.52	69.85
772.834	70.12
773.149	70.41
773.464	70.43
773.778	70.58
774.093	70.04
774.407	70.41
774.722	70.59
775.036	70.62
775.351	70.24
775.665	70.02
775.979	69.41
776.293	69.22
776.608	69.18
776.922	69.12
777.236	69.56
777.55	69.15
777.864	69.19
778.178	69.37
778.492	69.54
778.806	69.98
779.12	70.4
779.434	70.49
779.747	70.25
780.061	70.15
780.375	69.81
780.689	69.68
781.002	69.92
781.316	70.16
781.629	70.21
781.943	70.89
782.256	71.34
782.57	71.56
782.883	71.52
783.196	71.06
783.51	71.03
783.823	70.93
784.136	71.4
784.449	71.46
784.762	70.81
785.075	70.84
785.388	70.36
785.701	70.46
786.014	70.24
786.327	70.03
786.64	70.33
786.953	70.26
787.266	70.95
787.578	70.78
787.891	70.53
788.204	70.37
788.516	70.18
788.829	69.68
789.141	69.49
789.454	70.26
789.766	70.65
790.079	70.47
790.391	70.34
790.703	69.53
791.016	69.27
791.328	69.51
791.64	69.71
791.952	69.98
792.264	69.77
792.576	69.77
792.888	70.14
793.2	70
793.512	70.55
793.824	69.98
794.136	70.01
794.448	69.94
794.76	70.01
795.071	70.26
795.383	70.93
795.695	70.95
796.006	70.28
796.318	70.61
796.629	70.85
796.941	70.67
797.252	71
797.564	71.58
797.875	71.77
798.186	71.23
798.497	70.96
798.809	71.16
799.12	71.34
799.431	70.63
799.742	70.57
800.053	70.42
800.364	70.8
800.675	70.42
800.986	69.68
801.297	70.19
801.608	69.81
801.918	69.86
802.229	70.23
802.54	69.59
802.851	69.2
803.161	69.91
803.472	70.2
803.782	70.66
804.093	70.49
804.403	69.9
804.714	69.97
805.024	70.21
805.334	70.23
805.645	70.02
805.955	70.14
806.265	69.86
806.575	69.72
806.885	69.33
807.195	69.73
807.505	70.87
807.815	70.83
808.125	70.82
808.435	70.88
808.745	70.46
809.055	71.56
809.365	71.29
809.674	70.11
809.984	70
810.294	69.46
810.603	69.29
810.913	69.9
811.222	70.12
811.532	69.64
811.841	70.2
812.151	70.55
812.46	71.31
812.769	72.16
813.079	71.98
813.388	73.09
813.697	73.41
814.006	73.07
814.315	72.4
814.624	72.67
814.933	72.2
815.242	72.26
815.551	71.79
815.86	71.95
816.169	72.99
816.478	73.03
816.786	72.96
817.095	73.02
817.404	72.5
817.712	72.7
818.021	73.57
818.33	72.68
818.638	73.09
818.947	72.84
819.255	72.97
819.563	72.69
819.872	72.29
820.18	72.36
820.488	72.67
820.796	72.82
821.105	72.32
821.413	72.32
821.721	72.29
822.029	72.29
822.337	72.07
822.645	71.9
822.953	71.92
823.26	72.03
823.568	71.79
823.876	72
824.184	71.86
824.491	71.64
824.799	71.73
825.107	71.53
825.414	71.52
825.722	71.28
826.029	71.46
826.337	71.21
826.644	71.08
826.951	71.01
827.259	71.09
827.566	71.17
827.873	71.06
828.18	71.28
828.488	71.01
828.795	71.11
829.102	70.78
829.409	70.96
829.716	70.82
830.023	71.36
830.329	71.27
830.636	71.74
830.943	71.92
831.25	72.12
831.557	71.86
831.863	71.65
832.17	71.73
832.476	71.62
832.783	72.23
833.089	72.3
833.396	72.34
833.702	72.6
834.009	73.16
834.315	73.81
834.621	73.25
834.928	73.82
835.234	74.13
835.54	74.23
835.846	73.99
836.152	74.2
836.458	74.46
836.764	74.29
837.07	74.07
837.376	73.88
837.682	73.71
837.988	74.71
838.293	75.19
838.599	75.33
838.905	75.4
839.211	75.24
839.516	74.88
839.822	74.87
840.127	73.4
840.433	73.66
840.738	72.8
841.044	74
841.349	74.53
841.654	74.55
841.959	74.84
842.265	74.88
842.57	73.46
842.875	72.49
843.18	72.08
843.485	71.08
843.79	71.65
844.095	70.28
844.4	70.14
844.705	68.84
845.01	69.12
845.315	69.72
845.619	68.78
845.924	69.07
846.229	66.44
846.533	67.84
846.838	66.48
847.142	66.55
847.447	65.53
847.751	62.88
848.056	61.46
848.36	61.99
848.664	61.93
848.969	64.66
849.273	64.09
849.577	64.05
849.881	63.21
850.185	63.81
850.489	65.45
850.794	64.58
851.097	65.44
851.401	65.06
851.705	63.72
852.009	66.55
852.313	67.01
852.617	68.8
852.92	68.59
853.224	69.45
853.528	71.24
853.831	71.87
854.135	72.82
854.438	73.86
854.742	73.11
855.045	73.12
855.349	71.35
855.652	72.08
855.955	73.3
856.259	74.26
856.562	71.88
856.865	73.97
857.168	73.31
857.471	72.07
857.774	71.8
858.077	71.4
858.38	68.85
858.683	67.79
858.986	69.13
859.289	67.15
859.592	65.59
859.894	65.95
860.197	65.4
860.5	67.63
860.802	68.53
861.105	68.85
861.407	67.46
861.71	67.18
862.012	65.19
862.315	66.03
862.617	67.37
862.919	66.68
863.222	63.93
863.524	63.05
863.826	64.62
864.128	64.01
864.43	64.77
864.732	65.75
865.034	67.1
865.336	64.56
865.638	66.43
865.94	66.37
866.242	62.35
866.544	61.28
866.846	60.71
867.147	61.44
867.449	61.48
867.751	62.48
868.052	63.97
868.354	67.54
868.655	67.75
868.957	67.42
869.258	71.86
869.56	73.13
869.861	73.37
870.162	74.65
870.463	73.36
870.765	72.81
871.066	71.24
871.367	69.89
871.668	69.59
871.969	66.27
872.27	66.48
872.571	68.53
872.872	69.44
873.173	66.62
873.473	65.81
873.774	66.38
874.075	66.36
874.376	64.92
874.676	63.1
874.977	59.98
875.277	60.04
875.578	58.33
875.878	57.1
876.179	57.47
876.479	55.67
876.78	56.52
877.08	56.23
877.38	57.04
877.68	57.75
877.981	59.44
878.281	62.92
878.581	63.55
