Data from BA28470_Reflection_00003.txt Node
Date: Mon Nov 18 15:09:54 EST 2019
User: vgr7
Spectrometer: USB2G7710
Scans to average: 3
Trigger mode: 4
Integration Time (sec): 2.000000E-2
Electric dark correction enabled: true
Boxcar width: 10
XAxis mode: Wavelengths
Number of Pixels in Spectrum: 2048
>>>>>Begin Spectral Data<<<<<
177.721	-44.26
178.105	-207.09
178.488	807.42
178.871	-230.88
179.254	-232.1
179.636	60.18
180.019	220.27
180.402	109.09
180.785	-4278.38
181.168	-198.01
181.55	-232.25
181.933	260.51
182.316	221.66
182.698	352.16
183.081	177.54
183.463	206.24
183.846	182.36
184.228	142.45
184.611	152.52
184.993	262.37
185.376	427.9
185.758	641.72
186.14	700.87
186.522	520.83
186.904	587.03
187.287	946.74
187.669	644.84
188.051	340.94
188.433	463.01
188.815	710.02
189.197	462.42
189.579	619.75
189.961	785.41
190.342	8250.94
190.724	-1591.12
191.106	6607.04
191.488	3372.73
191.869	-1081.62
192.251	-338.45
192.633	-197.52
193.014	-207.26
193.396	-714.94
193.777	-393.24
194.159	-558.96
194.54	-456.29
194.922	-340.97
195.303	-298.83
195.684	-195.98
196.065	-113.48
196.447	-158.11
196.828	-236.83
197.209	-183.04
197.59	-185.32
197.971	-158.69
198.352	-149.93
198.733	-166.22
199.114	-123.71
199.495	-118.47
199.876	-138.74
200.257	-137.43
200.638	-131.99
201.018	-148.31
201.399	-141.82
201.78	-152.09
202.16	-150.36
202.541	-182.72
202.922	-170.86
203.302	-187.07
203.683	-309.49
204.063	-797.27
204.444	-479.22
204.824	-384.3
205.204	-528.33
205.585	-603.88
205.965	-1616.92
206.345	-1476.41
206.725	2216.36
207.106	-4605.04
207.486	949.93
207.866	3358.88
208.246	6206.19
208.626	1704.11
209.006	-3774.29
209.386	-2023.08
209.766	-924.39
210.145	-810.79
210.525	-650.89
210.905	-924.6
211.285	-813.55
211.664	-358.07
212.044	-347.3
212.424	-302.02
212.803	-326.61
213.183	-281.59
213.562	-213.08
213.942	-205.08
214.321	-193.04
214.701	-175.79
215.08	-207.29
215.459	-140.43
215.838	-153.69
216.218	-144.93
216.597	-138.6
216.976	-125.63
217.355	-113.31
217.734	-123.91
218.113	-115.8
218.492	-116.21
218.871	-112.99
219.25	-96.87
219.629	-106.08
220.008	-80.23
220.387	-77.32
220.766	-79.06
221.144	-91.46
221.523	-103.86
221.902	-113.6
222.28	-130.11
222.659	-121.5
223.037	-121.57
223.416	-136.86
223.794	-102.21
224.173	-102.86
224.551	-79.97
224.929	-83.29
225.308	-74.92
225.686	-66.77
226.064	-54.29
226.442	-56.44
226.821	-36.26
227.199	-39.44
227.577	-38.86
227.955	-39.68
228.333	-36.55
228.711	-32.57
229.089	-27.06
229.467	-25.76
229.845	-20.77
230.222	-18.62
230.6	-15.01
230.978	-11.58
231.356	-10.21
231.733	-10.74
232.111	-8.46
232.488	-9.58
232.866	-7.06
233.243	-4.99
233.621	-6
233.998	-5.05
234.376	-3.43
234.753	-6.49
235.13	-5.68
235.508	-2.55
235.885	-2.16
236.262	-3.69
236.639	-3.97
237.016	-4
237.393	-2.25
237.77	-1.25
238.147	-1.76
238.524	-1.3
238.901	-0.28
239.278	-0.05
239.655	0.72
240.032	0.35
240.409	0.68
240.785	0.14
241.162	0.14
241.539	0.72
241.915	0.74
242.292	0.66
242.668	1.4
243.045	1.89
243.421	1.88
243.798	1.95
244.174	2.34
244.551	2.33
244.927	2.21
245.303	2.52
245.679	2.54
246.056	2.7
246.432	2.74
246.808	2.75
247.184	2.54
247.56	2.43
247.936	2.66
248.312	2.57
248.688	3.02
249.064	2.91
249.44	2.78
249.815	2.63
250.191	2.77
250.567	2.85
250.943	2.58
251.318	2.56
251.694	2.45
252.069	2.23
252.445	2.32
252.82	2.61
253.196	1.99
253.571	1.73
253.947	1.86
254.322	2.13
254.697	1.92
255.073	2.16
255.448	2.03
255.823	1.87
256.198	1.97
256.573	1.81
256.948	2
257.323	2.4
257.698	2.64
258.073	2.66
258.448	2.76
258.823	2.87
259.198	2.69
259.573	2.8
259.948	3.05
260.322	3.08
260.697	2.97
261.072	3.2
261.446	3.28
261.821	3.32
262.195	3.33
262.57	3.39
262.944	3.5
263.319	3.54
263.693	3.55
264.067	3.72
264.442	3.92
264.816	4.02
265.19	3.76
265.564	3.65
265.938	3.63
266.313	3.49
266.687	3.69
267.061	3.88
267.435	3.97
267.809	3.77
268.183	3.79
268.556	3.83
268.93	3.8
269.304	3.76
269.678	3.71
270.051	3.72
270.425	3.73
270.799	3.63
271.172	3.7
271.546	3.67
271.919	3.55
272.293	3.41
272.666	3.38
273.04	3.48
273.413	3.53
273.787	3.59
274.16	3.53
274.533	3.42
274.906	3.35
275.279	3.27
275.653	3.25
276.026	3.37
276.399	3.46
276.772	3.53
277.145	3.56
277.518	3.49
277.891	3.26
278.263	3.21
278.636	3.24
279.009	3.23
279.382	3.35
279.755	3.39
280.127	3.42
280.5	3.33
280.872	3.39
281.245	3.39
281.617	3.55
281.99	3.61
282.362	3.72
282.735	3.71
283.107	3.8
283.479	3.89
283.852	3.77
284.224	3.66
284.596	3.61
284.968	3.72
285.34	3.88
285.713	3.94
286.085	3.97
286.457	4.03
286.829	4.14
287.201	4.15
287.572	4.1
287.944	4.14
288.316	4.18
288.688	4.14
289.06	4.16
289.431	4.04
289.803	4.08
290.175	4.15
290.546	4.27
290.918	4.23
291.289	4.16
291.661	4.22
292.032	4.27
292.403	4.22
292.775	4.28
293.146	4.18
293.517	4.27
293.889	4.33
294.26	4.4
294.631	4.41
295.002	4.41
295.373	4.44
295.744	4.4
296.115	4.39
296.486	4.3
296.857	4.34
297.228	4.38
297.599	4.39
297.97	4.24
298.34	4.16
298.711	4.24
299.082	4.3
299.452	4.25
299.823	4.37
300.194	4.42
300.564	4.31
300.935	4.32
301.305	4.33
301.676	4.41
302.046	4.32
302.416	4.25
302.787	4.25
303.157	4.31
303.527	4.19
303.897	4.16
304.267	4.41
304.637	4.46
305.008	4.44
305.378	4.44
305.748	4.55
306.117	4.5
306.487	4.45
306.857	4.39
307.227	4.39
307.597	4.34
307.967	4.4
308.336	4.42
308.706	4.44
309.076	4.45
309.445	4.41
309.815	4.37
310.184	4.35
310.554	4.32
310.923	4.17
311.293	4.31
311.662	4.3
312.031	4.13
312.401	4.15
312.77	4.21
313.139	4.32
313.508	4.31
313.877	4.34
314.246	4.37
314.616	4.48
314.985	4.54
315.353	4.46
315.722	4.48
316.091	4.38
316.46	4.45
316.829	4.29
317.198	4.3
317.567	4.34
317.935	4.29
318.304	4.38
318.672	4.42
319.041	4.4
319.41	4.39
319.778	4.52
320.147	4.53
320.515	4.35
320.883	4.11
321.252	4.06
321.62	4.15
321.988	4.23
322.357	4.17
322.725	4.21
323.093	4.27
323.461	4.25
323.829	4.3
324.197	4.28
324.565	4.43
324.933	4.49
325.301	4.54
325.669	4.56
326.037	4.57
326.405	4.62
326.772	4.58
327.14	4.64
327.508	4.69
327.875	4.5
328.243	4.72
328.61	4.8
328.978	4.92
329.346	4.96
329.713	4.89
330.08	4.99
330.448	4.91
330.815	4.82
331.182	4.83
331.55	4.89
331.917	4.92
332.284	4.98
332.651	4.93
333.018	5.02
333.385	5.06
333.752	5.14
334.119	5.18
334.486	5.17
334.853	5.22
335.22	5.1
335.587	5.25
335.954	5.23
336.32	5.16
336.687	5.2
337.054	5.09
337.42	5.14
337.787	5.13
338.153	5.12
338.52	5.22
338.886	5.18
339.253	5.17
339.619	5.11
339.986	5
340.352	5.06
340.718	4.95
341.084	4.89
341.451	4.75
341.817	4.78
342.183	4.86
342.549	4.81
342.915	4.85
343.281	4.85
343.647	4.78
344.013	4.89
344.379	4.81
344.745	4.88
345.11	4.72
345.476	4.78
345.842	4.82
346.208	4.76
346.573	4.8
346.939	4.84
347.304	4.82
347.67	4.82
348.035	4.73
348.401	4.85
348.766	4.89
349.132	5
349.497	4.95
349.862	4.95
350.228	4.94
350.593	4.94
350.958	4.89
351.323	4.95
351.688	4.86
352.053	4.97
352.418	5.01
352.783	5.14
353.148	4.98
353.513	4.99
353.878	5.01
354.243	5.06
354.608	5.12
354.972	5.14
355.337	5.23
355.702	5.23
356.066	5.15
356.431	5.15
356.795	5.11
357.16	5.19
357.524	5.19
357.889	5.24
358.253	5.25
358.618	5.36
358.982	5.3
359.346	5.25
359.71	5.21
360.075	5.21
360.439	5.21
360.803	5.31
361.167	5.28
361.531	5.31
361.895	5.27
362.259	5.24
362.623	5.24
362.987	5.18
363.351	5.22
363.714	5.22
364.078	5.23
364.442	5.21
364.806	5.22
365.169	5.15
365.533	5.11
365.896	5.13
366.26	5.06
366.623	5.07
366.987	5.12
367.35	5.1
367.714	5.14
368.077	5.15
368.44	5.16
368.803	5.16
369.167	5.11
369.53	5.14
369.893	5.2
370.256	5.21
370.619	5.2
370.982	5.2
371.345	5.19
371.708	5.19
372.071	5.17
372.434	5.1
372.797	5.1
373.159	5.11
373.522	5.04
373.885	5.09
374.247	5.11
374.61	5.1
374.973	5.09
375.335	5.04
375.698	5.02
376.06	4.97
376.423	4.98
376.785	5.04
377.147	5.06
377.51	4.93
377.872	4.94
378.234	4.98
378.596	4.97
378.958	4.97
379.321	5.05
379.683	5.11
380.045	5.1
380.407	5.17
380.769	5.18
381.13	5.23
381.492	5.22
381.854	5.24
382.216	5.25
382.578	5.27
382.939	5.2
383.301	5.2
383.663	5.2
384.024	5.24
384.386	5.28
384.747	5.29
385.109	5.37
385.47	5.33
385.832	5.32
386.193	5.3
386.554	5.36
386.916	5.29
387.277	5.34
387.638	5.4
387.999	5.36
388.36	5.35
388.721	5.39
389.082	5.37
389.443	5.37
389.804	5.38
390.165	5.37
390.526	5.43
390.887	5.45
391.248	5.53
391.609	5.51
391.969	5.5
392.33	5.49
392.691	5.5
393.051	5.5
393.412	5.52
393.772	5.51
394.133	5.47
394.493	5.49
394.854	5.42
395.214	5.42
395.574	5.44
395.935	5.43
396.295	5.44
396.655	5.48
397.015	5.51
397.376	5.5
397.736	5.51
398.096	5.51
398.456	5.5
398.816	5.44
399.176	5.48
399.535	5.47
399.895	5.45
400.255	5.44
400.615	5.5
400.975	5.48
401.334	5.48
401.694	5.46
402.054	5.45
402.413	5.5
402.773	5.48
403.132	5.46
403.492	5.46
403.851	5.44
404.211	5.42
404.57	5.43
404.929	5.46
405.288	5.44
405.648	5.45
406.007	5.49
406.366	5.49
406.725	5.47
407.084	5.47
407.443	5.49
407.802	5.49
408.161	5.49
408.52	5.51
408.879	5.53
409.238	5.56
409.596	5.59
409.955	5.57
410.314	5.62
410.673	5.62
411.031	5.64
411.39	5.64
411.748	5.63
412.107	5.62
412.465	5.62
412.824	5.64
413.182	5.63
413.54	5.58
413.899	5.61
414.257	5.62
414.615	5.64
414.974	5.63
415.332	5.64
415.69	5.61
416.048	5.63
416.406	5.63
416.764	5.63
417.122	5.63
417.48	5.63
417.838	5.63
418.195	5.66
418.553	5.66
418.911	5.69
419.269	5.7
419.626	5.69
419.984	5.69
420.342	5.7
420.699	5.71
421.057	5.73
421.414	5.72
421.772	5.72
422.129	5.71
422.486	5.72
422.844	5.71
423.201	5.71
423.558	5.71
423.915	5.71
424.273	5.72
424.63	5.74
424.987	5.75
425.344	5.74
425.701	5.73
426.058	5.75
426.415	5.74
426.772	5.74
427.128	5.75
427.485	5.76
427.842	5.74
428.199	5.76
428.555	5.75
428.912	5.75
429.269	5.75
429.625	5.78
429.982	5.77
430.338	5.76
430.695	5.77
431.051	5.76
431.407	5.78
431.764	5.78
432.12	5.72
432.476	5.72
432.832	5.7
433.189	5.71
433.545	5.7
433.901	5.69
434.257	5.71
434.613	5.72
434.969	5.72
435.325	5.72
435.681	5.71
436.036	5.72
436.392	5.73
436.748	5.74
437.104	5.72
437.459	5.72
437.815	5.74
438.171	5.74
438.526	5.77
438.882	5.75
439.237	5.75
439.593	5.76
439.948	5.76
440.304	5.78
440.659	5.78
441.014	5.79
441.369	5.77
441.725	5.74
442.08	5.75
442.435	5.75
442.79	5.79
443.145	5.8
443.5	5.79
443.855	5.79
444.21	5.79
444.565	5.81
444.92	5.82
445.275	5.82
445.629	5.82
445.984	5.81
446.339	5.81
446.693	5.81
447.048	5.81
447.403	5.8
447.757	5.77
448.112	5.77
448.466	5.76
448.82	5.77
449.175	5.78
449.529	5.77
449.883	5.76
450.238	5.73
450.592	5.74
450.946	5.73
451.3	5.74
451.654	5.74
452.008	5.75
452.362	5.75
452.716	5.76
453.07	5.76
453.424	5.76
453.778	5.76
454.132	5.76
454.486	5.78
454.839	5.82
455.193	5.85
455.547	5.87
455.9	5.91
456.254	5.92
456.607	5.95
456.961	5.94
457.314	5.95
457.668	5.97
458.021	5.94
458.375	5.96
458.728	5.96
459.081	5.96
459.434	5.93
459.787	5.93
460.141	5.92
460.494	5.92
460.847	5.93
461.2	5.93
461.553	5.94
461.906	5.95
462.259	5.94
462.611	5.93
462.964	5.92
463.317	5.89
463.67	5.89
464.022	5.87
464.375	5.85
464.728	5.85
465.08	5.85
465.433	5.85
465.785	5.84
466.138	5.85
466.49	5.86
466.843	5.87
467.195	5.85
467.547	5.86
467.899	5.84
468.252	5.85
468.604	5.86
468.956	5.87
469.308	5.85
469.66	5.82
470.012	5.84
470.364	5.85
470.716	5.87
471.068	5.87
471.42	5.88
471.772	5.94
472.123	5.95
472.475	5.97
472.827	5.98
473.178	6
473.53	6
473.882	5.98
474.233	6
474.585	6.01
474.936	6.01
475.288	6.03
475.639	6.06
475.99	6.05
476.342	6.03
476.693	6.03
477.044	6.05
477.395	6.04
477.746	6.03
478.097	6.01
478.448	6.01
478.8	6.01
479.15	5.98
479.501	6
479.852	6.01
480.203	6
480.554	6
480.905	6.01
481.255	6.03
481.606	6.02
481.957	6.03
482.307	6.04
482.658	6.04
483.009	6.04
483.359	6.05
483.709	6.05
484.06	6.05
484.41	6.06
484.761	6.06
485.111	6.07
485.461	6.09
485.811	6.09
486.162	6.09
486.512	6.1
486.862	6.1
487.212	6.1
487.562	6.1
487.912	6.1
488.262	6.1
488.612	6.09
488.961	6.1
489.311	6.1
489.661	6.1
490.011	6.09
490.36	6.09
490.71	6.09
491.06	6.11
491.409	6.09
491.759	6.09
492.108	6.1
492.458	6.09
492.807	6.09
493.157	6.08
493.506	6.09
493.855	6.08
494.204	6.08
494.554	6.06
494.903	6.06
495.252	6.08
495.601	6.08
495.95	6.08
496.299	6.06
496.648	6.04
496.997	6.05
497.346	6.08
497.695	6.09
498.043	6.09
498.392	6.08
498.741	6.11
499.09	6.1
499.438	6.09
499.787	6.1
500.135	6.11
500.484	6.13
500.832	6.13
501.181	6.13
501.529	6.13
501.878	6.15
502.226	6.14
502.574	6.13
502.923	6.12
503.271	6.11
503.619	6.11
503.967	6.13
504.315	6.12
504.663	6.1
505.011	6.12
505.359	6.11
505.707	6.11
506.055	6.11
506.403	6.13
506.751	6.12
507.098	6.11
507.446	6.11
507.794	6.1
508.141	6.11
508.489	6.11
508.837	6.13
509.184	6.14
509.531	6.13
509.879	6.15
510.226	6.17
510.574	6.16
510.921	6.16
511.268	6.16
511.616	6.17
511.963	6.17
512.31	6.17
512.657	6.18
513.004	6.18
513.351	6.18
513.698	6.19
514.045	6.23
514.392	6.24
514.739	6.24
515.086	6.25
515.432	6.25
515.779	6.25
516.126	6.25
516.473	6.25
516.819	6.26
517.166	6.26
517.512	6.27
517.859	6.3
518.205	6.31
518.552	6.34
518.898	6.35
519.245	6.37
519.591	6.36
519.937	6.35
520.283	6.36
520.629	6.37
520.976	6.37
521.322	6.36
521.668	6.34
522.014	6.36
522.36	6.37
522.706	6.37
523.052	6.39
523.398	6.4
523.743	6.41
524.089	6.42
524.435	6.42
524.781	6.45
525.126	6.46
525.472	6.48
525.817	6.47
526.163	6.46
526.509	6.47
526.854	6.47
527.199	6.48
527.545	6.48
527.89	6.47
528.235	6.47
528.581	6.49
528.926	6.5
529.271	6.49
529.616	6.48
529.961	6.49
530.306	6.48
530.651	6.48
530.996	6.48
531.341	6.48
531.686	6.49
532.031	6.49
532.376	6.47
532.721	6.47
533.065	6.46
533.41	6.46
533.755	6.45
534.099	6.46
534.444	6.48
534.788	6.46
535.133	6.46
535.477	6.47
535.822	6.45
536.166	6.46
536.51	6.46
536.855	6.49
537.199	6.49
537.543	6.49
537.887	6.48
538.231	6.5
538.576	6.52
538.92	6.52
539.264	6.52
539.608	6.54
539.951	6.53
540.295	6.53
540.639	6.54
540.983	6.54
541.327	6.54
541.671	6.53
542.014	6.53
542.358	6.56
542.701	6.57
543.045	6.6
543.389	6.6
543.732	6.62
544.075	6.62
544.419	6.61
544.762	6.62
545.105	6.66
545.449	6.65
545.792	6.64
546.135	6.63
546.478	6.65
546.821	6.64
547.165	6.64
547.508	6.66
547.851	6.66
548.194	6.67
548.536	6.65
548.879	6.67
549.222	6.68
549.565	6.67
549.908	6.66
550.25	6.66
550.593	6.67
550.936	6.66
551.278	6.63
551.621	6.65
551.963	6.65
552.306	6.63
552.648	6.62
552.991	6.66
553.333	6.65
553.675	6.63
554.017	6.66
554.36	6.68
554.702	6.67
555.044	6.68
555.386	6.67
555.728	6.71
556.07	6.71
556.412	6.71
556.754	6.73
557.096	6.72
557.438	6.71
557.78	6.69
558.121	6.69
558.463	6.72
558.805	6.72
559.147	6.73
559.488	6.71
559.83	6.7
560.171	6.69
560.513	6.73
560.854	6.76
561.196	6.74
561.537	6.73
561.878	6.72
562.22	6.71
562.561	6.7
562.902	6.72
563.243	6.72
563.584	6.75
563.925	6.74
564.266	6.74
564.607	6.74
564.948	6.73
565.289	6.73
565.63	6.73
565.971	6.72
566.312	6.71
566.653	6.72
566.993	6.71
567.334	6.69
567.675	6.67
568.015	6.68
568.356	6.68
568.696	6.69
569.037	6.72
569.377	6.74
569.718	6.77
570.058	6.75
570.398	6.74
570.739	6.74
571.079	6.74
571.419	6.78
571.759	6.81
572.099	6.81
572.439	6.82
572.779	6.81
573.119	6.84
573.459	6.87
573.799	6.87
574.139	6.89
574.479	6.87
574.819	6.87
575.158	6.85
575.498	6.85
575.838	6.84
576.177	6.82
576.517	6.8
576.856	6.78
577.196	6.79
577.535	6.78
577.875	6.79
578.214	6.8
578.553	6.77
578.893	6.73
579.232	6.75
579.571	6.74
579.91	6.76
580.25	6.73
580.589	6.68
580.928	6.7
581.267	6.72
581.606	6.73
581.945	6.71
582.283	6.72
582.622	6.75
582.961	6.76
583.3	6.8
583.639	6.85
583.977	6.88
584.316	6.89
584.654	6.89
584.993	6.89
585.332	6.86
585.67	6.89
586.008	6.89
586.347	6.88
586.685	6.9
587.024	6.87
587.362	6.87
587.7	6.89
588.038	6.9
588.376	6.9
588.715	6.9
589.053	6.97
589.391	6.95
589.729	6.95
590.067	6.93
590.404	6.93
590.742	6.94
591.08	6.92
591.418	6.95
591.756	6.96
592.093	6.95
592.431	7
592.769	6.96
593.106	6.98
593.444	6.97
593.781	6.96
594.119	7.02
594.456	7.05
594.793	7.07
595.131	7.06
595.468	7.07
595.805	7.07
596.143	7.05
596.48	7.06
596.817	7.06
597.154	7.05
597.491	7.03
597.828	7.04
598.165	7.05
598.502	7.02
598.839	7.03
599.176	7.02
599.512	7.01
599.849	7.04
600.186	7.07
600.523	7.11
600.859	7.12
601.196	7.1
601.532	7.08
601.869	7.08
602.205	7.04
602.542	7.06
602.878	7.06
603.215	7.07
603.551	7.08
603.887	7.06
604.223	7.12
604.56	7.17
604.896	7.14
605.232	7.12
605.568	7.13
605.904	7.13
606.24	7.16
606.576	7.17
606.912	7.18
607.248	7.17
607.583	7.15
607.919	7.17
608.255	7.19
608.591	7.18
608.926	7.17
609.262	7.23
609.597	7.24
609.933	7.26
610.268	7.3
610.604	7.32
610.939	7.35
611.275	7.32
611.61	7.29
611.945	7.28
612.281	7.33
612.616	7.34
612.951	7.38
613.286	7.37
613.621	7.36
613.956	7.36
614.291	7.39
614.626	7.42
614.961	7.41
615.296	7.41
615.631	7.4
615.966	7.41
616.3	7.41
616.635	7.39
616.97	7.39
617.304	7.37
617.639	7.35
617.973	7.35
618.308	7.44
618.642	7.47
618.977	7.49
619.311	7.46
619.646	7.49
619.98	7.45
620.314	7.47
620.648	7.5
620.983	7.53
621.317	7.52
621.651	7.53
621.985	7.56
622.319	7.57
622.653	7.6
622.987	7.59
623.321	7.55
623.655	7.58
623.988	7.63
624.322	7.66
624.656	7.64
624.99	7.64
625.323	7.57
625.657	7.58
625.99	7.59
626.324	7.56
626.657	7.57
626.991	7.6
627.324	7.58
627.658	7.57
627.991	7.57
628.324	7.54
628.657	7.51
628.991	7.48
629.324	7.45
629.657	7.47
629.99	7.49
630.323	7.49
630.656	7.48
630.989	7.47
631.322	7.45
631.655	7.5
631.987	7.47
632.32	7.47
632.653	7.48
632.986	7.52
633.318	7.55
633.651	7.53
633.984	7.53
634.316	7.51
634.649	7.46
634.981	7.44
635.313	7.43
635.646	7.44
635.978	7.45
636.31	7.43
636.643	7.44
636.975	7.45
637.307	7.49
637.639	7.48
637.971	7.46
638.303	7.42
638.635	7.42
638.967	7.45
639.299	7.47
639.631	7.46
639.963	7.41
640.295	7.39
640.626	7.42
640.958	7.43
641.29	7.45
641.621	7.57
641.953	7.56
642.285	7.62
642.616	7.64
642.948	7.62
643.279	7.63
643.61	7.64
643.942	7.69
644.273	7.71
644.604	7.74
644.936	7.65
645.267	7.73
645.598	7.69
645.929	7.65
646.26	7.68
646.591	7.62
646.922	7.66
647.253	7.67
647.584	7.65
647.915	7.58
648.245	7.57
648.576	7.55
648.907	7.53
649.238	7.51
649.568	7.49
649.899	7.53
650.229	7.55
650.56	7.57
650.89	7.51
651.221	7.45
651.551	7.36
651.882	7.49
652.212	7.47
652.542	7.54
652.872	7.52
653.203	7.53
653.533	7.57
653.863	7.57
654.193	7.59
654.523	7.65
654.853	7.69
655.183	7.73
655.513	7.68
655.843	7.68
656.172	7.68
656.502	7.72
656.832	7.65
657.162	7.68
657.491	7.67
657.821	7.67
658.15	7.69
658.48	7.76
658.809	7.7
659.139	7.64
659.468	7.58
659.798	7.57
660.127	7.57
660.456	7.6
660.785	7.6
661.115	7.63
661.444	7.58
661.773	7.72
662.102	7.72
662.431	7.76
662.76	7.84
663.089	7.75
663.418	7.69
663.747	7.75
664.076	7.78
664.404	7.83
664.733	7.79
665.062	7.83
665.39	7.77
665.719	7.83
666.048	7.93
666.376	7.9
666.705	7.97
667.033	7.97
667.362	7.95
667.69	7.92
668.018	7.9
668.347	7.96
668.675	7.8
669.003	7.84
669.331	7.9
669.659	7.86
669.987	7.84
670.315	7.87
670.643	7.92
670.971	7.85
671.299	7.81
671.627	7.87
671.955	7.89
672.283	7.96
672.61	7.88
672.938	7.84
673.266	7.89
673.593	7.98
673.921	7.99
674.249	7.97
674.576	7.97
674.904	7.99
675.231	7.92
675.558	7.95
675.886	7.85
676.213	7.71
676.54	7.69
676.867	7.83
677.195	7.83
677.522	7.85
677.849	7.86
678.176	7.83
678.503	7.84
678.83	7.85
679.157	7.88
679.484	7.92
679.81	7.93
680.137	7.97
680.464	7.91
680.791	7.83
681.117	7.84
681.444	7.88
681.771	7.89
682.097	7.89
682.424	7.95
682.75	7.99
683.077	8.04
683.403	8.07
683.729	8.12
684.056	8.18
684.382	8.19
684.708	8.26
685.034	8.26
685.36	8.27
685.686	8.29
686.012	8.23
686.339	8.32
686.664	8.39
686.99	8.38
687.316	8.4
687.642	8.48
687.968	8.45
688.294	8.44
688.619	8.49
688.945	8.44
689.271	8.34
689.596	8.27
689.922	8.26
690.247	8.28
690.573	8.25
690.898	8.25
691.224	8.11
691.549	8.09
691.874	8.1
692.2	8.15
692.525	8.18
692.85	8.21
693.175	8.17
693.5	8.07
693.825	8.1
694.15	8.14
694.475	8.2
694.8	8.29
695.125	8.28
695.45	8.21
695.775	8.31
696.099	8.36
696.424	8.44
696.749	8.55
697.073	8.56
697.398	8.55
697.723	8.52
698.047	8.61
698.372	8.59
698.696	8.61
699.02	8.54
699.345	8.49
699.669	8.47
699.993	8.42
700.318	8.49
700.642	8.47
700.966	8.41
701.29	8.37
701.614	8.36
701.938	8.39
702.262	8.46
702.586	8.46
702.91	8.49
703.234	8.49
703.557	8.51
703.881	8.54
704.205	8.47
704.529	8.43
704.852	8.37
705.176	8.41
705.499	8.45
705.823	8.52
706.146	8.54
706.47	8.61
706.793	8.71
707.117	8.69
707.44	8.67
707.763	8.68
708.086	8.65
708.409	8.65
708.733	8.58
709.056	8.56
709.379	8.68
709.702	8.65
710.025	8.49
710.348	8.34
710.671	8.2
710.993	8.26
711.316	8.33
711.639	8.35
711.962	8.43
712.284	8.37
712.607	8.33
712.93	8.33
713.252	8.25
713.575	8.17
713.897	8.14
714.22	8.14
714.542	8.16
714.864	8.12
715.187	8.05
715.509	8.1
715.831	8.03
716.153	7.93
716.475	7.99
716.798	8.11
717.12	8.2
717.442	8.36
717.764	8.42
718.085	8.41
718.407	8.34
718.729	8.15
719.051	8.06
719.373	7.98
719.695	8
720.016	8.07
720.338	8.08
720.659	8.25
720.981	8.14
721.302	8.12
721.624	8.17
721.945	8.34
722.267	8.37
722.588	8.36
722.909	8.36
723.231	8.37
723.552	8.3
723.873	8.37
724.194	8.33
724.515	8.32
724.836	8.24
725.157	8.35
725.478	8.43
725.799	8.48
726.12	8.59
726.441	8.68
726.762	8.67
727.083	8.75
727.403	8.52
727.724	8.69
728.045	8.69
728.365	8.66
728.686	8.64
729.006	8.83
729.327	8.9
729.647	8.81
729.967	8.79
730.288	8.95
730.608	8.79
730.928	8.71
731.249	8.84
731.569	9.06
731.889	9.03
732.209	8.96
732.529	9.11
732.849	9.18
733.169	9.04
733.489	8.91
733.809	8.9
734.129	9.02
734.448	8.92
734.768	9.09
735.088	9.21
735.408	9.07
735.727	8.95
736.047	8.98
736.366	8.97
736.686	8.9
737.005	9.05
737.325	9.12
737.644	9.12
737.963	9.05
738.283	8.7
738.602	8.74
738.921	8.9
739.24	8.95
739.56	8.86
739.879	8.91
740.198	9.11
740.517	8.92
740.836	8.91
741.155	8.93
741.473	8.86
741.792	8.74
742.111	8.66
742.43	8.38
742.748	8.27
743.067	8.44
743.386	8.48
743.704	8.2
744.023	8.27
744.341	8.4
744.66	8.45
744.978	8.7
745.297	8.84
745.615	8.76
745.933	8.64
746.252	8.75
746.57	8.65
746.888	8.64
747.206	8.73
747.524	8.81
747.842	8.87
748.16	8.74
748.478	9.16
748.796	9.43
749.114	9.86
749.432	9.75
749.749	9.59
750.067	9.63
750.385	9.64
750.703	9.46
751.02	9.38
751.338	9.38
751.655	9.44
751.973	9.58
752.29	9.59
752.608	9.71
752.925	9.64
753.242	9.9
753.56	9.74
753.877	9.7
754.194	9.64
754.511	9.82
754.828	9.76
755.145	9.2
755.462	9.13
755.779	9.02
756.096	9.18
756.413	9.12
756.73	9.11
757.047	9.26
757.364	9.49
757.68	9.43
757.997	9.44
758.314	9.39
758.63	9.12
758.947	9.03
759.264	8.97
759.58	9.06
759.896	9.13
760.213	9.35
760.529	9.39
760.846	9.32
761.162	9.19
761.478	9.39
761.794	9.47
762.11	9.58
762.426	9.58
762.743	9.63
763.059	10.07
763.375	10.13
763.69	10.1
764.006	9.93
764.322	9.9
764.638	9.85
764.954	9.77
765.27	9.68
765.585	9.9
765.901	9.98
766.216	10.03
766.532	9.86
766.848	9.66
767.163	9.71
767.478	9.58
767.794	9.75
768.109	9.71
768.424	9.9
768.74	9.92
769.055	9.67
769.37	9.89
769.685	9.38
770	9.29
770.315	9.25
770.63	9.4
770.945	9.41
771.26	9.39
771.575	9.32
771.89	10.04
772.205	9.91
772.52	9.98
772.834	9.77
773.149	9.7
773.464	9.8
773.778	9.9
774.093	10.06
774.407	9.74
774.722	10.07
775.036	10.1
775.351	10.16
775.665	10.39
775.979	10.01
776.293	9.96
776.608	9.94
776.922	9.74
777.236	9.53
777.55	9.7
777.864	9.75
778.178	9.81
778.492	9.14
778.806	8.89
779.12	9.06
779.434	9.17
779.747	9.45
780.061	9.77
780.375	9.89
780.689	10.1
781.002	10.03
781.316	9.52
781.629	9.33
781.943	9.08
782.256	9.31
782.57	9.12
782.883	9.59
783.196	9.7
783.51	9.78
783.823	10.26
784.136	10.53
784.449	10.36
784.762	10.49
785.075	10.49
785.388	10.64
785.701	10.1
786.014	9.85
786.327	9.51
786.64	9.19
786.953	9.2
787.266	9.14
787.578	8.98
787.891	9.01
788.204	8.72
788.516	9.02
788.829	9.01
789.141	9.22
789.454	9.13
789.766	9.14
790.079	9.06
790.391	8.82
790.703	8.31
791.016	8.34
791.328	8.09
791.64	8.01
791.952	7.99
792.264	7.77
792.576	8.11
792.888	8.45
793.2	8.59
793.512	8.14
793.824	8.07
794.136	7.92
794.448	7.96
794.76	8.16
795.071	7.88
795.383	7.66
795.695	7.4
796.006	6.95
796.318	7.23
796.629	7.43
796.941	7.32
797.252	7.45
797.564	7.51
797.875	7.86
798.186	7.84
798.497	7.84
798.809	7.95
799.12	7.79
799.431	7.46
799.742	6.99
800.053	7.55
800.364	8
800.675	8.83
800.986	8.59
801.297	8.56
801.608	8.66
801.918	8.76
802.229	8.99
802.54	9.29
802.851	8.83
803.161	8.93
803.472	9.16
803.782	9.65
804.093	10.11
804.403	10.1
804.714	10.48
805.024	10.35
805.334	10.45
805.645	10.61
805.955	10.26
806.265	11.24
806.575	10.83
806.885	10.04
807.195	9.69
807.505	10.23
807.815	10.55
808.125	10.51
808.435	9.94
808.745	9.43
809.055	9.5
809.365	9.56
809.674	8.88
809.984	8.86
810.294	8.24
810.603	7.8
810.913	8.2
811.222	7.84
811.532	8.24
811.841	8.21
812.151	7.84
812.46	8.5
812.769	7.54
813.079	7.31
813.388	8.09
813.697	8.28
814.006	8.14
814.315	8.09
814.624	7.55
814.933	8.53
815.242	9.59
815.551	9.81
815.86	10.51
816.169	11.12
816.478	11.45
816.786	11.68
817.095	11.8
817.404	12.04
817.712	12.11
818.021	12.24
818.33	12.9
818.638	12.94
818.947	13.17
819.255	13.74
819.563	14.13
819.872	13.71
820.18	13.78
820.488	13.52
820.796	13.32
821.105	13.62
821.413	13.46
821.721	13.43
822.029	13.39
822.337	13.4
822.645	13.31
822.953	13.06
823.26	13.08
823.568	13.12
823.876	12.97
824.184	13.05
824.491	12.99
824.799	12.72
825.107	12.74
825.414	12.77
825.722	12.72
826.029	12.77
826.337	12.93
826.644	12.75
826.951	12.71
827.259	12.83
827.566	12.74
827.873	12.74
828.18	12.74
828.488	12.76
828.795	12.65
829.102	12.77
829.409	12.99
829.716	12.93
830.023	12.85
830.329	12.76
830.636	12.99
830.943	13.1
831.25	13.26
831.557	13.45
831.863	13.2
832.17	12.97
832.476	12.98
832.783	13.23
833.089	13.74
833.396	14.27
833.702	14.3
834.009	14.34
834.315	14.42
834.621	14.19
834.928	14.3
835.234	14.26
835.54	14.01
835.846	13.73
836.152	13.91
836.458	13.49
836.764	13.82
837.07	13.02
837.376	12.33
837.682	12.9
837.988	12.94
838.293	12.65
838.599	12.75
838.905	12.04
839.211	10.92
839.516	10.57
839.822	9.98
840.127	9.22
840.433	9.03
840.738	9.33
841.044	9.55
841.349	8.74
841.654	8.23
841.959	8.74
842.265	8.03
842.57	8
842.875	8.8
843.18	8.94
843.485	9.98
843.79	10.3
844.095	8.6
844.4	9.08
844.705	8.04
845.01	8.44
845.315	8.61
845.619	8.95
845.924	8.55
846.229	8.79
846.533	10.27
846.838	9.73
847.142	7.88
847.447	7.18
847.751	6.73
848.056	5.8
848.36	5.82
848.664	7.1
848.969	6.7
849.273	5.77
849.577	4.71
849.881	4.6
850.185	5.7
850.489	7.72
850.794	5.23
851.097	7.77
851.401	7.08
851.705	5.79
852.009	5.6
852.313	4.95
852.617	4.15
852.92	5.17
853.224	4.52
853.528	5.88
853.831	5.53
854.135	7.76
854.438	8.23
854.742	5.8
855.045	5.08
855.349	5.05
855.652	5.13
855.955	3.74
856.259	2.46
856.562	0.98
856.865	1.27
857.168	1.34
857.471	1.76
857.774	2.03
858.077	4.43
858.38	4.9
858.683	5.76
858.986	8.14
859.289	6.16
859.592	9.04
859.894	9.73
860.197	8.12
860.5	6.24
860.802	6.48
861.105	8.86
861.407	9.26
861.71	7.63
862.012	8.35
862.315	8.27
862.617	8.05
862.919	8.49
863.222	7.43
863.524	8.23
863.826	8.03
864.128	6.86
864.43	6.12
864.732	7.37
865.034	7.27
865.336	3.7
865.638	2.57
865.94	-0.46
866.242	-3.06
866.544	-3.28
866.846	-2.68
867.147	-1.48
867.449	-2.89
867.751	-1.61
868.052	1.21
868.354	0.6
868.655	0.62
868.957	0.43
869.258	1.74
869.56	1.5
869.861	2.85
870.162	1.35
870.463	3.34
870.765	3.62
871.066	3.31
871.367	2.94
871.668	2.81
871.969	1.18
872.27	3.25
872.571	5.54
872.872	8.38
873.173	6.84
873.473	6.32
873.774	5.7
874.075	3.63
874.376	2.82
874.676	4.35
874.977	3.86
875.277	6.21
875.578	5.91
875.878	6.06
876.179	4.59
876.479	5.17
876.78	3.84
877.08	3.7
877.38	2.05
877.68	1.62
877.981	3.87
878.281	8.04
878.581	6.6
