Data from BA28417_Reflection_00015.txt Node
Date: Mon Nov 18 16:11:28 EST 2019
User: vgr7
Spectrometer: USB2G7710
Scans to average: 3
Trigger mode: 4
Integration Time (sec): 2.000000E-2
Electric dark correction enabled: true
Boxcar width: 10
XAxis mode: Wavelengths
Number of Pixels in Spectrum: 2048
>>>>>Begin Spectral Data<<<<<
177.721	-2.99
178.105	37.68
178.488	33.1
178.871	50.79
179.254	102.67
179.636	166.93
180.019	108.61
180.402	200
180.785	-85.1
181.168	-400
181.55	-125.87
181.933	211.79
182.316	147.48
182.698	133.9
183.081	151.21
183.463	229.9
183.846	187.33
184.228	191.31
184.611	190.32
184.993	445.78
185.376	1088.59
185.758	1422.71
186.14	2610.07
186.522	522.25
186.904	1004.9
187.287	780.58
187.669	-4406.33
188.051	-741.89
188.433	-302.49
188.815	-141.78
189.197	-158.75
189.579	-177.47
189.961	-167.5
190.342	-191.16
190.724	-130.54
191.106	-147.7
191.488	-147.76
191.869	-93.5
192.251	-108.54
192.633	-145.02
193.014	-325.94
193.396	-647.53
193.777	-362.53
194.159	-335.8
194.54	-204.16
194.922	-198.39
195.303	-176.91
195.684	-148.02
196.065	-132.45
196.447	-119.22
196.828	-202.03
197.209	-179.68
197.59	-200.91
197.971	-184.49
198.352	-138.01
198.733	-140.03
199.114	-135.94
199.495	-103.68
199.876	-101.45
200.257	-94.71
200.638	-61.15
201.018	-36.28
201.399	-27.98
201.78	-22.21
202.16	-18.61
202.541	-37.58
202.922	-23.98
203.302	-38.79
203.683	-49.06
204.063	-67.47
204.444	-73.53
204.824	-78.01
205.204	-83.11
205.585	-59.39
205.965	-40.75
206.345	-36.68
206.725	-46.45
207.106	-37.56
207.486	-100.4
207.866	-113.58
208.246	-62.55
208.626	-75.5
209.006	-51
209.386	-89.2
209.766	-107.09
210.145	-73.44
210.525	-44.09
210.905	-54
211.285	-54.74
211.664	-56.76
212.044	-47.86
212.424	-51.58
212.803	-49.21
213.183	-41.16
213.562	-57.71
213.942	-60.97
214.321	-48.17
214.701	-61.98
215.08	-92.29
215.459	-68.3
215.838	-74.51
216.218	-106.61
216.597	-80.79
216.976	-94.43
217.355	-74.27
217.734	-84.39
218.113	-118.99
218.492	-150.19
218.871	-166.8
219.25	-69.21
219.629	-31.3
220.008	-227.08
220.387	-210.47
220.766	-229.9
221.144	312.29
221.523	35.48
221.902	-81.38
222.28	20.48
222.659	-50.88
223.037	-2605.88
223.416	14.89
223.794	-10.97
224.173	5.94
224.551	-6.09
224.929	-5.44
225.308	-9.77
225.686	10.78
226.064	16.24
226.442	10.6
226.821	5.07
227.199	-6.35
227.577	-6.2
227.955	-2.38
228.333	-4.85
228.711	-5.78
229.089	-4.46
229.467	-5.99
229.845	-10.71
230.222	-8.02
230.6	-5.71
230.978	-6.73
231.356	-3.03
231.733	-4.59
232.111	-3.92
232.488	-3.02
232.866	-3.69
233.243	-1.72
233.621	-5.54
233.998	-5.19
234.376	-6.4
234.753	-5.95
235.13	-5.26
235.508	-6.45
235.885	-6.42
236.262	-4.54
236.639	-4.15
237.016	-1.09
237.393	-0
237.77	2.17
238.147	1.92
238.524	1.3
238.901	1.74
239.278	2.74
239.655	3.45
240.032	4.1
240.409	3.5
240.785	3.53
241.162	4.08
241.539	4.5
241.915	4.09
242.292	3.81
242.668	3.95
243.045	4.06
243.421	4.45
243.798	4.05
244.174	3.78
244.551	3.59
244.927	3.33
245.303	3.49
245.679	3.55
246.056	3.78
246.432	3.85
246.808	4.16
247.184	3.68
247.56	3.54
247.936	3.19
248.312	3.14
248.688	3.31
249.064	3.02
249.44	3.02
249.815	3.11
250.191	3.19
250.567	3.07
250.943	3.11
251.318	3.02
251.694	3.32
252.069	3.32
252.445	3.77
252.82	3.47
253.196	3.36
253.571	3.03
253.947	2.63
254.322	2.75
254.697	2.47
255.073	2.62
255.448	2.65
255.823	2.75
256.198	3.36
256.573	3.35
256.948	3.38
257.323	3.37
257.698	3.47
258.073	3.46
258.448	3.46
258.823	3.47
259.198	3.54
259.573	3.57
259.948	3.61
260.322	3.57
260.697	3.65
261.072	3.45
261.446	3.54
261.821	3.6
262.195	3.58
262.57	3.56
262.944	3.6
263.319	3.48
263.693	3.61
264.067	3.28
264.442	3.34
264.816	3.46
265.19	3.6
265.564	3.58
265.938	3.64
266.313	3.68
266.687	3.88
267.061	3.93
267.435	3.84
267.809	3.86
268.183	3.75
268.556	3.71
268.93	4.06
269.304	4.07
269.678	4.17
270.051	4.05
270.425	4.08
270.799	4.08
271.172	4.33
271.546	4.32
271.919	4.39
272.293	4.29
272.666	4.22
273.04	4.16
273.413	4.16
273.787	4.16
274.16	4.1
274.533	3.91
274.906	3.82
275.279	3.85
275.653	3.94
276.026	3.97
276.399	4.16
276.772	4.15
277.145	4.22
277.518	4.19
277.891	4.16
278.263	4.11
278.636	4.17
279.009	4.11
279.382	4.21
279.755	4.28
280.127	4.43
280.5	4.55
280.872	4.63
281.245	4.55
281.617	4.76
281.99	4.86
282.362	4.94
282.735	4.86
283.107	4.92
283.479	4.88
283.852	4.92
284.224	4.83
284.596	4.73
284.968	4.59
285.34	4.64
285.713	4.57
286.085	4.68
286.457	4.68
286.829	4.75
287.201	4.68
287.572	4.63
287.944	4.45
288.316	4.49
288.688	4.4
289.06	4.36
289.431	4.34
289.803	4.39
290.175	4.4
290.546	4.64
290.918	4.58
291.289	4.59
291.661	4.64
292.032	4.71
292.403	4.72
292.775	4.78
293.146	4.72
293.517	4.84
293.889	4.92
294.26	4.98
294.631	4.98
295.002	4.97
295.373	5.05
295.744	5.26
296.115	5.19
296.486	5.06
296.857	5.21
297.228	5.22
297.599	5.14
297.97	5.23
298.34	5.21
298.711	5.41
299.082	5.4
299.452	5.41
299.823	5.57
300.194	5.75
300.564	5.84
300.935	5.95
301.305	6.11
301.676	6.13
302.046	6.2
302.416	6.43
302.787	6.55
303.157	6.65
303.527	6.65
303.897	6.81
304.267	7.09
304.637	7.3
305.008	7.31
305.378	7.38
305.748	7.43
306.117	7.42
306.487	7.31
306.857	7.43
307.227	7.4
307.597	7.25
307.967	7.25
308.336	7.3
308.706	7.35
309.076	7.31
309.445	7.32
309.815	7.29
310.184	7.15
310.554	7.24
310.923	7.24
311.293	7.38
311.662	7.34
312.031	7.41
312.401	7.31
312.77	7.51
313.139	7.66
313.508	7.66
313.877	7.72
314.246	7.86
314.616	7.98
314.985	8.21
315.353	8.29
315.722	8.42
316.091	8.48
316.46	8.59
316.829	8.7
317.198	8.78
317.567	8.85
317.935	8.95
318.304	8.89
318.672	9.04
319.041	9.1
319.41	9.28
319.778	9.29
320.147	9.41
320.515	9.32
320.883	9.29
321.252	9.46
321.62	9.5
321.988	9.47
322.357	9.32
322.725	9.42
323.093	9.49
323.461	9.47
323.829	9.67
324.197	9.83
324.565	9.95
324.933	9.93
325.301	10.06
325.669	10.29
326.037	10.48
326.405	10.55
326.772	10.64
327.14	10.65
327.508	10.78
327.875	10.79
328.243	10.88
328.61	11.08
328.978	10.98
329.346	11.15
329.713	11.17
330.08	11.3
330.448	11.14
330.815	11.14
331.182	11.27
331.55	11.29
331.917	11.3
332.284	11.33
332.651	11.45
333.018	11.48
333.385	11.35
333.752	11.39
334.119	11.48
334.486	11.41
334.853	11.46
335.22	11.42
335.587	11.47
335.954	11.55
336.32	11.42
336.687	11.59
337.054	11.6
337.42	11.78
337.787	11.85
338.153	12.02
338.52	12.11
338.886	12.14
339.253	12.16
339.619	12.16
339.986	12.26
340.352	12.38
340.718	12.39
341.084	12.47
341.451	12.57
341.817	12.55
342.183	12.52
342.549	12.48
342.915	12.6
343.281	12.67
343.647	12.67
344.013	12.86
344.379	12.85
344.745	12.8
345.11	12.81
345.476	12.9
345.842	12.87
346.208	12.95
346.573	12.97
346.939	13.03
347.304	13.01
347.67	12.93
348.035	12.89
348.401	12.92
348.766	12.91
349.132	12.81
349.497	12.74
349.862	12.89
350.228	12.98
350.593	12.92
350.958	12.95
351.323	12.94
351.688	12.93
352.053	12.92
352.418	13.05
352.783	13.01
353.148	12.97
353.513	12.94
353.878	12.89
354.243	12.87
354.608	12.72
354.972	12.78
355.337	12.77
355.702	12.87
356.066	12.82
356.431	12.82
356.795	12.86
357.16	12.87
357.524	12.83
357.889	12.82
358.253	12.84
358.618	12.79
358.982	12.76
359.346	12.73
359.71	12.71
360.075	12.67
360.439	12.67
360.803	12.6
361.167	12.57
361.531	12.54
361.895	12.55
362.259	12.57
362.623	12.43
362.987	12.42
363.351	12.3
363.714	12.32
364.078	12.24
364.442	12.15
364.806	12.12
365.169	12.05
365.533	12.03
365.896	11.96
366.26	11.91
366.623	11.87
366.987	11.83
367.35	11.77
367.714	11.71
368.077	11.61
368.44	11.61
368.803	11.56
369.167	11.49
369.53	11.37
369.893	11.33
370.256	11.41
370.619	11.38
370.982	11.33
371.345	11.23
371.708	11.2
372.071	11.14
372.434	11.02
372.797	10.93
373.159	10.78
373.522	10.73
373.885	10.68
374.247	10.61
374.61	10.48
374.973	10.4
375.335	10.3
375.698	10.24
376.06	10.21
376.423	10.18
376.785	10.14
377.147	10.18
377.51	10.1
377.872	9.99
378.234	9.89
378.596	9.84
378.958	9.8
379.321	9.77
379.683	9.73
380.045	9.71
380.407	9.69
380.769	9.67
381.13	9.63
381.492	9.53
381.854	9.48
382.216	9.41
382.578	9.43
382.939	9.37
383.301	9.3
383.663	9.13
384.024	9.08
384.386	9.03
384.747	8.96
385.109	8.95
385.47	8.9
385.832	8.83
386.193	8.79
386.554	8.69
386.916	8.64
387.277	8.56
387.638	8.51
387.999	8.43
388.36	8.34
388.721	8.28
389.082	8.28
389.443	8.18
389.804	8.15
390.165	8.03
390.526	7.97
390.887	7.93
391.248	7.94
391.609	7.9
391.969	7.88
392.33	7.81
392.691	7.76
393.051	7.72
393.412	7.71
393.772	7.61
394.133	7.6
394.493	7.52
394.854	7.47
395.214	7.42
395.574	7.39
395.935	7.34
396.295	7.31
396.655	7.21
397.015	7.2
397.376	7.15
397.736	7.12
398.096	7.08
398.456	7.05
398.816	6.97
399.176	6.87
399.535	6.77
399.895	6.69
400.255	6.63
400.615	6.57
400.975	6.5
401.334	6.47
401.694	6.4
402.054	6.36
402.413	6.33
402.773	6.25
403.132	6.18
403.492	6.15
403.851	6.1
404.211	6.07
404.57	5.99
404.929	5.97
405.288	5.93
405.648	5.88
406.007	5.82
406.366	5.8
406.725	5.84
407.084	5.81
407.443	5.77
407.802	5.75
408.161	5.72
408.52	5.7
408.879	5.7
409.238	5.69
409.596	5.7
409.955	5.67
410.314	5.69
410.673	5.66
411.031	5.67
411.39	5.65
411.748	5.65
412.107	5.67
412.465	5.63
412.824	5.61
413.182	5.59
413.54	5.57
413.899	5.56
414.257	5.53
414.615	5.52
414.974	5.51
415.332	5.48
415.69	5.44
416.048	5.39
416.406	5.35
416.764	5.3
417.122	5.25
417.48	5.22
417.838	5.17
418.195	5.15
418.553	5.12
418.911	5.06
419.269	5.02
419.626	4.99
419.984	4.96
420.342	4.93
420.699	4.91
421.057	4.91
421.414	4.88
421.772	4.85
422.129	4.84
422.486	4.82
422.844	4.81
423.201	4.77
423.558	4.78
423.915	4.76
424.273	4.77
424.63	4.76
424.987	4.73
425.344	4.71
425.701	4.7
426.058	4.68
426.415	4.68
426.772	4.66
427.128	4.66
427.485	4.66
427.842	4.64
428.199	4.64
428.555	4.62
428.912	4.61
429.269	4.6
429.625	4.57
429.982	4.55
430.338	4.52
430.695	4.55
431.051	4.5
431.407	4.47
431.764	4.44
432.12	4.42
432.476	4.43
432.832	4.44
433.189	4.45
433.545	4.45
433.901	4.46
434.257	4.46
434.613	4.44
434.969	4.44
435.325	4.46
435.681	4.46
436.036	4.45
436.392	4.47
436.748	4.45
437.104	4.44
437.459	4.46
437.815	4.46
438.171	4.44
438.526	4.46
438.882	4.45
439.237	4.46
439.593	4.47
439.948	4.46
440.304	4.47
440.659	4.45
441.014	4.45
441.369	4.43
441.725	4.42
442.08	4.41
442.435	4.39
442.79	4.37
443.145	4.35
443.5	4.33
443.855	4.31
444.21	4.31
444.565	4.3
444.92	4.28
445.275	4.27
445.629	4.27
445.984	4.25
446.339	4.26
446.693	4.22
447.048	4.21
447.403	4.21
447.757	4.19
448.112	4.16
448.466	4.16
448.82	4.14
449.175	4.15
449.529	4.14
449.883	4.12
450.238	4.11
450.592	4.1
450.946	4.09
451.3	4.08
451.654	4.07
452.008	4.08
452.362	4.07
452.716	4.05
453.07	4.06
453.424	4.04
453.778	4.03
454.132	4.03
454.486	4.03
454.839	4.02
455.193	3.99
455.547	4.04
455.9	4.03
456.254	4.03
456.607	4.01
456.961	4.01
457.314	4.04
457.668	4.06
458.021	4.07
458.375	4.08
458.728	4.08
459.081	4.06
459.434	4.04
459.787	4.06
460.141	4.08
460.494	4.09
460.847	4.11
461.2	4.11
461.553	4.14
461.906	4.15
462.259	4.18
462.611	4.2
462.964	4.21
463.317	4.21
463.67	4.24
464.022	4.26
464.375	4.27
464.728	4.28
465.08	4.29
465.433	4.28
465.785	4.32
466.138	4.35
466.49	4.4
466.843	4.43
467.195	4.43
467.547	4.45
467.899	4.44
468.252	4.44
468.604	4.45
468.956	4.45
469.308	4.47
469.66	4.45
470.012	4.47
470.364	4.47
470.716	4.49
471.068	4.52
471.42	4.52
471.772	4.56
472.123	4.6
472.475	4.62
472.827	4.63
473.178	4.64
473.53	4.64
473.882	4.63
474.233	4.63
474.585	4.64
474.936	4.65
475.288	4.66
475.639	4.65
475.99	4.66
476.342	4.66
476.693	4.65
477.044	4.67
477.395	4.68
477.746	4.66
478.097	4.64
478.448	4.61
478.8	4.57
479.15	4.52
479.501	4.48
479.852	4.47
480.203	4.48
480.554	4.47
480.905	4.48
481.255	4.47
481.606	4.46
481.957	4.47
482.307	4.46
482.658	4.46
483.009	4.47
483.359	4.46
483.709	4.47
484.06	4.46
484.41	4.46
484.761	4.46
485.111	4.47
485.461	4.47
485.811	4.47
486.162	4.48
486.512	4.49
486.862	4.51
487.212	4.5
487.562	4.51
487.912	4.51
488.262	4.51
488.612	4.53
488.961	4.54
489.311	4.54
489.661	4.56
490.011	4.56
490.36	4.57
490.71	4.58
491.06	4.59
491.409	4.61
491.759	4.62
492.108	4.64
492.458	4.67
492.807	4.71
493.157	4.74
493.506	4.77
493.855	4.8
494.204	4.82
494.554	4.86
494.903	4.87
495.252	4.92
495.601	4.99
495.95	5.03
496.299	5.09
496.648	5.15
496.997	5.2
497.346	5.27
497.695	5.32
498.043	5.38
498.392	5.42
498.741	5.5
499.09	5.55
499.438	5.64
499.787	5.7
500.135	5.77
500.484	5.82
500.832	5.91
501.181	5.99
501.529	6.09
501.878	6.18
502.226	6.28
502.574	6.34
502.923	6.39
503.271	6.49
503.619	6.59
503.967	6.67
504.315	6.78
504.663	6.87
505.011	7.02
505.359	7.14
505.707	7.26
506.055	7.37
506.403	7.49
506.751	7.6
507.098	7.7
507.446	7.81
507.794	7.96
508.141	8.09
508.489	8.22
508.837	8.35
509.184	8.5
509.531	8.62
509.879	8.79
510.226	8.94
510.574	9.07
510.921	9.19
511.268	9.31
511.616	9.45
511.963	9.59
512.31	9.72
512.657	9.87
513.004	10.04
513.351	10.21
513.698	10.39
514.045	10.53
514.392	10.71
514.739	10.89
515.086	11.05
515.432	11.24
515.779	11.4
516.126	11.58
516.473	11.74
516.819	11.91
517.166	12.05
517.512	12.2
517.859	12.33
518.205	12.5
518.552	12.67
518.898	12.83
519.245	12.98
519.591	13.14
519.937	13.27
520.283	13.43
520.629	13.6
520.976	13.79
521.322	13.99
521.668	14.19
522.014	14.37
522.36	14.63
522.706	14.85
523.052	15.1
523.398	15.35
523.743	15.6
524.089	15.86
524.435	16.15
524.781	16.41
525.126	16.65
525.472	16.86
525.817	17.09
526.163	17.27
526.509	17.47
526.854	17.64
527.199	17.82
527.545	17.97
527.89	18.14
528.235	18.29
528.581	18.47
528.926	18.63
529.271	18.83
529.616	18.98
529.961	19.14
530.306	19.33
530.651	19.54
530.996	19.74
531.341	19.96
531.686	20.17
532.031	20.39
532.376	20.63
532.721	20.88
533.065	21.09
533.41	21.35
533.755	21.62
534.099	21.88
534.444	22.15
534.788	22.45
535.133	22.75
535.477	23.06
535.822	23.38
536.166	23.7
536.51	24.04
536.855	24.41
537.199	24.83
537.543	25.2
537.887	25.56
538.231	25.96
538.576	26.36
538.92	26.76
539.264	27.14
539.608	27.51
539.951	27.84
540.295	28.15
540.639	28.47
540.983	28.76
541.327	29.07
541.671	29.41
542.014	29.71
542.358	30.01
542.701	30.3
543.045	30.6
543.389	30.93
543.732	31.24
544.075	31.55
544.419	31.84
544.762	32.18
545.105	32.55
545.449	32.92
545.792	33.27
546.135	33.62
546.478	34.02
546.821	34.42
547.165	34.84
547.508	35.3
547.851	35.72
548.194	36.16
548.536	36.58
548.879	36.96
549.222	37.32
549.565	37.7
549.908	38.1
550.25	38.52
550.593	38.89
550.936	39.32
551.278	39.75
551.621	40.17
551.963	40.62
552.306	41
552.648	41.39
552.991	41.8
553.333	42.2
553.675	42.6
554.017	42.97
554.36	43.36
554.702	43.73
555.044	44.1
555.386	44.44
555.728	44.77
556.07	45.15
556.412	45.58
556.754	45.92
557.096	46.28
557.438	46.67
557.78	47.07
558.121	47.38
558.463	47.72
558.805	48.06
559.147	48.37
559.488	48.69
559.83	49
560.171	49.28
560.513	49.59
560.854	49.91
561.196	50.25
561.537	50.52
561.878	50.75
562.22	51.02
562.561	51.3
562.902	51.61
563.243	51.86
563.584	52.17
563.925	52.41
564.266	52.72
564.607	52.99
564.948	53.25
565.289	53.53
565.63	53.79
565.971	54
566.312	54.26
566.653	54.5
566.993	54.7
567.334	54.91
567.675	55.14
568.015	55.38
568.356	55.62
568.696	55.89
569.037	56.15
569.377	56.44
569.718	56.71
570.058	56.9
570.398	57.1
570.739	57.23
571.079	57.47
571.419	57.61
571.759	57.76
572.099	57.93
572.439	58.05
572.779	58.18
573.119	58.42
573.459	58.54
573.799	58.72
574.139	58.89
574.479	59.05
574.819	59.22
575.158	59.37
575.498	59.46
575.838	59.6
576.177	59.77
576.517	59.91
576.856	60.04
577.196	60.21
577.535	60.39
577.875	60.59
578.214	60.74
578.553	60.9
578.893	61.07
579.232	61.17
579.571	61.34
579.91	61.51
580.25	61.61
580.589	61.8
580.928	61.96
581.267	62.13
581.606	62.3
581.945	62.39
582.283	62.48
582.622	62.66
582.961	62.76
583.3	62.9
583.639	63.05
583.977	63.17
584.316	63.29
584.654	63.47
584.993	63.56
585.332	63.69
585.67	63.81
586.008	63.9
586.347	64.1
586.685	64.29
587.024	64.37
587.362	64.53
587.7	64.6
588.038	64.74
588.376	64.83
588.715	64.95
589.053	65.15
589.391	65.24
589.729	65.35
590.067	65.5
590.404	65.6
590.742	65.6
591.08	65.79
591.418	65.88
591.756	65.97
592.093	66.01
592.431	66.14
592.769	66.31
593.106	66.43
593.444	66.43
593.781	66.48
594.119	66.57
594.456	66.55
594.793	66.57
595.131	66.59
595.468	66.69
595.805	66.73
596.143	66.76
596.48	66.77
596.817	66.75
597.154	66.76
597.491	66.75
597.828	66.83
598.165	66.81
598.502	66.87
598.839	67
599.176	67.09
599.512	67.13
599.849	67.12
600.186	67.17
600.523	67.3
600.859	67.35
601.196	67.39
601.532	67.46
601.869	67.53
602.205	67.62
602.542	67.65
602.878	67.68
603.215	67.67
603.551	67.68
603.887	67.79
604.223	67.83
604.56	67.9
604.896	67.98
605.232	68.01
605.568	68.06
605.904	68
606.24	68.1
606.576	68.15
606.912	68.19
607.248	68.2
607.583	68.22
607.919	68.28
608.255	68.45
608.591	68.54
608.926	68.59
609.262	68.62
609.597	68.66
609.933	68.7
610.268	68.83
610.604	68.89
610.939	68.89
611.275	68.94
611.61	69.01
611.945	69.05
612.281	69.1
612.616	69.16
612.951	69.16
613.286	69.24
613.621	69.31
613.956	69.3
614.291	69.45
614.626	69.55
614.961	69.54
615.296	69.46
615.631	69.46
615.966	69.58
616.3	69.62
616.635	69.62
616.97	69.61
617.304	69.6
617.639	69.65
617.973	69.75
618.308	69.8
618.642	69.77
618.977	69.75
619.311	69.86
619.646	69.86
619.98	70.01
620.314	69.94
620.648	70.01
620.983	70.08
621.317	70.01
621.651	70.06
621.985	70.18
622.319	70.23
622.653	70.27
622.987	70.23
623.321	70.34
623.655	70.39
623.988	70.51
624.322	70.5
624.656	70.66
624.99	70.6
625.323	70.57
625.657	70.62
625.99	70.64
626.324	70.62
626.657	70.64
626.991	70.59
627.324	70.61
627.658	70.49
627.991	70.54
628.324	70.6
628.657	70.54
628.991	70.55
629.324	70.56
629.657	70.55
629.99	70.55
630.323	70.42
630.656	70.41
630.989	70.47
631.322	70.47
631.655	70.41
631.987	70.43
632.32	70.53
632.653	70.56
632.986	70.62
633.318	70.6
633.651	70.65
633.984	70.75
634.316	70.87
634.649	71.04
634.981	70.99
635.313	70.99
635.646	71
635.978	70.99
636.31	70.97
636.643	70.96
636.975	70.99
637.307	71.15
637.639	71.18
637.971	71.05
638.303	71.1
638.635	71.04
638.967	71.09
639.299	71.19
639.631	71.02
639.963	71.07
640.295	71.11
640.626	71.19
640.958	71.19
641.29	71.13
641.621	71.09
641.953	71.14
642.285	71.13
642.616	71.09
642.948	71.13
643.279	71.17
643.61	71.33
643.942	71.37
644.273	71.42
644.604	71.45
644.936	71.58
645.267	71.56
645.598	71.59
645.929	71.63
646.26	71.57
646.591	71.73
646.922	71.75
647.253	71.84
647.584	71.75
647.915	71.69
648.245	71.64
648.576	71.69
648.907	71.73
649.238	71.73
649.568	71.86
649.899	71.82
650.229	71.86
650.56	71.76
650.89	71.81
651.221	71.82
651.551	71.94
651.882	71.94
652.212	71.92
652.542	71.99
652.872	72.01
653.203	71.97
653.533	71.97
653.863	71.92
654.193	71.94
654.523	71.93
654.853	71.94
655.183	72.03
655.513	72.06
655.843	72.02
656.172	72
656.502	71.9
656.832	71.91
657.162	71.84
657.491	71.94
657.821	71.99
658.15	71.96
658.48	72
658.809	72.06
659.139	72.18
659.468	72.26
659.798	72.28
660.127	72.25
660.456	72.29
660.785	72.25
661.115	72.14
661.444	72.17
661.773	72.27
662.102	72.32
662.431	72.28
662.76	72.34
663.089	72.39
663.418	72.46
663.747	72.53
664.076	72.61
664.404	72.58
664.733	72.5
665.062	72.47
665.39	72.38
665.719	72.3
666.048	72.33
666.376	72.27
666.705	72.32
667.033	72.37
667.362	72.46
667.69	72.57
668.018	72.57
668.347	72.68
668.675	72.64
669.003	72.62
669.331	72.62
669.659	72.5
669.987	72.54
670.315	72.59
670.643	72.49
670.971	72.56
671.299	72.72
671.627	72.67
671.955	72.66
672.283	72.71
672.61	72.77
672.938	72.72
673.266	72.77
673.593	72.75
673.921	72.73
674.249	72.64
674.576	72.61
674.904	72.78
675.231	72.6
675.558	72.52
675.886	72.48
676.213	72.47
676.54	72.63
676.867	72.62
677.195	72.64
677.522	72.75
677.849	72.8
678.176	72.65
678.503	72.7
678.83	72.77
679.157	72.66
679.484	72.51
679.81	72.41
680.137	72.44
680.464	72.43
680.791	72.41
681.117	72.44
681.444	72.38
681.771	72.34
682.097	72.38
682.424	72.44
682.75	72.5
683.077	72.56
683.403	72.51
683.729	72.53
684.056	72.56
684.382	72.64
684.708	72.66
685.034	72.68
685.36	72.67
685.686	72.57
686.012	72.49
686.339	72.54
686.664	72.75
686.99	72.76
687.316	72.84
687.642	72.92
687.968	72.8
688.294	72.88
688.619	72.75
688.945	72.85
689.271	72.75
689.596	72.58
689.922	72.52
690.247	72.61
690.573	72.65
690.898	72.65
691.224	72.53
691.549	72.47
691.874	72.56
692.2	72.58
692.525	72.7
692.85	72.69
693.175	72.89
693.5	72.64
693.825	72.5
694.15	72.37
694.475	72.51
694.8	72.6
695.125	72.72
695.45	72.84
695.775	72.8
696.099	72.8
696.424	72.98
696.749	72.95
697.073	72.95
697.398	72.93
697.723	72.86
698.047	72.8
698.372	72.73
698.696	72.68
699.02	72.68
699.345	72.74
699.669	72.9
699.993	72.81
700.318	72.91
700.642	73.1
700.966	73.24
701.29	73.08
701.614	73.1
701.938	73.14
702.262	73.2
702.586	73.23
702.91	73.33
703.234	73.1
703.557	73.19
703.881	73.07
704.205	73.13
704.529	73.15
704.852	73.13
705.176	72.99
705.499	73.03
705.823	72.89
706.146	72.82
706.47	72.83
706.793	72.78
707.117	73
707.44	72.87
707.763	72.63
708.086	72.46
708.409	72.6
708.733	72.49
709.056	72.26
709.379	72.1
709.702	72.12
710.025	72.15
710.348	72.17
710.671	72.31
710.993	72.16
711.316	72.2
711.639	72.38
711.962	72.46
712.284	72.6
712.607	72.83
712.93	72.93
713.252	73.01
713.575	73.09
713.897	72.84
714.22	72.81
714.542	72.97
714.864	73.01
715.187	73.04
715.509	72.96
715.831	72.95
716.153	73.02
716.475	72.78
716.798	72.96
717.12	72.91
717.442	72.75
717.764	72.83
718.085	72.83
718.407	72.57
718.729	72.78
719.051	72.65
719.373	72.55
719.695	72.52
720.016	72.55
720.338	72.43
720.659	72.77
720.981	72.64
721.302	72.55
721.624	72.75
721.945	72.95
722.267	73.01
722.588	73.22
722.909	73.48
723.231	73.85
723.552	73.9
723.873	73.8
724.194	74.05
724.515	73.87
724.836	73.94
725.157	74.25
725.478	74.04
725.799	74.11
726.12	73.87
726.441	73.81
726.762	73.79
727.083	74.01
727.403	73.59
727.724	73.9
728.045	73.94
728.365	73.93
728.686	73.64
729.006	73.61
729.327	73.56
729.647	73.46
729.967	73.39
730.288	73.54
730.608	73.78
730.928	73.83
731.249	73.85
731.569	73.82
731.889	73.82
732.209	73.78
732.529	73.7
732.849	74.05
733.169	73.88
733.489	73.77
733.809	73.72
734.129	74.05
734.448	73.82
734.768	73.81
735.088	73.78
735.408	73.63
735.727	73.84
736.047	73.91
736.366	73.74
736.686	73.66
737.005	73.53
737.325	73.31
737.644	73.17
737.963	73.21
738.283	73.09
738.602	72.98
738.921	73.12
739.24	72.94
739.56	72.75
739.879	72.82
740.198	73.25
740.517	73.13
740.836	72.85
741.155	73.01
741.473	72.94
741.792	72.85
742.111	72.88
742.43	72.7
742.748	72.73
743.067	72.95
743.386	72.83
743.704	72.83
744.023	72.9
744.341	72.88
744.66	72.85
744.978	73.18
745.297	73.52
745.615	73.47
745.933	73.74
746.252	73.86
746.57	73.72
746.888	73.44
747.206	73.45
747.524	73.62
747.842	73.08
748.16	73.27
748.478	73.26
748.796	73.2
749.114	73.09
749.432	73.17
749.749	73.13
750.067	73.14
750.385	72.79
750.703	73.1
751.02	73.05
751.338	73.26
751.655	73.14
751.973	72.75
752.29	72.74
752.608	72.76
752.925	72.7
753.242	72.82
753.56	72.67
753.877	72.75
754.194	72.6
754.511	73.04
754.828	72.81
755.145	73.06
755.462	73.1
755.779	73.63
756.096	73.49
756.413	73.49
756.73	73.62
757.047	74.11
757.364	73.95
757.68	74
757.997	73.68
758.314	73.49
758.63	73.86
758.947	73.7
759.264	73.63
759.58	73.86
759.896	73.88
760.213	73.92
760.529	73.85
760.846	73.73
761.162	73.85
761.478	74.09
761.794	74.05
762.11	74.19
762.426	73.76
762.743	73.69
763.059	73.5
763.375	73.47
763.69	73.33
764.006	73.2
764.322	72.96
764.638	72.98
764.954	73
765.27	72.81
765.585	72.99
765.901	73.09
766.216	72.91
766.532	72.96
766.848	72.84
767.163	72.93
767.478	72.91
767.794	72.64
768.109	72.69
768.424	72.53
768.74	72.77
769.055	72.62
769.37	72.83
769.685	73.19
770	73.15
770.315	72.97
770.63	72.92
770.945	73.31
771.26	73.68
771.575	73.9
771.89	73.93
772.205	73.73
772.52	73.43
772.834	73.6
773.149	73.19
773.464	73.2
773.778	73.17
774.093	73.33
774.407	73.27
774.722	72.67
775.036	72.36
775.351	72.37
775.665	72.2
775.979	72.15
776.293	72.07
776.608	72.22
776.922	72.35
777.236	72.22
777.55	71.64
777.864	71.36
778.178	71.15
778.492	71.02
778.806	70.97
779.12	70.94
779.434	70.86
779.747	71.24
780.061	71.33
780.375	71.17
780.689	71.45
781.002	71.95
781.316	72.1
781.629	72.33
781.943	71.8
782.256	72.11
782.57	71.53
782.883	71.32
783.196	71.18
783.51	70.87
783.823	71.06
784.136	71.27
784.449	71.38
784.762	71.26
785.075	71.76
785.388	72.08
785.701	72.37
786.014	72.27
786.327	71.96
786.64	71.99
786.953	72.25
787.266	72.03
787.578	71.66
787.891	72.21
788.204	72.55
788.516	72.76
788.829	72.5
789.141	73.04
789.454	73.24
789.766	73.31
790.079	73.44
790.391	73.59
790.703	73.76
791.016	74.03
791.328	74.07
791.64	73.4
791.952	73.1
792.264	72.8
792.576	72.57
792.888	72.93
793.2	72.76
793.512	72.52
793.824	72.44
794.136	73.12
794.448	72.66
794.76	72.59
795.071	72.52
795.383	73.66
795.695	72.92
796.006	72.62
796.318	72.91
796.629	72.83
796.941	72.91
797.252	73.25
797.564	72.77
797.875	72.97
798.186	73.1
798.497	73.94
798.809	74.5
799.12	75.36
799.431	75.17
799.742	75.33
800.053	75.72
800.364	75.98
800.675	75.69
800.986	76.58
801.297	76.44
801.608	76.16
801.918	75.27
802.229	76.26
802.54	76.58
802.851	76.67
803.161	76.78
803.472	77.01
803.782	77.33
804.093	77.79
804.403	77.58
804.714	78.22
805.024	77.87
805.334	77.37
805.645	76.91
805.955	77.13
806.265	77.22
806.575	76.49
806.885	76.06
807.195	75.56
807.505	74.2
807.815	73.81
808.125	73.6
808.435	73.91
808.745	73.59
809.055	72.73
809.365	72.55
809.674	72.75
809.984	72.53
810.294	72.29
810.603	72.37
810.913	72.48
811.222	72.16
811.532	71.72
811.841	71.5
812.151	71.46
812.46	71.85
812.769	72.03
813.079	71.95
813.388	72.57
813.697	72.45
814.006	73.3
814.315	73.93
814.624	74.15
814.933	74.11
815.242	73.53
815.551	75.18
815.86	75.08
816.169	74.41
816.478	74.56
816.786	73.97
817.095	74.2
817.404	74.52
817.712	74.16
818.021	75.03
818.33	75.66
818.638	75.35
818.947	74.91
819.255	74.49
819.563	74.53
819.872	73.96
820.18	74.14
820.488	74.22
820.796	74.23
821.105	74.47
821.413	74.57
821.721	75.09
822.029	74.64
822.337	74.61
822.645	74.92
822.953	74.84
823.26	74.92
823.568	74.88
823.876	74.58
824.184	74.55
824.491	74.46
824.799	74.39
825.107	74.36
825.414	74.23
825.722	74.34
826.029	74.47
826.337	74.54
826.644	74.63
826.951	74.46
827.259	74.51
827.566	74.45
827.873	74.25
828.18	73.66
828.488	73.85
828.795	73.89
829.102	73.48
829.409	73.6
829.716	73.48
830.023	73.19
830.329	73.48
830.636	73.55
830.943	73.21
831.25	72.93
831.557	72.74
831.863	72.91
832.17	72.8
832.476	73.03
832.783	73.1
833.089	73.05
833.396	73.02
833.702	72.53
834.009	72.8
834.315	73.26
834.621	73.75
834.928	73.7
835.234	74.02
835.54	74.21
835.846	74.18
836.152	74.19
836.458	74.54
836.764	74.71
837.07	74.3
837.376	73.95
837.682	74.11
837.988	74.29
838.293	74.45
838.599	74.04
838.905	73.02
839.211	73.12
839.516	72.6
839.822	72.29
840.127	72.85
840.433	72.4
840.738	71.81
841.044	71.19
841.349	71.22
841.654	72.09
841.959	72.28
842.265	70.37
842.57	70.55
842.875	70.67
843.18	69.86
843.485	71.04
843.79	72.62
844.095	71.54
844.4	71.63
844.705	71.92
845.01	71.49
845.315	71.94
845.619	72.01
845.924	73.06
846.229	73.42
846.533	72.86
846.838	72
847.142	72.09
847.447	71.34
847.751	70.88
848.056	67.71
848.36	68.87
848.664	70.96
848.969	69.37
849.273	65.64
849.577	66.05
849.881	66.32
850.185	66.68
850.489	67.48
850.794	67.59
851.097	67.92
851.401	68.54
851.705	70.24
852.009	70.18
852.313	68.8
852.617	70.35
852.92	72.95
853.224	72.61
853.528	71.51
853.831	74.31
854.135	72.7
854.438	72.9
854.742	71.06
855.045	70.76
855.349	72.98
855.652	76.06
855.955	77.22
856.259	74.18
856.562	72.41
856.865	72.07
857.168	74.13
857.471	75.08
857.774	74.54
858.077	73.01
858.38	72.55
858.683	73.22
858.986	72.88
859.289	70.93
859.592	71.33
859.894	73.8
860.197	72.17
860.5	74.48
860.802	75.08
861.105	75.18
861.407	74.56
861.71	73.78
862.012	74.03
862.315	74.35
862.617	76.18
862.919	76.17
863.222	77.52
863.524	76.33
863.826	74.82
864.128	77.14
864.43	78.3
864.732	78.62
865.034	76.73
865.336	75.14
865.638	75.85
865.94	78.4
866.242	75.84
866.544	79.02
866.846	79.83
867.147	81.38
867.449	82.07
867.751	84.81
868.052	85.39
868.354	85.77
868.655	82.01
868.957	84.25
869.258	87.12
869.56	86.66
869.861	83.51
870.162	82.45
870.463	80.98
870.765	81.2
871.066	82.92
871.367	83.77
871.668	87.23
871.969	85.4
872.27	83.4
872.571	82.94
872.872	81.81
873.173	78.78
873.473	77.63
873.774	78.09
874.075	78.32
874.376	76.02
874.676	75.7
874.977	78.62
875.277	78.52
875.578	76.72
875.878	77.4
876.179	79.8
876.479	80.35
876.78	81.35
877.08	80.07
877.38	78.88
877.68	80.85
877.981	77.49
878.281	78.48
878.581	79.04
