Data from BA28471_Reflection_00011.txt Node
Date: Mon Nov 18 15:21:23 EST 2019
User: vgr7
Spectrometer: USB2G7710
Scans to average: 3
Trigger mode: 4
Integration Time (sec): 2.000000E-2
Electric dark correction enabled: true
Boxcar width: 10
XAxis mode: Wavelengths
Number of Pixels in Spectrum: 2048
>>>>>Begin Spectral Data<<<<<
177.721	460.69
178.105	-84.97
178.488	-58.51
178.871	-63.88
179.254	-17.19
179.636	-93.81
180.019	-67.1
180.402	46.15
180.785	834.94
181.168	66.51
181.55	102.11
181.933	96.81
182.316	92.06
182.698	142.67
183.081	136.54
183.463	189.19
183.846	335.01
184.228	291.09
184.611	912.24
184.993	9858.62
185.376	-1204.15
185.758	-523.09
186.14	-2489.4
186.522	-22057.89
186.904	1002.02
187.287	736.36
187.669	-1153.3
188.051	-503.31
188.433	-289.08
188.815	-231.42
189.197	-219.98
189.579	-182.64
189.961	-173.23
190.342	-174.65
190.724	-146.64
191.106	-119.94
191.488	-155.11
191.869	-147.67
192.251	-213.46
192.633	-245.78
193.014	-400.78
193.396	-514.37
193.777	-488.36
194.159	-863.08
194.54	-214.83
194.922	-151.68
195.303	-333
195.684	-248.95
196.065	-146.29
196.447	-259.92
196.828	-434.07
197.209	-240.05
197.59	-289.45
197.971	-286.78
198.352	-271.53
198.733	-835.66
199.114	-733.69
199.495	-350.83
199.876	-324.12
200.257	-157.5
200.638	-117.04
201.018	-126.48
201.399	-116.12
201.78	-83.53
202.16	-72.03
202.541	-85.65
202.922	-125.61
203.302	-110.81
203.683	-127.83
204.063	-188.47
204.444	-146.5
204.824	-163.19
205.204	-139.27
205.585	-137.42
205.965	-106.15
206.345	-106.65
206.725	-101.79
207.106	-113.56
207.486	-109.75
207.866	-95.85
208.246	-103.8
208.626	-121.25
209.006	-101.88
209.386	-132.4
209.766	-182.23
210.145	-145.43
210.525	-124.3
210.905	-89.43
211.285	-87.62
211.664	-67.3
212.044	-46.7
212.424	-50.29
212.803	-32.94
213.183	-29.06
213.562	-19.54
213.942	-1.98
214.321	9.33
214.701	-13.49
215.08	16.32
215.459	11.95
215.838	21.49
216.218	10.31
216.597	22.75
216.976	20.68
217.355	14.67
217.734	0.38
218.113	2.32
218.492	-19.14
218.871	-35.77
219.25	-41.21
219.629	-48.34
220.008	-65.86
220.387	-66.4
220.766	-68.59
221.144	-84.02
221.523	-126.96
221.902	-163.86
222.28	-168.88
222.659	-111.08
223.037	-119.72
223.416	-117.39
223.794	-122.71
224.173	-113.87
224.551	-103.77
224.929	-114.71
225.308	-83.65
225.686	-63.24
226.064	-56.05
226.442	-35.41
226.821	-23.5
227.199	-18.9
227.577	-16.35
227.955	-11.78
228.333	-8.8
228.711	-3.16
229.089	2.26
229.467	3.75
229.845	4.43
230.222	4.55
230.6	2.31
230.978	3.9
231.356	4.17
231.733	3.4
232.111	3.7
232.488	3.3
232.866	5.83
233.243	5.15
233.621	4.02
233.998	5.08
234.376	3.26
234.753	4.1
235.13	4.52
235.508	4.14
235.885	3.98
236.262	2.8
236.639	0.79
237.016	0.19
237.393	1.87
237.77	1.93
238.147	2.28
238.524	3.01
238.901	3.56
239.278	3.6
239.655	4.2
240.032	4.04
240.409	3.88
240.785	2.86
241.162	3.59
241.539	3.55
241.915	2.8
242.292	2.61
242.668	2.6
243.045	2.95
243.421	3.13
243.798	3.09
244.174	3.39
244.551	3.52
244.927	3.78
245.303	3.92
245.679	4.17
246.056	4.04
246.432	4.05
246.808	3.74
247.184	3.85
247.56	3.67
247.936	3.62
248.312	3.72
248.688	4.13
249.064	3.73
249.44	3.78
249.815	4.05
250.191	4.33
250.567	4.48
250.943	4.34
251.318	4.52
251.694	4.56
252.069	4.57
252.445	4.62
252.82	4.24
253.196	4.15
253.571	4.05
253.947	4.22
254.322	4.62
254.697	4.69
255.073	4.11
255.448	4.33
255.823	4.5
256.198	4.65
256.573	4.41
256.948	4.4
257.323	4.37
257.698	4.39
258.073	4.32
258.448	4.27
258.823	4.18
259.198	4.09
259.573	4.01
259.948	3.85
260.322	3.93
260.697	3.93
261.072	3.84
261.446	3.72
261.821	3.52
262.195	3.38
262.57	3.4
262.944	3.58
263.319	3.49
263.693	3.38
264.067	3.22
264.442	3.42
264.816	3.53
265.19	3.48
265.564	3.45
265.938	3.33
266.313	3.25
266.687	3.33
267.061	3.36
267.435	3.44
267.809	3.61
268.183	3.61
268.556	3.75
268.93	3.98
269.304	4.11
269.678	4.35
270.051	4.24
270.425	4.26
270.799	4.14
271.172	4.15
271.546	4.11
271.919	4.01
272.293	3.84
272.666	3.78
273.04	3.77
273.413	3.69
273.787	3.72
274.16	3.67
274.533	3.7
274.906	3.52
275.279	3.45
275.653	3.4
276.026	3.3
276.399	3.2
276.772	3.06
277.145	3.04
277.518	3.06
277.891	3.03
278.263	2.89
278.636	3.07
279.009	3.17
279.382	3.4
279.755	3.4
280.127	3.4
280.5	3.55
280.872	3.68
281.245	3.75
281.617	3.81
281.99	3.96
282.362	3.93
282.735	4.06
283.107	4.1
283.479	4.22
283.852	4.28
284.224	4.34
284.596	4.36
284.968	4.4
285.34	4.21
285.713	4.21
286.085	4.41
286.457	4.38
286.829	4.38
287.201	4.29
287.572	4.34
287.944	4.4
288.316	4.32
288.688	4.25
289.06	4.27
289.431	4.3
289.803	4.33
290.175	4.35
290.546	4.42
290.918	4.47
291.289	4.45
291.661	4.4
292.032	4.47
292.403	4.47
292.775	4.45
293.146	4.44
293.517	4.39
293.889	4.29
294.26	4.26
294.631	4.18
295.002	4.21
295.373	4.3
295.744	4.39
296.115	4.44
296.486	4.36
296.857	4.32
297.228	4.39
297.599	4.18
297.97	4.2
298.34	4.28
298.711	4.29
299.082	4.27
299.452	4.36
299.823	4.4
300.194	4.47
300.564	4.47
300.935	4.6
301.305	4.68
301.676	4.72
302.046	4.76
302.416	4.86
302.787	4.84
303.157	4.78
303.527	4.69
303.897	4.76
304.267	4.89
304.637	4.97
305.008	4.98
305.378	5.17
305.748	5.32
306.117	5.17
306.487	5.3
306.857	5.45
307.227	5.49
307.597	5.38
307.967	5.41
308.336	5.54
308.706	5.6
309.076	5.7
309.445	5.74
309.815	5.75
310.184	5.82
310.554	5.86
310.923	5.94
311.293	5.98
311.662	5.94
312.031	5.97
312.401	6.02
312.77	5.94
313.139	5.95
313.508	5.91
313.877	5.95
314.246	5.86
314.616	5.83
314.985	5.78
315.353	5.74
315.722	5.66
316.091	5.53
316.46	5.4
316.829	5.44
317.198	5.53
317.567	5.5
317.935	5.32
318.304	5.23
318.672	5.18
319.041	5.21
319.41	5.2
319.778	5.2
320.147	5.11
320.515	5.27
320.883	5.2
321.252	5.13
321.62	5.16
321.988	5.15
322.357	5.15
322.725	5.19
323.093	5.34
323.461	5.4
323.829	5.41
324.197	5.48
324.565	5.48
324.933	5.55
325.301	5.63
325.669	5.7
326.037	5.78
326.405	5.85
326.772	5.85
327.14	5.95
327.508	6.03
327.875	6.15
328.243	6.11
328.61	6.14
328.978	6.29
329.346	6.41
329.713	6.35
330.08	6.38
330.448	6.32
330.815	6.2
331.182	6.19
331.55	6.3
331.917	6.38
332.284	6.42
332.651	6.21
333.018	6.22
333.385	6.31
333.752	6.36
334.119	6.42
334.486	6.33
334.853	6.24
335.22	6.12
335.587	6.04
335.954	6.04
336.32	6.15
336.687	6.03
337.054	5.95
337.42	6.16
337.787	6.12
338.153	6.26
338.52	6.33
338.886	6.35
339.253	6.27
339.619	6.3
339.986	6.42
340.352	6.41
340.718	6.34
341.084	6.36
341.451	6.44
341.817	6.46
342.183	6.59
342.549	6.6
342.915	6.75
343.281	6.76
343.647	6.73
344.013	6.67
344.379	6.67
344.745	6.64
345.11	6.59
345.476	6.67
345.842	6.69
346.208	6.79
346.573	6.92
346.939	7.04
347.304	6.96
347.67	6.82
348.035	6.9
348.401	6.99
348.766	6.89
349.132	6.85
349.497	6.82
349.862	6.77
350.228	6.85
350.593	6.77
350.958	6.82
351.323	6.89
351.688	6.93
352.053	7.01
352.418	7.11
352.783	7.06
353.148	7.04
353.513	6.97
353.878	6.91
354.243	6.85
354.608	6.78
354.972	6.79
355.337	6.8
355.702	6.8
356.066	6.79
356.431	6.79
356.795	6.83
357.16	6.75
357.524	6.66
357.889	6.63
358.253	6.6
358.618	6.62
358.982	6.53
359.346	6.46
359.71	6.47
360.075	6.45
360.439	6.39
360.803	6.3
361.167	6.28
361.531	6.24
361.895	6.19
362.259	6.24
362.623	6.2
362.987	6.18
363.351	6.15
363.714	6.11
364.078	6.12
364.442	6.05
364.806	6.03
365.169	6.06
365.533	6.05
365.896	6.07
366.26	5.98
366.623	5.97
366.987	5.97
367.35	5.91
367.714	5.85
368.077	5.89
368.44	5.94
368.803	5.86
369.167	5.86
369.53	5.81
369.893	5.78
370.256	5.79
370.619	5.77
370.982	5.73
371.345	5.71
371.708	5.69
372.071	5.62
372.434	5.61
372.797	5.62
373.159	5.53
373.522	5.51
373.885	5.49
374.247	5.48
374.61	5.44
374.973	5.36
375.335	5.32
375.698	5.3
376.06	5.27
376.423	5.31
376.785	5.35
377.147	5.33
377.51	5.24
377.872	5.21
378.234	5.17
378.596	5.19
378.958	5.12
379.321	5.08
379.683	5.08
380.045	5.09
380.407	5.04
380.769	5.06
381.13	4.96
381.492	4.97
381.854	4.93
382.216	4.92
382.578	4.88
382.939	4.87
383.301	4.83
383.663	4.8
384.024	4.76
384.386	4.67
384.747	4.65
385.109	4.63
385.47	4.58
385.832	4.57
386.193	4.56
386.554	4.61
386.916	4.61
387.277	4.61
387.638	4.57
387.999	4.54
388.36	4.5
388.721	4.5
389.082	4.45
389.443	4.45
389.804	4.44
390.165	4.44
390.526	4.44
390.887	4.43
391.248	4.42
391.609	4.43
391.969	4.41
392.33	4.38
392.691	4.36
393.051	4.4
393.412	4.4
393.772	4.35
394.133	4.33
394.493	4.28
394.854	4.23
395.214	4.19
395.574	4.17
395.935	4.11
396.295	4.11
396.655	4.08
397.015	4.04
397.376	4.05
397.736	4.04
398.096	3.96
398.456	3.92
398.816	3.9
399.176	3.84
399.535	3.81
399.895	3.79
400.255	3.79
400.615	3.74
400.975	3.7
401.334	3.67
401.694	3.63
402.054	3.63
402.413	3.64
402.773	3.65
403.132	3.63
403.492	3.68
403.851	3.66
404.211	3.69
404.57	3.67
404.929	3.65
405.288	3.65
405.648	3.64
406.007	3.67
406.366	3.65
406.725	3.67
407.084	3.68
407.443	3.7
407.802	3.71
408.161	3.7
408.52	3.67
408.879	3.68
409.238	3.72
409.596	3.7
409.955	3.69
410.314	3.67
410.673	3.66
411.031	3.62
411.39	3.61
411.748	3.6
412.107	3.61
412.465	3.57
412.824	3.59
413.182	3.58
413.54	3.57
413.899	3.56
414.257	3.56
414.615	3.53
414.974	3.56
415.332	3.54
415.69	3.54
416.048	3.53
416.406	3.53
416.764	3.48
417.122	3.51
417.48	3.49
417.838	3.5
418.195	3.48
418.553	3.46
418.911	3.45
419.269	3.44
419.626	3.42
419.984	3.43
420.342	3.41
420.699	3.42
421.057	3.43
421.414	3.42
421.772	3.4
422.129	3.41
422.486	3.38
422.844	3.38
423.201	3.37
423.558	3.36
423.915	3.35
424.273	3.35
424.63	3.34
424.987	3.35
425.344	3.33
425.701	3.35
426.058	3.36
426.415	3.37
426.772	3.36
427.128	3.36
427.485	3.36
427.842	3.34
428.199	3.32
428.555	3.29
428.912	3.28
429.269	3.28
429.625	3.27
429.982	3.26
430.338	3.27
430.695	3.28
431.051	3.29
431.407	3.27
431.764	3.25
432.12	3.23
432.476	3.2
432.832	3.2
433.189	3.19
433.545	3.19
433.901	3.19
434.257	3.19
434.613	3.18
434.969	3.18
435.325	3.2
435.681	3.2
436.036	3.2
436.392	3.21
436.748	3.21
437.104	3.18
437.459	3.18
437.815	3.16
438.171	3.17
438.526	3.17
438.882	3.18
439.237	3.21
439.593	3.23
439.948	3.23
440.304	3.23
440.659	3.23
441.014	3.22
441.369	3.22
441.725	3.22
442.08	3.22
442.435	3.23
442.79	3.24
443.145	3.24
443.5	3.25
443.855	3.24
444.21	3.24
444.565	3.28
444.92	3.29
445.275	3.29
445.629	3.28
445.984	3.27
446.339	3.25
446.693	3.22
447.048	3.19
447.403	3.19
447.757	3.18
448.112	3.18
448.466	3.17
448.82	3.17
449.175	3.18
449.529	3.18
449.883	3.16
450.238	3.14
450.592	3.15
450.946	3.14
451.3	3.14
451.654	3.14
452.008	3.12
452.362	3.09
452.716	3.08
453.07	3.09
453.424	3.09
453.778	3.12
454.132	3.13
454.486	3.14
454.839	3.16
455.193	3.18
455.547	3.19
455.9	3.21
456.254	3.21
456.607	3.2
456.961	3.2
457.314	3.19
457.668	3.18
458.021	3.15
458.375	3.15
458.728	3.14
459.081	3.14
459.434	3.13
459.787	3.15
460.141	3.16
460.494	3.14
460.847	3.15
461.2	3.13
461.553	3.14
461.906	3.15
462.259	3.16
462.611	3.18
462.964	3.18
463.317	3.16
463.67	3.16
464.022	3.16
464.375	3.15
464.728	3.17
465.08	3.18
465.433	3.2
465.785	3.2
466.138	3.21
466.49	3.22
466.843	3.23
467.195	3.23
467.547	3.23
467.899	3.23
468.252	3.22
468.604	3.24
468.956	3.22
469.308	3.22
469.66	3.18
470.012	3.17
470.364	3.16
470.716	3.17
471.068	3.19
471.42	3.2
471.772	3.24
472.123	3.24
472.475	3.25
472.827	3.25
473.178	3.25
473.53	3.25
473.882	3.24
474.233	3.26
474.585	3.25
474.936	3.27
475.288	3.27
475.639	3.3
475.99	3.31
476.342	3.32
476.693	3.33
477.044	3.33
477.395	3.33
477.746	3.32
478.097	3.31
478.448	3.3
478.8	3.3
479.15	3.26
479.501	3.25
479.852	3.25
480.203	3.26
480.554	3.26
480.905	3.27
481.255	3.28
481.606	3.29
481.957	3.3
482.307	3.28
482.658	3.28
483.009	3.26
483.359	3.26
483.709	3.27
484.06	3.27
484.41	3.28
484.761	3.29
485.111	3.29
485.461	3.3
485.811	3.3
486.162	3.3
486.512	3.31
486.862	3.32
487.212	3.32
487.562	3.33
487.912	3.34
488.262	3.34
488.612	3.34
488.961	3.33
489.311	3.33
489.661	3.35
490.011	3.35
490.36	3.37
490.71	3.38
491.06	3.38
491.409	3.38
491.759	3.37
492.108	3.38
492.458	3.39
492.807	3.37
493.157	3.38
493.506	3.4
493.855	3.4
494.204	3.4
494.554	3.41
494.903	3.42
495.252	3.43
495.601	3.46
495.95	3.47
496.299	3.48
496.648	3.48
496.997	3.48
497.346	3.5
497.695	3.52
498.043	3.53
498.392	3.54
498.741	3.58
499.09	3.59
499.438	3.6
499.787	3.64
500.135	3.66
500.484	3.69
500.832	3.71
501.181	3.75
501.529	3.76
501.878	3.8
502.226	3.83
502.574	3.82
502.923	3.83
503.271	3.86
503.619	3.89
503.967	3.92
504.315	3.96
504.663	3.98
505.011	4
505.359	4.03
505.707	4.08
506.055	4.11
506.403	4.18
506.751	4.23
507.098	4.24
507.446	4.29
507.794	4.32
508.141	4.36
508.489	4.38
508.837	4.43
509.184	4.46
509.531	4.53
509.879	4.62
510.226	4.66
510.574	4.71
510.921	4.77
511.268	4.82
511.616	4.88
511.963	4.94
512.31	5.01
512.657	5.07
513.004	5.11
513.351	5.17
513.698	5.23
514.045	5.3
514.392	5.39
514.739	5.46
515.086	5.53
515.432	5.59
515.779	5.67
516.126	5.75
516.473	5.82
516.819	5.87
517.166	5.91
517.512	5.98
517.859	6.05
518.205	6.09
518.552	6.17
518.898	6.22
519.245	6.27
519.591	6.33
519.937	6.41
520.283	6.49
520.629	6.56
520.976	6.64
521.322	6.73
521.668	6.8
522.014	6.89
522.36	6.99
522.706	7.09
523.052	7.19
523.398	7.32
523.743	7.43
524.089	7.54
524.435	7.68
524.781	7.8
525.126	7.91
525.472	8.01
525.817	8.1
526.163	8.19
526.509	8.28
526.854	8.36
527.199	8.46
527.545	8.54
527.89	8.62
528.235	8.71
528.581	8.79
528.926	8.89
529.271	8.97
529.616	9.05
529.961	9.15
530.306	9.25
530.651	9.33
530.996	9.46
531.341	9.57
531.686	9.69
532.031	9.83
532.376	9.94
532.721	10.08
533.065	10.22
533.41	10.38
533.755	10.53
534.099	10.69
534.444	10.84
534.788	11
535.133	11.15
535.477	11.31
535.822	11.49
536.166	11.67
536.51	11.88
536.855	12.1
537.199	12.32
537.543	12.55
537.887	12.8
538.231	13.05
538.576	13.3
538.92	13.52
539.264	13.74
539.608	13.98
539.951	14.19
540.295	14.39
540.639	14.59
540.983	14.8
541.327	14.98
541.671	15.18
542.014	15.36
542.358	15.54
542.701	15.73
543.045	15.91
543.389	16.11
543.732	16.31
544.075	16.52
544.419	16.76
544.762	16.99
545.105	17.21
545.449	17.41
545.792	17.65
546.135	17.88
546.478	18.13
546.821	18.39
547.165	18.69
547.508	18.99
547.851	19.25
548.194	19.54
548.536	19.84
548.879	20.13
549.222	20.44
549.565	20.78
549.908	21.09
550.25	21.44
550.593	21.71
550.936	22.01
551.278	22.33
551.621	22.67
551.963	22.95
552.306	23.29
552.648	23.59
552.991	23.88
553.333	24.21
553.675	24.54
554.017	24.83
554.36	25.13
554.702	25.39
555.044	25.75
555.386	25.99
555.728	26.3
556.07	26.61
556.412	26.95
556.754	27.19
557.096	27.48
557.438	27.75
557.78	28.1
558.121	28.41
558.463	28.71
558.805	28.97
559.147	29.26
559.488	29.55
559.83	29.84
560.171	30.11
560.513	30.38
560.854	30.63
561.196	30.92
561.537	31.22
561.878	31.56
562.22	31.78
562.561	32.08
562.902	32.29
563.243	32.52
563.584	32.79
563.925	33.02
564.266	33.23
564.607	33.47
564.948	33.68
565.289	33.93
565.63	34.11
565.971	34.31
566.312	34.5
566.653	34.71
566.993	34.95
567.334	35.21
567.675	35.42
568.015	35.64
568.356	35.85
568.696	36.03
569.037	36.25
569.377	36.43
569.718	36.71
570.058	36.93
570.398	37.13
570.739	37.28
571.079	37.59
571.419	37.86
571.759	38.06
572.099	38.23
572.439	38.4
572.779	38.58
573.119	38.81
573.459	39.04
573.799	39.22
574.139	39.37
574.479	39.53
574.819	39.73
575.158	39.91
575.498	40.05
575.838	40.2
576.177	40.3
576.517	40.47
576.856	40.58
577.196	40.72
577.535	40.87
577.875	41.05
578.214	41.18
578.553	41.35
578.893	41.48
579.232	41.66
579.571	41.88
579.91	42
580.25	42.13
580.589	42.23
580.928	42.44
581.267	42.62
581.606	42.75
581.945	42.84
582.283	42.97
582.622	43.18
582.961	43.28
583.3	43.44
583.639	43.58
583.977	43.71
584.316	43.85
584.654	44.06
584.993	44.24
585.332	44.39
585.67	44.47
586.008	44.61
586.347	44.69
586.685	44.8
587.024	45.01
587.362	45.14
587.7	45.29
588.038	45.34
588.376	45.47
588.715	45.63
589.053	45.81
589.391	45.92
589.729	46.04
590.067	46.14
590.404	46.29
590.742	46.43
591.08	46.55
591.418	46.71
591.756	46.82
592.093	46.85
592.431	46.89
592.769	47.06
593.106	47.2
593.444	47.24
593.781	47.33
594.119	47.41
594.456	47.48
594.793	47.58
595.131	47.64
595.468	47.76
595.805	47.82
596.143	47.89
596.48	47.99
596.817	48.09
597.154	48.19
597.491	48.28
597.828	48.32
598.165	48.45
598.502	48.55
598.839	48.64
599.176	48.78
599.512	48.93
599.849	48.97
600.186	49
600.523	49.2
600.859	49.34
601.196	49.38
601.532	49.46
601.869	49.49
602.205	49.63
602.542	49.73
602.878	49.8
603.215	49.86
603.551	49.92
603.887	49.96
604.223	50.03
604.56	50.1
604.896	50.12
605.232	50.13
605.568	50.17
605.904	50.18
606.24	50.29
606.576	50.29
606.912	50.4
607.248	50.51
607.583	50.53
607.919	50.58
608.255	50.68
608.591	50.77
608.926	50.86
609.262	50.94
609.597	50.91
609.933	50.98
610.268	51.02
610.604	51.04
610.939	51.11
611.275	51.16
611.61	51.18
611.945	51.26
612.281	51.41
612.616	51.51
612.951	51.59
613.286	51.67
613.621	51.76
613.956	51.75
614.291	51.85
614.626	51.87
614.961	51.88
615.296	51.94
615.631	52.02
615.966	52.02
616.3	52.01
616.635	52.16
616.97	52.19
617.304	52.26
617.639	52.32
617.973	52.29
618.308	52.4
618.642	52.5
618.977	52.59
619.311	52.58
619.646	52.61
619.98	52.64
620.314	52.62
620.648	52.64
620.983	52.8
621.317	52.82
621.651	52.95
621.985	53.03
622.319	53.06
622.653	53.1
622.987	53.28
623.321	53.31
623.655	53.27
623.988	53.35
624.322	53.36
624.656	53.4
624.99	53.53
625.323	53.58
625.657	53.62
625.99	53.57
626.324	53.54
626.657	53.57
626.991	53.67
627.324	53.72
627.658	53.78
627.991	53.73
628.324	53.71
628.657	53.75
628.991	53.84
629.324	53.92
629.657	53.89
629.99	53.85
630.323	53.87
630.656	53.88
630.989	53.9
631.322	53.96
631.655	54.03
631.987	53.97
632.32	53.91
632.653	53.88
632.986	54.05
633.318	54.09
633.651	54.04
633.984	54.03
634.316	54.08
634.649	54.06
634.981	54.09
635.313	54.16
635.646	54.21
635.978	54.12
636.31	54.1
636.643	54.21
636.975	54.34
637.307	54.41
637.639	54.57
637.971	54.56
638.303	54.56
638.635	54.53
638.967	54.62
639.299	54.75
639.631	54.8
639.963	54.69
640.295	54.8
640.626	54.92
640.958	54.91
641.29	55.01
641.621	55.2
641.953	55.22
642.285	55.24
642.616	55.24
642.948	55.36
643.279	55.38
643.61	55.37
643.942	55.3
644.273	55.29
644.604	55.17
644.936	55.27
645.267	55.27
645.598	55.28
645.929	55.34
646.26	55.47
646.591	55.57
646.922	55.68
647.253	55.8
647.584	55.72
647.915	55.76
648.245	55.68
648.576	55.62
648.907	55.64
649.238	55.65
649.568	55.72
649.899	55.66
650.229	55.67
650.56	55.65
650.89	55.71
651.221	55.73
651.551	55.8
651.882	55.86
652.212	55.95
652.542	55.95
652.872	55.94
653.203	55.87
653.533	55.88
653.863	55.91
654.193	55.71
654.523	55.84
654.853	55.84
655.183	55.9
655.513	55.88
655.843	56.05
656.172	56.19
656.502	56.15
656.832	56.26
657.162	56.28
657.491	56.26
657.821	56.17
658.15	56.27
658.48	56.23
658.809	56.17
659.139	56.14
659.468	56.3
659.798	56.35
660.127	56.41
660.456	56.38
660.785	56.4
661.115	56.47
661.444	56.44
661.773	56.65
662.102	56.58
662.431	56.63
662.76	56.51
663.089	56.5
663.418	56.52
663.747	56.42
664.076	56.46
664.404	56.58
664.733	56.79
665.062	56.68
665.39	56.75
665.719	56.7
666.048	56.75
666.376	56.69
666.705	56.67
667.033	56.62
667.362	56.78
667.69	56.81
668.018	56.84
668.347	56.95
668.675	56.79
669.003	56.86
669.331	56.94
669.659	56.99
669.987	56.98
670.315	57.05
670.643	57.09
670.971	57.17
671.299	57.12
671.627	57.05
671.955	57.14
672.283	57.25
672.61	57.29
672.938	57.31
673.266	57.43
673.593	57.41
673.921	57.35
674.249	57.32
674.576	57.31
674.904	57.39
675.231	57.31
675.558	57.24
675.886	57.33
676.213	57.41
676.54	57.34
676.867	57.36
677.195	57.38
677.522	57.45
677.849	57.37
678.176	57.4
678.503	57.46
678.83	57.45
679.157	57.37
679.484	57.42
679.81	57.44
680.137	57.4
680.464	57.52
680.791	57.57
681.117	57.58
681.444	57.66
681.771	57.59
682.097	57.71
682.424	57.82
682.75	57.87
683.077	57.79
683.403	57.78
683.729	57.72
684.056	57.82
684.382	57.81
684.708	57.97
685.034	58.03
685.36	58.03
685.686	58.1
686.012	58.13
686.339	58.2
686.664	58.25
686.99	58.36
687.316	58.18
687.642	58.31
687.968	58.3
688.294	58.25
688.619	58.36
688.945	58.26
689.271	58.18
689.596	58.11
689.922	58.18
690.247	58.27
690.573	58.36
690.898	58.23
691.224	58.31
691.549	58.2
691.874	58.21
692.2	58.22
692.525	58.23
692.85	58.23
693.175	58.28
693.5	58.43
693.825	58.24
694.15	58.44
694.475	58.36
694.8	58.36
695.125	58.28
695.45	58.36
695.775	58.5
696.099	58.59
696.424	58.59
696.749	58.58
697.073	58.56
697.398	58.56
697.723	58.62
698.047	58.67
698.372	58.84
698.696	58.96
699.02	59.1
699.345	59.03
699.669	59.14
699.993	59.04
700.318	59
700.642	59.04
700.966	59.09
701.29	59.31
701.614	59.38
701.938	59.48
702.262	59.54
702.586	59.59
702.91	59.59
703.234	59.74
703.557	59.69
703.881	59.86
704.205	59.92
704.529	59.99
704.852	59.93
705.176	59.77
705.499	59.53
705.823	59.32
706.146	59.57
706.47	59.62
706.793	59.77
707.117	59.62
707.44	59.71
707.763	59.59
708.086	59.42
708.409	59.28
708.733	59.4
709.056	59.25
709.379	59.23
709.702	59.29
710.025	59.19
710.348	59.42
710.671	59.25
710.993	59.35
711.316	59.33
711.639	59.41
711.962	59.47
712.284	59.57
712.607	59.69
712.93	59.56
713.252	59.56
713.575	59.53
713.897	59.64
714.22	59.62
714.542	59.74
714.864	59.84
715.187	59.94
715.509	59.88
715.831	59.94
716.153	60.02
716.475	60.15
716.798	60.13
717.12	59.76
717.442	59.86
717.764	59.8
718.085	59.75
718.407	59.55
718.729	59.53
719.051	59.56
719.373	59.44
719.695	59.31
720.016	59.43
720.338	59.43
720.659	59.45
720.981	59.5
721.302	59.27
721.624	59.15
721.945	58.85
722.267	59.07
722.588	58.93
722.909	58.78
723.231	58.45
723.552	58.7
723.873	58.88
724.194	58.9
724.515	59.02
724.836	59.22
725.157	59.59
725.478	59.6
725.799	59.71
726.12	59.95
726.441	60.04
726.762	59.78
727.083	59.59
727.403	59.61
727.724	59.44
728.045	59.54
728.365	59.23
728.686	59.47
729.006	59.41
729.327	59.35
729.647	59.43
729.967	59.68
730.288	59.64
730.608	59.76
730.928	59.74
731.249	59.55
731.569	59.37
731.889	59.18
732.209	59.34
732.529	59.39
732.849	59.17
733.169	59.1
733.489	59.2
733.809	59.33
734.129	59.21
734.448	59.41
734.768	59.41
735.088	59.75
735.408	59.96
735.727	59.86
736.047	59.88
736.366	59.92
736.686	59.97
737.005	59.81
737.325	59.94
737.644	59.95
737.963	59.8
738.283	59.85
738.602	60.02
738.921	60
739.24	59.97
739.56	60.12
739.879	60.15
740.198	60.14
740.517	60.32
740.836	60.46
741.155	60.43
741.473	60.51
741.792	60.59
742.111	60.51
742.43	60.7
742.748	60.81
743.067	60.86
743.386	60.87
743.704	61.02
744.023	60.67
744.341	60.68
744.66	60.94
744.978	60.99
745.297	60.78
745.615	60.8
745.933	60.67
746.252	60.75
746.57	61.04
746.888	61.19
747.206	60.83
747.524	60.74
747.842	60.51
748.16	60.49
748.478	60.37
748.796	60.33
749.114	59.97
749.432	60.05
749.749	59.62
750.067	59.13
750.385	58.92
750.703	59.22
751.02	59.51
751.338	59.41
751.655	59.54
751.973	59.58
752.29	59.31
752.608	59.4
752.925	59.32
753.242	59.22
753.56	58.95
753.877	59.11
754.194	59.15
754.511	59.41
754.828	59.52
755.145	59.25
755.462	58.97
755.779	58.98
756.096	59.17
756.413	59.45
756.73	60.13
757.047	59.87
757.364	59.68
757.68	59.42
757.997	59.53
758.314	59.36
758.63	59.75
758.947	59.9
759.264	59.71
759.58	59.97
759.896	60.07
760.213	60.1
760.529	60.47
760.846	60.5
761.162	60.33
761.478	60.42
761.794	60.62
762.11	60.82
762.426	60.94
762.743	60.96
763.059	61.06
763.375	60.98
763.69	61.49
764.006	61.97
764.322	62.05
764.638	62.21
764.954	62.52
765.27	62.24
765.585	62.23
765.901	62.41
766.216	62.31
766.532	62.15
766.848	62.14
767.163	62.07
767.478	62.33
767.794	62.23
768.109	61.97
768.424	62.27
768.74	62.27
769.055	62.29
769.37	62.35
769.685	62.62
770	62.82
770.315	62.5
770.63	62.13
770.945	62.28
771.26	62.07
771.575	61.77
771.89	62.09
772.205	62.1
772.52	62.18
772.834	62.08
773.149	62.07
773.464	62.58
773.778	62.31
774.093	61.81
774.407	62.01
774.722	62.28
775.036	61.86
775.351	61.93
775.665	62.16
775.979	61.76
776.293	61.39
776.608	61.24
776.922	61.29
777.236	61.33
777.55	60.97
777.864	61.03
778.178	60.84
778.492	60.72
778.806	60.98
779.12	61.03
779.434	61.56
779.747	62.11
780.061	61.6
780.375	61.87
780.689	62.33
781.002	62.62
781.316	62.68
781.629	62.89
781.943	62.74
782.256	62.68
782.57	62.88
782.883	62.83
783.196	62.39
783.51	62.19
783.823	61.85
784.136	61.96
784.449	61.6
784.762	61.65
785.075	61.59
785.388	61.25
785.701	61.32
786.014	61.15
786.327	60.68
786.64	61.09
786.953	61.13
787.266	60.82
787.578	60.94
787.891	60.89
788.204	61.12
788.516	61.58
788.829	61.54
789.141	61.86
789.454	62.21
789.766	62.51
790.079	63.13
790.391	63.51
790.703	63.18
791.016	63.47
791.328	63.49
791.64	63.59
791.952	63.4
792.264	63.04
792.576	62.75
792.888	63.02
793.2	62.83
793.512	62.53
793.824	62.5
794.136	62.44
794.448	62.46
794.76	61.62
795.071	61.67
795.383	61.61
795.695	60.68
796.006	60.49
796.318	60.49
796.629	59.85
796.941	59.73
797.252	60.48
797.564	60.69
797.875	60.81
798.186	60.88
798.497	61.39
798.809	61.65
799.12	61.75
799.431	61.77
799.742	61.81
800.053	62.77
800.364	63.19
800.675	63.15
800.986	62.75
801.297	63.95
801.608	64.01
801.918	63.79
802.229	64.5
802.54	64.44
802.851	64.46
803.161	65.18
803.472	65.25
803.782	65
804.093	65
804.403	65.3
804.714	65.37
805.024	65.02
805.334	65.04
805.645	64.71
805.955	64.48
806.265	65.02
806.575	63.84
806.885	63.34
807.195	62.96
807.505	64.04
807.815	63.9
808.125	63.44
808.435	64.1
808.745	64.62
809.055	64.62
809.365	64.49
809.674	63.74
809.984	63.87
810.294	63.93
810.603	64
810.913	64.21
811.222	64.38
811.532	64.61
811.841	65.08
812.151	65.72
812.46	66.2
812.769	66.04
813.079	66.71
813.388	67.13
813.697	67.28
814.006	66.4
814.315	65.6
814.624	65.97
814.933	65.74
815.242	64.59
815.551	64.32
815.86	64.4
816.169	64.5
816.478	64.2
816.786	63.92
817.095	63.95
817.404	64.36
817.712	64.19
818.021	64.28
818.33	63.35
818.638	63.34
818.947	63.44
819.255	63.37
819.563	63.11
819.872	63.57
820.18	64.05
820.488	64.11
820.796	64.24
821.105	64.16
821.413	64.46
821.721	64.66
822.029	64.69
822.337	64.64
822.645	64.83
822.953	65.13
823.26	65.1
823.568	65.07
823.876	64.94
824.184	64.99
824.491	64.86
824.799	65.07
825.107	65.03
825.414	64.99
825.722	65.14
826.029	65.3
826.337	65.24
826.644	65.06
826.951	65.16
827.259	65.31
827.566	65.42
827.873	65.19
828.18	65.41
828.488	65.47
828.795	65.76
829.102	65.54
829.409	65.3
829.716	65.37
830.023	65.76
830.329	65.97
830.636	66.06
830.943	66.35
831.25	66.16
831.557	66.05
831.863	65.85
832.17	65.86
832.476	65.64
832.783	65.36
833.089	65.84
833.396	66.28
833.702	66.39
834.009	66.56
834.315	66.81
834.621	66.5
834.928	66.51
835.234	66.63
835.54	66.7
835.846	66.71
836.152	66.78
836.458	65.95
836.764	65.43
837.07	65.13
837.376	65.24
837.682	65.11
837.988	65.7
838.293	65.83
838.599	65.78
838.905	65.81
839.211	66.43
839.516	66.32
839.822	66.07
840.127	65.19
840.433	64.82
840.738	65.09
841.044	65.58
841.349	66.29
841.654	65.18
841.959	65.66
842.265	66.23
842.57	65.8
842.875	66.22
843.18	66.42
843.485	66.43
843.79	65.93
844.095	66.19
844.4	64.81
844.705	65.44
845.01	64.8
845.315	65.69
845.619	64.84
845.924	64.69
846.229	62.66
846.533	63.28
846.838	61.8
847.142	60.45
847.447	59.29
847.751	58.26
848.056	57.74
848.36	58.23
848.664	56.69
848.969	57.91
849.273	57.57
849.577	58.61
849.881	58.95
850.185	61.26
850.489	61.46
850.794	64.18
851.097	63.27
851.401	62.9
851.705	62.15
852.009	64.24
852.313	62.72
852.617	63.2
852.92	66.33
853.224	68.09
853.528	69.4
853.831	71.13
854.135	70.29
854.438	72.42
854.742	71.99
855.045	73
855.349	71.74
855.652	71.97
855.955	68.67
856.259	66.22
856.562	65.1
856.865	66.06
857.168	65.06
857.471	65.68
857.774	66.1
858.077	66.74
858.38	64.2
858.683	62.25
858.986	63.89
859.289	62.22
859.592	62.95
859.894	63.12
860.197	62.23
860.5	63.27
860.802	61.74
861.105	61.47
861.407	60.3
861.71	60.19
862.012	60.39
862.315	61.83
862.617	64.46
862.919	64.55
863.222	64.32
863.524	63.45
863.826	63.48
864.128	62.19
864.43	62.41
864.732	63.19
865.034	67.53
865.336	65.54
865.638	62.26
865.94	62.2
866.242	60.55
866.544	58.74
866.846	59.65
867.147	60.17
867.449	56.67
867.751	57.2
868.052	58.49
868.354	57.47
868.655	59.63
868.957	59.12
869.258	59.29
869.56	59.11
869.861	59.77
870.162	59.86
870.463	59.76
870.765	61.71
871.066	59.6
871.367	56.6
871.668	56.61
871.969	57.38
872.27	55.81
872.571	54.92
872.872	55.66
873.173	53.65
873.473	53.41
873.774	58.93
874.075	59.93
874.376	59.4
874.676	60.33
874.977	57.05
875.277	56.35
875.578	55.06
875.878	54.22
876.179	53.31
876.479	52.57
876.78	53.27
877.08	50.05
877.38	50.91
877.68	52.45
877.981	53.49
878.281	54.76
878.581	55.67
