Data from BA28416_Reflection_00005.txt Node
Date: Mon Nov 18 16:05:21 EST 2019
User: vgr7
Spectrometer: USB2G7710
Scans to average: 3
Trigger mode: 4
Integration Time (sec): 2.000000E-2
Electric dark correction enabled: true
Boxcar width: 10
XAxis mode: Wavelengths
Number of Pixels in Spectrum: 2048
>>>>>Begin Spectral Data<<<<<
177.721	-53.33
178.105	-8.37
178.488	-45.81
178.871	-141.38
179.254	-65.29
179.636	118.62
180.019	-522.95
180.402	88.89
180.785	29.91
181.168	47.19
181.55	159.22
181.933	109.3
182.316	80.09
182.698	72.67
183.081	81.15
183.463	84.78
183.846	67.13
184.228	58.24
184.611	56.49
184.993	50.58
185.376	54.07
185.758	39.54
186.14	48.01
186.522	58.92
186.904	61.5
187.287	89.6
187.669	83.07
188.051	87.51
188.433	82.03
188.815	90.71
189.197	73.26
189.579	28.34
189.961	29.49
190.342	60.77
190.724	106.61
191.106	122.52
191.488	170.61
191.869	318.49
192.251	177.66
192.633	150.86
193.014	217.88
193.396	202.44
193.777	248.52
194.159	478.7
194.54	464.66
194.922	-417.56
195.303	-752.66
195.684	-520.5
196.065	-121.96
196.447	-76.54
196.828	-81.21
197.209	-56.41
197.59	-89.28
197.971	-135.96
198.352	-78.52
198.733	-128.5
199.114	-77.41
199.495	-69.18
199.876	-35.57
200.257	-12.74
200.638	-10.41
201.018	8.84
201.399	-0.44
201.78	14.05
202.16	5.54
202.541	-11.91
202.922	-15.42
203.302	-49.61
203.683	-300.91
204.063	-621
204.444	-361.77
204.824	-472.89
205.204	-955.32
205.585	-309.51
205.965	-266.39
206.345	-295.45
206.725	-2554.55
207.106	438.75
207.486	177.97
207.866	227.11
208.246	157.55
208.626	146.26
209.006	214.04
209.386	234.56
209.766	297.09
210.145	201.84
210.525	176.17
210.905	157.32
211.285	156.68
211.664	229.65
212.044	164.91
212.424	121.18
212.803	92.92
213.183	72.09
213.562	67.89
213.942	47.08
214.321	42.05
214.701	59.18
215.08	59.25
215.459	70.87
215.838	58.03
216.218	336.02
216.597	18.29
216.976	106.19
217.355	328.57
217.734	26.42
218.113	-415.46
218.492	139.53
218.871	11.8
219.25	52.74
219.629	-34.31
220.008	-155.05
220.387	-144.05
220.766	-108.36
221.144	-216.85
221.523	-229.69
221.902	-464.73
222.28	8967.92
222.659	-737.29
223.037	-302.31
223.416	-282.94
223.794	-211.25
224.173	-217.72
224.551	-106.53
224.929	-112.77
225.308	-85.89
225.686	-65.96
226.064	-50.47
226.442	-44.54
226.821	-34.42
227.199	-32.85
227.577	-34.69
227.955	-28.9
228.333	-26.27
228.711	-21.03
229.089	-16.13
229.467	-15.99
229.845	-13.14
230.222	-7.78
230.6	-8.82
230.978	-7.97
231.356	-7.68
231.733	-9.41
232.111	-7.95
232.488	-8.26
232.866	-5.89
233.243	-5.67
233.621	-6.25
233.998	-4.27
234.376	-4.94
234.753	-2.65
235.13	-0.02
235.508	1.5
235.885	1.72
236.262	0.67
236.639	-0.81
237.016	-0.77
237.393	1.27
237.77	1.64
238.147	1.79
238.524	2.24
238.901	2.35
239.278	2.5
239.655	3.5
240.032	3.76
240.409	3.49
240.785	3.31
241.162	3.26
241.539	3.04
241.915	2.67
242.292	2.43
242.668	1.94
243.045	1.66
243.421	1.79
243.798	1.7
244.174	2.07
244.551	2.34
244.927	2.26
245.303	2.25
245.679	2.29
246.056	2.18
246.432	1.98
246.808	1.99
247.184	1.7
247.56	1.65
247.936	1.66
248.312	1.52
248.688	1.69
249.064	1.71
249.44	1.98
249.815	2.04
250.191	2.25
250.567	2.43
250.943	2.32
251.318	2.35
251.694	2.55
252.069	2.5
252.445	2.57
252.82	2.7
253.196	2.41
253.571	2.14
253.947	2.16
254.322	2.46
254.697	2.26
255.073	2.45
255.448	2.25
255.823	2.02
256.198	2.06
256.573	2.16
256.948	2.16
257.323	2.1
257.698	2.02
258.073	1.94
258.448	1.73
258.823	1.68
259.198	1.64
259.573	1.51
259.948	1.53
260.322	1.56
260.697	1.4
261.072	1.59
261.446	1.66
261.821	1.49
262.195	1.61
262.57	1.61
262.944	1.65
263.319	1.54
263.693	1.6
264.067	1.7
264.442	1.56
264.816	1.67
265.19	1.47
265.564	1.4
265.938	1.3
266.313	1.28
266.687	1.24
267.061	1.26
267.435	1.19
267.809	1.13
268.183	1.14
268.556	1.21
268.93	1.29
269.304	1.39
269.678	1.59
270.051	1.24
270.425	1.15
270.799	1.03
271.172	1.2
271.546	1.11
271.919	0.98
272.293	1.08
272.666	1.05
273.04	1.18
273.413	1.24
273.787	1.37
274.16	1.4
274.533	1.44
274.906	1.32
275.279	1.43
275.653	1.4
276.026	1.33
276.399	1.47
276.772	1.51
277.145	1.3
277.518	1.24
277.891	1.48
278.263	1.52
278.636	1.61
279.009	1.49
279.382	1.59
279.755	1.53
280.127	1.49
280.5	1.49
280.872	1.48
281.245	1.42
281.617	1.4
281.99	1.43
282.362	1.52
282.735	1.65
283.107	1.56
283.479	1.56
283.852	1.57
284.224	1.47
284.596	1.26
284.968	1.3
285.34	1.31
285.713	1.29
286.085	1.36
286.457	1.43
286.829	1.53
287.201	1.6
287.572	1.55
287.944	1.45
288.316	1.54
288.688	1.53
289.06	1.58
289.431	1.58
289.803	1.61
290.175	1.59
290.546	1.61
290.918	1.63
291.289	1.62
291.661	1.6
292.032	1.72
292.403	1.72
292.775	1.93
293.146	2.03
293.517	1.99
293.889	2.08
294.26	2.1
294.631	2.14
295.002	2.1
295.373	2.27
295.744	2.38
296.115	2.25
296.486	2.21
296.857	2.19
297.228	2.23
297.599	2.18
297.97	2.09
298.34	2.08
298.711	2.22
299.082	2.22
299.452	2.23
299.823	2.19
300.194	2.3
300.564	2.16
300.935	2.1
301.305	2.03
301.676	1.86
302.046	1.82
302.416	1.89
302.787	1.85
303.157	1.83
303.527	1.72
303.897	1.75
304.267	1.9
304.637	2.02
305.008	2.01
305.378	2.01
305.748	2.16
306.117	2.16
306.487	2.22
306.857	2.29
307.227	2.2
307.597	2.17
307.967	2.14
308.336	2.21
308.706	2.21
309.076	2.12
309.445	2.16
309.815	2.11
310.184	1.91
310.554	1.88
310.923	1.86
311.293	1.89
311.662	1.73
312.031	1.59
312.401	1.64
312.77	1.61
313.139	1.66
313.508	1.71
313.877	1.65
314.246	1.53
314.616	1.54
314.985	1.61
315.353	1.55
315.722	1.59
316.091	1.46
316.46	1.38
316.829	1.6
317.198	1.53
317.567	1.57
317.935	1.58
318.304	1.61
318.672	1.49
319.041	1.62
319.41	1.84
319.778	1.79
320.147	1.58
320.515	1.66
320.883	1.59
321.252	1.57
321.62	1.59
321.988	1.43
322.357	1.39
322.725	1.4
323.093	1.55
323.461	1.54
323.829	1.7
324.197	1.79
324.565	1.67
324.933	1.75
325.301	1.7
325.669	1.73
326.037	1.73
326.405	1.86
326.772	1.85
327.14	1.79
327.508	1.86
327.875	1.86
328.243	1.88
328.61	1.89
328.978	1.84
329.346	1.84
329.713	1.83
330.08	1.82
330.448	1.88
330.815	1.73
331.182	1.58
331.55	1.6
331.917	1.6
332.284	1.62
332.651	1.52
333.018	1.59
333.385	1.57
333.752	1.62
334.119	1.58
334.486	1.51
334.853	1.55
335.22	1.53
335.587	1.55
335.954	1.47
336.32	1.43
336.687	1.41
337.054	1.54
337.42	1.64
337.787	1.76
338.153	1.77
338.52	1.94
338.886	1.98
339.253	1.78
339.619	1.76
339.986	1.81
340.352	1.92
340.718	1.91
341.084	2.01
341.451	2.07
341.817	2.15
342.183	2.19
342.549	2.27
342.915	2.35
343.281	2.26
343.647	2.28
344.013	2.3
344.379	2.26
344.745	2.11
345.11	2.11
345.476	2.06
345.842	2.05
346.208	1.9
346.573	1.95
346.939	2.13
347.304	1.97
347.67	1.95
348.035	1.94
348.401	1.9
348.766	1.84
349.132	1.72
349.497	1.57
349.862	1.6
350.228	1.55
350.593	1.58
350.958	1.69
351.323	1.7
351.688	1.67
352.053	1.82
352.418	1.89
352.783	1.88
353.148	1.83
353.513	1.74
353.878	1.76
354.243	1.75
354.608	1.67
354.972	1.85
355.337	1.91
355.702	1.84
356.066	1.96
356.431	1.91
356.795	1.94
357.16	2.02
357.524	1.96
357.889	1.9
358.253	1.91
358.618	1.93
358.982	1.93
359.346	1.93
359.71	1.87
360.075	1.8
360.439	1.86
360.803	1.88
361.167	1.93
361.531	1.94
361.895	2
362.259	1.98
362.623	1.92
362.987	1.89
363.351	1.87
363.714	1.85
364.078	1.89
364.442	1.91
364.806	1.87
365.169	1.85
365.533	1.88
365.896	1.87
366.26	1.84
366.623	1.85
366.987	1.87
367.35	1.86
367.714	1.95
368.077	1.89
368.44	1.86
368.803	1.9
369.167	1.9
369.53	1.85
369.893	1.88
370.256	1.91
370.619	1.94
370.982	1.97
371.345	1.9
371.708	1.92
372.071	1.86
372.434	1.92
372.797	1.98
373.159	1.91
373.522	1.87
373.885	1.92
374.247	1.92
374.61	1.92
374.973	1.92
375.335	1.9
375.698	1.9
376.06	1.92
376.423	1.85
376.785	1.88
377.147	1.94
377.51	1.9
377.872	1.93
378.234	1.91
378.596	1.95
378.958	1.94
379.321	1.95
379.683	2.02
380.045	1.96
380.407	1.89
380.769	1.94
381.13	1.93
381.492	1.92
381.854	1.96
382.216	1.96
382.578	2.01
382.939	1.96
383.301	2
383.663	1.95
384.024	1.94
384.386	1.95
384.747	1.94
385.109	1.95
385.47	1.88
385.832	1.9
386.193	1.91
386.554	1.94
386.916	1.89
387.277	1.86
387.638	1.89
387.999	1.9
388.36	1.9
388.721	1.96
389.082	1.92
389.443	1.9
389.804	1.86
390.165	1.84
390.526	1.87
390.887	1.85
391.248	1.94
391.609	1.98
391.969	1.98
392.33	1.95
392.691	1.98
393.051	2.04
393.412	2.02
393.772	2
394.133	1.98
394.493	1.99
394.854	1.99
395.214	1.99
395.574	2
395.935	2.03
396.295	2.01
396.655	2.02
397.015	2.02
397.376	2.05
397.736	2.05
398.096	2.1
398.456	2.08
398.816	2.06
399.176	2.04
399.535	2
399.895	1.98
400.255	1.97
400.615	1.98
400.975	1.99
401.334	2.03
401.694	2.05
402.054	2.07
402.413	2.09
402.773	2.07
403.132	2.1
403.492	2.09
403.851	2.08
404.211	2.12
404.57	2.1
404.929	2.08
405.288	2.08
405.648	2.03
406.007	2.06
406.366	2.04
406.725	2.09
407.084	2.13
407.443	2.14
407.802	2.15
408.161	2.15
408.52	2.15
408.879	2.11
409.238	2.11
409.596	2.1
409.955	2.12
410.314	2.11
410.673	2.11
411.031	2.12
411.39	2.15
411.748	2.14
412.107	2.19
412.465	2.22
412.824	2.25
413.182	2.25
413.54	2.25
413.899	2.27
414.257	2.25
414.615	2.23
414.974	2.26
415.332	2.26
415.69	2.26
416.048	2.24
416.406	2.26
416.764	2.27
417.122	2.29
417.48	2.25
417.838	2.27
418.195	2.25
418.553	2.25
418.911	2.23
419.269	2.23
419.626	2.21
419.984	2.2
420.342	2.2
420.699	2.19
421.057	2.2
421.414	2.18
421.772	2.18
422.129	2.18
422.486	2.17
422.844	2.18
423.201	2.16
423.558	2.17
423.915	2.17
424.273	2.16
424.63	2.14
424.987	2.17
425.344	2.16
425.701	2.15
426.058	2.15
426.415	2.15
426.772	2.14
427.128	2.14
427.485	2.16
427.842	2.14
428.199	2.16
428.555	2.16
428.912	2.18
429.269	2.18
429.625	2.18
429.982	2.18
430.338	2.16
430.695	2.19
431.051	2.18
431.407	2.16
431.764	2.17
432.12	2.18
432.476	2.17
432.832	2.17
433.189	2.19
433.545	2.18
433.901	2.19
434.257	2.17
434.613	2.17
434.969	2.16
435.325	2.17
435.681	2.17
436.036	2.17
436.392	2.16
436.748	2.14
437.104	2.14
437.459	2.15
437.815	2.15
438.171	2.14
438.526	2.16
438.882	2.16
439.237	2.16
439.593	2.17
439.948	2.17
440.304	2.17
440.659	2.16
441.014	2.18
441.369	2.18
441.725	2.18
442.08	2.19
442.435	2.19
442.79	2.19
443.145	2.19
443.5	2.19
443.855	2.19
444.21	2.2
444.565	2.2
444.92	2.19
445.275	2.19
445.629	2.19
445.984	2.19
446.339	2.19
446.693	2.2
447.048	2.19
447.403	2.18
447.757	2.16
448.112	2.17
448.466	2.15
448.82	2.16
449.175	2.15
449.529	2.13
449.883	2.13
450.238	2.12
450.592	2.13
450.946	2.11
451.3	2.11
451.654	2.1
452.008	2.1
452.362	2.1
452.716	2.11
453.07	2.12
453.424	2.12
453.778	2.11
454.132	2.09
454.486	2.1
454.839	2.1
455.193	2.12
455.547	2.1
455.9	2.13
456.254	2.1
456.607	2.11
456.961	2.14
457.314	2.14
457.668	2.16
458.021	2.17
458.375	2.17
458.728	2.16
459.081	2.18
459.434	2.17
459.787	2.16
460.141	2.15
460.494	2.14
460.847	2.15
461.2	2.15
461.553	2.15
461.906	2.14
462.259	2.15
462.611	2.15
462.964	2.17
463.317	2.16
463.67	2.17
464.022	2.17
464.375	2.16
464.728	2.18
465.08	2.16
465.433	2.16
465.785	2.14
466.138	2.15
466.49	2.14
466.843	2.16
467.195	2.15
467.547	2.18
467.899	2.19
468.252	2.18
468.604	2.2
468.956	2.18
469.308	2.17
469.66	2.18
470.012	2.18
470.364	2.17
470.716	2.18
471.068	2.18
471.42	2.2
471.772	2.2
472.123	2.2
472.475	2.2
472.827	2.21
473.178	2.22
473.53	2.21
473.882	2.22
474.233	2.23
474.585	2.21
474.936	2.2
475.288	2.21
475.639	2.2
475.99	2.21
476.342	2.24
476.693	2.26
477.044	2.28
477.395	2.28
477.746	2.27
478.097	2.26
478.448	2.25
478.8	2.24
479.15	2.23
479.501	2.22
479.852	2.23
480.203	2.22
480.554	2.22
480.905	2.23
481.255	2.23
481.606	2.23
481.957	2.26
482.307	2.26
482.658	2.26
483.009	2.26
483.359	2.26
483.709	2.26
484.06	2.25
484.41	2.24
484.761	2.24
485.111	2.24
485.461	2.24
485.811	2.24
486.162	2.25
486.512	2.26
486.862	2.26
487.212	2.26
487.562	2.27
487.912	2.27
488.262	2.27
488.612	2.28
488.961	2.27
489.311	2.27
489.661	2.27
490.011	2.27
490.36	2.26
490.71	2.26
491.06	2.28
491.409	2.28
491.759	2.28
492.108	2.29
492.458	2.29
492.807	2.29
493.157	2.3
493.506	2.3
493.855	2.29
494.204	2.29
494.554	2.27
494.903	2.26
495.252	2.25
495.601	2.25
495.95	2.24
496.299	2.25
496.648	2.24
496.997	2.23
497.346	2.24
497.695	2.26
498.043	2.26
498.392	2.23
498.741	2.21
499.09	2.22
499.438	2.23
499.787	2.23
500.135	2.23
500.484	2.24
500.832	2.23
501.181	2.24
501.529	2.24
501.878	2.26
502.226	2.28
502.574	2.3
502.923	2.3
503.271	2.29
503.619	2.29
503.967	2.3
504.315	2.29
504.663	2.29
505.011	2.3
505.359	2.3
505.707	2.32
506.055	2.34
506.403	2.33
506.751	2.32
507.098	2.31
507.446	2.33
507.794	2.31
508.141	2.33
508.489	2.32
508.837	2.35
509.184	2.36
509.531	2.37
509.879	2.38
510.226	2.39
510.574	2.39
510.921	2.39
511.268	2.38
511.616	2.42
511.963	2.42
512.31	2.41
512.657	2.42
513.004	2.42
513.351	2.44
513.698	2.43
514.045	2.44
514.392	2.45
514.739	2.44
515.086	2.46
515.432	2.46
515.779	2.45
516.126	2.44
516.473	2.44
516.819	2.44
517.166	2.45
517.512	2.43
517.859	2.44
518.205	2.44
518.552	2.43
518.898	2.42
519.245	2.42
519.591	2.42
519.937	2.42
520.283	2.42
520.629	2.43
520.976	2.44
521.322	2.45
521.668	2.44
522.014	2.45
522.36	2.45
522.706	2.45
523.052	2.45
523.398	2.47
523.743	2.5
524.089	2.51
524.435	2.5
524.781	2.53
525.126	2.53
525.472	2.54
525.817	2.55
526.163	2.54
526.509	2.54
526.854	2.55
527.199	2.55
527.545	2.55
527.89	2.54
528.235	2.54
528.581	2.55
528.926	2.55
529.271	2.55
529.616	2.55
529.961	2.56
530.306	2.56
530.651	2.54
530.996	2.53
531.341	2.52
531.686	2.52
532.031	2.51
532.376	2.51
532.721	2.52
533.065	2.53
533.41	2.54
533.755	2.55
534.099	2.55
534.444	2.55
534.788	2.55
535.133	2.55
535.477	2.55
535.822	2.54
536.166	2.54
536.51	2.55
536.855	2.55
537.199	2.54
537.543	2.55
537.887	2.57
538.231	2.58
538.576	2.59
538.92	2.59
539.264	2.59
539.608	2.6
539.951	2.6
540.295	2.6
540.639	2.58
540.983	2.57
541.327	2.57
541.671	2.58
542.014	2.58
542.358	2.57
542.701	2.57
543.045	2.57
543.389	2.58
543.732	2.57
544.075	2.58
544.419	2.58
544.762	2.57
545.105	2.56
545.449	2.55
545.792	2.55
546.135	2.56
546.478	2.57
546.821	2.55
547.165	2.55
547.508	2.53
547.851	2.54
548.194	2.54
548.536	2.55
548.879	2.56
549.222	2.56
549.565	2.59
549.908	2.59
550.25	2.62
550.593	2.63
550.936	2.6
551.278	2.59
551.621	2.59
551.963	2.63
552.306	2.63
552.648	2.64
552.991	2.65
553.333	2.64
553.675	2.61
554.017	2.64
554.36	2.63
554.702	2.64
555.044	2.62
555.386	2.64
555.728	2.63
556.07	2.63
556.412	2.61
556.754	2.59
557.096	2.6
557.438	2.57
557.78	2.56
558.121	2.58
558.463	2.61
558.805	2.6
559.147	2.55
559.488	2.56
559.83	2.56
560.171	2.55
560.513	2.58
560.854	2.58
561.196	2.58
561.537	2.59
561.878	2.57
562.22	2.57
562.561	2.57
562.902	2.57
563.243	2.55
563.584	2.56
563.925	2.59
564.266	2.6
564.607	2.58
564.948	2.59
565.289	2.59
565.63	2.59
565.971	2.6
566.312	2.64
566.653	2.61
566.993	2.59
567.334	2.58
567.675	2.57
568.015	2.57
568.356	2.55
568.696	2.57
569.037	2.6
569.377	2.6
569.718	2.59
570.058	2.6
570.398	2.61
570.739	2.63
571.079	2.61
571.419	2.62
571.759	2.64
572.099	2.62
572.439	2.65
572.779	2.61
573.119	2.63
573.459	2.65
573.799	2.67
574.139	2.7
574.479	2.68
574.819	2.67
575.158	2.65
575.498	2.64
575.838	2.63
576.177	2.59
576.517	2.58
576.856	2.59
577.196	2.57
577.535	2.57
577.875	2.56
578.214	2.56
578.553	2.56
578.893	2.56
579.232	2.58
579.571	2.56
579.91	2.59
580.25	2.58
580.589	2.52
580.928	2.5
581.267	2.49
581.606	2.49
581.945	2.53
582.283	2.55
582.622	2.57
582.961	2.59
583.3	2.6
583.639	2.66
583.977	2.66
584.316	2.66
584.654	2.65
584.993	2.63
585.332	2.63
585.67	2.62
586.008	2.61
586.347	2.61
586.685	2.64
587.024	2.64
587.362	2.61
587.7	2.65
588.038	2.66
588.376	2.65
588.715	2.66
589.053	2.63
589.391	2.63
589.729	2.63
590.067	2.6
590.404	2.63
590.742	2.6
591.08	2.6
591.418	2.62
591.756	2.62
592.093	2.64
592.431	2.62
592.769	2.68
593.106	2.66
593.444	2.66
593.781	2.65
594.119	2.66
594.456	2.68
594.793	2.66
595.131	2.67
595.468	2.71
595.805	2.71
596.143	2.69
596.48	2.68
596.817	2.68
597.154	2.73
597.491	2.73
597.828	2.73
598.165	2.72
598.502	2.69
598.839	2.69
599.176	2.66
599.512	2.68
599.849	2.63
600.186	2.65
600.523	2.69
600.859	2.74
601.196	2.75
601.532	2.74
601.869	2.74
602.205	2.76
602.542	2.75
602.878	2.76
603.215	2.76
603.551	2.77
603.887	2.77
604.223	2.74
604.56	2.77
604.896	2.77
605.232	2.77
605.568	2.81
605.904	2.8
606.24	2.82
606.576	2.79
606.912	2.8
607.248	2.82
607.583	2.79
607.919	2.74
608.255	2.71
608.591	2.74
608.926	2.73
609.262	2.75
609.597	2.71
609.933	2.73
610.268	2.77
610.604	2.79
610.939	2.77
611.275	2.77
611.61	2.75
611.945	2.74
612.281	2.75
612.616	2.76
612.951	2.79
613.286	2.78
613.621	2.84
613.956	2.84
614.291	2.81
614.626	2.78
614.961	2.78
615.296	2.74
615.631	2.71
615.966	2.73
616.3	2.66
616.635	2.69
616.97	2.66
617.304	2.61
617.639	2.6
617.973	2.67
618.308	2.67
618.642	2.69
618.977	2.7
619.311	2.73
619.646	2.71
619.98	2.7
620.314	2.7
620.648	2.7
620.983	2.68
621.317	2.69
621.651	2.72
621.985	2.77
622.319	2.84
622.653	2.87
622.987	2.83
623.321	2.85
623.655	2.83
623.988	2.87
624.322	2.9
624.656	2.93
624.99	2.91
625.323	2.93
625.657	2.88
625.99	2.9
626.324	2.86
626.657	2.85
626.991	2.84
627.324	2.9
627.658	2.89
627.991	2.93
628.324	2.9
628.657	2.89
628.991	2.83
629.324	2.81
629.657	2.78
629.99	2.83
630.323	2.84
630.656	2.88
630.989	2.87
631.322	2.89
631.655	2.89
631.987	2.9
632.32	2.87
632.653	2.88
632.986	2.87
633.318	2.9
633.651	2.91
633.984	2.93
634.316	2.89
634.649	2.92
634.981	2.86
635.313	2.89
635.646	2.83
635.978	2.9
636.31	2.89
636.643	2.92
636.975	2.89
637.307	2.86
637.639	2.83
637.971	2.88
638.303	2.85
638.635	2.82
638.967	2.82
639.299	2.89
639.631	2.86
639.963	2.85
640.295	2.84
640.626	2.86
640.958	2.87
641.29	2.89
641.621	2.88
641.953	2.89
642.285	2.94
642.616	3.04
642.948	2.98
643.279	3.01
643.61	3.08
643.942	3.06
644.273	3.12
644.604	3.12
644.936	3.09
645.267	3.02
645.598	3.02
645.929	3.07
646.26	3.04
646.591	3.08
646.922	3.09
647.253	3.07
647.584	3.04
647.915	3.01
648.245	2.95
648.576	2.95
648.907	2.98
649.238	2.89
649.568	2.89
649.899	2.88
650.229	2.85
650.56	2.8
650.89	2.83
651.221	2.84
651.551	2.86
651.882	2.88
652.212	2.94
652.542	2.94
652.872	2.84
653.203	2.8
653.533	2.78
653.863	2.75
654.193	2.75
654.523	2.79
654.853	2.8
655.183	2.84
655.513	2.82
655.843	2.82
656.172	2.88
656.502	2.87
656.832	2.92
657.162	2.98
657.491	2.98
657.821	3.01
658.15	3.02
658.48	2.98
658.809	2.92
659.139	2.95
659.468	2.92
659.798	3.01
660.127	3.08
660.456	3.16
660.785	3.2
661.115	3.26
661.444	3.26
661.773	3.27
662.102	3.22
662.431	3.24
662.76	3.18
663.089	3.14
663.418	3.1
663.747	3.12
664.076	3.1
664.404	3.05
664.733	3.03
665.062	3.01
665.39	3.03
665.719	3.05
666.048	3.01
666.376	3.04
666.705	2.93
667.033	2.85
667.362	2.86
667.69	2.87
668.018	2.84
668.347	2.76
668.675	2.76
669.003	2.78
669.331	2.78
669.659	2.81
669.987	2.87
670.315	2.9
670.643	2.89
670.971	2.91
671.299	2.97
671.627	2.96
671.955	2.91
672.283	2.9
672.61	2.96
672.938	3.02
673.266	2.99
673.593	3.1
673.921	3.09
674.249	2.97
674.576	3
674.904	3.04
675.231	3.07
675.558	3.07
675.886	3.08
676.213	3.04
676.54	3.14
676.867	3.11
677.195	3.08
677.522	3.08
677.849	3.05
678.176	3.05
678.503	3.05
678.83	3.06
679.157	3.05
679.484	3.03
679.81	3.02
680.137	3
680.464	2.93
680.791	2.95
681.117	2.95
681.444	2.89
681.771	2.87
682.097	2.81
682.424	2.8
682.75	2.81
683.077	2.87
683.403	2.8
683.729	2.83
684.056	2.88
684.382	2.84
684.708	2.84
685.034	2.86
685.36	2.88
685.686	2.93
686.012	2.98
686.339	3.04
686.664	3.07
686.99	3.14
687.316	3.14
687.642	3.18
687.968	3.21
688.294	3.26
688.619	3.35
688.945	3.39
689.271	3.43
689.596	3.42
689.922	3.45
690.247	3.43
690.573	3.39
690.898	3.35
691.224	3.38
691.549	3.48
691.874	3.43
692.2	3.43
692.525	3.3
692.85	3.33
693.175	3.3
693.5	3.26
693.825	3.23
694.15	3.18
694.475	3.18
694.8	3.23
695.125	3.18
695.45	3.09
695.775	3.16
696.099	3.16
696.424	3.21
696.749	3.16
697.073	3.18
697.398	3.24
697.723	3.25
698.047	3.22
698.372	3.18
698.696	3.18
699.02	3.16
699.345	3.21
699.669	3.17
699.993	3.05
700.318	3.03
700.642	3.07
700.966	3.2
701.29	3.17
701.614	3.14
701.938	3.19
702.262	3.24
702.586	3.32
702.91	3.31
703.234	3.27
703.557	3.33
703.881	3.43
704.205	3.49
704.529	3.5
704.852	3.63
705.176	3.63
705.499	3.73
705.823	3.82
706.146	3.75
706.47	3.82
706.793	3.83
707.117	3.83
707.44	3.79
707.763	3.72
708.086	3.8
708.409	3.78
708.733	3.75
709.056	3.72
709.379	3.58
709.702	3.58
710.025	3.5
710.348	3.47
710.671	3.29
710.993	3.17
711.316	3.25
711.639	3.17
711.962	3.18
712.284	3.21
712.607	3.13
712.93	3.29
713.252	3.2
713.575	3.33
713.897	3.34
714.22	3.36
714.542	3.47
714.864	3.32
715.187	3.4
715.509	3.43
715.831	3.41
716.153	3.45
716.475	3.45
716.798	3.68
717.12	3.67
717.442	3.79
717.764	3.82
718.085	3.72
718.407	3.7
718.729	3.7
719.051	3.69
719.373	3.75
719.695	3.77
720.016	3.83
720.338	3.83
720.659	3.92
720.981	3.86
721.302	3.69
721.624	3.74
721.945	3.63
722.267	3.54
722.588	3.47
722.909	3.48
723.231	3.33
723.552	3.04
723.873	3.12
724.194	3.02
724.515	3.03
724.836	3.19
725.157	3.32
725.478	3.35
725.799	3.25
726.12	3.13
726.441	3.09
726.762	3.15
727.083	3.14
727.403	3.24
727.724	3.46
728.045	3.46
728.365	3.55
728.686	3.56
729.006	3.71
729.327	3.71
729.647	3.77
729.967	3.96
730.288	4.21
730.608	4.1
730.928	4.15
731.249	4.18
731.569	4.19
731.889	4.12
732.209	4.16
732.529	4.34
732.849	4.51
733.169	4.48
733.489	4.37
733.809	4.35
734.129	4.25
734.448	4.28
734.768	4.33
735.088	4.39
735.408	4.44
735.727	4.34
736.047	4.49
736.366	4.21
736.686	4.33
737.005	4.27
737.325	4.25
737.644	4.3
737.963	4.24
738.283	4
738.602	3.9
738.921	3.84
739.24	3.71
739.56	3.45
739.879	3.52
740.198	3.69
740.517	3.78
740.836	3.73
741.155	3.57
741.473	3.58
741.792	3.54
742.111	3.53
742.43	3.65
742.748	3.53
743.067	3.63
743.386	3.45
743.704	3.47
744.023	3.69
744.341	3.72
744.66	3.99
744.978	4.08
745.297	4.23
745.615	4.19
745.933	4.19
746.252	4.26
746.57	4.04
746.888	4.02
747.206	3.77
747.524	3.79
747.842	3.84
748.16	3.96
748.478	4.04
748.796	4.17
749.114	4.18
749.432	4.04
749.749	4.23
750.067	4.18
750.385	4.08
750.703	4.02
751.02	3.81
751.338	3.65
751.655	3.63
751.973	3.6
752.29	3.69
752.608	3.74
752.925	3.87
753.242	4.17
753.56	3.94
753.877	4.22
754.194	4.35
754.511	4.24
754.828	4.15
755.145	4.12
755.462	4
755.779	3.9
756.096	4.15
756.413	4.29
756.73	4.19
757.047	4.21
757.364	4.19
757.68	4.47
757.997	4.51
758.314	4.68
758.63	4.32
758.947	4.2
759.264	4.17
759.58	4.14
759.896	4.26
760.213	4.46
760.529	4.42
760.846	4.53
761.162	4.3
761.478	4.25
761.794	4.02
762.11	4.15
762.426	4.16
762.743	4.04
763.059	3.93
763.375	4.22
763.69	4.32
764.006	4.19
764.322	4.16
764.638	4.32
764.954	4.48
765.27	4.61
765.585	4.66
765.901	4.48
766.216	4.54
766.532	4.46
766.848	4.39
767.163	4.37
767.478	4.11
767.794	4.41
768.109	4.33
768.424	4.68
768.74	4.42
769.055	4.42
769.37	4.67
769.685	4.74
770	4.81
770.315	4.49
770.63	4.66
770.945	4.38
771.26	4.14
771.575	3.93
771.89	4.14
772.205	4.17
772.52	4.51
772.834	4.4
773.149	4.35
773.464	4.53
773.778	4.52
774.093	4.23
774.407	4.17
774.722	4.17
775.036	4.14
775.351	4.33
775.665	4.26
775.979	4.09
776.293	3.93
776.608	3.44
776.922	3.71
777.236	3.74
777.55	3.96
777.864	3.79
778.178	3.84
778.492	3.8
778.806	3.94
779.12	4.01
779.434	4.13
779.747	3.94
780.061	4.04
780.375	4.31
780.689	4.96
781.002	5.09
781.316	5.57
781.629	5.28
781.943	5.66
782.256	6.01
782.57	5.83
782.883	5.61
783.196	5.62
783.51	5.43
783.823	5.39
784.136	5.36
784.449	5.74
784.762	5.56
785.075	5.84
785.388	5.6
785.701	5.59
786.014	5.71
786.327	5.79
786.64	5.78
786.953	5.46
787.266	5.3
787.578	5.13
787.891	4.62
788.204	4.55
788.516	4.49
788.829	4.53
789.141	4.86
789.454	5.12
789.766	5.25
790.079	5.56
790.391	5.41
790.703	5.99
791.016	5.7
791.328	5.85
791.64	5.81
791.952	6.06
792.264	5.7
792.576	5.17
792.888	5.44
793.2	4.94
793.512	4.78
793.824	4.79
794.136	4.49
794.448	4.77
794.76	5.03
795.071	4.55
795.383	4.51
795.695	4.04
796.006	4.08
796.318	4.3
796.629	4.35
796.941	4.47
797.252	4.01
797.564	4.44
797.875	4.38
798.186	4.2
798.497	4.12
798.809	4.38
799.12	4.6
799.431	4.4
799.742	4.89
800.053	5.38
800.364	5.14
800.675	5.21
800.986	5.37
801.297	5.15
801.608	5.24
801.918	4.59
802.229	4.72
802.54	4.4
802.851	4.3
803.161	4.55
803.472	4.63
803.782	4.41
804.093	4.08
804.403	3.99
804.714	3.77
805.024	3.59
805.334	3.87
805.645	3.87
805.955	3.68
806.265	3.55
806.575	3.37
806.885	3.84
807.195	4.17
807.505	4.15
807.815	4.07
808.125	3.93
808.435	4.35
808.745	4.54
809.055	5.33
809.365	5.17
809.674	4.69
809.984	4.78
810.294	5.04
810.603	4.65
810.913	4.98
811.222	5.58
811.532	5.5
811.841	5.4
812.151	5.57
812.46	6
812.769	5.67
813.079	5.51
813.388	5.24
813.697	5.69
814.006	5.39
814.315	5.43
814.624	5.8
814.933	6.15
815.242	5.74
815.551	6
815.86	6.32
816.169	6.18
816.478	5.38
816.786	5.64
817.095	5.98
817.404	6.35
817.712	5.79
818.021	6.17
818.33	5.38
818.638	5.7
818.947	5.39
819.255	5.7
819.563	5.68
819.872	5.76
820.18	5.73
820.488	5.73
820.796	5.81
821.105	5.94
821.413	5.85
821.721	6.07
822.029	5.99
822.337	5.93
822.645	5.98
822.953	6.08
823.26	6.16
823.568	6.28
823.876	6.16
824.184	6.14
824.491	6.16
824.799	6.3
825.107	6.37
825.414	6.45
825.722	6.43
826.029	6.51
826.337	6.66
826.644	6.7
826.951	6.72
827.259	6.83
827.566	6.73
827.873	6.71
828.18	6.73
828.488	6.64
828.795	6.5
829.102	6.64
829.409	7.02
829.716	6.97
830.023	6.96
830.329	6.87
830.636	7.21
830.943	6.75
831.25	6.78
831.557	6.24
831.863	5.98
832.17	6.01
832.476	6.01
832.783	5.71
833.089	5.26
833.396	5.57
833.702	5.73
834.009	6.04
834.315	6.04
834.621	6.07
834.928	6.2
835.234	6.54
835.54	6.18
835.846	5.78
836.152	5.77
836.458	5.57
836.764	5.59
837.07	5.34
837.376	5.33
837.682	5.22
837.988	5.02
838.293	5.37
838.599	5.66
838.905	5.97
839.211	5.85
839.516	5.94
839.822	5.83
840.127	5.11
840.433	4.64
840.738	4.73
841.044	4.38
841.349	3.77
841.654	3.27
841.959	3.41
842.265	3.47
842.57	3.87
842.875	3.52
843.18	4
843.485	3.69
843.79	4.17
844.095	3.96
844.4	6.63
844.705	5.94
845.01	5.21
845.315	3.71
845.619	2.14
845.924	2.82
846.229	1.71
846.533	2.12
846.838	1
847.142	0.37
847.447	0.19
847.751	1.16
848.056	1.04
848.36	2.78
848.664	2.83
848.969	1.4
849.273	0.64
849.577	0.61
849.881	0.05
850.185	0.39
850.489	1.86
850.794	-1.27
851.097	-0.35
851.401	0.34
851.705	0.81
852.009	2.34
852.313	1.38
852.617	2.4
852.92	4.77
853.224	5.85
853.528	5.78
853.831	4.39
854.135	2.96
854.438	1.41
854.742	-1.35
855.045	-2.51
855.349	-2
855.652	-1.09
855.955	-1.08
856.259	-1.23
856.562	-0.26
856.865	-2.06
857.168	-2.58
857.471	-2.26
857.774	-2.92
858.077	-1.62
858.38	-0.07
858.683	1.67
858.986	-0.29
859.289	-1.18
859.592	-3.43
859.894	-3.03
860.197	0.07
860.5	0.48
860.802	1.44
861.105	3.72
861.407	3.15
861.71	1.58
862.012	1.79
862.315	-0.71
862.617	-0.45
862.919	-0.9
863.222	0.2
863.524	2.08
863.826	0.68
864.128	-0.95
864.43	-1.21
864.732	-1.52
865.034	-2.86
865.336	-3.07
865.638	-5.44
865.94	-4.59
866.242	-4.26
866.544	-5.19
866.846	-3.79
867.147	-3.15
867.449	-3.9
867.751	-1.95
868.052	0.91
868.354	0.69
868.655	3.45
868.957	5.08
869.258	4.77
869.56	1.86
869.861	0.15
870.162	2.55
870.463	5.86
870.765	6.27
871.066	4.97
871.367	5.29
871.668	7.05
871.969	7.18
872.27	6.73
872.571	5.92
872.872	6.55
873.173	7.79
873.473	8.56
873.774	7.3
874.075	6.69
874.376	5.43
874.676	7.14
874.977	4.6
875.277	4.84
875.578	4.26
875.878	6.88
876.179	7.56
876.479	6.61
876.78	4.68
877.08	3.23
877.38	4.13
877.68	3.8
877.981	4.69
878.281	5.07
878.581	10.05
