Data from BA28416_Reflection_00007.txt Node
Date: Mon Nov 18 16:05:26 EST 2019
User: vgr7
Spectrometer: USB2G7710
Scans to average: 3
Trigger mode: 4
Integration Time (sec): 2.000000E-2
Electric dark correction enabled: true
Boxcar width: 10
XAxis mode: Wavelengths
Number of Pixels in Spectrum: 2048
>>>>>Begin Spectral Data<<<<<
177.721	-116
178.105	-101.97
178.488	-54.52
178.871	-1158.62
179.254	66.94
179.636	304.79
180.019	919.67
180.402	77.78
180.785	18.77
181.168	6.42
181.55	16.55
181.933	52.06
182.316	63.58
182.698	50.26
183.081	39.32
183.463	13.99
183.846	16.64
184.228	8.39
184.611	-15.33
184.993	-30.99
185.376	-38.38
185.758	-24.51
186.14	-20.94
186.522	-34.7
186.904	-44.51
187.287	-40.1
187.669	-60.86
188.051	-41.12
188.433	-34.49
188.815	-57.87
189.197	-61.3
189.579	-65.27
189.961	-75.32
190.342	-77.44
190.724	-174.15
191.106	-108.3
191.488	-118.89
191.869	-204.92
192.251	-76.96
192.633	-46.66
193.014	-46.01
193.396	-39.91
193.777	-82.5
194.159	-186.39
194.54	-121.6
194.922	63.59
195.303	143.89
195.684	172.02
196.065	109.45
196.447	117.65
196.828	33.38
197.209	17.63
197.59	14.05
197.971	-23.66
198.352	4.51
198.733	-32.29
199.114	23.67
199.495	18
199.876	0.37
200.257	29.62
200.638	29.74
201.018	28.55
201.399	33.49
201.78	27.27
202.16	-8.59
202.541	-20.32
202.922	-28.67
203.302	-67.96
203.683	-250.8
204.063	-345.14
204.444	-112.89
204.824	-186.45
205.204	-402.13
205.585	-203.47
205.965	-158.82
206.345	-221.48
206.725	-2590.91
207.106	624.36
207.486	245.06
207.866	252.93
208.246	172.81
208.626	166.7
209.006	236.17
209.386	253
209.766	306.05
210.145	161.46
210.525	94.75
210.905	89.58
211.285	36.78
211.664	65.99
212.044	26.04
212.424	3.38
212.803	0.93
213.183	-21.92
213.562	-3.18
213.942	-8.84
214.321	-11.66
214.701	25.36
215.08	-23.32
215.459	-67.52
215.838	-242.08
216.218	-1440.37
216.597	-479.04
216.976	-760.68
217.355	-6471.43
217.734	-849.83
218.113	2842.27
218.492	1032.81
218.871	346.97
219.25	282.6
219.629	365.69
220.008	345.72
220.387	244.78
220.766	172.99
221.144	211
221.523	202.61
221.902	346.61
222.28	-4692.45
222.659	663.07
223.037	245.09
223.416	222.28
223.794	93.92
224.173	86.96
224.551	37.31
224.929	52.05
225.308	34.6
225.686	27.18
226.064	13.37
226.442	7.25
226.821	8.55
227.199	5.11
227.577	5.79
227.955	5.57
228.333	-1.68
228.711	1.95
229.089	3.15
229.467	-1.05
229.845	-2.81
230.222	2.21
230.6	-1.45
230.978	1.04
231.356	2.38
231.733	2.16
232.111	2.98
232.488	3.38
232.866	2.65
233.243	4.03
233.621	2.56
233.998	4.17
234.376	3.77
234.753	3.76
235.13	2.85
235.508	3.85
235.885	2.66
236.262	4.54
236.639	3.86
237.016	2.89
237.393	6.19
237.77	7.26
238.147	6.44
238.524	6.22
238.901	6.41
239.278	5.82
239.655	6.66
240.032	6.5
240.409	6.63
240.785	6.19
241.162	6.12
241.539	6.52
241.915	5.9
242.292	6.35
242.668	6.2
243.045	6.48
243.421	5.95
243.798	5.72
244.174	5.4
244.551	5.37
244.927	5.38
245.303	5.38
245.679	5.24
246.056	5.12
246.432	5.1
246.808	5.02
247.184	4.87
247.56	4.4
247.936	4.45
248.312	4.39
248.688	4.61
249.064	4.43
249.44	4.41
249.815	4.62
250.191	4.58
250.567	4.44
250.943	4.16
251.318	4.25
251.694	4.39
252.069	4.43
252.445	4.44
252.82	4.61
253.196	4.42
253.571	4.33
253.947	4.37
254.322	4.63
254.697	3.9
255.073	3.69
255.448	3.88
255.823	3.7
256.198	3.9
256.573	3.6
256.948	3.67
257.323	3.81
257.698	3.74
258.073	3.64
258.448	3.57
258.823	3.79
259.198	3.73
259.573	3.57
259.948	3.43
260.322	3.28
260.697	3.04
261.072	2.92
261.446	2.98
261.821	2.84
262.195	2.79
262.57	3.01
262.944	3.03
263.319	2.95
263.693	2.79
264.067	2.62
264.442	2.65
264.816	2.43
265.19	2.1
265.564	2.06
265.938	2.03
266.313	2.08
266.687	1.96
267.061	2.03
267.435	2.26
267.809	2.51
268.183	2.55
268.556	2.7
268.93	2.77
269.304	2.83
269.678	3.08
270.051	3.02
270.425	3.07
270.799	3.23
271.172	3.32
271.546	3.39
271.919	3.31
272.293	3.39
272.666	3.53
273.04	3.69
273.413	3.56
273.787	3.61
274.16	3.55
274.533	3.49
274.906	3.38
275.279	3.23
275.653	3.33
276.026	3.23
276.399	3.23
276.772	3.24
277.145	3.22
277.518	3.17
277.891	3.24
278.263	3.23
278.636	3.05
279.009	3.01
279.382	3.16
279.755	3.19
280.127	3.21
280.5	3.14
280.872	3.1
281.245	3.14
281.617	3.18
281.99	3.28
282.362	3.38
282.735	3.45
283.107	3.46
283.479	3.42
283.852	3.48
284.224	3.5
284.596	3.46
284.968	3.47
285.34	3.45
285.713	3.39
286.085	3.39
286.457	3.42
286.829	3.49
287.201	3.4
287.572	3.34
287.944	3.26
288.316	3.32
288.688	3.31
289.06	3.28
289.431	3.27
289.803	3.19
290.175	3.21
290.546	3.28
290.918	3.37
291.289	3.22
291.661	3.18
292.032	3.27
292.403	3.41
292.775	3.49
293.146	3.41
293.517	3.35
293.889	3.37
294.26	3.56
294.631	3.48
295.002	3.56
295.373	3.66
295.744	3.72
296.115	3.77
296.486	3.71
296.857	3.73
297.228	3.74
297.599	3.82
297.97	3.86
298.34	3.86
298.711	3.89
299.082	3.94
299.452	4.08
299.823	4.13
300.194	4.04
300.564	3.95
300.935	4.1
301.305	4.21
301.676	4.23
302.046	4.21
302.416	4.4
302.787	4.48
303.157	4.5
303.527	4.44
303.897	4.43
304.267	4.48
304.637	4.65
305.008	4.7
305.378	4.8
305.748	4.88
306.117	4.84
306.487	4.86
306.857	4.91
307.227	4.79
307.597	4.7
307.967	4.81
308.336	4.78
308.706	4.75
309.076	4.88
309.445	4.84
309.815	4.75
310.184	4.76
310.554	4.7
310.923	4.72
311.293	4.83
311.662	4.83
312.031	4.79
312.401	4.72
312.77	4.81
313.139	4.8
313.508	4.79
313.877	4.78
314.246	4.72
314.616	4.72
314.985	4.88
315.353	4.87
315.722	4.97
316.091	5.03
316.46	5.07
316.829	5.06
317.198	5.2
317.567	5.36
317.935	5.38
318.304	5.41
318.672	5.35
319.041	5.49
319.41	5.5
319.778	5.76
320.147	5.89
320.515	5.82
320.883	5.82
321.252	5.77
321.62	5.92
321.988	6.01
322.357	6.07
322.725	6
323.093	6.16
323.461	6.24
323.829	6.19
324.197	6.3
324.565	6.2
324.933	6.13
325.301	6.05
325.669	5.95
326.037	5.95
326.405	5.98
326.772	5.82
327.14	5.93
327.508	5.87
327.875	5.72
328.243	5.77
328.61	5.73
328.978	5.77
329.346	5.93
329.713	5.94
330.08	5.96
330.448	6.02
330.815	5.87
331.182	5.75
331.55	5.91
331.917	5.91
332.284	6.07
332.651	6.08
333.018	6.18
333.385	6.31
333.752	6.34
334.119	6.41
334.486	6.53
334.853	6.59
335.22	6.52
335.587	6.74
335.954	6.68
336.32	6.8
336.687	6.76
337.054	6.63
337.42	6.59
337.787	6.63
338.153	6.57
338.52	6.71
338.886	6.63
339.253	6.59
339.619	6.52
339.986	6.54
340.352	6.67
340.718	6.61
341.084	6.65
341.451	6.68
341.817	6.74
342.183	6.74
342.549	6.74
342.915	6.81
343.281	6.76
343.647	6.74
344.013	6.73
344.379	6.79
344.745	6.78
345.11	6.81
345.476	6.79
345.842	6.91
346.208	6.89
346.573	6.96
346.939	7.06
347.304	7.07
347.67	6.98
348.035	6.97
348.401	6.96
348.766	6.94
349.132	7.02
349.497	6.98
349.862	7
350.228	7.02
350.593	7
350.958	6.98
351.323	6.95
351.688	6.98
352.053	6.93
352.418	6.99
352.783	6.97
353.148	6.91
353.513	6.91
353.878	6.91
354.243	7.01
354.608	7
354.972	7.03
355.337	7.03
355.702	7.02
356.066	7.11
356.431	7.03
356.795	7
357.16	7.02
357.524	6.94
357.889	6.84
358.253	6.88
358.618	6.87
358.982	6.86
359.346	6.73
359.71	6.76
360.075	6.67
360.439	6.77
360.803	6.74
361.167	6.66
361.531	6.57
361.895	6.44
362.259	6.39
362.623	6.38
362.987	6.38
363.351	6.31
363.714	6.23
364.078	6.26
364.442	6.27
364.806	6.19
365.169	6.16
365.533	6.16
365.896	6.13
366.26	6.15
366.623	6.14
366.987	6.16
367.35	6.16
367.714	6.14
368.077	6.05
368.44	6.11
368.803	6.13
369.167	6.15
369.53	6.16
369.893	6.2
370.256	6.17
370.619	6.11
370.982	6.17
371.345	6.13
371.708	6.03
372.071	5.92
372.434	5.92
372.797	5.93
373.159	5.87
373.522	5.84
373.885	5.77
374.247	5.81
374.61	5.8
374.973	5.68
375.335	5.65
375.698	5.58
376.06	5.45
376.423	5.38
376.785	5.41
377.147	5.47
377.51	5.38
377.872	5.37
378.234	5.32
378.596	5.18
378.958	5.18
379.321	5.17
379.683	5.17
380.045	5.13
380.407	5.08
380.769	5.06
381.13	5.01
381.492	4.97
381.854	4.9
382.216	4.89
382.578	4.88
382.939	4.81
383.301	4.83
383.663	4.82
384.024	4.8
384.386	4.74
384.747	4.69
385.109	4.7
385.47	4.62
385.832	4.61
386.193	4.63
386.554	4.54
386.916	4.55
387.277	4.51
387.638	4.51
387.999	4.51
388.36	4.54
388.721	4.5
389.082	4.46
389.443	4.42
389.804	4.36
390.165	4.37
390.526	4.39
390.887	4.33
391.248	4.36
391.609	4.31
391.969	4.28
392.33	4.23
392.691	4.16
393.051	4.18
393.412	4.17
393.772	4.15
394.133	4.21
394.493	4.18
394.854	4.16
395.214	4.13
395.574	4.08
395.935	4.02
396.295	4.02
396.655	4.02
397.015	3.98
397.376	3.94
397.736	3.9
398.096	3.87
398.456	3.85
398.816	3.84
399.176	3.81
399.535	3.77
399.895	3.72
400.255	3.74
400.615	3.7
400.975	3.72
401.334	3.7
401.694	3.66
402.054	3.62
402.413	3.58
402.773	3.55
403.132	3.53
403.492	3.52
403.851	3.5
404.211	3.46
404.57	3.44
404.929	3.44
405.288	3.43
405.648	3.4
406.007	3.39
406.366	3.37
406.725	3.42
407.084	3.44
407.443	3.44
407.802	3.44
408.161	3.45
408.52	3.41
408.879	3.38
409.238	3.38
409.596	3.36
409.955	3.39
410.314	3.41
410.673	3.43
411.031	3.42
411.39	3.39
411.748	3.41
412.107	3.43
412.465	3.43
412.824	3.41
413.182	3.42
413.54	3.41
413.899	3.4
414.257	3.36
414.615	3.33
414.974	3.31
415.332	3.29
415.69	3.27
416.048	3.25
416.406	3.26
416.764	3.23
417.122	3.24
417.48	3.22
417.838	3.2
418.195	3.19
418.553	3.18
418.911	3.17
419.269	3.18
419.626	3.16
419.984	3.15
420.342	3.15
420.699	3.13
421.057	3.14
421.414	3.11
421.772	3.11
422.129	3.11
422.486	3.1
422.844	3.09
423.201	3.07
423.558	3.07
423.915	3.05
424.273	3.03
424.63	3.02
424.987	3.01
425.344	2.99
425.701	2.98
426.058	2.97
426.415	2.96
426.772	2.93
427.128	2.92
427.485	2.91
427.842	2.91
428.199	2.91
428.555	2.89
428.912	2.9
429.269	2.89
429.625	2.87
429.982	2.86
430.338	2.84
430.695	2.85
431.051	2.83
431.407	2.85
431.764	2.85
432.12	2.83
432.476	2.83
432.832	2.83
433.189	2.84
433.545	2.84
433.901	2.83
434.257	2.84
434.613	2.85
434.969	2.87
435.325	2.85
435.681	2.85
436.036	2.84
436.392	2.86
436.748	2.86
437.104	2.85
437.459	2.85
437.815	2.84
438.171	2.84
438.526	2.86
438.882	2.87
439.237	2.88
439.593	2.89
439.948	2.88
440.304	2.88
440.659	2.88
441.014	2.89
441.369	2.88
441.725	2.86
442.08	2.85
442.435	2.84
442.79	2.83
443.145	2.83
443.5	2.83
443.855	2.8
444.21	2.81
444.565	2.82
444.92	2.83
445.275	2.84
445.629	2.84
445.984	2.82
446.339	2.81
446.693	2.81
447.048	2.8
447.403	2.8
447.757	2.79
448.112	2.77
448.466	2.76
448.82	2.75
449.175	2.75
449.529	2.76
449.883	2.74
450.238	2.74
450.592	2.74
450.946	2.73
451.3	2.73
451.654	2.72
452.008	2.72
452.362	2.68
452.716	2.64
453.07	2.64
453.424	2.63
453.778	2.64
454.132	2.64
454.486	2.62
454.839	2.6
455.193	2.61
455.547	2.61
455.9	2.61
456.254	2.63
456.607	2.64
456.961	2.63
457.314	2.65
457.668	2.67
458.021	2.65
458.375	2.66
458.728	2.66
459.081	2.65
459.434	2.63
459.787	2.66
460.141	2.67
460.494	2.68
460.847	2.68
461.2	2.67
461.553	2.68
461.906	2.69
462.259	2.71
462.611	2.71
462.964	2.73
463.317	2.75
463.67	2.75
464.022	2.76
464.375	2.77
464.728	2.76
465.08	2.77
465.433	2.78
465.785	2.79
466.138	2.79
466.49	2.82
466.843	2.82
467.195	2.83
467.547	2.86
467.899	2.88
468.252	2.88
468.604	2.89
468.956	2.88
469.308	2.91
469.66	2.92
470.012	2.94
470.364	2.95
470.716	2.93
471.068	2.93
471.42	2.92
471.772	2.94
472.123	2.95
472.475	2.96
472.827	2.96
473.178	2.98
473.53	2.98
473.882	2.99
474.233	2.99
474.585	2.98
474.936	2.97
475.288	2.97
475.639	2.99
475.99	2.98
476.342	2.99
476.693	2.97
477.044	2.97
477.395	2.96
477.746	2.96
478.097	2.97
478.448	2.98
478.8	2.96
479.15	2.93
479.501	2.91
479.852	2.91
480.203	2.9
480.554	2.88
480.905	2.88
481.255	2.87
481.606	2.88
481.957	2.88
482.307	2.87
482.658	2.87
483.009	2.86
483.359	2.85
483.709	2.85
484.06	2.86
484.41	2.85
484.761	2.85
485.111	2.84
485.461	2.83
485.811	2.83
486.162	2.84
486.512	2.84
486.862	2.85
487.212	2.84
487.562	2.85
487.912	2.86
488.262	2.86
488.612	2.86
488.961	2.87
489.311	2.87
489.661	2.88
490.011	2.88
490.36	2.88
490.71	2.89
491.06	2.89
491.409	2.89
491.759	2.91
492.108	2.91
492.458	2.91
492.807	2.92
493.157	2.94
493.506	2.94
493.855	2.96
494.204	2.96
494.554	2.97
494.903	2.98
495.252	2.98
495.601	3.01
495.95	3.03
496.299	3.03
496.648	3.05
496.997	3.08
497.346	3.11
497.695	3.14
498.043	3.17
498.392	3.19
498.741	3.22
499.09	3.24
499.438	3.29
499.787	3.33
500.135	3.38
500.484	3.4
500.832	3.45
501.181	3.47
501.529	3.49
501.878	3.53
502.226	3.57
502.574	3.62
502.923	3.65
503.271	3.69
503.619	3.75
503.967	3.79
504.315	3.81
504.663	3.88
505.011	3.95
505.359	4
505.707	4.09
506.055	4.13
506.403	4.21
506.751	4.27
507.098	4.34
507.446	4.38
507.794	4.45
508.141	4.5
508.489	4.58
508.837	4.69
509.184	4.78
509.531	4.85
509.879	4.93
510.226	5.03
510.574	5.1
510.921	5.16
511.268	5.23
511.616	5.34
511.963	5.41
512.31	5.48
512.657	5.57
513.004	5.63
513.351	5.74
513.698	5.82
514.045	5.91
514.392	6.01
514.739	6.13
515.086	6.24
515.432	6.35
515.779	6.45
516.126	6.54
516.473	6.65
516.819	6.76
517.166	6.85
517.512	6.93
517.859	7.02
518.205	7.13
518.552	7.24
518.898	7.34
519.245	7.42
519.591	7.52
519.937	7.59
520.283	7.7
520.629	7.81
520.976	7.91
521.322	8.05
521.668	8.19
522.014	8.3
522.36	8.47
522.706	8.62
523.052	8.78
523.398	8.96
523.743	9.13
524.089	9.3
524.435	9.49
524.781	9.68
525.126	9.85
525.472	10
525.817	10.13
526.163	10.27
526.509	10.41
526.854	10.55
527.199	10.67
527.545	10.79
527.89	10.93
528.235	11.05
528.581	11.17
528.926	11.29
529.271	11.43
529.616	11.55
529.961	11.68
530.306	11.82
530.651	11.97
530.996	12.13
531.341	12.3
531.686	12.48
532.031	12.65
532.376	12.84
532.721	13.02
533.065	13.22
533.41	13.43
533.755	13.63
534.099	13.84
534.444	14.07
534.788	14.29
535.133	14.5
535.477	14.74
535.822	14.98
536.166	15.23
536.51	15.5
536.855	15.78
537.199	16.07
537.543	16.38
537.887	16.69
538.231	17
538.576	17.3
538.92	17.58
539.264	17.87
539.608	18.13
539.951	18.4
540.295	18.65
540.639	18.89
540.983	19.13
541.327	19.37
541.671	19.59
542.014	19.84
542.358	20.07
542.701	20.28
543.045	20.51
543.389	20.77
543.732	21.03
544.075	21.27
544.419	21.54
544.762	21.79
545.105	22.06
545.449	22.32
545.792	22.61
546.135	22.94
546.478	23.26
546.821	23.59
547.165	23.94
547.508	24.3
547.851	24.65
548.194	24.96
548.536	25.32
548.879	25.7
549.222	26.02
549.565	26.34
549.908	26.68
550.25	27.06
550.593	27.35
550.936	27.64
551.278	28
551.621	28.29
551.963	28.61
552.306	28.95
552.648	29.3
552.991	29.6
553.333	29.87
553.675	30.12
554.017	30.41
554.36	30.69
554.702	30.92
555.044	31.16
555.386	31.43
555.728	31.68
556.07	31.98
556.412	32.25
556.754	32.61
557.096	32.9
557.438	33.16
557.78	33.48
558.121	33.79
558.463	34.06
558.805	34.38
559.147	34.65
559.488	34.91
559.83	35.18
560.171	35.47
560.513	35.79
560.854	36.1
561.196	36.43
561.537	36.66
561.878	36.94
562.22	37.24
562.561	37.53
562.902	37.8
563.243	38.05
563.584	38.28
563.925	38.49
564.266	38.72
564.607	38.98
564.948	39.21
565.289	39.45
565.63	39.66
565.971	39.86
566.312	40.08
566.653	40.36
566.993	40.6
567.334	40.78
567.675	40.97
568.015	41.18
568.356	41.32
568.696	41.54
569.037	41.77
569.377	41.91
569.718	42.1
570.058	42.28
570.398	42.42
570.739	42.63
571.079	42.79
571.419	43.02
571.759	43.19
572.099	43.35
572.439	43.54
572.779	43.73
573.119	43.93
573.459	44.12
573.799	44.26
574.139	44.36
574.479	44.5
574.819	44.63
575.158	44.79
575.498	44.98
575.838	45.12
576.177	45.24
576.517	45.39
576.856	45.56
577.196	45.66
577.535	45.86
577.875	46.08
578.214	46.2
578.553	46.36
578.893	46.51
579.232	46.67
579.571	46.82
579.91	46.96
580.25	47.07
580.589	47.19
580.928	47.25
581.267	47.43
581.606	47.66
581.945	47.79
582.283	47.86
582.622	48.04
582.961	48.16
583.3	48.28
583.639	48.48
583.977	48.63
584.316	48.82
584.654	48.92
584.993	48.99
585.332	49.15
585.67	49.27
586.008	49.38
586.347	49.46
586.685	49.54
587.024	49.69
587.362	49.81
587.7	49.94
588.038	50.1
588.376	50.19
588.715	50.22
589.053	50.39
589.391	50.55
589.729	50.65
590.067	50.76
590.404	50.87
590.742	50.96
591.08	51.02
591.418	51.14
591.756	51.24
592.093	51.36
592.431	51.47
592.769	51.5
593.106	51.51
593.444	51.63
593.781	51.73
594.119	51.8
594.456	51.9
594.793	51.96
595.131	52.05
595.468	52.1
595.805	52.2
596.143	52.29
596.48	52.34
596.817	52.43
597.154	52.52
597.491	52.59
597.828	52.71
598.165	52.79
598.502	52.88
598.839	52.93
599.176	52.97
599.512	53.02
599.849	53.1
600.186	53.31
600.523	53.35
600.859	53.4
601.196	53.51
601.532	53.6
601.869	53.62
602.205	53.67
602.542	53.78
602.878	53.8
603.215	53.79
603.551	53.86
603.887	53.88
604.223	53.93
604.56	53.99
604.896	53.97
605.232	54.03
605.568	54.04
605.904	54.11
606.24	54.16
606.576	54.25
606.912	54.34
607.248	54.35
607.583	54.44
607.919	54.48
608.255	54.43
608.591	54.49
608.926	54.63
609.262	54.69
609.597	54.71
609.933	54.72
610.268	54.77
610.604	54.75
610.939	54.79
611.275	54.87
611.61	54.95
611.945	55.07
612.281	55.11
612.616	55.12
612.951	55.27
613.286	55.34
613.621	55.33
613.956	55.3
614.291	55.35
614.626	55.46
614.961	55.54
615.296	55.6
615.631	55.57
615.966	55.59
616.3	55.64
616.635	55.61
616.97	55.73
617.304	55.8
617.639	55.86
617.973	55.9
618.308	55.87
618.642	55.81
618.977	55.83
619.311	55.77
619.646	55.81
619.98	55.78
620.314	55.81
620.648	55.95
620.983	56.05
621.317	56.05
621.651	56.08
621.985	56.11
622.319	56.14
622.653	56.22
622.987	56.37
623.321	56.47
623.655	56.59
623.988	56.62
624.322	56.7
624.656	56.79
624.99	56.84
625.323	56.9
625.657	56.97
625.99	56.98
626.324	57.06
626.657	57.15
626.991	57.15
627.324	57.18
627.658	57.2
627.991	57.22
628.324	57.27
628.657	57.32
628.991	57.38
629.324	57.44
629.657	57.48
629.99	57.42
630.323	57.45
630.656	57.46
630.989	57.52
631.322	57.53
631.655	57.5
631.987	57.55
632.32	57.55
632.653	57.61
632.986	57.59
633.318	57.63
633.651	57.63
633.984	57.66
634.316	57.67
634.649	57.68
634.981	57.63
635.313	57.62
635.646	57.55
635.978	57.51
636.31	57.55
636.643	57.57
636.975	57.58
637.307	57.53
637.639	57.56
637.971	57.51
638.303	57.5
638.635	57.49
638.967	57.46
639.299	57.52
639.631	57.5
639.963	57.5
640.295	57.55
640.626	57.57
640.958	57.53
641.29	57.6
641.621	57.61
641.953	57.64
642.285	57.71
642.616	57.81
642.948	57.87
643.279	57.84
643.61	57.9
643.942	57.92
644.273	57.87
644.604	57.85
644.936	57.74
645.267	57.69
645.598	57.83
645.929	57.81
646.26	57.83
646.591	57.95
646.922	58.08
647.253	58.07
647.584	58.01
647.915	58.02
648.245	58.03
648.576	58.06
648.907	58.19
649.238	58.27
649.568	58.21
649.899	58.18
650.229	58.25
650.56	58.32
650.89	58.35
651.221	58.42
651.551	58.57
651.882	58.76
652.212	58.86
652.542	58.72
652.872	58.79
653.203	58.75
653.533	58.75
653.863	58.72
654.193	58.75
654.523	58.79
654.853	58.9
655.183	58.87
655.513	58.89
655.843	58.85
656.172	58.73
656.502	58.83
656.832	58.84
657.162	58.89
657.491	58.75
657.821	58.75
658.15	58.83
658.48	58.77
658.809	58.83
659.139	58.86
659.468	58.83
659.798	58.81
660.127	58.76
660.456	58.7
660.785	58.72
661.115	58.76
661.444	58.89
661.773	58.84
662.102	58.89
662.431	58.8
662.76	58.96
663.089	59
663.418	58.99
663.747	59.05
664.076	59.13
664.404	59.21
664.733	59.21
665.062	59.19
665.39	59.31
665.719	59.31
666.048	59.27
666.376	59.39
666.705	59.41
667.033	59.52
667.362	59.58
667.69	59.57
668.018	59.54
668.347	59.49
668.675	59.53
669.003	59.59
669.331	59.7
669.659	59.59
669.987	59.67
670.315	59.68
670.643	59.71
670.971	59.59
671.299	59.6
671.627	59.65
671.955	59.53
672.283	59.4
672.61	59.34
672.938	59.29
673.266	59.28
673.593	59.32
673.921	59.3
674.249	59.26
674.576	59.36
674.904	59.45
675.231	59.34
675.558	59.32
675.886	59.28
676.213	59.35
676.54	59.38
676.867	59.38
677.195	59.41
677.522	59.38
677.849	59.54
678.176	59.65
678.503	59.59
678.83	59.58
679.157	59.61
679.484	59.51
679.81	59.64
680.137	59.73
680.464	59.69
680.791	59.78
681.117	59.75
681.444	59.6
681.771	59.52
682.097	59.63
682.424	59.7
682.75	59.66
683.077	59.69
683.403	59.63
683.729	59.68
684.056	59.6
684.382	59.6
684.708	59.51
685.034	59.29
685.36	59.36
685.686	59.44
686.012	59.49
686.339	59.68
686.664	59.69
686.99	59.68
687.316	59.78
687.642	59.71
687.968	59.83
688.294	60.02
688.619	60.09
688.945	60.08
689.271	60.06
689.596	60.14
689.922	60.25
690.247	60.24
690.573	60.33
690.898	60.36
691.224	60.43
691.549	60.51
691.874	60.57
692.2	60.56
692.525	60.64
692.85	60.57
693.175	60.51
693.5	60.4
693.825	60.4
694.15	60.31
694.475	60.35
694.8	60.28
695.125	60.17
695.45	60.13
695.775	60.1
696.099	60.18
696.424	60.21
696.749	60.11
697.073	60.12
697.398	60.11
697.723	60.06
698.047	60.02
698.372	59.84
698.696	59.89
699.02	59.77
699.345	59.65
699.669	59.78
699.993	59.82
700.318	59.88
700.642	59.9
700.966	60.05
701.29	60.14
701.614	60.2
701.938	60.32
702.262	60.4
702.586	60.4
702.91	60.34
703.234	60.4
703.557	60.34
703.881	60.31
704.205	60.15
704.529	60.3
704.852	60.37
705.176	60.57
705.499	60.53
705.823	60.62
706.146	60.85
706.47	60.77
706.793	60.83
707.117	60.73
707.44	60.69
707.763	60.49
708.086	60.5
708.409	60.47
708.733	60.45
709.056	60.34
709.379	60.42
709.702	60.35
710.025	60.11
710.348	60.14
710.671	60.12
710.993	60.22
711.316	60.23
711.639	60.17
711.962	60.03
712.284	60.34
712.607	60.33
712.93	60.33
713.252	60.21
713.575	60.17
713.897	60.27
714.22	60.31
714.542	60.42
714.864	60.39
715.187	60.34
715.509	60.37
715.831	60.38
716.153	60.37
716.475	60.58
716.798	60.85
717.12	60.69
717.442	60.93
717.764	61.08
718.085	61.11
718.407	61.01
718.729	61.2
719.051	61.06
719.373	61.14
719.695	61.26
720.016	61.3
720.338	61.39
720.659	61.23
720.981	61.39
721.302	61.39
721.624	61.37
721.945	61.58
722.267	61.4
722.588	61.48
722.909	61.37
723.231	61.06
723.552	61.02
723.873	61.09
724.194	60.88
724.515	60.71
724.836	60.56
725.157	60.83
725.478	60.84
725.799	60.75
726.12	60.83
726.441	60.77
726.762	60.92
727.083	60.85
727.403	61.05
727.724	61.14
728.045	61.16
728.365	61.11
728.686	61.08
729.006	61.24
729.327	61.31
729.647	61.77
729.967	61.95
730.288	61.83
730.608	61.83
730.928	61.99
731.249	62.01
731.569	62.05
731.889	61.96
732.209	61.95
732.529	61.98
732.849	61.83
733.169	61.83
733.489	61.85
733.809	61.96
734.129	61.99
734.448	61.83
734.768	61.79
735.088	61.78
735.408	61.64
735.727	61.54
736.047	61.67
736.366	61.16
736.686	61.15
737.005	61.12
737.325	61.3
737.644	61.1
737.963	61.1
738.283	61.15
738.602	61.28
738.921	61.22
739.24	61.34
739.56	61.5
739.879	61.33
740.198	61.46
740.517	61.47
740.836	61.59
741.155	61.57
741.473	61.54
741.792	61.66
742.111	61.68
742.43	61.53
742.748	61.44
743.067	61.65
743.386	61.8
743.704	62.06
744.023	62.04
744.341	62.04
744.66	61.99
744.978	62.22
745.297	62.15
745.615	62.13
745.933	62.27
746.252	62.16
746.57	61.96
746.888	61.84
747.206	61.78
747.524	61.34
747.842	61.32
748.16	61.42
748.478	61.48
748.796	61.58
749.114	61.71
749.432	61.54
749.749	61.34
750.067	61.04
750.385	60.87
750.703	60.93
751.02	61.17
751.338	61.23
751.655	61.03
751.973	61.2
752.29	60.94
752.608	60.86
752.925	61
753.242	61.11
753.56	60.74
753.877	60.79
754.194	60.79
754.511	60.9
754.828	61.04
755.145	60.93
755.462	61.01
755.779	61.05
756.096	61.27
756.413	61.57
756.73	61.93
757.047	61.79
757.364	61.62
757.68	61.51
757.997	61.68
758.314	61.65
758.63	61.75
758.947	61.96
759.264	61.76
759.58	61.54
759.896	61.86
760.213	61.9
760.529	62.04
760.846	62.18
761.162	61.99
761.478	61.64
761.794	61.71
762.11	61.65
762.426	61.69
762.743	61.67
763.059	61.57
763.375	61.37
763.69	61.45
764.006	61.47
764.322	61.54
764.638	61.39
764.954	61.71
765.27	61.7
765.585	61.75
765.901	61.88
766.216	62.06
766.532	62
766.848	62.24
767.163	62.04
767.478	62.14
767.794	62.16
768.109	62.28
768.424	62.33
768.74	62.47
769.055	62.62
769.37	62.31
769.685	62.22
770	62.2
770.315	62.23
770.63	62.14
770.945	62.34
771.26	62.2
771.575	61.77
771.89	61.37
772.205	61.28
772.52	61.13
772.834	60.88
773.149	60.92
773.464	61.22
773.778	61.28
774.093	61.4
774.407	61.38
774.722	61.63
775.036	61.13
775.351	60.93
775.665	60.82
775.979	60.95
776.293	60.76
776.608	61.08
776.922	61.29
777.236	61.79
777.55	61.47
777.864	61.46
778.178	61.71
778.492	61.97
778.806	61.85
779.12	61.81
779.434	62.36
779.747	62.25
780.061	61.5
780.375	61.45
780.689	61.02
781.002	61.15
781.316	61.33
781.629	61.79
781.943	62.13
782.256	62.54
782.57	62.96
782.883	63.8
783.196	63.44
783.51	63.19
783.823	62.72
784.136	63.04
784.449	63.64
784.762	63.44
785.075	63.46
785.388	63.48
785.701	63.45
786.014	63.37
786.327	62.97
786.64	63.41
786.953	63.33
787.266	63.44
787.578	63.39
787.891	62.75
788.204	62.61
788.516	62.5
788.829	61.74
789.141	61.63
789.454	61.06
789.766	61.75
790.079	61.8
790.391	62.33
790.703	62.01
791.016	61.71
791.328	61.58
791.64	61.71
791.952	62.07
792.264	62.3
792.576	61.62
792.888	61.78
793.2	61.93
793.512	61.89
793.824	62.31
794.136	62.39
794.448	62.74
794.76	62.28
795.071	62.23
795.383	62.22
795.695	61.98
796.006	62.04
796.318	62.11
796.629	61.81
796.941	61.61
797.252	61.23
797.564	61.37
797.875	61.24
798.186	61.46
798.497	61.72
798.809	61.66
799.12	61.95
799.431	62.52
799.742	61.72
800.053	62.27
800.364	61.77
800.675	61.84
800.986	61.74
801.297	62.53
801.608	62.31
801.918	62.99
802.229	63.31
802.54	63.34
802.851	62.45
803.161	62.7
803.472	62.62
803.782	62.82
804.093	63.17
804.403	63.72
804.714	63.19
805.024	62.6
805.334	62
805.645	62.57
805.955	62.57
806.265	63.36
806.575	63.15
806.885	62.9
807.195	62.37
807.505	62.42
807.815	62.57
808.125	62.65
808.435	62.14
808.745	62
809.055	62.69
809.365	62.58
809.674	62.02
809.984	61.92
810.294	62.6
810.603	62.35
810.913	62.68
811.222	63.18
811.532	63.03
811.841	63.62
812.151	63.55
812.46	63.17
812.769	63.07
813.079	63.35
813.388	64.1
813.697	65.04
814.006	65.13
814.315	64.48
814.624	63.94
814.933	64
815.242	63.98
815.551	63.49
815.86	63.86
816.169	64.6
816.478	64.28
816.786	64.17
817.095	63.97
817.404	64.27
817.712	64.56
818.021	65.14
818.33	65.02
818.638	64.66
818.947	64.48
819.255	64.53
819.563	64.1
819.872	63.3
820.18	62.71
820.488	62.71
820.796	62.95
821.105	62.95
821.413	63.18
821.721	63.04
822.029	62.99
822.337	62.99
822.645	62.96
822.953	62.97
823.26	62.72
823.568	62.67
823.876	62.38
824.184	62.24
824.491	62.19
824.799	62.53
825.107	62.58
825.414	62.54
825.722	62.57
826.029	62.56
826.337	62.63
826.644	62.88
826.951	62.93
827.259	62.7
827.566	62.97
827.873	62.92
828.18	63.25
828.488	63.45
828.795	63.34
829.102	63.51
829.409	63.7
829.716	64.17
830.023	64.08
830.329	64.4
830.636	64.37
830.943	64.19
831.25	63.4
831.557	63.65
831.863	63.99
832.17	63.87
832.476	64.05
832.783	64.67
833.089	64.95
833.396	65.13
833.702	65.27
834.009	65.2
834.315	65.2
834.621	65.09
834.928	64.71
835.234	65.49
835.54	65.24
835.846	65.34
836.152	65.41
836.458	65.7
836.764	65.76
837.07	66.12
837.376	67
837.682	67.43
837.988	67.57
838.293	67.51
838.599	68.04
838.905	68.03
839.211	68.66
839.516	68.92
839.822	68.91
840.127	69.44
840.433	69.14
840.738	68.8
841.044	69.21
841.349	70.58
841.654	70.71
841.959	73.27
842.265	73.69
842.57	73.58
842.875	73.74
843.18	72.58
843.485	71.56
843.79	70.68
844.095	69.99
844.4	69.15
844.705	69.47
845.01	67.34
845.315	66.67
845.619	65.62
845.924	65.75
846.229	66.27
846.533	68.21
846.838	69.39
847.142	69.62
847.447	69.14
847.751	68.16
848.056	66.59
848.36	64.37
848.664	64.03
848.969	63.87
849.273	65.12
849.577	67.05
849.881	70.41
850.185	70.28
850.489	71.61
850.794	68.9
851.097	66.95
851.401	68.95
851.705	69.78
852.009	70.53
852.313	68.06
852.617	66.11
852.92	66.09
853.224	66.86
853.528	66.02
853.831	66.83
854.135	64.89
854.438	62.28
854.742	61.93
855.045	63.08
855.349	63.25
855.652	61.96
855.955	60.49
856.259	58.4
856.562	57.51
856.865	57.31
857.168	60.13
857.471	62.35
857.774	63.93
858.077	63.02
858.38	63.22
858.683	63.25
858.986	63.06
859.289	60.18
859.592	60.5
859.894	60.51
860.197	59.44
860.5	61.8
860.802	65.02
861.105	63.85
861.407	62.07
861.71	62.01
862.012	61.47
862.315	62.43
862.617	61.81
862.919	62.98
863.222	65.71
863.524	65.41
863.826	63.92
864.128	61.09
864.43	63.97
864.732	63.25
865.034	63.78
865.336	67.23
865.638	70.87
865.94	68.67
866.242	70.47
866.544	68.72
866.846	67.66
867.147	69.19
867.449	69.43
867.751	68.25
868.052	68.69
868.354	72.77
868.655	70.66
868.957	72.38
869.258	73.14
869.56	71.01
869.861	70.26
870.162	70.08
870.463	72.15
870.765	68.48
871.066	69.28
871.367	72.11
871.668	73.84
871.969	71.25
872.27	71.89
872.571	73.62
872.872	76.1
873.173	75.09
873.473	73.12
873.774	72.13
874.075	73.96
874.376	72.45
874.676	69.67
874.977	68.83
875.277	69.12
875.578	71.31
875.878	70.58
876.179	71.88
876.479	73.77
876.78	73.6
877.08	76.14
877.38	75.6
877.68	73.27
877.981	68.43
878.281	68.77
878.581	70.41
