Data from BA28471_Reflection_00013.txt Node
Date: Mon Nov 18 15:21:35 EST 2019
User: vgr7
Spectrometer: USB2G7710
Scans to average: 3
Trigger mode: 4
Integration Time (sec): 2.000000E-2
Electric dark correction enabled: true
Boxcar width: 10
XAxis mode: Wavelengths
Number of Pixels in Spectrum: 2048
>>>>>Begin Spectral Data<<<<<
177.721	225.27
178.105	-27.17
178.488	-50.47
178.871	-64.93
179.254	-16.34
179.636	-175.24
180.019	12.6
180.402	56.41
180.785	1642.17
181.168	102.31
181.55	116.91
181.933	89.78
182.316	66.79
182.698	87.59
183.081	37.54
183.463	58.03
183.846	112.97
184.228	192.76
184.611	500
184.993	375.86
185.376	-102.76
185.758	-66.38
186.14	-390.07
186.522	-2215.79
186.904	53.89
187.287	125.97
187.669	78.89
188.051	-44.04
188.433	-2.49
188.815	29.93
189.197	23.04
189.579	43.74
189.961	38.06
190.342	19.91
190.724	20.66
191.106	-8.55
191.488	-4.12
191.869	3.41
192.251	9.53
192.633	44.73
193.014	12.09
193.396	-28.54
193.777	-41.37
194.159	1.54
194.54	53.04
194.922	71.62
195.303	97.18
195.684	-6.04
196.065	13.9
196.447	-9.67
196.828	-74.33
197.209	5.5
197.59	-35.06
197.971	-70.93
198.352	-41.45
198.733	-66.22
199.114	-32.2
199.495	27.95
199.876	19.61
200.257	19.09
200.638	-2.9
201.018	-22.27
201.399	-25.51
201.78	-16.14
202.16	-26.17
202.541	-45.67
202.922	-56.29
203.302	-45.57
203.683	-36.76
204.063	-42.6
204.444	-31.18
204.824	-11.69
205.204	-41.94
205.585	-64.34
205.965	-35.38
206.345	-32.46
206.725	-41.55
207.106	-42.69
207.486	-57.96
207.866	-50.33
208.246	-46.96
208.626	-47.83
209.006	-28.79
209.386	-51.4
209.766	-65.71
210.145	-59.8
210.525	-37.09
210.905	-59.11
211.285	-37.82
211.664	-19.4
212.044	-20.04
212.424	-22.99
212.803	-31.65
213.183	-13.23
213.562	2.17
213.942	1.47
214.321	3.11
214.701	14.35
215.08	24.95
215.459	26.93
215.838	19.09
216.218	8.18
216.597	18.23
216.976	10.09
217.355	20.23
217.734	25.06
218.113	42.54
218.492	38.88
218.871	37.87
219.25	35.48
219.629	29.6
220.008	32.02
220.387	24.13
220.766	18.64
221.144	18.65
221.523	21.17
221.902	15.78
222.28	15.45
222.659	29.72
223.037	21.93
223.416	35.35
223.794	38.35
224.173	42.29
224.551	30.94
224.929	29.32
225.308	28.05
225.686	27.41
226.064	20.07
226.442	14.35
226.821	20.92
227.199	18.11
227.577	3.92
227.955	5.72
228.333	8.33
228.711	10.78
229.089	14.38
229.467	12.45
229.845	9.08
230.222	10.21
230.6	6.3
230.978	6.48
231.356	5.72
231.733	4.45
232.111	5.79
232.488	5.35
232.866	7.38
233.243	4.74
233.621	3.24
233.998	4.87
234.376	4.27
234.753	4.24
235.13	4.16
235.508	8.51
235.885	7.31
236.262	5.02
236.639	3.35
237.016	2.32
237.393	3.33
237.77	5.8
238.147	5.4
238.524	6.02
238.901	6.72
239.278	6.47
239.655	7.39
240.032	7.33
240.409	7.39
240.785	7.43
241.162	8.08
241.539	7.97
241.915	7.62
242.292	7.99
242.668	7.53
243.045	7.43
243.421	7.26
243.798	7.25
244.174	7.83
244.551	8.02
244.927	8.19
245.303	8.29
245.679	7.88
246.056	8.05
246.432	7.95
246.808	7.9
247.184	7.95
247.56	8.05
247.936	7.77
248.312	7.68
248.688	7.64
249.064	7.49
249.44	7.67
249.815	7.67
250.191	7.75
250.567	7.84
250.943	7.86
251.318	7.81
251.694	7.98
252.069	7.89
252.445	7.77
252.82	7.68
253.196	7.67
253.571	8.01
253.947	7.52
254.322	7.91
254.697	7.59
255.073	7.51
255.448	7.27
255.823	7.4
256.198	7.66
256.573	7.44
256.948	7.19
257.323	7.22
257.698	7.07
258.073	7.13
258.448	7.04
258.823	6.99
259.198	6.83
259.573	6.61
259.948	6.57
260.322	6.73
260.697	6.59
261.072	6.52
261.446	6.4
261.821	6.47
262.195	6.24
262.57	6.37
262.944	6.32
263.319	6.25
263.693	6.34
264.067	6.24
264.442	6.25
264.816	6.46
265.19	6.4
265.564	6.47
265.938	6.22
266.313	6.34
266.687	6.16
267.061	6.29
267.435	6.3
267.809	6.28
268.183	6.28
268.556	6.18
268.93	6.08
269.304	6.1
269.678	6.31
270.051	6.39
270.425	6.38
270.799	6.49
271.172	6.41
271.546	6.26
271.919	6.3
272.293	6.42
272.666	6.43
273.04	6.38
273.413	6.52
273.787	6.53
274.16	6.4
274.533	6.57
274.906	6.59
275.279	6.56
275.653	6.57
276.026	6.58
276.399	6.88
276.772	7.08
277.145	7.11
277.518	7.01
277.891	6.95
278.263	6.87
278.636	6.79
279.009	6.92
279.382	7.13
279.755	6.96
280.127	7.04
280.5	7.09
280.872	7.18
281.245	7.01
281.617	6.99
281.99	7.08
282.362	6.9
282.735	6.87
283.107	6.98
283.479	6.99
283.852	6.92
284.224	6.76
284.596	6.77
284.968	6.81
285.34	6.75
285.713	6.83
286.085	6.95
286.457	6.94
286.829	6.96
287.201	6.87
287.572	6.89
287.944	6.89
288.316	6.85
288.688	6.8
289.06	6.76
289.431	6.81
289.803	6.89
290.175	7.09
290.546	7.28
290.918	7.32
291.289	7.24
291.661	7.18
292.032	7.18
292.403	7.14
292.775	7.26
293.146	7.36
293.517	7.37
293.889	7.43
294.26	7.45
294.631	7.46
295.002	7.47
295.373	7.56
295.744	7.53
296.115	7.58
296.486	7.56
296.857	7.66
297.228	7.79
297.599	7.7
297.97	7.68
298.34	7.64
298.711	7.73
299.082	7.85
299.452	8
299.823	8.1
300.194	8.17
300.564	8.15
300.935	8.28
301.305	8.38
301.676	8.45
302.046	8.64
302.416	8.72
302.787	8.79
303.157	8.76
303.527	8.69
303.897	8.76
304.267	8.95
304.637	9.06
305.008	9.12
305.378	9.24
305.748	9.4
306.117	9.57
306.487	9.56
306.857	9.7
307.227	9.81
307.597	9.93
307.967	10.09
308.336	10.18
308.706	10.13
309.076	10.1
309.445	10.07
309.815	10.08
310.184	10.16
310.554	10.23
310.923	10.41
311.293	10.65
311.662	10.57
312.031	10.61
312.401	10.64
312.77	10.73
313.139	10.99
313.508	10.96
313.877	10.94
314.246	11.03
314.616	11
314.985	11.01
315.353	10.9
315.722	11.05
316.091	11.09
316.46	11.14
316.829	11.17
317.198	11.27
317.567	11.38
317.935	11.38
318.304	11.45
318.672	11.5
319.041	11.64
319.41	11.88
319.778	11.98
320.147	12.03
320.515	12.14
320.883	11.87
321.252	12.11
321.62	12.1
321.988	12.32
322.357	12.57
322.725	12.56
323.093	13.02
323.461	12.87
323.829	13.17
324.197	13.31
324.565	13.47
324.933	13.64
325.301	13.67
325.669	13.76
326.037	13.85
326.405	14
326.772	13.88
327.14	13.99
327.508	14.09
327.875	14.14
328.243	14.06
328.61	14.17
328.978	14.18
329.346	14.28
329.713	14.3
330.08	14.28
330.448	14.4
330.815	14.25
331.182	14.28
331.55	14.2
331.917	14.1
332.284	14.29
332.651	14.21
333.018	14.27
333.385	14.38
333.752	14.41
334.119	14.32
334.486	14.37
334.853	14.28
335.22	14.17
335.587	14.3
335.954	14.35
336.32	14.44
336.687	14.56
337.054	14.68
337.42	14.7
337.787	14.71
338.153	14.82
338.52	14.91
338.886	14.96
339.253	14.87
339.619	14.99
339.986	14.96
340.352	15.06
340.718	15.18
341.084	15.13
341.451	15.16
341.817	15.34
342.183	15.29
342.549	15.44
342.915	15.56
343.281	15.56
343.647	15.64
344.013	15.73
344.379	15.61
344.745	15.62
345.11	15.6
345.476	15.69
345.842	15.65
346.208	15.64
346.573	15.72
346.939	15.82
347.304	15.96
347.67	15.91
348.035	15.96
348.401	15.91
348.766	16.01
349.132	16.14
349.497	15.98
349.862	16.13
350.228	16.06
350.593	16.02
350.958	16.13
351.323	16.21
351.688	16.31
352.053	16.42
352.418	16.36
352.783	16.34
353.148	16.18
353.513	16.22
353.878	16.28
354.243	16.28
354.608	16.27
354.972	16.25
355.337	16.37
355.702	16.35
356.066	16.32
356.431	16.29
356.795	16.2
357.16	16.26
357.524	16.28
357.889	16.24
358.253	16.27
358.618	16.28
358.982	16.29
359.346	16.18
359.71	16.14
360.075	16.13
360.439	16.11
360.803	16.18
361.167	16.19
361.531	16.15
361.895	16.12
362.259	16.05
362.623	15.97
362.987	15.91
363.351	15.83
363.714	15.8
364.078	15.84
364.442	15.82
364.806	15.77
365.169	15.7
365.533	15.7
365.896	15.68
366.26	15.54
366.623	15.43
366.987	15.42
367.35	15.36
367.714	15.34
368.077	15.26
368.44	15.21
368.803	15.21
369.167	15.17
369.53	15.17
369.893	15.22
370.256	15.17
370.619	15.13
370.982	15.13
371.345	15.08
371.708	15
372.071	14.94
372.434	14.86
372.797	14.91
373.159	14.89
373.522	14.85
373.885	14.83
374.247	14.78
374.61	14.72
374.973	14.7
375.335	14.66
375.698	14.67
376.06	14.61
376.423	14.48
376.785	14.49
377.147	14.48
377.51	14.41
377.872	14.4
378.234	14.31
378.596	14.27
378.958	14.28
379.321	14.2
379.683	14.17
380.045	14.17
380.407	14
380.769	13.94
381.13	13.88
381.492	13.81
381.854	13.77
382.216	13.68
382.578	13.63
382.939	13.6
383.301	13.55
383.663	13.46
384.024	13.4
384.386	13.31
384.747	13.17
385.109	13.1
385.47	13.04
385.832	12.99
386.193	12.94
386.554	12.87
386.916	12.82
387.277	12.79
387.638	12.77
387.999	12.79
388.36	12.76
388.721	12.68
389.082	12.69
389.443	12.65
389.804	12.61
390.165	12.59
390.526	12.55
390.887	12.53
391.248	12.5
391.609	12.51
391.969	12.44
392.33	12.4
392.691	12.36
393.051	12.35
393.412	12.31
393.772	12.27
394.133	12.23
394.493	12.22
394.854	12.15
395.214	12.07
395.574	11.98
395.935	11.9
396.295	11.88
396.655	11.74
397.015	11.68
397.376	11.62
397.736	11.58
398.096	11.54
398.456	11.46
398.816	11.45
399.176	11.34
399.535	11.27
399.895	11.25
400.255	11.19
400.615	11.12
400.975	11.09
401.334	11.08
401.694	11.03
402.054	10.94
402.413	10.94
402.773	10.91
403.132	10.87
403.492	10.83
403.851	10.78
404.211	10.8
404.57	10.79
404.929	10.79
405.288	10.71
405.648	10.63
406.007	10.58
406.366	10.54
406.725	10.54
407.084	10.51
407.443	10.5
407.802	10.51
408.161	10.47
408.52	10.42
408.879	10.37
409.238	10.37
409.596	10.37
409.955	10.32
410.314	10.29
410.673	10.29
411.031	10.28
411.39	10.29
411.748	10.23
412.107	10.19
412.465	10.13
412.824	10.12
413.182	10.13
413.54	10.16
413.899	10.15
414.257	10.12
414.615	10.11
414.974	10.08
415.332	10.02
415.69	9.98
416.048	9.95
416.406	9.9
416.764	9.84
417.122	9.84
417.48	9.8
417.838	9.78
418.195	9.74
418.553	9.69
418.911	9.65
419.269	9.66
419.626	9.61
419.984	9.58
420.342	9.55
420.699	9.52
421.057	9.47
421.414	9.44
421.772	9.41
422.129	9.38
422.486	9.34
422.844	9.33
423.201	9.3
423.558	9.27
423.915	9.24
424.273	9.23
424.63	9.17
424.987	9.15
425.344	9.12
425.701	9.09
426.058	9.08
426.415	9.04
426.772	9
427.128	8.98
427.485	8.97
427.842	8.95
428.199	8.93
428.555	8.91
428.912	8.89
429.269	8.86
429.625	8.84
429.982	8.82
430.338	8.81
430.695	8.84
431.051	8.83
431.407	8.82
431.764	8.84
432.12	8.85
432.476	8.84
432.832	8.81
433.189	8.82
433.545	8.82
433.901	8.83
434.257	8.82
434.613	8.82
434.969	8.82
435.325	8.82
435.681	8.83
436.036	8.82
436.392	8.83
436.748	8.85
437.104	8.83
437.459	8.83
437.815	8.84
438.171	8.84
438.526	8.86
438.882	8.86
439.237	8.84
439.593	8.85
439.948	8.86
440.304	8.89
440.659	8.88
441.014	8.86
441.369	8.83
441.725	8.82
442.08	8.82
442.435	8.81
442.79	8.8
443.145	8.77
443.5	8.77
443.855	8.78
444.21	8.77
444.565	8.76
444.92	8.76
445.275	8.73
445.629	8.69
445.984	8.68
446.339	8.67
446.693	8.63
447.048	8.57
447.403	8.56
447.757	8.51
448.112	8.5
448.466	8.49
448.82	8.48
449.175	8.47
449.529	8.46
449.883	8.43
450.238	8.39
450.592	8.39
450.946	8.34
451.3	8.3
451.654	8.27
452.008	8.24
452.362	8.23
452.716	8.22
453.07	8.21
453.424	8.19
453.778	8.15
454.132	8.16
454.486	8.17
454.839	8.16
455.193	8.18
455.547	8.19
455.9	8.18
456.254	8.18
456.607	8.17
456.961	8.19
457.314	8.19
457.668	8.21
458.021	8.21
458.375	8.21
458.728	8.22
459.081	8.21
459.434	8.22
459.787	8.23
460.141	8.23
460.494	8.24
460.847	8.26
461.2	8.29
461.553	8.31
461.906	8.33
462.259	8.35
462.611	8.38
462.964	8.41
463.317	8.45
463.67	8.48
464.022	8.51
464.375	8.51
464.728	8.56
465.08	8.56
465.433	8.6
465.785	8.65
466.138	8.68
466.49	8.73
466.843	8.75
467.195	8.8
467.547	8.82
467.899	8.86
468.252	8.86
468.604	8.88
468.956	8.87
469.308	8.88
469.66	8.89
470.012	8.9
470.364	8.9
470.716	8.93
471.068	8.94
471.42	8.95
471.772	8.99
472.123	9.02
472.475	9.05
472.827	9.04
473.178	9.06
473.53	9.07
473.882	9.07
474.233	9.1
474.585	9.04
474.936	9.04
475.288	9.03
475.639	9.03
475.99	9.03
476.342	9.04
476.693	9.05
477.044	9.03
477.395	9.03
477.746	9.02
478.097	8.97
478.448	8.97
478.8	8.96
479.15	8.94
479.501	8.91
479.852	8.89
480.203	8.91
480.554	8.91
480.905	8.91
481.255	8.9
481.606	8.89
481.957	8.91
482.307	8.92
482.658	8.93
483.009	8.93
483.359	8.95
483.709	8.96
484.06	8.95
484.41	8.97
484.761	8.98
485.111	8.97
485.461	8.98
485.811	8.98
486.162	8.98
486.512	8.99
486.862	9.01
487.212	9.02
487.562	9.02
487.912	9.03
488.262	9.03
488.612	9.05
488.961	9.06
489.311	9.07
489.661	9.07
490.011	9.08
490.36	9.09
490.71	9.1
491.06	9.12
491.409	9.14
491.759	9.16
492.108	9.18
492.458	9.21
492.807	9.23
493.157	9.27
493.506	9.33
493.855	9.36
494.204	9.39
494.554	9.43
494.903	9.49
495.252	9.54
495.601	9.6
495.95	9.66
496.299	9.73
496.648	9.8
496.997	9.86
497.346	9.92
497.695	10.01
498.043	10.07
498.392	10.14
498.741	10.22
499.09	10.28
499.438	10.36
499.787	10.45
500.135	10.56
500.484	10.64
500.832	10.72
501.181	10.81
501.529	10.91
501.878	11.03
502.226	11.12
502.574	11.2
502.923	11.3
503.271	11.4
503.619	11.51
503.967	11.62
504.315	11.77
504.663	11.87
505.011	12
505.359	12.15
505.707	12.26
506.055	12.39
506.403	12.51
506.751	12.6
507.098	12.72
507.446	12.87
507.794	13.01
508.141	13.13
508.489	13.26
508.837	13.4
509.184	13.51
509.531	13.64
509.879	13.79
510.226	13.92
510.574	14.04
510.921	14.17
511.268	14.29
511.616	14.4
511.963	14.54
512.31	14.69
512.657	14.82
513.004	14.96
513.351	15.12
513.698	15.28
514.045	15.47
514.392	15.63
514.739	15.77
515.086	15.91
515.432	16.07
515.779	16.21
516.126	16.35
516.473	16.5
516.819	16.63
517.166	16.73
517.512	16.88
517.859	17.05
518.205	17.21
518.552	17.38
518.898	17.5
519.245	17.65
519.591	17.77
519.937	17.93
520.283	18.09
520.629	18.22
520.976	18.39
521.322	18.57
521.668	18.73
522.014	18.92
522.36	19.1
522.706	19.3
523.052	19.53
523.398	19.77
523.743	20
524.089	20.24
524.435	20.48
524.781	20.72
525.126	20.91
525.472	21.11
525.817	21.25
526.163	21.43
526.509	21.56
526.854	21.67
527.199	21.8
527.545	21.92
527.89	22.04
528.235	22.17
528.581	22.29
528.926	22.43
529.271	22.58
529.616	22.71
529.961	22.83
530.306	22.99
530.651	23.11
530.996	23.28
531.341	23.44
531.686	23.6
532.031	23.76
532.376	23.89
532.721	24.05
533.065	24.23
533.41	24.39
533.755	24.6
534.099	24.84
534.444	25.03
534.788	25.24
535.133	25.48
535.477	25.68
535.822	25.89
536.166	26.14
536.51	26.35
536.855	26.67
537.199	26.97
537.543	27.24
537.887	27.54
538.231	27.82
538.576	28.12
538.92	28.41
539.264	28.67
539.608	28.98
539.951	29.23
540.295	29.45
540.639	29.73
540.983	29.95
541.327	30.16
541.671	30.39
542.014	30.56
542.358	30.73
542.701	30.92
543.045	31.1
543.389	31.29
543.732	31.52
544.075	31.68
544.419	31.89
544.762	32.11
545.105	32.36
545.449	32.58
545.792	32.81
546.135	33.06
546.478	33.32
546.821	33.54
547.165	33.84
547.508	34.14
547.851	34.38
548.194	34.64
548.536	34.92
548.879	35.18
549.222	35.51
549.565	35.83
549.908	36.13
550.25	36.49
550.593	36.74
550.936	37.02
551.278	37.35
551.621	37.66
551.963	37.93
552.306	38.19
552.648	38.5
552.991	38.73
553.333	39
553.675	39.23
554.017	39.52
554.36	39.75
554.702	40
555.044	40.26
555.386	40.46
555.728	40.73
556.07	41.01
556.412	41.31
556.754	41.6
557.096	41.87
557.438	42.09
557.78	42.46
558.121	42.69
558.463	42.96
558.805	43.22
559.147	43.51
559.488	43.72
559.83	43.91
560.171	44.2
560.513	44.42
560.854	44.68
561.196	44.88
561.537	45.09
561.878	45.33
562.22	45.58
562.561	45.84
562.902	46.06
563.243	46.25
563.584	46.44
563.925	46.65
564.266	46.85
564.607	47.05
564.948	47.18
565.289	47.32
565.63	47.49
565.971	47.62
566.312	47.75
566.653	47.87
566.993	48.06
567.334	48.24
567.675	48.42
568.015	48.65
568.356	48.8
568.696	49
569.037	49.15
569.377	49.28
569.718	49.42
570.058	49.55
570.398	49.66
570.739	49.78
571.079	49.92
571.419	50.07
571.759	50.17
572.099	50.35
572.439	50.52
572.779	50.64
573.119	50.81
573.459	50.97
573.799	51.17
574.139	51.26
574.479	51.35
574.819	51.47
575.158	51.53
575.498	51.62
575.838	51.69
576.177	51.82
576.517	51.97
576.856	52.11
577.196	52.26
577.535	52.41
577.875	52.54
578.214	52.62
578.553	52.75
578.893	52.87
579.232	52.96
579.571	53.11
579.91	53.21
580.25	53.3
580.589	53.34
580.928	53.46
581.267	53.65
581.606	53.73
581.945	53.85
582.283	53.89
582.622	54.06
582.961	54.17
583.3	54.22
583.639	54.22
583.977	54.31
584.316	54.34
584.654	54.42
584.993	54.51
585.332	54.62
585.67	54.75
586.008	54.87
586.347	54.94
586.685	55.03
587.024	55.2
587.362	55.26
587.7	55.42
588.038	55.42
588.376	55.48
588.715	55.61
589.053	55.65
589.391	55.77
589.729	55.81
590.067	55.87
590.404	56
590.742	56.05
591.08	56.13
591.418	56.22
591.756	56.3
592.093	56.35
592.431	56.37
592.769	56.36
593.106	56.42
593.444	56.47
593.781	56.49
594.119	56.54
594.456	56.57
594.793	56.59
595.131	56.67
595.468	56.69
595.805	56.76
596.143	56.86
596.48	56.91
596.817	57
597.154	57.05
597.491	57
597.828	57.12
598.165	57.15
598.502	57.24
598.839	57.35
599.176	57.44
599.512	57.52
599.849	57.65
600.186	57.72
600.523	57.72
600.859	57.8
601.196	57.83
601.532	57.88
601.869	57.99
602.205	58.07
602.542	58.17
602.878	58.15
603.215	58.22
603.551	58.23
603.887	58.27
604.223	58.33
604.56	58.45
604.896	58.46
605.232	58.48
605.568	58.44
605.904	58.41
606.24	58.43
606.576	58.42
606.912	58.4
607.248	58.44
607.583	58.45
607.919	58.45
608.255	58.46
608.591	58.54
608.926	58.57
609.262	58.61
609.597	58.55
609.933	58.61
610.268	58.49
610.604	58.63
610.939	58.6
611.275	58.58
611.61	58.65
611.945	58.71
612.281	58.76
612.616	58.85
612.951	58.94
613.286	58.97
613.621	59.13
613.956	59.19
614.291	59.22
614.626	59.34
614.961	59.38
615.296	59.45
615.631	59.5
615.966	59.55
616.3	59.56
616.635	59.75
616.97	59.77
617.304	59.96
617.639	59.99
617.973	60.01
618.308	60.06
618.642	60.04
618.977	60.11
619.311	60.17
619.646	60.24
619.98	60.28
620.314	60.32
620.648	60.24
620.983	60.2
621.317	60.17
621.651	60.21
621.985	60.41
622.319	60.44
622.653	60.45
622.987	60.44
623.321	60.37
623.655	60.34
623.988	60.33
624.322	60.28
624.656	60.3
624.99	60.45
625.323	60.54
625.657	60.54
625.99	60.49
626.324	60.5
626.657	60.52
626.991	60.52
627.324	60.56
627.658	60.6
627.991	60.68
628.324	60.69
628.657	60.7
628.991	60.59
629.324	60.56
629.657	60.51
629.99	60.47
630.323	60.59
630.656	60.55
630.989	60.61
631.322	60.64
631.655	60.58
631.987	60.52
632.32	60.45
632.653	60.42
632.986	60.48
633.318	60.52
633.651	60.46
633.984	60.42
634.316	60.39
634.649	60.44
634.981	60.38
635.313	60.44
635.646	60.44
635.978	60.44
636.31	60.48
636.643	60.53
636.975	60.55
637.307	60.56
637.639	60.61
637.971	60.66
638.303	60.66
638.635	60.73
638.967	60.76
639.299	60.8
639.631	60.84
639.963	60.77
640.295	60.74
640.626	60.77
640.958	60.81
641.29	60.82
641.621	60.8
641.953	60.94
642.285	60.97
642.616	61.07
642.948	61.14
643.279	61.1
643.61	61.16
643.942	61.08
644.273	61.08
644.604	61.05
644.936	61.06
645.267	61.05
645.598	61.03
645.929	61.02
646.26	61
646.591	61.16
646.922	61.19
647.253	61.3
647.584	61.39
647.915	61.38
648.245	61.54
648.576	61.48
648.907	61.43
649.238	61.4
649.568	61.33
649.899	61.31
650.229	61.28
650.56	61.25
650.89	61.39
651.221	61.33
651.551	61.31
651.882	61.22
652.212	61.28
652.542	61.32
652.872	61.22
653.203	61.28
653.533	61.24
653.863	61.21
654.193	61.05
654.523	61
654.853	60.96
655.183	60.87
655.513	60.89
655.843	60.97
656.172	61
656.502	61.07
656.832	61.17
657.162	61.34
657.491	61.31
657.821	61.26
658.15	61.37
658.48	61.35
658.809	61.39
659.139	61.33
659.468	61.28
659.798	61.41
660.127	61.44
660.456	61.39
660.785	61.5
661.115	61.49
661.444	61.45
661.773	61.63
662.102	61.56
662.431	61.6
662.76	61.55
663.089	61.64
663.418	61.68
663.747	61.55
664.076	61.43
664.404	61.47
664.733	61.57
665.062	61.52
665.39	61.61
665.719	61.51
666.048	61.65
666.376	61.67
666.705	61.56
667.033	61.49
667.362	61.59
667.69	61.49
668.018	61.56
668.347	61.56
668.675	61.45
669.003	61.52
669.331	61.55
669.659	61.55
669.987	61.47
670.315	61.41
670.643	61.45
670.971	61.49
671.299	61.4
671.627	61.44
671.955	61.37
672.283	61.5
672.61	61.58
672.938	61.53
673.266	61.59
673.593	61.61
673.921	61.72
674.249	61.76
674.576	61.85
674.904	61.93
675.231	61.96
675.558	61.93
675.886	62.06
676.213	61.97
676.54	61.92
676.867	61.94
677.195	61.92
677.522	62
677.849	62.1
678.176	62.06
678.503	62.09
678.83	62.1
679.157	61.98
679.484	62.02
679.81	62.05
680.137	62.03
680.464	62.06
680.791	62.02
681.117	61.9
681.444	61.86
681.771	61.79
682.097	61.74
682.424	61.72
682.75	61.67
683.077	61.8
683.403	61.85
683.729	61.87
684.056	61.97
684.382	61.84
684.708	61.77
685.034	61.86
685.36	61.84
685.686	61.92
686.012	61.94
686.339	61.96
686.664	62.05
686.99	62.09
687.316	61.99
687.642	61.94
687.968	61.99
688.294	62.11
688.619	62.24
688.945	62.31
689.271	62.41
689.596	62.4
689.922	62.41
690.247	62.39
690.573	62.25
690.898	62.12
691.224	62.24
691.549	62.23
691.874	62.24
692.2	62.08
692.525	62.08
692.85	62.07
693.175	62
693.5	61.98
693.825	61.85
694.15	62.06
694.475	62.08
694.8	62.02
695.125	61.83
695.45	61.88
695.775	61.97
696.099	62.07
696.424	62.04
696.749	62.05
697.073	62.06
697.398	62.21
697.723	62.36
698.047	62.26
698.372	62.26
698.696	62.18
699.02	62.32
699.345	62.31
699.669	62.35
699.993	62.38
700.318	62.28
700.642	62.34
700.966	62.19
701.29	62.25
701.614	62.33
701.938	62.53
702.262	62.5
702.586	62.46
702.91	62.35
703.234	62.44
703.557	62.37
703.881	62.5
704.205	62.58
704.529	62.51
704.852	62.67
705.176	62.62
705.499	62.88
705.823	62.68
706.146	62.56
706.47	62.51
706.793	62.72
707.117	62.73
707.44	62.73
707.763	62.72
708.086	62.61
708.409	62.58
708.733	62.62
709.056	62.49
709.379	62.44
709.702	62.45
710.025	62.32
710.348	62.49
710.671	62.31
710.993	62.4
711.316	62.41
711.639	62.35
711.962	62.38
712.284	62.25
712.607	62.52
712.93	62.68
713.252	62.48
713.575	62.37
713.897	62.45
714.22	62.47
714.542	62.69
714.864	62.78
715.187	62.57
715.509	62.35
715.831	62.31
716.153	62.41
716.475	62.53
716.798	62.42
717.12	62.24
717.442	62.5
717.764	62.4
718.085	62.25
718.407	62.22
718.729	62.23
719.051	62.23
719.373	62
719.695	61.95
720.016	62.32
720.338	62.23
720.659	62.13
720.981	62.13
721.302	62.14
721.624	62.06
721.945	62.24
722.267	62.56
722.588	62.69
722.909	62.76
723.231	62.6
723.552	62.81
723.873	62.89
724.194	62.64
724.515	62.57
724.836	62.69
725.157	62.59
725.478	62.8
725.799	62.95
726.12	63.06
726.441	63.05
726.762	62.84
727.083	62.77
727.403	62.64
727.724	62.71
728.045	62.66
728.365	62.69
728.686	62.79
729.006	62.69
729.327	62.58
729.647	62.59
729.967	62.63
730.288	62.78
730.608	62.73
730.928	62.91
731.249	62.89
731.569	63.04
731.889	63.24
732.209	63.03
732.529	63.09
732.849	63.24
733.169	63.09
733.489	63.19
733.809	63.32
734.129	63.43
734.448	63.44
734.768	63.21
735.088	63.28
735.408	63.15
735.727	63.22
736.047	63.39
736.366	63.33
736.686	63.37
737.005	63.16
737.325	63.22
737.644	62.99
737.963	62.78
738.283	62.52
738.602	62.48
738.921	62.43
739.24	62.23
739.56	62.18
739.879	62.39
740.198	62.48
740.517	62.45
740.836	62.53
741.155	62.32
741.473	62.53
741.792	62.56
742.111	62.77
742.43	62.75
742.748	62.49
743.067	62.74
743.386	62.68
743.704	62.9
744.023	62.9
744.341	62.76
744.66	63.16
744.978	63.36
745.297	63.34
745.615	63.93
745.933	63.95
746.252	63.93
746.57	63.62
746.888	63.31
747.206	63.14
747.524	63.17
747.842	63.26
748.16	63.16
748.478	63.15
748.796	62.93
749.114	62.85
749.432	62.92
749.749	62.45
750.067	62.41
750.385	62.31
750.703	62.35
751.02	62.45
751.338	62.57
751.655	62.5
751.973	62.34
752.29	61.67
752.608	61.69
752.925	61.54
753.242	61.86
753.56	62
753.877	62.11
754.194	61.95
754.511	61.9
754.828	62.03
755.145	61.83
755.462	61.84
755.779	61.7
756.096	61.71
756.413	61.58
756.73	61.57
757.047	61.5
757.364	61.58
757.68	61.66
757.997	61.37
758.314	61.17
758.63	61.58
758.947	61.65
759.264	61.57
759.58	61.63
759.896	61.71
760.213	61.77
760.529	61.83
760.846	61.96
761.162	62.03
761.478	62
761.794	62.1
762.11	62.08
762.426	62.23
762.743	62.33
763.059	62.7
763.375	62.81
763.69	62.96
764.006	62.89
764.322	63.03
764.638	63
764.954	63.3
765.27	62.83
765.585	62.98
765.901	63.08
766.216	63.01
766.532	63.05
766.848	62.91
767.163	62.93
767.478	63.17
767.794	62.98
768.109	62.86
768.424	62.94
768.74	63.2
769.055	62.98
769.37	62.91
769.685	62.84
770	62.96
770.315	62.88
770.63	62.99
770.945	63.08
771.26	63.14
771.575	63.01
771.89	63.92
772.205	63.66
772.52	63.58
772.834	63.63
773.149	63.81
773.464	63.99
773.778	64.22
774.093	63.79
774.407	63.87
774.722	64.38
775.036	64.04
775.351	63.85
775.665	64.16
775.979	64.18
776.293	64.06
776.608	63.71
776.922	63.57
777.236	63.65
777.55	63.23
777.864	63.31
778.178	63.46
778.492	62.92
778.806	63.29
779.12	63.34
779.434	63.79
779.747	63.66
780.061	63.73
780.375	63.66
780.689	63.61
781.002	63.98
781.316	63.69
781.629	64.14
781.943	64.64
782.256	64.87
782.57	64.98
782.883	65.26
783.196	65.55
783.51	65.36
783.823	64.72
784.136	65.11
784.449	65.33
784.762	65.1
785.075	65.41
785.388	65.1
785.701	65.48
786.014	65.17
786.327	65.06
786.64	65.39
786.953	65.22
787.266	65.13
787.578	65.18
787.891	65.18
788.204	64.96
788.516	64.86
788.829	64.6
789.141	64.57
789.454	64.8
789.766	64.93
790.079	65.56
790.391	66
790.703	65.31
791.016	64.68
791.328	64.6
791.64	64.27
791.952	64.12
792.264	64.1
792.576	63.89
792.888	63.9
793.2	63.8
793.512	63.81
793.824	64.01
794.136	63.73
794.448	64.25
794.76	63.84
795.071	63.98
795.383	63.86
795.695	63.53
796.006	63.14
796.318	63.11
796.629	62.85
796.941	62.88
797.252	62.94
797.564	64.11
797.875	64.17
798.186	64.13
798.497	64.53
798.809	64.53
799.12	64.92
799.431	64.67
799.742	64.55
800.053	64.93
800.364	64.9
800.675	64.83
800.986	64.41
801.297	64.88
801.608	64.17
801.918	64.21
802.229	64.54
802.54	64.13
802.851	63.76
803.161	64.06
803.472	64.12
803.782	64.86
804.093	64.45
804.403	64.52
804.714	64.67
805.024	64.5
805.334	64.76
805.645	65.17
805.955	65.37
806.265	65.2
806.575	65.03
806.885	65.2
807.195	65.07
807.505	65.05
807.815	65.3
808.125	65.74
808.435	66.01
808.745	66.05
809.055	67.01
809.365	66.23
809.674	65.6
809.984	65.29
810.294	65.26
810.603	64.77
810.913	64.87
811.222	65.11
811.532	65.13
811.841	65.34
812.151	64.7
812.46	64.57
812.769	64.33
813.079	64.38
813.388	64.71
813.697	65.35
814.006	64.53
814.315	64.52
814.624	64.05
814.933	63.36
815.242	63.07
815.551	62.57
815.86	63.77
816.169	63.82
816.478	63.97
816.786	63.86
817.095	63.51
817.404	63.67
817.712	63.51
818.021	63.78
818.33	63.58
818.638	63.55
818.947	63.96
819.255	64.09
819.563	63.76
819.872	63.36
820.18	63.83
820.488	64.3
820.796	64.01
821.105	64.1
821.413	64.38
821.721	64.51
822.029	64.65
822.337	64.78
822.645	65.09
822.953	64.99
823.26	65.02
823.568	64.94
823.876	64.75
824.184	64.79
824.491	64.58
824.799	64.55
825.107	64.53
825.414	64.55
825.722	64.64
826.029	64.91
826.337	64.85
826.644	64.58
826.951	64.47
827.259	64.58
827.566	64.52
827.873	64.5
828.18	64.43
828.488	64.22
828.795	64.27
829.102	63.69
829.409	63.89
829.716	63.77
830.023	63.93
830.329	64.17
830.636	64.21
830.943	64.54
831.25	64.09
831.557	64.42
831.863	63.84
832.17	63.93
832.476	63.54
832.783	63.9
833.089	63.8
833.396	64.21
833.702	64.91
834.009	64.96
834.315	64.79
834.621	64.72
834.928	64.83
835.234	64.43
835.54	64.51
835.846	64.54
836.152	64.2
836.458	64.14
836.764	64.41
837.07	63.8
837.376	63.91
837.682	64.43
837.988	64.28
838.293	64.72
838.599	64.43
838.905	64.4
839.211	63.78
839.516	64.26
839.822	64.44
840.127	63.3
840.433	63.79
840.738	63.63
841.044	64.87
841.349	64.82
841.654	65.01
841.959	65.26
842.265	65.25
842.57	65.05
842.875	66.29
843.18	65.38
843.485	66.33
843.79	65.92
844.095	65.35
844.4	64.98
844.705	65.14
845.01	65.58
845.315	64.75
845.619	66.18
845.924	65.21
846.229	63.4
846.533	63.82
846.838	63.73
847.142	63.62
847.447	62.17
847.751	63.39
848.056	62.36
848.36	63.79
848.664	64.53
848.969	66.14
849.273	66.99
849.577	69
849.881	69.11
850.185	70.77
850.489	71.25
850.794	71.11
851.097	70.06
851.401	69.22
851.705	70.25
852.009	71.45
852.313	71.07
852.617	71.42
852.92	71.24
853.224	71.82
853.528	72.37
853.831	73.02
854.135	72.52
854.438	73.88
854.742	71.96
855.045	70.63
855.349	69.36
855.652	67.75
855.955	65.8
856.259	66.19
856.562	63.9
856.865	64.33
857.168	64.01
857.471	64.63
857.774	66.75
858.077	66.03
858.38	64.84
858.683	65.51
858.986	66.35
859.289	68.18
859.592	67.97
859.894	68.18
860.197	68.15
860.5	66.3
860.802	65.55
861.105	66.73
861.407	64.86
861.71	66.06
862.012	63.76
862.315	62.79
862.617	61.97
862.919	62.33
863.222	60.41
863.524	61.57
863.826	62.6
864.128	60.63
864.43	61.18
864.732	61.25
865.034	63.51
865.336	63.3
865.638	58.92
865.94	57.56
866.242	57.92
866.544	56.11
866.846	56.44
867.147	57.11
867.449	53.27
867.751	55.83
868.052	55.59
868.354	57.44
868.655	59.98
868.957	59.09
869.258	58.07
869.56	60.07
869.861	59.53
870.162	59.01
870.463	56.31
870.765	57.54
871.066	56.64
871.367	54.51
871.668	54.17
871.969	59.18
872.27	58.82
872.571	57.51
872.872	59.78
873.173	59.45
873.473	60
873.774	66.41
874.075	64.97
874.376	63.92
874.676	63.74
874.977	61.61
875.277	63.42
875.578	65.42
875.878	64.76
876.179	64.43
876.479	64.1
876.78	67.21
877.08	66.05
877.38	66.46
877.68	68.51
877.981	69.17
878.281	65.79
878.581	67.46
