Data from BA28300_Reflection_00004.txt Node
Date: Mon Nov 18 15:58:06 EST 2019
User: vgr7
Spectrometer: USB2G7710
Scans to average: 3
Trigger mode: 4
Integration Time (sec): 2.000000E-2
Electric dark correction enabled: true
Boxcar width: 10
XAxis mode: Wavelengths
Number of Pixels in Spectrum: 2048
>>>>>Begin Spectral Data<<<<<
177.721	-474.41
178.105	-1900
178.488	399.13
178.871	197.72
179.254	404.5
179.636	-106.19
180.019	-95.39
180.402	55.56
180.785	98.22
181.168	230.9
181.55	445.86
181.933	172.35
182.316	151.74
182.698	90.14
183.081	102.27
183.463	137.92
183.846	166.29
184.228	161.24
184.611	346.98
184.993	-3167.61
185.376	-13547.06
185.758	801.11
186.14	778.2
186.522	432.64
186.904	391.58
187.287	787.26
187.669	-206.53
188.051	-1171.03
188.433	1667.57
188.815	-39.29
189.197	-4.13
189.579	-35.25
189.961	-182.96
190.342	-76.21
190.724	57.51
191.106	-30.37
191.488	5.02
191.869	60.5
192.251	-61.56
192.633	-13.71
193.014	216.62
193.396	183.94
193.777	-554.8
194.159	1288.57
194.54	-12488.24
194.922	1216.02
195.303	-3113.48
195.684	-3674.65
196.065	-348.83
196.447	-309.15
196.828	-626.69
197.209	-254.69
197.59	-492.38
197.971	-423.08
198.352	-174.45
198.733	-290.11
199.114	-233.59
199.495	-238.95
199.876	-169.3
200.257	-139.4
200.638	-124.52
201.018	-84.59
201.399	-63.91
201.78	-52.05
202.16	-9.21
202.541	-67.97
202.922	-175.08
203.302	-268.31
203.683	-296.44
204.063	-166.97
204.444	-95.56
204.824	-137.76
205.204	-279.62
205.585	-149.81
205.965	-40.58
206.345	-36.41
206.725	62.35
207.106	-185.71
207.486	-291.93
207.866	-1321.69
208.246	-152.68
208.626	-102.46
209.006	-66.79
209.386	-108.29
209.766	-123.34
210.145	-101.42
210.525	-77.12
210.905	-40.55
211.285	-48.3
211.664	-47.82
212.044	-72.88
212.424	-74.85
212.803	-79.55
213.183	-51.01
213.562	-73.18
213.942	-94.69
214.321	-75.91
214.701	-85.74
215.08	-58.72
215.459	-52.47
215.838	-52.13
216.218	-71.4
216.597	-53.85
216.976	-51.72
217.355	-45.6
217.734	-59.32
218.113	-53.45
218.492	-37.97
218.871	-45.89
219.25	-43
219.629	-43.54
220.008	-47.79
220.387	-46.35
220.766	-41.49
221.144	-54.72
221.523	-55.47
221.902	-59.04
222.28	-64.62
222.659	-50.65
223.037	-48.8
223.416	-53.53
223.794	-57.17
224.173	-56.18
224.551	-47.02
224.929	-44.27
225.308	-36.61
225.686	-32.01
226.064	-32.87
226.442	-33.52
226.821	-22.66
227.199	-18.85
227.577	-16.63
227.955	-15.4
228.333	-14.31
228.711	-13.4
229.089	-7.21
229.467	-8.37
229.845	-9.11
230.222	-9.27
230.6	-12.16
230.978	-12.21
231.356	-8.17
231.733	-5.88
232.111	0.12
232.488	-2.05
232.866	-3.77
233.243	-2.98
233.621	-2.63
233.998	-3.87
234.376	-5.17
234.753	-6.53
235.13	-6.07
235.508	-5.2
235.885	-5.57
236.262	-5.92
236.639	-4.63
237.016	-4
237.393	-0.36
237.77	1.2
238.147	1.4
238.524	1.68
238.901	2.02
239.278	2.66
239.655	2.8
240.032	1.49
240.409	1.93
240.785	2.59
241.162	3.06
241.539	3.27
241.915	4.15
242.292	4.53
242.668	4.39
243.045	4.68
243.421	4.57
243.798	4.8
244.174	4.76
244.551	4.67
244.927	4.41
245.303	4.26
245.679	4
246.056	4.12
246.432	4.27
246.808	4.5
247.184	4.28
247.56	4.08
247.936	4.1
248.312	4.01
248.688	4.07
249.064	4.03
249.44	4.18
249.815	4.07
250.191	4.06
250.567	4.3
250.943	4.01
251.318	4
251.694	3.84
252.069	3.61
252.445	3.51
252.82	3.53
253.196	3.43
253.571	3.88
253.947	4.08
254.322	4.12
254.697	4.06
255.073	3.91
255.448	3.83
255.823	3.87
256.198	3.94
256.573	3.87
256.948	3.6
257.323	3.47
257.698	3.35
258.073	3.45
258.448	3.31
258.823	3.4
259.198	3.29
259.573	3.45
259.948	3.32
260.322	3.32
260.697	3.37
261.072	3.16
261.446	3.01
261.821	2.87
262.195	2.89
262.57	2.86
262.944	2.89
263.319	3.09
263.693	3.09
264.067	3.24
264.442	3.18
264.816	3.23
265.19	3.1
265.564	3.04
265.938	2.69
266.313	2.59
266.687	2.48
267.061	2.54
267.435	2.75
267.809	2.86
268.183	2.84
268.556	2.54
268.93	2.76
269.304	2.82
269.678	2.92
270.051	2.81
270.425	2.74
270.799	2.77
271.172	2.59
271.546	2.5
271.919	2.2
272.293	2.15
272.666	2.31
273.04	2.37
273.413	2.47
273.787	2.65
274.16	2.62
274.533	2.82
274.906	2.69
275.279	2.5
275.653	2.71
276.026	2.67
276.399	2.95
276.772	2.89
277.145	2.78
277.518	2.74
277.891	2.78
278.263	2.85
278.636	2.89
279.009	2.86
279.382	3.01
279.755	3.09
280.127	3.34
280.5	3.34
280.872	3.48
281.245	3.3
281.617	3.42
281.99	3.6
282.362	3.57
282.735	3.66
283.107	3.55
283.479	3.38
283.852	3.41
284.224	3.39
284.596	3.43
284.968	3.54
285.34	3.57
285.713	3.61
286.085	3.53
286.457	3.6
286.829	3.75
287.201	3.82
287.572	3.79
287.944	3.64
288.316	3.56
288.688	3.47
289.06	3.56
289.431	3.48
289.803	3.38
290.175	3.33
290.546	3.49
290.918	3.67
291.289	3.79
291.661	3.71
292.032	3.76
292.403	3.82
292.775	3.9
293.146	3.82
293.517	3.82
293.889	4.01
294.26	4.08
294.631	4.01
295.002	3.82
295.373	3.85
295.744	3.97
296.115	4.11
296.486	4
296.857	3.97
297.228	3.95
297.599	3.94
297.97	3.91
298.34	3.87
298.711	3.83
299.082	3.89
299.452	3.98
299.823	4.05
300.194	3.87
300.564	3.75
300.935	3.82
301.305	3.76
301.676	3.67
302.046	3.5
302.416	3.44
302.787	3.46
303.157	3.48
303.527	3.45
303.897	3.35
304.267	3.5
304.637	3.61
305.008	3.61
305.378	3.58
305.748	3.55
306.117	3.53
306.487	3.54
306.857	3.44
307.227	3.54
307.597	3.32
307.967	3.43
308.336	3.39
308.706	3.3
309.076	3.39
309.445	3.3
309.815	3.19
310.184	3.18
310.554	3.32
310.923	3.32
311.293	3.32
311.662	3.21
312.031	3.2
312.401	3.17
312.77	3.31
313.139	3.49
313.508	3.63
313.877	3.61
314.246	3.64
314.616	3.63
314.985	3.63
315.353	3.75
315.722	3.83
316.091	3.78
316.46	3.78
316.829	3.66
317.198	3.77
317.567	3.82
317.935	3.81
318.304	3.86
318.672	3.91
319.041	3.87
319.41	3.94
319.778	3.9
320.147	3.87
320.515	3.65
320.883	3.37
321.252	3.34
321.62	3.24
321.988	3.11
322.357	2.97
322.725	2.91
323.093	2.91
323.461	2.96
323.829	3.11
324.197	3.09
324.565	3.18
324.933	3.18
325.301	3.31
325.669	3.45
326.037	3.42
326.405	3.36
326.772	3.4
327.14	3.52
327.508	3.54
327.875	3.44
328.243	3.5
328.61	3.65
328.978	3.63
329.346	3.59
329.713	3.48
330.08	3.64
330.448	3.63
330.815	3.56
331.182	3.44
331.55	3.42
331.917	3.56
332.284	3.65
332.651	3.51
333.018	3.55
333.385	3.36
333.752	3.29
334.119	3.31
334.486	3.24
334.853	3.02
335.22	3.01
335.587	3.14
335.954	3.17
336.32	3.12
336.687	3.08
337.054	3.21
337.42	3.42
337.787	3.36
338.153	3.35
338.52	3.41
338.886	3.35
339.253	3.25
339.619	3.16
339.986	3.04
340.352	3.26
340.718	3.17
341.084	3.27
341.451	3.38
341.817	3.41
342.183	3.51
342.549	3.56
342.915	3.63
343.281	3.63
343.647	3.6
344.013	3.66
344.379	3.69
344.745	3.61
345.11	3.59
345.476	3.58
345.842	3.58
346.208	3.44
346.573	3.56
346.939	3.68
347.304	3.65
347.67	3.64
348.035	3.55
348.401	3.61
348.766	3.66
349.132	3.59
349.497	3.57
349.862	3.54
350.228	3.56
350.593	3.5
350.958	3.54
351.323	3.49
351.688	3.48
352.053	3.51
352.418	3.58
352.783	3.56
353.148	3.57
353.513	3.62
353.878	3.74
354.243	3.77
354.608	3.83
354.972	3.85
355.337	3.92
355.702	4.02
356.066	4.01
356.431	3.98
356.795	3.99
357.16	4
357.524	3.94
357.889	4.01
358.253	3.96
358.618	3.97
358.982	4.01
359.346	3.89
359.71	3.81
360.075	3.78
360.439	3.84
360.803	3.86
361.167	3.8
361.531	3.76
361.895	3.72
362.259	3.65
362.623	3.69
362.987	3.68
363.351	3.59
363.714	3.53
364.078	3.55
364.442	3.53
364.806	3.51
365.169	3.61
365.533	3.57
365.896	3.64
366.26	3.63
366.623	3.61
366.987	3.76
367.35	3.76
367.714	3.79
368.077	3.68
368.44	3.68
368.803	3.75
369.167	3.75
369.53	3.75
369.893	3.78
370.256	3.8
370.619	3.8
370.982	3.81
371.345	3.88
371.708	3.87
372.071	3.88
372.434	3.86
372.797	3.78
373.159	3.79
373.522	3.8
373.885	3.79
374.247	3.84
374.61	3.8
374.973	3.83
375.335	3.79
375.698	3.86
376.06	3.84
376.423	3.8
376.785	3.85
377.147	3.85
377.51	3.84
377.872	3.84
378.234	3.78
378.596	3.82
378.958	3.79
379.321	3.8
379.683	3.83
380.045	3.87
380.407	3.81
380.769	3.79
381.13	3.73
381.492	3.7
381.854	3.72
382.216	3.72
382.578	3.7
382.939	3.7
383.301	3.64
383.663	3.62
384.024	3.66
384.386	3.63
384.747	3.64
385.109	3.68
385.47	3.66
385.832	3.69
386.193	3.65
386.554	3.61
386.916	3.54
387.277	3.52
387.638	3.48
387.999	3.54
388.36	3.51
388.721	3.54
389.082	3.55
389.443	3.49
389.804	3.49
390.165	3.47
390.526	3.48
390.887	3.49
391.248	3.53
391.609	3.51
391.969	3.52
392.33	3.51
392.691	3.48
393.051	3.49
393.412	3.51
393.772	3.5
394.133	3.54
394.493	3.58
394.854	3.55
395.214	3.54
395.574	3.54
395.935	3.57
396.295	3.57
396.655	3.56
397.015	3.53
397.376	3.54
397.736	3.61
398.096	3.61
398.456	3.61
398.816	3.61
399.176	3.58
399.535	3.57
399.895	3.54
400.255	3.52
400.615	3.49
400.975	3.48
401.334	3.48
401.694	3.47
402.054	3.46
402.413	3.48
402.773	3.51
403.132	3.52
403.492	3.5
403.851	3.53
404.211	3.54
404.57	3.57
404.929	3.55
405.288	3.5
405.648	3.49
406.007	3.48
406.366	3.47
406.725	3.52
407.084	3.54
407.443	3.56
407.802	3.58
408.161	3.6
408.52	3.56
408.879	3.56
409.238	3.58
409.596	3.58
409.955	3.58
410.314	3.58
410.673	3.54
411.031	3.54
411.39	3.5
411.748	3.52
412.107	3.5
412.465	3.47
412.824	3.49
413.182	3.47
413.54	3.5
413.899	3.51
414.257	3.5
414.615	3.47
414.974	3.48
415.332	3.47
415.69	3.46
416.048	3.44
416.406	3.43
416.764	3.4
417.122	3.41
417.48	3.41
417.838	3.42
418.195	3.42
418.553	3.43
418.911	3.42
419.269	3.41
419.626	3.42
419.984	3.42
420.342	3.41
420.699	3.41
421.057	3.4
421.414	3.38
421.772	3.37
422.129	3.37
422.486	3.36
422.844	3.35
423.201	3.34
423.558	3.37
423.915	3.36
424.273	3.38
424.63	3.37
424.987	3.36
425.344	3.36
425.701	3.35
426.058	3.34
426.415	3.34
426.772	3.33
427.128	3.32
427.485	3.34
427.842	3.35
428.199	3.35
428.555	3.34
428.912	3.35
429.269	3.35
429.625	3.35
429.982	3.35
430.338	3.37
430.695	3.38
431.051	3.37
431.407	3.39
431.764	3.35
432.12	3.34
432.476	3.34
432.832	3.34
433.189	3.36
433.545	3.35
433.901	3.36
434.257	3.36
434.613	3.37
434.969	3.36
435.325	3.33
435.681	3.32
436.036	3.34
436.392	3.34
436.748	3.34
437.104	3.34
437.459	3.32
437.815	3.31
438.171	3.29
438.526	3.3
438.882	3.29
439.237	3.31
439.593	3.32
439.948	3.32
440.304	3.31
440.659	3.29
441.014	3.3
441.369	3.27
441.725	3.26
442.08	3.26
442.435	3.26
442.79	3.27
443.145	3.28
443.5	3.26
443.855	3.28
444.21	3.28
444.565	3.28
444.92	3.3
445.275	3.28
445.629	3.29
445.984	3.28
446.339	3.27
446.693	3.27
447.048	3.26
447.403	3.23
447.757	3.24
448.112	3.25
448.466	3.25
448.82	3.26
449.175	3.27
449.529	3.25
449.883	3.25
450.238	3.23
450.592	3.23
450.946	3.23
451.3	3.21
451.654	3.19
452.008	3.19
452.362	3.18
452.716	3.2
453.07	3.2
453.424	3.2
453.778	3.21
454.132	3.2
454.486	3.19
454.839	3.19
455.193	3.17
455.547	3.17
455.9	3.17
456.254	3.18
456.607	3.18
456.961	3.19
457.314	3.2
457.668	3.2
458.021	3.19
458.375	3.18
458.728	3.18
459.081	3.18
459.434	3.18
459.787	3.19
460.141	3.18
460.494	3.18
460.847	3.2
461.2	3.2
461.553	3.22
461.906	3.22
462.259	3.24
462.611	3.26
462.964	3.27
463.317	3.26
463.67	3.27
464.022	3.26
464.375	3.25
464.728	3.24
465.08	3.25
465.433	3.26
465.785	3.27
466.138	3.27
466.49	3.27
466.843	3.26
467.195	3.25
467.547	3.27
467.899	3.27
468.252	3.26
468.604	3.27
468.956	3.24
469.308	3.26
469.66	3.26
470.012	3.27
470.364	3.26
470.716	3.27
471.068	3.29
471.42	3.32
471.772	3.34
472.123	3.37
472.475	3.37
472.827	3.38
473.178	3.41
473.53	3.4
473.882	3.4
474.233	3.42
474.585	3.41
474.936	3.42
475.288	3.42
475.639	3.43
475.99	3.43
476.342	3.44
476.693	3.44
477.044	3.46
477.395	3.42
477.746	3.43
478.097	3.43
478.448	3.4
478.8	3.38
479.15	3.37
479.501	3.36
479.852	3.36
480.203	3.36
480.554	3.35
480.905	3.36
481.255	3.38
481.606	3.39
481.957	3.39
482.307	3.39
482.658	3.39
483.009	3.39
483.359	3.39
483.709	3.4
484.06	3.4
484.41	3.41
484.761	3.41
485.111	3.41
485.461	3.41
485.811	3.41
486.162	3.41
486.512	3.42
486.862	3.43
487.212	3.42
487.562	3.43
487.912	3.43
488.262	3.44
488.612	3.42
488.961	3.42
489.311	3.42
489.661	3.42
490.011	3.42
490.36	3.43
490.71	3.43
491.06	3.42
491.409	3.41
491.759	3.4
492.108	3.41
492.458	3.4
492.807	3.41
493.157	3.42
493.506	3.43
493.855	3.44
494.204	3.42
494.554	3.44
494.903	3.41
495.252	3.42
495.601	3.44
495.95	3.45
496.299	3.46
496.648	3.45
496.997	3.45
497.346	3.47
497.695	3.48
498.043	3.48
498.392	3.48
498.741	3.48
499.09	3.5
499.438	3.52
499.787	3.55
500.135	3.57
500.484	3.58
500.832	3.6
501.181	3.59
501.529	3.61
501.878	3.64
502.226	3.68
502.574	3.69
502.923	3.67
503.271	3.68
503.619	3.7
503.967	3.72
504.315	3.74
504.663	3.74
505.011	3.75
505.359	3.77
505.707	3.79
506.055	3.79
506.403	3.79
506.751	3.81
507.098	3.82
507.446	3.84
507.794	3.82
508.141	3.81
508.489	3.83
508.837	3.84
509.184	3.83
509.531	3.84
509.879	3.86
510.226	3.9
510.574	3.89
510.921	3.91
511.268	3.92
511.616	3.93
511.963	3.95
512.31	3.96
512.657	3.96
513.004	3.96
513.351	3.97
513.698	3.98
514.045	3.99
514.392	3.98
514.739	3.97
515.086	3.99
515.432	4.01
515.779	4.01
516.126	4.04
516.473	4.06
516.819	4.06
517.166	4.05
517.512	4.04
517.859	4.06
518.205	4.05
518.552	4.05
518.898	4.05
519.245	4.05
519.591	4.05
519.937	4.05
520.283	4.07
520.629	4.1
520.976	4.09
521.322	4.08
521.668	4.08
522.014	4.08
522.36	4.09
522.706	4.07
523.052	4.08
523.398	4.09
523.743	4.09
524.089	4.1
524.435	4.12
524.781	4.13
525.126	4.14
525.472	4.16
525.817	4.17
526.163	4.18
526.509	4.19
526.854	4.19
527.199	4.22
527.545	4.21
527.89	4.21
528.235	4.22
528.581	4.24
528.926	4.25
529.271	4.26
529.616	4.27
529.961	4.28
530.306	4.29
530.651	4.29
530.996	4.3
531.341	4.3
531.686	4.29
532.031	4.3
532.376	4.31
532.721	4.31
533.065	4.31
533.41	4.3
533.755	4.3
534.099	4.31
534.444	4.32
534.788	4.34
535.133	4.33
535.477	4.33
535.822	4.31
536.166	4.3
536.51	4.3
536.855	4.3
537.199	4.3
537.543	4.3
537.887	4.31
538.231	4.31
538.576	4.33
538.92	4.33
539.264	4.33
539.608	4.35
539.951	4.35
540.295	4.35
540.639	4.37
540.983	4.36
541.327	4.34
541.671	4.33
542.014	4.32
542.358	4.33
542.701	4.33
543.045	4.35
543.389	4.36
543.732	4.37
544.075	4.38
544.419	4.37
544.762	4.38
545.105	4.39
545.449	4.39
545.792	4.38
546.135	4.4
546.478	4.4
546.821	4.38
547.165	4.38
547.508	4.38
547.851	4.38
548.194	4.38
548.536	4.38
548.879	4.39
549.222	4.41
549.565	4.41
549.908	4.41
550.25	4.45
550.593	4.45
550.936	4.42
551.278	4.39
551.621	4.4
551.963	4.39
552.306	4.37
552.648	4.36
552.991	4.38
553.333	4.35
553.675	4.35
554.017	4.38
554.36	4.37
554.702	4.37
555.044	4.39
555.386	4.42
555.728	4.43
556.07	4.45
556.412	4.41
556.754	4.4
557.096	4.4
557.438	4.37
557.78	4.36
558.121	4.41
558.463	4.45
558.805	4.46
559.147	4.45
559.488	4.47
559.83	4.5
560.171	4.48
560.513	4.48
560.854	4.51
561.196	4.52
561.537	4.52
561.878	4.52
562.22	4.53
562.561	4.5
562.902	4.52
563.243	4.51
563.584	4.54
563.925	4.55
564.266	4.54
564.607	4.56
564.948	4.59
565.289	4.58
565.63	4.56
565.971	4.54
566.312	4.52
566.653	4.52
566.993	4.54
567.334	4.55
567.675	4.56
568.015	4.55
568.356	4.52
568.696	4.57
569.037	4.55
569.377	4.52
569.718	4.55
570.058	4.56
570.398	4.57
570.739	4.59
571.079	4.59
571.419	4.61
571.759	4.62
572.099	4.59
572.439	4.6
572.779	4.62
573.119	4.66
573.459	4.71
573.799	4.73
574.139	4.72
574.479	4.74
574.819	4.74
575.158	4.74
575.498	4.75
575.838	4.72
576.177	4.71
576.517	4.72
576.856	4.71
577.196	4.72
577.535	4.72
577.875	4.73
578.214	4.72
578.553	4.74
578.893	4.68
579.232	4.7
579.571	4.67
579.91	4.66
580.25	4.62
580.589	4.58
580.928	4.56
581.267	4.55
581.606	4.52
581.945	4.51
582.283	4.49
582.622	4.47
582.961	4.47
583.3	4.51
583.639	4.57
583.977	4.56
584.316	4.53
584.654	4.51
584.993	4.5
585.332	4.5
585.67	4.45
586.008	4.47
586.347	4.47
586.685	4.5
587.024	4.49
587.362	4.48
587.7	4.52
588.038	4.54
588.376	4.55
588.715	4.55
589.053	4.59
589.391	4.63
589.729	4.64
590.067	4.64
590.404	4.67
590.742	4.66
591.08	4.68
591.418	4.77
591.756	4.79
592.093	4.79
592.431	4.77
592.769	4.82
593.106	4.84
593.444	4.81
593.781	4.82
594.119	4.84
594.456	4.88
594.793	4.86
595.131	4.86
595.468	4.85
595.805	4.87
596.143	4.85
596.48	4.82
596.817	4.83
597.154	4.85
597.491	4.82
597.828	4.81
598.165	4.8
598.502	4.72
598.839	4.71
599.176	4.69
599.512	4.71
599.849	4.72
600.186	4.7
600.523	4.74
600.859	4.76
601.196	4.78
601.532	4.72
601.869	4.73
602.205	4.73
602.542	4.76
602.878	4.74
603.215	4.75
603.551	4.74
603.887	4.75
604.223	4.76
604.56	4.78
604.896	4.77
605.232	4.77
605.568	4.81
605.904	4.79
606.24	4.84
606.576	4.84
606.912	4.83
607.248	4.82
607.583	4.84
607.919	4.79
608.255	4.76
608.591	4.83
608.926	4.81
609.262	4.84
609.597	4.83
609.933	4.88
610.268	4.87
610.604	4.9
610.939	4.9
611.275	4.87
611.61	4.85
611.945	4.91
612.281	4.91
612.616	4.92
612.951	5
613.286	4.98
613.621	4.99
613.956	4.98
614.291	5.04
614.626	4.99
614.961	4.99
615.296	5
615.631	4.96
615.966	4.99
616.3	4.93
616.635	4.9
616.97	4.88
617.304	4.85
617.639	4.9
617.973	4.96
618.308	5.01
618.642	5.01
618.977	4.97
619.311	4.97
619.646	4.95
619.98	4.91
620.314	4.88
620.648	4.91
620.983	4.97
621.317	4.95
621.651	5.02
621.985	5.06
622.319	5.05
622.653	5.07
622.987	5.04
623.321	5.05
623.655	5.07
623.988	5.11
624.322	5.16
624.656	5.14
624.99	5.08
625.323	5.05
625.657	5.08
625.99	5.07
626.324	5.1
626.657	5.09
626.991	5.11
627.324	5.13
627.658	5.12
627.991	5.08
628.324	5.05
628.657	5
628.991	4.99
629.324	5.03
629.657	5.03
629.99	5.07
630.323	5.1
630.656	5.14
630.989	5.1
631.322	5.13
631.655	5.1
631.987	5.1
632.32	5.11
632.653	5.05
632.986	5.04
633.318	5.01
633.651	5.01
633.984	5.01
634.316	5.01
634.649	5.02
634.981	5.04
635.313	5.07
635.646	5.11
635.978	5.11
636.31	5.1
636.643	5.11
636.975	5.08
637.307	5.02
637.639	5
637.971	5
638.303	4.97
638.635	4.96
638.967	4.98
639.299	5.01
639.631	5.01
639.963	5.05
640.295	5.04
640.626	5.04
640.958	5.03
641.29	5.01
641.621	5.01
641.953	5
642.285	4.97
642.616	4.96
642.948	4.99
643.279	5.01
643.61	5
643.942	4.98
644.273	5.07
644.604	5.03
644.936	5.01
645.267	5.01
645.598	5.04
645.929	5.09
646.26	5.07
646.591	5.18
646.922	5.1
647.253	5.1
647.584	5.14
647.915	5.18
648.245	5.19
648.576	5.19
648.907	5.28
649.238	5.32
649.568	5.34
649.899	5.33
650.229	5.27
650.56	5.28
650.89	5.27
651.221	5.25
651.551	5.26
651.882	5.27
652.212	5.28
652.542	5.28
652.872	5.23
653.203	5.24
653.533	5.26
653.863	5.35
654.193	5.37
654.523	5.33
654.853	5.27
655.183	5.36
655.513	5.33
655.843	5.27
656.172	5.23
656.502	5.23
656.832	5.25
657.162	5.31
657.491	5.34
657.821	5.39
658.15	5.36
658.48	5.35
658.809	5.38
659.139	5.38
659.468	5.38
659.798	5.33
660.127	5.33
660.456	5.3
660.785	5.29
661.115	5.29
661.444	5.29
661.773	5.35
662.102	5.23
662.431	5.27
662.76	5.28
663.089	5.36
663.418	5.37
663.747	5.38
664.076	5.41
664.404	5.34
664.733	5.37
665.062	5.45
665.39	5.44
665.719	5.38
666.048	5.36
666.376	5.35
666.705	5.36
667.033	5.35
667.362	5.34
667.69	5.29
668.018	5.27
668.347	5.27
668.675	5.2
669.003	5.25
669.331	5.28
669.659	5.32
669.987	5.29
670.315	5.32
670.643	5.26
670.971	5.25
671.299	5.29
671.627	5.28
671.955	5.26
672.283	5.3
672.61	5.41
672.938	5.42
673.266	5.5
673.593	5.58
673.921	5.58
674.249	5.55
674.576	5.55
674.904	5.56
675.231	5.55
675.558	5.61
675.886	5.68
676.213	5.59
676.54	5.53
676.867	5.54
677.195	5.55
677.522	5.64
677.849	5.64
678.176	5.7
678.503	5.67
678.83	5.67
679.157	5.55
679.484	5.51
679.81	5.59
680.137	5.54
680.464	5.57
680.791	5.53
681.117	5.55
681.444	5.5
681.771	5.55
682.097	5.66
682.424	5.62
682.75	5.6
683.077	5.59
683.403	5.63
683.729	5.57
684.056	5.53
684.382	5.47
684.708	5.39
685.034	5.31
685.36	5.32
685.686	5.29
686.012	5.31
686.339	5.36
686.664	5.25
686.99	5.33
687.316	5.23
687.642	5.32
687.968	5.37
688.294	5.5
688.619	5.43
688.945	5.36
689.271	5.42
689.596	5.38
689.922	5.51
690.247	5.44
690.573	5.44
690.898	5.5
691.224	5.52
691.549	5.65
691.874	5.75
692.2	5.75
692.525	5.79
692.85	5.98
693.175	5.91
693.5	5.89
693.825	5.87
694.15	6.08
694.475	6.04
694.8	6.05
695.125	6
695.45	5.98
695.775	6.07
696.099	6.1
696.424	6.14
696.749	6.09
697.073	6.2
697.398	6.27
697.723	6.28
698.047	6.24
698.372	6.17
698.696	6.16
699.02	6.13
699.345	6.05
699.669	6.01
699.993	6
700.318	6.09
700.642	6.02
700.966	5.88
701.29	5.89
701.614	5.86
701.938	5.9
702.262	6.02
702.586	5.96
702.91	5.88
703.234	5.85
703.557	5.87
703.881	5.76
704.205	5.73
704.529	5.67
704.852	5.78
705.176	5.85
705.499	5.88
705.823	5.92
706.146	5.99
706.47	5.97
706.793	6.03
707.117	5.86
707.44	5.9
707.763	5.86
708.086	5.79
708.409	5.83
708.733	5.79
709.056	5.76
709.379	5.82
709.702	5.91
710.025	5.95
710.348	6.03
710.671	6.05
710.993	6.05
711.316	6.13
711.639	6.07
711.962	6.08
712.284	6.09
712.607	6.09
712.93	6.26
713.252	6.26
713.575	6.39
713.897	6.47
714.22	6.58
714.542	6.72
714.864	6.82
715.187	6.88
715.509	6.95
715.831	7.01
716.153	7.05
716.475	7.04
716.798	7.03
717.12	6.92
717.442	6.94
717.764	6.91
718.085	6.92
718.407	6.96
718.729	6.95
719.051	6.95
719.373	6.89
719.695	6.81
720.016	6.97
720.338	6.81
720.659	6.87
720.981	6.69
721.302	6.64
721.624	6.63
721.945	6.52
722.267	6.56
722.588	6.43
722.909	6.34
723.231	6.42
723.552	6.49
723.873	6.52
724.194	6.54
724.515	6.62
724.836	6.46
725.157	6.63
725.478	6.68
725.799	6.78
726.12	6.82
726.441	6.73
726.762	6.63
727.083	6.66
727.403	6.76
727.724	6.92
728.045	6.92
728.365	6.92
728.686	6.92
729.006	6.85
729.327	6.84
729.647	6.82
729.967	6.76
730.288	6.63
730.608	6.49
730.928	6.49
731.249	6.46
731.569	6.63
731.889	6.46
732.209	6.52
732.529	6.43
732.849	6.49
733.169	6.58
733.489	6.59
733.809	6.52
734.129	6.48
734.448	6.5
734.768	6.5
735.088	6.53
735.408	6.57
735.727	6.62
736.047	6.82
736.366	6.84
736.686	6.82
737.005	7.14
737.325	7.19
737.644	7.35
737.963	7.38
738.283	7.19
738.602	7.11
738.921	6.97
739.24	6.82
739.56	6.85
739.879	6.89
740.198	6.89
740.517	7.1
740.836	7.07
741.155	7.14
741.473	7.17
741.792	7.16
742.111	7.31
742.43	7.13
742.748	7.02
743.067	7.02
743.386	7.03
743.704	6.77
744.023	7.07
744.341	6.87
744.66	6.89
744.978	7.02
745.297	7.14
745.615	7.15
745.933	7.58
746.252	7.66
746.57	7.63
746.888	7.39
747.206	7.08
747.524	7.19
747.842	7.16
748.16	7.29
748.478	7.29
748.796	7.25
749.114	7.75
749.432	7.76
749.749	7.75
750.067	7.66
750.385	7.72
750.703	7.66
751.02	7.68
751.338	7.81
751.655	7.7
751.973	7.75
752.29	7.96
752.608	7.88
752.925	7.59
753.242	7.68
753.56	7.85
753.877	8.12
754.194	8.05
754.511	8.07
754.828	7.93
755.145	8.02
755.462	8.01
755.779	7.85
756.096	7.94
756.413	7.96
756.73	8.28
757.047	8.13
757.364	7.97
757.68	8.14
757.997	7.91
758.314	7.95
758.63	7.95
758.947	7.83
759.264	7.46
759.58	7.73
759.896	7.73
760.213	7.71
760.529	7.71
760.846	7.83
761.162	7.91
761.478	7.89
761.794	7.61
762.11	7.6
762.426	7.43
762.743	7.5
763.059	7.73
763.375	7.68
763.69	8.03
764.006	8.27
764.322	8.21
764.638	8.39
764.954	8.68
765.27	8.62
765.585	8.55
765.901	8.83
766.216	8.78
766.532	8.79
766.848	8.73
767.163	8.78
767.478	8.83
767.794	8.68
768.109	8.73
768.424	8.99
768.74	8.94
769.055	9.04
769.37	9.16
769.685	8.92
770	9.13
770.315	8.57
770.63	8.37
770.945	8.56
771.26	8.45
771.575	8.12
771.89	8
772.205	8.26
772.52	7.93
772.834	7.87
773.149	7.76
773.464	7.78
773.778	8.06
774.093	7.73
774.407	7.64
774.722	7.75
775.036	7.81
775.351	7.81
775.665	7.81
775.979	7.18
776.293	7.13
776.608	6.64
776.922	6.65
777.236	6.71
777.55	6.36
777.864	6.42
778.178	6.8
778.492	7.01
778.806	6.86
779.12	7.05
779.434	7.15
779.747	7.43
780.061	7.28
780.375	6.92
780.689	6.94
781.002	7.01
781.316	7.12
781.629	7.26
781.943	7.4
782.256	7.7
782.57	7.84
782.883	8.08
783.196	7.88
783.51	8.29
783.823	8.02
784.136	8.53
784.449	8.56
784.762	8.03
785.075	7.97
785.388	8.16
785.701	8.14
786.014	8.17
786.327	8.3
786.64	9.24
786.953	9.12
787.266	9.39
787.578	9.75
787.891	9.83
788.204	9.79
788.516	9.84
788.829	9.73
789.141	10.17
789.454	10.07
789.766	10.41
790.079	10.47
790.391	10.73
790.703	10.75
791.016	10.91
791.328	11.06
791.64	11.26
791.952	11.29
792.264	10.97
792.576	10.47
792.888	9.92
793.2	9.2
793.512	8.99
793.824	8.93
794.136	8.9
794.448	8.86
794.76	8.72
795.071	8.49
795.383	8.16
795.695	7.89
796.006	7.67
796.318	8.11
796.629	8.24
796.941	8.42
797.252	8.25
797.564	8.07
797.875	8.14
798.186	7.91
798.497	7.61
798.809	8.29
799.12	8.87
799.431	9.29
799.742	9.56
800.053	10.25
800.364	10.08
800.675	10.03
800.986	9.78
801.297	9.46
801.608	9.55
801.918	9.43
802.229	9.49
802.54	9.42
802.851	9.01
803.161	8.86
803.472	8.53
803.782	8.18
804.093	8.05
804.403	7.91
804.714	8.02
805.024	7.93
805.334	7.7
805.645	7.64
805.955	7.43
806.265	7.77
806.575	7.09
806.885	7.67
807.195	7.7
807.505	7.18
807.815	7.87
808.125	7.69
808.435	7.99
808.745	8.1
809.055	8.4
809.365	8.33
809.674	8.42
809.984	8.54
810.294	9.03
810.603	9.91
810.913	10.36
811.222	10.6
811.532	11.23
811.841	11.87
812.151	12.69
812.46	12.53
812.769	12.42
813.079	12.83
813.388	12.82
813.697	12.8
814.006	13.5
814.315	13.3
814.624	13.26
814.933	13.55
815.242	13.69
815.551	13.55
815.86	12.93
816.169	12.52
816.478	12.06
816.786	11.46
817.095	10.95
817.404	10.83
817.712	10.84
818.021	10.65
818.33	10.23
818.638	9.81
818.947	10.21
819.255	10.26
819.563	9.89
819.872	9.75
820.18	9.71
820.488	9.6
820.796	9.56
821.105	9.54
821.413	9.63
821.721	9.63
822.029	9.79
822.337	9.97
822.645	10.02
822.953	10.05
823.26	10.25
823.568	10.19
823.876	10.2
824.184	10.19
824.491	10.12
824.799	10.24
825.107	10.26
825.414	10.25
825.722	10.29
826.029	10.48
826.337	10.52
826.644	10.63
826.951	10.67
827.259	10.66
827.566	10.9
827.873	10.86
828.18	10.96
828.488	10.96
828.795	11.12
829.102	11.22
829.409	11.61
829.716	11.33
830.023	11.38
830.329	11.01
830.636	11.05
830.943	10.97
831.25	10.74
831.557	11.09
831.863	10.82
832.17	10.62
832.476	10.86
832.783	10.81
833.089	10.77
833.396	11.18
833.702	11.58
834.009	11.48
834.315	11.44
834.621	11.42
834.928	11.44
835.234	11.27
835.54	10.92
835.846	10.57
836.152	10.77
836.458	10.79
836.764	11.63
837.07	11.15
837.376	11.39
837.682	11.64
837.988	11.14
838.293	11.63
838.599	11.71
838.905	11.33
839.211	11.07
839.516	11.08
839.822	10.74
840.127	10.31
840.433	10.75
840.738	10.35
841.044	10.33
841.349	10.52
841.654	10.84
841.959	11.43
842.265	10.89
842.57	11.03
842.875	11.04
843.18	11
843.485	12.58
843.79	12.75
844.095	12.6
844.4	13.22
844.705	12.18
845.01	13.04
845.315	13.05
845.619	13.88
845.924	13.87
846.229	13.36
846.533	13.97
846.838	12.02
847.142	13
847.447	12.93
847.751	12.2
848.056	12.22
848.36	13.13
848.664	14.12
848.969	12.79
849.273	12.68
849.577	11.34
849.881	10.9
850.185	12.18
850.489	11.54
850.794	10.64
851.097	12.59
851.401	11.74
851.705	11.75
852.009	11.69
852.313	10.35
852.617	10.94
852.92	10.22
853.224	10.64
853.528	10.35
853.831	9.42
854.135	9.79
854.438	8.86
854.742	7.73
855.045	8.02
855.349	9.96
855.652	9.81
855.955	9.82
856.259	8.82
856.562	7.36
856.865	7.29
857.168	6.43
857.471	5.16
857.774	5.09
858.077	5.91
858.38	5.88
858.683	6.92
858.986	8.1
859.289	8
859.592	10.1
859.894	9.81
860.197	10.53
860.5	11.08
860.802	13.21
861.105	12.5
861.407	13.55
861.71	13.17
862.012	14.71
862.315	14.45
862.617	13.5
862.919	12.52
863.222	12.94
863.524	12.15
863.826	12.59
864.128	11.39
864.43	9.94
864.732	10.83
865.034	9.98
865.336	8.38
865.638	7.9
865.94	6.13
866.242	7.83
866.544	8.04
866.846	8.81
867.147	7.43
867.449	8.6
867.751	6.94
868.052	5.12
868.354	4.68
868.655	6.2
868.957	6.56
869.258	8.72
869.56	5.57
869.861	4.62
870.162	5.46
870.463	6.84
870.765	6.98
871.066	6.29
871.367	6.67
871.668	7.72
871.969	7.14
872.27	7.49
872.571	5.95
872.872	6.09
873.173	4.06
873.473	4.61
873.774	5.76
874.075	8.86
874.376	9.9
874.676	9.89
874.977	7.62
875.277	7.33
875.578	6.95
875.878	9.04
876.179	11.15
876.479	10.07
876.78	9.62
877.08	10.29
877.38	9.15
877.68	10.08
877.981	9.23
878.281	11.37
878.581	13.54
