Data from BA28420_Reflection_00005.txt Node
Date: Mon Nov 18 16:08:21 EST 2019
User: vgr7
Spectrometer: USB2G7710
Scans to average: 3
Trigger mode: 4
Integration Time (sec): 2.000000E-2
Electric dark correction enabled: true
Boxcar width: 10
XAxis mode: Wavelengths
Number of Pixels in Spectrum: 2048
>>>>>Begin Spectral Data<<<<<
177.721	-237.71
178.105	607.94
178.488	-1361.99
178.871	-61.96
179.254	-6.16
179.636	44.44
180.019	-47.53
180.402	200
180.785	-735.02
181.168	-344.44
181.55	-819.54
181.933	153.58
182.316	181.16
182.698	287.19
183.081	376.62
183.463	226.84
183.846	186.58
184.228	135.81
184.611	172.98
184.993	140.4
185.376	248.15
185.758	-22788.89
186.14	475.4
186.522	647.26
186.904	-258.97
187.287	-76.1
187.669	1231.31
188.051	-84.99
188.433	-164.43
188.815	-232.2
189.197	-196.99
189.579	-347.86
189.961	-275.86
190.342	-200.09
190.724	-391.89
191.106	-242.24
191.488	-353.67
191.869	-618.68
192.251	-650.96
192.633	-313.55
193.014	-102.36
193.396	-83.14
193.777	-72.49
194.159	-46.14
194.54	-62.07
194.922	-65.89
195.303	-46.52
195.684	-21.1
196.065	-71.51
196.447	-33.67
196.828	2.4
197.209	52.25
197.59	66.07
197.971	88.7
198.352	-138.36
198.733	-187.52
199.114	-159.44
199.495	-74.05
199.876	-78.42
200.257	-27.2
200.638	-5.59
201.018	-17.19
201.399	-9.54
201.78	3.6
202.16	7.9
202.541	-8.18
202.922	-21.43
203.302	-18.14
203.683	-2.41
204.063	1.7
204.444	13.37
204.824	10.93
205.204	33.1
205.585	45.46
205.965	38.3
206.345	52.91
206.725	85.08
207.106	79.43
207.486	132.3
207.866	148.01
208.246	201.4
208.626	245.27
209.006	187.24
209.386	133.83
209.766	141.8
210.145	197.66
210.525	108.15
210.905	83.25
211.285	71.93
211.664	62.89
212.044	165.54
212.424	110.01
212.803	151
213.183	67.58
213.562	44.07
213.942	72.27
214.321	38.13
214.701	6.55
215.08	4.33
215.459	14.06
215.838	-17.76
216.218	-43.56
216.597	-10.74
216.976	-14.82
217.355	15.15
217.734	-12.27
218.113	8.68
218.492	1.09
218.871	-5.94
219.25	-3.29
219.629	-1.86
220.008	-22.69
220.387	-28.53
220.766	-28.73
221.144	-56.31
221.523	-66.53
221.902	-76.82
222.28	-93.63
222.659	-58.57
223.037	-50.38
223.416	-53.28
223.794	-42.65
224.173	-33.05
224.551	-41.02
224.929	-40.7
225.308	-33.62
225.686	-21.45
226.064	-25.87
226.442	-17.25
226.821	-10.18
227.199	-9.83
227.577	-14.88
227.955	-9.22
228.333	-8.12
228.711	-6.3
229.089	-1.2
229.467	1.17
229.845	1.56
230.222	6.84
230.6	6.2
230.978	3.71
231.356	5.14
231.733	6.93
232.111	6.32
232.488	6.14
232.866	5.29
233.243	4.57
233.621	3.87
233.998	3.9
234.376	2.53
234.753	2.05
235.13	0.51
235.508	3.16
235.885	2.14
236.262	1.14
236.639	1.53
237.016	1.42
237.393	1.51
237.77	2.77
238.147	2.34
238.524	1.56
238.901	2.6
239.278	3.68
239.655	4.34
240.032	4.39
240.409	4.3
240.785	4.34
241.162	4.48
241.539	4.09
241.915	3.93
242.292	3.6
242.668	3.78
243.045	4.48
243.421	4.39
243.798	4.47
244.174	4.75
244.551	4.68
244.927	4.41
245.303	4.72
245.679	4.48
246.056	4.51
246.432	4.82
246.808	4.83
247.184	4.39
247.56	3.96
247.936	3.92
248.312	4.01
248.688	4.19
249.064	4.04
249.44	4.09
249.815	4.34
250.191	4.52
250.567	4.35
250.943	4.25
251.318	4.33
251.694	4.37
252.069	4.29
252.445	4.27
252.82	4.62
253.196	4.35
253.571	4.27
253.947	4.28
254.322	4.18
254.697	4.29
255.073	4.33
255.448	4.44
255.823	4.32
256.198	4.31
256.573	4.18
256.948	4.12
257.323	4.23
257.698	4.06
258.073	3.98
258.448	4.05
258.823	4.06
259.198	3.74
259.573	3.52
259.948	3.54
260.322	3.62
260.697	3.49
261.072	3.47
261.446	3.38
261.821	3.39
262.195	3.38
262.57	3.42
262.944	3.34
263.319	3.23
263.693	3.31
264.067	3.16
264.442	3.28
264.816	3.21
265.19	3.11
265.564	3.06
265.938	2.92
266.313	2.84
266.687	2.72
267.061	3.21
267.435	3.4
267.809	3.16
268.183	3.17
268.556	3.04
268.93	3.24
269.304	3.36
269.678	3.66
270.051	3.46
270.425	3.31
270.799	3.45
271.172	3.7
271.546	3.48
271.919	3.46
272.293	3.29
272.666	3.51
273.04	3.53
273.413	3.63
273.787	3.73
274.16	3.69
274.533	3.64
274.906	3.45
275.279	3.39
275.653	3.49
276.026	3.44
276.399	3.45
276.772	3.46
277.145	3.37
277.518	3
277.891	3.32
278.263	3.38
278.636	3.2
279.009	3.03
279.382	3.52
279.755	3.57
280.127	3.67
280.5	3.61
280.872	3.69
281.245	3.58
281.617	3.72
281.99	3.82
282.362	3.99
282.735	3.82
283.107	3.78
283.479	4.01
283.852	4.11
284.224	4.3
284.596	4.21
284.968	4.39
285.34	4.64
285.713	4.46
286.085	4.51
286.457	4.79
286.829	4.88
287.201	4.72
287.572	4.8
287.944	4.73
288.316	4.77
288.688	4.59
289.06	4.65
289.431	4.63
289.803	4.68
290.175	4.58
290.546	4.73
290.918	4.79
291.289	4.67
291.661	4.64
292.032	4.61
292.403	4.65
292.775	4.62
293.146	4.37
293.517	4.4
293.889	4.31
294.26	4.3
294.631	4.26
295.002	4.15
295.373	4.13
295.744	4.14
296.115	4.12
296.486	4.13
296.857	4.05
297.228	4.06
297.599	4.02
297.97	4.06
298.34	4.14
298.711	4.2
299.082	4.2
299.452	4.15
299.823	4.25
300.194	4.16
300.564	4.09
300.935	4.19
301.305	4.11
301.676	4.14
302.046	4.04
302.416	4.05
302.787	4.06
303.157	4.04
303.527	4.03
303.897	4.05
304.267	4.25
304.637	4.32
305.008	4.3
305.378	4.46
305.748	4.48
306.117	4.44
306.487	4.44
306.857	4.46
307.227	4.43
307.597	4.26
307.967	4.38
308.336	4.34
308.706	4.3
309.076	4.4
309.445	4.37
309.815	4.41
310.184	4.4
310.554	4.49
310.923	4.56
311.293	4.58
311.662	4.45
312.031	4.37
312.401	4.33
312.77	4.33
313.139	4.2
313.508	4.27
313.877	4.23
314.246	4.23
314.616	4.24
314.985	4.22
315.353	4.27
315.722	4.16
316.091	4.18
316.46	3.99
316.829	4
317.198	3.99
317.567	3.86
317.935	3.84
318.304	3.66
318.672	3.45
319.041	3.48
319.41	3.72
319.778	3.76
320.147	3.75
320.515	3.69
320.883	3.51
321.252	3.53
321.62	3.48
321.988	3.28
322.357	3.39
322.725	3.29
323.093	3.34
323.461	3.43
323.829	3.41
324.197	3.63
324.565	3.71
324.933	3.74
325.301	3.74
325.669	3.72
326.037	3.78
326.405	3.94
326.772	4
327.14	3.97
327.508	3.87
327.875	3.9
328.243	3.9
328.61	4.02
328.978	4
329.346	4.13
329.713	4.2
330.08	4.02
330.448	3.97
330.815	3.85
331.182	3.77
331.55	3.79
331.917	3.79
332.284	3.7
332.651	3.72
333.018	3.84
333.385	3.84
333.752	3.87
334.119	3.86
334.486	3.74
334.853	3.64
335.22	3.78
335.587	3.69
335.954	3.69
336.32	3.7
336.687	3.65
337.054	3.56
337.42	3.66
337.787	3.82
338.153	3.89
338.52	3.98
338.886	3.98
339.253	4.01
339.619	4
339.986	3.99
340.352	4.02
340.718	3.99
341.084	3.98
341.451	4.02
341.817	4.03
342.183	4.02
342.549	3.94
342.915	3.96
343.281	4
343.647	3.97
344.013	3.98
344.379	3.92
344.745	3.92
345.11	3.89
345.476	3.89
345.842	3.95
346.208	3.81
346.573	3.82
346.939	3.79
347.304	3.79
347.67	3.76
348.035	3.73
348.401	3.76
348.766	3.75
349.132	3.71
349.497	3.7
349.862	3.82
350.228	3.96
350.593	3.83
350.958	3.87
351.323	3.87
351.688	3.84
352.053	3.86
352.418	3.93
352.783	3.94
353.148	3.77
353.513	3.81
353.878	3.9
354.243	3.94
354.608	3.98
354.972	3.95
355.337	3.97
355.702	4.01
356.066	4.12
356.431	4.06
356.795	4.12
357.16	4.04
357.524	3.87
357.889	3.82
358.253	3.82
358.618	3.78
358.982	3.77
359.346	3.75
359.71	3.75
360.075	3.7
360.439	3.7
360.803	3.8
361.167	3.76
361.531	3.78
361.895	3.71
362.259	3.7
362.623	3.71
362.987	3.71
363.351	3.66
363.714	3.6
364.078	3.59
364.442	3.52
364.806	3.52
365.169	3.63
365.533	3.62
365.896	3.68
366.26	3.73
366.623	3.78
366.987	3.79
367.35	3.76
367.714	3.82
368.077	3.77
368.44	3.71
368.803	3.7
369.167	3.64
369.53	3.68
369.893	3.64
370.256	3.66
370.619	3.69
370.982	3.65
371.345	3.57
371.708	3.62
372.071	3.66
372.434	3.65
372.797	3.66
373.159	3.63
373.522	3.6
373.885	3.59
374.247	3.59
374.61	3.63
374.973	3.64
375.335	3.59
375.698	3.65
376.06	3.66
376.423	3.69
376.785	3.78
377.147	3.83
377.51	3.91
377.872	3.9
378.234	3.86
378.596	3.89
378.958	3.88
379.321	3.92
379.683	3.95
380.045	3.95
380.407	3.88
380.769	3.92
381.13	3.9
381.492	3.9
381.854	3.88
382.216	3.88
382.578	3.89
382.939	3.89
383.301	3.84
383.663	3.84
384.024	3.81
384.386	3.81
384.747	3.78
385.109	3.75
385.47	3.73
385.832	3.78
386.193	3.8
386.554	3.86
386.916	3.8
387.277	3.79
387.638	3.82
387.999	3.85
388.36	3.85
388.721	3.86
389.082	3.86
389.443	3.85
389.804	3.87
390.165	3.84
390.526	3.84
390.887	3.84
391.248	3.87
391.609	3.85
391.969	3.83
392.33	3.83
392.691	3.8
393.051	3.78
393.412	3.73
393.772	3.71
394.133	3.67
394.493	3.68
394.854	3.7
395.214	3.69
395.574	3.69
395.935	3.7
396.295	3.69
396.655	3.65
397.015	3.69
397.376	3.65
397.736	3.69
398.096	3.7
398.456	3.71
398.816	3.72
399.176	3.71
399.535	3.7
399.895	3.7
400.255	3.68
400.615	3.71
400.975	3.73
401.334	3.71
401.694	3.73
402.054	3.74
402.413	3.71
402.773	3.71
403.132	3.69
403.492	3.7
403.851	3.71
404.211	3.72
404.57	3.68
404.929	3.71
405.288	3.68
405.648	3.67
406.007	3.66
406.366	3.63
406.725	3.68
407.084	3.7
407.443	3.68
407.802	3.73
408.161	3.71
408.52	3.7
408.879	3.69
409.238	3.7
409.596	3.7
409.955	3.67
410.314	3.68
410.673	3.67
411.031	3.64
411.39	3.64
411.748	3.68
412.107	3.7
412.465	3.68
412.824	3.7
413.182	3.68
413.54	3.71
413.899	3.72
414.257	3.7
414.615	3.69
414.974	3.71
415.332	3.69
415.69	3.68
416.048	3.69
416.406	3.69
416.764	3.66
417.122	3.67
417.48	3.67
417.838	3.66
418.195	3.66
418.553	3.67
418.911	3.67
419.269	3.66
419.626	3.66
419.984	3.67
420.342	3.68
420.699	3.68
421.057	3.67
421.414	3.66
421.772	3.66
422.129	3.66
422.486	3.66
422.844	3.67
423.201	3.67
423.558	3.69
423.915	3.7
424.273	3.71
424.63	3.69
424.987	3.7
425.344	3.7
425.701	3.71
426.058	3.72
426.415	3.73
426.772	3.72
427.128	3.72
427.485	3.73
427.842	3.72
428.199	3.73
428.555	3.73
428.912	3.75
429.269	3.76
429.625	3.74
429.982	3.74
430.338	3.73
430.695	3.74
431.051	3.71
431.407	3.7
431.764	3.71
432.12	3.71
432.476	3.71
432.832	3.7
433.189	3.72
433.545	3.72
433.901	3.71
434.257	3.71
434.613	3.7
434.969	3.69
435.325	3.68
435.681	3.69
436.036	3.71
436.392	3.69
436.748	3.68
437.104	3.69
437.459	3.7
437.815	3.69
438.171	3.69
438.526	3.71
438.882	3.73
439.237	3.75
439.593	3.76
439.948	3.76
440.304	3.78
440.659	3.77
441.014	3.76
441.369	3.75
441.725	3.76
442.08	3.77
442.435	3.79
442.79	3.79
443.145	3.79
443.5	3.76
443.855	3.77
444.21	3.78
444.565	3.79
444.92	3.78
445.275	3.78
445.629	3.79
445.984	3.8
446.339	3.78
446.693	3.76
447.048	3.75
447.403	3.75
447.757	3.74
448.112	3.74
448.466	3.74
448.82	3.75
449.175	3.75
449.529	3.75
449.883	3.74
450.238	3.73
450.592	3.75
450.946	3.75
451.3	3.75
451.654	3.74
452.008	3.74
452.362	3.75
452.716	3.76
453.07	3.75
453.424	3.73
453.778	3.73
454.132	3.75
454.486	3.77
454.839	3.77
455.193	3.75
455.547	3.73
455.9	3.76
456.254	3.76
456.607	3.76
456.961	3.76
457.314	3.74
457.668	3.74
458.021	3.73
458.375	3.75
458.728	3.76
459.081	3.76
459.434	3.74
459.787	3.75
460.141	3.76
460.494	3.76
460.847	3.76
461.2	3.77
461.553	3.77
461.906	3.78
462.259	3.79
462.611	3.8
462.964	3.83
463.317	3.81
463.67	3.81
464.022	3.81
464.375	3.81
464.728	3.84
465.08	3.82
465.433	3.81
465.785	3.8
466.138	3.8
466.49	3.82
466.843	3.79
467.195	3.79
467.547	3.79
467.899	3.78
468.252	3.78
468.604	3.79
468.956	3.76
469.308	3.76
469.66	3.75
470.012	3.78
470.364	3.77
470.716	3.78
471.068	3.79
471.42	3.8
471.772	3.81
472.123	3.82
472.475	3.86
472.827	3.89
473.178	3.9
473.53	3.88
473.882	3.86
474.233	3.93
474.585	3.92
474.936	3.92
475.288	3.91
475.639	3.93
475.99	3.93
476.342	3.95
476.693	3.94
477.044	3.95
477.395	3.94
477.746	3.93
478.097	3.93
478.448	3.91
478.8	3.91
479.15	3.89
479.501	3.89
479.852	3.88
480.203	3.88
480.554	3.9
480.905	3.92
481.255	3.93
481.606	3.92
481.957	3.94
482.307	3.94
482.658	3.95
483.009	3.96
483.359	3.96
483.709	3.97
484.06	3.97
484.41	3.97
484.761	3.96
485.111	3.97
485.461	3.98
485.811	3.99
486.162	3.99
486.512	4
486.862	4
487.212	4
487.562	4
487.912	4
488.262	4
488.612	3.99
488.961	4
489.311	3.99
489.661	3.99
490.011	4
490.36	3.99
490.71	3.98
491.06	3.98
491.409	3.98
491.759	3.98
492.108	4
492.458	3.99
492.807	3.98
493.157	3.98
493.506	3.97
493.855	3.98
494.204	4
494.554	4.01
494.903	4
495.252	4
495.601	4.02
495.95	4.03
496.299	4.02
496.648	4.03
496.997	4.04
497.346	4.05
497.695	4.06
498.043	4.07
498.392	4.06
498.741	4.08
499.09	4.08
499.438	4.08
499.787	4.09
500.135	4.1
500.484	4.11
500.832	4.11
501.181	4.11
501.529	4.11
501.878	4.13
502.226	4.13
502.574	4.11
502.923	4.09
503.271	4.11
503.619	4.1
503.967	4.11
504.315	4.08
504.663	4.09
505.011	4.1
505.359	4.11
505.707	4.12
506.055	4.12
506.403	4.13
506.751	4.13
507.098	4.13
507.446	4.15
507.794	4.13
508.141	4.15
508.489	4.15
508.837	4.14
509.184	4.15
509.531	4.15
509.879	4.19
510.226	4.21
510.574	4.21
510.921	4.24
511.268	4.23
511.616	4.25
511.963	4.25
512.31	4.26
512.657	4.25
513.004	4.26
513.351	4.28
513.698	4.29
514.045	4.3
514.392	4.3
514.739	4.28
515.086	4.3
515.432	4.31
515.779	4.29
516.126	4.31
516.473	4.31
516.819	4.32
517.166	4.31
517.512	4.31
517.859	4.29
518.205	4.27
518.552	4.28
518.898	4.27
519.245	4.26
519.591	4.26
519.937	4.24
520.283	4.22
520.629	4.21
520.976	4.23
521.322	4.22
521.668	4.22
522.014	4.25
522.36	4.25
522.706	4.24
523.052	4.23
523.398	4.25
523.743	4.25
524.089	4.25
524.435	4.24
524.781	4.26
525.126	4.28
525.472	4.3
525.817	4.31
526.163	4.32
526.509	4.34
526.854	4.35
527.199	4.38
527.545	4.39
527.89	4.39
528.235	4.38
528.581	4.39
528.926	4.39
529.271	4.39
529.616	4.38
529.961	4.38
530.306	4.41
530.651	4.4
530.996	4.41
531.341	4.41
531.686	4.42
532.031	4.42
532.376	4.42
532.721	4.41
533.065	4.4
533.41	4.39
533.755	4.38
534.099	4.39
534.444	4.38
534.788	4.39
535.133	4.38
535.477	4.38
535.822	4.38
536.166	4.38
536.51	4.38
536.855	4.39
537.199	4.4
537.543	4.4
537.887	4.4
538.231	4.38
538.576	4.4
538.92	4.39
539.264	4.39
539.608	4.38
539.951	4.41
540.295	4.4
540.639	4.42
540.983	4.42
541.327	4.42
541.671	4.42
542.014	4.42
542.358	4.42
542.701	4.44
543.045	4.44
543.389	4.45
543.732	4.46
544.075	4.46
544.419	4.47
544.762	4.47
545.105	4.48
545.449	4.5
545.792	4.49
546.135	4.51
546.478	4.52
546.821	4.52
547.165	4.53
547.508	4.55
547.851	4.56
548.194	4.55
548.536	4.53
548.879	4.55
549.222	4.53
549.565	4.54
549.908	4.55
550.25	4.53
550.593	4.54
550.936	4.54
551.278	4.53
551.621	4.54
551.963	4.52
552.306	4.51
552.648	4.49
552.991	4.53
553.333	4.53
553.675	4.53
554.017	4.54
554.36	4.54
554.702	4.55
555.044	4.57
555.386	4.57
555.728	4.6
556.07	4.61
556.412	4.63
556.754	4.64
557.096	4.64
557.438	4.65
557.78	4.66
558.121	4.67
558.463	4.71
558.805	4.67
559.147	4.66
559.488	4.69
559.83	4.69
560.171	4.65
560.513	4.69
560.854	4.71
561.196	4.73
561.537	4.75
561.878	4.71
562.22	4.69
562.561	4.68
562.902	4.66
563.243	4.65
563.584	4.66
563.925	4.68
564.266	4.66
564.607	4.65
564.948	4.64
565.289	4.63
565.63	4.62
565.971	4.62
566.312	4.64
566.653	4.65
566.993	4.66
567.334	4.68
567.675	4.65
568.015	4.62
568.356	4.6
568.696	4.58
569.037	4.61
569.377	4.59
569.718	4.63
570.058	4.64
570.398	4.66
570.739	4.66
571.079	4.64
571.419	4.65
571.759	4.66
572.099	4.66
572.439	4.66
572.779	4.66
573.119	4.68
573.459	4.69
573.799	4.69
574.139	4.67
574.479	4.65
574.819	4.67
575.158	4.67
575.498	4.65
575.838	4.67
576.177	4.64
576.517	4.65
576.856	4.65
577.196	4.66
577.535	4.64
577.875	4.65
578.214	4.65
578.553	4.66
578.893	4.64
579.232	4.65
579.571	4.65
579.91	4.65
580.25	4.67
580.589	4.67
580.928	4.69
581.267	4.68
581.606	4.71
581.945	4.7
582.283	4.68
582.622	4.68
582.961	4.65
583.3	4.68
583.639	4.74
583.977	4.71
584.316	4.7
584.654	4.71
584.993	4.69
585.332	4.68
585.67	4.65
586.008	4.65
586.347	4.65
586.685	4.62
587.024	4.65
587.362	4.64
587.7	4.61
588.038	4.59
588.376	4.62
588.715	4.63
589.053	4.64
589.391	4.69
589.729	4.71
590.067	4.7
590.404	4.72
590.742	4.71
591.08	4.69
591.418	4.67
591.756	4.68
592.093	4.68
592.431	4.67
592.769	4.69
593.106	4.7
593.444	4.67
593.781	4.74
594.119	4.75
594.456	4.73
594.793	4.75
595.131	4.74
595.468	4.76
595.805	4.75
596.143	4.73
596.48	4.74
596.817	4.74
597.154	4.76
597.491	4.74
597.828	4.7
598.165	4.72
598.502	4.74
598.839	4.74
599.176	4.74
599.512	4.78
599.849	4.81
600.186	4.82
600.523	4.85
600.859	4.85
601.196	4.83
601.532	4.81
601.869	4.8
602.205	4.82
602.542	4.8
602.878	4.77
603.215	4.79
603.551	4.79
603.887	4.82
604.223	4.82
604.56	4.88
604.896	4.88
605.232	4.92
605.568	4.95
605.904	4.94
606.24	4.95
606.576	4.94
606.912	4.92
607.248	4.9
607.583	4.91
607.919	4.9
608.255	4.88
608.591	4.97
608.926	5
609.262	5.02
609.597	5.05
609.933	5.1
610.268	5.1
610.604	5.1
610.939	5.1
611.275	5.11
611.61	5.1
611.945	5.1
612.281	5.08
612.616	5.05
612.951	5.03
613.286	5
613.621	5.02
613.956	5.03
614.291	5.09
614.626	5.1
614.961	5.03
615.296	5.05
615.631	5.06
615.966	5.05
616.3	4.99
616.635	4.99
616.97	4.98
617.304	4.98
617.639	4.97
617.973	4.95
618.308	4.94
618.642	4.92
618.977	4.97
619.311	4.94
619.646	4.92
619.98	4.97
620.314	4.99
620.648	5.03
620.983	5.08
621.317	5.1
621.651	5.07
621.985	5.14
622.319	5.2
622.653	5.17
622.987	5.16
623.321	5.22
623.655	5.21
623.988	5.22
624.322	5.19
624.656	5.22
624.99	5.24
625.323	5.22
625.657	5.23
625.99	5.21
626.324	5.26
626.657	5.27
626.991	5.3
627.324	5.33
627.658	5.33
627.991	5.33
628.324	5.32
628.657	5.34
628.991	5.35
629.324	5.28
629.657	5.28
629.99	5.32
630.323	5.3
630.656	5.3
630.989	5.29
631.322	5.4
631.655	5.37
631.987	5.35
632.32	5.32
632.653	5.29
632.986	5.31
633.318	5.29
633.651	5.35
633.984	5.31
634.316	5.29
634.649	5.3
634.981	5.25
635.313	5.23
635.646	5.22
635.978	5.21
636.31	5.24
636.643	5.25
636.975	5.2
637.307	5.2
637.639	5.16
637.971	5.16
638.303	5.13
638.635	5.13
638.967	5.15
639.299	5.24
639.631	5.24
639.963	5.24
640.295	5.24
640.626	5.24
640.958	5.29
641.29	5.32
641.621	5.3
641.953	5.3
642.285	5.32
642.616	5.38
642.948	5.36
643.279	5.41
643.61	5.41
643.942	5.45
644.273	5.45
644.604	5.48
644.936	5.44
645.267	5.38
645.598	5.36
645.929	5.36
646.26	5.32
646.591	5.35
646.922	5.34
647.253	5.38
647.584	5.27
647.915	5.24
648.245	5.22
648.576	5.21
648.907	5.25
649.238	5.22
649.568	5.17
649.899	5.16
650.229	5.12
650.56	5.14
650.89	5.08
651.221	5.11
651.551	5.12
651.882	5.18
652.212	5.22
652.542	5.3
652.872	5.27
653.203	5.23
653.533	5.28
653.863	5.27
654.193	5.3
654.523	5.35
654.853	5.32
655.183	5.34
655.513	5.32
655.843	5.27
656.172	5.28
656.502	5.32
656.832	5.35
657.162	5.41
657.491	5.37
657.821	5.42
658.15	5.38
658.48	5.41
658.809	5.42
659.139	5.45
659.468	5.42
659.798	5.47
660.127	5.55
660.456	5.51
660.785	5.5
661.115	5.54
661.444	5.57
661.773	5.64
662.102	5.65
662.431	5.67
662.76	5.74
663.089	5.73
663.418	5.71
663.747	5.76
664.076	5.72
664.404	5.76
664.733	5.74
665.062	5.8
665.39	5.74
665.719	5.75
666.048	5.63
666.376	5.64
666.705	5.63
667.033	5.59
667.362	5.64
667.69	5.67
668.018	5.62
668.347	5.69
668.675	5.66
669.003	5.69
669.331	5.79
669.659	5.82
669.987	5.85
670.315	5.91
670.643	5.88
670.971	5.9
671.299	5.99
671.627	6.04
671.955	6.05
672.283	6.06
672.61	6.01
672.938	6.06
673.266	6.12
673.593	6.19
673.921	6.26
674.249	6.28
674.576	6.27
674.904	6.2
675.231	6.14
675.558	6.13
675.886	6.1
676.213	6.02
676.54	6.01
676.867	6.03
677.195	5.94
677.522	5.97
677.849	5.92
678.176	5.88
678.503	5.84
678.83	5.8
679.157	5.8
679.484	5.86
679.81	5.88
680.137	5.88
680.464	5.86
680.791	5.85
681.117	5.8
681.444	5.82
681.771	5.87
682.097	5.87
682.424	5.94
682.75	5.94
683.077	5.92
683.403	5.9
683.729	5.91
684.056	5.96
684.382	5.93
684.708	5.99
685.034	5.89
685.36	5.93
685.686	6
686.012	6.03
686.339	6.08
686.664	6.18
686.99	6.25
687.316	6.14
687.642	6.15
687.968	6.14
688.294	6.17
688.619	6.09
688.945	6.07
689.271	6.02
689.596	6
689.922	6.07
690.247	6.07
690.573	6.07
690.898	6.12
691.224	6.22
691.549	6.19
691.874	6.29
692.2	6.3
692.525	6.35
692.85	6.45
693.175	6.35
693.5	6.24
693.825	6.19
694.15	6.32
694.475	6.31
694.8	6.28
695.125	6.25
695.45	6.34
695.775	6.42
696.099	6.38
696.424	6.41
696.749	6.35
697.073	6.29
697.398	6.3
697.723	6.33
698.047	6.2
698.372	6.19
698.696	6.23
699.02	6.21
699.345	6.04
699.669	6.06
699.993	6.05
700.318	6.12
700.642	6.09
700.966	6.07
701.29	6.09
701.614	6.13
701.938	6.2
702.262	6.24
702.586	6.24
702.91	6.26
703.234	6.27
703.557	6.4
703.881	6.51
704.205	6.46
704.529	6.45
704.852	6.62
705.176	6.64
705.499	6.65
705.823	6.68
706.146	6.79
706.47	6.71
706.793	6.66
707.117	6.65
707.44	6.65
707.763	6.73
708.086	6.74
708.409	6.73
708.733	6.65
709.056	6.52
709.379	6.62
709.702	6.58
710.025	6.56
710.348	6.44
710.671	6.31
710.993	6.33
711.316	6.34
711.639	6.31
711.962	6.36
712.284	6.32
712.607	6.38
712.93	6.45
713.252	6.48
713.575	6.58
713.897	6.58
714.22	6.61
714.542	6.46
714.864	6.36
715.187	6.45
715.509	6.48
715.831	6.6
716.153	6.5
716.475	6.54
716.798	6.61
717.12	6.64
717.442	6.78
717.764	6.78
718.085	6.78
718.407	6.77
718.729	6.79
719.051	6.83
719.373	6.75
719.695	6.76
720.016	6.78
720.338	6.7
720.659	6.79
720.981	6.72
721.302	6.77
721.624	6.82
721.945	6.75
722.267	6.77
722.588	6.67
722.909	6.68
723.231	6.64
723.552	6.52
723.873	6.61
724.194	6.6
724.515	6.69
724.836	6.66
725.157	6.72
725.478	6.82
725.799	6.72
726.12	6.65
726.441	6.61
726.762	6.52
727.083	6.73
727.403	6.75
727.724	6.82
728.045	6.97
728.365	6.97
728.686	7.05
729.006	7.08
729.327	7.16
729.647	7.17
729.967	7.32
730.288	7.54
730.608	7.38
730.928	7.24
731.249	7.26
731.569	7.39
731.889	7.31
732.209	7.29
732.529	7.41
732.849	7.58
733.169	7.77
733.489	7.76
733.809	7.66
734.129	7.51
734.448	7.51
734.768	7.55
735.088	7.77
735.408	7.73
735.727	7.71
736.047	7.84
736.366	7.7
736.686	7.69
737.005	7.7
737.325	7.55
737.644	7.71
737.963	7.75
738.283	7.75
738.602	7.92
738.921	8.01
739.24	7.86
739.56	7.78
739.879	7.83
740.198	7.83
740.517	7.9
740.836	8
741.155	7.99
741.473	8.05
741.792	7.89
742.111	7.89
742.43	8.09
742.748	8.05
743.067	8.22
743.386	8.09
743.704	7.86
744.023	8.3
744.341	8.49
744.66	8.57
744.978	8.31
745.297	8.16
745.615	8.08
745.933	8.22
746.252	8.33
746.57	7.99
746.888	8
747.206	7.72
747.524	7.8
747.842	7.89
748.16	7.81
748.478	7.9
748.796	8.07
749.114	8.13
749.432	8.12
749.749	8.3
750.067	8.45
750.385	8.62
750.703	8.44
751.02	8.15
751.338	8.28
751.655	8.35
751.973	8.34
752.29	8.12
752.608	8.13
752.925	8.1
753.242	8.32
753.56	8.32
753.877	8.69
754.194	8.7
754.511	8.85
754.828	8.63
755.145	8.54
755.462	8.3
755.779	8.25
756.096	8.24
756.413	8.35
756.73	8.26
757.047	8.32
757.364	8.46
757.68	8.59
757.997	8.36
758.314	8.49
758.63	8.67
758.947	8.88
759.264	8.86
759.58	8.91
759.896	8.71
760.213	8.98
760.529	8.89
760.846	8.84
761.162	8.7
761.478	8.87
761.794	8.83
762.11	8.97
762.426	8.96
762.743	8.91
763.059	8.66
763.375	8.7
763.69	8.77
764.006	8.82
764.322	9.02
764.638	9.13
764.954	9.24
765.27	9.23
765.585	9.17
765.901	9.25
766.216	9.23
766.532	9.49
766.848	9.32
767.163	9.39
767.478	9.48
767.794	9.45
768.109	9.55
768.424	9.67
768.74	9.49
769.055	9.48
769.37	9.68
769.685	9.83
770	9.95
770.315	9.76
770.63	9.75
770.945	9.56
771.26	9.66
771.575	9.61
771.89	9.54
772.205	9.54
772.52	9.39
772.834	9.3
773.149	8.97
773.464	9.1
773.778	9.31
774.093	9.37
774.407	9.36
774.722	9.14
775.036	9.25
775.351	9.65
775.665	9.49
775.979	9.17
776.293	8.77
776.608	8.81
776.922	8.92
777.236	8.68
777.55	8.56
777.864	8.67
778.178	8.79
778.492	9.01
778.806	8.56
779.12	8.98
779.434	8.8
779.747	9.06
780.061	8.89
780.375	8.78
780.689	8.76
781.002	9.01
781.316	9.18
781.629	9.29
781.943	9.29
782.256	9.28
782.57	9.43
782.883	9.97
783.196	9.75
783.51	9.4
783.823	9.65
784.136	9.65
784.449	9.89
784.762	9.53
785.075	9.26
785.388	9.79
785.701	9.57
786.014	9.81
786.327	9.78
786.64	10.44
786.953	10.52
787.266	10.36
787.578	10.37
787.891	10.41
788.204	10.32
788.516	10.76
788.829	10.82
789.141	11.1
789.454	11.1
789.766	11.52
790.079	12.02
790.391	11.52
790.703	11.96
791.016	11.46
791.328	11.68
791.64	11.58
791.952	11.44
792.264	11.32
792.576	11.31
792.888	11.23
793.2	10.74
793.512	10.27
793.824	10.11
794.136	9.83
794.448	9.41
794.76	9.13
795.071	8.7
795.383	9.05
795.695	8.47
796.006	8.39
796.318	8.08
796.629	8.07
796.941	8.9
797.252	8.42
797.564	8.85
797.875	8.62
798.186	8.89
798.497	9.38
798.809	9.48
799.12	9.94
799.431	9.98
799.742	10.12
800.053	10.55
800.364	10.57
800.675	10.91
800.986	11.44
801.297	11.81
801.608	11.62
801.918	11.47
802.229	12.02
802.54	11.89
802.851	12.01
803.161	12.07
803.472	11.75
803.782	12.04
804.093	11.57
804.403	11.51
804.714	11.8
805.024	11.43
805.334	11.69
805.645	11.36
805.955	11.57
806.265	12.02
806.575	11.68
806.885	12.05
807.195	12.18
807.505	11.86
807.815	11.93
808.125	11.52
808.435	11.16
808.745	10.82
809.055	11.2
809.365	11.05
809.674	10.34
809.984	10.67
810.294	10.56
810.603	10.79
810.913	11.29
811.222	10.94
811.532	10.72
811.841	10.83
812.151	11.47
812.46	11.65
812.769	10.85
813.079	11.22
813.388	11.11
813.697	11.01
814.006	10.96
814.315	11.23
814.624	11.36
814.933	11.95
815.242	12.19
815.551	12.2
815.86	12.03
816.169	12.65
816.478	12.16
816.786	12.52
817.095	12.48
817.404	12.55
817.712	12.55
818.021	12.8
818.33	12.28
818.638	11.71
818.947	11.57
819.255	11.75
819.563	11.22
819.872	11.3
820.18	11.16
820.488	11.28
820.796	11.2
821.105	11.35
821.413	11.39
821.721	11.27
822.029	11.24
822.337	11.37
822.645	11.26
822.953	11.29
823.26	11.34
823.568	11.25
823.876	11.31
824.184	11.3
824.491	11.33
824.799	11.44
825.107	11.52
825.414	11.42
825.722	11.61
826.029	11.89
826.337	11.84
826.644	11.98
826.951	12.07
827.259	12.12
827.566	12.1
827.873	11.96
828.18	12.45
828.488	12.44
828.795	12.3
829.102	12.53
829.409	12.62
829.716	12.32
830.023	12.49
830.329	12.23
830.636	12.46
830.943	12.62
831.25	12.44
831.557	12.33
831.863	12.38
832.17	12.02
832.476	11.95
832.783	12.2
833.089	11.92
833.396	11.86
833.702	11.74
834.009	11.91
834.315	11.89
834.621	11.36
834.928	11.77
835.234	12.04
835.54	11.81
835.846	11.78
836.152	12.18
836.458	12.18
836.764	12.24
837.07	11.7
837.376	11.45
837.682	11.71
837.988	11.77
838.293	11.9
838.599	11.85
838.905	11.82
839.211	11.29
839.516	11.86
839.822	11.57
840.127	11.38
840.433	11.37
840.738	11.96
841.044	11.5
841.349	10.99
841.654	11.16
841.959	11.93
842.265	12.03
842.57	11.76
842.875	11.67
843.18	12.73
843.485	13.9
843.79	14.15
844.095	13.8
844.4	14.51
844.705	14.42
845.01	14.54
845.315	13.56
845.619	13.4
845.924	12.63
846.229	13.37
846.533	12.98
846.838	13.86
847.142	12.54
847.447	10.8
847.751	10.94
848.056	10.01
848.36	9.3
848.664	9.85
848.969	10.22
849.273	8.65
849.577	6.94
849.881	5.71
850.185	7.41
850.489	9.1
850.794	7.23
851.097	7.72
851.401	8.62
851.705	9.52
852.009	11.04
852.313	11.06
852.617	9.93
852.92	12.2
853.224	11.49
853.528	14.28
853.831	16.41
854.135	16.97
854.438	17.1
854.742	17.02
855.045	14.16
855.349	13.9
855.652	14.51
855.955	15.53
856.259	16.97
856.562	15.24
856.865	13.14
857.168	13.5
857.471	15.85
857.774	15.08
858.077	14.92
858.38	16.63
858.683	15.75
858.986	16.99
859.289	14.6
859.592	14.54
859.894	12.98
860.197	13.81
860.5	13.93
860.802	14.21
861.105	14.95
861.407	16.69
861.71	17.36
862.012	19.45
862.315	18.44
862.617	17.87
862.919	17.47
863.222	17.31
863.524	17.8
863.826	15.77
864.128	16.27
864.43	17.6
864.732	15.7
865.034	16.55
865.336	15.15
865.638	17.35
865.94	15.9
866.242	14.5
866.544	13.66
866.846	14.2
867.147	15.05
867.449	14.42
867.751	14.94
868.052	14.91
868.354	13.22
868.655	14.73
868.957	12.88
869.258	13.93
869.56	12.96
869.861	11.66
870.162	9.9
870.463	8.5
870.765	9.05
871.066	8.97
871.367	8.24
871.668	8.94
871.969	8.54
872.27	8.34
872.571	9.51
872.872	10.64
873.173	10.18
873.473	10.75
873.774	11.46
874.075	11.67
874.376	10.19
874.676	12.03
874.977	10.52
875.277	12.74
875.578	12.91
875.878	14.2
876.179	15.46
876.479	18.24
876.78	19.1
877.08	17.48
877.38	18.51
877.68	20.58
877.981	22.52
878.281	21.25
878.581	24.73
