Data from BA28416_Reflection_00015.txt Node
Date: Mon Nov 18 16:05:44 EST 2019
User: vgr7
Spectrometer: USB2G7710
Scans to average: 3
Trigger mode: 4
Integration Time (sec): 2.000000E-2
Electric dark correction enabled: true
Boxcar width: 10
XAxis mode: Wavelengths
Number of Pixels in Spectrum: 2048
>>>>>Begin Spectral Data<<<<<
177.721	21.1
178.105	70.44
178.488	214.25
178.871	1910.34
179.254	-619.01
179.636	-51.6
180.019	-244.26
180.402	115.56
180.785	42.02
181.168	77.94
181.55	104.04
181.933	116.1
182.316	102.56
182.698	92.62
183.081	104.42
183.463	100.99
183.846	99.12
184.228	123.24
184.611	110.22
184.993	125.9
185.376	118.79
185.758	118.86
186.14	139.84
186.522	180.64
186.904	177.29
187.287	196.36
187.669	206.48
188.051	207.71
188.433	203.19
188.815	250.7
189.197	229.13
189.579	210.79
189.961	250.07
190.342	237.76
190.724	424.53
191.106	368.12
191.488	510.41
191.869	715.85
192.251	384.53
192.633	364.34
193.014	375.28
193.396	352.97
193.777	317.12
194.159	515.38
194.54	499.72
194.922	-442.26
195.303	-962.7
195.684	-739.34
196.065	-179.81
196.447	-191.3
196.828	-113.86
197.209	-90.19
197.59	-92.66
197.971	-125.24
198.352	-88.38
198.733	-143.54
199.114	-124.34
199.495	-74.79
199.876	-58.02
200.257	-18.65
200.638	-7.65
201.018	-30.27
201.399	-31.32
201.78	-21.98
202.16	-34.99
202.541	-62.81
202.922	-175.31
203.302	-168.88
203.683	-658.54
204.063	-1131.97
204.444	-579.16
204.824	-1150.64
205.204	-1725.53
205.585	-815.9
205.965	-681.51
206.345	-578.52
206.725	-8027.27
207.106	1025.75
207.486	429.1
207.866	478.35
208.246	302.58
208.626	295.27
209.006	393.62
209.386	489.86
209.766	573.68
210.145	408.17
210.525	283.19
210.905	211
211.285	173.57
211.664	294.47
212.044	188.3
212.424	117.87
212.803	69.48
213.183	81.27
213.562	60.03
213.942	41.59
214.321	85.16
214.701	31.78
215.08	37.27
215.459	10.42
215.838	21.3
216.218	193.17
216.597	-65.19
216.976	127.86
217.355	-328.57
217.734	250.5
218.113	-982.47
218.492	-409.88
218.871	-167.92
219.25	-167.45
219.629	-298.54
220.008	-305.91
220.387	-244.36
220.766	-136.89
221.144	-157.32
221.523	-154.84
221.902	-354.99
222.28	5024.53
222.659	-508.78
223.037	-169.58
223.416	-172.73
223.794	-102.43
224.173	-104.51
224.551	-79.15
224.929	-62.72
225.308	-48.49
225.686	-20.41
226.064	-11.8
226.442	-6.95
226.821	-6.81
227.199	-9.87
227.577	-5.06
227.955	-7.64
228.333	-6.41
228.711	-3.09
229.089	-1.1
229.467	-1.29
229.845	-2.76
230.222	-2.66
230.6	-3.4
230.978	-3.46
231.356	-3.8
231.733	-3.85
232.111	-1.14
232.488	-0.82
232.866	-0.84
233.243	-0.92
233.621	-3.26
233.998	-3.19
234.376	-4.78
234.753	-3.79
235.13	-3.53
235.508	-1.64
235.885	-2.25
236.262	-2.3
236.639	-3.35
237.016	-3.32
237.393	-1.83
237.77	0.38
238.147	1.33
238.524	2.92
238.901	2.34
239.278	2.07
239.655	2.53
240.032	2.65
240.409	3.1
240.785	3.6
241.162	3.47
241.539	3.67
241.915	3.41
242.292	3.17
242.668	3.4
243.045	3.2
243.421	3.06
243.798	3.22
244.174	3.13
244.551	3.16
244.927	2.86
245.303	3.1
245.679	2.88
246.056	2.82
246.432	2.61
246.808	2.63
247.184	2.55
247.56	2.29
247.936	2.06
248.312	2.11
248.688	2.14
249.064	1.94
249.44	1.92
249.815	2.08
250.191	2.48
250.567	2.47
250.943	2.58
251.318	2.53
251.694	2.66
252.069	2.76
252.445	2.59
252.82	2.54
253.196	2.19
253.571	2.32
253.947	2.5
254.322	2.83
254.697	2.71
255.073	2.66
255.448	2.69
255.823	2.72
256.198	2.62
256.573	2.62
256.948	3.1
257.323	3.36
257.698	3.16
258.073	2.88
258.448	2.92
258.823	2.83
259.198	2.76
259.573	2.54
259.948	2.48
260.322	2.57
260.697	2.59
261.072	2.75
261.446	2.75
261.821	2.58
262.195	2.38
262.57	2.33
262.944	2.24
263.319	2.3
263.693	2.3
264.067	2.28
264.442	2.24
264.816	1.97
265.19	1.78
265.564	1.76
265.938	1.78
266.313	1.54
266.687	1.68
267.061	1.78
267.435	1.85
267.809	1.73
268.183	1.9
268.556	1.97
268.93	1.87
269.304	1.93
269.678	2
270.051	2
270.425	2.19
270.799	2.37
271.172	2.3
271.546	2.29
271.919	2.3
272.293	2.31
272.666	2.47
273.04	2.46
273.413	2.45
273.787	2.5
274.16	2.66
274.533	2.54
274.906	2.42
275.279	2.47
275.653	2.66
276.026	2.55
276.399	2.58
276.772	2.66
277.145	2.6
277.518	2.69
277.891	2.81
278.263	2.68
278.636	2.65
279.009	2.8
279.382	2.94
279.755	2.96
280.127	3
280.5	2.99
280.872	3.09
281.245	3.07
281.617	3.24
281.99	3.32
282.362	3.37
282.735	3.38
283.107	3.39
283.479	3.41
283.852	3.41
284.224	3.41
284.596	3.49
284.968	3.47
285.34	3.43
285.713	3.45
286.085	3.51
286.457	3.55
286.829	3.5
287.201	3.37
287.572	3.43
287.944	3.33
288.316	3.33
288.688	3.2
289.06	3.15
289.431	3.04
289.803	2.99
290.175	3.02
290.546	3.12
290.918	3.13
291.289	2.97
291.661	2.98
292.032	3.04
292.403	2.94
292.775	3.03
293.146	2.97
293.517	2.95
293.889	3.12
294.26	3.17
294.631	3.23
295.002	3.3
295.373	3.31
295.744	3.44
296.115	3.49
296.486	3.43
296.857	3.57
297.228	3.58
297.599	3.5
297.97	3.52
298.34	3.51
298.711	3.47
299.082	3.58
299.452	3.65
299.823	3.65
300.194	3.78
300.564	3.76
300.935	3.94
301.305	3.92
301.676	3.83
302.046	3.84
302.416	3.9
302.787	3.93
303.157	3.88
303.527	3.87
303.897	3.84
304.267	4.09
304.637	4.25
305.008	4.31
305.378	4.42
305.748	4.56
306.117	4.6
306.487	4.62
306.857	4.58
307.227	4.49
307.597	4.42
307.967	4.31
308.336	4.31
308.706	4.3
309.076	4.39
309.445	4.32
309.815	4.28
310.184	4.21
310.554	4.17
310.923	4.29
311.293	4.22
311.662	4.19
312.031	4.11
312.401	3.99
312.77	4.06
313.139	4.12
313.508	4.11
313.877	4.07
314.246	4.2
314.616	4.26
314.985	4.34
315.353	4.41
315.722	4.5
316.091	4.52
316.46	4.41
316.829	4.47
317.198	4.57
317.567	4.54
317.935	4.44
318.304	4.47
318.672	4.34
319.041	4.56
319.41	4.58
319.778	4.54
320.147	4.66
320.515	4.42
320.883	4.44
321.252	4.48
321.62	4.61
321.988	4.68
322.357	4.61
322.725	4.67
323.093	4.77
323.461	4.83
323.829	4.91
324.197	5.14
324.565	5.05
324.933	5.02
325.301	5.11
325.669	5.21
326.037	5.31
326.405	5.32
326.772	5.3
327.14	5.35
327.508	5.4
327.875	5.17
328.243	5.38
328.61	5.25
328.978	5.29
329.346	5.27
329.713	5.12
330.08	5.22
330.448	5.11
330.815	5
331.182	4.93
331.55	4.99
331.917	4.75
332.284	4.89
332.651	4.87
333.018	4.94
333.385	4.99
333.752	4.95
334.119	5.07
334.486	4.98
334.853	5
335.22	5.01
335.587	5.28
335.954	5.23
336.32	5.24
336.687	5.21
337.054	5.32
337.42	5.55
337.787	5.53
338.153	5.7
338.52	5.93
338.886	5.9
339.253	5.83
339.619	5.96
339.986	5.88
340.352	5.96
340.718	5.89
341.084	5.87
341.451	5.95
341.817	5.99
342.183	6.03
342.549	6.04
342.915	6.21
343.281	6.14
343.647	6.14
344.013	6.16
344.379	6.14
344.745	6.07
345.11	5.94
345.476	5.97
345.842	5.85
346.208	5.69
346.573	5.76
346.939	5.8
347.304	5.74
347.67	5.76
348.035	5.77
348.401	5.83
348.766	5.85
349.132	5.79
349.497	5.64
349.862	5.73
350.228	5.77
350.593	5.61
350.958	5.53
351.323	5.59
351.688	5.67
352.053	5.6
352.418	5.62
352.783	5.66
353.148	5.69
353.513	5.74
353.878	5.78
354.243	5.79
354.608	5.82
354.972	5.85
355.337	5.9
355.702	5.93
356.066	6.08
356.431	6.07
356.795	6.17
357.16	6.25
357.524	6.14
357.889	6.04
358.253	6.06
358.618	6.19
358.982	6.14
359.346	6.1
359.71	6.07
360.075	6.1
360.439	6.06
360.803	6.01
361.167	6.02
361.531	5.97
361.895	5.92
362.259	5.88
362.623	5.9
362.987	5.84
363.351	5.82
363.714	5.71
364.078	5.68
364.442	5.56
364.806	5.55
365.169	5.55
365.533	5.59
365.896	5.6
366.26	5.55
366.623	5.6
366.987	5.58
367.35	5.65
367.714	5.58
368.077	5.55
368.44	5.58
368.803	5.51
369.167	5.49
369.53	5.45
369.893	5.54
370.256	5.54
370.619	5.56
370.982	5.45
371.345	5.49
371.708	5.51
372.071	5.52
372.434	5.45
372.797	5.47
373.159	5.47
373.522	5.41
373.885	5.34
374.247	5.3
374.61	5.24
374.973	5.17
375.335	5.11
375.698	5.15
376.06	5.09
376.423	5.08
376.785	5.1
377.147	5.11
377.51	5.03
377.872	4.98
378.234	4.99
378.596	5.07
378.958	4.97
379.321	4.94
379.683	4.91
380.045	4.95
380.407	4.9
380.769	4.85
381.13	4.87
381.492	4.84
381.854	4.81
382.216	4.79
382.578	4.78
382.939	4.74
383.301	4.64
383.663	4.6
384.024	4.53
384.386	4.48
384.747	4.49
385.109	4.48
385.47	4.44
385.832	4.38
386.193	4.34
386.554	4.33
386.916	4.33
387.277	4.33
387.638	4.31
387.999	4.3
388.36	4.26
388.721	4.22
389.082	4.22
389.443	4.17
389.804	4.19
390.165	4.2
390.526	4.22
390.887	4.22
391.248	4.24
391.609	4.27
391.969	4.26
392.33	4.19
392.691	4.12
393.051	4.12
393.412	4.12
393.772	4.05
394.133	4.01
394.493	4
394.854	3.96
395.214	3.89
395.574	3.88
395.935	3.85
396.295	3.84
396.655	3.83
397.015	3.81
397.376	3.79
397.736	3.74
398.096	3.69
398.456	3.67
398.816	3.63
399.176	3.56
399.535	3.53
399.895	3.53
400.255	3.53
400.615	3.49
400.975	3.49
401.334	3.51
401.694	3.51
402.054	3.46
402.413	3.46
402.773	3.45
403.132	3.42
403.492	3.43
403.851	3.38
404.211	3.39
404.57	3.37
404.929	3.37
405.288	3.38
405.648	3.37
406.007	3.39
406.366	3.39
406.725	3.44
407.084	3.44
407.443	3.41
407.802	3.41
408.161	3.42
408.52	3.37
408.879	3.37
409.238	3.36
409.596	3.36
409.955	3.34
410.314	3.37
410.673	3.37
411.031	3.36
411.39	3.38
411.748	3.38
412.107	3.4
412.465	3.38
412.824	3.36
413.182	3.35
413.54	3.29
413.899	3.29
414.257	3.28
414.615	3.27
414.974	3.27
415.332	3.25
415.69	3.23
416.048	3.23
416.406	3.2
416.764	3.19
417.122	3.2
417.48	3.2
417.838	3.17
418.195	3.15
418.553	3.15
418.911	3.14
419.269	3.12
419.626	3.1
419.984	3.1
420.342	3.1
420.699	3.09
421.057	3.11
421.414	3.09
421.772	3.08
422.129	3.08
422.486	3.08
422.844	3.08
423.201	3.08
423.558	3.07
423.915	3.07
424.273	3.08
424.63	3.06
424.987	3.05
425.344	3.05
425.701	3.05
426.058	3.04
426.415	3.04
426.772	3.03
427.128	3.01
427.485	3
427.842	2.99
428.199	2.99
428.555	2.99
428.912	3
429.269	3.01
429.625	3
429.982	2.98
430.338	2.98
430.695	2.97
431.051	2.94
431.407	2.94
431.764	2.93
432.12	2.94
432.476	2.94
432.832	2.95
433.189	2.95
433.545	2.96
433.901	2.95
434.257	2.96
434.613	2.99
434.969	2.99
435.325	3
435.681	3.01
436.036	3.02
436.392	3.03
436.748	3.02
437.104	3.01
437.459	3.01
437.815	3.01
438.171	3.01
438.526	3.04
438.882	3.05
439.237	3.05
439.593	3.06
439.948	3.06
440.304	3.06
440.659	3.06
441.014	3.06
441.369	3.07
441.725	3.03
442.08	3.02
442.435	3.02
442.79	3
443.145	2.98
443.5	2.98
443.855	2.96
444.21	2.95
444.565	2.95
444.92	2.97
445.275	2.97
445.629	2.96
445.984	2.96
446.339	2.94
446.693	2.92
447.048	2.9
447.403	2.88
447.757	2.86
448.112	2.84
448.466	2.83
448.82	2.82
449.175	2.84
449.529	2.84
449.883	2.84
450.238	2.84
450.592	2.84
450.946	2.82
451.3	2.81
451.654	2.82
452.008	2.81
452.362	2.79
452.716	2.8
453.07	2.8
453.424	2.79
453.778	2.8
454.132	2.8
454.486	2.79
454.839	2.79
455.193	2.8
455.547	2.8
455.9	2.81
456.254	2.81
456.607	2.81
456.961	2.79
457.314	2.8
457.668	2.81
458.021	2.81
458.375	2.82
458.728	2.82
459.081	2.83
459.434	2.83
459.787	2.85
460.141	2.86
460.494	2.85
460.847	2.86
461.2	2.86
461.553	2.87
461.906	2.88
462.259	2.89
462.611	2.92
462.964	2.93
463.317	2.94
463.67	2.95
464.022	2.96
464.375	2.98
464.728	2.98
465.08	2.99
465.433	2.99
465.785	3
466.138	3
466.49	3
466.843	3.02
467.195	3.01
467.547	3
467.899	3.01
468.252	3.02
468.604	3.02
468.956	3.03
469.308	3.02
469.66	3
470.012	3.01
470.364	3.01
470.716	3.01
471.068	3.01
471.42	3.01
471.772	3.01
472.123	3.02
472.475	3.01
472.827	3.02
473.178	3.02
473.53	3.03
473.882	3.02
474.233	3.02
474.585	3.02
474.936	3
475.288	3.01
475.639	3.01
475.99	3
476.342	3.01
476.693	3.03
477.044	3.06
477.395	3.03
477.746	3.03
478.097	3.01
478.448	3.02
478.8	3.02
479.15	3
479.501	3
479.852	3
480.203	2.99
480.554	2.99
480.905	2.99
481.255	2.99
481.606	3
481.957	2.99
482.307	3.01
482.658	3.02
483.009	3.02
483.359	3.02
483.709	3.02
484.06	3.02
484.41	3.02
484.761	3.02
485.111	3.02
485.461	3.02
485.811	3.03
486.162	3.03
486.512	3.05
486.862	3.05
487.212	3.05
487.562	3.06
487.912	3.06
488.262	3.05
488.612	3.06
488.961	3.06
489.311	3.07
489.661	3.07
490.011	3.07
490.36	3.06
490.71	3.06
491.06	3.06
491.409	3.07
491.759	3.07
492.108	3.08
492.458	3.09
492.807	3.09
493.157	3.09
493.506	3.11
493.855	3.11
494.204	3.12
494.554	3.13
494.903	3.13
495.252	3.15
495.601	3.17
495.95	3.19
496.299	3.2
496.648	3.21
496.997	3.23
497.346	3.26
497.695	3.29
498.043	3.31
498.392	3.33
498.741	3.36
499.09	3.37
499.438	3.41
499.787	3.44
500.135	3.47
500.484	3.51
500.832	3.53
501.181	3.54
501.529	3.57
501.878	3.63
502.226	3.66
502.574	3.7
502.923	3.73
503.271	3.76
503.619	3.81
503.967	3.84
504.315	3.86
504.663	3.88
505.011	3.94
505.359	3.99
505.707	4.03
506.055	4.08
506.403	4.16
506.751	4.2
507.098	4.26
507.446	4.32
507.794	4.36
508.141	4.42
508.489	4.49
508.837	4.56
509.184	4.62
509.531	4.72
509.879	4.79
510.226	4.87
510.574	4.94
510.921	5
511.268	5.07
511.616	5.17
511.963	5.26
512.31	5.33
512.657	5.42
513.004	5.5
513.351	5.6
513.698	5.69
514.045	5.77
514.392	5.86
514.739	5.94
515.086	6.06
515.432	6.14
515.779	6.22
516.126	6.33
516.473	6.42
516.819	6.49
517.166	6.58
517.512	6.67
517.859	6.76
518.205	6.84
518.552	6.95
518.898	7.03
519.245	7.1
519.591	7.2
519.937	7.29
520.283	7.39
520.629	7.48
520.976	7.6
521.322	7.73
521.668	7.85
522.014	8
522.36	8.12
522.706	8.3
523.052	8.46
523.398	8.67
523.743	8.85
524.089	9.03
524.435	9.2
524.781	9.38
525.126	9.56
525.472	9.73
525.817	9.87
526.163	10
526.509	10.14
526.854	10.26
527.199	10.39
527.545	10.5
527.89	10.64
528.235	10.76
528.581	10.9
528.926	11.02
529.271	11.16
529.616	11.29
529.961	11.42
530.306	11.56
530.651	11.68
530.996	11.84
531.341	12.01
531.686	12.2
532.031	12.36
532.376	12.53
532.721	12.71
533.065	12.91
533.41	13.1
533.755	13.32
534.099	13.54
534.444	13.77
534.788	13.97
535.133	14.17
535.477	14.4
535.822	14.62
536.166	14.87
536.51	15.12
536.855	15.43
537.199	15.73
537.543	16.06
537.887	16.37
538.231	16.69
538.576	17.01
538.92	17.3
539.264	17.59
539.608	17.86
539.951	18.13
540.295	18.38
540.639	18.67
540.983	18.91
541.327	19.16
541.671	19.39
542.014	19.66
542.358	19.91
542.701	20.16
543.045	20.42
543.389	20.67
543.732	20.95
544.075	21.17
544.419	21.45
544.762	21.72
545.105	22.02
545.449	22.3
545.792	22.6
546.135	22.93
546.478	23.29
546.821	23.67
547.165	24.02
547.508	24.39
547.851	24.75
548.194	25.13
548.536	25.5
548.879	25.9
549.222	26.26
549.565	26.58
549.908	26.93
550.25	27.32
550.593	27.66
550.936	28.01
551.278	28.39
551.621	28.72
551.963	29.07
552.306	29.44
552.648	29.77
552.991	30.08
553.333	30.44
553.675	30.75
554.017	31.06
554.36	31.41
554.702	31.76
555.044	32.03
555.386	32.31
555.728	32.64
556.07	32.92
556.412	33.28
556.754	33.65
557.096	34.02
557.438	34.34
557.78	34.74
558.121	35.11
558.463	35.44
558.805	35.81
559.147	36.15
559.488	36.5
559.83	36.81
560.171	37.17
560.513	37.44
560.854	37.73
561.196	38.04
561.537	38.32
561.878	38.56
562.22	38.88
562.561	39.17
562.902	39.43
563.243	39.72
563.584	39.97
563.925	40.21
564.266	40.44
564.607	40.66
564.948	40.86
565.289	41.11
565.63	41.37
565.971	41.57
566.312	41.77
566.653	41.98
566.993	42.23
567.334	42.44
567.675	42.69
568.015	42.93
568.356	43.14
568.696	43.4
569.037	43.63
569.377	43.8
569.718	44
570.058	44.15
570.398	44.33
570.739	44.55
571.079	44.78
571.419	45.01
571.759	45.22
572.099	45.42
572.439	45.6
572.779	45.75
573.119	45.92
573.459	46.15
573.799	46.32
574.139	46.47
574.479	46.63
574.819	46.76
575.158	46.92
575.498	47.07
575.838	47.25
576.177	47.43
576.517	47.6
576.856	47.78
577.196	48.05
577.535	48.26
577.875	48.44
578.214	48.54
578.553	48.71
578.893	48.91
579.232	49.01
579.571	49.18
579.91	49.39
580.25	49.53
580.589	49.6
580.928	49.66
581.267	49.87
581.606	50.04
581.945	50.2
582.283	50.35
582.622	50.55
582.961	50.66
583.3	50.74
583.639	50.99
583.977	51.09
584.316	51.15
584.654	51.23
584.993	51.34
585.332	51.51
585.67	51.65
586.008	51.71
586.347	51.9
586.685	51.99
587.024	52.09
587.362	52.26
587.7	52.4
588.038	52.61
588.376	52.68
588.715	52.77
589.053	52.93
589.391	53.04
589.729	53.1
590.067	53.23
590.404	53.4
590.742	53.53
591.08	53.64
591.418	53.89
591.756	54.06
592.093	54.14
592.431	54.22
592.769	54.3
593.106	54.44
593.444	54.5
593.781	54.62
594.119	54.7
594.456	54.74
594.793	54.75
595.131	54.79
595.468	54.85
595.805	54.94
596.143	55.04
596.48	55.11
596.817	55.17
597.154	55.25
597.491	55.29
597.828	55.31
598.165	55.4
598.502	55.37
598.839	55.4
599.176	55.49
599.512	55.56
599.849	55.62
600.186	55.74
600.523	55.76
600.859	55.8
601.196	55.95
601.532	56.02
601.869	56.2
602.205	56.33
602.542	56.44
602.878	56.48
603.215	56.53
603.551	56.54
603.887	56.64
604.223	56.61
604.56	56.68
604.896	56.66
605.232	56.73
605.568	56.67
605.904	56.72
606.24	56.8
606.576	56.9
606.912	57
607.248	57
607.583	57.12
607.919	57.18
608.255	57.1
608.591	57.17
608.926	57.23
609.262	57.3
609.597	57.41
609.933	57.43
610.268	57.51
610.604	57.62
610.939	57.68
611.275	57.77
611.61	57.84
611.945	58.02
612.281	58.01
612.616	58.16
612.951	58.26
613.286	58.3
613.621	58.41
613.956	58.41
614.291	58.49
614.626	58.59
614.961	58.72
615.296	58.85
615.631	58.96
615.966	58.96
616.3	58.97
616.635	58.9
616.97	59.02
617.304	58.98
617.639	59.01
617.973	59.09
618.308	59.09
618.642	59.06
618.977	59.07
619.311	59.13
619.646	59.14
619.98	59.23
620.314	59.32
620.648	59.35
620.983	59.38
621.317	59.45
621.651	59.49
621.985	59.49
622.319	59.56
622.653	59.56
622.987	59.73
623.321	59.76
623.655	59.8
623.988	59.89
624.322	59.89
624.656	59.96
624.99	59.97
625.323	60.02
625.657	60.08
625.99	60.09
626.324	60.12
626.657	60.17
626.991	60.14
627.324	60.14
627.658	60.11
627.991	60.16
628.324	60.08
628.657	60.14
628.991	60.17
629.324	60.15
629.657	60.25
629.99	60.24
630.323	60.31
630.656	60.33
630.989	60.34
631.322	60.47
631.655	60.46
631.987	60.38
632.32	60.41
632.653	60.44
632.986	60.4
633.318	60.43
633.651	60.49
633.984	60.56
634.316	60.63
634.649	60.71
634.981	60.67
635.313	60.79
635.646	60.82
635.978	60.87
636.31	60.95
636.643	60.82
636.975	60.78
637.307	60.68
637.639	60.71
637.971	60.61
638.303	60.58
638.635	60.61
638.967	60.7
639.299	60.77
639.631	60.71
639.963	60.71
640.295	60.72
640.626	60.69
640.958	60.69
641.29	60.63
641.621	60.53
641.953	60.64
642.285	60.68
642.616	60.7
642.948	60.64
643.279	60.63
643.61	60.65
643.942	60.75
644.273	60.75
644.604	60.84
644.936	60.92
645.267	60.82
645.598	60.75
645.929	60.74
646.26	60.82
646.591	60.98
646.922	61.05
647.253	61.09
647.584	61.15
647.915	61.13
648.245	61.09
648.576	61.2
648.907	61.21
649.238	61.19
649.568	61.17
649.899	61.18
650.229	61.31
650.56	61.42
650.89	61.33
651.221	61.43
651.551	61.43
651.882	61.47
652.212	61.61
652.542	61.64
652.872	61.62
653.203	61.54
653.533	61.53
653.863	61.6
654.193	61.65
654.523	61.6
654.853	61.69
655.183	61.79
655.513	61.7
655.843	61.72
656.172	61.74
656.502	61.77
656.832	61.82
657.162	61.84
657.491	61.93
657.821	61.99
658.15	62.06
658.48	61.88
658.809	61.85
659.139	61.79
659.468	61.84
659.798	61.99
660.127	62.04
660.456	62.06
660.785	62.09
661.115	62.09
661.444	62.23
661.773	62.17
662.102	62.18
662.431	62.17
662.76	62.29
663.089	62.34
663.418	62.18
663.747	62.19
664.076	62.13
664.404	62
664.733	62.09
665.062	62.03
665.39	62.39
665.719	62.42
666.048	62.61
666.376	62.62
666.705	62.51
667.033	62.44
667.362	62.56
667.69	62.52
668.018	62.53
668.347	62.51
668.675	62.52
669.003	62.58
669.331	62.75
669.659	62.58
669.987	62.62
670.315	62.81
670.643	62.75
670.971	62.83
671.299	62.98
671.627	62.98
671.955	63.07
672.283	62.85
672.61	62.84
672.938	62.7
673.266	62.64
673.593	62.75
673.921	62.85
674.249	62.74
674.576	62.83
674.904	62.9
675.231	62.91
675.558	62.98
675.886	62.89
676.213	62.78
676.54	62.72
676.867	62.75
677.195	62.82
677.522	62.8
677.849	62.83
678.176	62.85
678.503	62.77
678.83	62.56
679.157	62.63
679.484	62.56
679.81	62.72
680.137	62.81
680.464	62.8
680.791	62.69
681.117	62.64
681.444	62.57
681.771	62.42
682.097	62.43
682.424	62.44
682.75	62.39
683.077	62.51
683.403	62.73
683.729	62.82
684.056	62.7
684.382	62.74
684.708	62.69
685.034	62.5
685.36	62.49
685.686	62.69
686.012	62.8
686.339	62.98
686.664	62.82
686.99	62.96
687.316	62.9
687.642	63.02
687.968	63.16
688.294	63.26
688.619	63.37
688.945	63.46
689.271	63.41
689.596	63.52
689.922	63.5
690.247	63.27
690.573	63.13
690.898	63.2
691.224	63.27
691.549	63.26
691.874	63.29
692.2	63.38
692.525	63.59
692.85	63.42
693.175	63.36
693.5	63.39
693.825	63.36
694.15	63.42
694.475	63.45
694.8	63.2
695.125	63.19
695.45	63.09
695.775	62.9
696.099	62.92
696.424	62.87
696.749	62.95
697.073	63.15
697.398	63.15
697.723	63.06
698.047	62.93
698.372	62.78
698.696	62.87
699.02	62.82
699.345	62.63
699.669	62.64
699.993	62.56
700.318	62.58
700.642	62.47
700.966	62.48
701.29	62.53
701.614	62.67
701.938	62.75
702.262	62.98
702.586	63.02
702.91	62.98
703.234	63.08
703.557	62.93
703.881	62.83
704.205	62.79
704.529	62.9
704.852	63.09
705.176	63.41
705.499	63.25
705.823	63.26
706.146	63.37
706.47	63.45
706.793	63.46
707.117	63.5
707.44	63.26
707.763	63.26
708.086	63.2
708.409	63.26
708.733	63.24
709.056	63.15
709.379	63.33
709.702	63.45
710.025	63.33
710.348	63.56
710.671	63.72
710.993	63.81
711.316	63.87
711.639	64
711.962	63.99
712.284	64.35
712.607	64.35
712.93	64.33
713.252	64.09
713.575	64.25
713.897	64.42
714.22	64.61
714.542	64.78
714.864	64.73
715.187	64.54
715.509	64.49
715.831	64.53
716.153	64.38
716.475	64.53
716.798	64.6
717.12	64.18
717.442	63.98
717.764	64.05
718.085	64.06
718.407	63.93
718.729	64.05
719.051	63.98
719.373	63.89
719.695	63.98
720.016	64.23
720.338	64.16
720.659	63.77
720.981	63.7
721.302	63.46
721.624	63.45
721.945	63.69
722.267	63.69
722.588	63.46
722.909	63.48
723.231	63.38
723.552	63.36
723.873	63.61
724.194	63.73
724.515	63.46
724.836	63.35
725.157	63.31
725.478	63.14
725.799	63.14
726.12	63.13
726.441	62.95
726.762	62.99
727.083	63.08
727.403	63.31
727.724	63.75
728.045	63.84
728.365	63.87
728.686	63.88
729.006	63.82
729.327	63.95
729.647	64.07
729.967	63.84
730.288	63.94
730.608	63.93
730.928	63.8
731.249	63.95
731.569	64.27
731.889	64.23
732.209	64.05
732.529	63.77
732.849	63.8
733.169	63.69
733.489	63.56
733.809	63.73
734.129	63.73
734.448	63.47
734.768	63.5
735.088	63.66
735.408	63.71
735.727	63.83
736.047	64.04
736.366	63.83
736.686	63.91
737.005	63.79
737.325	63.97
737.644	63.89
737.963	63.88
738.283	63.43
738.602	63.59
738.921	63.81
739.24	64.05
739.56	64.16
739.879	64.45
740.198	64.78
740.517	64.63
740.836	64.59
741.155	64.59
741.473	64.38
741.792	64.14
742.111	64.04
742.43	64.06
742.748	63.87
743.067	63.96
743.386	64.18
743.704	64.29
744.023	64.21
744.341	64.25
744.66	64.05
744.978	64.09
745.297	63.96
745.615	63.78
745.933	63.8
746.252	63.75
746.57	63.36
746.888	63.23
747.206	63.13
747.524	63.13
747.842	63.13
748.16	63.42
748.478	63.5
748.796	63.41
749.114	63.29
749.432	62.99
749.749	62.78
750.067	62.68
750.385	62.86
750.703	62.69
751.02	62.9
751.338	63.26
751.655	63.33
751.973	63.23
752.29	63.27
752.608	63.19
752.925	63.53
753.242	63.77
753.56	63.41
753.877	63.5
754.194	63.44
754.511	63.76
754.828	63.81
755.145	63.88
755.462	64.3
755.779	64.33
756.096	64.85
756.413	65.35
756.73	65.47
757.047	65.26
757.364	65.49
757.68	65.48
757.997	65.59
758.314	65.66
758.63	65.74
758.947	65.66
759.264	65.59
759.58	65.24
759.896	65.32
760.213	65.66
760.529	65.52
760.846	65.71
761.162	65.39
761.478	64.77
761.794	64.64
762.11	64.07
762.426	64.18
762.743	64.19
763.059	64.35
763.375	64.24
763.69	64.22
764.006	64.08
764.322	64.03
764.638	63.75
764.954	63.83
765.27	63.92
765.585	63.94
765.901	64.29
766.216	64.32
766.532	64.53
766.848	64.4
767.163	64.37
767.478	64.2
767.794	64.32
768.109	64.84
768.424	64.85
768.74	65.3
769.055	65.32
769.37	65.06
769.685	64.63
770	64.61
770.315	64.54
770.63	64.33
770.945	64.61
771.26	64.49
771.575	64.31
771.89	64.33
772.205	64.64
772.52	64.49
772.834	64.2
773.149	63.65
773.464	63.73
773.778	63.89
774.093	64.02
774.407	63.67
774.722	63.9
775.036	64.19
775.351	64.28
775.665	64.19
775.979	64.59
776.293	64.67
776.608	64.76
776.922	65.34
777.236	65.84
777.55	65.4
777.864	65.4
778.178	65.72
778.492	65.77
778.806	65.52
779.12	65.34
779.434	65.86
779.747	66.22
780.061	65.61
780.375	65.18
780.689	65.16
781.002	65.41
781.316	64.99
781.629	65.11
781.943	64.87
782.256	64.4
782.57	63.94
782.883	63.88
783.196	64.18
783.51	63.76
783.823	63.86
784.136	64.05
784.449	63.86
784.762	63.92
785.075	63.47
785.388	63.45
785.701	63.71
786.014	63.41
786.327	62.65
786.64	63.48
786.953	63.87
787.266	63.63
787.578	63.83
787.891	63.83
788.204	63.11
788.516	63.21
788.829	63.49
789.141	64.23
789.454	64.1
789.766	64.12
790.079	63.77
790.391	63.66
790.703	64.07
791.016	64.37
791.328	64.18
791.64	64.77
791.952	64.93
792.264	63.88
792.576	63.48
792.888	64.04
793.2	64.29
793.512	64.66
793.824	65.14
794.136	65.07
794.448	65.41
794.76	65.24
795.071	65.15
795.383	65.27
795.695	64.52
796.006	64.31
796.318	63.77
796.629	63.55
796.941	63.74
797.252	63.61
797.564	63.83
797.875	63.42
798.186	63.13
798.497	63.61
798.809	64.39
799.12	64.87
799.431	64.76
799.742	64.37
800.053	64.11
800.364	63.36
800.675	62.86
800.986	62.55
801.297	63.18
801.608	63.01
801.918	63.44
802.229	63.85
802.54	64.43
802.851	64.45
803.161	65.42
803.472	64.95
803.782	64.6
804.093	65.34
804.403	65.78
804.714	65.81
805.024	65.14
805.334	65.13
805.645	65.47
805.955	66.22
806.265	66.39
806.575	66.35
806.885	66.32
807.195	66.87
807.505	67.15
807.815	66.71
808.125	67.08
808.435	66.94
808.745	66.81
809.055	67.22
809.365	67.2
809.674	66.81
809.984	67.09
810.294	67.23
810.603	66.41
810.913	67.1
811.222	67.45
811.532	67.23
811.841	67.2
812.151	67.2
812.46	67.12
812.769	67.02
813.079	67.53
813.388	67.87
813.697	67.48
814.006	66.9
814.315	67.27
814.624	67.22
814.933	66.71
815.242	66.64
815.551	65.81
815.86	66
816.169	65.95
816.478	64.79
816.786	64.79
817.095	64.85
817.404	64.66
817.712	64.25
818.021	64.99
818.33	65.37
818.638	65.75
818.947	65.51
819.255	65.53
819.563	65.31
819.872	64.92
820.18	64.87
820.488	65.28
820.796	65.3
821.105	65.19
821.413	65.09
821.721	65.31
822.029	65.24
822.337	65.54
822.645	65.62
822.953	65.84
823.26	65.71
823.568	65.56
823.876	65.68
824.184	65.76
824.491	65.71
824.799	65.73
825.107	65.58
825.414	65.39
825.722	65.29
826.029	65.32
826.337	65.5
826.644	65.71
826.951	65.54
827.259	65.43
827.566	65.33
827.873	65.46
828.18	65.17
828.488	65.42
828.795	64.98
829.102	65.03
829.409	65.12
829.716	65.06
830.023	65.31
830.329	64.72
830.636	64.65
830.943	64.31
831.25	63.97
831.557	63.87
831.863	64.65
832.17	64.75
832.476	64.58
832.783	65.05
833.089	64.85
833.396	65.07
833.702	65.31
834.009	65.46
834.315	65.2
834.621	65.69
834.928	65.28
835.234	65.5
835.54	65.55
835.846	65.65
836.152	65.88
836.458	65.7
836.764	65.93
837.07	65.84
837.376	65.55
837.682	65.42
837.988	65.76
838.293	64.98
838.599	65.21
838.905	65.23
839.211	64.67
839.516	64.39
839.822	64.11
840.127	63.56
840.433	63.9
840.738	64.16
841.044	63.63
841.349	64.51
841.654	64.06
841.959	64.45
842.265	64.29
842.57	64.7
842.875	64.16
843.18	63.51
843.485	63.63
843.79	64.64
844.095	64.99
844.4	64.15
844.705	64.79
845.01	62.78
845.315	61.89
845.619	62.3
845.924	63.13
846.229	61.8
846.533	63.9
846.838	63.83
847.142	65.28
847.447	66.35
847.751	65.04
848.056	64.71
848.36	62.8
848.664	62.3
848.969	61.52
849.273	61.94
849.577	63.12
849.881	61.57
850.185	61.69
850.489	61.34
850.794	59.86
851.097	58.5
851.401	61.04
851.705	61.16
852.009	60.55
852.313	58.19
852.617	59.22
852.92	59.39
853.224	58.04
853.528	54.7
853.831	53.7
854.135	53.96
854.438	54.59
854.742	55.74
855.045	57.51
855.349	58.02
855.652	58.29
855.955	57.65
856.259	58.94
856.562	58.91
856.865	58.87
857.168	60.68
857.471	60.62
857.774	60.58
858.077	61.1
858.38	62.54
858.683	62.92
858.986	62.55
859.289	60.21
859.592	60.88
859.894	63.57
860.197	62.11
860.5	63.26
860.802	64.34
861.105	62.12
861.407	59.85
861.71	59.06
862.012	60.79
862.315	61.74
862.617	58.96
862.919	57.64
863.222	58.76
863.524	58.63
863.826	57.71
864.128	57.3
864.43	57.98
864.732	55.06
865.034	57.39
865.336	59.25
865.638	59.51
865.94	59.16
866.242	60.57
866.544	64.04
866.846	63.72
867.147	62.54
867.449	62.45
867.751	64.01
868.052	65.97
868.354	63.27
868.655	63.08
868.957	67.84
869.258	67.87
869.56	67.5
869.861	66.71
870.162	67.21
870.463	66.01
870.765	67.62
871.066	71.89
871.367	70.28
871.668	69.01
871.969	67.57
872.27	65.87
872.571	62.98
872.872	59.02
873.173	57.03
873.473	56.03
873.774	55.26
874.075	56.59
874.376	54.61
874.676	56.65
874.977	53.59
875.277	52.12
875.578	55.96
875.878	55.25
876.179	56.17
876.479	56.72
876.78	58.16
877.08	55.63
877.38	52.47
877.68	52.05
877.981	52.19
878.281	54.62
878.581	58.41
