Data from BA28302_Reflection_00014.txt Node
Date: Mon Nov 18 15:49:05 EST 2019
User: vgr7
Spectrometer: USB2G7710
Scans to average: 3
Trigger mode: 4
Integration Time (sec): 2.000000E-2
Electric dark correction enabled: true
Boxcar width: 10
XAxis mode: Wavelengths
Number of Pixels in Spectrum: 2048
>>>>>Begin Spectral Data<<<<<
177.721	-84.67
178.105	-2.36
178.488	-392.41
178.871	-144.14
179.254	625.42
179.636	47.37
180.019	3.77
180.402	15.91
180.785	-225.53
181.168	378.41
181.55	-59.24
181.933	151.91
182.316	100.53
182.698	90.86
183.081	109.59
183.463	224.45
183.846	130.23
184.228	-9.32
184.611	-11.49
184.993	-178.8
185.376	19671.43
185.758	-602.97
186.14	673.77
186.522	-28.86
186.904	8.52
187.287	-14.24
187.669	-75.12
188.051	-135.72
188.433	-363.98
188.815	-445.66
189.197	-1749.56
189.579	4860
189.961	-2222.03
190.342	-420.91
190.724	264.18
191.106	-1256.44
191.488	-150.79
191.869	-88.55
192.251	60.33
192.633	1297.18
193.014	561.76
193.396	447.89
193.777	8617.24
194.159	-5154.55
194.54	-355.3
194.922	-209.64
195.303	-264.38
195.684	-200.65
196.065	-151.62
196.447	-155.3
196.828	-173.28
197.209	-162.49
197.59	-545.76
197.971	-941.38
198.352	-41.67
198.733	-108.41
199.114	-57.58
199.495	-23.15
199.876	-1.01
200.257	48.7
200.638	76.44
201.018	95.99
201.399	136.63
201.78	164.59
202.16	141.96
202.541	129.74
202.922	263.73
203.302	145.53
203.683	52.84
204.063	-66.46
204.444	-127.17
204.824	-1031.87
205.204	-342.25
205.585	-127.23
205.965	-101.24
206.345	-271.88
206.725	-375.45
207.106	4254.93
207.486	779.46
207.866	541.23
208.246	1878.33
208.626	2351.4
209.006	748.35
209.386	891.78
209.766	-1264.37
210.145	-600.55
210.525	-282.27
210.905	-118.58
211.285	-116.98
211.664	-79.44
212.044	-29.36
212.424	-12.25
212.803	-14.67
213.183	-4.58
213.562	-15.92
213.942	-3.26
214.321	11.28
214.701	6.32
215.08	3.13
215.459	14.18
215.838	16.57
216.218	20.41
216.597	35.29
216.976	31.35
217.355	18.55
217.734	31.41
218.113	67.98
218.492	63.64
218.871	45.09
219.25	32.55
219.629	37.67
220.008	6.15
220.387	-15.16
220.766	-1.94
221.144	-13.3
221.523	-9.58
221.902	-24.68
222.28	-14.11
222.659	-2.44
223.037	-12.27
223.416	-11.6
223.794	-15.74
224.173	-7.6
224.551	-3.17
224.929	-12.64
225.308	-12.27
225.686	-13.38
226.064	-14.48
226.442	-13.02
226.821	-10.87
227.199	-8.16
227.577	-9.74
227.955	-4.81
228.333	-3.09
228.711	-1.95
229.089	1.29
229.467	0.25
229.845	1.69
230.222	-0.23
230.6	-0.58
230.978	2.34
231.356	3.14
231.733	2.86
232.111	1.22
232.488	1.05
232.866	1.36
233.243	1.42
233.621	2.42
233.998	1.64
234.376	0.57
234.753	2.98
235.13	2.59
235.508	2.94
235.885	3.09
236.262	2.79
236.639	1.17
237.016	0.27
237.393	1.58
237.77	2.68
238.147	3.75
238.524	3.9
238.901	4.39
239.278	4.25
239.655	4.62
240.032	5.02
240.409	4.04
240.785	3.72
241.162	3.7
241.539	3.29
241.915	3.05
242.292	2.86
242.668	2.37
243.045	2.64
243.421	2.6
243.798	2.2
244.174	1.68
244.551	1.97
244.927	1.96
245.303	2.08
245.679	1.99
246.056	1.75
246.432	1.69
246.808	1.48
247.184	1.29
247.56	1.22
247.936	1.07
248.312	1.21
248.688	1.38
249.064	1.31
249.44	1.4
249.815	1.64
250.191	1.9
250.567	1.99
250.943	1.75
251.318	1.6
251.694	1.61
252.069	1.88
252.445	1.79
252.82	2.01
253.196	1.77
253.571	1.61
253.947	1.63
254.322	1.72
254.697	2.04
255.073	2.04
255.448	1.75
255.823	1.82
256.198	2.11
256.573	2.15
256.948	2.33
257.323	2.47
257.698	2.35
258.073	2.23
258.448	2.11
258.823	2.27
259.198	2.33
259.573	2.49
259.948	2.46
260.322	2.47
260.697	2.35
261.072	2.54
261.446	2.56
261.821	2.62
262.195	2.72
262.57	2.58
262.944	2.54
263.319	2.56
263.693	2.52
264.067	2.55
264.442	2.58
264.816	2.54
265.19	2.3
265.564	2.31
265.938	2.21
266.313	2.44
266.687	2.22
267.061	2.29
267.435	2.25
267.809	2.54
268.183	2.48
268.556	2.41
268.93	2.4
269.304	2.57
269.678	2.52
270.051	2.45
270.425	2.5
270.799	2.51
271.172	2.53
271.546	2.59
271.919	2.39
272.293	2.45
272.666	2.67
273.04	2.76
273.413	2.81
273.787	2.74
274.16	2.58
274.533	2.48
274.906	2.41
275.279	2.45
275.653	2.18
276.026	2.24
276.399	2.24
276.772	2.11
277.145	1.85
277.518	1.72
277.891	1.79
278.263	1.79
278.636	1.81
279.009	1.86
279.382	1.88
279.755	1.9
280.127	1.95
280.5	1.88
280.872	2.02
281.245	1.94
281.617	2.08
281.99	2.14
282.362	2.31
282.735	2.21
283.107	2.16
283.479	2.3
283.852	2.23
284.224	2.16
284.596	2.23
284.968	2.42
285.34	2.58
285.713	2.44
286.085	2.38
286.457	2.39
286.829	2.44
287.201	2.42
287.572	2.37
287.944	2.27
288.316	2.22
288.688	2.06
289.06	2.04
289.431	2.05
289.803	2.01
290.175	2.09
290.546	2.28
290.918	2.24
291.289	2.16
291.661	2.3
292.032	2.59
292.403	2.6
292.775	2.6
293.146	2.53
293.517	2.48
293.889	2.45
294.26	2.49
294.631	2.56
295.002	2.61
295.373	2.72
295.744	2.75
296.115	2.77
296.486	2.74
296.857	2.82
297.228	2.9
297.599	2.87
297.97	2.91
298.34	2.86
298.711	2.97
299.082	3.18
299.452	3.22
299.823	3.1
300.194	3.09
300.564	3.04
300.935	3.06
301.305	3.11
301.676	3.22
302.046	3.34
302.416	3.39
302.787	3.43
303.157	3.48
303.527	3.6
303.897	3.63
304.267	3.92
304.637	3.88
305.008	3.82
305.378	3.97
305.748	3.88
306.117	3.96
306.487	3.97
306.857	3.81
307.227	3.74
307.597	3.82
307.967	3.84
308.336	3.88
308.706	3.91
309.076	4.03
309.445	4.06
309.815	3.96
310.184	3.98
310.554	3.92
310.923	3.89
311.293	3.91
311.662	3.93
312.031	3.83
312.401	3.91
312.77	4.09
313.139	4.24
313.508	4.32
313.877	4.33
314.246	4.34
314.616	4.4
314.985	4.42
315.353	4.34
315.722	4.52
316.091	4.56
316.46	4.61
316.829	4.68
317.198	4.68
317.567	4.78
317.935	4.64
318.304	4.75
318.672	4.78
319.041	4.85
319.41	4.9
319.778	4.92
320.147	4.89
320.515	4.84
320.883	4.61
321.252	4.71
321.62	4.78
321.988	4.71
322.357	4.62
322.725	4.79
323.093	5.02
323.461	5.01
323.829	5.18
324.197	5.32
324.565	5.39
324.933	5.46
325.301	5.59
325.669	5.72
326.037	5.59
326.405	5.69
326.772	5.73
327.14	5.83
327.508	5.85
327.875	5.98
328.243	6.05
328.61	6.17
328.978	6.08
329.346	6.17
329.713	6.24
330.08	6.43
330.448	6.38
330.815	6.3
331.182	6.19
331.55	6.07
331.917	6.11
332.284	6.15
332.651	6.07
333.018	6.04
333.385	6.04
333.752	6.2
334.119	6.24
334.486	6.13
334.853	6.13
335.22	6.07
335.587	6.08
335.954	6.09
336.32	6.1
336.687	6.26
337.054	6.26
337.42	6.35
337.787	6.43
338.153	6.48
338.52	6.56
338.886	6.51
339.253	6.59
339.619	6.53
339.986	6.57
340.352	6.76
340.718	6.87
341.084	6.88
341.451	6.97
341.817	7
342.183	7.11
342.549	7.07
342.915	7.21
343.281	7.21
343.647	7.19
344.013	7.28
344.379	7.26
344.745	7.26
345.11	7.27
345.476	7.16
345.842	7.14
346.208	7.18
346.573	7.29
346.939	7.34
347.304	7.38
347.67	7.36
348.035	7.31
348.401	7.25
348.766	7.33
349.132	7.34
349.497	7.32
349.862	7.34
350.228	7.43
350.593	7.4
350.958	7.43
351.323	7.39
351.688	7.36
352.053	7.34
352.418	7.28
352.783	7.29
353.148	7.29
353.513	7.41
353.878	7.35
354.243	7.42
354.608	7.43
354.972	7.38
355.337	7.44
355.702	7.48
356.066	7.51
356.431	7.47
356.795	7.44
357.16	7.46
357.524	7.42
357.889	7.35
358.253	7.35
358.618	7.34
358.982	7.33
359.346	7.26
359.71	7.32
360.075	7.34
360.439	7.29
360.803	7.3
361.167	7.22
361.531	7.2
361.895	7.1
362.259	7.08
362.623	7.11
362.987	7.03
363.351	7.01
363.714	6.95
364.078	6.88
364.442	6.86
364.806	6.84
365.169	6.88
365.533	6.82
365.896	6.79
366.26	6.81
366.623	6.83
366.987	6.82
367.35	6.72
367.714	6.76
368.077	6.73
368.44	6.76
368.803	6.78
369.167	6.73
369.53	6.7
369.893	6.68
370.256	6.64
370.619	6.62
370.982	6.52
371.345	6.48
371.708	6.53
372.071	6.44
372.434	6.37
372.797	6.33
373.159	6.31
373.522	6.34
373.885	6.29
374.247	6.23
374.61	6.2
374.973	6.25
375.335	6.14
375.698	6.17
376.06	6.11
376.423	6.09
376.785	6.1
377.147	6.11
377.51	5.96
377.872	5.92
378.234	5.86
378.596	5.89
378.958	5.85
379.321	5.81
379.683	5.85
380.045	5.8
380.407	5.69
380.769	5.61
381.13	5.52
381.492	5.44
381.854	5.44
382.216	5.39
382.578	5.28
382.939	5.22
383.301	5.12
383.663	5.03
384.024	4.94
384.386	4.9
384.747	4.88
385.109	4.9
385.47	4.84
385.832	4.85
386.193	4.81
386.554	4.81
386.916	4.78
387.277	4.73
387.638	4.69
387.999	4.64
388.36	4.63
388.721	4.57
389.082	4.57
389.443	4.45
389.804	4.47
390.165	4.43
390.526	4.39
390.887	4.34
391.248	4.38
391.609	4.35
391.969	4.3
392.33	4.21
392.691	4.18
393.051	4.16
393.412	4.08
393.772	4.02
394.133	3.94
394.493	3.91
394.854	3.87
395.214	3.85
395.574	3.87
395.935	3.85
396.295	3.83
396.655	3.77
397.015	3.8
397.376	3.74
397.736	3.71
398.096	3.74
398.456	3.71
398.816	3.67
399.176	3.62
399.535	3.59
399.895	3.55
400.255	3.52
400.615	3.48
400.975	3.47
401.334	3.45
401.694	3.44
402.054	3.42
402.413	3.4
402.773	3.34
403.132	3.27
403.492	3.25
403.851	3.25
404.211	3.23
404.57	3.18
404.929	3.16
405.288	3.13
405.648	3.09
406.007	3.08
406.366	3.05
406.725	3.05
407.084	3.08
407.443	3.12
407.802	3.12
408.161	3.12
408.52	3.11
408.879	3.09
409.238	3.1
409.596	3.08
409.955	3.03
410.314	3.07
410.673	3.06
411.031	3.06
411.39	3.04
411.748	3.04
412.107	3.04
412.465	3.01
412.824	2.99
413.182	2.99
413.54	2.96
413.899	2.98
414.257	2.98
414.615	2.94
414.974	2.9
415.332	2.86
415.69	2.83
416.048	2.8
416.406	2.79
416.764	2.76
417.122	2.74
417.48	2.72
417.838	2.7
418.195	2.7
418.553	2.68
418.911	2.67
419.269	2.65
419.626	2.65
419.984	2.65
420.342	2.65
420.699	2.62
421.057	2.62
421.414	2.6
421.772	2.58
422.129	2.56
422.486	2.56
422.844	2.57
423.201	2.58
423.558	2.56
423.915	2.55
424.273	2.56
424.63	2.55
424.987	2.55
425.344	2.55
425.701	2.53
426.058	2.53
426.415	2.53
426.772	2.54
427.128	2.52
427.485	2.52
427.842	2.51
428.199	2.54
428.555	2.52
428.912	2.53
429.269	2.54
429.625	2.55
429.982	2.52
430.338	2.48
430.695	2.47
431.051	2.47
431.407	2.47
431.764	2.45
432.12	2.47
432.476	2.44
432.832	2.44
433.189	2.44
433.545	2.43
433.901	2.4
434.257	2.4
434.613	2.4
434.969	2.39
435.325	2.38
435.681	2.37
436.036	2.39
436.392	2.37
436.748	2.35
437.104	2.34
437.459	2.35
437.815	2.35
438.171	2.36
438.526	2.38
438.882	2.37
439.237	2.36
439.593	2.35
439.948	2.36
440.304	2.36
440.659	2.36
441.014	2.36
441.369	2.36
441.725	2.34
442.08	2.34
442.435	2.33
442.79	2.32
443.145	2.31
443.5	2.29
443.855	2.3
444.21	2.3
444.565	2.3
444.92	2.31
445.275	2.31
445.629	2.29
445.984	2.27
446.339	2.26
446.693	2.25
447.048	2.24
447.403	2.22
447.757	2.21
448.112	2.2
448.466	2.21
448.82	2.21
449.175	2.23
449.529	2.22
449.883	2.21
450.238	2.21
450.592	2.22
450.946	2.21
451.3	2.19
451.654	2.18
452.008	2.19
452.362	2.17
452.716	2.18
453.07	2.2
453.424	2.19
453.778	2.2
454.132	2.2
454.486	2.2
454.839	2.19
455.193	2.18
455.547	2.19
455.9	2.17
456.254	2.17
456.607	2.16
456.961	2.17
457.314	2.19
457.668	2.18
458.021	2.18
458.375	2.18
458.728	2.18
459.081	2.19
459.434	2.19
459.787	2.19
460.141	2.18
460.494	2.15
460.847	2.16
461.2	2.15
461.553	2.17
461.906	2.19
462.259	2.21
462.611	2.21
462.964	2.22
463.317	2.23
463.67	2.23
464.022	2.23
464.375	2.21
464.728	2.2
465.08	2.23
465.433	2.23
465.785	2.22
466.138	2.23
466.49	2.25
466.843	2.23
467.195	2.24
467.547	2.25
467.899	2.25
468.252	2.27
468.604	2.3
468.956	2.28
469.308	2.27
469.66	2.25
470.012	2.27
470.364	2.28
470.716	2.3
471.068	2.3
471.42	2.31
471.772	2.34
472.123	2.34
472.475	2.34
472.827	2.35
473.178	2.38
473.53	2.38
473.882	2.37
474.233	2.39
474.585	2.39
474.936	2.38
475.288	2.38
475.639	2.38
475.99	2.38
476.342	2.4
476.693	2.42
477.044	2.42
477.395	2.43
477.746	2.42
478.097	2.4
478.448	2.39
478.8	2.38
479.15	2.36
479.501	2.36
479.852	2.35
480.203	2.35
480.554	2.34
480.905	2.34
481.255	2.33
481.606	2.32
481.957	2.31
482.307	2.32
482.658	2.32
483.009	2.32
483.359	2.31
483.709	2.31
484.06	2.32
484.41	2.32
484.761	2.32
485.111	2.32
485.461	2.32
485.811	2.32
486.162	2.32
486.512	2.33
486.862	2.33
487.212	2.33
487.562	2.33
487.912	2.33
488.262	2.33
488.612	2.34
488.961	2.33
489.311	2.34
489.661	2.35
490.011	2.34
490.36	2.34
490.71	2.35
491.06	2.35
491.409	2.35
491.759	2.36
492.108	2.37
492.458	2.37
492.807	2.37
493.157	2.39
493.506	2.39
493.855	2.39
494.204	2.41
494.554	2.41
494.903	2.42
495.252	2.44
495.601	2.47
495.95	2.49
496.299	2.5
496.648	2.52
496.997	2.52
497.346	2.56
497.695	2.59
498.043	2.59
498.392	2.6
498.741	2.61
499.09	2.6
499.438	2.64
499.787	2.65
500.135	2.69
500.484	2.71
500.832	2.74
501.181	2.78
501.529	2.81
501.878	2.84
502.226	2.87
502.574	2.87
502.923	2.9
503.271	2.92
503.619	2.95
503.967	2.97
504.315	3
504.663	3.02
505.011	3.07
505.359	3.1
505.707	3.13
506.055	3.16
506.403	3.22
506.751	3.24
507.098	3.3
507.446	3.32
507.794	3.35
508.141	3.39
508.489	3.43
508.837	3.47
509.184	3.49
509.531	3.54
509.879	3.58
510.226	3.63
510.574	3.68
510.921	3.73
511.268	3.77
511.616	3.81
511.963	3.87
512.31	3.89
512.657	3.92
513.004	3.97
513.351	4.02
513.698	4.07
514.045	4.09
514.392	4.11
514.739	4.15
515.086	4.18
515.432	4.2
515.779	4.23
516.126	4.25
516.473	4.3
516.819	4.35
517.166	4.4
517.512	4.42
517.859	4.45
518.205	4.47
518.552	4.52
518.898	4.57
519.245	4.6
519.591	4.65
519.937	4.7
520.283	4.73
520.629	4.78
520.976	4.81
521.322	4.88
521.668	4.94
522.014	5.01
522.36	5.09
522.706	5.17
523.052	5.27
523.398	5.34
523.743	5.42
524.089	5.49
524.435	5.58
524.781	5.67
525.126	5.75
525.472	5.83
525.817	5.89
526.163	5.97
526.509	6.02
526.854	6.08
527.199	6.14
527.545	6.18
527.89	6.24
528.235	6.31
528.581	6.38
528.926	6.44
529.271	6.51
529.616	6.57
529.961	6.64
530.306	6.71
530.651	6.78
530.996	6.87
531.341	6.96
531.686	7.05
532.031	7.14
532.376	7.23
532.721	7.34
533.065	7.45
533.41	7.55
533.755	7.66
534.099	7.79
534.444	7.91
534.788	8.05
535.133	8.18
535.477	8.3
535.822	8.43
536.166	8.59
536.51	8.74
536.855	8.89
537.199	9.07
537.543	9.25
537.887	9.45
538.231	9.64
538.576	9.85
538.92	10.05
539.264	10.25
539.608	10.44
539.951	10.59
540.295	10.75
540.639	10.93
540.983	11.1
541.327	11.27
541.671	11.45
542.014	11.62
542.358	11.8
542.701	11.98
543.045	12.16
543.389	12.35
543.732	12.54
544.075	12.76
544.419	12.96
544.762	13.19
545.105	13.43
545.449	13.66
545.792	13.9
546.135	14.14
546.478	14.41
546.821	14.7
547.165	15
547.508	15.31
547.851	15.6
548.194	15.93
548.536	16.23
548.879	16.56
549.222	16.86
549.565	17.18
549.908	17.53
550.25	17.89
550.593	18.23
550.936	18.58
551.278	18.93
551.621	19.28
551.963	19.64
552.306	19.95
552.648	20.29
552.991	20.66
553.333	21.01
553.675	21.31
554.017	21.64
554.36	22.01
554.702	22.35
555.044	22.73
555.386	23.08
555.728	23.46
556.07	23.8
556.412	24.15
556.754	24.53
557.096	24.85
557.438	25.25
557.78	25.63
558.121	26.03
558.463	26.41
558.805	26.78
559.147	27.13
559.488	27.49
559.83	27.82
560.171	28.11
560.513	28.51
560.854	28.9
561.196	29.25
561.537	29.57
561.878	29.91
562.22	30.25
562.561	30.53
562.902	30.85
563.243	31.18
563.584	31.56
563.925	31.86
564.266	32.2
564.607	32.47
564.948	32.78
565.289	33.05
565.63	33.3
565.971	33.61
566.312	33.89
566.653	34.18
566.993	34.46
567.334	34.75
567.675	34.99
568.015	35.27
568.356	35.55
568.696	35.84
569.037	36.09
569.377	36.34
569.718	36.61
570.058	36.89
570.398	37.12
570.739	37.3
571.079	37.55
571.419	37.78
571.759	38.03
572.099	38.23
572.439	38.45
572.779	38.72
573.119	38.99
573.459	39.2
573.799	39.36
574.139	39.57
574.479	39.78
574.819	39.96
575.158	40.07
575.498	40.3
575.838	40.51
576.177	40.73
576.517	40.9
576.856	41.15
577.196	41.28
577.535	41.55
577.875	41.83
578.214	42.03
578.553	42.23
578.893	42.41
579.232	42.62
579.571	42.88
579.91	43.04
580.25	43.12
580.589	43.34
580.928	43.64
581.267	43.79
581.606	43.98
581.945	44.19
582.283	44.43
582.622	44.5
582.961	44.62
583.3	44.78
583.639	45
583.977	45.2
584.316	45.41
584.654	45.5
584.993	45.66
585.332	45.84
585.67	45.95
586.008	46.17
586.347	46.34
586.685	46.48
587.024	46.6
587.362	46.69
587.7	46.82
588.038	46.93
588.376	47.15
588.715	47.28
589.053	47.41
589.391	47.54
589.729	47.69
590.067	47.82
590.404	47.92
590.742	47.93
591.08	47.99
591.418	48.02
591.756	48.1
592.093	48.18
592.431	48.3
592.769	48.43
593.106	48.44
593.444	48.47
593.781	48.55
594.119	48.67
594.456	48.74
594.793	48.78
595.131	48.82
595.468	48.87
595.805	48.89
596.143	48.99
596.48	49.1
596.817	49.21
597.154	49.28
597.491	49.4
597.828	49.55
598.165	49.62
598.502	49.69
598.839	49.79
599.176	49.83
599.512	49.88
599.849	49.99
600.186	50.13
600.523	50.2
600.859	50.26
601.196	50.33
601.532	50.49
601.869	50.54
602.205	50.63
602.542	50.68
602.878	50.76
603.215	50.75
603.551	50.8
603.887	50.79
604.223	50.84
604.56	50.84
604.896	50.88
605.232	50.91
605.568	51.02
605.904	51.07
606.24	51.17
606.576	51.29
606.912	51.32
607.248	51.36
607.583	51.45
607.919	51.44
608.255	51.48
608.591	51.48
608.926	51.56
609.262	51.61
609.597	51.63
609.933	51.7
610.268	51.78
610.604	51.86
610.939	51.91
611.275	51.94
611.61	51.98
611.945	52.03
612.281	52.12
612.616	52.16
612.951	52.24
613.286	52.32
613.621	52.36
613.956	52.42
614.291	52.46
614.626	52.5
614.961	52.67
615.296	52.75
615.631	52.85
615.966	52.89
616.3	52.91
616.635	52.98
616.97	53.05
617.304	53.07
617.639	53.05
617.973	53.17
618.308	53.28
618.642	53.4
618.977	53.41
619.311	53.47
619.646	53.48
619.98	53.46
620.314	53.5
620.648	53.44
620.983	53.52
621.317	53.56
621.651	53.55
621.985	53.57
622.319	53.66
622.653	53.69
622.987	53.8
623.321	53.8
623.655	53.83
623.988	53.81
624.322	53.89
624.656	53.96
624.99	53.98
625.323	54.04
625.657	54.03
625.99	54.1
626.324	54.08
626.657	54.06
626.991	54.16
627.324	54.17
627.658	54.25
627.991	54.3
628.324	54.31
628.657	54.38
628.991	54.38
629.324	54.28
629.657	54.36
629.99	54.28
630.323	54.34
630.656	54.33
630.989	54.35
631.322	54.34
631.655	54.34
631.987	54.34
632.32	54.27
632.653	54.31
632.986	54.3
633.318	54.34
633.651	54.4
633.984	54.4
634.316	54.45
634.649	54.46
634.981	54.42
635.313	54.46
635.646	54.53
635.978	54.5
636.31	54.67
636.643	54.69
636.975	54.96
637.307	55.05
637.639	55.13
637.971	55.19
638.303	55.22
638.635	55.3
638.967	55.34
639.299	55.49
639.631	55.5
639.963	55.57
640.295	55.57
640.626	55.64
640.958	55.68
641.29	55.55
641.621	55.51
641.953	55.56
642.285	55.59
642.616	55.58
642.948	55.62
643.279	55.62
643.61	55.6
643.942	55.41
644.273	55.36
644.604	55.34
644.936	55.32
645.267	55.32
645.598	55.21
645.929	55.17
646.26	55.19
646.591	55.05
646.922	54.93
647.253	54.97
647.584	55.07
647.915	55.12
648.245	55.19
648.576	55.35
648.907	55.33
649.238	55.33
649.568	55.33
649.899	55.34
650.229	55.29
650.56	55.34
650.89	55.51
651.221	55.55
651.551	55.59
651.882	55.59
652.212	55.55
652.542	55.7
652.872	55.73
653.203	55.65
653.533	55.74
653.863	55.79
654.193	55.9
654.523	55.87
654.853	55.71
655.183	55.72
655.513	55.58
655.843	55.51
656.172	55.48
656.502	55.47
656.832	55.49
657.162	55.49
657.491	55.56
657.821	55.48
658.15	55.41
658.48	55.43
658.809	55.61
659.139	55.81
659.468	55.79
659.798	55.87
660.127	55.92
660.456	56.05
660.785	56.06
661.115	56
661.444	56.02
661.773	56.14
662.102	56.13
662.431	56.26
662.76	56.26
663.089	56.31
663.418	56.39
663.747	56.39
664.076	56.49
664.404	56.36
664.733	56.41
665.062	56.59
665.39	56.57
665.719	56.34
666.048	56.28
666.376	56.22
666.705	56.12
667.033	56.16
667.362	56.04
667.69	56.1
668.018	55.97
668.347	55.88
668.675	55.93
669.003	56.02
669.331	56.01
669.659	56.1
669.987	56.02
670.315	56.01
670.643	56.08
670.971	56.01
671.299	55.95
671.627	55.95
671.955	55.88
672.283	55.94
672.61	56.11
672.938	55.96
673.266	56.06
673.593	56.21
673.921	56.17
674.249	56.18
674.576	56.1
674.904	56.27
675.231	56.32
675.558	56.21
675.886	56.19
676.213	56.15
676.54	56.14
676.867	56.18
677.195	56.06
677.522	56.08
677.849	56.14
678.176	56.26
678.503	56.15
678.83	56.13
679.157	56.06
679.484	55.96
679.81	56.01
680.137	55.92
680.464	55.93
680.791	55.93
681.117	55.93
681.444	55.96
681.771	55.92
682.097	55.83
682.424	55.84
682.75	55.83
683.077	55.93
683.403	55.97
683.729	56.13
684.056	56.25
684.382	56.21
684.708	56.14
685.034	56.11
685.36	56.14
685.686	56.26
686.012	56.24
686.339	56.37
686.664	56.47
686.99	56.52
687.316	56.51
687.642	56.54
687.968	56.56
688.294	56.62
688.619	56.63
688.945	56.75
689.271	56.81
689.596	56.73
689.922	56.68
690.247	56.75
690.573	56.69
690.898	56.45
691.224	56.5
691.549	56.48
691.874	56.53
692.2	56.69
692.525	56.49
692.85	56.52
693.175	56.48
693.5	56.39
693.825	56.39
694.15	56.27
694.475	56.1
694.8	56.13
695.125	56.18
695.45	56.31
695.775	56.27
696.099	56.24
696.424	56.42
696.749	56.26
697.073	56.19
697.398	56.22
697.723	56.45
698.047	56.48
698.372	56.47
698.696	56.46
699.02	56.3
699.345	56.41
699.669	56.5
699.993	56.44
700.318	56.51
700.642	56.42
700.966	56.52
701.29	56.69
701.614	56.81
701.938	56.79
702.262	56.71
702.586	56.77
702.91	56.86
703.234	56.83
703.557	57.06
703.881	57.09
704.205	57.08
704.529	57.03
704.852	57
705.176	57.12
705.499	57.11
705.823	57.24
706.146	57.37
706.47	57.43
706.793	57.57
707.117	57.53
707.44	57.76
707.763	57.71
708.086	57.5
708.409	57.49
708.733	57.53
709.056	57.56
709.379	57.56
709.702	57.48
710.025	57.41
710.348	57.35
710.671	57.25
710.993	57.19
711.316	57.16
711.639	56.96
711.962	56.97
712.284	56.92
712.607	56.62
712.93	56.56
713.252	56.44
713.575	56.28
713.897	56.28
714.22	56.16
714.542	56.17
714.864	56.49
715.187	56.52
715.509	56.31
715.831	56.2
716.153	56.2
716.475	56.26
716.798	56.29
717.12	56.15
717.442	56.34
717.764	56.29
718.085	56.28
718.407	56.54
718.729	56.67
719.051	56.72
719.373	57.09
719.695	56.98
720.016	57.04
720.338	57.01
720.659	56.99
720.981	57.15
721.302	57.13
721.624	56.95
721.945	56.77
722.267	56.83
722.588	56.95
722.909	56.96
723.231	57.01
723.552	56.94
723.873	57.02
724.194	57.11
724.515	57.19
724.836	57.34
725.157	57.24
725.478	56.79
725.799	56.77
726.12	56.81
726.441	56.86
726.762	56.87
727.083	57.07
727.403	56.82
727.724	56.88
728.045	56.94
728.365	56.96
728.686	57.14
729.006	57.36
729.327	57.35
729.647	57.48
729.967	57.36
730.288	57.56
730.608	57.52
730.928	57.46
731.249	57.44
731.569	57.49
731.889	57.63
732.209	57.78
732.529	57.79
732.849	57.76
733.169	57.89
733.489	57.84
733.809	57.9
734.129	58.26
734.448	58.04
734.768	57.97
735.088	58.02
735.408	57.91
735.727	57.94
736.047	57.81
736.366	57.57
736.686	57.75
737.005	57.73
737.325	57.71
737.644	57.46
737.963	57.31
738.283	57.23
738.602	57.27
738.921	57.3
739.24	57.31
739.56	57.36
739.879	57.32
740.198	57.46
740.517	57.42
740.836	57.43
741.155	57.53
741.473	57.89
741.792	57.87
742.111	57.69
742.43	57.67
742.748	57.77
743.067	58.06
743.386	58.05
743.704	58.03
744.023	58.27
744.341	58.25
744.66	58.45
744.978	58.14
745.297	57.85
745.615	58.03
745.933	58.12
746.252	58.01
746.57	57.95
746.888	57.81
747.206	57.89
747.524	57.66
747.842	57.68
748.16	57.57
748.478	57.58
748.796	57.64
749.114	57.9
749.432	58.03
749.749	57.87
750.067	57.45
750.385	57.44
750.703	57.37
751.02	57.75
751.338	57.66
751.655	57.99
751.973	57.92
752.29	57.79
752.608	57.81
752.925	58.38
753.242	58.15
753.56	58.08
753.877	57.96
754.194	57.96
754.511	57.93
754.828	57.81
755.145	57.41
755.462	57.37
755.779	57.04
756.096	57.05
756.413	56.89
756.73	57.17
757.047	56.94
757.364	56.66
757.68	56.17
757.997	56.26
758.314	56.19
758.63	56.54
758.947	56.59
759.264	56.48
759.58	55.81
759.896	55.91
760.213	55.97
760.529	55.85
760.846	55.87
761.162	55.98
761.478	55.85
761.794	56.24
762.11	56.47
762.426	56.02
762.743	55.85
763.059	55.92
763.375	56.28
763.69	56.51
764.006	56.6
764.322	56.91
764.638	57.05
764.954	57.24
765.27	57.17
765.585	57.27
765.901	57.29
766.216	57.54
766.532	57.66
766.848	57.64
767.163	57.92
767.478	58.15
767.794	58.13
768.109	58.33
768.424	58.29
768.74	58.36
769.055	59.08
769.37	59.14
769.685	59.12
770	58.94
770.315	59.1
770.63	59.41
770.945	59.52
771.26	59.57
771.575	59.4
771.89	59.65
772.205	59.86
772.52	60.14
772.834	60.08
773.149	59.78
773.464	60.1
773.778	59.83
774.093	59.57
774.407	59.49
774.722	59.29
775.036	59.47
775.351	59.61
775.665	59.24
775.979	59.21
776.293	59.8
776.608	59.6
776.922	59.33
777.236	59.14
777.55	59.07
777.864	58.88
778.178	58.88
778.492	58.51
778.806	58.03
779.12	57.92
779.434	57.81
779.747	57.94
780.061	58.08
780.375	58.23
780.689	58.3
781.002	58.16
781.316	58.52
781.629	58.4
781.943	58.07
782.256	58.61
782.57	58.96
782.883	58.4
783.196	58.5
783.51	58.11
783.823	58.3
784.136	58.3
784.449	57.96
784.762	58.26
785.075	58.42
785.388	58.64
785.701	58.51
786.014	58.27
786.327	58.03
786.64	57.99
786.953	58.15
787.266	58.08
787.578	58.19
787.891	57.84
788.204	57.41
788.516	57.44
788.829	57.01
789.141	56.64
789.454	56.65
789.766	57.03
790.079	57.08
790.391	56.9
790.703	57.09
791.016	57.45
791.328	57.52
791.64	57.63
791.952	58.03
792.264	57.53
792.576	57.69
792.888	58.07
793.2	57.87
793.512	57.97
793.824	58.28
794.136	57.99
794.448	57.69
794.76	58.28
795.071	57.96
795.383	58.16
795.695	58.49
796.006	58.8
796.318	58.09
796.629	58.19
796.941	58.2
797.252	58.19
797.564	57.71
797.875	57.18
798.186	56.8
798.497	56.87
798.809	57.32
799.12	57.45
799.431	57.46
799.742	57.46
800.053	57.35
800.364	56.82
800.675	57.36
800.986	57.88
801.297	57.35
801.608	57.74
801.918	57.37
802.229	57.22
802.54	57.31
802.851	57.55
803.161	58.08
803.472	58.1
803.782	57.93
804.093	58.49
804.403	58.45
804.714	58.74
805.024	57.99
805.334	57.87
805.645	58.38
805.955	58.81
806.265	58.72
806.575	58.68
806.885	59.05
807.195	59.26
807.505	59.85
807.815	60.71
808.125	60.59
808.435	61.14
808.745	60.96
809.055	61.24
809.365	60.82
809.674	60.67
809.984	60.77
810.294	60.79
810.603	60.39
810.913	60.86
811.222	60.54
811.532	60.7
811.841	61.16
812.151	60.66
812.46	60.05
812.769	59.71
813.079	59.87
813.388	60.18
813.697	60.55
814.006	59.77
814.315	59
814.624	59.09
814.933	58.7
815.242	58.82
815.551	58.65
815.86	59.87
816.169	59.58
816.478	59.44
816.786	59.34
817.095	59.84
817.404	59.21
817.712	58.89
818.021	59.34
818.33	59.71
818.638	59.29
818.947	58.97
819.255	59.21
819.563	58.86
819.872	58.96
820.18	58.75
820.488	58.23
820.796	58.26
821.105	58.46
821.413	58.78
821.721	58.75
822.029	58.38
822.337	58.22
822.645	58.39
822.953	58.48
823.26	58.46
823.568	58.36
823.876	58.39
824.184	58.62
824.491	58.37
824.799	58.08
825.107	58.17
825.414	58.29
825.722	58.26
826.029	58.28
826.337	58.21
826.644	58.09
826.951	58.43
827.259	58.24
827.566	58.3
827.873	58.18
828.18	58.2
828.488	58.44
828.795	58.41
829.102	58.05
829.409	57.99
829.716	57.9
830.023	58.13
830.329	58.19
830.636	58.02
830.943	58.37
831.25	58.44
831.557	58.65
831.863	58.69
832.17	58.94
832.476	59.16
832.783	59.17
833.089	59.38
833.396	59.46
833.702	59.85
834.009	59.44
834.315	59.81
834.621	59.59
834.928	59.34
835.234	59.59
835.54	59.7
835.846	59.88
836.152	60.1
836.458	60.02
836.764	59.76
837.07	59.8
837.376	59.57
837.682	59.82
837.988	59.47
838.293	59.63
838.599	59.42
838.905	59.33
839.211	58.98
839.516	58.4
839.822	58.56
840.127	58.98
840.433	59.04
840.738	58.07
841.044	58.59
841.349	59.77
841.654	59.06
841.959	59.37
842.265	59.76
842.57	60.1
842.875	58.84
843.18	60.18
843.485	59.26
843.79	59
844.095	58.39
844.4	59.03
844.705	58.55
845.01	57.51
845.315	57.58
845.619	58.34
845.924	58.66
846.229	59.27
846.533	59.5
846.838	58.29
847.142	58.49
847.447	57.37
847.751	55.7
848.056	56.04
848.36	55.59
848.664	55.76
848.969	55.81
849.273	56.06
849.577	53.98
849.881	54.99
850.185	56.89
850.489	58.11
850.794	57.11
851.097	58.25
851.401	59.15
851.705	57.31
852.009	57.63
852.313	57.71
852.617	54.84
852.92	55.12
853.224	56.31
853.528	56.85
853.831	58.48
854.135	60.28
854.438	59.84
854.742	59.32
855.045	57.47
855.349	55.99
855.652	58.1
855.955	61.97
856.259	62.62
856.562	61.24
856.865	59.74
857.168	60.4
857.471	59.07
857.774	59.86
858.077	61.44
858.38	61.11
858.683	60.73
858.986	62.5
859.289	61.18
859.592	62.18
859.894	62.54
860.197	62.45
860.5	61.63
860.802	62.79
861.105	66
861.407	66.85
861.71	69.64
862.012	68.7
862.315	66.53
862.617	66.56
862.919	66.97
863.222	66.66
863.524	67.5
863.826	69.5
864.128	70.05
864.43	70.68
864.732	72.71
865.034	74.44
865.336	72.9
865.638	74.47
865.94	73.49
866.242	75.36
866.544	74.59
866.846	72.45
867.147	69.75
867.449	68.9
867.751	69.73
868.052	67.34
868.354	67.54
868.655	66.94
868.957	67.6
869.258	66.69
869.56	69.33
869.861	67.61
870.162	64.36
870.463	66.5
870.765	65.79
871.066	65.49
871.367	65.11
871.668	65.01
871.969	62.43
872.27	63.8
872.571	62.26
872.872	62.35
873.173	63.92
873.473	64.94
873.774	62.14
874.075	61.38
874.376	61.69
874.676	63.6
874.977	63.8
875.277	65.12
875.578	64.87
875.878	64.34
876.179	65.64
876.479	68.26
876.78	65.06
877.08	66.11
877.38	63.35
877.68	63.25
877.981	66.09
878.281	70.18
878.581	69.06
