Data from BA28417_Reflection_00010.txt Node
Date: Mon Nov 18 16:11:16 EST 2019
User: vgr7
Spectrometer: USB2G7710
Scans to average: 3
Trigger mode: 4
Integration Time (sec): 2.000000E-2
Electric dark correction enabled: true
Boxcar width: 10
XAxis mode: Wavelengths
Number of Pixels in Spectrum: 2048
>>>>>Begin Spectral Data<<<<<
177.721	-26.04
178.105	51.84
178.488	26.79
178.871	43.76
179.254	49.27
179.636	-238.58
180.019	-31.32
180.402	14.29
180.785	-94.13
181.168	511.76
181.55	-93.02
181.933	208.3
182.316	159.35
182.698	118.59
183.081	135.99
183.463	171.67
183.846	115.75
184.228	156.19
184.611	175.58
184.993	237.52
185.376	366.16
185.758	522.31
186.14	1576.51
186.522	336.8
186.904	647.55
187.287	434.03
187.669	-1469.62
188.051	-240.86
188.433	-74.53
188.815	-42.67
189.197	-37.35
189.579	-14.43
189.961	-3.33
190.342	21.84
190.724	40.84
191.106	16.71
191.488	-22.3
191.869	4.37
192.251	-10.04
192.633	4.2
193.014	-0.22
193.396	-108.74
193.777	-31.36
194.159	3.5
194.54	39.17
194.922	38.23
195.303	11.75
195.684	-14.74
196.065	-18.24
196.447	-26.36
196.828	-44.53
197.209	-28.58
197.59	-56.9
197.971	-62.29
198.352	-50.51
198.733	-71.72
199.114	-70.87
199.495	-53.49
199.876	-71.09
200.257	-50.28
200.638	-34.1
201.018	-54.38
201.399	-32.27
201.78	-35.88
202.16	-54.9
202.541	-112.57
202.922	-133.44
203.302	-143.04
203.683	-155.08
204.063	-163.55
204.444	-184.58
204.824	-176.06
205.204	-180.68
205.585	-163.52
205.965	-136.27
206.345	-158.79
206.725	-195.65
207.106	-161.72
207.486	-233.11
207.866	-201.8
208.246	-146.97
208.626	-177.8
209.006	-114.88
209.386	-195.12
209.766	-223.02
210.145	-161.98
210.525	-107.14
210.905	-70.17
211.285	-57.3
211.664	-34.28
212.044	-41.79
212.424	-61.4
212.803	-55.9
213.183	-11.3
213.562	-19.36
213.942	-17.02
214.321	-15.37
214.701	-5.1
215.08	-22.57
215.459	-18.54
215.838	-23.81
216.218	-29.03
216.597	-25.66
216.976	-42.65
217.355	-12.87
217.734	-8.63
218.113	4.51
218.492	0.23
218.871	-90.57
219.25	-205.13
219.629	-345.8
220.008	-666.76
220.387	-737.55
220.766	-2415.46
221.144	2167.04
221.523	1167.45
221.902	1068.97
222.28	907.16
222.659	626.48
223.037	21158.82
223.416	7717.02
223.794	-493.55
224.173	-305.55
224.551	-143.75
224.929	-85.51
225.308	-65.53
225.686	-45.83
226.064	-27.52
226.442	-19.35
226.821	-12.24
227.199	-6
227.577	-6.36
227.955	-4.33
228.333	-2.09
228.711	-1.4
229.089	6.82
229.467	6.07
229.845	7.94
230.222	6.65
230.6	4.18
230.978	2.67
231.356	1.76
231.733	2.51
232.111	1.59
232.488	2.08
232.866	3.35
233.243	2.66
233.621	0.43
233.998	-0.19
234.376	0.03
234.753	0.16
235.13	1.3
235.508	0.67
235.885	-1.07
236.262	-2.04
236.639	-0.9
237.016	-0.71
237.393	0.34
237.77	2.01
238.147	3.03
238.524	2.68
238.901	3.94
239.278	4.66
239.655	5.06
240.032	5.27
240.409	4.35
240.785	4.02
241.162	4.45
241.539	4.63
241.915	4.27
242.292	4.11
242.668	4.18
243.045	3.9
243.421	4.15
243.798	4.36
244.174	4.35
244.551	4.28
244.927	3.93
245.303	4.33
245.679	4.28
246.056	4.07
246.432	4.16
246.808	3.93
247.184	3.54
247.56	3.52
247.936	3.36
248.312	3.5
248.688	3.5
249.064	3.31
249.44	3.41
249.815	3.47
250.191	3.61
250.567	3.65
250.943	3.68
251.318	3.79
251.694	3.65
252.069	3.66
252.445	3.62
252.82	3.57
253.196	3.15
253.571	2.99
253.947	2.92
254.322	2.71
254.697	2.71
255.073	2.77
255.448	2.51
255.823	2.79
256.198	2.85
256.573	2.72
256.948	3.07
257.323	2.96
257.698	2.91
258.073	2.95
258.448	2.78
258.823	2.86
259.198	2.93
259.573	3.15
259.948	3.22
260.322	3.27
260.697	3.31
261.072	3.15
261.446	2.95
261.821	3.13
262.195	3.3
262.57	3.28
262.944	3.26
263.319	3.39
263.693	3.18
264.067	3.2
264.442	3.5
264.816	3.4
265.19	3.48
265.564	3.67
265.938	3.53
266.313	3.51
266.687	3.52
267.061	3.56
267.435	3.61
267.809	3.49
268.183	3.43
268.556	3.43
268.93	3.6
269.304	3.95
269.678	3.78
270.051	3.71
270.425	3.65
270.799	3.63
271.172	3.58
271.546	3.79
271.919	3.73
272.293	3.53
272.666	3.52
273.04	3.59
273.413	3.47
273.787	3.5
274.16	3.62
274.533	3.6
274.906	3.45
275.279	3.18
275.653	3.23
276.026	3.12
276.399	3.2
276.772	3.2
277.145	2.93
277.518	3.05
277.891	3.14
278.263	3.1
278.636	3.17
279.009	3.15
279.382	3.26
279.755	3.34
280.127	3.57
280.5	3.66
280.872	3.52
281.245	3.49
281.617	3.69
281.99	3.64
282.362	3.66
282.735	3.64
283.107	3.7
283.479	3.73
283.852	3.73
284.224	3.78
284.596	3.88
284.968	4.08
285.34	4.06
285.713	4.03
286.085	4.08
286.457	4.11
286.829	4.14
287.201	4
287.572	3.95
287.944	3.86
288.316	3.69
288.688	3.7
289.06	3.8
289.431	3.78
289.803	3.8
290.175	3.73
290.546	3.88
290.918	3.98
291.289	4.04
291.661	4.2
292.032	4.17
292.403	4.08
292.775	4.05
293.146	4.03
293.517	4.02
293.889	4.14
294.26	4.27
294.631	4.25
295.002	4.36
295.373	4.36
295.744	4.35
296.115	4.48
296.486	4.44
296.857	4.38
297.228	4.36
297.599	4.34
297.97	4.34
298.34	4.21
298.711	4.2
299.082	4.17
299.452	4.08
299.823	4.11
300.194	4.04
300.564	4.04
300.935	3.95
301.305	3.83
301.676	3.74
302.046	3.7
302.416	3.85
302.787	3.9
303.157	3.96
303.527	4.1
303.897	4.08
304.267	4.29
304.637	4.34
305.008	4.32
305.378	4.43
305.748	4.59
306.117	4.61
306.487	4.7
306.857	4.76
307.227	4.85
307.597	4.86
307.967	5.1
308.336	5.18
308.706	5.42
309.076	5.53
309.445	5.64
309.815	5.72
310.184	5.59
310.554	5.45
310.923	5.43
311.293	5.38
311.662	5.53
312.031	5.51
312.401	5.49
312.77	5.58
313.139	5.66
313.508	5.61
313.877	5.65
314.246	5.66
314.616	5.63
314.985	5.6
315.353	5.53
315.722	5.5
316.091	5.5
316.46	5.37
316.829	5.39
317.198	5.3
317.567	5.24
317.935	5.21
318.304	5.34
318.672	5.32
319.041	5.31
319.41	5.27
319.778	5.36
320.147	5.43
320.515	5.36
320.883	5.27
321.252	5.27
321.62	5.38
321.988	5.47
322.357	5.46
322.725	5.43
323.093	5.6
323.461	5.58
323.829	5.54
324.197	5.61
324.565	5.76
324.933	5.88
325.301	5.95
325.669	6.08
326.037	6.11
326.405	6.15
326.772	6.24
327.14	6.21
327.508	6.23
327.875	6.18
328.243	6.22
328.61	6.28
328.978	6.4
329.346	6.43
329.713	6.39
330.08	6.42
330.448	6.51
330.815	6.37
331.182	6.46
331.55	6.54
331.917	6.61
332.284	6.65
332.651	6.53
333.018	6.6
333.385	6.61
333.752	6.65
334.119	6.68
334.486	6.6
334.853	6.68
335.22	6.6
335.587	6.79
335.954	6.78
336.32	6.82
336.687	6.79
337.054	6.75
337.42	6.81
337.787	6.84
338.153	6.86
338.52	6.99
338.886	6.84
339.253	6.67
339.619	6.64
339.986	6.59
340.352	6.75
340.718	6.71
341.084	6.78
341.451	6.74
341.817	6.76
342.183	6.85
342.549	6.78
342.915	6.82
343.281	6.79
343.647	6.86
344.013	6.87
344.379	6.84
344.745	6.98
345.11	6.95
345.476	7.03
345.842	7.09
346.208	7.05
346.573	7.14
346.939	7.3
347.304	7.24
347.67	7.28
348.035	7.25
348.401	7.21
348.766	7.16
349.132	7.18
349.497	7.09
349.862	7.07
350.228	7.11
350.593	7.08
350.958	7.08
351.323	7.17
351.688	7.12
352.053	7.2
352.418	7.16
352.783	7.18
353.148	7.11
353.513	7.13
353.878	7.17
354.243	7.27
354.608	7.24
354.972	7.34
355.337	7.32
355.702	7.32
356.066	7.36
356.431	7.36
356.795	7.37
357.16	7.45
357.524	7.34
357.889	7.27
358.253	7.27
358.618	7.22
358.982	7.15
359.346	7.09
359.71	7.04
360.075	7.03
360.439	7.08
360.803	7.09
361.167	7.02
361.531	6.89
361.895	6.81
362.259	6.74
362.623	6.8
362.987	6.78
363.351	6.77
363.714	6.75
364.078	6.7
364.442	6.65
364.806	6.6
365.169	6.58
365.533	6.56
365.896	6.59
366.26	6.61
366.623	6.53
366.987	6.53
367.35	6.59
367.714	6.55
368.077	6.49
368.44	6.44
368.803	6.4
369.167	6.48
369.53	6.45
369.893	6.48
370.256	6.35
370.619	6.31
370.982	6.24
371.345	6.26
371.708	6.29
372.071	6.23
372.434	6.21
372.797	6.22
373.159	6.2
373.522	6.14
373.885	6.11
374.247	6.09
374.61	6.09
374.973	6.02
375.335	5.95
375.698	5.89
376.06	5.83
376.423	5.83
376.785	5.79
377.147	5.77
377.51	5.71
377.872	5.78
378.234	5.77
378.596	5.74
378.958	5.65
379.321	5.61
379.683	5.63
380.045	5.61
380.407	5.57
380.769	5.5
381.13	5.44
381.492	5.33
381.854	5.37
382.216	5.28
382.578	5.22
382.939	5.2
383.301	5.15
383.663	5.08
384.024	5.04
384.386	5.01
384.747	4.96
385.109	4.96
385.47	4.8
385.832	4.75
386.193	4.74
386.554	4.67
386.916	4.65
387.277	4.63
387.638	4.62
387.999	4.62
388.36	4.61
388.721	4.59
389.082	4.58
389.443	4.49
389.804	4.5
390.165	4.48
390.526	4.49
390.887	4.47
391.248	4.51
391.609	4.48
391.969	4.48
392.33	4.47
392.691	4.44
393.051	4.43
393.412	4.43
393.772	4.38
394.133	4.38
394.493	4.34
394.854	4.29
395.214	4.23
395.574	4.18
395.935	4.17
396.295	4.16
396.655	4.15
397.015	4.18
397.376	4.19
397.736	4.17
398.096	4.15
398.456	4.13
398.816	4.11
399.176	4.1
399.535	4.02
399.895	4.01
400.255	4
400.615	3.99
400.975	3.95
401.334	3.94
401.694	3.93
402.054	3.89
402.413	3.91
402.773	3.91
403.132	3.89
403.492	3.91
403.851	3.88
404.211	3.88
404.57	3.8
404.929	3.78
405.288	3.74
405.648	3.7
406.007	3.69
406.366	3.68
406.725	3.67
407.084	3.73
407.443	3.72
407.802	3.69
408.161	3.67
408.52	3.67
408.879	3.66
409.238	3.64
409.596	3.65
409.955	3.61
410.314	3.6
410.673	3.58
411.031	3.55
411.39	3.55
411.748	3.54
412.107	3.53
412.465	3.49
412.824	3.51
413.182	3.5
413.54	3.51
413.899	3.47
414.257	3.45
414.615	3.4
414.974	3.39
415.332	3.38
415.69	3.38
416.048	3.36
416.406	3.37
416.764	3.36
417.122	3.36
417.48	3.35
417.838	3.34
418.195	3.36
418.553	3.35
418.911	3.35
419.269	3.34
419.626	3.35
419.984	3.35
420.342	3.35
420.699	3.35
421.057	3.34
421.414	3.34
421.772	3.32
422.129	3.33
422.486	3.32
422.844	3.32
423.201	3.31
423.558	3.31
423.915	3.31
424.273	3.31
424.63	3.3
424.987	3.29
425.344	3.3
425.701	3.29
426.058	3.29
426.415	3.27
426.772	3.28
427.128	3.28
427.485	3.26
427.842	3.25
428.199	3.24
428.555	3.23
428.912	3.22
429.269	3.24
429.625	3.22
429.982	3.19
430.338	3.18
430.695	3.19
431.051	3.19
431.407	3.17
431.764	3.17
432.12	3.15
432.476	3.17
432.832	3.15
433.189	3.16
433.545	3.15
433.901	3.16
434.257	3.13
434.613	3.13
434.969	3.17
435.325	3.17
435.681	3.18
436.036	3.19
436.392	3.2
436.748	3.18
437.104	3.19
437.459	3.2
437.815	3.2
438.171	3.19
438.526	3.19
438.882	3.21
439.237	3.21
439.593	3.21
439.948	3.21
440.304	3.21
440.659	3.19
441.014	3.2
441.369	3.19
441.725	3.18
442.08	3.17
442.435	3.15
442.79	3.15
443.145	3.14
443.5	3.14
443.855	3.12
444.21	3.12
444.565	3.12
444.92	3.11
445.275	3.1
445.629	3.1
445.984	3.09
446.339	3.07
446.693	3.05
447.048	3.07
447.403	3.06
447.757	3.06
448.112	3.07
448.466	3.05
448.82	3.04
449.175	3.04
449.529	3.05
449.883	3.04
450.238	3.03
450.592	3.02
450.946	2.99
451.3	2.99
451.654	3
452.008	3
452.362	3
452.716	2.99
453.07	3
453.424	2.99
453.778	2.99
454.132	2.99
454.486	2.95
454.839	2.94
455.193	2.94
455.547	2.94
455.9	2.94
456.254	2.95
456.607	2.95
456.961	2.95
457.314	2.96
457.668	2.94
458.021	2.94
458.375	2.97
458.728	2.97
459.081	2.97
459.434	2.96
459.787	2.98
460.141	2.99
460.494	2.99
460.847	3.01
461.2	3.01
461.553	3.03
461.906	3.06
462.259	3.07
462.611	3.08
462.964	3.09
463.317	3.1
463.67	3.1
464.022	3.11
464.375	3.12
464.728	3.12
465.08	3.15
465.433	3.15
465.785	3.15
466.138	3.14
466.49	3.17
466.843	3.18
467.195	3.17
467.547	3.18
467.899	3.18
468.252	3.17
468.604	3.18
468.956	3.16
469.308	3.18
469.66	3.17
470.012	3.17
470.364	3.18
470.716	3.18
471.068	3.19
471.42	3.18
471.772	3.21
472.123	3.2
472.475	3.21
472.827	3.22
473.178	3.24
473.53	3.25
473.882	3.22
474.233	3.21
474.585	3.2
474.936	3.19
475.288	3.19
475.639	3.2
475.99	3.19
476.342	3.21
476.693	3.2
477.044	3.21
477.395	3.2
477.746	3.17
478.097	3.18
478.448	3.18
478.8	3.18
479.15	3.15
479.501	3.15
479.852	3.15
480.203	3.14
480.554	3.13
480.905	3.13
481.255	3.15
481.606	3.15
481.957	3.15
482.307	3.16
482.658	3.15
483.009	3.15
483.359	3.15
483.709	3.16
484.06	3.16
484.41	3.16
484.761	3.16
485.111	3.16
485.461	3.16
485.811	3.17
486.162	3.16
486.512	3.18
486.862	3.18
487.212	3.19
487.562	3.2
487.912	3.2
488.262	3.2
488.612	3.2
488.961	3.21
489.311	3.22
489.661	3.22
490.011	3.23
490.36	3.24
490.71	3.24
491.06	3.24
491.409	3.24
491.759	3.25
492.108	3.27
492.458	3.27
492.807	3.28
493.157	3.28
493.506	3.3
493.855	3.29
494.204	3.29
494.554	3.31
494.903	3.32
495.252	3.32
495.601	3.34
495.95	3.37
496.299	3.36
496.648	3.37
496.997	3.39
497.346	3.42
497.695	3.45
498.043	3.49
498.392	3.5
498.741	3.54
499.09	3.56
499.438	3.59
499.787	3.63
500.135	3.67
500.484	3.71
500.832	3.74
501.181	3.77
501.529	3.82
501.878	3.84
502.226	3.88
502.574	3.91
502.923	3.94
503.271	3.97
503.619	4.06
503.967	4.12
504.315	4.17
504.663	4.22
505.011	4.28
505.359	4.31
505.707	4.37
506.055	4.4
506.403	4.48
506.751	4.51
507.098	4.56
507.446	4.62
507.794	4.66
508.141	4.71
508.489	4.78
508.837	4.84
509.184	4.92
509.531	4.99
509.879	5.07
510.226	5.15
510.574	5.2
510.921	5.25
511.268	5.31
511.616	5.36
511.963	5.43
512.31	5.48
512.657	5.55
513.004	5.62
513.351	5.68
513.698	5.75
514.045	5.85
514.392	5.93
514.739	5.98
515.086	6.07
515.432	6.16
515.779	6.22
516.126	6.32
516.473	6.38
516.819	6.45
517.166	6.52
517.512	6.58
517.859	6.68
518.205	6.76
518.552	6.82
518.898	6.89
519.245	6.95
519.591	7
519.937	7.07
520.283	7.15
520.629	7.25
520.976	7.32
521.322	7.39
521.668	7.48
522.014	7.6
522.36	7.71
522.706	7.82
523.052	7.96
523.398	8.1
523.743	8.22
524.089	8.34
524.435	8.47
524.781	8.61
525.126	8.72
525.472	8.84
525.817	8.98
526.163	9.08
526.509	9.19
526.854	9.3
527.199	9.39
527.545	9.48
527.89	9.56
528.235	9.67
528.581	9.77
528.926	9.88
529.271	9.98
529.616	10.08
529.961	10.19
530.306	10.29
530.651	10.39
530.996	10.51
531.341	10.65
531.686	10.78
532.031	10.9
532.376	11.04
532.721	11.18
533.065	11.31
533.41	11.48
533.755	11.64
534.099	11.81
534.444	11.98
534.788	12.14
535.133	12.33
535.477	12.51
535.822	12.7
536.166	12.89
536.51	13.1
536.855	13.34
537.199	13.59
537.543	13.85
537.887	14.1
538.231	14.35
538.576	14.62
538.92	14.88
539.264	15.14
539.608	15.39
539.951	15.61
540.295	15.83
540.639	16.02
540.983	16.25
541.327	16.46
541.671	16.67
542.014	16.9
542.358	17.1
542.701	17.3
543.045	17.51
543.389	17.73
543.732	17.96
544.075	18.17
544.419	18.4
544.762	18.64
545.105	18.9
545.449	19.19
545.792	19.46
546.135	19.74
546.478	20.04
546.821	20.33
547.165	20.64
547.508	21.01
547.851	21.36
548.194	21.65
548.536	21.99
548.879	22.33
549.222	22.64
549.565	22.98
549.908	23.3
550.25	23.64
550.593	23.97
550.936	24.35
551.278	24.68
551.621	25.01
551.963	25.36
552.306	25.7
552.648	26.03
552.991	26.36
553.333	26.67
553.675	27
554.017	27.39
554.36	27.76
554.702	28.06
555.044	28.4
555.386	28.74
555.728	29.05
556.07	29.38
556.412	29.76
556.754	30.08
557.096	30.49
557.438	30.86
557.78	31.25
558.121	31.54
558.463	31.88
558.805	32.27
559.147	32.64
559.488	32.96
559.83	33.35
560.171	33.66
560.513	34.01
560.854	34.33
561.196	34.61
561.537	34.95
561.878	35.25
562.22	35.53
562.561	35.85
562.902	36.2
563.243	36.47
563.584	36.76
563.925	37.07
564.266	37.4
564.607	37.7
564.948	37.97
565.289	38.29
565.63	38.61
565.971	38.83
566.312	39.1
566.653	39.36
566.993	39.6
567.334	39.93
567.675	40.21
568.015	40.51
568.356	40.79
568.696	41.01
569.037	41.27
569.377	41.63
569.718	41.92
570.058	42.18
570.398	42.45
570.739	42.72
571.079	43.02
571.419	43.19
571.759	43.45
572.099	43.68
572.439	43.91
572.779	44.11
573.119	44.34
573.459	44.53
573.799	44.83
574.139	45.02
574.479	45.19
574.819	45.42
575.158	45.64
575.498	45.83
575.838	46.06
576.177	46.3
576.517	46.41
576.856	46.64
577.196	46.84
577.535	47.11
577.875	47.3
578.214	47.49
578.553	47.78
578.893	47.98
579.232	48.21
579.571	48.44
579.91	48.67
580.25	48.92
580.589	49.16
580.928	49.33
581.267	49.55
581.606	49.79
581.945	49.99
582.283	50.12
582.622	50.36
582.961	50.56
583.3	50.79
583.639	51.08
583.977	51.21
584.316	51.4
584.654	51.53
584.993	51.7
585.332	51.87
585.67	52.02
586.008	52.17
586.347	52.33
586.685	52.48
587.024	52.64
587.362	52.83
587.7	52.89
588.038	53.01
588.376	53.17
588.715	53.32
589.053	53.51
589.391	53.71
589.729	53.94
590.067	54.17
590.404	54.24
590.742	54.3
591.08	54.42
591.418	54.56
591.756	54.75
592.093	54.89
592.431	55.01
592.769	55.19
593.106	55.38
593.444	55.51
593.781	55.63
594.119	55.82
594.456	55.86
594.793	56.07
595.131	56.15
595.468	56.28
595.805	56.33
596.143	56.4
596.48	56.48
596.817	56.48
597.154	56.49
597.491	56.6
597.828	56.72
598.165	56.84
598.502	56.98
598.839	57.09
599.176	57.14
599.512	57.23
599.849	57.28
600.186	57.41
600.523	57.53
600.859	57.65
601.196	57.74
601.532	57.9
601.869	57.91
602.205	58.09
602.542	58.13
602.878	58.2
603.215	58.26
603.551	58.22
603.887	58.34
604.223	58.43
604.56	58.53
604.896	58.61
605.232	58.66
605.568	58.74
605.904	58.72
606.24	58.92
606.576	58.95
606.912	59.08
607.248	59.03
607.583	59.1
607.919	59.13
608.255	59.25
608.591	59.41
608.926	59.57
609.262	59.63
609.597	59.7
609.933	59.77
610.268	59.89
610.604	60.03
610.939	60.07
611.275	60.12
611.61	60.16
611.945	60.17
612.281	60.32
612.616	60.36
612.951	60.47
613.286	60.45
613.621	60.59
613.956	60.62
614.291	60.83
614.626	60.88
614.961	60.96
615.296	60.87
615.631	60.81
615.966	60.88
616.3	60.95
616.635	61.04
616.97	61.07
617.304	61.09
617.639	61.23
617.973	61.36
618.308	61.41
618.642	61.39
618.977	61.46
619.311	61.54
619.646	61.55
619.98	61.62
620.314	61.74
620.648	61.92
620.983	62.06
621.317	62.06
621.651	62.18
621.985	62.33
622.319	62.47
622.653	62.6
622.987	62.52
623.321	62.51
623.655	62.58
623.988	62.68
624.322	62.73
624.656	62.81
624.99	62.75
625.323	62.83
625.657	62.87
625.99	62.95
626.324	62.92
626.657	62.99
626.991	63.06
627.324	63.07
627.658	62.98
627.991	62.92
628.324	62.92
628.657	62.97
628.991	62.89
629.324	62.95
629.657	62.93
629.99	63.02
630.323	62.98
630.656	62.97
630.989	63.08
631.322	63.13
631.655	63.1
631.987	63.15
632.32	63.17
632.653	63.24
632.986	63.25
633.318	63.25
633.651	63.29
633.984	63.26
634.316	63.32
634.649	63.35
634.981	63.4
635.313	63.52
635.646	63.49
635.978	63.59
636.31	63.47
636.643	63.49
636.975	63.56
637.307	63.77
637.639	63.85
637.971	63.79
638.303	63.73
638.635	63.75
638.967	63.8
639.299	63.83
639.631	63.74
639.963	63.83
640.295	64
640.626	64.04
640.958	64.2
641.29	64.12
641.621	64.24
641.953	64.34
642.285	64.26
642.616	64.23
642.948	64.28
643.279	64.37
643.61	64.45
643.942	64.44
644.273	64.5
644.604	64.47
644.936	64.59
645.267	64.62
645.598	64.69
645.929	64.65
646.26	64.75
646.591	64.96
646.922	64.98
647.253	64.95
647.584	64.91
647.915	64.84
648.245	64.92
648.576	64.94
648.907	64.93
649.238	64.94
649.568	65.07
649.899	65.03
650.229	65.18
650.56	65.1
650.89	65.16
651.221	65.12
651.551	65.21
651.882	65.24
652.212	65.24
652.542	65.24
652.872	65.31
653.203	65.38
653.533	65.46
653.863	65.44
654.193	65.52
654.523	65.62
654.853	65.75
655.183	65.77
655.513	65.67
655.843	65.71
656.172	65.7
656.502	65.75
656.832	65.83
657.162	65.82
657.491	65.95
657.821	66.01
658.15	65.96
658.48	65.96
658.809	65.96
659.139	66.07
659.468	66.23
659.798	66.26
660.127	66.12
660.456	66.01
660.785	66.06
661.115	66.05
661.444	66.01
661.773	65.99
662.102	66.07
662.431	66.09
662.76	66.15
663.089	66.31
663.418	66.41
663.747	66.55
664.076	66.64
664.404	66.66
664.733	66.56
665.062	66.54
665.39	66.67
665.719	66.65
666.048	66.72
666.376	66.52
666.705	66.55
667.033	66.57
667.362	66.69
667.69	66.68
668.018	66.68
668.347	66.83
668.675	66.95
669.003	67
669.331	67.01
669.659	66.92
669.987	66.86
670.315	66.87
670.643	66.65
670.971	66.54
671.299	66.61
671.627	66.73
671.955	66.81
672.283	66.69
672.61	66.78
672.938	66.75
673.266	66.77
673.593	66.86
673.921	66.96
674.249	66.99
674.576	66.98
674.904	67.08
675.231	67.02
675.558	66.97
675.886	66.89
676.213	67.03
676.54	67.17
676.867	67.16
677.195	67.06
677.522	67.24
677.849	67.28
678.176	67.24
678.503	67.12
678.83	67.01
679.157	66.99
679.484	66.93
679.81	66.92
680.137	66.97
680.464	66.85
680.791	66.92
681.117	66.85
681.444	66.95
681.771	66.88
682.097	66.72
682.424	66.66
682.75	66.64
683.077	66.58
683.403	66.45
683.729	66.52
684.056	66.55
684.382	66.47
684.708	66.54
685.034	66.51
685.36	66.59
685.686	66.76
686.012	66.81
686.339	66.86
686.664	66.98
686.99	67.05
687.316	67.18
687.642	67.18
687.968	67.2
688.294	67.1
688.619	67.13
688.945	67.37
689.271	67.39
689.596	67.32
689.922	67.45
690.247	67.51
690.573	67.59
690.898	67.6
691.224	67.57
691.549	67.61
691.874	67.64
692.2	67.65
692.525	67.73
692.85	67.77
693.175	67.77
693.5	67.54
693.825	67.6
694.15	67.58
694.475	67.45
694.8	67.34
695.125	67.43
695.45	67.44
695.775	67.37
696.099	67.41
696.424	67.56
696.749	67.62
697.073	67.62
697.398	67.54
697.723	67.57
698.047	67.61
698.372	67.54
698.696	67.54
699.02	67.5
699.345	67.42
699.669	67.46
699.993	67.4
700.318	67.42
700.642	67.45
700.966	67.51
701.29	67.53
701.614	67.77
701.938	67.85
702.262	67.81
702.586	67.88
702.91	67.85
703.234	67.64
703.557	67.56
703.881	67.64
704.205	67.68
704.529	67.62
704.852	67.38
705.176	67.26
705.499	67.44
705.823	67.5
706.146	67.63
706.47	67.72
706.793	67.77
707.117	68.11
707.44	68.03
707.763	68.03
708.086	68.06
708.409	68
708.733	67.93
709.056	68.07
709.379	67.99
709.702	67.95
710.025	68.09
710.348	68.12
710.671	68.05
710.993	67.77
711.316	67.91
711.639	68.21
711.962	68.39
712.284	68.25
712.607	68.35
712.93	68.34
713.252	68.05
713.575	68.15
713.897	67.96
714.22	67.98
714.542	68.02
714.864	67.96
715.187	67.83
715.509	67.87
715.831	67.81
716.153	67.83
716.475	67.84
716.798	67.99
717.12	68.02
717.442	68.04
717.764	68.41
718.085	68.38
718.407	68.17
718.729	68.3
719.051	68.42
719.373	68.32
719.695	68.47
720.016	68.94
720.338	68.79
720.659	69.17
720.981	69.29
721.302	69.08
721.624	69.2
721.945	69.6
722.267	69.52
722.588	69.28
722.909	69.22
723.231	69.49
723.552	69.44
723.873	69.39
724.194	69.45
724.515	69.43
724.836	69.45
725.157	69.9
725.478	69.63
725.799	69.37
726.12	69.33
726.441	69.13
726.762	68.85
727.083	69.07
727.403	68.49
727.724	68.35
728.045	68.47
728.365	68.68
728.686	68.69
729.006	68.88
729.327	69.12
729.647	69.34
729.967	69.28
730.288	69.45
730.608	69.53
730.928	69.53
731.249	69.45
731.569	69.44
731.889	69.39
732.209	69.47
732.529	69.48
732.849	69.6
733.169	69.55
733.489	69.48
733.809	69.53
734.129	69.69
734.448	69.55
734.768	69.67
735.088	69.66
735.408	69.42
735.727	69.49
736.047	69.5
736.366	69.18
736.686	68.96
737.005	68.92
737.325	68.8
737.644	68.81
737.963	68.86
738.283	68.88
738.602	68.78
738.921	68.84
739.24	68.68
739.56	68.55
739.879	68.47
740.198	68.59
740.517	68.7
740.836	68.73
741.155	68.86
741.473	68.72
741.792	68.62
742.111	68.65
742.43	68.22
742.748	67.92
743.067	68.02
743.386	68.21
743.704	68.1
744.023	68.15
744.341	68.2
744.66	68.06
744.978	67.83
745.297	68.03
745.615	67.95
745.933	68.39
746.252	68.24
746.57	68.09
746.888	68.2
747.206	67.85
747.524	68.11
747.842	67.85
748.16	67.97
748.478	67.95
748.796	67.85
749.114	67.85
749.432	68.07
749.749	68.09
750.067	68.01
750.385	67.67
750.703	67.68
751.02	67.57
751.338	67.56
751.655	67.61
751.973	67.32
752.29	67.33
752.608	67.02
752.925	67.18
753.242	67.57
753.56	67.54
753.877	67.34
754.194	67.28
754.511	67.39
754.828	67.16
755.145	67.01
755.462	66.91
755.779	67.52
756.096	67.63
756.413	67.65
756.73	67.89
757.047	68.41
757.364	68.32
757.68	68.48
757.997	68.39
758.314	68.47
758.63	68.5
758.947	68.27
759.264	68.5
759.58	68.3
759.896	68.38
760.213	68.2
760.529	68.38
760.846	68.19
761.162	68.38
761.478	68.32
761.794	68.23
762.11	68.38
762.426	68.05
762.743	68.23
763.059	68.45
763.375	68.47
763.69	68.36
764.006	68.54
764.322	68.31
764.638	68.07
764.954	68.39
765.27	68.54
765.585	68.57
765.901	68.59
766.216	68.66
766.532	68.62
766.848	68.52
767.163	68.78
767.478	68.84
767.794	68.84
768.109	68.94
768.424	69.24
768.74	69.37
769.055	68.9
769.37	68.88
769.685	68.73
770	68.57
770.315	68.47
770.63	68.27
770.945	68.23
771.26	68.88
771.575	68.55
771.89	68.45
772.205	68.64
772.52	68.46
772.834	68.66
773.149	68.92
773.464	69.34
773.778	68.72
774.093	68.91
774.407	68.96
774.722	68.84
775.036	68.44
775.351	68.45
775.665	68.95
775.979	69.08
776.293	68.75
776.608	68.8
776.922	68.82
777.236	68.88
777.55	69.19
777.864	69.08
778.178	68.99
778.492	69.11
778.806	68.98
779.12	68.63
779.434	68.25
779.747	67.71
780.061	67.85
780.375	68.04
780.689	67.35
781.002	67.47
781.316	67.46
781.629	67.54
781.943	67.52
782.256	67.67
782.57	67.21
782.883	67.69
783.196	67.53
783.51	67.51
783.823	67.39
784.136	67.53
784.449	67.54
784.762	67.44
785.075	66.64
785.388	66.68
785.701	66.85
786.014	67.41
786.327	67.77
786.64	67.36
786.953	66.96
787.266	67.53
787.578	67.32
787.891	67.82
788.204	68
788.516	67.93
788.829	67.64
789.141	67.76
789.454	67.73
789.766	67.23
790.079	67.05
790.391	66.74
790.703	66.42
791.016	66.4
791.328	66.62
791.64	66.95
791.952	67.02
792.264	67.3
792.576	66.88
792.888	66.74
793.2	66.75
793.512	67.46
793.824	67.13
794.136	67.6
794.448	67.21
794.76	67.46
795.071	67.79
795.383	68.79
795.695	68.74
796.006	68.55
796.318	68.87
796.629	69.28
796.941	70.05
797.252	70.22
797.564	70.07
797.875	70.26
798.186	70.65
798.497	70.71
798.809	71.01
799.12	72.04
799.431	71.76
799.742	71.99
800.053	71.72
800.364	71.99
800.675	71.55
800.986	72.12
801.297	71.94
801.608	71.24
801.918	70.98
802.229	71.22
802.54	71.17
802.851	71.46
803.161	71.47
803.472	70.88
803.782	71.22
804.093	71.41
804.403	71.24
804.714	70.91
805.024	71.13
805.334	70.48
805.645	69.74
805.955	70.1
806.265	70.09
806.575	69.93
806.885	69.82
807.195	69.86
807.505	69.36
807.815	69.21
808.125	69.57
808.435	69.25
808.745	69.2
809.055	69
809.365	69.41
809.674	69.47
809.984	70.17
810.294	69.76
810.603	69.83
810.913	69.58
811.222	69.15
811.532	69.06
811.841	69.47
812.151	69.9
812.46	70.01
812.769	70.43
813.079	71
813.388	71.78
813.697	71.55
814.006	72.16
814.315	72.44
814.624	72.1
814.933	71.89
815.242	71.21
815.551	71.38
815.86	70.65
816.169	70.52
816.478	70.13
816.786	70.13
817.095	70.45
817.404	70.67
817.712	71.44
818.021	71.97
818.33	71.87
818.638	71.54
818.947	71.51
819.255	71.06
819.563	70.73
819.872	70.45
820.18	70.48
820.488	70.15
820.796	70.04
821.105	70.23
821.413	70.52
821.721	70.77
822.029	70.85
822.337	70.82
822.645	70.7
822.953	70.63
823.26	70.79
823.568	70.7
823.876	70.55
824.184	70.37
824.491	70.35
824.799	70.31
825.107	70.17
825.414	70.02
825.722	70.04
826.029	70.25
826.337	70.12
826.644	70.3
826.951	70.55
827.259	70.8
827.566	70.8
827.873	70.63
828.18	70.42
828.488	70.41
828.795	70.72
829.102	70.82
829.409	70.91
829.716	70.61
830.023	70.67
830.329	70.87
830.636	70.83
830.943	70.27
831.25	70.35
831.557	70.78
831.863	71.01
832.17	70.89
832.476	70.95
832.783	70.93
833.089	70.94
833.396	69.95
833.702	70.02
834.009	70.27
834.315	70.42
834.621	70.73
834.928	70.91
835.234	70.55
835.54	70.81
835.846	70.96
836.152	71.11
836.458	71.18
836.764	71.17
837.07	71.44
837.376	72.08
837.682	72.09
837.988	72.15
838.293	71.71
838.599	71.67
838.905	70.55
839.211	71.31
839.516	71.09
839.822	71.58
840.127	70.47
840.433	69.54
840.738	69.35
841.044	68.63
841.349	68.21
841.654	68.81
841.959	68.31
842.265	68.11
842.57	67.92
842.875	67.63
843.18	67.76
843.485	68.36
843.79	67.92
844.095	67.88
844.4	68.09
844.705	68.52
845.01	69.08
845.315	70.67
845.619	69.55
845.924	68.91
846.229	71.35
846.533	72.7
846.838	74.14
847.142	74.05
847.447	74.56
847.751	75.95
848.056	74.8
848.36	75.57
848.664	75.09
848.969	75.5
849.273	74.13
849.577	74.59
849.881	73.27
850.185	72.68
850.489	72.54
850.794	70.92
851.097	71.51
851.401	71.24
851.705	69.58
852.009	70.44
852.313	71.54
852.617	69.82
852.92	69.7
853.224	69.18
853.528	69.53
853.831	71.46
854.135	68.08
854.438	67.24
854.742	66.05
855.045	65.4
855.349	65.22
855.652	65.67
855.955	65.04
856.259	65.25
856.562	66.39
856.865	64.51
857.168	65.04
857.471	65.44
857.774	66.26
858.077	67.71
858.38	67.76
858.683	67.62
858.986	68.31
859.289	68.36
859.592	66.5
859.894	66.72
860.197	66.94
860.5	69.21
860.802	70.35
861.105	70.32
861.407	71.82
861.71	72.76
862.012	73.4
862.315	73.91
862.617	72.72
862.919	72.66
863.222	73.24
863.524	72.24
863.826	73.6
864.128	72.44
864.43	73.12
864.732	73.82
865.034	73.93
865.336	72.69
865.638	71.47
865.94	76.08
866.242	73.94
866.544	73.67
866.846	75
867.147	72.9
867.449	73.61
867.751	73.39
868.052	73.65
868.354	75.81
868.655	72.43
868.957	72.81
869.258	75.61
869.56	77.58
869.861	78.44
870.162	74.68
870.463	74.37
870.765	73.77
871.066	71.74
871.367	69.82
871.668	72.15
871.969	71.49
872.27	68.61
872.571	67.87
872.872	69.22
873.173	65.81
873.473	65.78
873.774	66.47
874.075	65.54
874.376	64.53
874.676	65.64
874.977	68.33
875.277	68.48
875.578	65.25
875.878	65.54
876.179	65.46
876.479	66.76
876.78	67.02
877.08	66.21
877.38	67.92
877.68	68.6
877.981	65.99
878.281	67.29
878.581	67.33
