Data from BA28469_Reflection_00008.txt Node
Date: Mon Nov 18 15:18:01 EST 2019
User: vgr7
Spectrometer: USB2G7710
Scans to average: 3
Trigger mode: 4
Integration Time (sec): 2.000000E-2
Electric dark correction enabled: true
Boxcar width: 10
XAxis mode: Wavelengths
Number of Pixels in Spectrum: 2048
>>>>>Begin Spectral Data<<<<<
177.721	317.79
178.105	-15233.33
178.488	-124.99
178.871	-116.75
179.254	-43.01
179.636	21766.67
180.019	-129.04
180.402	147.37
180.785	-54.91
181.168	-5.58
181.55	53.05
181.933	83.88
182.316	113.47
182.698	58.56
183.081	94.77
183.463	58.18
183.846	102.23
184.228	17.4
184.611	-6.67
184.993	2322.22
185.376	-212.24
185.758	-254.31
186.14	-308.6
186.522	-1271.07
186.904	-341.5
187.287	743.07
187.669	-307.6
188.051	-535.35
188.433	-161.75
188.815	-98.9
189.197	-83.53
189.579	-99.63
189.961	-78.08
190.342	-69.29
190.724	-61.28
191.106	-101.78
191.488	-102.31
191.869	-97.59
192.251	-100.05
192.633	-96.08
193.014	-83.03
193.396	-112.52
193.777	-108.49
194.159	-103.02
194.54	-80.32
194.922	-93.96
195.303	-70.94
195.684	-82.14
196.065	-80.03
196.447	-100.34
196.828	-113.11
197.209	-109.92
197.59	-112.2
197.971	-115.28
198.352	-95.24
198.733	-166.27
199.114	-77.69
199.495	-54.36
199.876	-56.9
200.257	-75.99
200.638	-40.35
201.018	-47.94
201.399	-25.28
201.78	-25.04
202.16	-44.31
202.541	-134.49
202.922	-131.7
203.302	-191.02
203.683	-149.84
204.063	-167.61
204.444	-114.8
204.824	-153.5
205.204	-102.9
205.585	-78.01
205.965	-85.23
206.345	-89.54
206.725	-72.3
207.106	-119.76
207.486	-131.65
207.866	-141.12
208.246	-126.45
208.626	-163.91
209.006	-134.55
209.386	-125.42
209.766	-80.05
210.145	-59.29
210.525	-29.05
210.905	-38.47
211.285	-17.39
211.664	-11.6
212.044	1.69
212.424	-0.79
212.803	13.56
213.183	2.19
213.562	6.99
213.942	17.68
214.321	32.82
214.701	33.5
215.08	41.77
215.459	40.42
215.838	42.26
216.218	40.34
216.597	35.8
216.976	38.29
217.355	29.01
217.734	31.35
218.113	35.31
218.492	28.96
218.871	20.8
219.25	23.7
219.629	19.39
220.008	10.29
220.387	-0.43
220.766	0.73
221.144	1.49
221.523	-23.18
221.902	-35.83
222.28	-61.33
222.659	-48.21
223.037	-45.97
223.416	-34.64
223.794	-34.99
224.173	-19.99
224.551	-14.21
224.929	-20.38
225.308	-17.25
225.686	-16.92
226.064	-8.9
226.442	-7.86
226.821	1.78
227.199	-0.38
227.577	2.61
227.955	5.45
228.333	5.71
228.711	5.24
229.089	7.72
229.467	9.42
229.845	8.03
230.222	11.82
230.6	9.52
230.978	7.61
231.356	8.85
231.733	8.05
232.111	8.52
232.488	7.77
232.866	7.56
233.243	7.13
233.621	7.22
233.998	4.27
234.376	4.22
234.753	2.94
235.13	2.42
235.508	2.73
235.885	0.32
236.262	-0.68
236.639	-2.11
237.016	-2.26
237.393	-1.55
237.77	-1.23
238.147	-1.88
238.524	-1.53
238.901	-0.18
239.278	-0.47
239.655	0.85
240.032	0.44
240.409	-0.06
240.785	0.29
241.162	0.67
241.539	0.71
241.915	1.02
242.292	1.47
242.668	1.6
243.045	1.73
243.421	1.26
243.798	1.66
244.174	1.9
244.551	2.43
244.927	2.32
245.303	2.33
245.679	2.64
246.056	2.7
246.432	2.79
246.808	2.67
247.184	2.45
247.56	2.32
247.936	2.32
248.312	2.62
248.688	2.71
249.064	2.53
249.44	2.55
249.815	2.64
250.191	2.54
250.567	2.45
250.943	2.48
251.318	2.84
251.694	2.89
252.069	2.95
252.445	2.73
252.82	2.87
253.196	2.83
253.571	2.57
253.947	2.34
254.322	2.27
254.697	2.28
255.073	2.35
255.448	2.08
255.823	2.1
256.198	1.84
256.573	1.73
256.948	1.92
257.323	2
257.698	2.07
258.073	2.23
258.448	2.16
258.823	2.1
259.198	1.99
259.573	1.95
259.948	1.9
260.322	1.94
260.697	1.84
261.072	1.93
261.446	2.02
261.821	2.09
262.195	2.19
262.57	2.15
262.944	2.1
263.319	2.03
263.693	1.93
264.067	2.12
264.442	2.2
264.816	2.12
265.19	2
265.564	2
265.938	1.92
266.313	2.02
266.687	2.15
267.061	2.17
267.435	2.27
267.809	2.32
268.183	2.19
268.556	2.16
268.93	2.13
269.304	2.08
269.678	2.09
270.051	2.05
270.425	2.17
270.799	2.24
271.172	2.2
271.546	2.2
271.919	2.16
272.293	2.17
272.666	2.39
273.04	2.5
273.413	2.43
273.787	2.42
274.16	2.42
274.533	2.31
274.906	2.33
275.279	2.32
275.653	2.23
276.026	2.25
276.399	2.32
276.772	2.41
277.145	2.33
277.518	2.32
277.891	2.22
278.263	2.2
278.636	2.14
279.009	2.31
279.382	2.56
279.755	2.56
280.127	2.53
280.5	2.49
280.872	2.42
281.245	2.36
281.617	2.39
281.99	2.39
282.362	2.46
282.735	2.3
283.107	2.17
283.479	2.31
283.852	2.4
284.224	2.4
284.596	2.25
284.968	2.36
285.34	2.37
285.713	2.52
286.085	2.48
286.457	2.59
286.829	2.63
287.201	2.56
287.572	2.45
287.944	2.48
288.316	2.43
288.688	2.52
289.06	2.69
289.431	2.61
289.803	2.58
290.175	2.62
290.546	2.79
290.918	2.73
291.289	2.71
291.661	2.84
292.032	2.85
292.403	2.92
292.775	2.92
293.146	2.96
293.517	2.79
293.889	2.95
294.26	3.02
294.631	3.05
295.002	3.13
295.373	3.15
295.744	3.23
296.115	3.21
296.486	3.09
296.857	3.1
297.228	3.23
297.599	3.14
297.97	3.1
298.34	3.15
298.711	3.28
299.082	3.34
299.452	3.28
299.823	3.4
300.194	3.45
300.564	3.42
300.935	3.38
301.305	3.5
301.676	3.44
302.046	3.43
302.416	3.45
302.787	3.38
303.157	3.45
303.527	3.47
303.897	3.36
304.267	3.48
304.637	3.42
305.008	3.42
305.378	3.76
305.748	3.85
306.117	3.73
306.487	3.85
306.857	3.86
307.227	3.9
307.597	3.82
307.967	3.82
308.336	3.93
308.706	4.01
309.076	4.07
309.445	4.04
309.815	3.97
310.184	3.9
310.554	3.89
310.923	3.88
311.293	3.84
311.662	3.93
312.031	3.91
312.401	3.96
312.77	3.96
313.139	3.89
313.508	3.92
313.877	3.91
314.246	3.85
314.616	3.86
314.985	3.74
315.353	3.66
315.722	3.73
316.091	3.69
316.46	3.66
316.829	3.56
317.198	3.69
317.567	3.77
317.935	3.79
318.304	3.79
318.672	3.86
319.041	3.95
319.41	3.99
319.778	4.12
320.147	4.11
320.515	4.14
320.883	4.08
321.252	4.04
321.62	4.14
321.988	4.29
322.357	4.21
322.725	4.2
323.093	4.33
323.461	4.32
323.829	4.39
324.197	4.48
324.565	4.64
324.933	4.59
325.301	4.6
325.669	4.72
326.037	4.73
326.405	4.84
326.772	4.84
327.14	4.92
327.508	4.89
327.875	4.84
328.243	4.86
328.61	4.91
328.978	4.93
329.346	4.98
329.713	4.84
330.08	4.87
330.448	4.92
330.815	4.93
331.182	4.92
331.55	4.96
331.917	4.9
332.284	4.89
332.651	4.81
333.018	4.8
333.385	4.61
333.752	4.71
334.119	4.58
334.486	4.55
334.853	4.56
335.22	4.46
335.587	4.59
335.954	4.53
336.32	4.58
336.687	4.71
337.054	4.77
337.42	4.91
337.787	4.98
338.153	5.06
338.52	5.11
338.886	5.06
339.253	5.02
339.619	5.14
339.986	5.17
340.352	5.26
340.718	5.28
341.084	5.4
341.451	5.49
341.817	5.58
342.183	5.59
342.549	5.58
342.915	5.64
343.281	5.62
343.647	5.71
344.013	5.73
344.379	5.56
344.745	5.52
345.11	5.45
345.476	5.45
345.842	5.46
346.208	5.4
346.573	5.52
346.939	5.59
347.304	5.62
347.67	5.51
348.035	5.52
348.401	5.47
348.766	5.54
349.132	5.46
349.497	5.43
349.862	5.56
350.228	5.57
350.593	5.62
350.958	5.62
351.323	5.58
351.688	5.59
352.053	5.72
352.418	5.81
352.783	5.93
353.148	5.92
353.513	5.85
353.878	5.91
354.243	5.93
354.608	5.89
354.972	5.74
355.337	5.85
355.702	5.84
356.066	5.91
356.431	5.87
356.795	5.88
357.16	5.86
357.524	5.74
357.889	5.73
358.253	5.7
358.618	5.78
358.982	5.76
359.346	5.72
359.71	5.69
360.075	5.61
360.439	5.57
360.803	5.55
361.167	5.58
361.531	5.46
361.895	5.37
362.259	5.42
362.623	5.46
362.987	5.43
363.351	5.46
363.714	5.43
364.078	5.33
364.442	5.3
364.806	5.28
365.169	5.26
365.533	5.2
365.896	5.23
366.26	5.15
366.623	5.09
366.987	5.09
367.35	5.08
367.714	5.04
368.077	4.95
368.44	4.95
368.803	4.93
369.167	4.98
369.53	4.97
369.893	4.9
370.256	4.9
370.619	4.86
370.982	4.77
371.345	4.72
371.708	4.79
372.071	4.76
372.434	4.73
372.797	4.77
373.159	4.8
373.522	4.76
373.885	4.8
374.247	4.85
374.61	4.81
374.973	4.77
375.335	4.73
375.698	4.77
376.06	4.75
376.423	4.69
376.785	4.73
377.147	4.72
377.51	4.66
377.872	4.63
378.234	4.58
378.596	4.57
378.958	4.55
379.321	4.52
379.683	4.53
380.045	4.53
380.407	4.46
380.769	4.46
381.13	4.39
381.492	4.32
381.854	4.28
382.216	4.28
382.578	4.28
382.939	4.31
383.301	4.27
383.663	4.21
384.024	4.16
384.386	4.12
384.747	4.11
385.109	4.1
385.47	4.04
385.832	4.02
386.193	4
386.554	3.98
386.916	3.93
387.277	3.89
387.638	3.87
387.999	3.87
388.36	3.82
388.721	3.81
389.082	3.78
389.443	3.76
389.804	3.69
390.165	3.66
390.526	3.57
390.887	3.55
391.248	3.58
391.609	3.61
391.969	3.57
392.33	3.53
392.691	3.53
393.051	3.52
393.412	3.54
393.772	3.53
394.133	3.51
394.493	3.5
394.854	3.47
395.214	3.43
395.574	3.42
395.935	3.43
396.295	3.42
396.655	3.37
397.015	3.37
397.376	3.38
397.736	3.39
398.096	3.4
398.456	3.37
398.816	3.32
399.176	3.28
399.535	3.26
399.895	3.23
400.255	3.23
400.615	3.2
400.975	3.16
401.334	3.14
401.694	3.17
402.054	3.14
402.413	3.13
402.773	3.1
403.132	3.05
403.492	3.01
403.851	2.97
404.211	2.97
404.57	2.93
404.929	2.91
405.288	2.87
405.648	2.84
406.007	2.83
406.366	2.82
406.725	2.85
407.084	2.85
407.443	2.87
407.802	2.85
408.161	2.86
408.52	2.84
408.879	2.84
409.238	2.83
409.596	2.83
409.955	2.82
410.314	2.83
410.673	2.84
411.031	2.85
411.39	2.87
411.748	2.9
412.107	2.91
412.465	2.91
412.824	2.91
413.182	2.95
413.54	2.94
413.899	2.92
414.257	2.89
414.615	2.89
414.974	2.87
415.332	2.88
415.69	2.86
416.048	2.85
416.406	2.84
416.764	2.83
417.122	2.84
417.48	2.84
417.838	2.84
418.195	2.85
418.553	2.83
418.911	2.81
419.269	2.78
419.626	2.79
419.984	2.78
420.342	2.78
420.699	2.76
421.057	2.77
421.414	2.76
421.772	2.75
422.129	2.74
422.486	2.74
422.844	2.73
423.201	2.72
423.558	2.73
423.915	2.72
424.273	2.72
424.63	2.7
424.987	2.7
425.344	2.7
425.701	2.68
426.058	2.67
426.415	2.69
426.772	2.69
427.128	2.68
427.485	2.68
427.842	2.67
428.199	2.67
428.555	2.66
428.912	2.67
429.269	2.69
429.625	2.69
429.982	2.66
430.338	2.62
430.695	2.63
431.051	2.63
431.407	2.63
431.764	2.62
432.12	2.63
432.476	2.61
432.832	2.57
433.189	2.58
433.545	2.6
433.901	2.57
434.257	2.57
434.613	2.58
434.969	2.59
435.325	2.58
435.681	2.58
436.036	2.58
436.392	2.59
436.748	2.59
437.104	2.58
437.459	2.59
437.815	2.61
438.171	2.62
438.526	2.62
438.882	2.63
439.237	2.63
439.593	2.62
439.948	2.63
440.304	2.66
440.659	2.66
441.014	2.66
441.369	2.66
441.725	2.64
442.08	2.64
442.435	2.63
442.79	2.64
443.145	2.63
443.5	2.63
443.855	2.63
444.21	2.62
444.565	2.62
444.92	2.63
445.275	2.61
445.629	2.63
445.984	2.61
446.339	2.6
446.693	2.59
447.048	2.6
447.403	2.61
447.757	2.6
448.112	2.6
448.466	2.58
448.82	2.57
449.175	2.59
449.529	2.58
449.883	2.56
450.238	2.56
450.592	2.57
450.946	2.56
451.3	2.55
451.654	2.56
452.008	2.54
452.362	2.54
452.716	2.54
453.07	2.52
453.424	2.52
453.778	2.53
454.132	2.51
454.486	2.5
454.839	2.49
455.193	2.48
455.547	2.49
455.9	2.5
456.254	2.51
456.607	2.51
456.961	2.51
457.314	2.52
457.668	2.52
458.021	2.51
458.375	2.5
458.728	2.51
459.081	2.52
459.434	2.52
459.787	2.52
460.141	2.51
460.494	2.51
460.847	2.51
461.2	2.5
461.553	2.52
461.906	2.51
462.259	2.51
462.611	2.51
462.964	2.51
463.317	2.51
463.67	2.5
464.022	2.48
464.375	2.49
464.728	2.49
465.08	2.48
465.433	2.46
465.785	2.47
466.138	2.45
466.49	2.43
466.843	2.43
467.195	2.45
467.547	2.45
467.899	2.47
468.252	2.49
468.604	2.5
468.956	2.48
469.308	2.5
469.66	2.5
470.012	2.51
470.364	2.51
470.716	2.53
471.068	2.52
471.42	2.55
471.772	2.55
472.123	2.56
472.475	2.57
472.827	2.6
473.178	2.6
473.53	2.62
473.882	2.65
474.233	2.65
474.585	2.64
474.936	2.65
475.288	2.62
475.639	2.62
475.99	2.61
476.342	2.63
476.693	2.62
477.044	2.63
477.395	2.64
477.746	2.62
478.097	2.6
478.448	2.6
478.8	2.6
479.15	2.59
479.501	2.59
479.852	2.6
480.203	2.6
480.554	2.62
480.905	2.62
481.255	2.62
481.606	2.62
481.957	2.63
482.307	2.64
482.658	2.65
483.009	2.65
483.359	2.65
483.709	2.64
484.06	2.63
484.41	2.64
484.761	2.64
485.111	2.65
485.461	2.65
485.811	2.66
486.162	2.66
486.512	2.67
486.862	2.67
487.212	2.66
487.562	2.65
487.912	2.64
488.262	2.64
488.612	2.64
488.961	2.64
489.311	2.65
489.661	2.64
490.011	2.63
490.36	2.64
490.71	2.64
491.06	2.65
491.409	2.66
491.759	2.65
492.108	2.66
492.458	2.67
492.807	2.66
493.157	2.66
493.506	2.66
493.855	2.66
494.204	2.67
494.554	2.68
494.903	2.7
495.252	2.7
495.601	2.71
495.95	2.73
496.299	2.74
496.648	2.74
496.997	2.75
497.346	2.77
497.695	2.79
498.043	2.79
498.392	2.79
498.741	2.79
499.09	2.79
499.438	2.81
499.787	2.81
500.135	2.83
500.484	2.86
500.832	2.88
501.181	2.91
501.529	2.92
501.878	2.97
502.226	2.99
502.574	3.02
502.923	3.02
503.271	3.03
503.619	3.04
503.967	3.04
504.315	3.07
504.663	3.11
505.011	3.13
505.359	3.16
505.707	3.19
506.055	3.23
506.403	3.27
506.751	3.29
507.098	3.33
507.446	3.35
507.794	3.37
508.141	3.39
508.489	3.4
508.837	3.44
509.184	3.46
509.531	3.47
509.879	3.51
510.226	3.56
510.574	3.6
510.921	3.65
511.268	3.69
511.616	3.72
511.963	3.75
512.31	3.78
512.657	3.83
513.004	3.88
513.351	3.93
513.698	3.99
514.045	4.03
514.392	4.09
514.739	4.13
515.086	4.2
515.432	4.24
515.779	4.29
516.126	4.35
516.473	4.38
516.819	4.44
517.166	4.47
517.512	4.49
517.859	4.52
518.205	4.55
518.552	4.59
518.898	4.63
519.245	4.69
519.591	4.72
519.937	4.76
520.283	4.79
520.629	4.85
520.976	4.89
521.322	4.93
521.668	4.97
522.014	5.02
522.36	5.07
522.706	5.13
523.052	5.2
523.398	5.26
523.743	5.34
524.089	5.42
524.435	5.5
524.781	5.59
525.126	5.66
525.472	5.73
525.817	5.79
526.163	5.85
526.509	5.92
526.854	5.98
527.199	6.03
527.545	6.08
527.89	6.13
528.235	6.18
528.581	6.25
528.926	6.31
529.271	6.39
529.616	6.45
529.961	6.52
530.306	6.59
530.651	6.66
530.996	6.74
531.341	6.82
531.686	6.9
532.031	6.98
532.376	7.08
532.721	7.18
533.065	7.29
533.41	7.39
533.755	7.48
534.099	7.6
534.444	7.7
534.788	7.83
535.133	7.94
535.477	8.08
535.822	8.2
536.166	8.35
536.51	8.49
536.855	8.66
537.199	8.83
537.543	9
537.887	9.19
538.231	9.37
538.576	9.58
538.92	9.78
539.264	9.96
539.608	10.15
539.951	10.3
540.295	10.46
540.639	10.63
540.983	10.79
541.327	10.94
541.671	11.11
542.014	11.27
542.358	11.43
542.701	11.59
543.045	11.76
543.389	11.93
543.732	12.1
544.075	12.28
544.419	12.48
544.762	12.69
545.105	12.88
545.449	13.1
545.792	13.32
546.135	13.55
546.478	13.79
546.821	14.04
547.165	14.33
547.508	14.63
547.851	14.9
548.194	15.2
548.536	15.52
548.879	15.84
549.222	16.16
549.565	16.46
549.908	16.78
550.25	17.08
550.593	17.41
550.936	17.72
551.278	18.06
551.621	18.38
551.963	18.71
552.306	19.09
552.648	19.41
552.991	19.76
553.333	20.03
553.675	20.33
554.017	20.63
554.36	20.94
554.702	21.23
555.044	21.54
555.386	21.82
555.728	22.11
556.07	22.43
556.412	22.74
556.754	23.09
557.096	23.47
557.438	23.85
557.78	24.21
558.121	24.59
558.463	24.97
558.805	25.32
559.147	25.66
559.488	25.95
559.83	26.31
560.171	26.6
560.513	26.98
560.854	27.35
561.196	27.67
561.537	28
561.878	28.36
562.22	28.68
562.561	29.07
562.902	29.35
563.243	29.65
563.584	29.94
563.925	30.22
564.266	30.43
564.607	30.66
564.948	30.95
565.289	31.23
565.63	31.45
565.971	31.7
566.312	31.92
566.653	32.2
566.993	32.44
567.334	32.73
567.675	32.99
568.015	33.25
568.356	33.55
568.696	33.78
569.037	34.05
569.377	34.32
569.718	34.51
570.058	34.81
570.398	35.06
570.739	35.29
571.079	35.52
571.419	35.78
571.759	36.1
572.099	36.29
572.439	36.51
572.779	36.71
573.119	36.94
573.459	37.21
573.799	37.43
574.139	37.58
574.479	37.79
574.819	37.97
575.158	38.14
575.498	38.29
575.838	38.53
576.177	38.71
576.517	38.84
576.856	39.09
577.196	39.22
577.535	39.45
577.875	39.65
578.214	39.83
578.553	40.03
578.893	40.16
579.232	40.33
579.571	40.52
579.91	40.74
580.25	40.87
580.589	41.03
580.928	41.25
581.267	41.49
581.606	41.65
581.945	41.78
582.283	41.92
582.622	42.12
582.961	42.27
583.3	42.41
583.639	42.66
583.977	42.78
584.316	42.92
584.654	43.07
584.993	43.24
585.332	43.39
585.67	43.55
586.008	43.69
586.347	43.89
586.685	43.98
587.024	44.15
587.362	44.32
587.7	44.4
588.038	44.47
588.376	44.55
588.715	44.64
589.053	44.81
589.391	44.98
589.729	45.1
590.067	45.18
590.404	45.27
590.742	45.32
591.08	45.44
591.418	45.61
591.756	45.69
592.093	45.85
592.431	45.93
592.769	46.01
593.106	46.1
593.444	46.18
593.781	46.29
594.119	46.35
594.456	46.41
594.793	46.56
595.131	46.57
595.468	46.69
595.805	46.82
596.143	46.86
596.48	46.95
596.817	47.08
597.154	47.18
597.491	47.25
597.828	47.3
598.165	47.35
598.502	47.39
598.839	47.46
599.176	47.46
599.512	47.59
599.849	47.7
600.186	47.81
600.523	47.91
600.859	48
601.196	48.12
601.532	48.26
601.869	48.31
602.205	48.52
602.542	48.56
602.878	48.57
603.215	48.72
603.551	48.77
603.887	48.74
604.223	48.8
604.56	48.89
604.896	48.98
605.232	49.13
605.568	49.18
605.904	49.2
606.24	49.36
606.576	49.4
606.912	49.47
607.248	49.55
607.583	49.64
607.919	49.72
608.255	49.71
608.591	49.74
608.926	49.8
609.262	49.8
609.597	49.87
609.933	49.98
610.268	49.94
610.604	49.93
610.939	50.01
611.275	50.08
611.61	50.11
611.945	50.16
612.281	50.15
612.616	50.31
612.951	50.45
613.286	50.48
613.621	50.58
613.956	50.62
614.291	50.64
614.626	50.55
614.961	50.65
615.296	50.76
615.631	50.87
615.966	50.94
616.3	51
616.635	51.04
616.97	51.03
617.304	51.06
617.639	51.17
617.973	51.23
618.308	51.21
618.642	51.27
618.977	51.23
619.311	51.29
619.646	51.32
619.98	51.35
620.314	51.34
620.648	51.4
620.983	51.43
621.317	51.42
621.651	51.6
621.985	51.65
622.319	51.71
622.653	51.65
622.987	51.72
623.321	51.78
623.655	51.88
623.988	52.06
624.322	52.2
624.656	52.27
624.99	52.34
625.323	52.37
625.657	52.42
625.99	52.52
626.324	52.51
626.657	52.51
626.991	52.52
627.324	52.55
627.658	52.61
627.991	52.76
628.324	52.87
628.657	52.9
628.991	52.87
629.324	52.87
629.657	52.95
629.99	52.91
630.323	52.87
630.656	52.89
630.989	52.85
631.322	52.81
631.655	52.75
631.987	52.76
632.32	52.81
632.653	52.8
632.986	52.86
633.318	52.91
633.651	52.97
633.984	52.99
634.316	53.01
634.649	53.03
634.981	52.83
635.313	52.8
635.646	52.76
635.978	52.77
636.31	52.82
636.643	52.75
636.975	52.74
637.307	52.85
637.639	52.8
637.971	52.8
638.303	52.88
638.635	52.96
638.967	52.96
639.299	52.99
639.631	53.02
639.963	53
640.295	53
640.626	53.01
640.958	53.09
641.29	53.08
641.621	53.07
641.953	53.11
642.285	53.14
642.616	53.22
642.948	53.3
643.279	53.24
643.61	53.31
643.942	53.46
644.273	53.47
644.604	53.49
644.936	53.52
645.267	53.57
645.598	53.56
645.929	53.67
646.26	53.69
646.591	53.7
646.922	53.78
647.253	53.86
647.584	53.78
647.915	53.63
648.245	53.65
648.576	53.56
648.907	53.71
649.238	53.68
649.568	53.63
649.899	53.63
650.229	53.71
650.56	53.71
650.89	53.65
651.221	53.63
651.551	53.7
651.882	53.6
652.212	53.52
652.542	53.48
652.872	53.46
653.203	53.5
653.533	53.55
653.863	53.48
654.193	53.49
654.523	53.54
654.853	53.61
655.183	53.66
655.513	53.83
655.843	53.9
656.172	54.02
656.502	54.09
656.832	54.1
657.162	54.15
657.491	54.25
657.821	54.35
658.15	54.4
658.48	54.39
658.809	54.48
659.139	54.53
659.468	54.73
659.798	54.71
660.127	54.71
660.456	54.71
660.785	54.79
661.115	54.85
661.444	54.86
661.773	54.87
662.102	54.9
662.431	54.87
662.76	54.74
663.089	54.7
663.418	54.63
663.747	54.64
664.076	54.7
664.404	54.72
664.733	54.56
665.062	54.52
665.39	54.56
665.719	54.68
666.048	54.7
666.376	54.46
666.705	54.5
667.033	54.53
667.362	54.49
667.69	54.58
668.018	54.5
668.347	54.68
668.675	54.83
669.003	54.85
669.331	54.88
669.659	54.91
669.987	54.89
670.315	54.94
670.643	54.87
670.971	54.74
671.299	54.65
671.627	54.76
671.955	54.92
672.283	54.9
672.61	54.81
672.938	54.8
673.266	54.95
673.593	54.85
673.921	54.8
674.249	54.92
674.576	54.76
674.904	54.71
675.231	54.49
675.558	54.48
675.886	54.45
676.213	54.52
676.54	54.53
676.867	54.56
677.195	54.54
677.522	54.58
677.849	54.72
678.176	54.8
678.503	54.84
678.83	54.86
679.157	54.86
679.484	54.96
679.81	55.11
680.137	55.18
680.464	55.23
680.791	55.28
681.117	55.24
681.444	55.41
681.771	55.53
682.097	55.7
682.424	55.61
682.75	55.57
683.077	55.54
683.403	55.6
683.729	55.55
684.056	55.58
684.382	55.65
684.708	55.65
685.034	55.64
685.36	55.64
685.686	55.53
686.012	55.57
686.339	55.59
686.664	55.48
686.99	55.32
687.316	55.29
687.642	55.34
687.968	55.27
688.294	55.14
688.619	55.05
688.945	54.93
689.271	55.15
689.596	55.11
689.922	55.09
690.247	54.97
690.573	55.05
690.898	55.31
691.224	55.31
691.549	55.29
691.874	55.23
692.2	55.24
692.525	55.24
692.85	55.33
693.175	55.1
693.5	54.95
693.825	55.1
694.15	55.18
694.475	55.21
694.8	55.33
695.125	55.54
695.45	55.71
695.775	55.82
696.099	55.65
696.424	55.76
696.749	55.81
697.073	56.03
697.398	56.19
697.723	55.96
698.047	55.95
698.372	55.94
698.696	55.97
699.02	56.05
699.345	56.02
699.669	56.04
699.993	56.02
700.318	56.25
700.642	56.26
700.966	56.29
701.29	56.26
701.614	56.24
701.938	55.98
702.262	56.02
702.586	55.94
702.91	55.92
703.234	56.03
703.557	56.01
703.881	55.82
704.205	55.74
704.529	55.72
704.852	55.5
705.176	55.54
705.499	55.64
705.823	55.67
706.146	55.69
706.47	55.57
706.793	55.76
707.117	55.58
707.44	55.47
707.763	55.27
708.086	55.23
708.409	55.25
708.733	55.61
709.056	55.39
709.379	55.42
709.702	55.5
710.025	55.43
710.348	55.49
710.671	55.5
710.993	55.52
711.316	55.78
711.639	56.03
711.962	56.1
712.284	55.93
712.607	55.89
712.93	55.92
713.252	55.98
713.575	55.96
713.897	56.07
714.22	56.1
714.542	56.39
714.864	56.42
715.187	56.37
715.509	56.1
715.831	56.29
716.153	56.35
716.475	56.48
716.798	56.56
717.12	56.49
717.442	56.59
717.764	56.44
718.085	56.22
718.407	56.15
718.729	56.12
719.051	56.27
719.373	56.12
719.695	55.94
720.016	55.9
720.338	55.78
720.659	55.89
720.981	55.97
721.302	55.93
721.624	56.04
721.945	56.28
722.267	56.27
722.588	56.14
722.909	56.19
723.231	56.14
723.552	56.13
723.873	56.35
724.194	56.26
724.515	56.41
724.836	56.44
725.157	56.62
725.478	56.62
725.799	56.54
726.12	56.67
726.441	56.88
726.762	56.76
727.083	56.99
727.403	56.88
727.724	56.98
728.045	56.98
728.365	56.87
728.686	56.73
729.006	56.88
729.327	56.75
729.647	56.58
729.967	56.51
730.288	56.28
730.608	56
730.928	56.16
731.249	56.04
731.569	56.07
731.889	56.05
732.209	55.86
732.529	55.98
732.849	56.04
733.169	55.97
733.489	56.02
733.809	55.89
734.129	55.97
734.448	55.87
734.768	55.75
735.088	55.83
735.408	55.71
735.727	55.88
736.047	56.21
736.366	56.51
736.686	56.5
737.005	56.76
737.325	56.99
737.644	56.82
737.963	56.97
738.283	56.85
738.602	56.98
738.921	57.15
739.24	56.9
739.56	56.81
739.879	57.04
740.198	57.07
740.517	57.08
740.836	56.92
741.155	56.89
741.473	57.01
741.792	56.87
742.111	57
742.43	56.87
742.748	56.65
743.067	56.25
743.386	56.26
743.704	56.07
744.023	55.82
744.341	55.92
744.66	56.07
744.978	56.33
745.297	55.97
745.615	56.13
745.933	56.43
746.252	56.21
746.57	55.84
746.888	56.09
747.206	56.07
747.524	56.2
747.842	56.41
748.16	56.25
748.478	56.53
748.796	56.59
749.114	56.69
749.432	56.48
749.749	56.58
750.067	56.66
750.385	56.75
750.703	57.26
751.02	57.3
751.338	57.18
751.655	57.12
751.973	57.45
752.29	57.33
752.608	57.24
752.925	57.53
753.242	57.9
753.56	57.7
753.877	57.75
754.194	57.34
754.511	57.02
754.828	57.18
755.145	56.91
755.462	56.85
755.779	56.91
756.096	57.38
756.413	57.74
756.73	57.4
757.047	57.46
757.364	56.86
757.68	56.64
757.997	56.5
758.314	56.31
758.63	56.19
758.947	56.07
759.264	56.19
759.58	56.1
759.896	55.84
760.213	55.91
760.529	55.85
760.846	56.21
761.162	56.21
761.478	56.17
761.794	56.44
762.11	56.6
762.426	56.36
762.743	56.28
763.059	56.26
763.375	56.38
763.69	56.44
764.006	56.97
764.322	57.15
764.638	57.51
764.954	57.71
765.27	57.64
765.585	57.73
765.901	57.81
766.216	57.79
766.532	57.91
766.848	57.88
767.163	57.89
767.478	57.82
767.794	57.95
768.109	57.87
768.424	57.81
768.74	57.78
769.055	58.14
769.37	58.06
769.685	57.93
770	58.06
770.315	57.93
770.63	57.8
770.945	57.89
771.26	57.51
771.575	57.99
771.89	58.26
772.205	58.5
772.52	58.46
772.834	58.74
773.149	58.38
773.464	58.54
773.778	58.98
774.093	59.14
774.407	59.45
774.722	59.32
775.036	59.21
775.351	59.04
775.665	58.78
775.979	58.47
776.293	58.31
776.608	58.28
776.922	58.46
777.236	57.94
777.55	57.77
777.864	57.98
778.178	57.39
778.492	57.43
778.806	56.9
779.12	56.82
779.434	56.68
779.747	57.12
780.061	56.89
780.375	56.69
780.689	56.37
781.002	56.55
781.316	56.41
781.629	57.02
781.943	56.94
782.256	56.71
782.57	57.26
782.883	57.31
783.196	56.73
783.51	56.6
783.823	56.79
784.136	56.91
784.449	56.6
784.762	56.68
785.075	56.37
785.388	56.62
785.701	56.69
786.014	56.94
786.327	56.65
786.64	56.77
786.953	56.76
787.266	56.91
787.578	56.62
787.891	57.42
788.204	56.39
788.516	56.44
788.829	56.83
789.141	56.69
789.454	56.75
789.766	56.93
790.079	57.01
790.391	56.5
790.703	56.55
791.016	57.05
791.328	57.29
791.64	57.43
791.952	57.51
792.264	57.15
792.576	56.47
792.888	56.47
793.2	56.48
793.512	56.42
793.824	56.31
794.136	55.9
794.448	55.67
794.76	56.17
795.071	56.23
795.383	55.98
795.695	55.87
796.006	56.46
796.318	56.93
796.629	56.85
796.941	57.15
797.252	57.22
797.564	56.08
797.875	55.8
798.186	55.18
798.497	55.06
798.809	55.32
799.12	55.77
799.431	55.99
799.742	56.29
800.053	56.66
800.364	56.73
800.675	56.97
800.986	56.82
801.297	56.72
801.608	56.59
801.918	57.1
802.229	57.29
802.54	56.47
802.851	56.62
803.161	56.46
803.472	56.14
803.782	56.55
804.093	57.03
804.403	56.83
804.714	57.02
805.024	56.88
805.334	56.93
805.645	56.98
805.955	56.83
806.265	56.48
806.575	55.86
806.885	56.39
807.195	56.35
807.505	56.58
807.815	56.7
808.125	57.26
808.435	56.34
808.745	56.05
809.055	56.36
809.365	56.2
809.674	56.64
809.984	57.51
810.294	56.77
810.603	57.61
810.913	56.89
811.222	57.23
811.532	57.46
811.841	57.18
812.151	57.34
812.46	57.77
812.769	57.55
813.079	57.68
813.388	57.55
813.697	58.16
814.006	57.66
814.315	57.49
814.624	56.78
814.933	57.31
815.242	57.56
815.551	57.38
815.86	57.59
816.169	57.53
816.478	56.6
816.786	56.07
817.095	55.12
817.404	57.08
817.712	57.55
818.021	57.2
818.33	57.22
818.638	56.48
818.947	56.22
819.255	56.45
819.563	56.96
819.872	56.89
820.18	56.61
820.488	56.87
820.796	57.04
821.105	57.21
821.413	57.19
821.721	57.39
822.029	57.67
822.337	57.81
822.645	57.76
822.953	57.76
823.26	58.03
823.568	58.18
823.876	57.75
824.184	57.56
824.491	57.52
824.799	57.63
825.107	57.79
825.414	57.91
825.722	58
826.029	58.04
826.337	57.97
826.644	58.13
826.951	58.14
827.259	58.23
827.566	58.03
827.873	57.99
828.18	57.93
828.488	57.9
828.795	57.7
829.102	57.79
829.409	58.18
829.716	57.94
830.023	57.81
830.329	58.1
830.636	58.39
830.943	58.75
831.25	58.65
831.557	58.51
831.863	58.86
832.17	58.99
832.476	58.72
832.783	58.83
833.089	58.5
833.396	58.46
833.702	58.37
834.009	59.03
834.315	59.31
834.621	58.93
834.928	58.81
835.234	58.68
835.54	58.69
835.846	58.87
836.152	58.81
836.458	59.18
836.764	59.27
837.07	59.25
837.376	58.9
837.682	58.8
837.988	59.01
838.293	58.48
838.599	58.16
838.905	58.4
839.211	58.15
839.516	58.06
839.822	58.32
840.127	58.24
840.433	57.53
840.738	57.64
841.044	57.8
841.349	57.83
841.654	57.27
841.959	56.62
842.265	55.54
842.57	56.04
842.875	56.62
843.18	56.57
843.485	57.38
843.79	57.67
844.095	58.19
844.4	58.12
844.705	58.02
845.01	57.33
845.315	57.02
845.619	57.39
845.924	58.42
846.229	57.74
846.533	58.6
846.838	58.58
847.142	58.14
847.447	58.03
847.751	56.46
848.056	57.32
848.36	58.31
848.664	59.56
848.969	57.85
849.273	55.59
849.577	54.08
849.881	52.04
850.185	51.78
850.489	50.59
850.794	49.83
851.097	48.89
851.401	49.06
851.705	47.65
852.009	48.6
852.313	48.05
852.617	48.9
852.92	48.4
853.224	48.69
853.528	49.3
853.831	48.98
854.135	48.68
854.438	48.09
854.742	46.81
855.045	44.4
855.349	46.22
855.652	46.09
855.955	46.94
856.259	46.54
856.562	48.45
856.865	48.71
857.168	50.39
857.471	50.56
857.774	51.36
858.077	51.9
858.38	51.45
858.683	51.4
858.986	51.74
859.289	50.32
859.592	51.51
859.894	51.36
860.197	51.63
860.5	53.15
860.802	54.14
861.105	54.2
861.407	56.02
861.71	55.32
862.012	55.02
862.315	56.35
862.617	56.38
862.919	53.96
863.222	53.24
863.524	51.93
863.826	53.33
864.128	53.73
864.43	52.81
864.732	54.29
865.034	53.5
865.336	51.22
865.638	52.07
865.94	50.41
866.242	50.8
866.544	50.12
866.846	49.26
867.147	48.5
867.449	47.59
867.751	48.79
868.052	48.63
868.354	48.65
868.655	47.89
868.957	48.92
869.258	50.2
869.56	51.77
869.861	52.74
870.162	52.63
870.463	53.57
870.765	55.01
871.066	51.16
871.367	50.89
871.668	50.65
871.969	49.48
872.27	47.67
872.571	46.37
872.872	46.93
873.173	45.27
873.473	45.54
873.774	48.3
874.075	47.54
874.376	48.02
874.676	50.57
874.977	48.86
875.277	49.39
875.578	49.68
875.878	49.18
876.179	48.65
876.479	47.9
876.78	46.15
877.08	45.43
877.38	46.95
877.68	48.2
877.981	49.54
878.281	51.19
878.581	56.29
