Data from BA28300_Reflection_00006.txt Node
Date: Mon Nov 18 15:58:10 EST 2019
User: vgr7
Spectrometer: USB2G7710
Scans to average: 3
Trigger mode: 4
Integration Time (sec): 2.000000E-2
Electric dark correction enabled: true
Boxcar width: 10
XAxis mode: Wavelengths
Number of Pixels in Spectrum: 2048
>>>>>Begin Spectral Data<<<<<
177.721	575.2
178.105	394.12
178.488	-149.69
178.871	-80.2
179.254	-73.01
179.636	52.32
180.019	89.02
180.402	13.89
180.785	44.79
181.168	140.77
181.55	942.11
181.933	209.22
182.316	204.73
182.698	128.59
183.081	153.26
183.463	187.39
183.846	171.14
184.228	143.32
184.611	250.34
184.993	-1730.99
185.376	-8252.94
185.758	668.27
186.14	715.92
186.522	420.17
186.904	477.82
187.287	1018.92
187.669	-425.04
188.051	-2572.9
188.433	7667.57
188.815	-323.13
189.197	-402.69
189.579	-130.22
189.961	-414.47
190.342	-499.12
190.724	-261.15
191.106	-297.46
191.488	-198.51
191.869	-294.97
192.251	-379.11
192.633	-274.58
193.014	321.57
193.396	157.89
193.777	-426.69
194.159	1425.71
194.54	-12841.18
194.922	851.38
195.303	-1900
195.684	-1477.46
196.065	-57.99
196.447	-123.42
196.828	-279.42
197.209	-156.33
197.59	-545.16
197.971	-317.58
198.352	-105.42
198.733	-104.77
199.114	-112.57
199.495	-169.74
199.876	-113.71
200.257	-114.99
200.638	-104.9
201.018	-102.87
201.399	-71.17
201.78	-49.46
202.16	-4.21
202.541	-67.97
202.922	-222.44
203.302	-422.48
203.683	-603.79
204.063	-422.44
204.444	-233.61
204.824	-335.56
205.204	-363.69
205.585	-230.59
205.965	-216.93
206.345	-382.69
206.725	-784.71
207.106	-3311.76
207.486	-1035.45
207.866	-4502.41
208.246	-833.62
208.626	-586.73
209.006	-305.9
209.386	-423.5
209.766	-665.37
210.145	-455.47
210.525	-309.83
210.905	-200.31
211.285	-187.78
211.664	-140.63
212.044	-148.82
212.424	-188.42
212.803	-156.5
213.183	-159.65
213.562	-169.83
213.942	-164.56
214.321	-126.39
214.701	-131.81
215.08	-102.88
215.459	-104.18
215.838	-91.59
216.218	-104.46
216.597	-81.63
216.976	-91.52
217.355	-78.08
217.734	-70.4
218.113	-60.37
218.492	-39.19
218.871	-42.11
219.25	-37.02
219.629	-46.02
220.008	-57.13
220.387	-45.23
220.766	-40.32
221.144	-44.46
221.523	-32.3
221.902	-35.6
222.28	-33.93
222.659	-26.82
223.037	-22.39
223.416	-33.19
223.794	-40.74
224.173	-35.43
224.551	-30.83
224.929	-29.96
225.308	-27.17
225.686	-21.72
226.064	-23.62
226.442	-22.47
226.821	-16.97
227.199	-12.12
227.577	-12.94
227.955	-10.01
228.333	-16.17
228.711	-14.09
229.089	-9.77
229.467	-12.49
229.845	-14.18
230.222	-14.61
230.6	-13.87
230.978	-13.04
231.356	-8.43
231.733	-4.91
232.111	-3.22
232.488	-3.63
232.866	-2.46
233.243	-0.17
233.621	-0.06
233.998	2.15
234.376	1.35
234.753	1.42
235.13	-0.42
235.508	1.33
235.885	2.86
236.262	4.14
236.639	3.62
237.016	3.74
237.393	3.24
237.77	5.7
238.147	6.39
238.524	5.59
238.901	6.73
239.278	6.36
239.655	6.73
240.032	6.4
240.409	6.78
240.785	6.51
241.162	5.62
241.539	5.17
241.915	5.48
242.292	5.25
242.668	5.19
243.045	5.21
243.421	4.8
243.798	4.33
244.174	4.5
244.551	4.52
244.927	4.41
245.303	4.62
245.679	4.24
246.056	3.97
246.432	4.08
246.808	3.82
247.184	3.72
247.56	3.38
247.936	3.36
248.312	3.19
248.688	3.28
249.064	3.43
249.44	3.42
249.815	3.19
250.191	3.32
250.567	3.47
250.943	3.52
251.318	3.86
251.694	3.96
252.069	3.84
252.445	3.77
252.82	3.91
253.196	3.97
253.571	3.94
253.947	4.32
254.322	4.34
254.697	4.24
255.073	3.85
255.448	4.1
255.823	4.21
256.198	4.19
256.573	4.3
256.948	4.25
257.323	4.4
257.698	4.29
258.073	4.23
258.448	4.02
258.823	3.82
259.198	3.56
259.573	3.47
259.948	3.44
260.322	3.48
260.697	3.49
261.072	3.36
261.446	3.4
261.821	3.28
262.195	3.25
262.57	3.26
262.944	3.55
263.319	3.41
263.693	3.37
264.067	3.33
264.442	3.33
264.816	3.43
265.19	3.27
265.564	3.32
265.938	3.03
266.313	2.98
266.687	3.12
267.061	3.17
267.435	3.32
267.809	3.43
268.183	3.39
268.556	3.1
268.93	3.21
269.304	3.49
269.678	3.61
270.051	3.73
270.425	3.84
270.799	3.84
271.172	3.91
271.546	3.96
271.919	3.97
272.293	3.89
272.666	3.78
273.04	3.91
273.413	3.82
273.787	4.01
274.16	3.98
274.533	3.81
274.906	3.91
275.279	3.96
275.653	3.91
276.026	3.93
276.399	4.07
276.772	4.04
277.145	3.77
277.518	3.68
277.891	3.51
278.263	3.37
278.636	3.36
279.009	3.2
279.382	3.22
279.755	3.1
280.127	3.18
280.5	3.2
280.872	3.33
281.245	3.36
281.617	3.42
281.99	3.52
282.362	3.73
282.735	3.54
283.107	3.6
283.479	3.67
283.852	3.64
284.224	3.7
284.596	3.66
284.968	3.65
285.34	3.72
285.713	3.77
286.085	3.98
286.457	4.06
286.829	4.14
287.201	4.11
287.572	4.17
287.944	4.04
288.316	4.02
288.688	3.82
289.06	3.83
289.431	3.82
289.803	3.76
290.175	3.65
290.546	3.83
290.918	3.86
291.289	3.85
291.661	4.12
292.032	4.09
292.403	4.12
292.775	4.18
293.146	4.13
293.517	4.15
293.889	4.02
294.26	3.88
294.631	3.89
295.002	3.82
295.373	3.85
295.744	3.86
296.115	3.95
296.486	3.96
296.857	3.95
297.228	4.02
297.599	4.09
297.97	4.26
298.34	4.23
298.711	4.11
299.082	4.04
299.452	3.9
299.823	4.03
300.194	4.03
300.564	4.05
300.935	4.09
301.305	4.06
301.676	4.13
302.046	4.03
302.416	4.07
302.787	4.23
303.157	4.21
303.527	4.34
303.897	4.4
304.267	4.49
304.637	4.51
305.008	4.39
305.378	4.44
305.748	4.27
306.117	4.18
306.487	4.21
306.857	4.2
307.227	4.23
307.597	4.13
307.967	4.18
308.336	4.28
308.706	4.16
309.076	4.27
309.445	4.12
309.815	4.19
310.184	4.08
310.554	4.02
310.923	4.01
311.293	3.99
311.662	3.95
312.031	3.96
312.401	3.91
312.77	4.03
313.139	3.96
313.508	4.11
313.877	4.21
314.246	4.24
314.616	4.25
314.985	4.22
315.353	4.18
315.722	4.16
316.091	4.09
316.46	4.03
316.829	3.91
317.198	3.98
317.567	3.97
317.935	4.1
318.304	4.1
318.672	4.16
319.041	4.24
319.41	4.12
319.778	4.15
320.147	4.22
320.515	4.16
320.883	4.04
321.252	3.87
321.62	3.95
321.988	3.93
322.357	3.95
322.725	3.84
323.093	3.85
323.461	3.87
323.829	3.87
324.197	4.08
324.565	4.08
324.933	4.09
325.301	4.05
325.669	3.95
326.037	3.82
326.405	3.77
326.772	3.75
327.14	3.8
327.508	3.69
327.875	3.58
328.243	3.53
328.61	3.65
328.978	3.73
329.346	3.76
329.713	3.74
330.08	3.64
330.448	3.65
330.815	3.54
331.182	3.41
331.55	3.34
331.917	3.27
332.284	3.34
332.651	3.39
333.018	3.48
333.385	3.53
333.752	3.52
334.119	3.55
334.486	3.42
334.853	3.38
335.22	3.36
335.587	3.51
335.954	3.49
336.32	3.4
336.687	3.42
337.054	3.25
337.42	3.23
337.787	3.31
338.153	3.31
338.52	3.33
338.886	3.3
339.253	3.36
339.619	3.32
339.986	3.26
340.352	3.27
340.718	3.19
341.084	3.14
341.451	3.26
341.817	3.28
342.183	3.26
342.549	3.27
342.915	3.32
343.281	3.25
343.647	3.25
344.013	3.32
344.379	3.19
344.745	3.2
345.11	3.2
345.476	3.18
345.842	3.17
346.208	3.25
346.573	3.36
346.939	3.49
347.304	3.51
347.67	3.53
348.035	3.44
348.401	3.58
348.766	3.63
349.132	3.59
349.497	3.54
349.862	3.74
350.228	3.77
350.593	3.83
350.958	3.89
351.323	3.91
351.688	4.04
352.053	4.13
352.418	4.21
352.783	4.24
353.148	4.26
353.513	4.32
353.878	4.27
354.243	4.35
354.608	4.26
354.972	4.24
355.337	4.25
355.702	4.32
356.066	4.25
356.431	4.22
356.795	4.29
357.16	4.32
357.524	4.21
357.889	4.1
358.253	4.06
358.618	4.05
358.982	3.98
359.346	3.84
359.71	3.85
360.075	3.82
360.439	3.77
360.803	3.8
361.167	3.8
361.531	3.79
361.895	3.73
362.259	3.68
362.623	3.67
362.987	3.67
363.351	3.61
363.714	3.65
364.078	3.66
364.442	3.58
364.806	3.51
365.169	3.55
365.533	3.6
365.896	3.62
366.26	3.61
366.623	3.63
366.987	3.65
367.35	3.66
367.714	3.65
368.077	3.68
368.44	3.67
368.803	3.65
369.167	3.64
369.53	3.6
369.893	3.64
370.256	3.65
370.619	3.66
370.982	3.67
371.345	3.63
371.708	3.68
372.071	3.67
372.434	3.67
372.797	3.57
373.159	3.53
373.522	3.53
373.885	3.51
374.247	3.51
374.61	3.5
374.973	3.49
375.335	3.47
375.698	3.49
376.06	3.47
376.423	3.48
376.785	3.53
377.147	3.55
377.51	3.52
377.872	3.55
378.234	3.49
378.596	3.6
378.958	3.54
379.321	3.51
379.683	3.54
380.045	3.55
380.407	3.56
380.769	3.57
381.13	3.6
381.492	3.6
381.854	3.67
382.216	3.71
382.578	3.72
382.939	3.7
383.301	3.69
383.663	3.68
384.024	3.71
384.386	3.69
384.747	3.69
385.109	3.72
385.47	3.7
385.832	3.78
386.193	3.72
386.554	3.77
386.916	3.76
387.277	3.77
387.638	3.8
387.999	3.86
388.36	3.86
388.721	3.84
389.082	3.81
389.443	3.77
389.804	3.79
390.165	3.76
390.526	3.77
390.887	3.79
391.248	3.81
391.609	3.79
391.969	3.8
392.33	3.82
392.691	3.82
393.051	3.8
393.412	3.76
393.772	3.73
394.133	3.71
394.493	3.71
394.854	3.69
395.214	3.67
395.574	3.64
395.935	3.64
396.295	3.63
396.655	3.68
397.015	3.68
397.376	3.64
397.736	3.67
398.096	3.7
398.456	3.68
398.816	3.69
399.176	3.64
399.535	3.64
399.895	3.61
400.255	3.58
400.615	3.59
400.975	3.6
401.334	3.61
401.694	3.64
402.054	3.65
402.413	3.65
402.773	3.66
403.132	3.65
403.492	3.68
403.851	3.69
404.211	3.66
404.57	3.66
404.929	3.66
405.288	3.64
405.648	3.63
406.007	3.61
406.366	3.61
406.725	3.66
407.084	3.65
407.443	3.65
407.802	3.67
408.161	3.65
408.52	3.63
408.879	3.64
409.238	3.65
409.596	3.65
409.955	3.65
410.314	3.65
410.673	3.66
411.031	3.66
411.39	3.67
411.748	3.67
412.107	3.69
412.465	3.69
412.824	3.7
413.182	3.68
413.54	3.69
413.899	3.69
414.257	3.66
414.615	3.63
414.974	3.64
415.332	3.63
415.69	3.61
416.048	3.61
416.406	3.61
416.764	3.57
417.122	3.56
417.48	3.55
417.838	3.54
418.195	3.54
418.553	3.52
418.911	3.5
419.269	3.51
419.626	3.49
419.984	3.5
420.342	3.49
420.699	3.49
421.057	3.48
421.414	3.47
421.772	3.47
422.129	3.47
422.486	3.47
422.844	3.46
423.201	3.47
423.558	3.48
423.915	3.48
424.273	3.49
424.63	3.49
424.987	3.49
425.344	3.51
425.701	3.51
426.058	3.52
426.415	3.51
426.772	3.49
427.128	3.49
427.485	3.49
427.842	3.49
428.199	3.51
428.555	3.51
428.912	3.52
429.269	3.53
429.625	3.52
429.982	3.51
430.338	3.51
430.695	3.5
431.051	3.49
431.407	3.49
431.764	3.49
432.12	3.5
432.476	3.49
432.832	3.45
433.189	3.45
433.545	3.45
433.901	3.45
434.257	3.46
434.613	3.45
434.969	3.47
435.325	3.48
435.681	3.47
436.036	3.46
436.392	3.45
436.748	3.45
437.104	3.47
437.459	3.47
437.815	3.47
438.171	3.49
438.526	3.51
438.882	3.5
439.237	3.49
439.593	3.49
439.948	3.48
440.304	3.49
440.659	3.48
441.014	3.48
441.369	3.5
441.725	3.5
442.08	3.52
442.435	3.51
442.79	3.48
443.145	3.48
443.5	3.47
443.855	3.46
444.21	3.46
444.565	3.47
444.92	3.46
445.275	3.46
445.629	3.44
445.984	3.43
446.339	3.43
446.693	3.42
447.048	3.41
447.403	3.42
447.757	3.42
448.112	3.42
448.466	3.43
448.82	3.43
449.175	3.41
449.529	3.39
449.883	3.37
450.238	3.37
450.592	3.39
450.946	3.38
451.3	3.39
451.654	3.4
452.008	3.38
452.362	3.39
452.716	3.39
453.07	3.39
453.424	3.38
453.778	3.4
454.132	3.41
454.486	3.41
454.839	3.39
455.193	3.39
455.547	3.38
455.9	3.37
456.254	3.36
456.607	3.36
456.961	3.39
457.314	3.39
457.668	3.41
458.021	3.4
458.375	3.41
458.728	3.42
459.081	3.42
459.434	3.42
459.787	3.43
460.141	3.42
460.494	3.45
460.847	3.46
461.2	3.45
461.553	3.44
461.906	3.46
462.259	3.48
462.611	3.49
462.964	3.52
463.317	3.54
463.67	3.55
464.022	3.55
464.375	3.54
464.728	3.56
465.08	3.56
465.433	3.55
465.785	3.55
466.138	3.54
466.49	3.54
466.843	3.54
467.195	3.56
467.547	3.56
467.899	3.54
468.252	3.53
468.604	3.53
468.956	3.52
469.308	3.52
469.66	3.51
470.012	3.51
470.364	3.5
470.716	3.49
471.068	3.48
471.42	3.5
471.772	3.51
472.123	3.52
472.475	3.52
472.827	3.55
473.178	3.57
473.53	3.56
473.882	3.55
474.233	3.59
474.585	3.56
474.936	3.55
475.288	3.55
475.639	3.57
475.99	3.58
476.342	3.59
476.693	3.62
477.044	3.63
477.395	3.62
477.746	3.61
478.097	3.59
478.448	3.58
478.8	3.58
479.15	3.56
479.501	3.55
479.852	3.55
480.203	3.55
480.554	3.53
480.905	3.54
481.255	3.55
481.606	3.53
481.957	3.54
482.307	3.56
482.658	3.55
483.009	3.55
483.359	3.55
483.709	3.54
484.06	3.54
484.41	3.54
484.761	3.55
485.111	3.55
485.461	3.55
485.811	3.57
486.162	3.57
486.512	3.59
486.862	3.59
487.212	3.6
487.562	3.6
487.912	3.62
488.262	3.62
488.612	3.63
488.961	3.63
489.311	3.63
489.661	3.62
490.011	3.63
490.36	3.62
490.71	3.63
491.06	3.64
491.409	3.64
491.759	3.63
492.108	3.63
492.458	3.64
492.807	3.64
493.157	3.63
493.506	3.63
493.855	3.62
494.204	3.62
494.554	3.62
494.903	3.62
495.252	3.61
495.601	3.61
495.95	3.6
496.299	3.59
496.648	3.58
496.997	3.6
497.346	3.62
497.695	3.64
498.043	3.63
498.392	3.64
498.741	3.65
499.09	3.66
499.438	3.66
499.787	3.67
500.135	3.7
500.484	3.7
500.832	3.71
501.181	3.73
501.529	3.73
501.878	3.73
502.226	3.75
502.574	3.77
502.923	3.77
503.271	3.77
503.619	3.81
503.967	3.8
504.315	3.82
504.663	3.79
505.011	3.81
505.359	3.81
505.707	3.82
506.055	3.83
506.403	3.84
506.751	3.85
507.098	3.86
507.446	3.85
507.794	3.86
508.141	3.85
508.489	3.84
508.837	3.88
509.184	3.9
509.531	3.91
509.879	3.93
510.226	3.95
510.574	3.97
510.921	3.96
511.268	3.98
511.616	4
511.963	4.02
512.31	4.02
512.657	4.04
513.004	4.04
513.351	4.06
513.698	4.07
514.045	4.07
514.392	4.07
514.739	4.06
515.086	4.08
515.432	4.07
515.779	4.07
516.126	4.07
516.473	4.06
516.819	4.07
517.166	4.06
517.512	4.05
517.859	4.05
518.205	4.05
518.552	4.05
518.898	4.04
519.245	4.02
519.591	4
519.937	4
520.283	4.01
520.629	4.01
520.976	4.01
521.322	4.01
521.668	4.03
522.014	4.04
522.36	4.05
522.706	4.07
523.052	4.08
523.398	4.08
523.743	4.08
524.089	4.07
524.435	4.07
524.781	4.1
525.126	4.1
525.472	4.11
525.817	4.12
526.163	4.12
526.509	4.15
526.854	4.17
527.199	4.17
527.545	4.18
527.89	4.18
528.235	4.19
528.581	4.18
528.926	4.19
529.271	4.2
529.616	4.2
529.961	4.19
530.306	4.2
530.651	4.2
530.996	4.21
531.341	4.21
531.686	4.22
532.031	4.21
532.376	4.22
532.721	4.21
533.065	4.22
533.41	4.23
533.755	4.23
534.099	4.23
534.444	4.23
534.788	4.23
535.133	4.23
535.477	4.25
535.822	4.27
536.166	4.26
536.51	4.25
536.855	4.27
537.199	4.28
537.543	4.27
537.887	4.27
538.231	4.27
538.576	4.28
538.92	4.28
539.264	4.29
539.608	4.3
539.951	4.31
540.295	4.31
540.639	4.32
540.983	4.32
541.327	4.32
541.671	4.33
542.014	4.33
542.358	4.32
542.701	4.31
543.045	4.3
543.389	4.31
543.732	4.32
544.075	4.33
544.419	4.32
544.762	4.34
545.105	4.35
545.449	4.34
545.792	4.34
546.135	4.35
546.478	4.34
546.821	4.32
547.165	4.31
547.508	4.32
547.851	4.3
548.194	4.29
548.536	4.29
548.879	4.28
549.222	4.28
549.565	4.27
549.908	4.3
550.25	4.32
550.593	4.32
550.936	4.31
551.278	4.29
551.621	4.31
551.963	4.31
552.306	4.34
552.648	4.35
552.991	4.38
553.333	4.36
553.675	4.36
554.017	4.35
554.36	4.39
554.702	4.39
555.044	4.39
555.386	4.44
555.728	4.45
556.07	4.45
556.412	4.43
556.754	4.44
557.096	4.41
557.438	4.37
557.78	4.37
558.121	4.37
558.463	4.36
558.805	4.35
559.147	4.33
559.488	4.28
559.83	4.27
560.171	4.26
560.513	4.28
560.854	4.28
561.196	4.3
561.537	4.29
561.878	4.28
562.22	4.27
562.561	4.25
562.902	4.29
563.243	4.3
563.584	4.32
563.925	4.32
564.266	4.33
564.607	4.35
564.948	4.37
565.289	4.36
565.63	4.36
565.971	4.35
566.312	4.36
566.653	4.36
566.993	4.38
567.334	4.38
567.675	4.41
568.015	4.4
568.356	4.38
568.696	4.37
569.037	4.39
569.377	4.43
569.718	4.43
570.058	4.4
570.398	4.42
570.739	4.43
571.079	4.44
571.419	4.42
571.759	4.46
572.099	4.45
572.439	4.47
572.779	4.46
573.119	4.51
573.459	4.52
573.799	4.54
574.139	4.54
574.479	4.53
574.819	4.52
575.158	4.52
575.498	4.54
575.838	4.57
576.177	4.52
576.517	4.47
576.856	4.47
577.196	4.45
577.535	4.42
577.875	4.43
578.214	4.42
578.553	4.46
578.893	4.42
579.232	4.39
579.571	4.36
579.91	4.37
580.25	4.35
580.589	4.33
580.928	4.32
581.267	4.32
581.606	4.3
581.945	4.3
582.283	4.3
582.622	4.31
582.961	4.3
583.3	4.36
583.639	4.41
583.977	4.43
584.316	4.48
584.654	4.46
584.993	4.48
585.332	4.51
585.67	4.51
586.008	4.51
586.347	4.52
586.685	4.51
587.024	4.54
587.362	4.54
587.7	4.51
588.038	4.51
588.376	4.5
588.715	4.49
589.053	4.49
589.391	4.5
589.729	4.51
590.067	4.5
590.404	4.48
590.742	4.48
591.08	4.45
591.418	4.44
591.756	4.44
592.093	4.42
592.431	4.41
592.769	4.43
593.106	4.42
593.444	4.41
593.781	4.45
594.119	4.46
594.456	4.44
594.793	4.48
595.131	4.47
595.468	4.47
595.805	4.5
596.143	4.5
596.48	4.52
596.817	4.49
597.154	4.54
597.491	4.57
597.828	4.56
598.165	4.53
598.502	4.54
598.839	4.54
599.176	4.53
599.512	4.53
599.849	4.53
600.186	4.5
600.523	4.55
600.859	4.53
601.196	4.53
601.532	4.56
601.869	4.53
602.205	4.56
602.542	4.58
602.878	4.6
603.215	4.61
603.551	4.6
603.887	4.64
604.223	4.59
604.56	4.6
604.896	4.6
605.232	4.61
605.568	4.61
605.904	4.63
606.24	4.68
606.576	4.69
606.912	4.69
607.248	4.73
607.583	4.74
607.919	4.76
608.255	4.74
608.591	4.74
608.926	4.78
609.262	4.8
609.597	4.78
609.933	4.79
610.268	4.77
610.604	4.75
610.939	4.73
611.275	4.77
611.61	4.74
611.945	4.75
612.281	4.77
612.616	4.78
612.951	4.81
613.286	4.74
613.621	4.72
613.956	4.66
614.291	4.64
614.626	4.66
614.961	4.63
615.296	4.6
615.631	4.62
615.966	4.65
616.3	4.56
616.635	4.57
616.97	4.53
617.304	4.57
617.639	4.61
617.973	4.58
618.308	4.56
618.642	4.58
618.977	4.59
619.311	4.58
619.646	4.56
619.98	4.52
620.314	4.55
620.648	4.6
620.983	4.67
621.317	4.72
621.651	4.69
621.985	4.75
622.319	4.79
622.653	4.77
622.987	4.76
623.321	4.83
623.655	4.84
623.988	4.91
624.322	4.87
624.656	4.84
624.99	4.88
625.323	4.88
625.657	4.89
625.99	4.92
626.324	4.89
626.657	4.92
626.991	4.94
627.324	4.96
627.658	4.92
627.991	4.91
628.324	4.9
628.657	4.87
628.991	4.81
629.324	4.84
629.657	4.86
629.99	4.83
630.323	4.79
630.656	4.84
630.989	4.81
631.322	4.85
631.655	4.85
631.987	4.85
632.32	4.87
632.653	4.86
632.986	4.86
633.318	4.92
633.651	4.92
633.984	4.91
634.316	4.87
634.649	4.86
634.981	4.83
635.313	4.82
635.646	4.8
635.978	4.82
636.31	4.77
636.643	4.77
636.975	4.78
637.307	4.83
637.639	4.72
637.971	4.73
638.303	4.73
638.635	4.7
638.967	4.7
639.299	4.73
639.631	4.68
639.963	4.61
640.295	4.6
640.626	4.59
640.958	4.59
641.29	4.59
641.621	4.62
641.953	4.64
642.285	4.67
642.616	4.79
642.948	4.83
643.279	4.84
643.61	4.86
643.942	4.9
644.273	4.83
644.604	4.89
644.936	4.86
645.267	4.87
645.598	4.88
645.929	4.84
646.26	4.77
646.591	4.75
646.922	4.79
647.253	4.77
647.584	4.8
647.915	4.77
648.245	4.87
648.576	4.86
648.907	4.85
649.238	4.8
649.568	4.75
649.899	4.73
650.229	4.73
650.56	4.76
650.89	4.77
651.221	4.86
651.551	4.87
651.882	4.9
652.212	4.88
652.542	4.87
652.872	4.91
653.203	4.92
653.533	4.99
653.863	5.06
654.193	5.04
654.523	5.03
654.853	5.09
655.183	5.09
655.513	5.06
655.843	5.1
656.172	5.16
656.502	5.13
656.832	5.17
657.162	5.19
657.491	5.16
657.821	5.16
658.15	5.15
658.48	5.17
658.809	5.14
659.139	5.17
659.468	5.2
659.798	5.19
660.127	5.23
660.456	5.28
660.785	5.27
661.115	5.24
661.444	5.25
661.773	5.28
662.102	5.22
662.431	5.35
662.76	5.29
663.089	5.27
663.418	5.21
663.747	5.21
664.076	5.18
664.404	5.15
664.733	5.17
665.062	5.12
665.39	5.12
665.719	5.17
666.048	5.21
666.376	5.21
666.705	5.29
667.033	5.21
667.362	5.15
667.69	5.13
668.018	5.18
668.347	5.12
668.675	5.12
669.003	5.2
669.331	5.13
669.659	5.2
669.987	5.22
670.315	5.36
670.643	5.35
670.971	5.34
671.299	5.43
671.627	5.39
671.955	5.42
672.283	5.41
672.61	5.39
672.938	5.38
673.266	5.34
673.593	5.36
673.921	5.42
674.249	5.5
674.576	5.45
674.904	5.52
675.231	5.57
675.558	5.53
675.886	5.48
676.213	5.46
676.54	5.46
676.867	5.49
677.195	5.49
677.522	5.45
677.849	5.48
678.176	5.43
678.503	5.37
678.83	5.42
679.157	5.43
679.484	5.48
679.81	5.44
680.137	5.45
680.464	5.37
680.791	5.4
681.117	5.28
681.444	5.34
681.771	5.33
682.097	5.27
682.424	5.29
682.75	5.19
683.077	5.17
683.403	5.15
683.729	5.09
684.056	5.1
684.382	5.16
684.708	5.15
685.034	5.2
685.36	5.21
685.686	5.13
686.012	5.05
686.339	5.01
686.664	5
686.99	5.09
687.316	5.16
687.642	5.16
687.968	5.21
688.294	5.23
688.619	5.21
688.945	5.26
689.271	5.21
689.596	5.32
689.922	5.38
690.247	5.35
690.573	5.33
690.898	5.3
691.224	5.25
691.549	5.29
691.874	5.26
692.2	5.24
692.525	5.27
692.85	5.35
693.175	5.32
693.5	5.33
693.825	5.28
694.15	5.19
694.475	5.2
694.8	5.22
695.125	5.13
695.45	5.18
695.775	5.24
696.099	5.31
696.424	5.25
696.749	5.18
697.073	5.2
697.398	5.28
697.723	5.33
698.047	5.4
698.372	5.43
698.696	5.45
699.02	5.48
699.345	5.47
699.669	5.55
699.993	5.5
700.318	5.54
700.642	5.4
700.966	5.46
701.29	5.38
701.614	5.43
701.938	5.59
702.262	5.62
702.586	5.6
702.91	5.41
703.234	5.52
703.557	5.66
703.881	5.71
704.205	5.69
704.529	5.58
704.852	5.56
705.176	5.46
705.499	5.36
705.823	5.35
706.146	5.35
706.47	5.24
706.793	5.28
707.117	5.31
707.44	5.45
707.763	5.48
708.086	5.58
708.409	5.51
708.733	5.31
709.056	5.15
709.379	5.24
709.702	5.41
710.025	5.46
710.348	5.35
710.671	5.3
710.993	5.32
711.316	5.43
711.639	5.45
711.962	5.49
712.284	5.54
712.607	5.62
712.93	5.58
713.252	5.55
713.575	5.62
713.897	5.6
714.22	5.71
714.542	5.71
714.864	5.63
715.187	5.69
715.509	5.78
715.831	5.86
716.153	5.86
716.475	5.89
716.798	5.93
717.12	6.03
717.442	6.14
717.764	6.25
718.085	6.04
718.407	5.97
718.729	6.03
719.051	6.12
719.373	5.95
719.695	6.12
720.016	6.35
720.338	6.52
720.659	6.51
720.981	6.45
721.302	6.29
721.624	6.36
721.945	6.31
722.267	6.42
722.588	6.3
722.909	6.2
723.231	5.99
723.552	6.01
723.873	6
724.194	5.75
724.515	5.66
724.836	5.84
725.157	5.86
725.478	5.58
725.799	5.53
726.12	5.68
726.441	5.57
726.762	5.48
727.083	5.38
727.403	5.47
727.724	5.54
728.045	5.69
728.365	5.88
728.686	5.96
729.006	5.99
729.327	6.23
729.647	6.32
729.967	6.37
730.288	6.19
730.608	6.15
730.928	6.36
731.249	6.26
731.569	6.35
731.889	6.5
732.209	6.78
732.529	6.73
732.849	6.83
733.169	6.97
733.489	6.9
733.809	6.89
734.129	6.79
734.448	6.77
734.768	6.84
735.088	6.82
735.408	6.83
735.727	6.77
736.047	6.7
736.366	6.62
736.686	6.79
737.005	6.97
737.325	7.1
737.644	7.01
737.963	7.02
738.283	6.87
738.602	6.69
738.921	6.7
739.24	6.8
739.56	6.76
739.879	6.59
740.198	6.84
740.517	6.79
740.836	6.85
741.155	6.88
741.473	6.84
741.792	6.68
742.111	6.54
742.43	6.62
742.748	6.58
743.067	6.8
743.386	6.73
743.704	6.73
744.023	6.69
744.341	6.89
744.66	7.2
744.978	7.08
745.297	7.01
745.615	6.95
745.933	7.02
746.252	7.01
746.57	7.16
746.888	7.09
747.206	7.02
747.524	7.05
747.842	6.93
748.16	6.96
748.478	6.91
748.796	7.02
749.114	7
749.432	6.96
749.749	6.95
750.067	7.01
750.385	6.75
750.703	6.58
751.02	6.39
751.338	6.32
751.655	6.49
751.973	6.77
752.29	6.76
752.608	6.85
752.925	6.81
753.242	6.66
753.56	6.43
753.877	6.59
754.194	6.59
754.511	6.7
754.828	6.65
755.145	6.82
755.462	6.85
755.779	7.14
756.096	7.24
756.413	7.18
756.73	7.17
757.047	7.4
757.364	7.6
757.68	7.85
757.997	7.89
758.314	7.88
758.63	7.69
758.947	7.79
759.264	7.58
759.58	7.54
759.896	7.69
760.213	7.75
760.529	7.69
760.846	7.81
761.162	7.71
761.478	7.72
761.794	7.52
762.11	7.5
762.426	7.34
762.743	7.29
763.059	7.37
763.375	7.44
763.69	7.25
764.006	7.26
764.322	7.02
764.638	6.82
764.954	7.04
765.27	7.1
765.585	7.04
765.901	7.13
766.216	7.15
766.532	7.05
766.848	6.91
767.163	6.87
767.478	6.7
767.794	6.81
768.109	6.93
768.424	6.85
768.74	7.02
769.055	6.94
769.37	7.05
769.685	6.77
770	6.68
770.315	6.88
770.63	6.74
770.945	6.69
771.26	6.84
771.575	6.35
771.89	6.74
772.205	6.92
772.52	6.85
772.834	6.72
773.149	6.9
773.464	6.88
773.778	7.04
774.093	6.93
774.407	6.74
774.722	6.56
775.036	6.78
775.351	6.98
775.665	6.85
775.979	6.82
776.293	6.89
776.608	6.7
776.922	6.74
777.236	6.9
777.55	6.98
777.864	6.95
778.178	7.42
778.492	7.32
778.806	6.95
779.12	7.2
779.434	7.18
779.747	7.3
780.061	7.64
780.375	7.7
780.689	7.76
781.002	8.36
781.316	8.41
781.629	8.76
781.943	8.24
782.256	8.41
782.57	8.19
782.883	8.01
783.196	8.4
783.51	8.18
783.823	7.91
784.136	8.13
784.449	8.35
784.762	8.53
785.075	8.26
785.388	8.49
785.701	8.06
786.014	8.61
786.327	8.27
786.64	8.72
786.953	8.76
787.266	8.88
787.578	8.26
787.891	8.08
788.204	7.74
788.516	8.19
788.829	8.45
789.141	8.97
789.454	9.45
789.766	9.39
790.079	9.96
790.391	10.03
790.703	10.19
791.016	10.2
791.328	10.39
791.64	10.43
791.952	10.53
792.264	10.4
792.576	9.89
792.888	9.81
793.2	9.4
793.512	9.27
793.824	9.49
794.136	9.78
794.448	10.1
794.76	10.12
795.071	9.82
795.383	9.53
795.695	9.34
796.006	9.13
796.318	9
796.629	8.65
796.941	8.63
797.252	8.65
797.564	8.69
797.875	8.43
798.186	7.87
798.497	8.23
798.809	8.79
799.12	9.29
799.431	9.33
799.742	9.35
800.053	9.62
800.364	9.82
800.675	9.48
800.986	9.47
801.297	9.63
801.608	9.64
801.918	9.84
802.229	9.94
802.54	10.18
802.851	10.84
803.161	10.9
803.472	10.99
803.782	11.12
804.093	11.66
804.403	11.26
804.714	11.9
805.024	11.32
805.334	10.97
805.645	10.88
805.955	11.2
806.265	11.46
806.575	10.98
806.885	10.65
807.195	10.8
807.505	10.74
807.815	10.51
808.125	10.18
808.435	9.87
808.745	9.27
809.055	9.27
809.365	8.33
809.674	7.96
809.984	8.22
810.294	7.71
810.603	7.41
810.913	8.12
811.222	7.74
811.532	7.87
811.841	8.22
812.151	8.52
812.46	8.42
812.769	7.91
813.079	7.52
813.388	7.54
813.697	7.59
814.006	7.5
814.315	7.9
814.624	8.41
814.933	8.86
815.242	8.89
815.551	8.76
815.86	9.66
816.169	10.17
816.478	10.49
816.786	10.52
817.095	10.51
817.404	10.3
817.712	10.48
818.021	10.95
818.33	10.47
818.638	9.9
818.947	10.05
819.255	10.48
819.563	11.11
819.872	10.71
820.18	11.07
820.488	11.09
820.796	11.1
821.105	11.12
821.413	11.09
821.721	11.14
822.029	11.15
822.337	10.95
822.645	10.86
822.953	10.68
823.26	10.8
823.568	10.66
823.876	10.58
824.184	10.64
824.491	10.51
824.799	10.69
825.107	10.82
825.414	10.76
825.722	10.51
826.029	10.48
826.337	10.67
826.644	10.6
826.951	10.59
827.259	10.55
827.566	10.3
827.873	10.24
828.18	10.26
828.488	10.19
828.795	10.25
829.102	10.41
829.409	10.63
829.716	10.42
830.023	10.35
830.329	10.44
830.636	10.45
830.943	10.51
831.25	10.53
831.557	10.31
831.863	10.54
832.17	11.03
832.476	11.13
832.783	11.48
833.089	11.62
833.396	11.66
833.702	11.58
834.009	12.01
834.315	11.76
834.621	11.82
834.928	11.81
835.234	11.53
835.54	11.26
835.846	11.06
836.152	11.08
836.458	11.52
836.764	11.51
837.07	11.43
837.376	11.02
837.682	11.25
837.988	11.54
838.293	11.12
838.599	10.8
838.905	10.63
839.211	9.81
839.516	8.88
839.822	9.01
840.127	8.79
840.433	9.35
840.738	9.69
841.044	9.78
841.349	10.67
841.654	10.84
841.959	11.05
842.265	11.37
842.57	12.25
842.875	11.63
843.18	12.28
843.485	12.22
843.79	12.04
844.095	10.5
844.4	11.82
844.705	12.09
845.01	12.25
845.315	12.04
845.619	11.36
845.924	12.46
846.229	13.03
846.533	13.51
846.838	11.9
847.142	11.38
847.447	10.35
847.751	8
848.056	8.42
848.36	8.57
848.664	9.19
848.969	9.02
849.273	8
849.577	7.6
849.881	7.86
850.185	10.9
850.489	12.68
850.794	10.8
851.097	11.44
851.401	11.91
851.705	10.57
852.009	12.19
852.313	10.85
852.617	9.27
852.92	9.56
853.224	8.64
853.528	10.35
853.831	9.76
854.135	10.65
854.438	11.1
854.742	11.36
855.045	8.37
855.349	7.47
855.652	6.62
855.955	5.75
856.259	6.15
856.562	4.62
856.865	4.65
857.168	3.98
857.471	4.59
857.774	3.79
858.077	6.85
858.38	8.32
858.683	10.76
858.986	11.18
859.289	11.97
859.592	14.12
859.894	12.43
860.197	14.41
860.5	14.8
860.802	15.13
861.105	16.1
861.407	17.81
861.71	17
862.012	19.1
862.315	19.34
862.617	17.72
862.919	17.85
863.222	16.51
863.524	17.83
863.826	19.6
864.128	20.76
864.43	18.26
864.732	17.25
865.034	15.96
865.336	15.37
865.638	14.51
865.94	13.47
866.242	12.94
866.544	10.61
866.846	11.18
867.147	11.38
867.449	9.01
867.751	9.54
868.052	10.42
868.354	10.13
868.655	9.29
868.957	7.35
869.258	7.51
869.56	8.43
869.861	6.06
870.162	2.55
870.463	4.1
870.765	4.41
871.066	6.08
871.367	4.93
871.668	5.09
871.969	5.61
872.27	5.12
872.571	3.77
872.872	5.02
873.173	1.9
873.473	-1.01
873.774	0.49
874.075	0.22
874.376	1.36
874.676	3.37
874.977	3.48
875.277	7.33
875.578	7.37
875.878	6.13
876.179	7.14
876.479	8.16
876.78	5.49
877.08	6.18
877.38	2.97
877.68	3.74
877.981	4.23
878.281	2.77
878.581	4.01
