Data from BA28305_Reflection_00008.txt Node
Date: Mon Nov 18 15:57:02 EST 2019
User: vgr7
Spectrometer: USB2G7710
Scans to average: 3
Trigger mode: 4
Integration Time (sec): 2.000000E-2
Electric dark correction enabled: true
Boxcar width: 10
XAxis mode: Wavelengths
Number of Pixels in Spectrum: 2048
>>>>>Begin Spectral Data<<<<<
177.721	-133.81
178.105	29.82
178.488	-373.52
178.871	437.72
179.254	170.18
179.636	52.38
180.019	130.83
180.402	169.57
180.785	14.93
181.168	54.4
181.55	20.82
181.933	56.61
182.316	60.3
182.698	38.81
183.081	34.97
183.463	35.18
183.846	26
184.228	29.94
184.611	50.62
184.993	27.17
185.376	32.38
185.758	77.16
186.14	67.51
186.522	165.36
186.904	327.81
187.287	182.71
187.669	286.84
188.051	174.07
188.433	320.91
188.815	443.04
189.197	1184.97
189.579	-368.38
189.961	-602.95
190.342	-477.28
190.724	-235.81
191.106	-174.58
191.488	-304.97
191.869	-197.42
192.251	-173.5
192.633	-130.47
193.014	-159.78
193.396	-241.49
193.777	-323.05
194.159	-272.76
194.54	-266.76
194.922	-465.16
195.303	-395.39
195.684	-350.64
196.065	-459.57
196.447	-326.99
196.828	-264.13
197.209	-225.11
197.59	-346.31
197.971	-277.54
198.352	-169.86
198.733	-171.7
199.114	-156.75
199.495	-121.55
199.876	-148.4
200.257	-112.7
200.638	-133.11
201.018	-189.46
201.399	-124.15
201.78	-94.42
202.16	-147.06
202.541	-210.92
202.922	-464.41
203.302	-700.51
203.683	-392.69
204.063	-392.69
204.444	-465.43
204.824	-572.29
205.204	-854.67
205.585	-732.04
205.965	-462.6
206.345	-2615.45
206.725	876.81
207.106	374.09
207.486	204.61
207.866	268.87
208.246	214.87
208.626	263.03
209.006	591.95
209.386	282.01
209.766	678.37
210.145	-364.58
210.525	-317.97
210.905	-105.9
211.285	-76.45
211.664	-100.92
212.044	-90.71
212.424	-89.95
212.803	-123.28
213.183	-92.47
213.562	-92.46
213.942	-62.98
214.321	-50.07
214.701	-46.08
215.08	-29.64
215.459	-21.95
215.838	-33.43
216.218	-48.77
216.597	-57.19
216.976	-72.77
217.355	-62.6
217.734	-51.83
218.113	-51.55
218.492	-50.72
218.871	-75.31
219.25	-56.59
219.629	-75.96
220.008	-63.3
220.387	-45.48
220.766	-61.96
221.144	-137.57
221.523	-129.13
221.902	-242.24
222.28	-639.02
222.659	-298.93
223.037	-138.26
223.416	-258.13
223.794	-35.76
224.173	-26.82
224.551	-39.59
224.929	-11
225.308	1.67
225.686	-7.42
226.064	-10.32
226.442	-7.79
226.821	-1.76
227.199	-5.75
227.577	-7.87
227.955	-10.86
228.333	-12.4
228.711	-8.06
229.089	-4.09
229.467	-5.34
229.845	-6.09
230.222	-5.23
230.6	-9.78
230.978	-12.77
231.356	-13.32
231.733	-15.26
232.111	-12.04
232.488	-11.95
232.866	-13.19
233.243	-15.21
233.621	-14.49
233.998	-11.6
234.376	-11.14
234.753	-12.86
235.13	-11.23
235.508	-8.68
235.885	-7.12
236.262	-6.75
236.639	-5.53
237.016	-5.98
237.393	-4.84
237.77	-3.92
238.147	-2.45
238.524	-1
238.901	0.73
239.278	1.24
239.655	2.79
240.032	2.42
240.409	2.65
240.785	2.64
241.162	2.9
241.539	2.81
241.915	2.42
242.292	1.91
242.668	2.38
243.045	2.37
243.421	2.39
243.798	2.49
244.174	2.28
244.551	2.43
244.927	2.35
245.303	2.75
245.679	2.68
246.056	2.44
246.432	2.59
246.808	2.35
247.184	2.27
247.56	1.82
247.936	1.53
248.312	1.56
248.688	1.8
249.064	1.72
249.44	1.88
249.815	1.97
250.191	2.09
250.567	2.1
250.943	2.23
251.318	2.22
251.694	1.96
252.069	2
252.445	1.91
252.82	1.78
253.196	1.28
253.571	1.42
253.947	1.7
254.322	1.55
254.697	1.53
255.073	1.55
255.448	1.5
255.823	1.78
256.198	1.78
256.573	1.87
256.948	2.26
257.323	2.21
257.698	2.06
258.073	1.98
258.448	1.77
258.823	1.66
259.198	1.74
259.573	1.77
259.948	1.7
260.322	1.79
260.697	1.75
261.072	1.77
261.446	1.71
261.821	1.67
262.195	1.77
262.57	1.76
262.944	1.61
263.319	1.78
263.693	1.93
264.067	2.02
264.442	1.9
264.816	1.85
265.19	1.76
265.564	1.71
265.938	1.66
266.313	1.71
266.687	1.88
267.061	1.73
267.435	1.77
267.809	2.09
268.183	1.9
268.556	1.8
268.93	2.13
269.304	2.3
269.678	2.27
270.051	2.35
270.425	2.34
270.799	2.58
271.172	2.6
271.546	2.48
271.919	2.34
272.293	2.32
272.666	2.17
273.04	2.26
273.413	2.43
273.787	2.55
274.16	2.48
274.533	2.35
274.906	2.34
275.279	2.26
275.653	2.03
276.026	2.07
276.399	2.38
276.772	2.16
277.145	2
277.518	2.04
277.891	1.91
278.263	2.16
278.636	1.98
279.009	1.92
279.382	2.1
279.755	2.11
280.127	2.2
280.5	2.41
280.872	2.38
281.245	2.3
281.617	2.46
281.99	2.76
282.362	2.68
282.735	2.64
283.107	2.67
283.479	2.73
283.852	2.67
284.224	2.64
284.596	2.56
284.968	2.49
285.34	2.38
285.713	2.43
286.085	2.34
286.457	2.58
286.829	2.49
287.201	2.45
287.572	2.49
287.944	2.48
288.316	2.35
288.688	2.22
289.06	2.13
289.431	2.11
289.803	1.97
290.175	1.96
290.546	2.13
290.918	2.15
291.289	2.09
291.661	2.13
292.032	2.17
292.403	2.27
292.775	2.51
293.146	2.52
293.517	2.45
293.889	2.42
294.26	2.22
294.631	2.32
295.002	2.23
295.373	2.27
295.744	2.29
296.115	2.31
296.486	2.37
296.857	2.49
297.228	2.45
297.599	2.42
297.97	2.51
298.34	2.44
298.711	2.6
299.082	2.57
299.452	2.64
299.823	2.66
300.194	2.68
300.564	2.54
300.935	2.68
301.305	2.77
301.676	2.74
302.046	2.82
302.416	3.04
302.787	3.03
303.157	2.94
303.527	2.94
303.897	2.96
304.267	3.06
304.637	3.15
305.008	3.15
305.378	3.26
305.748	3.26
306.117	3.22
306.487	3.08
306.857	3.22
307.227	3.11
307.597	3.04
307.967	2.97
308.336	3.06
308.706	2.99
309.076	3.03
309.445	3.05
309.815	3.07
310.184	2.87
310.554	2.92
310.923	2.97
311.293	2.96
311.662	2.99
312.031	2.97
312.401	2.87
312.77	2.94
313.139	2.92
313.508	2.94
313.877	2.94
314.246	3.08
314.616	3.05
314.985	3.03
315.353	3
315.722	3.25
316.091	3.16
316.46	3.19
316.829	3.24
317.198	3.28
317.567	3.29
317.935	3.3
318.304	3.41
318.672	3.37
319.041	3.51
319.41	3.37
319.778	3.36
320.147	3.44
320.515	3.44
320.883	3.24
321.252	3.25
321.62	3.35
321.988	3.25
322.357	3.38
322.725	3.53
323.093	3.72
323.461	3.55
323.829	3.71
324.197	3.86
324.565	3.83
324.933	3.97
325.301	3.92
325.669	3.92
326.037	3.87
326.405	4.03
326.772	3.98
327.14	4.21
327.508	4.28
327.875	4.16
328.243	4.1
328.61	4.32
328.978	4.45
329.346	4.41
329.713	4.52
330.08	4.44
330.448	4.4
330.815	4.26
331.182	4.25
331.55	4.19
331.917	4.11
332.284	4.13
332.651	3.97
333.018	3.98
333.385	4.01
333.752	4.13
334.119	4.1
334.486	4.08
334.853	3.94
335.22	3.78
335.587	3.89
335.954	3.87
336.32	3.81
336.687	3.77
337.054	3.78
337.42	3.72
337.787	3.78
338.153	3.88
338.52	3.96
338.886	3.99
339.253	3.96
339.619	3.95
339.986	3.98
340.352	4.07
340.718	4.05
341.084	4.05
341.451	4.13
341.817	4.29
342.183	4.31
342.549	4.41
342.915	4.55
343.281	4.58
343.647	4.67
344.013	4.74
344.379	4.71
344.745	4.76
345.11	4.84
345.476	4.9
345.842	4.82
346.208	4.76
346.573	4.72
346.939	4.72
347.304	4.76
347.67	4.66
348.035	4.65
348.401	4.64
348.766	4.67
349.132	4.49
349.497	4.27
349.862	4.27
350.228	4.21
350.593	4.1
350.958	4.05
351.323	4.04
351.688	4.08
352.053	4.12
352.418	4.18
352.783	4.13
353.148	4.11
353.513	4.2
353.878	4.3
354.243	4.38
354.608	4.42
354.972	4.43
355.337	4.47
355.702	4.49
356.066	4.53
356.431	4.49
356.795	4.6
357.16	4.68
357.524	4.7
357.889	4.66
358.253	4.73
358.618	4.78
358.982	4.78
359.346	4.69
359.71	4.68
360.075	4.65
360.439	4.67
360.803	4.64
361.167	4.59
361.531	4.56
361.895	4.56
362.259	4.53
362.623	4.48
362.987	4.45
363.351	4.48
363.714	4.53
364.078	4.49
364.442	4.42
364.806	4.43
365.169	4.42
365.533	4.48
365.896	4.49
366.26	4.49
366.623	4.49
366.987	4.57
367.35	4.55
367.714	4.52
368.077	4.49
368.44	4.5
368.803	4.51
369.167	4.44
369.53	4.35
369.893	4.4
370.256	4.44
370.619	4.49
370.982	4.45
371.345	4.35
371.708	4.41
372.071	4.38
372.434	4.34
372.797	4.31
373.159	4.21
373.522	4.17
373.885	4.13
374.247	4.09
374.61	4.02
374.973	3.96
375.335	3.91
375.698	3.91
376.06	3.84
376.423	3.85
376.785	3.89
377.147	3.94
377.51	3.83
377.872	3.83
378.234	3.76
378.596	3.77
378.958	3.75
379.321	3.73
379.683	3.72
380.045	3.68
380.407	3.69
380.769	3.72
381.13	3.65
381.492	3.6
381.854	3.59
382.216	3.56
382.578	3.57
382.939	3.6
383.301	3.53
383.663	3.49
384.024	3.4
384.386	3.38
384.747	3.41
385.109	3.47
385.47	3.43
385.832	3.41
386.193	3.41
386.554	3.39
386.916	3.37
387.277	3.36
387.638	3.39
387.999	3.29
388.36	3.3
388.721	3.33
389.082	3.31
389.443	3.26
389.804	3.24
390.165	3.21
390.526	3.18
390.887	3.2
391.248	3.27
391.609	3.27
391.969	3.21
392.33	3.17
392.691	3.12
393.051	3.09
393.412	3.1
393.772	3.04
394.133	3.02
394.493	2.99
394.854	2.98
395.214	2.93
395.574	2.95
395.935	2.91
396.295	2.89
396.655	2.89
397.015	2.92
397.376	2.91
397.736	2.91
398.096	2.87
398.456	2.85
398.816	2.78
399.176	2.77
399.535	2.76
399.895	2.7
400.255	2.72
400.615	2.74
400.975	2.71
401.334	2.67
401.694	2.69
402.054	2.69
402.413	2.7
402.773	2.7
403.132	2.68
403.492	2.66
403.851	2.65
404.211	2.63
404.57	2.6
404.929	2.61
405.288	2.6
405.648	2.59
406.007	2.57
406.366	2.59
406.725	2.6
407.084	2.59
407.443	2.61
407.802	2.62
408.161	2.58
408.52	2.58
408.879	2.62
409.238	2.63
409.596	2.62
409.955	2.58
410.314	2.54
410.673	2.54
411.031	2.52
411.39	2.51
411.748	2.5
412.107	2.51
412.465	2.47
412.824	2.48
413.182	2.47
413.54	2.45
413.899	2.44
414.257	2.44
414.615	2.45
414.974	2.44
415.332	2.42
415.69	2.41
416.048	2.39
416.406	2.38
416.764	2.33
417.122	2.34
417.48	2.34
417.838	2.37
418.195	2.37
418.553	2.37
418.911	2.38
419.269	2.39
419.626	2.37
419.984	2.36
420.342	2.35
420.699	2.37
421.057	2.38
421.414	2.37
421.772	2.36
422.129	2.36
422.486	2.37
422.844	2.36
423.201	2.35
423.558	2.35
423.915	2.35
424.273	2.35
424.63	2.35
424.987	2.36
425.344	2.36
425.701	2.35
426.058	2.36
426.415	2.34
426.772	2.35
427.128	2.35
427.485	2.36
427.842	2.34
428.199	2.33
428.555	2.34
428.912	2.35
429.269	2.36
429.625	2.33
429.982	2.31
430.338	2.32
430.695	2.34
431.051	2.34
431.407	2.34
431.764	2.33
432.12	2.32
432.476	2.32
432.832	2.29
433.189	2.32
433.545	2.3
433.901	2.31
434.257	2.3
434.613	2.3
434.969	2.3
435.325	2.32
435.681	2.31
436.036	2.3
436.392	2.29
436.748	2.28
437.104	2.3
437.459	2.29
437.815	2.27
438.171	2.25
438.526	2.25
438.882	2.25
439.237	2.29
439.593	2.29
439.948	2.27
440.304	2.29
440.659	2.27
441.014	2.28
441.369	2.28
441.725	2.27
442.08	2.27
442.435	2.26
442.79	2.26
443.145	2.25
443.5	2.26
443.855	2.25
444.21	2.24
444.565	2.23
444.92	2.26
445.275	2.24
445.629	2.26
445.984	2.25
446.339	2.23
446.693	2.2
447.048	2.2
447.403	2.18
447.757	2.18
448.112	2.16
448.466	2.14
448.82	2.14
449.175	2.14
449.529	2.12
449.883	2.12
450.238	2.1
450.592	2.1
450.946	2.09
451.3	2.08
451.654	2.08
452.008	2.09
452.362	2.05
452.716	2.04
453.07	2.05
453.424	2.05
453.778	2.05
454.132	2.03
454.486	2.01
454.839	2.02
455.193	2
455.547	2.03
455.9	2.06
456.254	2.06
456.607	2.05
456.961	2.08
457.314	2.08
457.668	2.09
458.021	2.09
458.375	2.09
458.728	2.09
459.081	2.08
459.434	2.08
459.787	2.08
460.141	2.1
460.494	2.1
460.847	2.1
461.2	2.11
461.553	2.13
461.906	2.15
462.259	2.17
462.611	2.17
462.964	2.15
463.317	2.15
463.67	2.15
464.022	2.14
464.375	2.12
464.728	2.11
465.08	2.11
465.433	2.12
465.785	2.12
466.138	2.11
466.49	2.1
466.843	2.11
467.195	2.12
467.547	2.13
467.899	2.12
468.252	2.12
468.604	2.14
468.956	2.15
469.308	2.17
469.66	2.15
470.012	2.17
470.364	2.18
470.716	2.19
471.068	2.2
471.42	2.22
471.772	2.24
472.123	2.28
472.475	2.29
472.827	2.29
473.178	2.3
473.53	2.3
473.882	2.32
474.233	2.32
474.585	2.3
474.936	2.27
475.288	2.27
475.639	2.27
475.99	2.26
476.342	2.25
476.693	2.26
477.044	2.27
477.395	2.26
477.746	2.27
478.097	2.26
478.448	2.27
478.8	2.25
479.15	2.24
479.501	2.23
479.852	2.21
480.203	2.23
480.554	2.22
480.905	2.23
481.255	2.23
481.606	2.24
481.957	2.25
482.307	2.26
482.658	2.25
483.009	2.25
483.359	2.25
483.709	2.25
484.06	2.24
484.41	2.25
484.761	2.24
485.111	2.24
485.461	2.25
485.811	2.24
486.162	2.24
486.512	2.26
486.862	2.25
487.212	2.25
487.562	2.25
487.912	2.25
488.262	2.25
488.612	2.26
488.961	2.26
489.311	2.26
489.661	2.27
490.011	2.27
490.36	2.27
490.71	2.29
491.06	2.29
491.409	2.3
491.759	2.3
492.108	2.3
492.458	2.31
492.807	2.32
493.157	2.34
493.506	2.35
493.855	2.35
494.204	2.36
494.554	2.38
494.903	2.39
495.252	2.41
495.601	2.42
495.95	2.44
496.299	2.45
496.648	2.46
496.997	2.46
497.346	2.48
497.695	2.5
498.043	2.51
498.392	2.53
498.741	2.55
499.09	2.56
499.438	2.58
499.787	2.6
500.135	2.62
500.484	2.63
500.832	2.66
501.181	2.69
501.529	2.68
501.878	2.7
502.226	2.73
502.574	2.75
502.923	2.75
503.271	2.77
503.619	2.81
503.967	2.84
504.315	2.87
504.663	2.9
505.011	2.93
505.359	2.94
505.707	2.99
506.055	3
506.403	3.05
506.751	3.07
507.098	3.09
507.446	3.14
507.794	3.17
508.141	3.19
508.489	3.22
508.837	3.28
509.184	3.31
509.531	3.34
509.879	3.39
510.226	3.45
510.574	3.49
510.921	3.52
511.268	3.57
511.616	3.6
511.963	3.64
512.31	3.67
512.657	3.74
513.004	3.76
513.351	3.83
513.698	3.88
514.045	3.95
514.392	4.01
514.739	4.05
515.086	4.1
515.432	4.17
515.779	4.21
516.126	4.27
516.473	4.34
516.819	4.39
517.166	4.43
517.512	4.46
517.859	4.53
518.205	4.58
518.552	4.65
518.898	4.72
519.245	4.78
519.591	4.84
519.937	4.89
520.283	4.96
520.629	5.03
520.976	5.09
521.322	5.18
521.668	5.27
522.014	5.36
522.36	5.45
522.706	5.54
523.052	5.65
523.398	5.78
523.743	5.87
524.089	5.99
524.435	6.09
524.781	6.22
525.126	6.31
525.472	6.41
525.817	6.49
526.163	6.56
526.509	6.63
526.854	6.72
527.199	6.8
527.545	6.87
527.89	6.93
528.235	7.02
528.581	7.1
528.926	7.17
529.271	7.25
529.616	7.33
529.961	7.42
530.306	7.52
530.651	7.6
530.996	7.71
531.341	7.82
531.686	7.94
532.031	8.03
532.376	8.16
532.721	8.28
533.065	8.41
533.41	8.55
533.755	8.7
534.099	8.86
534.444	9.01
534.788	9.15
535.133	9.32
535.477	9.46
535.822	9.63
536.166	9.81
536.51	10
536.855	10.21
537.199	10.43
537.543	10.65
537.887	10.86
538.231	11.08
538.576	11.32
538.92	11.55
539.264	11.77
539.608	12.01
539.951	12.21
540.295	12.41
540.639	12.6
540.983	12.79
541.327	12.98
541.671	13.16
542.014	13.35
542.358	13.54
542.701	13.73
543.045	13.92
543.389	14.13
543.732	14.33
544.075	14.54
544.419	14.76
544.762	14.98
545.105	15.22
545.449	15.47
545.792	15.73
546.135	16.01
546.478	16.29
546.821	16.56
547.165	16.87
547.508	17.16
547.851	17.46
548.194	17.76
548.536	18.06
548.879	18.37
549.222	18.67
549.565	19
549.908	19.31
550.25	19.64
550.593	19.94
550.936	20.28
551.278	20.59
551.621	20.9
551.963	21.25
552.306	21.57
552.648	21.88
552.991	22.18
553.333	22.48
553.675	22.8
554.017	23.1
554.36	23.37
554.702	23.66
555.044	23.99
555.386	24.29
555.728	24.63
556.07	24.99
556.412	25.32
556.754	25.61
557.096	25.96
557.438	26.3
557.78	26.65
558.121	26.94
558.463	27.28
558.805	27.62
559.147	27.92
559.488	28.24
559.83	28.53
560.171	28.84
560.513	29.16
560.854	29.5
561.196	29.84
561.537	30.19
561.878	30.48
562.22	30.79
562.561	31.07
562.902	31.32
563.243	31.58
563.584	31.85
563.925	32.15
564.266	32.37
564.607	32.62
564.948	32.86
565.289	33.17
565.63	33.43
565.971	33.64
566.312	33.91
566.653	34.15
566.993	34.47
567.334	34.69
567.675	34.9
568.015	35.12
568.356	35.34
568.696	35.56
569.037	35.82
569.377	36.07
569.718	36.31
570.058	36.53
570.398	36.77
570.739	37.05
571.079	37.29
571.419	37.54
571.759	37.78
572.099	37.95
572.439	38.07
572.779	38.25
573.119	38.47
573.459	38.67
573.799	38.85
574.139	38.98
574.479	39.19
574.819	39.41
575.158	39.56
575.498	39.69
575.838	39.87
576.177	40.04
576.517	40.2
576.856	40.39
577.196	40.58
577.535	40.77
577.875	40.98
578.214	41.18
578.553	41.42
578.893	41.56
579.232	41.83
579.571	42.14
579.91	42.36
580.25	42.53
580.589	42.7
580.928	42.94
581.267	43.15
581.606	43.31
581.945	43.44
582.283	43.61
582.622	43.85
582.961	43.99
583.3	44.2
583.639	44.37
583.977	44.56
584.316	44.63
584.654	44.82
584.993	44.94
585.332	45.05
585.67	45.17
586.008	45.33
586.347	45.44
586.685	45.57
587.024	45.68
587.362	45.85
587.7	45.94
588.038	46.07
588.376	46.26
588.715	46.43
589.053	46.59
589.391	46.73
589.729	46.93
590.067	47.08
590.404	47.19
590.742	47.25
591.08	47.33
591.418	47.59
591.756	47.71
592.093	47.78
592.431	47.9
592.769	47.99
593.106	48.14
593.444	48.2
593.781	48.28
594.119	48.37
594.456	48.46
594.793	48.64
595.131	48.72
595.468	48.72
595.805	48.84
596.143	48.89
596.48	48.97
596.817	49
597.154	49.11
597.491	49.18
597.828	49.33
598.165	49.39
598.502	49.37
598.839	49.38
599.176	49.52
599.512	49.6
599.849	49.71
600.186	49.91
600.523	50.05
600.859	50.14
601.196	50.26
601.532	50.34
601.869	50.43
602.205	50.53
602.542	50.7
602.878	50.66
603.215	50.78
603.551	50.91
603.887	50.95
604.223	50.98
604.56	51.02
604.896	51.1
605.232	51.18
605.568	51.24
605.904	51.35
606.24	51.4
606.576	51.5
606.912	51.6
607.248	51.56
607.583	51.68
607.919	51.72
608.255	51.84
608.591	51.94
608.926	51.98
609.262	51.99
609.597	52.04
609.933	52.14
610.268	52.19
610.604	52.27
610.939	52.32
611.275	52.33
611.61	52.46
611.945	52.49
612.281	52.58
612.616	52.72
612.951	52.82
613.286	52.94
613.621	53
613.956	53
614.291	53.07
614.626	53.04
614.961	53.19
615.296	53.09
615.631	53.15
615.966	53.13
616.3	53.24
616.635	53.31
616.97	53.38
617.304	53.38
617.639	53.37
617.973	53.4
618.308	53.48
618.642	53.53
618.977	53.66
619.311	53.67
619.646	53.66
619.98	53.62
620.314	53.62
620.648	53.67
620.983	53.79
621.317	53.91
621.651	53.97
621.985	53.96
622.319	54.1
622.653	54.09
622.987	54.2
623.321	54.19
623.655	54.13
623.988	54.17
624.322	54.21
624.656	54.19
624.99	54.34
625.323	54.34
625.657	54.38
625.99	54.4
626.324	54.53
626.657	54.58
626.991	54.6
627.324	54.66
627.658	54.71
627.991	54.73
628.324	54.71
628.657	54.71
628.991	54.72
629.324	54.78
629.657	54.89
629.99	54.93
630.323	55
630.656	55.09
630.989	55.25
631.322	55.34
631.655	55.46
631.987	55.49
632.32	55.62
632.653	55.61
632.986	55.56
633.318	55.48
633.651	55.49
633.984	55.53
634.316	55.58
634.649	55.63
634.981	55.69
635.313	55.68
635.646	55.76
635.978	55.76
636.31	55.63
636.643	55.57
636.975	55.6
637.307	55.58
637.639	55.65
637.971	55.57
638.303	55.67
638.635	55.64
638.967	55.62
639.299	55.64
639.631	55.69
639.963	55.8
640.295	55.82
640.626	55.9
640.958	55.94
641.29	55.93
641.621	55.92
641.953	55.88
642.285	55.9
642.616	55.87
642.948	56.01
643.279	56.09
643.61	56.11
643.942	56.19
644.273	56.2
644.604	56.17
644.936	56.11
645.267	56.05
645.598	55.99
645.929	56.13
646.26	56.15
646.591	56.26
646.922	56.35
647.253	56.44
647.584	56.48
647.915	56.63
648.245	56.59
648.576	56.59
648.907	56.64
649.238	56.69
649.568	56.76
649.899	56.77
650.229	56.9
650.56	56.98
650.89	56.87
651.221	56.98
651.551	57
651.882	56.97
652.212	57.02
652.542	57.03
652.872	56.99
653.203	56.91
653.533	56.82
653.863	56.6
654.193	56.65
654.523	56.68
654.853	56.57
655.183	56.63
655.513	56.49
655.843	56.53
656.172	56.5
656.502	56.65
656.832	56.61
657.162	56.61
657.491	56.55
657.821	56.71
658.15	56.75
658.48	56.67
658.809	56.76
659.139	56.8
659.468	56.92
659.798	56.89
660.127	56.91
660.456	56.93
660.785	57.15
661.115	57.12
661.444	57.09
661.773	57.12
662.102	57.16
662.431	57.21
662.76	57.17
663.089	57.24
663.418	57.18
663.747	57.26
664.076	57.25
664.404	57.31
664.733	57.12
665.062	57.09
665.39	57.21
665.719	57.19
666.048	57.15
666.376	57.08
666.705	57.06
667.033	57.13
667.362	57.23
667.69	57.16
668.018	57.13
668.347	57.19
668.675	57.22
669.003	57.31
669.331	57.54
669.659	57.62
669.987	57.61
670.315	57.58
670.643	57.56
670.971	57.59
671.299	57.66
671.627	57.81
671.955	57.89
672.283	57.92
672.61	57.93
672.938	57.95
673.266	58.05
673.593	58.15
673.921	58
674.249	57.98
674.576	58.02
674.904	58.13
675.231	58.01
675.558	58.06
675.886	57.96
676.213	57.66
676.54	57.61
676.867	57.56
677.195	57.66
677.522	57.61
677.849	57.61
678.176	57.63
678.503	57.65
678.83	57.56
679.157	57.58
679.484	57.58
679.81	57.65
680.137	57.54
680.464	57.39
680.791	57.56
681.117	57.47
681.444	57.48
681.771	57.44
682.097	57.5
682.424	57.49
682.75	57.45
683.077	57.7
683.403	57.71
683.729	57.7
684.056	57.69
684.382	57.73
684.708	57.68
685.034	57.65
685.36	57.7
685.686	57.64
686.012	57.62
686.339	57.62
686.664	57.58
686.99	57.71
687.316	57.9
687.642	57.8
687.968	57.89
688.294	57.87
688.619	57.84
688.945	57.88
689.271	57.92
689.596	58.09
689.922	58.03
690.247	58.09
690.573	58.18
690.898	58.12
691.224	58.27
691.549	58.42
691.874	58.49
692.2	58.39
692.525	58.48
692.85	58.53
693.175	58.56
693.5	58.52
693.825	58.46
694.15	58.48
694.475	58.51
694.8	58.52
695.125	58.57
695.45	58.57
695.775	58.44
696.099	58.44
696.424	58.21
696.749	58.26
697.073	58.22
697.398	58.2
697.723	58.35
698.047	58.27
698.372	58.19
698.696	58.2
699.02	58.22
699.345	58.3
699.669	58.35
699.993	58.41
700.318	58.42
700.642	58.47
700.966	58.4
701.29	58.44
701.614	58.43
701.938	58.46
702.262	58.57
702.586	58.76
702.91	58.92
703.234	59.21
703.557	59.28
703.881	59.21
704.205	59.09
704.529	59.04
704.852	59.01
705.176	59.13
705.499	59.17
705.823	59.31
706.146	59.21
706.47	59.27
706.793	59.38
707.117	59.52
707.44	59.42
707.763	59.55
708.086	59.63
708.409	59.71
708.733	59.53
709.056	59.54
709.379	59.33
709.702	59.31
710.025	59.25
710.348	59.03
710.671	59.12
710.993	59.31
711.316	59.12
711.639	59.11
711.962	59.12
712.284	59.02
712.607	58.8
712.93	58.9
713.252	58.75
713.575	58.63
713.897	58.72
714.22	58.79
714.542	58.76
714.864	58.69
715.187	58.74
715.509	58.9
715.831	58.83
716.153	59.12
716.475	58.91
716.798	58.96
717.12	59
717.442	58.99
717.764	59.13
718.085	59.15
718.407	59.21
718.729	59.29
719.051	59.28
719.373	59.36
719.695	59.35
720.016	59.29
720.338	59.25
720.659	59.08
720.981	59
721.302	59.02
721.624	59.04
721.945	58.81
722.267	58.83
722.588	58.82
722.909	58.54
723.231	58.48
723.552	58.48
723.873	58.45
724.194	58.48
724.515	58.42
724.836	58.62
725.157	58.74
725.478	58.59
725.799	58.71
726.12	58.8
726.441	58.78
726.762	59.1
727.083	59.28
727.403	59.39
727.724	59.54
728.045	59.44
728.365	59.47
728.686	59.55
729.006	59.66
729.327	59.69
729.647	59.8
729.967	59.93
730.288	59.89
730.608	59.98
730.928	59.96
731.249	59.77
731.569	59.72
731.889	59.68
732.209	59.61
732.529	59.66
732.849	59.62
733.169	59.76
733.489	59.78
733.809	59.8
734.129	59.7
734.448	59.71
734.768	59.66
735.088	59.62
735.408	59.69
735.727	59.49
736.047	59.34
736.366	59.42
736.686	59.41
737.005	59.25
737.325	59.36
737.644	59.45
737.963	59.57
738.283	59.27
738.602	59.2
738.921	59.18
739.24	59.19
739.56	59.25
739.879	59.12
740.198	59.15
740.517	58.88
740.836	58.65
741.155	58.64
741.473	58.78
741.792	58.8
742.111	58.92
742.43	58.93
742.748	58.8
743.067	58.88
743.386	58.9
743.704	58.94
744.023	59.09
744.341	59.22
744.66	59.21
744.978	59.5
745.297	59.35
745.615	59.3
745.933	59.21
746.252	59.08
746.57	58.86
746.888	58.58
747.206	58.63
747.524	58.63
747.842	58.7
748.16	59
748.478	59.07
748.796	58.8
749.114	58.61
749.432	58.73
749.749	58.67
750.067	58.57
750.385	58.53
750.703	58.26
751.02	58.08
751.338	58.15
751.655	57.98
751.973	58.15
752.29	58.48
752.608	58.34
752.925	58.07
753.242	58.21
753.56	58.33
753.877	58.6
754.194	58.88
754.511	58.77
754.828	58.59
755.145	58.75
755.462	58.88
755.779	59.04
756.096	59.51
756.413	59.22
756.73	59.18
757.047	59.59
757.364	59.64
757.68	59.6
757.997	59.62
758.314	59.96
758.63	59.98
758.947	60.12
759.264	59.86
759.58	60.36
759.896	60.28
760.213	60.47
760.529	60.39
760.846	60.3
761.162	60.5
761.478	60.44
761.794	60.42
762.11	60.25
762.426	60.13
762.743	59.85
763.059	59.88
763.375	59.95
763.69	59.7
764.006	59.68
764.322	59.87
764.638	59.98
764.954	60.04
765.27	59.81
765.585	59.51
765.901	59.85
766.216	59.67
766.532	59.69
766.848	59.27
767.163	59.4
767.478	59.57
767.794	59.31
768.109	59.26
768.424	58.99
768.74	59.16
769.055	59.4
769.37	59.55
769.685	59.69
770	59.88
770.315	59.98
770.63	59.96
770.945	59.92
771.26	59.92
771.575	59.72
771.89	59.9
772.205	60.05
772.52	60.33
772.834	60.35
773.149	60.23
773.464	60.63
773.778	60.24
774.093	59.82
774.407	59.95
774.722	60.2
775.036	60.22
775.351	59.89
775.665	59.54
775.979	59.35
776.293	59.31
776.608	59.19
776.922	58.86
777.236	58.46
777.55	58.06
777.864	58.1
778.178	58.06
778.492	57.89
778.806	57.92
779.12	57.65
779.434	57.72
779.747	57.47
780.061	57.46
780.375	57.79
780.689	58.27
781.002	58.42
781.316	58.39
781.629	58.62
781.943	58.64
782.256	58.71
782.57	58.96
782.883	58.67
783.196	58.59
783.51	58.91
783.823	59.37
784.136	59.8
784.449	59.54
784.762	59.77
785.075	59.87
785.388	59.74
785.701	59.33
786.014	59.34
786.327	59.82
786.64	59.8
786.953	60.01
787.266	59.72
787.578	59.49
787.891	58.95
788.204	58.59
788.516	58.62
788.829	58.84
789.141	59.21
789.454	59.57
789.766	59.28
790.079	58.72
790.391	58.8
790.703	58.46
791.016	58.74
791.328	58.7
791.64	59.1
791.952	58.87
792.264	58.83
792.576	58.99
792.888	59.05
793.2	58.97
793.512	59.08
793.824	59.26
794.136	59.45
794.448	59.98
794.76	60.34
795.071	60.87
795.383	60.75
795.695	60.12
796.006	60.08
796.318	60.29
796.629	60.65
796.941	61.01
797.252	61.35
797.564	61.3
797.875	61.16
798.186	61.01
798.497	61.41
798.809	61.57
799.12	61.72
799.431	61.82
799.742	62.21
800.053	61.85
800.364	61.66
800.675	61.49
800.986	60.9
801.297	60.89
801.608	60.62
801.918	60.12
802.229	59.68
802.54	60.41
802.851	60.32
803.161	60.26
803.472	60.1
803.782	60.05
804.093	60.03
804.403	59.74
804.714	60.07
805.024	60.08
805.334	60.14
805.645	60.2
805.955	60.68
806.265	60.61
806.575	60.56
806.885	60.92
807.195	60.64
807.505	61.04
807.815	61.24
808.125	61.6
808.435	61.77
808.745	61.98
809.055	60.91
809.365	61.27
809.674	62.09
809.984	61.63
810.294	61.94
810.603	61.64
810.913	61.6
811.222	61.36
811.532	61.24
811.841	61.21
812.151	61.36
812.46	60.57
812.769	59.52
813.079	59.12
813.388	58.84
813.697	59.09
814.006	58.89
814.315	57.99
814.624	57.92
814.933	58.06
815.242	58.81
815.551	58.57
815.86	58.87
816.169	58.24
816.478	58.39
816.786	58.56
817.095	58.59
817.404	59.72
817.712	59.83
818.021	60.15
818.33	60.19
818.638	59.96
818.947	60.66
819.255	61.02
819.563	60.95
819.872	60.99
820.18	61.15
820.488	60.98
820.796	60.92
821.105	60.92
821.413	60.95
821.721	60.92
822.029	61.23
822.337	61.31
822.645	61.45
822.953	61.76
823.26	61.76
823.568	61.71
823.876	61.6
824.184	61.66
824.491	61.57
824.799	61.5
825.107	61.55
825.414	61.38
825.722	61.48
826.029	61.59
826.337	61.7
826.644	61.67
826.951	61.79
827.259	61.89
827.566	62
827.873	62
828.18	61.99
828.488	62.05
828.795	61.71
829.102	61.54
829.409	61.19
829.716	60.81
830.023	61
830.329	61.04
830.636	60.91
830.943	61.02
831.25	61.21
831.557	60.73
831.863	60.63
832.17	60.44
832.476	60.36
832.783	60.34
833.089	60.44
833.396	60.45
833.702	60.5
834.009	60.25
834.315	60.49
834.621	60.58
834.928	60.48
835.234	60.53
835.54	60.77
835.846	60.53
836.152	60.71
836.458	60.32
836.764	59.38
837.07	59.42
837.376	58.82
837.682	58.88
837.988	59.66
838.293	59.74
838.599	59.51
838.905	59.23
839.211	58.83
839.516	58.16
839.822	58.52
840.127	58.95
840.433	59.62
840.738	59.24
841.044	58.8
841.349	58.33
841.654	58.69
841.959	58.59
842.265	58.34
842.57	57.86
842.875	58.37
843.18	59.27
843.485	58.77
843.79	60.38
844.095	59.34
844.4	58.68
844.705	59.18
845.01	59.98
845.315	61
845.619	61.51
845.924	61.88
846.229	61.08
846.533	60.62
846.838	58.79
847.142	59.73
847.447	62.46
847.751	63.43
848.056	63.62
848.36	64.8
848.664	64.49
848.969	64
849.273	63.39
849.577	63.98
849.881	64.57
850.185	62.39
850.489	64.37
850.794	64.41
851.097	64.84
851.401	63.19
851.705	63.88
852.009	62.4
852.313	63.33
852.617	62.64
852.92	62.65
853.224	66.41
853.528	65.34
853.831	62.34
854.135	59.76
854.438	58.61
854.742	55.08
855.045	57.55
855.349	58.07
855.652	60.55
855.955	59.39
856.259	58.16
856.562	59.22
856.865	59.32
857.168	58.2
857.471	58.21
857.774	58.2
858.077	57.04
858.38	57.37
858.683	57.32
858.986	59.63
859.289	60.51
859.592	59.1
859.894	62.2
860.197	60.8
860.5	59.59
860.802	59.81
861.105	63.52
861.407	60.63
861.71	60.19
862.012	57.33
862.315	61.35
862.617	62.19
862.919	61.17
863.222	60.63
863.524	60.18
863.826	61.46
864.128	64.4
864.43	62.94
864.732	62.51
865.034	62.73
865.336	62.51
865.638	60.88
865.94	57.64
866.242	56.66
866.544	56.75
866.846	59.7
867.147	61.31
867.449	60.23
867.751	59.99
868.052	61.12
868.354	61.44
868.655	61.8
868.957	62.29
869.258	61.42
869.56	58.74
869.861	59.97
870.162	55.4
870.463	54.82
870.765	57.86
871.066	61.62
871.367	61.49
871.668	59.61
871.969	60.37
872.27	60.41
872.571	59.37
872.872	61.72
873.173	59
873.473	58.08
873.774	58.35
874.075	59.32
874.376	57.75
874.676	56.16
874.977	54.08
875.277	54.01
875.578	56.98
875.878	59.3
876.179	59.27
876.479	61.56
876.78	60.44
877.08	58.12
877.38	53.98
877.68	53.14
877.981	53.99
878.281	53.6
878.581	55.78
