Data from BA28472_Reflection_00012.txt Node
Date: Mon Nov 18 15:24:40 EST 2019
User: vgr7
Spectrometer: USB2G7710
Scans to average: 3
Trigger mode: 4
Integration Time (sec): 2.000000E-2
Electric dark correction enabled: true
Boxcar width: 10
XAxis mode: Wavelengths
Number of Pixels in Spectrum: 2048
>>>>>Begin Spectral Data<<<<<
177.721	-214.34
178.105	-104.47
178.488	-85.74
178.871	-72.02
179.254	-32.83
179.636	-493.46
180.019	2645.45
180.402	153.85
180.785	86.89
181.168	186.73
181.55	-271.26
181.933	173.51
182.316	125.94
182.698	63.62
183.081	89.93
183.463	73.91
183.846	79.66
184.228	82.7
184.611	51.07
184.993	60.58
185.376	93.61
185.758	73.79
186.14	80.66
186.522	108.77
186.904	105.17
187.287	98.7
187.669	108.54
188.051	204.1
188.433	188.91
188.815	191.84
189.197	191.08
189.579	153.96
189.961	138.2
190.342	117.89
190.724	353.64
191.106	150.71
191.488	298.51
191.869	-86.71
192.251	-85.36
192.633	-52.6
193.014	-74
193.396	-110.14
193.777	-57.84
194.159	-182.71
194.54	-98.47
194.922	-13.97
195.303	-26.02
195.684	-44.7
196.065	-16.68
196.447	-24.55
196.828	-45.9
197.209	-54.7
197.59	-61.31
197.971	-77.68
198.352	-34.68
198.733	-36.03
199.114	-30.01
199.495	-29.78
199.876	-59.86
200.257	-51.65
200.638	1.16
201.018	31.44
201.399	82.16
201.78	51.29
202.16	54.8
202.541	32.92
202.922	-8.86
203.302	-9.65
203.683	-16.12
204.063	-31.95
204.444	-23.77
204.824	-42.08
205.204	-0.76
205.585	6.23
205.965	24.92
206.345	-25.92
206.725	-81.22
207.106	-140.96
207.486	-157.32
207.866	-147.21
208.246	-139.41
208.626	-233.66
209.006	-288.63
209.386	-411.92
209.766	-661.75
210.145	-1372.67
210.525	-892.63
210.905	-859.57
211.285	-954.55
211.664	-506.68
212.044	797.87
212.424	-1782.35
212.803	-198.98
213.183	-182.89
213.562	-767
213.942	1935.62
214.321	-315.19
214.701	-425.37
215.08	-300
215.459	-86.71
215.838	-16.69
216.218	-9.03
216.597	4.71
216.976	31.73
217.355	33.51
217.734	25.89
218.113	53.68
218.492	46.24
218.871	9.74
219.25	-7.03
219.629	-20.72
220.008	-15.62
220.387	11.2
220.766	-10.58
221.144	-48.11
221.523	-47.46
221.902	-57.4
222.28	-91.09
222.659	-75.73
223.037	-84.64
223.416	-124.67
223.794	-121.37
224.173	-114.62
224.551	-88.22
224.929	-64.26
225.308	-39.92
225.686	-29.16
226.064	-25.32
226.442	-19.75
226.821	-10.12
227.199	-11.73
227.577	-12.44
227.955	-13.29
228.333	-14.23
228.711	-13.67
229.089	-11.5
229.467	-10.01
229.845	-7.86
230.222	-4.3
230.6	-2.24
230.978	1.21
231.356	5.07
231.733	4.71
232.111	3.98
232.488	3.15
232.866	3.84
233.243	3.2
233.621	1.16
233.998	1.14
234.376	0.98
234.753	2.22
235.13	3.42
235.508	4.99
235.885	5.21
236.262	4.7
236.639	6
237.016	6.9
237.393	7.95
237.77	7.3
238.147	6.97
238.524	6.32
238.901	5.85
239.278	5.75
239.655	6.1
240.032	5.91
240.409	5.96
240.785	5.04
241.162	5.06
241.539	5.52
241.915	5.49
242.292	5.26
242.668	4.84
243.045	4.72
243.421	4.44
243.798	4.54
244.174	4.68
244.551	4.37
244.927	4.33
245.303	3.9
245.679	3.89
246.056	3.87
246.432	4.06
246.808	4.25
247.184	4.06
247.56	3.84
247.936	3.85
248.312	3.85
248.688	4.13
249.064	4.13
249.44	3.94
249.815	3.97
250.191	3.85
250.567	3.81
250.943	3.84
251.318	4.07
251.694	3.98
252.069	3.84
252.445	3.75
252.82	3.93
253.196	4.16
253.571	3.92
253.947	4.04
254.322	4.21
254.697	3.9
255.073	3.8
255.448	4.03
255.823	4.18
256.198	4.25
256.573	4.07
256.948	4.01
257.323	4.35
257.698	4.32
258.073	4.38
258.448	4.4
258.823	4.34
259.198	4.04
259.573	4.15
259.948	4.17
260.322	4.3
260.697	4.27
261.072	4.35
261.446	4.65
261.821	4.57
262.195	4.56
262.57	4.42
262.944	4.42
263.319	4.27
263.693	4.18
264.067	4.13
264.442	4.13
264.816	3.99
265.19	3.76
265.564	3.76
265.938	3.65
266.313	3.57
266.687	3.59
267.061	3.84
267.435	3.72
267.809	3.69
268.183	3.81
268.556	3.62
268.93	3.44
269.304	3.42
269.678	3.49
270.051	3.35
270.425	3.58
270.799	3.49
271.172	3.62
271.546	3.73
271.919	3.56
272.293	3.53
272.666	3.83
273.04	3.86
273.413	3.86
273.787	3.92
274.16	4.01
274.533	4.14
274.906	3.99
275.279	4.01
275.653	4.01
276.026	3.88
276.399	4.01
276.772	4.02
277.145	3.75
277.518	3.71
277.891	3.66
278.263	3.44
278.636	3.62
279.009	3.54
279.382	3.53
279.755	3.7
280.127	3.98
280.5	3.85
280.872	3.82
281.245	3.61
281.617	3.89
281.99	3.83
282.362	3.67
282.735	3.53
283.107	3.49
283.479	3.53
283.852	3.53
284.224	3.43
284.596	3.43
284.968	3.58
285.34	3.66
285.713	3.66
286.085	3.75
286.457	3.81
286.829	3.88
287.201	3.9
287.572	3.87
287.944	3.75
288.316	3.72
288.688	3.81
289.06	3.91
289.431	3.76
289.803	3.77
290.175	3.79
290.546	4.01
290.918	4.07
291.289	4.13
291.661	4.12
292.032	4.22
292.403	4.26
292.775	4.3
293.146	4.11
293.517	4.16
293.889	4.31
294.26	4.22
294.631	4.25
295.002	4.22
295.373	4.23
295.744	4.29
296.115	4.31
296.486	4.14
296.857	4.16
297.228	4.21
297.599	4.22
297.97	4.29
298.34	4.32
298.711	4.3
299.082	4.26
299.452	4.4
299.823	4.53
300.194	4.54
300.564	4.49
300.935	4.68
301.305	4.7
301.676	4.64
302.046	4.84
302.416	4.95
302.787	5.18
303.157	5.17
303.527	5.13
303.897	5.11
304.267	5.45
304.637	5.63
305.008	5.65
305.378	5.75
305.748	5.74
306.117	5.58
306.487	5.72
306.857	5.65
307.227	5.56
307.597	5.38
307.967	5.39
308.336	5.45
308.706	5.47
309.076	5.46
309.445	5.45
309.815	5.32
310.184	5.29
310.554	5.15
310.923	5.33
311.293	5.4
311.662	5.44
312.031	5.37
312.401	5.2
312.77	5.26
313.139	5.36
313.508	5.34
313.877	5.44
314.246	5.39
314.616	5.53
314.985	5.57
315.353	5.65
315.722	5.73
316.091	5.83
316.46	5.71
316.829	5.92
317.198	6.03
317.567	6.08
317.935	6.04
318.304	6.12
318.672	5.97
319.041	6.02
319.41	6.12
319.778	6.09
320.147	6.34
320.515	6.37
320.883	6.35
321.252	6.47
321.62	6.52
321.988	6.51
322.357	6.59
322.725	6.7
323.093	6.73
323.461	6.74
323.829	6.7
324.197	6.81
324.565	6.78
324.933	6.74
325.301	6.87
325.669	6.87
326.037	6.88
326.405	7.1
326.772	7.14
327.14	7.2
327.508	7.22
327.875	7.18
328.243	7.25
328.61	7.27
328.978	7.28
329.346	7.34
329.713	7.37
330.08	7.21
330.448	7.11
330.815	7.22
331.182	7.25
331.55	7.36
331.917	7.4
332.284	7.42
332.651	7.41
333.018	7.38
333.385	7.44
333.752	7.46
334.119	7.38
334.486	7.33
334.853	7.36
335.22	7.43
335.587	7.42
335.954	7.32
336.32	7.21
336.687	7.27
337.054	7.33
337.42	7.43
337.787	7.64
338.153	7.65
338.52	7.72
338.886	7.74
339.253	7.61
339.619	7.64
339.986	7.57
340.352	7.67
340.718	7.73
341.084	7.77
341.451	7.86
341.817	7.91
342.183	7.91
342.549	7.95
342.915	8.02
343.281	8.08
343.647	8.13
344.013	8.24
344.379	8.16
344.745	8.16
345.11	8.22
345.476	8.21
345.842	8.26
346.208	8.15
346.573	8.25
346.939	8.37
347.304	8.36
347.67	8.44
348.035	8.49
348.401	8.4
348.766	8.41
349.132	8.42
349.497	8.35
349.862	8.41
350.228	8.34
350.593	8.23
350.958	8.21
351.323	8.29
351.688	8.24
352.053	8.41
352.418	8.34
352.783	8.32
353.148	8.23
353.513	8.23
353.878	8.27
354.243	8.37
354.608	8.34
354.972	8.4
355.337	8.31
355.702	8.27
356.066	8.3
356.431	8.19
356.795	8.16
357.16	8.09
357.524	8.01
357.889	7.94
358.253	8.05
358.618	8.07
358.982	8.03
359.346	7.97
359.71	7.89
360.075	7.91
360.439	7.89
360.803	7.84
361.167	7.75
361.531	7.67
361.895	7.52
362.259	7.4
362.623	7.37
362.987	7.38
363.351	7.36
363.714	7.34
364.078	7.41
364.442	7.29
364.806	7.33
365.169	7.3
365.533	7.31
365.896	7.23
366.26	7.17
366.623	7.05
366.987	7.13
367.35	7.1
367.714	7.11
368.077	7
368.44	7.03
368.803	7.08
369.167	7.09
369.53	7.03
369.893	7.14
370.256	7.08
370.619	7.04
370.982	7.01
371.345	6.93
371.708	6.9
372.071	6.93
372.434	6.84
372.797	6.87
373.159	6.83
373.522	6.75
373.885	6.72
374.247	6.72
374.61	6.67
374.973	6.58
375.335	6.51
375.698	6.51
376.06	6.43
376.423	6.35
376.785	6.31
377.147	6.35
377.51	6.27
377.872	6.22
378.234	6.18
378.596	6.13
378.958	6.09
379.321	5.98
379.683	5.97
380.045	5.97
380.407	5.89
380.769	5.82
381.13	5.83
381.492	5.78
381.854	5.76
382.216	5.69
382.578	5.67
382.939	5.56
383.301	5.56
383.663	5.53
384.024	5.52
384.386	5.49
384.747	5.43
385.109	5.39
385.47	5.34
385.832	5.33
386.193	5.34
386.554	5.3
386.916	5.33
387.277	5.26
387.638	5.2
387.999	5.18
388.36	5.19
388.721	5.14
389.082	5.1
389.443	5.03
389.804	4.99
390.165	4.97
390.526	5
390.887	4.89
391.248	4.87
391.609	4.85
391.969	4.82
392.33	4.79
392.691	4.77
393.051	4.78
393.412	4.75
393.772	4.67
394.133	4.68
394.493	4.61
394.854	4.6
395.214	4.6
395.574	4.57
395.935	4.52
396.295	4.51
396.655	4.48
397.015	4.44
397.376	4.41
397.736	4.34
398.096	4.31
398.456	4.33
398.816	4.3
399.176	4.26
399.535	4.23
399.895	4.21
400.255	4.19
400.615	4.14
400.975	4.09
401.334	4.1
401.694	4.07
402.054	4.01
402.413	4.02
402.773	3.93
403.132	3.92
403.492	3.94
403.851	3.93
404.211	3.92
404.57	3.9
404.929	3.87
405.288	3.87
405.648	3.83
406.007	3.79
406.366	3.76
406.725	3.77
407.084	3.77
407.443	3.73
407.802	3.7
408.161	3.69
408.52	3.69
408.879	3.65
409.238	3.64
409.596	3.68
409.955	3.67
410.314	3.69
410.673	3.67
411.031	3.62
411.39	3.6
411.748	3.63
412.107	3.66
412.465	3.67
412.824	3.67
413.182	3.68
413.54	3.71
413.899	3.72
414.257	3.73
414.615	3.71
414.974	3.74
415.332	3.72
415.69	3.71
416.048	3.68
416.406	3.69
416.764	3.68
417.122	3.67
417.48	3.63
417.838	3.63
418.195	3.63
418.553	3.62
418.911	3.59
419.269	3.56
419.626	3.54
419.984	3.53
420.342	3.53
420.699	3.52
421.057	3.5
421.414	3.48
421.772	3.45
422.129	3.43
422.486	3.4
422.844	3.41
423.201	3.39
423.558	3.38
423.915	3.37
424.273	3.37
424.63	3.35
424.987	3.34
425.344	3.34
425.701	3.32
426.058	3.3
426.415	3.29
426.772	3.29
427.128	3.28
427.485	3.28
427.842	3.26
428.199	3.25
428.555	3.24
428.912	3.24
429.269	3.24
429.625	3.25
429.982	3.24
430.338	3.24
430.695	3.22
431.051	3.22
431.407	3.21
431.764	3.2
432.12	3.2
432.476	3.2
432.832	3.19
433.189	3.21
433.545	3.22
433.901	3.23
434.257	3.23
434.613	3.23
434.969	3.24
435.325	3.24
435.681	3.24
436.036	3.25
436.392	3.23
436.748	3.24
437.104	3.23
437.459	3.25
437.815	3.24
438.171	3.26
438.526	3.27
438.882	3.28
439.237	3.28
439.593	3.3
439.948	3.31
440.304	3.29
440.659	3.28
441.014	3.28
441.369	3.27
441.725	3.26
442.08	3.26
442.435	3.26
442.79	3.26
443.145	3.24
443.5	3.23
443.855	3.24
444.21	3.23
444.565	3.23
444.92	3.22
445.275	3.22
445.629	3.22
445.984	3.2
446.339	3.19
446.693	3.17
447.048	3.15
447.403	3.13
447.757	3.13
448.112	3.12
448.466	3.12
448.82	3.14
449.175	3.14
449.529	3.12
449.883	3.1
450.238	3.07
450.592	3.07
450.946	3.06
451.3	3.05
451.654	3.06
452.008	3.08
452.362	3.07
452.716	3.08
453.07	3.08
453.424	3.08
453.778	3.08
454.132	3.09
454.486	3.08
454.839	3.07
455.193	3.05
455.547	3.07
455.9	3.08
456.254	3.06
456.607	3.05
456.961	3.04
457.314	3.03
457.668	3.06
458.021	3.05
458.375	3.08
458.728	3.07
459.081	3.08
459.434	3.06
459.787	3.07
460.141	3.06
460.494	3.07
460.847	3.06
461.2	3.06
461.553	3.07
461.906	3.1
462.259	3.11
462.611	3.12
462.964	3.13
463.317	3.11
463.67	3.11
464.022	3.13
464.375	3.13
464.728	3.14
465.08	3.14
465.433	3.14
465.785	3.14
466.138	3.15
466.49	3.14
466.843	3.15
467.195	3.15
467.547	3.15
467.899	3.15
468.252	3.16
468.604	3.17
468.956	3.17
469.308	3.15
469.66	3.16
470.012	3.16
470.364	3.16
470.716	3.17
471.068	3.18
471.42	3.18
471.772	3.21
472.123	3.22
472.475	3.23
472.827	3.24
473.178	3.24
473.53	3.24
473.882	3.25
474.233	3.25
474.585	3.24
474.936	3.25
475.288	3.24
475.639	3.26
475.99	3.25
476.342	3.27
476.693	3.3
477.044	3.31
477.395	3.32
477.746	3.3
478.097	3.3
478.448	3.29
478.8	3.3
479.15	3.28
479.501	3.29
479.852	3.28
480.203	3.28
480.554	3.26
480.905	3.26
481.255	3.26
481.606	3.27
481.957	3.27
482.307	3.28
482.658	3.28
483.009	3.27
483.359	3.27
483.709	3.27
484.06	3.25
484.41	3.26
484.761	3.24
485.111	3.25
485.461	3.26
485.811	3.26
486.162	3.25
486.512	3.26
486.862	3.25
487.212	3.25
487.562	3.24
487.912	3.25
488.262	3.25
488.612	3.24
488.961	3.23
489.311	3.23
489.661	3.23
490.011	3.21
490.36	3.22
490.71	3.21
491.06	3.2
491.409	3.21
491.759	3.21
492.108	3.22
492.458	3.22
492.807	3.21
493.157	3.23
493.506	3.24
493.855	3.24
494.204	3.26
494.554	3.28
494.903	3.29
495.252	3.31
495.601	3.34
495.95	3.38
496.299	3.39
496.648	3.4
496.997	3.44
497.346	3.48
497.695	3.49
498.043	3.52
498.392	3.55
498.741	3.59
499.09	3.61
499.438	3.63
499.787	3.65
500.135	3.7
500.484	3.72
500.832	3.75
501.181	3.77
501.529	3.81
501.878	3.84
502.226	3.89
502.574	3.92
502.923	3.96
503.271	4
503.619	4.05
503.967	4.1
504.315	4.12
504.663	4.17
505.011	4.25
505.359	4.3
505.707	4.37
506.055	4.41
506.403	4.47
506.751	4.54
507.098	4.62
507.446	4.68
507.794	4.75
508.141	4.81
508.489	4.9
508.837	4.98
509.184	5.06
509.531	5.14
509.879	5.24
510.226	5.33
510.574	5.39
510.921	5.48
511.268	5.57
511.616	5.66
511.963	5.76
512.31	5.84
512.657	5.97
513.004	6.07
513.351	6.19
513.698	6.3
514.045	6.42
514.392	6.52
514.739	6.61
515.086	6.74
515.432	6.88
515.779	6.98
516.126	7.09
516.473	7.22
516.819	7.31
517.166	7.38
517.512	7.47
517.859	7.58
518.205	7.67
518.552	7.77
518.898	7.88
519.245	7.96
519.591	8.07
519.937	8.16
520.283	8.25
520.629	8.36
520.976	8.48
521.322	8.58
521.668	8.73
522.014	8.88
522.36	9.01
522.706	9.14
523.052	9.3
523.398	9.47
523.743	9.63
524.089	9.81
524.435	9.98
524.781	10.15
525.126	10.3
525.472	10.47
525.817	10.63
526.163	10.74
526.509	10.87
526.854	11
527.199	11.11
527.545	11.22
527.89	11.33
528.235	11.45
528.581	11.59
528.926	11.7
529.271	11.84
529.616	11.96
529.961	12.1
530.306	12.23
530.651	12.37
530.996	12.51
531.341	12.69
531.686	12.86
532.031	13.02
532.376	13.19
532.721	13.36
533.065	13.52
533.41	13.72
533.755	13.92
534.099	14.13
534.444	14.33
534.788	14.56
535.133	14.77
535.477	14.96
535.822	15.16
536.166	15.41
536.51	15.64
536.855	15.9
537.199	16.17
537.543	16.47
537.887	16.76
538.231	17.06
538.576	17.34
538.92	17.59
539.264	17.86
539.608	18.13
539.951	18.39
540.295	18.62
540.639	18.84
540.983	19.07
541.327	19.29
541.671	19.51
542.014	19.71
542.358	19.94
542.701	20.2
543.045	20.43
543.389	20.65
543.732	20.87
544.075	21.13
544.419	21.38
544.762	21.6
545.105	21.89
545.449	22.17
545.792	22.48
546.135	22.82
546.478	23.12
546.821	23.44
547.165	23.78
547.508	24.17
547.851	24.51
548.194	24.85
548.536	25.17
548.879	25.53
549.222	25.9
549.565	26.26
549.908	26.57
550.25	26.94
550.593	27.28
550.936	27.65
551.278	27.97
551.621	28.3
551.963	28.66
552.306	28.95
552.648	29.33
552.991	29.61
553.333	29.9
553.675	30.23
554.017	30.54
554.36	30.84
554.702	31.15
555.044	31.44
555.386	31.74
555.728	32.07
556.07	32.43
556.412	32.72
556.754	33.01
557.096	33.3
557.438	33.59
557.78	33.96
558.121	34.28
558.463	34.6
558.805	34.9
559.147	35.22
559.488	35.49
559.83	35.76
560.171	36.05
560.513	36.4
560.854	36.65
561.196	36.93
561.537	37.24
561.878	37.47
562.22	37.75
562.561	37.99
562.902	38.27
563.243	38.43
563.584	38.7
563.925	38.98
564.266	39.27
564.607	39.49
564.948	39.67
565.289	39.87
565.63	40.06
565.971	40.26
566.312	40.48
566.653	40.69
566.993	40.88
567.334	41.1
567.675	41.28
568.015	41.55
568.356	41.77
568.696	42
569.037	42.19
569.377	42.38
569.718	42.58
570.058	42.75
570.398	42.96
570.739	43.15
571.079	43.34
571.419	43.52
571.759	43.72
572.099	43.89
572.439	44.08
572.779	44.26
573.119	44.46
573.459	44.62
573.799	44.84
574.139	45
574.479	45.14
574.819	45.32
575.158	45.42
575.498	45.6
575.838	45.75
576.177	45.94
576.517	46.17
576.856	46.39
577.196	46.56
577.535	46.73
577.875	46.87
578.214	47.05
578.553	47.2
578.893	47.34
579.232	47.53
579.571	47.73
579.91	47.89
580.25	48.05
580.589	48.27
580.928	48.36
581.267	48.5
581.606	48.6
581.945	48.71
582.283	48.93
582.622	48.99
582.961	49.09
583.3	49.26
583.639	49.4
583.977	49.51
584.316	49.64
584.654	49.67
584.993	49.74
585.332	49.86
585.67	49.93
586.008	50.09
586.347	50.21
586.685	50.3
587.024	50.43
587.362	50.54
587.7	50.64
588.038	50.73
588.376	50.77
588.715	50.9
589.053	50.98
589.391	51.07
589.729	51.19
590.067	51.28
590.404	51.31
590.742	51.32
591.08	51.36
591.418	51.41
591.756	51.61
592.093	51.77
592.431	51.86
592.769	51.98
593.106	52.01
593.444	52.09
593.781	52.16
594.119	52.29
594.456	52.33
594.793	52.38
595.131	52.42
595.468	52.52
595.805	52.66
596.143	52.8
596.48	52.82
596.817	52.89
597.154	52.97
597.491	53.09
597.828	53.2
598.165	53.32
598.502	53.41
598.839	53.56
599.176	53.61
599.512	53.63
599.849	53.72
600.186	53.87
600.523	53.98
600.859	54.07
601.196	54.12
601.532	54.29
601.869	54.34
602.205	54.48
602.542	54.55
602.878	54.57
603.215	54.56
603.551	54.62
603.887	54.68
604.223	54.67
604.56	54.63
604.896	54.68
605.232	54.77
605.568	54.82
605.904	54.83
606.24	54.98
606.576	55.08
606.912	55.18
607.248	55.2
607.583	55.23
607.919	55.3
608.255	55.32
608.591	55.37
608.926	55.44
609.262	55.55
609.597	55.68
609.933	55.78
610.268	55.9
610.604	56.03
610.939	56.14
611.275	56.3
611.61	56.41
611.945	56.4
612.281	56.4
612.616	56.49
612.951	56.58
613.286	56.57
613.621	56.64
613.956	56.65
614.291	56.77
614.626	56.85
614.961	56.92
615.296	57.04
615.631	57.06
615.966	57.22
616.3	57.25
616.635	57.29
616.97	57.3
617.304	57.29
617.639	57.27
617.973	57.29
618.308	57.29
618.642	57.27
618.977	57.39
619.311	57.4
619.646	57.49
619.98	57.34
620.314	57.42
620.648	57.42
620.983	57.49
621.317	57.42
621.651	57.38
621.985	57.46
622.319	57.38
622.653	57.42
622.987	57.36
623.321	57.33
623.655	57.31
623.988	57.34
624.322	57.37
624.656	57.42
624.99	57.49
625.323	57.58
625.657	57.73
625.99	57.74
626.324	57.83
626.657	57.77
626.991	57.93
627.324	57.85
627.658	57.92
627.991	58.02
628.324	58.16
628.657	58.19
628.991	58.14
629.324	58.2
629.657	58.2
629.99	58.27
630.323	58.39
630.656	58.52
630.989	58.54
631.322	58.64
631.655	58.61
631.987	58.63
632.32	58.63
632.653	58.6
632.986	58.65
633.318	58.62
633.651	58.68
633.984	58.68
634.316	58.81
634.649	58.84
634.981	58.74
635.313	58.64
635.646	58.76
635.978	58.88
636.31	58.95
636.643	58.98
636.975	59.01
637.307	58.98
637.639	58.93
637.971	58.99
638.303	58.84
638.635	58.96
638.967	59
639.299	59.05
639.631	59.1
639.963	59.13
640.295	59.27
640.626	59.33
640.958	59.35
641.29	59.28
641.621	59.24
641.953	59.26
642.285	59.28
642.616	59.25
642.948	59.24
643.279	59.25
643.61	59.27
643.942	59.25
644.273	59.22
644.604	59.29
644.936	59.44
645.267	59.53
645.598	59.42
645.929	59.35
646.26	59.38
646.591	59.42
646.922	59.43
647.253	59.46
647.584	59.49
647.915	59.64
648.245	59.69
648.576	59.78
648.907	59.85
649.238	59.87
649.568	59.89
649.899	59.87
650.229	59.9
650.56	59.94
650.89	59.99
651.221	60.25
651.551	60.18
651.882	60.1
652.212	60.11
652.542	60.23
652.872	60.3
653.203	60.32
653.533	60.35
653.863	60.35
654.193	60.34
654.523	60.31
654.853	60.3
655.183	60.3
655.513	60.32
655.843	60.27
656.172	60.4
656.502	60.28
656.832	60.32
657.162	60.28
657.491	60.27
657.821	60.22
658.15	60.13
658.48	60.11
658.809	60.03
659.139	60.17
659.468	60.27
659.798	60.26
660.127	60.2
660.456	60.24
660.785	60.22
661.115	60.27
661.444	60.31
661.773	60.25
662.102	60.27
662.431	60.22
662.76	60.42
663.089	60.38
663.418	60.61
663.747	60.69
664.076	60.62
664.404	60.64
664.733	60.71
665.062	60.72
665.39	60.78
665.719	60.86
666.048	60.84
666.376	60.8
666.705	60.72
667.033	60.63
667.362	60.58
667.69	60.45
668.018	60.38
668.347	60.43
668.675	60.43
669.003	60.49
669.331	60.61
669.659	60.57
669.987	60.56
670.315	60.53
670.643	60.5
670.971	60.57
671.299	60.55
671.627	60.56
671.955	60.53
672.283	60.62
672.61	60.52
672.938	60.45
673.266	60.27
673.593	60.48
673.921	60.64
674.249	60.64
674.576	60.74
674.904	60.85
675.231	60.87
675.558	60.71
675.886	60.79
676.213	60.75
676.54	60.83
676.867	60.89
677.195	60.85
677.522	60.78
677.849	60.82
678.176	60.88
678.503	60.95
678.83	60.87
679.157	60.84
679.484	60.97
679.81	60.95
680.137	61.09
680.464	60.97
680.791	61.11
681.117	61.09
681.444	61.2
681.771	61.16
682.097	61.15
682.424	61.41
682.75	61.32
683.077	61.3
683.403	61.12
683.729	61.11
684.056	61.07
684.382	61.1
684.708	61.13
685.034	60.98
685.36	60.84
685.686	60.97
686.012	60.93
686.339	60.8
686.664	60.78
686.99	60.83
687.316	60.86
687.642	60.66
687.968	60.62
688.294	60.72
688.619	60.65
688.945	60.59
689.271	60.52
689.596	60.57
689.922	60.6
690.247	60.69
690.573	60.64
690.898	60.73
691.224	60.75
691.549	60.75
691.874	61.01
692.2	61.06
692.525	60.97
692.85	60.86
693.175	60.93
693.5	60.94
693.825	60.81
694.15	60.74
694.475	60.88
694.8	61.04
695.125	60.84
695.45	60.73
695.775	60.8
696.099	60.79
696.424	60.79
696.749	60.9
697.073	60.82
697.398	60.83
697.723	60.82
698.047	60.93
698.372	61.01
698.696	60.99
699.02	60.94
699.345	60.98
699.669	61.03
699.993	60.97
700.318	61.06
700.642	61.15
700.966	61.12
701.29	61.05
701.614	61
701.938	61.01
702.262	61.2
702.586	61.09
702.91	61.13
703.234	61.18
703.557	61.03
703.881	61.1
704.205	61.13
704.529	61.22
704.852	61.15
705.176	61.09
705.499	61.07
705.823	61.04
706.146	61.05
706.47	61.07
706.793	61.18
707.117	61.04
707.44	60.95
707.763	61.15
708.086	61.3
708.409	61.51
708.733	61.62
709.056	61.58
709.379	61.75
709.702	61.84
710.025	61.79
710.348	61.87
710.671	61.95
710.993	62.13
711.316	62.08
711.639	62.04
711.962	62.07
712.284	62.16
712.607	62.34
712.93	62.31
713.252	62.57
713.575	62.65
713.897	62.81
714.22	62.9
714.542	62.74
714.864	62.52
715.187	62.27
715.509	62.11
715.831	61.98
716.153	61.87
716.475	61.78
716.798	61.65
717.12	61.7
717.442	61.62
717.764	61.55
718.085	61.46
718.407	61.45
718.729	61.51
719.051	61.47
719.373	61.3
719.695	61.34
720.016	61.11
720.338	61.1
720.659	61.02
720.981	60.97
721.302	61.34
721.624	61.4
721.945	61.78
722.267	61.85
722.588	61.9
722.909	61.92
723.231	61.81
723.552	62.01
723.873	62.04
724.194	62.13
724.515	62.15
724.836	62.03
725.157	62.05
725.478	61.98
725.799	61.66
726.12	61.59
726.441	61.54
726.762	61.67
727.083	61.71
727.403	61.98
727.724	62.2
728.045	62.07
728.365	62.4
728.686	62.17
729.006	62.32
729.327	62.6
729.647	62.78
729.967	62.82
730.288	62.83
730.608	62.77
730.928	62.82
731.249	62.86
731.569	63.08
731.889	63.08
732.209	63.14
732.529	63.12
732.849	63.33
733.169	63.23
733.489	63.3
733.809	63.22
734.129	63.04
734.448	62.88
734.768	62.61
735.088	62.25
735.408	62.01
735.727	62.02
736.047	61.91
736.366	61.95
736.686	62.02
737.005	61.87
737.325	61.73
737.644	61.51
737.963	61.5
738.283	61.27
738.602	61.36
738.921	61.24
739.24	61.51
739.56	61.53
739.879	61.48
740.198	61.21
740.517	61.28
740.836	61.12
741.155	61.05
741.473	61.17
741.792	61.19
742.111	61.46
742.43	61.42
742.748	61.34
743.067	61.22
743.386	61.14
743.704	61.24
744.023	61.36
744.341	61.56
744.66	61.55
744.978	61.78
745.297	61.64
745.615	61.84
745.933	61.6
746.252	61.61
746.57	62.06
746.888	61.97
747.206	61.87
747.524	62.2
747.842	62.24
748.16	62.35
748.478	62.35
748.796	62.56
749.114	62.78
749.432	62.61
749.749	62.7
750.067	62.84
750.385	63.16
750.703	63.29
751.02	63.24
751.338	63.2
751.655	63.07
751.973	62.94
752.29	62.78
752.608	62.88
752.925	62.97
753.242	62.86
753.56	63.09
753.877	63.07
754.194	63.02
754.511	63.44
754.828	63.74
755.145	63.78
755.462	63.23
755.779	63.07
756.096	62.88
756.413	62.36
756.73	62.36
757.047	62.14
757.364	62.15
757.68	62.01
757.997	61.68
758.314	61.75
758.63	62.09
758.947	62.47
759.264	62.44
759.58	62.18
759.896	61.8
760.213	61.91
760.529	62.05
760.846	61.89
761.162	61.44
761.478	61.18
761.794	61.27
762.11	61.69
762.426	61.66
762.743	62.04
763.059	62.37
763.375	62.61
763.69	62.75
764.006	62.79
764.322	63.17
764.638	63.42
764.954	63.49
765.27	63.41
765.585	63.13
765.901	63.3
766.216	63.5
766.532	63.77
766.848	63.51
767.163	63.34
767.478	63.32
767.794	63.42
768.109	63.3
768.424	63.24
768.74	62.84
769.055	62.83
769.37	62.92
769.685	62.4
770	62.15
770.315	62.05
770.63	61.66
770.945	61.35
771.26	60.89
771.575	60.73
771.89	60.88
772.205	61.3
772.52	61.3
772.834	61.03
773.149	61.08
773.464	61.56
773.778	61.81
774.093	62.22
774.407	62.24
774.722	62.6
775.036	62.63
775.351	63.23
775.665	63.29
775.979	63.26
776.293	63.87
776.608	63.91
776.922	63.62
777.236	64.03
777.55	63.97
777.864	64.67
778.178	65.26
778.492	65.07
778.806	64.81
779.12	64.73
779.434	64.91
779.747	64.83
780.061	64.5
780.375	64.47
780.689	64.49
781.002	64.23
781.316	64.33
781.629	64.67
781.943	64.83
782.256	65.06
782.57	64.47
782.883	64.09
783.196	63.9
783.51	64
783.823	63.79
784.136	63.77
784.449	63.4
784.762	62.75
785.075	63.06
785.388	63.15
785.701	63.26
786.014	63.45
786.327	63.91
786.64	64.13
786.953	64.13
787.266	63.97
787.578	64.26
787.891	64.19
788.204	63.95
788.516	63.38
788.829	63.18
789.141	63.84
789.454	64.4
789.766	64.57
790.079	64.75
790.391	64.77
790.703	64.62
791.016	64.63
791.328	64.72
791.64	64.22
791.952	64.05
792.264	64.07
792.576	63.63
792.888	63.05
793.2	63.05
793.512	63.16
793.824	62.99
794.136	63.04
794.448	62.73
794.76	63.03
795.071	63.47
795.383	63.27
795.695	63.32
796.006	62.71
796.318	63.05
796.629	62.96
796.941	63
797.252	63.06
797.564	63.38
797.875	62.99
798.186	63.1
798.497	63.11
798.809	63.39
799.12	64.1
799.431	64.63
799.742	64.29
800.053	63.83
800.364	63.84
800.675	63.75
800.986	63.87
801.297	63.6
801.608	62.95
801.918	63.29
802.229	63.35
802.54	64.09
802.851	63.67
803.161	63.36
803.472	63.36
803.782	63.68
804.093	63.52
804.403	64.15
804.714	64.44
805.024	64.01
805.334	63.77
805.645	63.46
805.955	63.01
806.265	63.65
806.575	63.52
806.885	63.53
807.195	64.26
807.505	64.15
807.815	64.29
808.125	65.17
808.435	65.08
808.745	64.2
809.055	63.87
809.365	64.02
809.674	65.12
809.984	65.43
810.294	65.26
810.603	65.95
810.913	66.42
811.222	66.07
811.532	67.12
811.841	66.84
812.151	67.09
812.46	67.3
812.769	68.14
813.079	68.23
813.388	68.39
813.697	68.2
814.006	68.98
814.315	68.51
814.624	68.47
814.933	68.02
815.242	68.2
815.551	68.1
815.86	67.65
816.169	66.76
816.478	66.37
816.786	65.69
817.095	65.44
817.404	64.48
817.712	64.58
818.021	63.76
818.33	63.78
818.638	62.84
818.947	62.84
819.255	62.63
819.563	63.01
819.872	63.16
820.18	63.17
820.488	62.82
820.796	63.19
821.105	63.22
821.413	63.31
821.721	63.53
822.029	63.52
822.337	63.29
822.645	63.55
822.953	63.55
823.26	63.54
823.568	63.28
823.876	63.47
824.184	63.57
824.491	63.65
824.799	63.6
825.107	63.87
825.414	63.88
825.722	63.8
826.029	63.75
826.337	63.66
826.644	63.6
826.951	63.58
827.259	63.57
827.566	63.33
827.873	63.47
828.18	63.28
828.488	63.2
828.795	63.55
829.102	63.14
829.409	63.35
829.716	63.88
830.023	63.87
830.329	63.37
830.636	63.62
830.943	63.47
831.25	63.16
831.557	63.35
831.863	63.19
832.17	62.96
832.476	62.93
832.783	63.04
833.089	62.06
833.396	62.43
833.702	61.57
834.009	61.98
834.315	61.91
834.621	61.55
834.928	61.83
835.234	61.98
835.54	62.04
835.846	61.48
836.152	61.35
836.458	61.53
836.764	62.04
837.07	61.95
837.376	62.06
837.682	62.93
837.988	62.86
838.293	62.79
838.599	63.04
838.905	63.25
839.211	62.65
839.516	64.05
839.822	64.3
840.127	65.01
840.433	64.92
840.738	64.86
841.044	64.85
841.349	65.06
841.654	64.37
841.959	64.71
842.265	64.92
842.57	64.92
842.875	65.94
843.18	65.48
843.485	64.49
843.79	63.46
844.095	63.73
844.4	62.73
844.705	63.42
845.01	63.16
845.315	62.58
845.619	62.96
845.924	62.64
846.229	61.98
846.533	62.73
846.838	61.88
847.142	61.5
847.447	62.65
847.751	61.71
848.056	61.23
848.36	61.55
848.664	62.46
848.969	62.46
849.273	61.81
849.577	61.6
849.881	60.49
850.185	61.83
850.489	59.85
850.794	61.42
851.097	61.14
851.401	61.61
851.705	61.93
852.009	63.17
852.313	64.78
852.617	63.98
852.92	63.05
853.224	65.31
853.528	65.91
853.831	66.34
854.135	67.26
854.438	68.69
854.742	69.8
855.045	68.83
855.349	67
855.652	66.49
855.955	66.91
856.259	68.13
856.562	68.3
856.865	69.39
857.168	63.96
857.471	61.87
857.774	63.71
858.077	62.86
858.38	61.62
858.683	59.88
858.986	61.13
859.289	61.51
859.592	60.77
859.894	59.43
860.197	59.68
860.5	59.42
860.802	60.23
861.105	59.46
861.407	60.14
861.71	61.18
862.012	63.31
862.315	63.75
862.617	62.48
862.919	60.75
863.222	60.79
863.524	61.97
863.826	64.75
864.128	64.15
864.43	64.08
864.732	66.07
865.034	64.92
865.336	63.92
865.638	64.76
865.94	65.31
866.242	66.83
866.544	66.03
866.846	66.5
867.147	65.12
867.449	64.44
867.751	64.61
868.052	62.91
868.354	60.66
868.655	61.34
868.957	61.92
869.258	66.26
869.56	69.05
869.861	69.77
870.162	70.01
870.463	68.75
870.765	70.44
871.066	68.93
871.367	71.52
871.668	71.38
871.969	71
872.27	71.54
872.571	69.19
872.872	68.99
873.173	64.78
873.473	65.81
873.774	65.81
874.075	66.86
874.376	69.13
874.676	68.18
874.977	65.57
875.277	65.12
875.578	63.17
875.878	59.53
876.179	61.51
876.479	59.92
876.78	58.77
877.08	58.19
877.38	57.35
877.68	56.25
877.981	56.86
878.281	56.79
878.581	52.75
