Data from BA28524_Reflection_00003.txt Node
Date: Tue Nov 19 11:49:37 EST 2019
User: vgr7
Spectrometer: USB2G7710
Scans to average: 3
Trigger mode: 4
Integration Time (sec): 2.000000E-2
Electric dark correction enabled: true
Boxcar width: 10
XAxis mode: Wavelengths
Number of Pixels in Spectrum: 2048
>>>>>Begin Spectral Data<<<<<
177.721	1.41
178.105	-66.67
178.488	-2.04
178.871	-1600
179.254	-300
179.636	1528.57
180.019	83.47
180.402	158.82
180.785	-76
181.168	152.63
181.55	29.58
181.933	86.01
182.316	47.87
182.698	5.51
183.081	22.78
183.463	54.2
183.846	29.94
184.228	168.49
184.611	-53.85
184.993	-344.44
185.376	-289.83
185.758	-1718.18
186.14	-3900
186.522	-6233.33
186.904	4100
187.287	477.36
187.669	376.19
188.051	241.1
188.433	295.49
188.815	182.13
189.197	414.05
189.579	456.44
189.961	263.74
190.342	155.79
190.724	163.35
191.106	117.8
191.488	193.9
191.869	186.42
192.251	282.39
192.633	210.55
193.014	134.48
193.396	104.98
193.777	215.7
194.159	156.5
194.54	220.57
194.922	95.52
195.303	60
195.684	-40.5
196.065	-59.66
196.447	-272.09
196.828	-225.58
197.209	-108.63
197.59	-86.99
197.971	-96.72
198.352	-17.12
198.733	-68.83
199.114	-83.67
199.495	-53.85
199.876	-222.03
200.257	-153.52
200.638	-566.67
201.018	1452.94
201.399	-69.01
201.78	-34.97
202.16	-44.83
202.541	1.55
202.922	-62.79
203.302	26.83
203.683	633.33
204.063	-366.67
204.444	31.03
204.824	38.46
205.204	23.08
205.585	-9.29
205.965	-14.75
206.345	-58.73
206.725	-19.82
207.106	-10.27
207.486	3.03
207.866	48.5
208.246	61.13
208.626	63.1
209.006	74.73
209.386	46.86
209.766	42.86
210.145	11.88
210.525	-35.48
210.905	-19.6
211.285	7.36
211.664	3.61
212.044	3.8
212.424	20.11
212.803	15.36
213.183	23.94
213.562	41.54
213.942	27.58
214.321	43.06
214.701	12.13
215.08	75.46
215.459	74.73
215.838	68.13
216.218	33.58
216.597	5.31
216.976	-11.11
217.355	-5.96
217.734	-21.81
218.113	-29.34
218.492	-31.15
218.871	-1.27
219.25	-21.54
219.629	-22.62
220.008	-3.38
220.387	2.7
220.766	-1.53
221.144	-1
221.523	-4.08
221.902	11.21
222.28	14.47
222.659	18.59
223.037	10.15
223.416	3.73
223.794	2.62
224.173	1.37
224.551	11.34
224.929	15.18
225.308	14.26
225.686	8.51
226.064	7.26
226.442	8.83
226.821	7.12
227.199	10.52
227.577	11.12
227.955	9.53
228.333	5.75
228.711	4.38
229.089	1.54
229.467	-0.11
229.845	-2.9
230.222	-1.53
230.6	-2.69
230.978	-0.29
231.356	-2.63
231.733	-2.41
232.111	-0.73
232.488	-2.53
232.866	-0.81
233.243	-2.51
233.621	0.21
233.998	2.17
234.376	2.74
234.753	2.09
235.13	1.4
235.508	3.56
235.885	3.76
236.262	4.23
236.639	5.75
237.016	7.59
237.393	8.85
237.77	8.05
238.147	7.38
238.524	7.3
238.901	6.02
239.278	5.79
239.655	5.65
240.032	4.86
240.409	4.8
240.785	3.98
241.162	4.55
241.539	4.64
241.915	4.99
242.292	5.09
242.668	5.43
243.045	5.45
243.421	5.63
243.798	5.46
244.174	5.25
244.551	5.01
244.927	4.95
245.303	4.65
245.679	4.85
246.056	4.77
246.432	4.49
246.808	4.71
247.184	4.95
247.56	4.71
247.936	5.18
248.312	5.46
248.688	5.56
249.064	5.42
249.44	5.39
249.815	5.43
250.191	5.35
250.567	5.02
250.943	4.89
251.318	4.59
251.694	4.45
252.069	4.42
252.445	4.31
252.82	4.28
253.196	4.34
253.571	4.34
253.947	4.45
254.322	4.95
254.697	4.84
255.073	5.08
255.448	5.41
255.823	5.03
256.198	5
256.573	5.16
256.948	5.23
257.323	5.19
257.698	5.14
258.073	4.95
258.448	5.18
258.823	5.22
259.198	5.34
259.573	5.14
259.948	5.17
260.322	5.31
260.697	5.2
261.072	5.21
261.446	5.16
261.821	5.12
262.195	4.96
262.57	4.93
262.944	4.72
263.319	4.7
263.693	4.64
264.067	4.55
264.442	4.3
264.816	4.32
265.19	4.38
265.564	4.35
265.938	4.49
266.313	4.22
266.687	4.09
267.061	3.84
267.435	4.16
267.809	4.07
268.183	3.94
268.556	3.85
268.93	3.92
269.304	3.79
269.678	4.1
270.051	4.07
270.425	4.01
270.799	3.84
271.172	3.85
271.546	3.81
271.919	3.77
272.293	3.85
272.666	3.74
273.04	3.77
273.413	3.6
273.787	3.53
274.16	3.61
274.533	3.82
274.906	3.86
275.279	3.82
275.653	4.04
276.026	4.23
276.399	4.42
276.772	4.58
277.145	4.78
277.518	4.4
277.891	4.5
278.263	4.72
278.636	4.91
279.009	4.81
279.382	4.92
279.755	5.04
280.127	5.03
280.5	5.12
280.872	5.06
281.245	4.99
281.617	5.06
281.99	5.09
282.362	4.96
282.735	5.01
283.107	5.08
283.479	4.96
283.852	4.91
284.224	4.81
284.596	4.53
284.968	4.54
285.34	4.61
285.713	4.57
286.085	4.45
286.457	4.41
286.829	4.5
287.201	4.53
287.572	4.5
287.944	4.76
288.316	4.75
288.688	4.79
289.06	4.79
289.431	4.92
289.803	4.98
290.175	4.94
290.546	4.92
290.918	4.87
291.289	4.94
291.661	4.79
292.032	4.65
292.403	4.67
292.775	4.63
293.146	4.66
293.517	4.6
293.889	4.6
294.26	4.68
294.631	4.55
295.002	4.56
295.373	4.48
295.744	4.24
296.115	4.18
296.486	4.1
296.857	4.19
297.228	4.04
297.599	3.98
297.97	4.11
298.34	4.19
298.711	4.07
299.082	4.09
299.452	4.07
299.823	4.26
300.194	4.37
300.564	4.2
300.935	4.25
301.305	4.15
301.676	4.05
302.046	3.97
302.416	4.06
302.787	3.9
303.157	3.92
303.527	3.98
303.897	3.97
304.267	3.96
304.637	3.86
305.008	3.94
305.378	3.95
305.748	3.92
306.117	3.71
306.487	3.87
306.857	3.91
307.227	4.05
307.597	3.91
307.967	3.86
308.336	3.98
308.706	3.95
309.076	4.08
309.445	4.22
309.815	4.19
310.184	4.09
310.554	4.24
310.923	4.05
311.293	4.06
311.662	4.25
312.031	4.35
312.401	4.32
312.77	4.35
313.139	4.23
313.508	4.22
313.877	4.18
314.246	4.04
314.616	3.85
314.985	3.7
315.353	3.74
315.722	3.81
316.091	3.82
316.46	3.78
316.829	3.76
317.198	3.84
317.567	4.07
317.935	4.2
318.304	4.43
318.672	4.59
319.041	4.62
319.41	4.34
319.778	4.13
320.147	4.19
320.515	4.08
320.883	4.14
321.252	4.18
321.62	4.31
321.988	4.27
322.357	4.25
322.725	4.4
323.093	4.25
323.461	4.11
323.829	4.2
324.197	4.16
324.565	4.13
324.933	3.97
325.301	3.68
325.669	3.65
326.037	3.38
326.405	3.42
326.772	3.33
327.14	3.47
327.508	3.61
327.875	3.71
328.243	3.71
328.61	3.74
328.978	3.75
329.346	3.77
329.713	3.98
330.08	4.03
330.448	3.9
330.815	3.95
331.182	3.96
331.55	3.91
331.917	4
332.284	4.06
332.651	4.09
333.018	4.11
333.385	4.14
333.752	4.15
334.119	4.12
334.486	4.09
334.853	4.09
335.22	3.97
335.587	3.93
335.954	3.91
336.32	3.95
336.687	3.9
337.054	3.79
337.42	3.78
337.787	3.8
338.153	3.86
338.52	3.94
338.886	3.95
339.253	3.97
339.619	3.9
339.986	3.85
340.352	3.92
340.718	3.95
341.084	4
341.451	4.05
341.817	4.15
342.183	4.14
342.549	4.1
342.915	4.07
343.281	4
343.647	4.01
344.013	4.04
344.379	4.03
344.745	3.98
345.11	3.84
345.476	3.96
345.842	4.03
346.208	4.09
346.573	3.99
346.939	3.95
347.304	3.95
347.67	3.98
348.035	3.88
348.401	3.87
348.766	3.75
349.132	3.78
349.497	3.77
349.862	3.77
350.228	3.7
350.593	3.83
350.958	3.96
351.323	3.96
351.688	3.91
352.053	3.94
352.418	4.01
352.783	4.05
353.148	3.96
353.513	3.84
353.878	3.71
354.243	3.77
354.608	3.76
354.972	3.72
355.337	3.74
355.702	3.73
356.066	3.77
356.431	3.74
356.795	3.72
357.16	3.64
357.524	3.59
357.889	3.64
358.253	3.56
358.618	3.51
358.982	3.48
359.346	3.49
359.71	3.47
360.075	3.53
360.439	3.52
360.803	3.56
361.167	3.51
361.531	3.68
361.895	3.65
362.259	3.65
362.623	3.72
362.987	3.72
363.351	3.75
363.714	3.77
364.078	3.86
364.442	3.85
364.806	3.87
365.169	3.93
365.533	3.97
365.896	4
366.26	3.95
366.623	3.97
366.987	3.94
367.35	3.97
367.714	3.88
368.077	3.89
368.44	3.9
368.803	3.97
369.167	3.76
369.53	3.78
369.893	3.79
370.256	3.73
370.619	3.71
370.982	3.71
371.345	3.74
371.708	3.71
372.071	3.7
372.434	3.68
372.797	3.73
373.159	3.67
373.522	3.66
373.885	3.73
374.247	3.72
374.61	3.72
374.973	3.7
375.335	3.69
375.698	3.68
376.06	3.63
376.423	3.67
376.785	3.77
377.147	3.8
377.51	3.83
377.872	3.85
378.234	3.9
378.596	3.94
378.958	3.87
379.321	3.86
379.683	3.88
380.045	3.87
380.407	3.87
380.769	3.85
381.13	3.84
381.492	3.86
381.854	3.89
382.216	3.93
382.578	3.93
382.939	3.96
383.301	3.99
383.663	3.97
384.024	3.94
384.386	3.91
384.747	3.89
385.109	3.87
385.47	3.89
385.832	3.87
386.193	3.87
386.554	3.85
386.916	3.85
387.277	3.87
387.638	3.93
387.999	3.91
388.36	3.91
388.721	3.88
389.082	3.88
389.443	3.88
389.804	3.84
390.165	3.85
390.526	3.87
390.887	3.89
391.248	3.94
391.609	3.96
391.969	3.96
392.33	3.96
392.691	3.96
393.051	3.94
393.412	3.92
393.772	3.9
394.133	3.94
394.493	3.9
394.854	3.89
395.214	3.9
395.574	3.88
395.935	3.9
396.295	3.95
396.655	3.9
397.015	3.87
397.376	3.93
397.736	3.9
398.096	3.88
398.456	3.85
398.816	3.78
399.176	3.74
399.535	3.77
399.895	3.8
400.255	3.79
400.615	3.84
400.975	3.86
401.334	3.85
401.694	3.86
402.054	3.9
402.413	3.88
402.773	3.83
403.132	3.81
403.492	3.82
403.851	3.82
404.211	3.84
404.57	3.89
404.929	3.86
405.288	3.88
405.648	3.89
406.007	3.89
406.366	3.92
406.725	3.96
407.084	3.92
407.443	3.91
407.802	3.9
408.161	3.9
408.52	3.89
408.879	3.91
409.238	3.91
409.596	3.9
409.955	3.91
410.314	3.93
410.673	3.95
411.031	3.98
411.39	3.96
411.748	3.97
412.107	3.97
412.465	3.94
412.824	3.92
413.182	3.91
413.54	3.92
413.899	3.92
414.257	3.92
414.615	3.94
414.974	3.95
415.332	3.96
415.69	3.94
416.048	3.93
416.406	3.93
416.764	3.92
417.122	3.9
417.48	3.92
417.838	3.92
418.195	3.9
418.553	3.89
418.911	3.89
419.269	3.87
419.626	3.86
419.984	3.87
420.342	3.88
420.699	3.89
421.057	3.88
421.414	3.89
421.772	3.89
422.129	3.88
422.486	3.86
422.844	3.85
423.201	3.85
423.558	3.85
423.915	3.85
424.273	3.84
424.63	3.86
424.987	3.86
425.344	3.88
425.701	3.9
426.058	3.92
426.415	3.9
426.772	3.91
427.128	3.91
427.485	3.91
427.842	3.93
428.199	3.91
428.555	3.93
428.912	3.93
429.269	3.93
429.625	3.93
429.982	3.97
430.338	3.98
430.695	3.96
431.051	3.96
431.407	3.97
431.764	3.97
432.12	3.97
432.476	3.96
432.832	3.94
433.189	3.94
433.545	3.94
433.901	3.96
434.257	3.95
434.613	3.95
434.969	3.94
435.325	3.92
435.681	3.94
436.036	3.92
436.392	3.91
436.748	3.92
437.104	3.93
437.459	3.91
437.815	3.89
438.171	3.92
438.526	3.94
438.882	3.94
439.237	3.94
439.593	3.94
439.948	3.93
440.304	3.92
440.659	3.93
441.014	3.92
441.369	3.91
441.725	3.92
442.08	3.91
442.435	3.93
442.79	3.93
443.145	3.94
443.5	3.94
443.855	3.94
444.21	3.94
444.565	3.94
444.92	3.95
445.275	3.98
445.629	3.98
445.984	3.95
446.339	3.96
446.693	3.97
447.048	3.95
447.403	3.96
447.757	3.95
448.112	3.95
448.466	3.95
448.82	3.97
449.175	3.96
449.529	3.96
449.883	3.96
450.238	3.96
450.592	3.94
450.946	3.96
451.3	3.97
451.654	3.95
452.008	3.92
452.362	3.93
452.716	3.92
453.07	3.91
453.424	3.9
453.778	3.88
454.132	3.87
454.486	3.88
454.839	3.88
455.193	3.9
455.547	3.89
455.9	3.91
456.254	3.89
456.607	3.89
456.961	3.89
457.314	3.89
457.668	3.91
458.021	3.93
458.375	3.94
458.728	3.93
459.081	3.95
459.434	3.96
459.787	3.96
460.141	3.96
460.494	3.97
460.847	3.99
461.2	4.02
461.553	4.01
461.906	4.03
462.259	4.03
462.611	4.02
462.964	4.03
463.317	4.02
463.67	4.04
464.022	4.04
464.375	4.04
464.728	4.01
465.08	4.02
465.433	3.98
465.785	3.98
466.138	4
466.49	4.01
466.843	4.03
467.195	4.04
467.547	4.04
467.899	4.02
468.252	4.04
468.604	4.03
468.956	4.03
469.308	4
469.66	4.02
470.012	4.04
470.364	4.03
470.716	4.02
471.068	4.04
471.42	4.03
471.772	4.04
472.123	4.04
472.475	4.01
472.827	4.03
473.178	4.02
473.53	4.01
473.882	3.99
474.233	3.97
474.585	3.98
474.936	3.99
475.288	3.97
475.639	3.96
475.99	3.96
476.342	3.99
476.693	4.01
477.044	3.97
477.395	3.97
477.746	3.97
478.097	3.98
478.448	3.98
478.8	4.02
479.15	4.03
479.501	4.05
479.852	4.04
480.203	4.06
480.554	4.07
480.905	4.07
481.255	4.07
481.606	4.09
481.957	4.09
482.307	4.1
482.658	4.12
483.009	4.13
483.359	4.13
483.709	4.12
484.06	4.12
484.41	4.13
484.761	4.14
485.111	4.14
485.461	4.14
485.811	4.13
486.162	4.12
486.512	4.13
486.862	4.13
487.212	4.14
487.562	4.12
487.912	4.12
488.262	4.13
488.612	4.14
488.961	4.13
489.311	4.12
489.661	4.12
490.011	4.11
490.36	4.11
490.71	4.1
491.06	4.11
491.409	4.11
491.759	4.12
492.108	4.11
492.458	4.11
492.807	4.12
493.157	4.12
493.506	4.13
493.855	4.12
494.204	4.13
494.554	4.11
494.903	4.13
495.252	4.15
495.601	4.16
495.95	4.17
496.299	4.19
496.648	4.18
496.997	4.19
497.346	4.21
497.695	4.21
498.043	4.24
498.392	4.23
498.741	4.23
499.09	4.21
499.438	4.23
499.787	4.22
500.135	4.22
500.484	4.22
500.832	4.21
501.181	4.2
501.529	4.22
501.878	4.23
502.226	4.25
502.574	4.22
502.923	4.2
503.271	4.14
503.619	4.14
503.967	4.14
504.315	4.14
504.663	4.12
505.011	4.12
505.359	4.08
505.707	4.09
506.055	4.08
506.403	4.09
506.751	4.08
507.098	4.09
507.446	4.11
507.794	4.12
508.141	4.13
508.489	4.15
508.837	4.12
509.184	4.13
509.531	4.12
509.879	4.15
510.226	4.16
510.574	4.23
510.921	4.22
511.268	4.21
511.616	4.18
511.963	4.19
512.31	4.19
512.657	4.21
513.004	4.2
513.351	4.18
513.698	4.2
514.045	4.2
514.392	4.2
514.739	4.19
515.086	4.18
515.432	4.18
515.779	4.19
516.126	4.21
516.473	4.19
516.819	4.18
517.166	4.18
517.512	4.19
517.859	4.17
518.205	4.18
518.552	4.19
518.898	4.2
519.245	4.22
519.591	4.23
519.937	4.23
520.283	4.25
520.629	4.28
520.976	4.26
521.322	4.27
521.668	4.25
522.014	4.27
522.36	4.27
522.706	4.27
523.052	4.28
523.398	4.28
523.743	4.3
524.089	4.32
524.435	4.31
524.781	4.29
525.126	4.3
525.472	4.31
525.817	4.31
526.163	4.31
526.509	4.3
526.854	4.31
527.199	4.32
527.545	4.33
527.89	4.32
528.235	4.33
528.581	4.32
528.926	4.34
529.271	4.34
529.616	4.34
529.961	4.34
530.306	4.32
530.651	4.32
530.996	4.31
531.341	4.32
531.686	4.32
532.031	4.32
532.376	4.33
532.721	4.33
533.065	4.33
533.41	4.34
533.755	4.34
534.099	4.33
534.444	4.33
534.788	4.31
535.133	4.32
535.477	4.31
535.822	4.32
536.166	4.3
536.51	4.29
536.855	4.3
537.199	4.31
537.543	4.33
537.887	4.34
538.231	4.34
538.576	4.32
538.92	4.34
539.264	4.36
539.608	4.37
539.951	4.34
540.295	4.34
540.639	4.34
540.983	4.35
541.327	4.36
541.671	4.34
542.014	4.36
542.358	4.36
542.701	4.38
543.045	4.37
543.389	4.4
543.732	4.41
544.075	4.4
544.419	4.4
544.762	4.38
545.105	4.39
545.449	4.42
545.792	4.41
546.135	4.4
546.478	4.39
546.821	4.4
547.165	4.45
547.508	4.48
547.851	4.48
548.194	4.47
548.536	4.46
548.879	4.49
549.222	4.46
549.565	4.46
549.908	4.47
550.25	4.49
550.593	4.46
550.936	4.45
551.278	4.46
551.621	4.49
551.963	4.5
552.306	4.47
552.648	4.47
552.991	4.5
553.333	4.5
553.675	4.5
554.017	4.49
554.36	4.48
554.702	4.43
555.044	4.44
555.386	4.44
555.728	4.46
556.07	4.44
556.412	4.47
556.754	4.47
557.096	4.45
557.438	4.46
557.78	4.48
558.121	4.52
558.463	4.57
558.805	4.55
559.147	4.56
559.488	4.58
559.83	4.56
560.171	4.59
560.513	4.63
560.854	4.64
561.196	4.64
561.537	4.63
561.878	4.65
562.22	4.64
562.561	4.67
562.902	4.66
563.243	4.68
563.584	4.69
563.925	4.69
564.266	4.68
564.607	4.67
564.948	4.65
565.289	4.64
565.63	4.59
565.971	4.59
566.312	4.56
566.653	4.55
566.993	4.58
567.334	4.57
567.675	4.52
568.015	4.5
568.356	4.47
568.696	4.47
569.037	4.49
569.377	4.52
569.718	4.52
570.058	4.52
570.398	4.52
570.739	4.5
571.079	4.51
571.419	4.54
571.759	4.55
572.099	4.54
572.439	4.54
572.779	4.55
573.119	4.54
573.459	4.58
573.799	4.57
574.139	4.55
574.479	4.56
574.819	4.58
575.158	4.6
575.498	4.63
575.838	4.66
576.177	4.63
576.517	4.63
576.856	4.62
577.196	4.65
577.535	4.63
577.875	4.65
578.214	4.65
578.553	4.64
578.893	4.64
579.232	4.66
579.571	4.7
579.91	4.66
580.25	4.7
580.589	4.65
580.928	4.65
581.267	4.63
581.606	4.65
581.945	4.65
582.283	4.65
582.622	4.64
582.961	4.64
583.3	4.65
583.639	4.63
583.977	4.62
584.316	4.58
584.654	4.58
584.993	4.57
585.332	4.55
585.67	4.55
586.008	4.55
586.347	4.55
586.685	4.48
587.024	4.55
587.362	4.53
587.7	4.58
588.038	4.63
588.376	4.65
588.715	4.65
589.053	4.65
589.391	4.6
589.729	4.58
590.067	4.57
590.404	4.55
590.742	4.59
591.08	4.59
591.418	4.59
591.756	4.58
592.093	4.61
592.431	4.63
592.769	4.61
593.106	4.62
593.444	4.6
593.781	4.62
594.119	4.62
594.456	4.61
594.793	4.61
595.131	4.58
595.468	4.59
595.805	4.57
596.143	4.62
596.48	4.64
596.817	4.66
597.154	4.67
597.491	4.7
597.828	4.7
598.165	4.68
598.502	4.69
598.839	4.71
599.176	4.7
599.512	4.72
599.849	4.73
600.186	4.72
600.523	4.75
600.859	4.77
601.196	4.77
601.532	4.8
601.869	4.75
602.205	4.74
602.542	4.76
602.878	4.77
603.215	4.74
603.551	4.74
603.887	4.75
604.223	4.74
604.56	4.75
604.896	4.76
605.232	4.79
605.568	4.77
605.904	4.76
606.24	4.76
606.576	4.79
606.912	4.79
607.248	4.85
607.583	4.85
607.919	4.81
608.255	4.84
608.591	4.81
608.926	4.84
609.262	4.83
609.597	4.81
609.933	4.8
610.268	4.8
610.604	4.8
610.939	4.81
611.275	4.81
611.61	4.77
611.945	4.75
612.281	4.74
612.616	4.75
612.951	4.78
613.286	4.78
613.621	4.7
613.956	4.7
614.291	4.58
614.626	4.55
614.961	4.6
615.296	4.59
615.631	4.62
615.966	4.65
616.3	4.67
616.635	4.7
616.97	4.66
617.304	4.59
617.639	4.67
617.973	4.67
618.308	4.68
618.642	4.71
618.977	4.72
619.311	4.71
619.646	4.72
619.98	4.69
620.314	4.73
620.648	4.79
620.983	4.82
621.317	4.89
621.651	4.89
621.985	4.85
622.319	4.85
622.653	4.81
622.987	4.77
623.321	4.8
623.655	4.81
623.988	4.85
624.322	4.91
624.656	4.84
624.99	4.81
625.323	4.8
625.657	4.82
625.99	4.88
626.324	4.83
626.657	4.85
626.991	4.88
627.324	4.86
627.658	4.85
627.991	4.87
628.324	4.83
628.657	4.86
628.991	4.85
629.324	4.81
629.657	4.8
629.99	4.81
630.323	4.79
630.656	4.81
630.989	4.85
631.322	4.8
631.655	4.84
631.987	4.85
632.32	4.84
632.653	4.78
632.986	4.72
633.318	4.82
633.651	4.85
633.984	4.86
634.316	4.85
634.649	4.83
634.981	4.81
635.313	4.86
635.646	4.87
635.978	4.96
636.31	4.94
636.643	5
636.975	5.04
637.307	5.02
637.639	4.93
637.971	4.87
638.303	4.93
638.635	4.93
638.967	4.94
639.299	5
639.631	5.01
639.963	5.04
640.295	5.03
640.626	4.94
640.958	4.94
641.29	4.96
641.621	5.03
641.953	5
642.285	5
642.616	4.99
642.948	4.94
643.279	5
643.61	4.99
643.942	5
644.273	5.06
644.604	5.08
644.936	5.15
645.267	5.13
645.598	5.15
645.929	5.09
646.26	5.03
646.591	5.06
646.922	5.1
647.253	5.04
647.584	5.07
647.915	5.11
648.245	5.09
648.576	5.05
648.907	5.12
649.238	5.1
649.568	5.08
649.899	5.08
650.229	5.1
650.56	5.12
650.89	5.04
651.221	5.04
651.551	5.08
651.882	5.04
652.212	5.04
652.542	5.03
652.872	5.08
653.203	5.08
653.533	5.12
653.863	5.08
654.193	5.07
654.523	5.02
654.853	4.99
655.183	5
655.513	5.02
655.843	4.98
656.172	5.02
656.502	5.01
656.832	5.02
657.162	4.98
657.491	4.97
657.821	5
658.15	5
658.48	5.04
658.809	5.09
659.139	5.14
659.468	5.12
659.798	5.16
660.127	5.19
660.456	5.17
660.785	5.17
661.115	5.2
661.444	5.31
661.773	5.34
662.102	5.3
662.431	5.37
662.76	5.33
663.089	5.31
663.418	5.33
663.747	5.38
664.076	5.38
664.404	5.41
664.733	5.4
665.062	5.5
665.39	5.54
665.719	5.56
666.048	5.57
666.376	5.59
666.705	5.52
667.033	5.55
667.362	5.61
667.69	5.63
668.018	5.67
668.347	5.62
668.675	5.59
669.003	5.64
669.331	5.58
669.659	5.59
669.987	5.65
670.315	5.62
670.643	5.62
670.971	5.68
671.299	5.68
671.627	5.7
671.955	5.58
672.283	5.48
672.61	5.41
672.938	5.43
673.266	5.45
673.593	5.45
673.921	5.47
674.249	5.41
674.576	5.32
674.904	5.22
675.231	5.21
675.558	5.31
675.886	5.29
676.213	5.28
676.54	5.37
676.867	5.32
677.195	5.42
677.522	5.32
677.849	5.28
678.176	5.23
678.503	5.26
678.83	5.28
679.157	5.24
679.484	5.22
679.81	5.12
680.137	5.15
680.464	5.18
680.791	5.16
681.117	5.14
681.444	5.2
681.771	5.29
682.097	5.33
682.424	5.26
682.75	5.35
683.077	5.33
683.403	5.26
683.729	5.3
684.056	5.24
684.382	5.22
684.708	5.3
685.034	5.29
685.36	5.17
685.686	5.28
686.012	5.28
686.339	5.32
686.664	5.39
686.99	5.36
687.316	5.4
687.642	5.32
687.968	5.43
688.294	5.48
688.619	5.58
688.945	5.55
689.271	5.48
689.596	5.38
689.922	5.38
690.247	5.38
690.573	5.4
690.898	5.45
691.224	5.59
691.549	5.57
691.874	5.61
692.2	5.7
692.525	5.53
692.85	5.7
693.175	5.72
693.5	5.72
693.825	5.82
694.15	5.79
694.475	5.81
694.8	5.66
695.125	5.63
695.45	5.51
695.775	5.48
696.099	5.59
696.424	5.73
696.749	5.81
697.073	5.83
697.398	5.82
697.723	5.83
698.047	5.81
698.372	5.83
698.696	5.81
699.02	5.8
699.345	5.91
699.669	5.84
699.993	5.82
700.318	5.84
700.642	5.78
700.966	5.7
701.29	5.76
701.614	5.85
701.938	5.78
702.262	5.74
702.586	5.93
702.91	5.87
703.234	5.69
703.557	5.64
703.881	5.77
704.205	5.81
704.529	5.7
704.852	5.72
705.176	5.78
705.499	5.91
705.823	5.95
706.146	5.91
706.47	5.93
706.793	6.02
707.117	5.95
707.44	5.93
707.763	6.16
708.086	6.01
708.409	6.03
708.733	5.97
709.056	6.12
709.379	5.97
709.702	6.02
710.025	6.32
710.348	6.37
710.671	6.26
710.993	6.12
711.316	6.24
711.639	6.28
711.962	6.1
712.284	6.01
712.607	5.98
712.93	5.95
713.252	6
713.575	6.02
713.897	5.97
714.22	5.98
714.542	5.94
714.864	6.09
715.187	5.94
715.509	6.12
715.831	6.07
716.153	6.12
716.475	6.14
716.798	5.87
717.12	5.75
717.442	5.72
717.764	5.83
718.085	5.87
718.407	5.85
718.729	5.84
719.051	5.95
719.373	5.97
719.695	6.17
720.016	6.09
720.338	6.15
720.659	6.26
720.981	6.21
721.302	6.16
721.624	6.21
721.945	6.27
722.267	6.28
722.588	6.3
722.909	6.19
723.231	6.18
723.552	6.21
723.873	6.17
724.194	6.22
724.515	6.12
724.836	6
725.157	5.96
725.478	6.1
725.799	5.99
726.12	5.99
726.441	5.79
726.762	5.91
727.083	5.71
727.403	5.67
727.724	6.07
728.045	6.07
728.365	6.17
728.686	6.17
729.006	6.13
729.327	6.12
729.647	6.33
729.967	6.33
730.288	6.32
730.608	6.52
730.928	6.6
731.249	6.72
731.569	6.64
731.889	6.61
732.209	6.52
732.529	6.47
732.849	6.53
733.169	6.46
733.489	6.26
733.809	6.49
734.129	6.46
734.448	6.2
734.768	6.17
735.088	5.98
735.408	6.23
735.727	6.41
736.047	6.47
736.366	6.34
736.686	6.3
737.005	6.49
737.325	6.37
737.644	6.17
737.963	6.07
738.283	6.07
738.602	6.29
738.921	6.38
739.24	6.37
739.56	6.34
739.879	6.46
740.198	6.53
740.517	6.45
740.836	6.59
741.155	6.55
741.473	6.67
741.792	6.79
742.111	6.73
742.43	6.81
742.748	6.65
743.067	6.61
743.386	6.52
743.704	6.29
744.023	6.39
744.341	6.55
744.66	6.53
744.978	6.69
745.297	6.4
745.615	6.5
745.933	6.71
746.252	6.77
746.57	6.86
746.888	6.99
747.206	6.95
747.524	6.9
747.842	6.85
748.16	6.81
748.478	6.89
748.796	6.91
749.114	6.47
749.432	6.54
749.749	6.46
750.067	6.69
750.385	6.82
750.703	6.72
751.02	6.69
751.338	6.57
751.655	6.33
751.973	6.48
752.29	6.38
752.608	6.22
752.925	6.07
753.242	6.05
753.56	5.86
753.877	5.9
754.194	6.13
754.511	6
754.828	5.93
755.145	5.45
755.462	5.23
755.779	5.24
756.096	5.32
756.413	5.46
756.73	5.43
757.047	5.38
757.364	5.57
757.68	5.63
757.997	6
758.314	6.48
758.63	6.42
758.947	6.65
759.264	6.89
759.58	7.03
759.896	7.3
760.213	7.38
760.529	7.53
760.846	7.54
761.162	7.7
761.478	7.8
761.794	8.24
762.11	8.38
762.426	8.38
762.743	8.38
763.059	8.63
763.375	8.67
763.69	8.75
764.006	8.62
764.322	8.63
764.638	8.66
764.954	8.57
765.27	8.61
765.585	8.4
765.901	8.51
766.216	8.59
766.532	8.13
766.848	8.18
767.163	8.15
767.478	7.72
767.794	7.61
768.109	7.82
768.424	7.7
768.74	7.47
769.055	7.68
769.37	7.63
769.685	7.14
770	7.15
770.315	7.3
770.63	7.35
770.945	7.27
771.26	7.19
771.575	7.26
771.89	7.17
772.205	7.28
772.52	7.21
772.834	7.21
773.149	7.76
773.464	7.91
773.778	7.82
774.093	8.28
774.407	8.59
774.722	8.28
775.036	8.21
775.351	8.65
775.665	8.39
775.979	8.12
776.293	8.17
776.608	7.97
776.922	7.68
777.236	7.75
777.55	7.72
777.864	7.53
778.178	7.44
778.492	7.39
778.806	7.6
779.12	7.46
779.434	7.15
779.747	7.32
780.061	7.01
780.375	6.87
780.689	6.72
781.002	6.72
781.316	6.68
781.629	6.62
781.943	6.52
782.256	6.56
782.57	6.96
782.883	7.46
783.196	7.63
783.51	8.03
783.823	7.92
784.136	7.59
784.449	7.81
784.762	7.85
785.075	7.95
785.388	8.12
785.701	8.03
786.014	7.99
786.327	7.71
786.64	8.28
786.953	8.01
787.266	8.08
787.578	8.23
787.891	8.58
788.204	9.16
788.516	9.75
788.829	9.86
789.141	9.44
789.454	9.4
789.766	9.47
790.079	9.29
790.391	9.39
790.703	9.83
791.016	9.62
791.328	9.71
791.64	9.82
791.952	9.3
792.264	8.94
792.576	9.49
792.888	9.68
793.2	9.05
793.512	9.69
793.824	9.81
794.136	9.69
794.448	9.44
794.76	9.26
795.071	8.57
795.383	8.56
795.695	8.89
796.006	8.57
796.318	8.5
796.629	8.25
796.941	8.09
797.252	7.7
797.564	7.67
797.875	7.13
798.186	7.61
798.497	7.75
798.809	8.3
799.12	8.36
799.431	7.96
799.742	8.42
800.053	7.8
800.364	8.19
800.675	8.51
800.986	8.47
801.297	7.96
801.608	7.98
801.918	8.17
802.229	8.33
802.54	8.38
802.851	8.8
803.161	8.7
803.472	9.07
803.782	9.88
804.093	10.37
804.403	11.44
804.714	11.42
805.024	11.79
805.334	11.51
805.645	11.04
805.955	11.19
806.265	11.12
806.575	11.77
806.885	11.19
807.195	11.19
807.505	11.38
807.815	11.25
808.125	11.79
808.435	11.33
808.745	11.4
809.055	11.61
809.365	11.43
809.674	11.39
809.984	11.12
810.294	10.96
810.603	11.06
810.913	10.61
811.222	10.24
811.532	9.81
811.841	9.7
812.151	9.69
812.46	9.64
812.769	9.84
813.079	9.77
813.388	9.61
813.697	8.91
814.006	8.88
814.315	8.8
814.624	8.57
814.933	9.15
815.242	8.79
815.551	8.92
815.86	8.82
816.169	10.12
816.478	10.52
816.786	9.91
817.095	9.25
817.404	9.3
817.712	9.5
818.021	9.87
818.33	9.58
818.638	9.87
818.947	9.88
819.255	9.59
819.563	9.37
819.872	9.52
820.18	9.38
820.488	9.44
820.796	9.62
821.105	9.39
821.413	9.37
821.721	9.51
822.029	9.66
822.337	9.55
822.645	9.22
822.953	9.03
823.26	9.15
823.568	9.16
823.876	9.05
824.184	8.91
824.491	8.81
824.799	8.86
825.107	8.94
825.414	9.07
825.722	9.14
826.029	9.07
826.337	8.99
826.644	9.14
826.951	9.17
827.259	9.27
827.566	9.45
827.873	9.49
828.18	9.38
828.488	9.15
828.795	9.28
829.102	9.36
829.409	9.65
829.716	9.66
830.023	9.6
830.329	9.79
830.636	9.98
830.943	9.64
831.25	10.01
831.557	9.77
831.863	9.47
832.17	9.08
832.476	9.07
832.783	9.35
833.089	9.34
833.396	9
833.702	8.87
834.009	8.8
834.315	8.96
834.621	9.15
834.928	9.16
835.234	8.86
835.54	8.7
835.846	8.77
836.152	8.73
836.458	9.1
836.764	9.46
837.07	9.47
837.376	10.14
837.682	9.58
837.988	9.33
838.293	9.69
838.599	9.97
838.905	10.43
839.211	10.65
839.516	10.66
839.822	10.51
840.127	9.73
840.433	9.49
840.738	8.64
841.044	8.62
841.349	8.34
841.654	7.51
841.959	7.36
842.265	6.44
842.57	6.09
842.875	5.86
843.18	3.82
843.485	3.37
843.79	2.81
844.095	3.99
844.4	5
844.705	4.91
845.01	6.12
845.315	6.85
845.619	7.57
845.924	6.96
846.229	6.55
846.533	7.26
846.838	6.04
847.142	5.79
847.447	4.78
847.751	4.12
848.056	5.74
848.36	6.56
848.664	5.76
848.969	5.76
849.273	6.3
849.577	7.58
849.881	5.9
850.185	4.79
850.489	4.57
850.794	4.94
851.097	4.21
851.401	3.96
851.705	5.1
852.009	3.95
852.313	4.74
852.617	6.38
852.92	9.63
853.224	11.45
853.528	12.59
853.831	13.66
854.135	13.37
854.438	13.08
854.742	13.09
855.045	14.75
855.349	15.4
855.652	13.25
855.955	13.04
856.259	13.51
856.562	14.1
856.865	14.82
857.168	14.22
857.471	15.05
857.774	14.05
858.077	10.01
858.38	11.33
858.683	11.65
858.986	10.95
859.289	7
859.592	5.66
859.894	5.95
860.197	4.49
860.5	7.43
860.802	7.08
861.105	5.97
861.407	5.93
861.71	7.54
862.012	7.94
862.315	8.92
862.617	10.72
862.919	12.18
863.222	11.16
863.524	9.94
863.826	7.36
864.128	7.47
864.43	7.99
864.732	7.21
865.034	7
865.336	9.53
865.638	10.2
865.94	14.61
866.242	16.53
866.544	16.65
866.846	16.24
867.147	18.76
867.449	19.88
867.751	20.12
868.052	18.84
868.354	20.08
868.655	19.9
868.957	20.1
869.258	19.15
869.56	19.95
869.861	19.91
870.162	20.17
870.463	19.7
870.765	22.67
871.066	22.49
871.367	19.3
871.668	18.01
871.969	18.33
872.27	16.18
872.571	14.1
872.872	15.95
873.173	13.27
873.473	10.86
873.774	10.49
874.075	9.78
874.376	6.22
874.676	7.28
874.977	6.87
875.277	7.28
875.578	9.51
875.878	8.66
876.179	9.37
876.479	10.8
876.78	11.19
877.08	8.02
877.38	6.64
877.68	10.93
877.981	8.88
878.281	9.98
878.581	6.88
