Data from BA28302_Reflection_00002.txt Node
Date: Mon Nov 18 15:48:32 EST 2019
User: vgr7
Spectrometer: USB2G7710
Scans to average: 3
Trigger mode: 4
Integration Time (sec): 2.000000E-2
Electric dark correction enabled: true
Boxcar width: 10
XAxis mode: Wavelengths
Number of Pixels in Spectrum: 2048
>>>>>Begin Spectral Data<<<<<
177.721	1019.86
178.105	-372.44
178.488	-459.65
178.871	-140.23
179.254	201.69
179.636	-176.32
180.019	74.9
180.402	93.18
180.785	-349.65
181.168	730.68
181.55	-549.68
181.933	197.02
182.316	122.16
182.698	103.23
183.081	95.57
183.463	143.92
183.846	201.57
184.228	238.09
184.611	191.91
184.993	430.55
185.376	-39328.57
185.758	3486.14
186.14	-6883.61
186.522	731.58
186.904	1122.08
187.287	595.61
187.669	502.62
188.051	425.04
188.433	843.52
188.815	527.62
189.197	1799.12
189.579	-8300
189.961	3252.54
190.342	921.29
190.724	-475.69
191.106	2238.61
191.488	282.58
191.869	248.08
192.251	338.03
192.633	3057.75
193.014	575.92
193.396	380.81
193.777	7134.48
194.159	-2300
194.54	-164.1
194.922	-113.28
195.303	-158.44
195.684	-144.22
196.065	-86.01
196.447	-97.96
196.828	-108.93
197.209	-114.12
197.59	-652.77
197.971	-1762.07
198.352	-123.91
198.733	-393.31
199.114	-182.3
199.495	-133.01
199.876	-112.54
200.257	-153.83
200.638	-153.15
201.018	-185.06
201.399	-240.01
201.78	-236.19
202.16	-256.36
202.541	-292.52
202.922	-1048.61
203.302	-634.69
203.683	-385.08
204.063	-613.39
204.444	-1234.89
204.824	-6229.67
205.204	-1776.06
205.585	-540.29
205.965	-338.39
206.345	-528.12
206.725	-604.19
207.106	7790.14
207.486	1197.07
207.866	927.94
208.246	2405.42
208.626	2848.6
209.006	996.7
209.386	1152.05
209.766	-1819.03
210.145	-765.06
210.525	-431.78
210.905	-208.93
211.285	-202.39
211.664	-180.86
212.044	-169.21
212.424	-104.57
212.803	-89
213.183	-74.41
213.562	-86.78
213.942	-112.11
214.321	-109.32
214.701	-143.11
215.08	-109.24
215.459	-93.29
215.838	-73.33
216.218	-71.68
216.597	-63.48
216.976	-49.41
217.355	-48.42
217.734	-58.29
218.113	-43.61
218.492	-44.29
218.871	-48.73
219.25	-35.96
219.629	-36.48
220.008	-29.95
220.387	-39.32
220.766	-25.65
221.144	-42.57
221.523	-39.74
221.902	-37.03
222.28	-38.81
222.659	-6.99
223.037	-12.09
223.416	-14.47
223.794	-20.28
224.173	-20.05
224.551	-16.71
224.929	-19.3
225.308	-14.34
225.686	-12.82
226.064	-12.19
226.442	-10.87
226.821	-9.66
227.199	-14.23
227.577	-13.14
227.955	-13.29
228.333	-9.5
228.711	-7.99
229.089	-4.63
229.467	-6.51
229.845	-5.25
230.222	-4.11
230.6	-5.44
230.978	-4.27
231.356	-2.94
231.733	-2.32
232.111	-3.97
232.488	-4.12
232.866	-3.62
233.243	-5.32
233.621	-5.7
233.998	-6.48
234.376	-4.45
234.753	-3.89
235.13	-3.58
235.508	-3.62
235.885	-3.96
236.262	-4.53
236.639	-3.6
237.016	-3.01
237.393	-0.52
237.77	0.3
238.147	0.15
238.524	-0.49
238.901	0.1
239.278	0.3
239.655	1.09
240.032	2.45
240.409	2.22
240.785	2.47
241.162	2.53
241.539	2.85
241.915	2.92
242.292	2.3
242.668	1.97
243.045	2.08
243.421	2.05
243.798	2.1
244.174	1.99
244.551	1.83
244.927	1.65
245.303	1.78
245.679	1.92
246.056	1.78
246.432	2.03
246.808	1.9
247.184	1.57
247.56	1.35
247.936	1.14
248.312	1.09
248.688	0.94
249.064	0.92
249.44	0.92
249.815	1.02
250.191	1.22
250.567	1.28
250.943	1.2
251.318	1.34
251.694	1.46
252.069	1.65
252.445	1.6
252.82	1.79
253.196	1.55
253.571	1.48
253.947	1.77
254.322	2
254.697	1.86
255.073	1.83
255.448	1.75
255.823	1.77
256.198	2.14
256.573	2.14
256.948	2.46
257.323	2.49
257.698	2.43
258.073	2.32
258.448	2.33
258.823	2.46
259.198	2.38
259.573	2.35
259.948	2.43
260.322	2.5
260.697	2.48
261.072	2.41
261.446	2.53
261.821	2.54
262.195	2.5
262.57	2.52
262.944	2.68
263.319	2.83
263.693	2.77
264.067	2.72
264.442	2.83
264.816	2.71
265.19	2.5
265.564	2.42
265.938	2.4
266.313	2.49
266.687	2.53
267.061	2.61
267.435	2.63
267.809	2.45
268.183	2.44
268.556	2.43
268.93	2.51
269.304	2.37
269.678	2.34
270.051	2.35
270.425	2.32
270.799	2.31
271.172	2.39
271.546	2.36
271.919	2.29
272.293	2.4
272.666	2.53
273.04	2.65
273.413	2.79
273.787	2.85
274.16	2.82
274.533	2.85
274.906	2.72
275.279	2.69
275.653	2.74
276.026	2.66
276.399	2.72
276.772	2.82
277.145	2.87
277.518	2.75
277.891	2.78
278.263	2.65
278.636	2.79
279.009	2.68
279.382	2.85
279.755	2.83
280.127	2.77
280.5	2.76
280.872	2.78
281.245	2.67
281.617	2.7
281.99	2.86
282.362	2.72
282.735	2.56
283.107	2.56
283.479	2.57
283.852	2.61
284.224	2.49
284.596	2.62
284.968	2.72
285.34	2.84
285.713	2.8
286.085	2.9
286.457	2.98
286.829	2.93
287.201	2.96
287.572	2.98
287.944	2.84
288.316	2.84
288.688	2.83
289.06	2.88
289.431	2.94
289.803	2.81
290.175	2.91
290.546	3.05
290.918	3.06
291.289	3.04
291.661	3.07
292.032	3.07
292.403	2.86
292.775	2.79
293.146	2.64
293.517	2.69
293.889	2.77
294.26	2.59
294.631	2.58
295.002	2.38
295.373	2.35
295.744	2.52
296.115	2.39
296.486	2.28
296.857	2.26
297.228	2.29
297.599	2.28
297.97	2.28
298.34	2.34
298.711	2.42
299.082	2.48
299.452	2.57
299.823	2.72
300.194	2.72
300.564	2.8
300.935	2.93
301.305	2.67
301.676	2.81
302.046	2.85
302.416	2.96
302.787	3
303.157	2.97
303.527	2.94
303.897	3.05
304.267	3.31
304.637	3.45
305.008	3.42
305.378	3.52
305.748	3.58
306.117	3.46
306.487	3.44
306.857	3.42
307.227	3.39
307.597	3.25
307.967	3.2
308.336	3.1
308.706	3.08
309.076	3.21
309.445	2.98
309.815	2.87
310.184	2.82
310.554	2.93
310.923	2.94
311.293	2.83
311.662	2.79
312.031	2.69
312.401	2.57
312.77	2.59
313.139	2.48
313.508	2.39
313.877	2.52
314.246	2.42
314.616	2.45
314.985	2.3
315.353	2.26
315.722	2.4
316.091	2.33
316.46	2.27
316.829	2.3
317.198	2.42
317.567	2.48
317.935	2.46
318.304	2.48
318.672	2.49
319.041	2.61
319.41	2.57
319.778	2.46
320.147	2.49
320.515	2.31
320.883	2.16
321.252	2.18
321.62	2.08
321.988	2.06
322.357	1.91
322.725	2.09
323.093	2.07
323.461	2.06
323.829	2.15
324.197	2.19
324.565	2.24
324.933	2.21
325.301	2.38
325.669	2.42
326.037	2.22
326.405	2.37
326.772	2.44
327.14	2.48
327.508	2.56
327.875	2.42
328.243	2.56
328.61	2.72
328.978	2.73
329.346	2.84
329.713	2.77
330.08	2.86
330.448	2.7
330.815	2.74
331.182	2.59
331.55	2.53
331.917	2.57
332.284	2.56
332.651	2.53
333.018	2.52
333.385	2.48
333.752	2.63
334.119	2.54
334.486	2.4
334.853	2.39
335.22	2.42
335.587	2.62
335.954	2.49
336.32	2.44
336.687	2.46
337.054	2.41
337.42	2.49
337.787	2.45
338.153	2.56
338.52	2.64
338.886	2.7
339.253	2.7
339.619	2.77
339.986	2.67
340.352	2.82
340.718	2.72
341.084	2.69
341.451	2.76
341.817	2.79
342.183	2.78
342.549	2.67
342.915	2.66
343.281	2.59
343.647	2.64
344.013	2.67
344.379	2.61
344.745	2.6
345.11	2.57
345.476	2.51
345.842	2.43
346.208	2.42
346.573	2.43
346.939	2.56
347.304	2.42
347.67	2.43
348.035	2.34
348.401	2.27
348.766	2.32
349.132	2.26
349.497	2.27
349.862	2.39
350.228	2.51
350.593	2.41
350.958	2.39
351.323	2.4
351.688	2.39
352.053	2.5
352.418	2.54
352.783	2.56
353.148	2.6
353.513	2.65
353.878	2.57
354.243	2.61
354.608	2.55
354.972	2.6
355.337	2.69
355.702	2.69
356.066	2.86
356.431	2.79
356.795	2.9
357.16	2.87
357.524	2.85
357.889	2.79
358.253	2.84
358.618	2.9
358.982	2.88
359.346	2.84
359.71	2.79
360.075	2.81
360.439	2.85
360.803	2.84
361.167	2.85
361.531	2.87
361.895	2.85
362.259	2.82
362.623	2.84
362.987	2.81
363.351	2.84
363.714	2.76
364.078	2.75
364.442	2.62
364.806	2.64
365.169	2.58
365.533	2.66
365.896	2.67
366.26	2.69
366.623	2.71
366.987	2.69
367.35	2.69
367.714	2.63
368.077	2.63
368.44	2.69
368.803	2.6
369.167	2.6
369.53	2.61
369.893	2.6
370.256	2.57
370.619	2.56
370.982	2.49
371.345	2.48
371.708	2.55
372.071	2.59
372.434	2.55
372.797	2.63
373.159	2.56
373.522	2.63
373.885	2.62
374.247	2.64
374.61	2.68
374.973	2.67
375.335	2.69
375.698	2.7
376.06	2.67
376.423	2.76
376.785	2.81
377.147	2.84
377.51	2.88
377.872	2.9
378.234	2.91
378.596	2.96
378.958	2.94
379.321	2.93
379.683	2.94
380.045	2.99
380.407	2.96
380.769	3
381.13	2.97
381.492	2.89
381.854	2.89
382.216	2.85
382.578	2.88
382.939	2.86
383.301	2.86
383.663	2.82
384.024	2.8
384.386	2.78
384.747	2.79
385.109	2.77
385.47	2.75
385.832	2.77
386.193	2.79
386.554	2.83
386.916	2.82
387.277	2.85
387.638	2.87
387.999	2.87
388.36	2.85
388.721	2.84
389.082	2.88
389.443	2.85
389.804	2.88
390.165	2.87
390.526	2.9
390.887	2.91
391.248	2.92
391.609	2.92
391.969	2.91
392.33	2.9
392.691	2.92
393.051	2.96
393.412	2.98
393.772	2.95
394.133	2.92
394.493	2.96
394.854	2.94
395.214	2.92
395.574	2.9
395.935	2.92
396.295	2.95
396.655	2.93
397.015	2.94
397.376	2.94
397.736	2.94
398.096	2.95
398.456	2.96
398.816	2.97
399.176	2.98
399.535	2.97
399.895	2.92
400.255	2.92
400.615	2.93
400.975	2.89
401.334	2.88
401.694	2.92
402.054	2.86
402.413	2.86
402.773	2.82
403.132	2.8
403.492	2.79
403.851	2.77
404.211	2.8
404.57	2.81
404.929	2.85
405.288	2.85
405.648	2.84
406.007	2.85
406.366	2.85
406.725	2.89
407.084	2.92
407.443	2.97
407.802	2.98
408.161	2.93
408.52	2.93
408.879	2.95
409.238	2.91
409.596	2.95
409.955	2.96
410.314	2.99
410.673	2.99
411.031	3.01
411.39	3.02
411.748	3.04
412.107	3.06
412.465	3.05
412.824	3.04
413.182	3.01
413.54	3
413.899	3.02
414.257	3
414.615	2.95
414.974	2.95
415.332	2.92
415.69	2.94
416.048	2.96
416.406	2.97
416.764	2.99
417.122	3
417.48	3
417.838	3
418.195	3.03
418.553	3.04
418.911	3
419.269	2.99
419.626	2.99
419.984	2.98
420.342	2.99
420.699	3
421.057	2.99
421.414	2.98
421.772	2.98
422.129	2.99
422.486	2.98
422.844	2.98
423.201	2.99
423.558	2.99
423.915	2.99
424.273	2.99
424.63	2.98
424.987	2.98
425.344	2.98
425.701	2.97
426.058	2.97
426.415	2.99
426.772	2.97
427.128	2.98
427.485	2.97
427.842	2.97
428.199	2.97
428.555	2.97
428.912	2.99
429.269	3.01
429.625	3.01
429.982	3.01
430.338	3.04
430.695	3.05
431.051	3.04
431.407	3.05
431.764	3.05
432.12	3.05
432.476	3.06
432.832	3.04
433.189	3.05
433.545	3.04
433.901	3.03
434.257	3.05
434.613	3.03
434.969	3.05
435.325	3.06
435.681	3.06
436.036	3.05
436.392	3.06
436.748	3.04
437.104	3.05
437.459	3.05
437.815	3.05
438.171	3.03
438.526	3.04
438.882	3.02
439.237	3.02
439.593	3.02
439.948	3.01
440.304	3.02
440.659	3.01
441.014	3.01
441.369	3.01
441.725	3.01
442.08	3.01
442.435	3.01
442.79	3.01
443.145	3.01
443.5	3.02
443.855	3.01
444.21	3.01
444.565	3.02
444.92	3.03
445.275	3.01
445.629	3.03
445.984	3.02
446.339	3.02
446.693	3.01
447.048	3.03
447.403	3.02
447.757	3.02
448.112	3.02
448.466	3.03
448.82	3.04
449.175	3.04
449.529	3.04
449.883	3.04
450.238	3.03
450.592	3.05
450.946	3.06
451.3	3.07
451.654	3.06
452.008	3.05
452.362	3.03
452.716	3.04
453.07	3.03
453.424	3.04
453.778	3.07
454.132	3.07
454.486	3.06
454.839	3.05
455.193	3.06
455.547	3.05
455.9	3.07
456.254	3.06
456.607	3.04
456.961	3.05
457.314	3.02
457.668	3.04
458.021	3.01
458.375	3
458.728	2.99
459.081	3
459.434	2.99
459.787	3
460.141	3
460.494	3
460.847	2.98
461.2	2.97
461.553	2.97
461.906	2.97
462.259	3
462.611	2.99
462.964	3
463.317	2.98
463.67	2.98
464.022	3
464.375	3
464.728	2.99
465.08	3
465.433	3
465.785	2.99
466.138	3
466.49	3
466.843	2.98
467.195	3.01
467.547	3.01
467.899	3.03
468.252	3.03
468.604	3.04
468.956	3.04
469.308	3.04
469.66	2.99
470.012	3
470.364	3
470.716	3.01
471.068	3.01
471.42	2.98
471.772	3.01
472.123	3.04
472.475	3.02
472.827	3.03
473.178	3.05
473.53	3.05
473.882	3.04
474.233	3.07
474.585	3.03
474.936	3.02
475.288	3.02
475.639	3.03
475.99	3.02
476.342	3.04
476.693	3.03
477.044	3.08
477.395	3.07
477.746	3.08
478.097	3.09
478.448	3.1
478.8	3.12
479.15	3.09
479.501	3.08
479.852	3.09
480.203	3.09
480.554	3.09
480.905	3.1
481.255	3.11
481.606	3.11
481.957	3.12
482.307	3.13
482.658	3.13
483.009	3.14
483.359	3.15
483.709	3.14
484.06	3.15
484.41	3.15
484.761	3.15
485.111	3.14
485.461	3.14
485.811	3.14
486.162	3.14
486.512	3.16
486.862	3.16
487.212	3.17
487.562	3.17
487.912	3.18
488.262	3.18
488.612	3.18
488.961	3.19
489.311	3.2
489.661	3.21
490.011	3.2
490.36	3.2
490.71	3.19
491.06	3.2
491.409	3.2
491.759	3.2
492.108	3.2
492.458	3.21
492.807	3.2
493.157	3.21
493.506	3.21
493.855	3.2
494.204	3.2
494.554	3.19
494.903	3.19
495.252	3.18
495.601	3.17
495.95	3.17
496.299	3.16
496.648	3.14
496.997	3.14
497.346	3.15
497.695	3.14
498.043	3.13
498.392	3.12
498.741	3.14
499.09	3.12
499.438	3.11
499.787	3.12
500.135	3.15
500.484	3.14
500.832	3.14
501.181	3.16
501.529	3.15
501.878	3.16
502.226	3.16
502.574	3.16
502.923	3.16
503.271	3.16
503.619	3.17
503.967	3.19
504.315	3.19
504.663	3.16
505.011	3.16
505.359	3.17
505.707	3.18
506.055	3.17
506.403	3.19
506.751	3.22
507.098	3.22
507.446	3.23
507.794	3.22
508.141	3.23
508.489	3.23
508.837	3.23
509.184	3.22
509.531	3.23
509.879	3.26
510.226	3.28
510.574	3.27
510.921	3.26
511.268	3.25
511.616	3.28
511.963	3.31
512.31	3.35
512.657	3.36
513.004	3.35
513.351	3.36
513.698	3.37
514.045	3.36
514.392	3.36
514.739	3.36
515.086	3.38
515.432	3.38
515.779	3.39
516.126	3.41
516.473	3.42
516.819	3.42
517.166	3.4
517.512	3.4
517.859	3.41
518.205	3.41
518.552	3.42
518.898	3.39
519.245	3.38
519.591	3.39
519.937	3.37
520.283	3.39
520.629	3.39
520.976	3.38
521.322	3.37
521.668	3.38
522.014	3.39
522.36	3.39
522.706	3.38
523.052	3.39
523.398	3.41
523.743	3.41
524.089	3.42
524.435	3.42
524.781	3.43
525.126	3.43
525.472	3.45
525.817	3.46
526.163	3.48
526.509	3.48
526.854	3.47
527.199	3.49
527.545	3.48
527.89	3.48
528.235	3.49
528.581	3.51
528.926	3.51
529.271	3.51
529.616	3.5
529.961	3.5
530.306	3.51
530.651	3.5
530.996	3.51
531.341	3.5
531.686	3.5
532.031	3.51
532.376	3.52
532.721	3.52
533.065	3.51
533.41	3.51
533.755	3.52
534.099	3.52
534.444	3.51
534.788	3.53
535.133	3.53
535.477	3.54
535.822	3.51
536.166	3.51
536.51	3.51
536.855	3.53
537.199	3.55
537.543	3.53
537.887	3.52
538.231	3.53
538.576	3.53
538.92	3.54
539.264	3.5
539.608	3.51
539.951	3.52
540.295	3.52
540.639	3.53
540.983	3.53
541.327	3.53
541.671	3.53
542.014	3.54
542.358	3.53
542.701	3.52
543.045	3.55
543.389	3.56
543.732	3.56
544.075	3.56
544.419	3.56
544.762	3.57
545.105	3.57
545.449	3.57
545.792	3.59
546.135	3.62
546.478	3.63
546.821	3.62
547.165	3.61
547.508	3.63
547.851	3.64
548.194	3.64
548.536	3.65
548.879	3.65
549.222	3.62
549.565	3.63
549.908	3.63
550.25	3.64
550.593	3.64
550.936	3.62
551.278	3.62
551.621	3.62
551.963	3.62
552.306	3.64
552.648	3.65
552.991	3.66
553.333	3.63
553.675	3.64
554.017	3.64
554.36	3.63
554.702	3.65
555.044	3.64
555.386	3.66
555.728	3.65
556.07	3.66
556.412	3.68
556.754	3.68
557.096	3.69
557.438	3.68
557.78	3.69
558.121	3.73
558.463	3.73
558.805	3.73
559.147	3.73
559.488	3.71
559.83	3.69
560.171	3.67
560.513	3.71
560.854	3.74
561.196	3.73
561.537	3.77
561.878	3.73
562.22	3.74
562.561	3.71
562.902	3.71
563.243	3.72
563.584	3.74
563.925	3.77
564.266	3.76
564.607	3.76
564.948	3.73
565.289	3.71
565.63	3.72
565.971	3.73
566.312	3.73
566.653	3.75
566.993	3.78
567.334	3.78
567.675	3.76
568.015	3.75
568.356	3.75
568.696	3.74
569.037	3.75
569.377	3.78
569.718	3.8
570.058	3.81
570.398	3.79
570.739	3.79
571.079	3.75
571.419	3.76
571.759	3.8
572.099	3.82
572.439	3.83
572.779	3.82
573.119	3.82
573.459	3.85
573.799	3.84
574.139	3.82
574.479	3.82
574.819	3.83
575.158	3.81
575.498	3.83
575.838	3.8
576.177	3.79
576.517	3.73
576.856	3.75
577.196	3.7
577.535	3.71
577.875	3.73
578.214	3.74
578.553	3.74
578.893	3.67
579.232	3.66
579.571	3.66
579.91	3.68
580.25	3.66
580.589	3.64
580.928	3.63
581.267	3.62
581.606	3.64
581.945	3.63
582.283	3.65
582.622	3.63
582.961	3.65
583.3	3.68
583.639	3.71
583.977	3.67
584.316	3.7
584.654	3.69
584.993	3.7
585.332	3.73
585.67	3.73
586.008	3.76
586.347	3.73
586.685	3.72
587.024	3.72
587.362	3.74
587.7	3.74
588.038	3.74
588.376	3.77
588.715	3.76
589.053	3.8
589.391	3.8
589.729	3.83
590.067	3.8
590.404	3.8
590.742	3.79
591.08	3.81
591.418	3.82
591.756	3.84
592.093	3.82
592.431	3.83
592.769	3.82
593.106	3.85
593.444	3.86
593.781	3.85
594.119	3.89
594.456	3.89
594.793	3.89
595.131	3.89
595.468	3.87
595.805	3.89
596.143	3.86
596.48	3.9
596.817	3.9
597.154	3.91
597.491	3.93
597.828	3.95
598.165	3.95
598.502	3.94
598.839	3.94
599.176	3.97
599.512	3.96
599.849	3.99
600.186	3.94
600.523	3.99
600.859	4.02
601.196	4.01
601.532	4.01
601.869	3.98
602.205	3.98
602.542	4
602.878	4
603.215	4.01
603.551	3.96
603.887	3.94
604.223	3.98
604.56	3.99
604.896	4.01
605.232	4.04
605.568	4.04
605.904	4.04
606.24	4.03
606.576	4.03
606.912	4.03
607.248	4.05
607.583	4.03
607.919	4.01
608.255	3.98
608.591	4.01
608.926	4.04
609.262	4.08
609.597	4.09
609.933	4.08
610.268	4.09
610.604	4.12
610.939	4.1
611.275	4.03
611.61	4.02
611.945	4.01
612.281	3.96
612.616	4
612.951	4.03
613.286	4.02
613.621	4.02
613.956	3.98
614.291	4
614.626	3.99
614.961	3.97
615.296	3.96
615.631	3.93
615.966	3.92
616.3	3.88
616.635	3.88
616.97	3.92
617.304	3.9
617.639	3.9
617.973	3.94
618.308	3.97
618.642	3.96
618.977	3.97
619.311	3.99
619.646	4.02
619.98	4.05
620.314	4.07
620.648	4.08
620.983	4.08
621.317	4.08
621.651	4.07
621.985	4.15
622.319	4.2
622.653	4.25
622.987	4.25
623.321	4.28
623.655	4.29
623.988	4.29
624.322	4.31
624.656	4.28
624.99	4.31
625.323	4.31
625.657	4.37
625.99	4.34
626.324	4.35
626.657	4.32
626.991	4.28
627.324	4.24
627.658	4.25
627.991	4.28
628.324	4.26
628.657	4.28
628.991	4.23
629.324	4.23
629.657	4.23
629.99	4.24
630.323	4.2
630.656	4.2
630.989	4.25
631.322	4.25
631.655	4.27
631.987	4.24
632.32	4.25
632.653	4.21
632.986	4.21
633.318	4.21
633.651	4.18
633.984	4.2
634.316	4.2
634.649	4.19
634.981	4.21
635.313	4.23
635.646	4.21
635.978	4.26
636.31	4.21
636.643	4.15
636.975	4.15
637.307	4.2
637.639	4.18
637.971	4.08
638.303	4.09
638.635	4.07
638.967	4.05
639.299	4.06
639.631	4.06
639.963	4.08
640.295	4.12
640.626	4.12
640.958	4.12
641.29	4.18
641.621	4.14
641.953	4.1
642.285	4.15
642.616	4.24
642.948	4.2
643.279	4.22
643.61	4.26
643.942	4.22
644.273	4.16
644.604	4.14
644.936	4.12
645.267	4.12
645.598	4.13
645.929	4.16
646.26	4.13
646.591	4.14
646.922	4.15
647.253	4.14
647.584	4.16
647.915	4.11
648.245	4.08
648.576	4.13
648.907	4.16
649.238	4.08
649.568	4.04
649.899	4.08
650.229	4.09
650.56	4.09
650.89	4.14
651.221	4.18
651.551	4.16
651.882	4.22
652.212	4.22
652.542	4.28
652.872	4.21
653.203	4.26
653.533	4.25
653.863	4.21
654.193	4.18
654.523	4.18
654.853	4.22
655.183	4.25
655.513	4.29
655.843	4.26
656.172	4.32
656.502	4.27
656.832	4.25
657.162	4.31
657.491	4.3
657.821	4.26
658.15	4.24
658.48	4.28
658.809	4.31
659.139	4.33
659.468	4.23
659.798	4.34
660.127	4.33
660.456	4.39
660.785	4.42
661.115	4.4
661.444	4.48
661.773	4.52
662.102	4.5
662.431	4.54
662.76	4.56
663.089	4.54
663.418	4.55
663.747	4.53
664.076	4.51
664.404	4.44
664.733	4.54
665.062	4.6
665.39	4.55
665.719	4.52
666.048	4.48
666.376	4.55
666.705	4.49
667.033	4.45
667.362	4.36
667.69	4.34
668.018	4.32
668.347	4.3
668.675	4.28
669.003	4.35
669.331	4.35
669.659	4.32
669.987	4.37
670.315	4.42
670.643	4.44
670.971	4.41
671.299	4.49
671.627	4.48
671.955	4.47
672.283	4.54
672.61	4.53
672.938	4.61
673.266	4.62
673.593	4.77
673.921	4.76
674.249	4.79
674.576	4.78
674.904	4.82
675.231	4.81
675.558	4.76
675.886	4.72
676.213	4.6
676.54	4.57
676.867	4.55
677.195	4.55
677.522	4.49
677.849	4.52
678.176	4.54
678.503	4.47
678.83	4.51
679.157	4.53
679.484	4.51
679.81	4.46
680.137	4.39
680.464	4.26
680.791	4.36
681.117	4.37
681.444	4.4
681.771	4.39
682.097	4.32
682.424	4.46
682.75	4.46
683.077	4.54
683.403	4.65
683.729	4.62
684.056	4.59
684.382	4.64
684.708	4.64
685.034	4.63
685.36	4.66
685.686	4.64
686.012	4.53
686.339	4.63
686.664	4.55
686.99	4.67
687.316	4.65
687.642	4.65
687.968	4.58
688.294	4.65
688.619	4.75
688.945	4.79
689.271	4.7
689.596	4.65
689.922	4.73
690.247	4.58
690.573	4.65
690.898	4.73
691.224	4.86
691.549	4.81
691.874	4.81
692.2	4.85
692.525	4.76
692.85	4.93
693.175	4.84
693.5	4.93
693.825	4.99
694.15	5.07
694.475	5.03
694.8	5.14
695.125	5.03
695.45	4.95
695.775	4.96
696.099	5
696.424	5.03
696.749	4.85
697.073	4.96
697.398	4.89
697.723	4.89
698.047	4.82
698.372	4.87
698.696	4.93
699.02	4.96
699.345	4.99
699.669	4.97
699.993	5.05
700.318	5.07
700.642	5
700.966	5.01
701.29	4.97
701.614	4.92
701.938	4.97
702.262	5.08
702.586	5.11
702.91	5.05
703.234	5.09
703.557	5.31
703.881	5.36
704.205	5.37
704.529	5.29
704.852	5.31
705.176	5.36
705.499	5.4
705.823	5.42
706.146	5.49
706.47	5.5
706.793	5.43
707.117	5.42
707.44	5.3
707.763	5.22
708.086	5.28
708.409	5.22
708.733	5.12
709.056	4.91
709.379	5.02
709.702	4.99
710.025	4.9
710.348	4.65
710.671	4.56
710.993	4.68
711.316	4.79
711.639	4.78
711.962	4.78
712.284	4.62
712.607	4.62
712.93	4.66
713.252	4.67
713.575	4.69
713.897	4.59
714.22	4.55
714.542	4.54
714.864	4.47
715.187	4.58
715.509	4.73
715.831	4.81
716.153	4.79
716.475	4.8
716.798	4.88
717.12	4.98
717.442	5.09
717.764	4.92
718.085	4.91
718.407	4.87
718.729	4.82
719.051	4.88
719.373	4.82
719.695	4.79
720.016	4.61
720.338	4.6
720.659	4.75
720.981	4.94
721.302	5.06
721.624	5.11
721.945	5.11
722.267	5.15
722.588	5.08
722.909	5.05
723.231	5.02
723.552	5.04
723.873	5.1
724.194	4.98
724.515	5.23
724.836	5.07
725.157	5.07
725.478	5.08
725.799	5.11
726.12	4.95
726.441	4.9
726.762	5.07
727.083	5.03
727.403	5.01
727.724	5.08
728.045	5.21
728.365	5.19
728.686	5.1
729.006	5.09
729.327	5.18
729.647	5.3
729.967	5.27
730.288	5.47
730.608	5.49
730.928	5.37
731.249	5.3
731.569	5.47
731.889	5.74
732.209	5.88
732.529	5.95
732.849	6.22
733.169	6.2
733.489	6.27
733.809	6.26
734.129	6.3
734.448	6.33
734.768	6.14
735.088	6.18
735.408	6.29
735.727	6.1
736.047	6.15
736.366	5.99
736.686	6.19
737.005	6.02
737.325	5.99
737.644	6.09
737.963	6.08
738.283	6.02
738.602	5.74
738.921	5.38
739.24	5.33
739.56	5.12
739.879	5.19
740.198	5.16
740.517	5.34
740.836	5.44
741.155	5.29
741.473	5.42
741.792	5.41
742.111	5.4
742.43	5.55
742.748	5.59
743.067	5.61
743.386	5.24
743.704	5.11
744.023	5.3
744.341	5.46
744.66	5.59
744.978	5.39
745.297	5.51
745.615	5.72
745.933	5.68
746.252	5.77
746.57	5.79
746.888	5.74
747.206	5.66
747.524	5.53
747.842	5.55
748.16	5.59
748.478	5.72
748.796	5.8
749.114	6.02
749.432	5.88
749.749	6.04
750.067	6.24
750.385	6.25
750.703	6.17
751.02	6.14
751.338	6.17
751.655	6.33
751.973	6.31
752.29	6.3
752.608	6.47
752.925	6.43
753.242	6.33
753.56	6.32
753.877	6.17
754.194	6.25
754.511	6.48
754.828	6.27
755.145	6.19
755.462	6.19
755.779	6.03
756.096	6.11
756.413	5.86
756.73	6.11
757.047	6.14
757.364	6.06
757.68	5.99
757.997	5.66
758.314	5.69
758.63	5.55
758.947	5.67
759.264	5.56
759.58	5.77
759.896	5.9
760.213	5.98
760.529	6.04
760.846	6.16
761.162	5.95
761.478	6.09
761.794	6.06
762.11	5.9
762.426	5.85
762.743	5.94
763.059	6.09
763.375	5.91
763.69	6.01
764.006	6.25
764.322	6.28
764.638	6.52
764.954	6.67
765.27	6.7
765.585	6.7
765.901	6.85
766.216	6.79
766.532	6.69
766.848	6.57
767.163	6.77
767.478	6.71
767.794	6.77
768.109	6.56
768.424	6.59
768.74	6.71
769.055	6.95
769.37	6.77
769.685	6.62
770	6.84
770.315	6.58
770.63	6.32
770.945	6.43
771.26	6.44
771.575	6.32
771.89	6.38
772.205	6.56
772.52	6.28
772.834	6.17
773.149	6.51
773.464	6.64
773.778	6.56
774.093	6.31
774.407	6.31
774.722	6.3
775.036	6.39
775.351	6.32
775.665	6.14
775.979	6.22
776.293	6.06
776.608	5.91
776.922	6.22
777.236	6.22
777.55	5.67
777.864	5.63
778.178	5.84
778.492	6
778.806	5.46
779.12	5.25
779.434	5.19
779.747	4.96
780.061	5.35
780.375	5.15
780.689	5.48
781.002	5.61
781.316	6.08
781.629	6.51
781.943	6.76
782.256	6.51
782.57	6.64
782.883	7.23
783.196	7.09
783.51	6.88
783.823	6.47
784.136	6.98
784.449	7.05
784.762	7.03
785.075	6.86
785.388	7.31
785.701	7.87
786.014	7.96
786.327	8.08
786.64	7.78
786.953	8.11
787.266	8.1
787.578	7.93
787.891	7.73
788.204	7.34
788.516	7.25
788.829	7.19
789.141	7.24
789.454	7.12
789.766	7.5
790.079	7.52
790.391	7.87
790.703	7.79
791.016	7.89
791.328	7.87
791.64	7.99
791.952	8.12
792.264	7.26
792.576	7.23
792.888	6.97
793.2	7.09
793.512	7.03
793.824	6.7
794.136	6.72
794.448	6.96
794.76	6.67
795.071	6.91
795.383	7.03
795.695	6.87
796.006	6.7
796.318	6.57
796.629	6.72
796.941	6.67
797.252	7.01
797.564	6.74
797.875	6.62
798.186	6.23
798.497	6.14
798.809	6.94
799.12	6.99
799.431	6.82
799.742	6.57
800.053	6.65
800.364	7
800.675	7.36
800.986	7.14
801.297	6.89
801.608	6.55
801.918	6.49
802.229	6.48
802.54	6.15
802.851	6.38
803.161	6.62
803.472	6.56
803.782	6.35
804.093	6.72
804.403	6.25
804.714	6.63
805.024	6.18
805.334	5.77
805.645	5.85
805.955	6.48
806.265	6.64
806.575	6.39
806.885	6.21
807.195	6.29
807.505	6.55
807.815	6.92
808.125	6.65
808.435	6.74
808.745	6.92
809.055	7.81
809.365	7.76
809.674	7.05
809.984	7.23
810.294	7.34
810.603	7.56
810.913	8.27
811.222	8.44
811.532	8.89
811.841	9.57
812.151	10.42
812.46	10.09
812.769	9.6
813.079	9.39
813.388	8.76
813.697	8.24
814.006	7.48
814.315	7.75
814.624	7.88
814.933	7.63
815.242	7.49
815.551	7.07
815.86	7.2
816.169	7.46
816.478	7.37
816.786	7.17
817.095	6.99
817.404	7.22
817.712	6.87
818.021	7.01
818.33	6.64
818.638	5.76
818.947	5.97
819.255	6.38
819.563	6.6
819.872	7.31
820.18	7.59
820.488	7.89
820.796	7.71
821.105	7.87
821.413	8.12
821.721	7.99
822.029	7.99
822.337	7.87
822.645	7.97
822.953	7.97
823.26	8.01
823.568	7.85
823.876	7.73
824.184	7.69
824.491	7.61
824.799	7.71
825.107	7.77
825.414	7.82
825.722	7.84
826.029	7.74
826.337	7.66
826.644	7.61
826.951	7.57
827.259	7.62
827.566	7.5
827.873	7.41
828.18	7.47
828.488	7.36
828.795	7.38
829.102	7.21
829.409	7.5
829.716	7.38
830.023	7.7
830.329	7.52
830.636	7.99
830.943	8.15
831.25	8.11
831.557	8.28
831.863	8.35
832.17	8.43
832.476	8.73
832.783	8.87
833.089	8.83
833.396	9.24
833.702	9.61
834.009	9.53
834.315	9.61
834.621	9.87
834.928	9.93
835.234	9.93
835.54	10.02
835.846	9.69
836.152	9.65
836.458	9.69
836.764	9.85
837.07	9.48
837.376	9.29
837.682	9.23
837.988	9.21
838.293	9.43
838.599	9.62
838.905	9.47
839.211	9.5
839.516	10.01
839.822	9.47
840.127	9.38
840.433	9.72
840.738	9.58
841.044	9.1
841.349	9.4
841.654	8.46
841.959	8.29
842.265	7.95
842.57	8.99
842.875	7.56
843.18	8.05
843.485	8.36
843.79	8.97
844.095	8.43
844.4	9.17
844.705	8.06
845.01	7.69
845.315	8.15
845.619	7.77
845.924	7.02
846.229	7.5
846.533	6.49
846.838	5.23
847.142	5.28
847.447	4.41
847.751	3.97
848.056	3.99
848.36	5.58
848.664	5.63
848.969	4.98
849.273	5
849.577	3.73
849.881	3.26
850.185	2.88
850.489	5.1
850.794	3.83
851.097	5.89
851.401	4.9
851.705	4
852.009	5.31
852.313	4.84
852.617	3.59
852.92	4.34
853.224	3.6
853.528	4.48
853.831	6.55
854.135	6.87
854.438	6.09
854.742	4.23
855.045	4.09
855.349	5.18
855.652	6.65
855.955	7.65
856.259	7.75
856.562	7.44
856.865	5.36
857.168	5.06
857.471	3.4
857.774	5.64
858.077	6.43
858.38	4.8
858.683	5.72
858.986	7.15
859.289	7.74
859.592	10.37
859.894	9.69
860.197	9.56
860.5	11.03
860.802	13.12
861.105	14.99
861.407	15.37
861.71	14.94
862.012	12.87
862.315	11.35
862.617	13.14
862.919	15.41
863.222	15.7
863.524	16.64
863.826	18.17
864.128	17.15
864.43	15.59
864.732	15.65
865.034	14.57
865.336	14.53
865.638	13.38
865.94	13.18
866.242	12.05
866.544	10.33
866.846	8.86
867.147	11.25
867.449	9.47
867.751	9.71
868.052	9.53
868.354	10.11
868.655	11.79
868.957	9.2
869.258	6.05
869.56	3.63
869.861	1.95
870.162	1.11
870.463	-0.21
870.765	2.58
871.066	2.09
871.367	2.59
871.668	0.14
871.969	0.04
872.27	-1.15
872.571	-0.62
872.872	1.56
873.173	-0.34
873.473	-1.45
873.774	1.16
874.075	1.57
874.376	-0.49
874.676	1.48
874.977	-1.65
875.277	-0.39
875.578	0.95
875.878	3.3
876.179	4.43
876.479	3.73
876.78	4.52
877.08	2.25
877.38	2.87
877.68	2.89
877.981	5.42
878.281	7.31
878.581	11.25
