Data from BA28304_Reflection_00011.txt Node
Date: Mon Nov 18 15:36:19 EST 2019
User: vgr7
Spectrometer: USB2G7710
Scans to average: 3
Trigger mode: 4
Integration Time (sec): 2.000000E-2
Electric dark correction enabled: true
Boxcar width: 10
XAxis mode: Wavelengths
Number of Pixels in Spectrum: 2048
>>>>>Begin Spectral Data<<<<<
177.721	52.3
178.105	4.18
178.488	-87.41
178.871	-434.65
179.254	-225.51
179.636	-11.85
180.019	-192.84
180.402	122.58
180.785	1115.04
181.168	4600
181.55	-3605.88
181.933	190.5
182.316	129.66
182.698	145.03
183.081	140.84
183.463	3239.53
183.846	-340.27
184.228	-241.07
184.611	1463.64
184.993	745.57
185.376	-376.64
185.758	-45.24
186.14	-46.85
186.522	-178.12
186.904	-594.58
187.287	-724.7
187.669	-184.38
188.051	-357.81
188.433	-244.56
188.815	-100.88
189.197	-99.66
189.579	-68.9
189.961	-88.85
190.342	-104.68
190.724	-84.17
191.106	-88.45
191.488	-87.33
191.869	-79.47
192.251	-83.01
192.633	-69.6
193.014	-77.48
193.396	-124.17
193.777	-111.11
194.159	-150.09
194.54	-108.84
194.922	-96.45
195.303	-90.76
195.684	-89.22
196.065	-59.78
196.447	-61.87
196.828	-76.66
197.209	-69.03
197.59	-81.21
197.971	-74.65
198.352	-40.88
198.733	-61.42
199.114	-45.66
199.495	-41.28
199.876	-46.23
200.257	-6.22
200.638	-8.92
201.018	-19.19
201.399	-9.11
201.78	-20
202.16	-22.27
202.541	-32.5
202.922	-77.74
203.302	-238.52
203.683	-96.11
204.063	111100
204.444	-73.45
204.824	-14.32
205.204	-44.42
205.585	-56.57
205.965	-46.29
206.345	-132.8
206.725	-127.81
207.106	-365.62
207.486	651.57
207.866	-506.94
208.246	-94.47
208.626	-75.35
209.006	-30.43
209.386	-16.55
209.766	2.4
210.145	41.57
210.525	14.37
210.905	18.57
211.285	2.93
211.664	-0.94
212.044	10.46
212.424	4.01
212.803	8.62
213.183	41.41
213.562	51.3
213.942	31.6
214.321	23.91
214.701	52.08
215.08	74.65
215.459	28.74
215.838	-6.35
216.218	-16.3
216.597	-25.45
216.976	-34.52
217.355	-25.32
217.734	-15.6
218.113	-3.02
218.492	1.1
218.871	-4.43
219.25	7.63
219.629	-32.27
220.008	-34.84
220.387	-46.26
220.766	-69.28
221.144	-67.05
221.523	-56.53
221.902	-57.82
222.28	-57.12
222.659	-36.55
223.037	-32.27
223.416	-19.46
223.794	-28.54
224.173	-32.53
224.551	-29.01
224.929	-24.27
225.308	-25.27
225.686	-19.15
226.064	-18.53
226.442	-17.44
226.821	-14.51
227.199	-11.28
227.577	-7.23
227.955	-8.11
228.333	-9.13
228.711	-3.51
229.089	1.6
229.467	-0.85
229.845	-0.04
230.222	-1.89
230.6	-5.09
230.978	-4.88
231.356	-3.93
231.733	0.84
232.111	4.43
232.488	4.78
232.866	3.64
233.243	4.38
233.621	0.69
233.998	1.46
234.376	0.49
234.753	0.43
235.13	0.84
235.508	1.48
235.885	2.43
236.262	1.42
236.639	-0.73
237.016	-1.59
237.393	1.05
237.77	1.28
238.147	2.4
238.524	2.6
238.901	2.66
239.278	2.89
239.655	2.69
240.032	2.91
240.409	2.52
240.785	2.98
241.162	3.56
241.539	3.98
241.915	3.8
242.292	4.23
242.668	3.95
243.045	3.84
243.421	3.88
243.798	3.84
244.174	3.88
244.551	4.07
244.927	3.89
245.303	3.99
245.679	4.18
246.056	4.27
246.432	4.41
246.808	4.48
247.184	4.29
247.56	4.29
247.936	4.05
248.312	4.05
248.688	3.96
249.064	3.78
249.44	3.78
249.815	3.73
250.191	3.54
250.567	3.7
250.943	3.8
251.318	3.68
251.694	3.64
252.069	3.77
252.445	4
252.82	3.96
253.196	3.62
253.571	3.64
253.947	3.7
254.322	3.76
254.697	3.53
255.073	3.25
255.448	3.11
255.823	3
256.198	3.2
256.573	3.2
256.948	3.34
257.323	3.56
257.698	3.42
258.073	3.51
258.448	3.4
258.823	3.39
259.198	3.54
259.573	3.57
259.948	3.58
260.322	3.41
260.697	3.45
261.072	3.46
261.446	3.46
261.821	3.34
262.195	3.33
262.57	3.34
262.944	3.57
263.319	3.64
263.693	3.61
264.067	3.57
264.442	3.61
264.816	3.5
265.19	3.21
265.564	3.33
265.938	3.21
266.313	3.08
266.687	3.13
267.061	3.02
267.435	3.18
267.809	3.12
268.183	3.28
268.556	3.23
268.93	3.49
269.304	3.47
269.678	3.54
270.051	3.39
270.425	3.41
270.799	3.3
271.172	3.31
271.546	3.48
271.919	3.57
272.293	3.46
272.666	3.57
273.04	3.81
273.413	3.8
273.787	3.85
274.16	3.98
274.533	3.88
274.906	3.69
275.279	3.55
275.653	3.46
276.026	3.4
276.399	3.43
276.772	3.3
277.145	3.35
277.518	3.33
277.891	3.42
278.263	3.38
278.636	3.49
279.009	3.44
279.382	3.58
279.755	3.41
280.127	3.65
280.5	3.79
280.872	3.77
281.245	3.74
281.617	3.95
281.99	4.08
282.362	4.06
282.735	4.17
283.107	4.14
283.479	4.25
283.852	4.17
284.224	4.12
284.596	4.09
284.968	4.03
285.34	4.12
285.713	4.06
286.085	4.09
286.457	4.17
286.829	4.23
287.201	4.14
287.572	4.1
287.944	4.08
288.316	3.88
288.688	3.65
289.06	3.71
289.431	3.56
289.803	3.69
290.175	3.68
290.546	3.96
290.918	4.07
291.289	4.07
291.661	4.21
292.032	4.36
292.403	4.38
292.775	4.43
293.146	4.3
293.517	4.33
293.889	4.31
294.26	4.17
294.631	4.1
295.002	4.1
295.373	4.26
295.744	4.2
296.115	4.21
296.486	4.31
296.857	4.21
297.228	4.23
297.599	4.05
297.97	4.22
298.34	4.02
298.711	3.98
299.082	3.95
299.452	3.86
299.823	3.78
300.194	3.74
300.564	3.77
300.935	3.78
301.305	3.77
301.676	3.88
302.046	3.91
302.416	3.96
302.787	3.95
303.157	3.9
303.527	3.97
303.897	4.07
304.267	4.2
304.637	4.44
305.008	4.5
305.378	4.59
305.748	4.48
306.117	4.5
306.487	4.47
306.857	4.51
307.227	4.5
307.597	4.56
307.967	4.58
308.336	4.62
308.706	4.7
309.076	4.78
309.445	4.77
309.815	4.89
310.184	4.74
310.554	4.79
310.923	4.72
311.293	4.79
311.662	4.69
312.031	4.63
312.401	4.48
312.77	4.58
313.139	4.55
313.508	4.63
313.877	4.61
314.246	4.73
314.616	4.71
314.985	4.79
315.353	4.79
315.722	4.92
316.091	4.81
316.46	4.69
316.829	4.69
317.198	4.69
317.567	4.55
317.935	4.82
318.304	4.79
318.672	4.86
319.041	4.66
319.41	4.78
319.778	4.82
320.147	4.89
320.515	4.72
320.883	4.65
321.252	4.72
321.62	4.79
321.988	4.76
322.357	4.82
322.725	4.78
323.093	4.84
323.461	4.78
323.829	4.84
324.197	4.99
324.565	4.95
324.933	5.04
325.301	5.13
325.669	5.04
326.037	5.12
326.405	5.28
326.772	5.4
327.14	5.49
327.508	5.47
327.875	5.55
328.243	5.59
328.61	5.59
328.978	5.52
329.346	5.61
329.713	5.55
330.08	5.67
330.448	5.68
330.815	5.73
331.182	5.67
331.55	5.75
331.917	5.89
332.284	5.98
332.651	5.9
333.018	5.93
333.385	6
333.752	6.08
334.119	6.01
334.486	5.93
334.853	5.86
335.22	5.88
335.587	5.8
335.954	5.9
336.32	6.04
336.687	6.06
337.054	6.06
337.42	6.17
337.787	6.08
338.153	6.16
338.52	6.17
338.886	6.27
339.253	6.23
339.619	6.15
339.986	6.14
340.352	6.14
340.718	6.15
341.084	6.2
341.451	6.12
341.817	6.16
342.183	6.33
342.549	6.42
342.915	6.46
343.281	6.53
343.647	6.4
344.013	6.4
344.379	6.4
344.745	6.34
345.11	6.3
345.476	6.37
345.842	6.44
346.208	6.4
346.573	6.42
346.939	6.49
347.304	6.51
347.67	6.56
348.035	6.59
348.401	6.64
348.766	6.65
349.132	6.6
349.497	6.53
349.862	6.44
350.228	6.36
350.593	6.38
350.958	6.4
351.323	6.43
351.688	6.47
352.053	6.46
352.418	6.54
352.783	6.55
353.148	6.52
353.513	6.45
353.878	6.51
354.243	6.49
354.608	6.48
354.972	6.5
355.337	6.49
355.702	6.5
356.066	6.5
356.431	6.44
356.795	6.51
357.16	6.54
357.524	6.53
357.889	6.52
358.253	6.48
358.618	6.47
358.982	6.45
359.346	6.38
359.71	6.36
360.075	6.41
360.439	6.41
360.803	6.38
361.167	6.35
361.531	6.33
361.895	6.26
362.259	6.23
362.623	6.24
362.987	6.2
363.351	6.2
363.714	6.15
364.078	6.14
364.442	6.1
364.806	6.02
365.169	5.95
365.533	5.91
365.896	5.87
366.26	5.82
366.623	5.78
366.987	5.77
367.35	5.73
367.714	5.61
368.077	5.56
368.44	5.52
368.803	5.49
369.167	5.39
369.53	5.38
369.893	5.39
370.256	5.34
370.619	5.32
370.982	5.25
371.345	5.16
371.708	5.14
372.071	5.08
372.434	5.07
372.797	5.03
373.159	5
373.522	4.95
373.885	4.95
374.247	4.9
374.61	4.91
374.973	4.86
375.335	4.78
375.698	4.74
376.06	4.73
376.423	4.7
376.785	4.7
377.147	4.71
377.51	4.61
377.872	4.59
378.234	4.59
378.596	4.57
378.958	4.55
379.321	4.5
379.683	4.48
380.045	4.45
380.407	4.42
380.769	4.46
381.13	4.49
381.492	4.43
381.854	4.42
382.216	4.37
382.578	4.38
382.939	4.41
383.301	4.38
383.663	4.36
384.024	4.36
384.386	4.4
384.747	4.39
385.109	4.37
385.47	4.32
385.832	4.28
386.193	4.27
386.554	4.26
386.916	4.26
387.277	4.25
387.638	4.27
387.999	4.29
388.36	4.24
388.721	4.23
389.082	4.2
389.443	4.19
389.804	4.19
390.165	4.12
390.526	4.08
390.887	4.04
391.248	4.05
391.609	4
391.969	3.95
392.33	3.92
392.691	3.91
393.051	3.87
393.412	3.88
393.772	3.83
394.133	3.82
394.493	3.78
394.854	3.73
395.214	3.66
395.574	3.64
395.935	3.61
396.295	3.59
396.655	3.58
397.015	3.56
397.376	3.51
397.736	3.55
398.096	3.57
398.456	3.56
398.816	3.5
399.176	3.46
399.535	3.4
399.895	3.37
400.255	3.34
400.615	3.36
400.975	3.31
401.334	3.31
401.694	3.29
402.054	3.28
402.413	3.3
402.773	3.3
403.132	3.29
403.492	3.28
403.851	3.25
404.211	3.24
404.57	3.23
404.929	3.22
405.288	3.21
405.648	3.19
406.007	3.2
406.366	3.18
406.725	3.22
407.084	3.22
407.443	3.2
407.802	3.22
408.161	3.19
408.52	3.18
408.879	3.18
409.238	3.18
409.596	3.19
409.955	3.17
410.314	3.22
410.673	3.21
411.031	3.21
411.39	3.2
411.748	3.19
412.107	3.19
412.465	3.2
412.824	3.17
413.182	3.13
413.54	3.13
413.899	3.15
414.257	3.12
414.615	3.12
414.974	3.09
415.332	3.06
415.69	3.05
416.048	3.04
416.406	3.05
416.764	3.02
417.122	3.01
417.48	3
417.838	2.98
418.195	2.97
418.553	2.99
418.911	2.99
419.269	2.99
419.626	2.98
419.984	2.96
420.342	2.98
420.699	2.98
421.057	2.99
421.414	2.99
421.772	2.98
422.129	2.97
422.486	2.97
422.844	2.98
423.201	2.97
423.558	2.97
423.915	2.95
424.273	2.96
424.63	2.95
424.987	2.94
425.344	2.94
425.701	2.93
426.058	2.92
426.415	2.9
426.772	2.89
427.128	2.89
427.485	2.89
427.842	2.87
428.199	2.86
428.555	2.84
428.912	2.83
429.269	2.84
429.625	2.84
429.982	2.84
430.338	2.84
430.695	2.85
431.051	2.83
431.407	2.83
431.764	2.82
432.12	2.83
432.476	2.84
432.832	2.83
433.189	2.83
433.545	2.82
433.901	2.83
434.257	2.83
434.613	2.83
434.969	2.85
435.325	2.84
435.681	2.86
436.036	2.87
436.392	2.87
436.748	2.86
437.104	2.85
437.459	2.85
437.815	2.85
438.171	2.83
438.526	2.86
438.882	2.86
439.237	2.87
439.593	2.88
439.948	2.87
440.304	2.88
440.659	2.87
441.014	2.88
441.369	2.86
441.725	2.86
442.08	2.84
442.435	2.82
442.79	2.82
443.145	2.81
443.5	2.79
443.855	2.78
444.21	2.79
444.565	2.8
444.92	2.82
445.275	2.81
445.629	2.82
445.984	2.81
446.339	2.8
446.693	2.78
447.048	2.77
447.403	2.76
447.757	2.74
448.112	2.72
448.466	2.7
448.82	2.72
449.175	2.72
449.529	2.73
449.883	2.72
450.238	2.7
450.592	2.7
450.946	2.69
451.3	2.69
451.654	2.67
452.008	2.65
452.362	2.63
452.716	2.63
453.07	2.63
453.424	2.62
453.778	2.63
454.132	2.65
454.486	2.64
454.839	2.64
455.193	2.66
455.547	2.67
455.9	2.68
456.254	2.67
456.607	2.67
456.961	2.67
457.314	2.69
457.668	2.71
458.021	2.71
458.375	2.71
458.728	2.73
459.081	2.74
459.434	2.75
459.787	2.75
460.141	2.75
460.494	2.74
460.847	2.75
461.2	2.74
461.553	2.74
461.906	2.75
462.259	2.78
462.611	2.79
462.964	2.79
463.317	2.8
463.67	2.81
464.022	2.82
464.375	2.81
464.728	2.81
465.08	2.81
465.433	2.81
465.785	2.82
466.138	2.81
466.49	2.82
466.843	2.83
467.195	2.84
467.547	2.87
467.899	2.88
468.252	2.88
468.604	2.9
468.956	2.91
469.308	2.89
469.66	2.86
470.012	2.85
470.364	2.87
470.716	2.86
471.068	2.85
471.42	2.86
471.772	2.87
472.123	2.88
472.475	2.88
472.827	2.89
473.178	2.9
473.53	2.91
473.882	2.91
474.233	2.91
474.585	2.89
474.936	2.88
475.288	2.88
475.639	2.89
475.99	2.88
476.342	2.89
476.693	2.9
477.044	2.91
477.395	2.92
477.746	2.91
478.097	2.91
478.448	2.93
478.8	2.92
479.15	2.89
479.501	2.89
479.852	2.89
480.203	2.87
480.554	2.87
480.905	2.86
481.255	2.85
481.606	2.85
481.957	2.86
482.307	2.86
482.658	2.86
483.009	2.85
483.359	2.85
483.709	2.85
484.06	2.85
484.41	2.86
484.761	2.85
485.111	2.85
485.461	2.85
485.811	2.85
486.162	2.85
486.512	2.87
486.862	2.87
487.212	2.87
487.562	2.88
487.912	2.88
488.262	2.88
488.612	2.89
488.961	2.89
489.311	2.89
489.661	2.88
490.011	2.89
490.36	2.89
490.71	2.89
491.06	2.89
491.409	2.89
491.759	2.89
492.108	2.9
492.458	2.89
492.807	2.89
493.157	2.9
493.506	2.9
493.855	2.89
494.204	2.89
494.554	2.89
494.903	2.89
495.252	2.9
495.601	2.91
495.95	2.93
496.299	2.93
496.648	2.94
496.997	2.96
497.346	2.97
497.695	3
498.043	3
498.392	3.01
498.741	3.02
499.09	3.02
499.438	3.04
499.787	3.06
500.135	3.08
500.484	3.1
500.832	3.12
501.181	3.14
501.529	3.16
501.878	3.19
502.226	3.21
502.574	3.23
502.923	3.24
503.271	3.24
503.619	3.27
503.967	3.32
504.315	3.33
504.663	3.37
505.011	3.39
505.359	3.42
505.707	3.47
506.055	3.46
506.403	3.51
506.751	3.54
507.098	3.58
507.446	3.62
507.794	3.63
508.141	3.66
508.489	3.71
508.837	3.74
509.184	3.77
509.531	3.81
509.879	3.87
510.226	3.91
510.574	3.96
510.921	3.98
511.268	3.98
511.616	4.03
511.963	4.05
512.31	4.08
512.657	4.11
513.004	4.13
513.351	4.22
513.698	4.24
514.045	4.27
514.392	4.31
514.739	4.35
515.086	4.41
515.432	4.45
515.779	4.46
516.126	4.51
516.473	4.55
516.819	4.59
517.166	4.59
517.512	4.63
517.859	4.66
518.205	4.72
518.552	4.78
518.898	4.8
519.245	4.84
519.591	4.87
519.937	4.89
520.283	4.95
520.629	4.99
520.976	5.06
521.322	5.13
521.668	5.18
522.014	5.24
522.36	5.29
522.706	5.39
523.052	5.5
523.398	5.58
523.743	5.69
524.089	5.78
524.435	5.89
524.781	5.97
525.126	6.07
525.472	6.15
525.817	6.23
526.163	6.31
526.509	6.39
526.854	6.46
527.199	6.55
527.545	6.6
527.89	6.68
528.235	6.74
528.581	6.8
528.926	6.87
529.271	6.95
529.616	7.03
529.961	7.1
530.306	7.18
530.651	7.25
530.996	7.35
531.341	7.44
531.686	7.54
532.031	7.65
532.376	7.75
532.721	7.88
533.065	8
533.41	8.12
533.755	8.24
534.099	8.39
534.444	8.52
534.788	8.67
535.133	8.79
535.477	8.93
535.822	9.1
536.166	9.29
536.51	9.51
536.855	9.71
537.199	9.92
537.543	10.13
537.887	10.33
538.231	10.52
538.576	10.78
538.92	11
539.264	11.23
539.608	11.46
539.951	11.64
540.295	11.83
540.639	12.03
540.983	12.23
541.327	12.43
541.671	12.64
542.014	12.84
542.358	13.06
542.701	13.25
543.045	13.45
543.389	13.64
543.732	13.83
544.075	14.05
544.419	14.28
544.762	14.52
545.105	14.81
545.449	15.09
545.792	15.35
546.135	15.65
546.478	15.93
546.821	16.22
547.165	16.56
547.508	16.88
547.851	17.24
548.194	17.58
548.536	17.92
548.879	18.26
549.222	18.58
549.565	18.94
549.908	19.32
550.25	19.67
550.593	20.04
550.936	20.42
551.278	20.76
551.621	21.15
551.963	21.51
552.306	21.84
552.648	22.2
552.991	22.57
553.333	22.88
553.675	23.25
554.017	23.59
554.36	23.93
554.702	24.29
555.044	24.66
555.386	24.98
555.728	25.32
556.07	25.64
556.412	26
556.754	26.36
557.096	26.75
557.438	27.13
557.78	27.48
558.121	27.86
558.463	28.23
558.805	28.61
559.147	28.95
559.488	29.32
559.83	29.66
560.171	29.95
560.513	30.33
560.854	30.65
561.196	31.02
561.537	31.32
561.878	31.64
562.22	31.98
562.561	32.31
562.902	32.66
563.243	33
563.584	33.36
563.925	33.67
564.266	33.94
564.607	34.26
564.948	34.58
565.289	34.91
565.63	35.24
565.971	35.49
566.312	35.83
566.653	36.13
566.993	36.45
567.334	36.77
567.675	37.04
568.015	37.33
568.356	37.63
568.696	38
569.037	38.32
569.377	38.61
569.718	38.96
570.058	39.22
570.398	39.57
570.739	39.84
571.079	40.1
571.419	40.42
571.759	40.73
572.099	40.99
572.439	41.24
572.779	41.46
573.119	41.76
573.459	41.99
573.799	42.23
574.139	42.44
574.479	42.71
574.819	42.96
575.158	43.19
575.498	43.39
575.838	43.53
576.177	43.7
576.517	43.92
576.856	44.14
577.196	44.36
577.535	44.53
577.875	44.78
578.214	45.02
578.553	45.2
578.893	45.43
579.232	45.64
579.571	45.84
579.91	46.1
580.25	46.3
580.589	46.49
580.928	46.7
581.267	46.97
581.606	47.08
581.945	47.32
582.283	47.6
582.622	47.82
582.961	48.04
583.3	48.29
583.639	48.39
583.977	48.53
584.316	48.73
584.654	48.95
584.993	49.11
585.332	49.32
585.67	49.5
586.008	49.58
586.347	49.78
586.685	49.94
587.024	50.06
587.362	50.25
587.7	50.39
588.038	50.56
588.376	50.74
588.715	50.97
589.053	51.04
589.391	51.17
589.729	51.35
590.067	51.51
590.404	51.61
590.742	51.81
591.08	51.96
591.418	52.16
591.756	52.35
592.093	52.44
592.431	52.53
592.769	52.7
593.106	52.78
593.444	52.88
593.781	52.96
594.119	53.16
594.456	53.26
594.793	53.4
595.131	53.53
595.468	53.63
595.805	53.67
596.143	53.81
596.48	53.84
596.817	53.96
597.154	54.08
597.491	54.2
597.828	54.34
598.165	54.45
598.502	54.48
598.839	54.51
599.176	54.68
599.512	54.84
599.849	54.93
600.186	55.19
600.523	55.35
600.859	55.51
601.196	55.58
601.532	55.65
601.869	55.76
602.205	55.84
602.542	55.96
602.878	56.04
603.215	56.18
603.551	56.36
603.887	56.38
604.223	56.46
604.56	56.56
604.896	56.6
605.232	56.69
605.568	56.85
605.904	56.96
606.24	57.01
606.576	57.09
606.912	57.19
607.248	57.22
607.583	57.23
607.919	57.32
608.255	57.41
608.591	57.48
608.926	57.53
609.262	57.58
609.597	57.62
609.933	57.72
610.268	57.72
610.604	57.73
610.939	57.79
611.275	57.89
611.61	57.96
611.945	58.02
612.281	58.09
612.616	58.13
612.951	58.16
613.286	58.32
613.621	58.44
613.956	58.5
614.291	58.6
614.626	58.71
614.961	58.79
615.296	58.91
615.631	59.09
615.966	59.21
616.3	59.28
616.635	59.34
616.97	59.38
617.304	59.49
617.639	59.56
617.973	59.63
618.308	59.67
618.642	59.8
618.977	59.8
619.311	59.86
619.646	59.99
619.98	60.09
620.314	60.09
620.648	60.06
620.983	60.14
621.317	60.16
621.651	60.23
621.985	60.25
622.319	60.23
622.653	60.26
622.987	60.33
623.321	60.48
623.655	60.56
623.988	60.67
624.322	60.72
624.656	60.8
624.99	60.98
625.323	61.02
625.657	61.01
625.99	61.08
626.324	61.06
626.657	61.11
626.991	61.11
627.324	61.15
627.658	61.22
627.991	61.29
628.324	61.38
628.657	61.34
628.991	61.35
629.324	61.4
629.657	61.48
629.99	61.52
630.323	61.53
630.656	61.66
630.989	61.77
631.322	61.91
631.655	61.93
631.987	61.84
632.32	61.95
632.653	62.04
632.986	62.24
633.318	62.3
633.651	62.29
633.984	62.37
634.316	62.43
634.649	62.48
634.981	62.43
635.313	62.52
635.646	62.77
635.978	62.95
636.31	63.07
636.643	63.14
636.975	63.21
637.307	63.21
637.639	63.06
637.971	63.03
638.303	63.09
638.635	63.19
638.967	63.33
639.299	63.29
639.631	63.27
639.963	63.22
640.295	63.34
640.626	63.35
640.958	63.27
641.29	63.26
641.621	63.2
641.953	63.35
642.285	63.3
642.616	63.24
642.948	63.11
643.279	63.13
643.61	63.05
643.942	63.05
644.273	63.12
644.604	63.18
644.936	63.16
645.267	63.04
645.598	63.08
645.929	63.01
646.26	62.99
646.591	63.13
646.922	63.2
647.253	63.26
647.584	63.24
647.915	63.41
648.245	63.58
648.576	63.65
648.907	63.57
649.238	63.71
649.568	63.69
649.899	63.86
650.229	63.9
650.56	63.82
650.89	63.92
651.221	64.05
651.551	64.14
651.882	64.27
652.212	64.3
652.542	64.23
652.872	64.34
653.203	64.47
653.533	64.41
653.863	64.41
654.193	64.37
654.523	64.49
654.853	64.56
655.183	64.6
655.513	64.7
655.843	64.79
656.172	64.69
656.502	64.88
656.832	64.77
657.162	64.79
657.491	64.95
657.821	64.82
658.15	64.67
658.48	64.68
658.809	64.6
659.139	64.62
659.468	64.73
659.798	64.75
660.127	64.82
660.456	64.82
660.785	64.8
661.115	64.78
661.444	64.8
661.773	64.75
662.102	64.66
662.431	64.53
662.76	64.58
663.089	64.68
663.418	64.59
663.747	64.59
664.076	64.56
664.404	64.58
664.733	64.73
665.062	64.86
665.39	64.86
665.719	64.99
666.048	65.03
666.376	65
666.705	65.01
667.033	64.87
667.362	65.02
667.69	65.09
668.018	65.23
668.347	65.23
668.675	65.16
669.003	65.28
669.331	65.39
669.659	65.33
669.987	65.35
670.315	65.36
670.643	65.5
670.971	65.47
671.299	65.48
671.627	65.45
671.955	65.51
672.283	65.64
672.61	65.68
672.938	65.76
673.266	65.91
673.593	65.9
673.921	66.12
674.249	66.09
674.576	65.99
674.904	65.91
675.231	65.87
675.558	65.89
675.886	65.93
676.213	65.97
676.54	66
676.867	65.86
677.195	65.94
677.522	65.82
677.849	65.87
678.176	65.78
678.503	65.76
678.83	65.73
679.157	65.71
679.484	65.67
679.81	65.65
680.137	65.48
680.464	65.47
680.791	65.25
681.117	65.21
681.444	65.32
681.771	65.35
682.097	65.32
682.424	65.34
682.75	65.27
683.077	65.24
683.403	65.27
683.729	65.33
684.056	65.37
684.382	65.4
684.708	65.49
685.034	65.53
685.36	65.67
685.686	65.66
686.012	65.67
686.339	65.61
686.664	65.58
686.99	65.82
687.316	65.8
687.642	66
687.968	66
688.294	66.09
688.619	66.14
688.945	66.28
689.271	66.35
689.596	66.44
689.922	66.49
690.247	66.6
690.573	66.6
690.898	66.53
691.224	66.51
691.549	66.48
691.874	66.52
692.2	66.36
692.525	66.56
692.85	66.69
693.175	66.84
693.5	66.88
693.825	66.78
694.15	66.92
694.475	66.88
694.8	66.99
695.125	67.01
695.45	67.09
695.775	67.12
696.099	67.2
696.424	67.06
696.749	67
697.073	66.8
697.398	66.81
697.723	66.89
698.047	66.92
698.372	66.84
698.696	66.94
699.02	67.03
699.345	66.95
699.669	66.79
699.993	66.78
700.318	66.87
700.642	66.96
700.966	66.95
701.29	66.96
701.614	66.95
701.938	66.93
702.262	66.9
702.586	66.81
702.91	66.71
703.234	66.87
703.557	66.97
703.881	67.2
704.205	67.25
704.529	67.09
704.852	67.13
705.176	67.25
705.499	67.27
705.823	67.38
706.146	67.16
706.47	67.11
706.793	67.11
707.117	67.19
707.44	67.09
707.763	67.18
708.086	67.2
708.409	67.43
708.733	67.59
709.056	67.62
709.379	67.87
709.702	68.07
710.025	68.1
710.348	68.16
710.671	67.89
710.993	67.91
711.316	68.09
711.639	68.37
711.962	68.33
712.284	68.15
712.607	68.2
712.93	68.55
713.252	68.8
713.575	68.72
713.897	68.54
714.22	68.59
714.542	68.69
714.864	68.65
715.187	68.43
715.509	68.35
715.831	68.25
716.153	68.16
716.475	68.09
716.798	68
717.12	67.89
717.442	68.17
717.764	68.13
718.085	68.14
718.407	68.05
718.729	68.28
719.051	68.38
719.373	68.11
719.695	67.77
720.016	67.66
720.338	67.89
720.659	67.82
720.981	67.57
721.302	67.32
721.624	67.42
721.945	67.43
722.267	67.24
722.588	67.29
722.909	67.32
723.231	67.01
723.552	67.02
723.873	67.2
724.194	67.03
724.515	67.2
724.836	67.34
725.157	67.45
725.478	67.23
725.799	67.22
726.12	67.51
726.441	67.79
726.762	67.89
727.083	67.76
727.403	67.86
727.724	68.17
728.045	68.1
728.365	68
728.686	67.9
729.006	67.87
729.327	67.98
729.647	67.89
729.967	67.9
730.288	67.88
730.608	67.78
730.928	67.78
731.249	67.65
731.569	67.48
731.889	67.28
732.209	67.37
732.529	67.31
732.849	67.16
733.169	67.21
733.489	66.97
733.809	67.09
734.129	67.09
734.448	66.8
734.768	66.74
735.088	66.86
735.408	67.01
735.727	67.11
736.047	66.87
736.366	66.78
736.686	67.11
737.005	67.12
737.325	67.24
737.644	67.41
737.963	67.33
738.283	67.25
738.602	67.4
738.921	67.6
739.24	67.59
739.56	67.71
739.879	67.51
740.198	67.75
740.517	67.42
740.836	67.63
741.155	67.76
741.473	67.73
741.792	67.56
742.111	67.35
742.43	67.69
742.748	67.68
743.067	67.66
743.386	67.69
743.704	67.97
744.023	67.91
744.341	67.82
744.66	67.89
744.978	68.15
745.297	68.08
745.615	67.85
745.933	68.16
746.252	67.94
746.57	67.79
746.888	67.66
747.206	67.83
747.524	67.6
747.842	67.29
748.16	67.57
748.478	67.59
748.796	67.86
749.114	67.57
749.432	67.51
749.749	67.75
750.067	67.7
750.385	67.09
750.703	67.37
751.02	67.37
751.338	67.46
751.655	67.16
751.973	67.31
752.29	67.37
752.608	67.29
752.925	67.38
753.242	67.77
753.56	67.81
753.877	67.76
754.194	67.84
754.511	68.3
754.828	68.32
755.145	68.26
755.462	67.87
755.779	67.99
756.096	68.09
756.413	67.92
756.73	67.96
757.047	68.45
757.364	68.43
757.68	68.75
757.997	68.74
758.314	69
758.63	69.05
758.947	69.18
759.264	69.38
759.58	69.36
759.896	69.19
760.213	69.09
760.529	69.47
760.846	69.21
761.162	69.31
761.478	69.11
761.794	69.28
762.11	69.56
762.426	69.13
762.743	69.28
763.059	69.46
763.375	69.41
763.69	69.47
764.006	69.36
764.322	69.34
764.638	69.37
764.954	69.3
765.27	69.25
765.585	69
765.901	69
766.216	69.18
766.532	69.13
766.848	69.09
767.163	68.93
767.478	69.1
767.794	69.09
768.109	68.91
768.424	68.76
768.74	68.73
769.055	69.27
769.37	69.29
769.685	69.24
770	69.41
770.315	69.12
770.63	69.21
770.945	68.88
771.26	68.88
771.575	68.96
771.89	68.7
772.205	68.72
772.52	68.35
772.834	68.37
773.149	68.61
773.464	68.78
773.778	68.62
774.093	68.63
774.407	68.57
774.722	68.92
775.036	68.83
775.351	68.39
775.665	68.37
775.979	68.18
776.293	68.68
776.608	68.21
776.922	68.22
777.236	67.94
777.55	68.1
777.864	68.7
778.178	68.65
778.492	68.91
778.806	69.03
779.12	68.99
779.434	68.53
779.747	68.4
780.061	68.36
780.375	68.98
780.689	69.2
781.002	68.99
781.316	69.01
781.629	69.36
781.943	69.81
782.256	70.04
782.57	70.45
782.883	69.47
783.196	69.69
783.51	69.51
783.823	69.44
784.136	69.1
784.449	68.36
784.762	68.58
785.075	68.33
785.388	68.67
785.701	68.87
786.014	68.93
786.327	68.99
786.64	69.63
786.953	69.51
787.266	69.23
787.578	69.22
787.891	69.01
788.204	68.56
788.516	69.07
788.829	68.6
789.141	68.28
789.454	68.7
789.766	68.69
790.079	69.23
790.391	69.58
790.703	69.76
791.016	69.91
791.328	69.54
791.64	69.56
791.952	69.75
792.264	69.93
792.576	70.53
792.888	70.37
793.2	69.69
793.512	69.23
793.824	69.37
794.136	69.1
794.448	69.5
794.76	69.69
795.071	69.4
795.383	68.93
795.695	69.02
796.006	68.87
796.318	69.16
796.629	69.46
796.941	69.23
797.252	69.53
797.564	69.56
797.875	69.79
798.186	69.84
798.497	69.55
798.809	69.08
799.12	69.05
799.431	69.63
799.742	69.86
800.053	69.73
800.364	69.34
800.675	69.67
800.986	69.76
801.297	69.92
801.608	69.59
801.918	69.79
802.229	69.71
802.54	69.95
802.851	69.52
803.161	67.86
803.472	68.21
803.782	68.08
804.093	67.97
804.403	67.6
804.714	67.27
805.024	66.76
805.334	67.55
805.645	67.26
805.955	66.66
806.265	66.8
806.575	66.72
806.885	67.06
807.195	67.05
807.505	67.05
807.815	67.83
808.125	67.83
808.435	68.74
808.745	68.16
809.055	67.86
809.365	67.78
809.674	68.86
809.984	68.75
810.294	68.51
810.603	68.82
810.913	68.77
811.222	69.55
811.532	70.23
811.841	69.69
812.151	70.25
812.46	69.95
812.769	69.72
813.079	69.71
813.388	69.52
813.697	69.51
814.006	69.16
814.315	67.73
814.624	68.05
814.933	67.55
815.242	68.7
815.551	68.46
815.86	69.2
816.169	68.65
816.478	68.21
816.786	68.55
817.095	68.53
817.404	67.88
817.712	67.97
818.021	67.37
818.33	67.65
818.638	67.01
818.947	67.67
819.255	68.67
819.563	68.73
819.872	68.83
820.18	69.16
820.488	69.78
820.796	69.92
821.105	69.91
821.413	69.84
821.721	69.98
822.029	70.14
822.337	70.22
822.645	70.32
822.953	70.4
823.26	70.68
823.568	70.67
823.876	70.8
824.184	70.74
824.491	70.96
824.799	70.96
825.107	71.03
825.414	70.96
825.722	70.72
826.029	70.92
826.337	70.95
826.644	70.97
826.951	70.6
827.259	70.72
827.566	70.75
827.873	70.84
828.18	70.99
828.488	71.1
828.795	71.02
829.102	71.19
829.409	71.13
829.716	70.49
830.023	70.7
830.329	70.86
830.636	70.87
830.943	70.84
831.25	70.78
831.557	70.5
831.863	70.74
832.17	70.92
832.476	70.76
832.783	71.54
833.089	71.44
833.396	71.54
833.702	71.69
834.009	72.12
834.315	72.46
834.621	71.92
834.928	72.3
835.234	72.22
835.54	72.56
835.846	72.77
836.152	72.63
836.458	72.05
836.764	71.79
837.07	71.38
837.376	71.09
837.682	71.59
837.988	72.1
838.293	72.17
838.599	71.84
838.905	71.56
839.211	70.49
839.516	69.82
839.822	70.22
840.127	70.07
840.433	68.53
840.738	67.44
841.044	67.16
841.349	65.65
841.654	65.74
841.959	65.23
842.265	65.35
842.57	66.62
842.875	66.56
843.18	68.34
843.485	69.91
843.79	70.04
844.095	68.63
844.4	69.15
844.705	69.49
845.01	71.15
845.315	71.47
845.619	71.44
845.924	72.57
846.229	74.21
846.533	74.35
846.838	75.7
847.142	75.85
847.447	75.01
847.751	77.52
848.056	76.43
848.36	76.77
848.664	77.01
848.969	75.94
849.273	76.02
849.577	73.37
849.881	73.03
850.185	73.47
850.489	74.2
850.794	73.14
851.097	73.47
851.401	73.88
851.705	73.85
852.009	74.81
852.313	74.6
852.617	71.85
852.92	73.06
853.224	73.54
853.528	75.53
853.831	76.03
854.135	73.76
854.438	74.9
854.742	72.8
855.045	71.28
855.349	70.85
855.652	71.11
855.955	73.45
856.259	71.07
856.562	70.05
856.865	71.41
857.168	74.09
857.471	71.07
857.774	66.43
858.077	66.2
858.38	64.46
858.683	63.94
858.986	64.36
859.289	62.59
859.592	62.69
859.894	60.86
860.197	61.56
860.5	62.52
860.802	62.3
861.105	64.16
861.407	65.73
861.71	66.51
862.012	66.34
862.315	66.2
862.617	69.13
862.919	67.75
863.222	67.25
863.524	65.1
863.826	66.02
864.128	68.27
864.43	71.26
864.732	74.33
865.034	76.69
865.336	76.78
865.638	76.16
865.94	75.68
866.242	78.25
866.544	77.1
866.846	78.16
867.147	75.53
867.449	73.88
867.751	72.61
868.052	73.27
868.354	74.91
868.655	73.72
868.957	74.97
869.258	74.64
869.56	70.58
869.861	72.52
870.162	72.32
870.463	72.28
870.765	72.78
871.066	74.51
871.367	73.97
871.668	72.5
871.969	73.97
872.27	74.89
872.571	73.85
872.872	75.14
873.173	76.31
873.473	80.22
873.774	80.34
874.075	79.51
874.376	77.66
874.676	75.89
874.977	75.65
875.277	72.73
875.578	75.9
875.878	79.16
876.179	77.48
876.479	79.41
876.78	79.32
877.08	75.99
877.38	72.53
877.68	72.13
877.981	74.57
878.281	74.05
878.581	71.37
