Data from BA28417_Reflection_00004.txt Node
Date: Mon Nov 18 16:11:03 EST 2019
User: vgr7
Spectrometer: USB2G7710
Scans to average: 3
Trigger mode: 4
Integration Time (sec): 2.000000E-2
Electric dark correction enabled: true
Boxcar width: 10
XAxis mode: Wavelengths
Number of Pixels in Spectrum: 2048
>>>>>Begin Spectral Data<<<<<
177.721	-69.97
178.105	-98.3
178.488	-21.8
178.871	-30.93
179.254	-73.56
179.636	-423.62
180.019	-72.23
180.402	123.81
180.785	267.04
181.168	-488.24
181.55	-14.99
181.933	164.63
182.316	151.04
182.698	117.5
183.081	134.6
183.463	95.52
183.846	62.78
184.228	64.88
184.611	63.13
184.993	92.14
185.376	221.67
185.758	275.3
186.14	636.91
186.522	248.36
186.904	486.17
187.287	267.01
187.669	-1596.2
188.051	-323
188.433	-131.52
188.815	-57.2
189.197	-65.71
189.579	-86.33
189.961	-100.87
190.342	-94.43
190.724	-83.56
191.106	-102.27
191.488	-141.43
191.869	-118.15
192.251	-103.92
192.633	-111.95
193.014	-206.56
193.396	-376.73
193.777	-223.77
194.159	-191.05
194.54	-94.67
194.922	-78.34
195.303	-99.32
195.684	-88.25
196.065	-80.05
196.447	-89.24
196.828	-108.57
197.209	-100.84
197.59	-91.3
197.971	-78.52
198.352	-35.11
198.733	-32.78
199.114	-26.48
199.495	-7.38
199.876	18.59
200.257	7.22
200.638	14.82
201.018	24.41
201.399	4.23
201.78	-6.53
202.16	-2.68
202.541	-2.06
202.922	-27.61
203.302	-11.93
203.683	-3.63
204.063	-17.23
204.444	3.82
204.824	-18.04
205.204	-44.84
205.585	-66.6
205.965	-32.14
206.345	-48.81
206.725	-65.68
207.106	-85.8
207.486	-152.16
207.866	-113.58
208.246	-67.94
208.626	-69.87
209.006	-64.07
209.386	-86.12
209.766	-59.82
210.145	-46.05
210.525	-39.94
210.905	-21
211.285	-14.29
211.664	-4.14
212.044	-1.52
212.424	-9.24
212.803	-23.12
213.183	-6.55
213.562	-4.24
213.942	-9.3
214.321	-9.52
214.701	-13.76
215.08	-13.03
215.459	12.22
215.838	8.46
216.218	1.18
216.597	16.5
216.976	40.4
217.355	31.38
217.734	16.93
218.113	46.03
218.492	75.44
218.871	104.01
219.25	122.19
219.629	69.47
220.008	191.15
220.387	287.73
220.766	1440.21
221.144	-592.74
221.523	-386.8
221.902	-310.5
222.28	-241.95
222.659	-176.08
223.037	-9311.76
223.416	-2282.98
223.794	143.87
224.173	93.83
224.551	46.51
224.929	26.7
225.308	38.97
225.686	40.02
226.064	30.16
226.442	23.34
226.821	21.05
227.199	18.39
227.577	12.51
227.955	8.38
228.333	9.22
228.711	8.84
229.089	12.81
229.467	8.55
229.845	6.43
230.222	5.84
230.6	7.7
230.978	5.48
231.356	5.7
231.733	7.55
232.111	6.1
232.488	7.32
232.866	6.09
233.243	4.43
233.621	4.03
233.998	4.33
234.376	4.23
234.753	5.25
235.13	5.22
235.508	7.74
235.885	7.43
236.262	7.6
236.639	6.68
237.016	4.97
237.393	6.01
237.77	6.33
238.147	6.89
238.524	6.75
238.901	7.04
239.278	7.11
239.655	6.21
240.032	7.35
240.409	6.84
240.785	7.16
241.162	6.86
241.539	6.47
241.915	6.47
242.292	6.35
242.668	6.01
243.045	5.97
243.421	5.71
243.798	5.61
244.174	5.32
244.551	5.56
244.927	5.47
245.303	5.61
245.679	5.69
246.056	5.57
246.432	5.35
246.808	5.33
247.184	4.77
247.56	4.76
247.936	4.3
248.312	4.24
248.688	4.38
249.064	4.39
249.44	4.45
249.815	4.22
250.191	4.32
250.567	4.3
250.943	4.25
251.318	4.36
251.694	4.39
252.069	4.28
252.445	4.36
252.82	4.49
253.196	4.24
253.571	3.99
253.947	3.96
254.322	4.29
254.697	4.11
255.073	4.4
255.448	4.36
255.823	4.58
256.198	4.48
256.573	4.3
256.948	4.48
257.323	4.57
257.698	4.6
258.073	4.52
258.448	4.36
258.823	4.46
259.198	4.45
259.573	4.47
259.948	4.56
260.322	4.46
260.697	4.44
261.072	4.29
261.446	4.39
261.821	4.33
262.195	4.24
262.57	4.18
262.944	4.23
263.319	4.24
263.693	4.18
264.067	4.35
264.442	4.24
264.816	4.09
265.19	3.96
265.564	3.87
265.938	3.82
266.313	3.96
266.687	3.87
267.061	3.81
267.435	3.76
267.809	3.73
268.183	3.65
268.556	3.6
268.93	3.89
269.304	3.91
269.678	4.11
270.051	4.12
270.425	4.09
270.799	3.92
271.172	3.94
271.546	3.82
271.919	3.67
272.293	3.65
272.666	3.77
273.04	3.79
273.413	3.92
273.787	3.99
274.16	4
274.533	3.92
274.906	3.86
275.279	3.83
275.653	3.82
276.026	3.85
276.399	3.83
276.772	3.87
277.145	3.78
277.518	3.81
277.891	3.75
278.263	3.86
278.636	4.05
279.009	4.12
279.382	4.3
279.755	4.37
280.127	4.53
280.5	4.46
280.872	4.63
281.245	4.62
281.617	4.53
281.99	4.54
282.362	4.73
282.735	4.72
283.107	4.77
283.479	4.87
283.852	4.84
284.224	4.89
284.596	4.82
284.968	4.89
285.34	4.75
285.713	4.86
286.085	5.01
286.457	5.08
286.829	4.96
287.201	4.91
287.572	4.9
287.944	4.7
288.316	4.81
288.688	4.65
289.06	4.58
289.431	4.55
289.803	4.66
290.175	4.6
290.546	4.66
290.918	4.69
291.289	4.65
291.661	4.69
292.032	4.8
292.403	4.86
292.775	4.92
293.146	4.88
293.517	4.81
293.889	4.74
294.26	4.64
294.631	4.69
295.002	4.61
295.373	4.61
295.744	4.85
296.115	4.85
296.486	4.82
296.857	4.9
297.228	4.94
297.599	4.75
297.97	4.74
298.34	4.83
298.711	4.81
299.082	4.76
299.452	4.71
299.823	4.62
300.194	4.55
300.564	4.4
300.935	4.5
301.305	4.52
301.676	4.6
302.046	4.65
302.416	4.83
302.787	5
303.157	5.1
303.527	4.95
303.897	4.88
304.267	5.06
304.637	5.03
305.008	5.16
305.378	5.34
305.748	5.37
306.117	5.12
306.487	5.11
306.857	5.16
307.227	5.31
307.597	5.33
307.967	5.37
308.336	5.46
308.706	5.46
309.076	5.51
309.445	5.34
309.815	5.43
310.184	5.29
310.554	5.2
310.923	5.1
311.293	5.13
311.662	5.09
312.031	5
312.401	4.93
312.77	4.94
313.139	4.82
313.508	4.73
313.877	4.83
314.246	4.79
314.616	4.77
314.985	4.65
315.353	4.45
315.722	4.57
316.091	4.53
316.46	4.36
316.829	4.22
317.198	4.31
317.567	4.16
317.935	4.16
318.304	4.22
318.672	4.18
319.041	4.19
319.41	4.17
319.778	4.21
320.147	4.26
320.515	4.2
320.883	4.26
321.252	4.47
321.62	4.45
321.988	4.47
322.357	4.5
322.725	4.46
323.093	4.68
323.461	4.52
323.829	4.54
324.197	4.71
324.565	4.78
324.933	4.76
325.301	4.82
325.669	4.74
326.037	4.73
326.405	4.84
326.772	4.87
327.14	4.99
327.508	5.01
327.875	5.05
328.243	5.16
328.61	5.13
328.978	5.06
329.346	5.14
329.713	5.16
330.08	5.23
330.448	5.34
330.815	5.22
331.182	5.19
331.55	5.3
331.917	5.31
332.284	5.32
332.651	5.25
333.018	5.26
333.385	5.27
333.752	5.27
334.119	5.21
334.486	5.23
334.853	5.23
335.22	5.32
335.587	5.31
335.954	5.15
336.32	5.15
336.687	5.28
337.054	5.22
337.42	5.3
337.787	5.34
338.153	5.22
338.52	5.36
338.886	5.26
339.253	5.22
339.619	5.26
339.986	5.14
340.352	5.17
340.718	5.02
341.084	5.1
341.451	5.14
341.817	5.12
342.183	5.06
342.549	4.92
342.915	4.9
343.281	4.76
343.647	4.76
344.013	4.74
344.379	4.57
344.745	4.58
345.11	4.56
345.476	4.46
345.842	4.58
346.208	4.45
346.573	4.57
346.939	4.54
347.304	4.43
347.67	4.42
348.035	4.42
348.401	4.55
348.766	4.56
349.132	4.49
349.497	4.52
349.862	4.53
350.228	4.58
350.593	4.51
350.958	4.62
351.323	4.63
351.688	4.59
352.053	4.67
352.418	4.75
352.783	4.79
353.148	4.69
353.513	4.69
353.878	4.72
354.243	4.74
354.608	4.76
354.972	4.77
355.337	4.91
355.702	4.92
356.066	4.94
356.431	4.91
356.795	5.02
357.16	4.99
357.524	4.94
357.889	4.95
358.253	4.98
358.618	5.03
358.982	5.01
359.346	5.02
359.71	4.92
360.075	4.85
360.439	4.81
360.803	4.91
361.167	4.86
361.531	4.89
361.895	4.81
362.259	4.76
362.623	4.78
362.987	4.69
363.351	4.67
363.714	4.71
364.078	4.72
364.442	4.66
364.806	4.67
365.169	4.7
365.533	4.71
365.896	4.67
366.26	4.62
366.623	4.62
366.987	4.63
367.35	4.67
367.714	4.69
368.077	4.62
368.44	4.57
368.803	4.59
369.167	4.54
369.53	4.54
369.893	4.63
370.256	4.66
370.619	4.72
370.982	4.74
371.345	4.61
371.708	4.6
372.071	4.6
372.434	4.57
372.797	4.52
373.159	4.54
373.522	4.51
373.885	4.56
374.247	4.57
374.61	4.59
374.973	4.61
375.335	4.67
375.698	4.68
376.06	4.7
376.423	4.68
376.785	4.72
377.147	4.87
377.51	4.84
377.872	4.82
378.234	4.83
378.596	4.82
378.958	4.87
379.321	4.91
379.683	4.9
380.045	4.9
380.407	4.91
380.769	4.9
381.13	4.91
381.492	4.84
381.854	4.86
382.216	4.83
382.578	4.81
382.939	4.76
383.301	4.87
383.663	4.82
384.024	4.87
384.386	4.85
384.747	4.82
385.109	4.81
385.47	4.79
385.832	4.77
386.193	4.79
386.554	4.78
386.916	4.76
387.277	4.77
387.638	4.82
387.999	4.8
388.36	4.79
388.721	4.83
389.082	4.84
389.443	4.83
389.804	4.85
390.165	4.86
390.526	4.86
390.887	4.81
391.248	4.87
391.609	4.85
391.969	4.87
392.33	4.82
392.691	4.81
393.051	4.81
393.412	4.8
393.772	4.78
394.133	4.79
394.493	4.8
394.854	4.75
395.214	4.72
395.574	4.79
395.935	4.8
396.295	4.82
396.655	4.82
397.015	4.84
397.376	4.82
397.736	4.81
398.096	4.82
398.456	4.82
398.816	4.79
399.176	4.76
399.535	4.76
399.895	4.74
400.255	4.72
400.615	4.72
400.975	4.73
401.334	4.73
401.694	4.72
402.054	4.7
402.413	4.73
402.773	4.72
403.132	4.68
403.492	4.66
403.851	4.62
404.211	4.61
404.57	4.55
404.929	4.61
405.288	4.6
405.648	4.59
406.007	4.57
406.366	4.57
406.725	4.59
407.084	4.6
407.443	4.62
407.802	4.67
408.161	4.69
408.52	4.66
408.879	4.64
409.238	4.63
409.596	4.63
409.955	4.64
410.314	4.63
410.673	4.61
411.031	4.59
411.39	4.59
411.748	4.59
412.107	4.6
412.465	4.56
412.824	4.56
413.182	4.55
413.54	4.56
413.899	4.53
414.257	4.55
414.615	4.53
414.974	4.53
415.332	4.49
415.69	4.5
416.048	4.49
416.406	4.51
416.764	4.5
417.122	4.52
417.48	4.5
417.838	4.52
418.195	4.53
418.553	4.52
418.911	4.53
419.269	4.53
419.626	4.54
419.984	4.54
420.342	4.54
420.699	4.53
421.057	4.52
421.414	4.51
421.772	4.49
422.129	4.49
422.486	4.49
422.844	4.48
423.201	4.46
423.558	4.46
423.915	4.46
424.273	4.46
424.63	4.44
424.987	4.44
425.344	4.43
425.701	4.43
426.058	4.43
426.415	4.42
426.772	4.41
427.128	4.4
427.485	4.4
427.842	4.4
428.199	4.39
428.555	4.39
428.912	4.41
429.269	4.42
429.625	4.41
429.982	4.39
430.338	4.38
430.695	4.41
431.051	4.4
431.407	4.38
431.764	4.38
432.12	4.37
432.476	4.34
432.832	4.32
433.189	4.31
433.545	4.3
433.901	4.3
434.257	4.32
434.613	4.32
434.969	4.34
435.325	4.33
435.681	4.33
436.036	4.33
436.392	4.33
436.748	4.32
437.104	4.31
437.459	4.33
437.815	4.32
438.171	4.31
438.526	4.33
438.882	4.34
439.237	4.34
439.593	4.36
439.948	4.38
440.304	4.41
440.659	4.42
441.014	4.42
441.369	4.41
441.725	4.39
442.08	4.38
442.435	4.37
442.79	4.36
443.145	4.35
443.5	4.37
443.855	4.36
444.21	4.36
444.565	4.38
444.92	4.38
445.275	4.37
445.629	4.37
445.984	4.36
446.339	4.34
446.693	4.32
447.048	4.32
447.403	4.29
447.757	4.28
448.112	4.27
448.466	4.27
448.82	4.27
449.175	4.28
449.529	4.28
449.883	4.27
450.238	4.27
450.592	4.29
450.946	4.27
451.3	4.26
451.654	4.24
452.008	4.23
452.362	4.22
452.716	4.24
453.07	4.27
453.424	4.26
453.778	4.28
454.132	4.28
454.486	4.27
454.839	4.28
455.193	4.28
455.547	4.27
455.9	4.28
456.254	4.27
456.607	4.27
456.961	4.27
457.314	4.27
457.668	4.28
458.021	4.25
458.375	4.26
458.728	4.28
459.081	4.29
459.434	4.28
459.787	4.29
460.141	4.28
460.494	4.24
460.847	4.25
461.2	4.25
461.553	4.27
461.906	4.27
462.259	4.28
462.611	4.29
462.964	4.29
463.317	4.28
463.67	4.3
464.022	4.28
464.375	4.27
464.728	4.28
465.08	4.28
465.433	4.32
465.785	4.32
466.138	4.31
466.49	4.33
466.843	4.33
467.195	4.31
467.547	4.33
467.899	4.38
468.252	4.37
468.604	4.38
468.956	4.36
469.308	4.39
469.66	4.38
470.012	4.39
470.364	4.43
470.716	4.45
471.068	4.44
471.42	4.46
471.772	4.48
472.123	4.49
472.475	4.49
472.827	4.5
473.178	4.51
473.53	4.51
473.882	4.48
474.233	4.5
474.585	4.48
474.936	4.47
475.288	4.45
475.639	4.46
475.99	4.45
476.342	4.46
476.693	4.44
477.044	4.45
477.395	4.46
477.746	4.44
478.097	4.44
478.448	4.43
478.8	4.4
479.15	4.4
479.501	4.41
479.852	4.42
480.203	4.41
480.554	4.42
480.905	4.44
481.255	4.44
481.606	4.45
481.957	4.47
482.307	4.47
482.658	4.49
483.009	4.49
483.359	4.49
483.709	4.49
484.06	4.49
484.41	4.49
484.761	4.49
485.111	4.5
485.461	4.5
485.811	4.5
486.162	4.51
486.512	4.52
486.862	4.52
487.212	4.52
487.562	4.53
487.912	4.52
488.262	4.51
488.612	4.51
488.961	4.5
489.311	4.51
489.661	4.51
490.011	4.52
490.36	4.52
490.71	4.52
491.06	4.53
491.409	4.54
491.759	4.53
492.108	4.54
492.458	4.53
492.807	4.53
493.157	4.53
493.506	4.55
493.855	4.55
494.204	4.54
494.554	4.55
494.903	4.54
495.252	4.54
495.601	4.57
495.95	4.58
496.299	4.59
496.648	4.58
496.997	4.59
497.346	4.58
497.695	4.58
498.043	4.59
498.392	4.61
498.741	4.63
499.09	4.64
499.438	4.66
499.787	4.69
500.135	4.72
500.484	4.75
500.832	4.75
501.181	4.77
501.529	4.78
501.878	4.81
502.226	4.84
502.574	4.9
502.923	4.89
503.271	4.89
503.619	4.91
503.967	4.95
504.315	4.96
504.663	4.97
505.011	5
505.359	5.02
505.707	5.03
506.055	5.02
506.403	5.06
506.751	5.07
507.098	5.08
507.446	5.09
507.794	5.07
508.141	5.08
508.489	5.09
508.837	5.11
509.184	5.11
509.531	5.12
509.879	5.12
510.226	5.15
510.574	5.17
510.921	5.18
511.268	5.19
511.616	5.2
511.963	5.23
512.31	5.23
512.657	5.23
513.004	5.23
513.351	5.23
513.698	5.24
514.045	5.25
514.392	5.24
514.739	5.25
515.086	5.28
515.432	5.28
515.779	5.28
516.126	5.3
516.473	5.32
516.819	5.33
517.166	5.32
517.512	5.31
517.859	5.31
518.205	5.32
518.552	5.32
518.898	5.33
519.245	5.3
519.591	5.29
519.937	5.28
520.283	5.29
520.629	5.31
520.976	5.32
521.322	5.31
521.668	5.31
522.014	5.31
522.36	5.32
522.706	5.33
523.052	5.35
523.398	5.38
523.743	5.39
524.089	5.39
524.435	5.41
524.781	5.44
525.126	5.45
525.472	5.48
525.817	5.49
526.163	5.49
526.509	5.52
526.854	5.54
527.199	5.56
527.545	5.56
527.89	5.55
528.235	5.55
528.581	5.55
528.926	5.57
529.271	5.58
529.616	5.58
529.961	5.6
530.306	5.61
530.651	5.6
530.996	5.59
531.341	5.6
531.686	5.6
532.031	5.59
532.376	5.6
532.721	5.59
533.065	5.59
533.41	5.59
533.755	5.59
534.099	5.6
534.444	5.59
534.788	5.6
535.133	5.61
535.477	5.62
535.822	5.63
536.166	5.61
536.51	5.62
536.855	5.63
537.199	5.63
537.543	5.62
537.887	5.62
538.231	5.62
538.576	5.64
538.92	5.66
539.264	5.67
539.608	5.68
539.951	5.69
540.295	5.7
540.639	5.7
540.983	5.71
541.327	5.7
541.671	5.7
542.014	5.7
542.358	5.7
542.701	5.71
543.045	5.72
543.389	5.76
543.732	5.77
544.075	5.77
544.419	5.77
544.762	5.77
545.105	5.78
545.449	5.79
545.792	5.77
546.135	5.76
546.478	5.77
546.821	5.74
547.165	5.72
547.508	5.73
547.851	5.72
548.194	5.72
548.536	5.72
548.879	5.75
549.222	5.75
549.565	5.77
549.908	5.74
550.25	5.75
550.593	5.72
550.936	5.71
551.278	5.75
551.621	5.75
551.963	5.77
552.306	5.77
552.648	5.78
552.991	5.78
553.333	5.79
553.675	5.79
554.017	5.82
554.36	5.85
554.702	5.84
555.044	5.86
555.386	5.85
555.728	5.88
556.07	5.89
556.412	5.87
556.754	5.89
557.096	5.9
557.438	5.9
557.78	5.89
558.121	5.91
558.463	5.86
558.805	5.86
559.147	5.83
559.488	5.82
559.83	5.83
560.171	5.85
560.513	5.87
560.854	5.87
561.196	5.89
561.537	5.89
561.878	5.88
562.22	5.87
562.561	5.88
562.902	5.86
563.243	5.86
563.584	5.86
563.925	5.82
564.266	5.82
564.607	5.81
564.948	5.84
565.289	5.84
565.63	5.85
565.971	5.83
566.312	5.86
566.653	5.85
566.993	5.82
567.334	5.84
567.675	5.85
568.015	5.86
568.356	5.84
568.696	5.86
569.037	5.89
569.377	5.91
569.718	5.93
570.058	5.95
570.398	5.95
570.739	5.98
571.079	6.01
571.419	6.03
571.759	6.05
572.099	6.01
572.439	6.01
572.779	6
573.119	6.05
573.459	6.07
573.799	6.11
574.139	6.12
574.479	6.1
574.819	6.08
575.158	6.05
575.498	6.06
575.838	6.04
576.177	6.02
576.517	5.96
576.856	5.98
577.196	5.98
577.535	5.98
577.875	5.96
578.214	5.94
578.553	5.98
578.893	5.96
579.232	5.97
579.571	6
579.91	6.03
580.25	6.01
580.589	5.98
580.928	5.97
581.267	5.99
581.606	6
581.945	5.99
582.283	6.02
582.622	6
582.961	6.03
583.3	6.04
583.639	6.11
583.977	6.08
584.316	6.05
584.654	6.06
584.993	6.03
585.332	6.06
585.67	6.03
586.008	6.09
586.347	6.1
586.685	6.08
587.024	6.01
587.362	6.03
587.7	6.04
588.038	6.07
588.376	6.07
588.715	6.06
589.053	6.09
589.391	6.13
589.729	6.19
590.067	6.18
590.404	6.19
590.742	6.21
591.08	6.21
591.418	6.25
591.756	6.24
592.093	6.27
592.431	6.28
592.769	6.29
593.106	6.27
593.444	6.26
593.781	6.24
594.119	6.33
594.456	6.31
594.793	6.32
595.131	6.28
595.468	6.28
595.805	6.28
596.143	6.28
596.48	6.22
596.817	6.21
597.154	6.2
597.491	6.23
597.828	6.22
598.165	6.22
598.502	6.21
598.839	6.23
599.176	6.22
599.512	6.21
599.849	6.22
600.186	6.23
600.523	6.28
600.859	6.34
601.196	6.31
601.532	6.32
601.869	6.33
602.205	6.31
602.542	6.34
602.878	6.33
603.215	6.34
603.551	6.37
603.887	6.38
604.223	6.38
604.56	6.37
604.896	6.36
605.232	6.37
605.568	6.35
605.904	6.37
606.24	6.43
606.576	6.45
606.912	6.44
607.248	6.44
607.583	6.42
607.919	6.39
608.255	6.39
608.591	6.36
608.926	6.34
609.262	6.39
609.597	6.37
609.933	6.43
610.268	6.46
610.604	6.45
610.939	6.43
611.275	6.47
611.61	6.45
611.945	6.48
612.281	6.47
612.616	6.49
612.951	6.48
613.286	6.43
613.621	6.41
613.956	6.37
614.291	6.4
614.626	6.42
614.961	6.39
615.296	6.38
615.631	6.43
615.966	6.43
616.3	6.43
616.635	6.46
616.97	6.42
617.304	6.42
617.639	6.44
617.973	6.42
618.308	6.42
618.642	6.43
618.977	6.4
619.311	6.4
619.646	6.39
619.98	6.36
620.314	6.37
620.648	6.4
620.983	6.47
621.317	6.45
621.651	6.44
621.985	6.49
622.319	6.52
622.653	6.56
622.987	6.55
623.321	6.48
623.655	6.52
623.988	6.54
624.322	6.52
624.656	6.55
624.99	6.59
625.323	6.55
625.657	6.56
625.99	6.61
626.324	6.65
626.657	6.65
626.991	6.71
627.324	6.67
627.658	6.68
627.991	6.64
628.324	6.61
628.657	6.6
628.991	6.56
629.324	6.58
629.657	6.54
629.99	6.57
630.323	6.58
630.656	6.58
630.989	6.59
631.322	6.56
631.655	6.53
631.987	6.5
632.32	6.49
632.653	6.43
632.986	6.43
633.318	6.4
633.651	6.43
633.984	6.33
634.316	6.37
634.649	6.35
634.981	6.34
635.313	6.35
635.646	6.34
635.978	6.39
636.31	6.36
636.643	6.34
636.975	6.35
637.307	6.42
637.639	6.36
637.971	6.34
638.303	6.34
638.635	6.33
638.967	6.35
639.299	6.43
639.631	6.47
639.963	6.42
640.295	6.45
640.626	6.43
640.958	6.53
641.29	6.54
641.621	6.56
641.953	6.56
642.285	6.61
642.616	6.63
642.948	6.62
643.279	6.63
643.61	6.65
643.942	6.63
644.273	6.62
644.604	6.64
644.936	6.67
645.267	6.69
645.598	6.7
645.929	6.71
646.26	6.71
646.591	6.73
646.922	6.74
647.253	6.68
647.584	6.72
647.915	6.68
648.245	6.7
648.576	6.79
648.907	6.82
649.238	6.8
649.568	6.81
649.899	6.77
650.229	6.81
650.56	6.79
650.89	6.8
651.221	6.78
651.551	6.8
651.882	6.87
652.212	6.89
652.542	6.9
652.872	6.95
653.203	6.89
653.533	6.9
653.863	6.88
654.193	6.93
654.523	6.92
654.853	6.91
655.183	6.93
655.513	6.86
655.843	6.83
656.172	6.84
656.502	6.89
656.832	6.94
657.162	6.96
657.491	7.01
657.821	7.1
658.15	7.13
658.48	7.1
658.809	7.08
659.139	7.06
659.468	7.09
659.798	7.07
660.127	7.14
660.456	7.14
660.785	7.24
661.115	7.21
661.444	7.21
661.773	7.21
662.102	7.25
662.431	7.3
662.76	7.3
663.089	7.34
663.418	7.32
663.747	7.22
664.076	7.21
664.404	7.17
664.733	7.13
665.062	7.15
665.39	7.14
665.719	7.09
666.048	7.15
666.376	7.11
666.705	7.07
667.033	7.03
667.362	7.03
667.69	7.01
668.018	7.02
668.347	7.04
668.675	7.07
669.003	7.04
669.331	7.06
669.659	7.08
669.987	7
670.315	7
670.643	7.01
670.971	6.99
671.299	7.05
671.627	7.03
671.955	7.05
672.283	7.13
672.61	7.15
672.938	7.06
673.266	7.18
673.593	7.26
673.921	7.14
674.249	7.21
674.576	7.23
674.904	7.21
675.231	7.28
675.558	7.33
675.886	7.3
676.213	7.25
676.54	7.26
676.867	7.34
677.195	7.23
677.522	7.32
677.849	7.35
678.176	7.32
678.503	7.27
678.83	7.28
679.157	7.21
679.484	7.23
679.81	7.31
680.137	7.17
680.464	7.15
680.791	7.27
681.117	7.21
681.444	7.14
681.771	7.19
682.097	7.09
682.424	7.07
682.75	7.09
683.077	7.11
683.403	7.16
683.729	7.18
684.056	7.28
684.382	7.27
684.708	7.24
685.034	7.15
685.36	7.22
685.686	7.15
686.012	7.19
686.339	7.22
686.664	7.11
686.99	7.22
687.316	7.16
687.642	7.19
687.968	7.19
688.294	7.25
688.619	7.23
688.945	7.3
689.271	7.23
689.596	7.2
689.922	7.19
690.247	7.12
690.573	7.03
690.898	7.03
691.224	7.06
691.549	7.07
691.874	7.12
692.2	7.15
692.525	7.24
692.85	7.27
693.175	7.25
693.5	7.3
693.825	7.33
694.15	7.4
694.475	7.4
694.8	7.47
695.125	7.38
695.45	7.39
695.775	7.47
696.099	7.54
696.424	7.54
696.749	7.49
697.073	7.54
697.398	7.61
697.723	7.64
698.047	7.59
698.372	7.63
698.696	7.64
699.02	7.56
699.345	7.44
699.669	7.51
699.993	7.44
700.318	7.49
700.642	7.43
700.966	7.4
701.29	7.42
701.614	7.45
701.938	7.65
702.262	7.67
702.586	7.6
702.91	7.6
703.234	7.66
703.557	7.76
703.881	7.77
704.205	7.9
704.529	7.79
704.852	7.83
705.176	7.81
705.499	7.88
705.823	7.99
706.146	8.08
706.47	7.98
706.793	8.03
707.117	7.99
707.44	7.98
707.763	8.04
708.086	7.88
708.409	7.74
708.733	7.67
709.056	7.61
709.379	7.65
709.702	7.61
710.025	7.48
710.348	7.45
710.671	7.38
710.993	7.3
711.316	7.4
711.639	7.48
711.962	7.56
712.284	7.6
712.607	7.5
712.93	7.5
713.252	7.47
713.575	7.53
713.897	7.6
714.22	7.71
714.542	7.77
714.864	7.88
715.187	7.94
715.509	7.98
715.831	8.04
716.153	8.07
716.475	8.1
716.798	8.23
717.12	8.23
717.442	8.22
717.764	8.11
718.085	8.02
718.407	7.91
718.729	7.88
719.051	7.86
719.373	7.92
719.695	8.01
720.016	8.03
720.338	8.02
720.659	8
720.981	7.78
721.302	7.71
721.624	7.67
721.945	7.69
722.267	7.63
722.588	7.68
722.909	7.72
723.231	7.71
723.552	7.73
723.873	8.02
724.194	8.01
724.515	8.24
724.836	8.17
725.157	8.44
725.478	8.29
725.799	8.34
726.12	8.37
726.441	8.28
726.762	8.39
727.083	8.32
727.403	8.31
727.724	8.69
728.045	8.64
728.365	8.63
728.686	8.66
729.006	8.59
729.327	8.52
729.647	8.51
729.967	8.43
730.288	8.56
730.608	8.31
730.928	8.26
731.249	8.17
731.569	8.45
731.889	8.34
732.209	8.52
732.529	8.38
732.849	8.51
733.169	8.51
733.489	8.45
733.809	8.43
734.129	8.32
734.448	8.17
734.768	8.23
735.088	8.43
735.408	8.39
735.727	8.61
736.047	8.67
736.366	8.63
736.686	8.65
737.005	8.61
737.325	8.81
737.644	8.96
737.963	8.84
738.283	8.6
738.602	8.76
738.921	8.73
739.24	8.93
739.56	8.77
739.879	8.88
740.198	8.93
740.517	8.96
740.836	9.2
741.155	9.28
741.473	9.21
741.792	8.85
742.111	8.81
742.43	8.63
742.748	8.49
743.067	8.53
743.386	8.64
743.704	8.54
744.023	8.41
744.341	8.54
744.66	8.84
744.978	9.05
745.297	8.95
745.615	8.95
745.933	9.06
746.252	9.2
746.57	9.2
746.888	9.24
747.206	9.46
747.524	9.39
747.842	9.39
748.16	9.68
748.478	9.9
748.796	10.01
749.114	9.95
749.432	10.02
749.749	10.06
750.067	10
750.385	9.81
750.703	9.95
751.02	9.72
751.338	9.61
751.655	9.76
751.973	9.8
752.29	9.85
752.608	9.54
752.925	9.45
753.242	9.52
753.56	9.22
753.877	9.09
754.194	9.16
754.511	9.12
754.828	8.81
755.145	8.99
755.462	8.69
755.779	8.7
756.096	8.95
756.413	9.23
756.73	9.72
757.047	9.8
757.364	9.84
757.68	10.15
757.997	10.14
758.314	9.86
758.63	9.73
758.947	9.77
759.264	9.89
759.58	9.88
759.896	10.05
760.213	10.29
760.529	10.4
760.846	10.3
761.162	10.22
761.478	10.17
761.794	9.87
762.11	10.08
762.426	10.18
762.743	10.05
763.059	9.84
763.375	9.72
763.69	10.01
764.006	9.96
764.322	9.91
764.638	9.95
764.954	10.16
765.27	10.22
765.585	10.08
765.901	10.18
766.216	10.3
766.532	9.98
766.848	10.02
767.163	10.12
767.478	10.28
767.794	10.35
768.109	10.38
768.424	10.57
768.74	10.66
769.055	10.88
769.37	10.96
769.685	10.71
770	10.58
770.315	10.48
770.63	10.45
770.945	10.32
771.26	10.2
771.575	10.04
771.89	10.12
772.205	10.37
772.52	10.56
772.834	10.35
773.149	10.8
773.464	10.44
773.778	10.26
774.093	10.06
774.407	9.99
774.722	9.92
775.036	9.79
775.351	9.99
775.665	9.51
775.979	9.46
776.293	9.61
776.608	9.61
776.922	9.41
777.236	9.71
777.55	9.63
777.864	9.91
778.178	9.9
778.492	9.96
778.806	9.85
779.12	9.8
779.434	10.04
779.747	10.22
780.061	10.52
780.375	10.41
780.689	10.51
781.002	10.67
781.316	11.23
781.629	11.26
781.943	10.88
782.256	11.21
782.57	11.27
782.883	11.41
783.196	11.27
783.51	11.21
783.823	10.98
784.136	11.17
784.449	10.89
784.762	10.91
785.075	10.82
785.388	10.69
785.701	10.59
786.014	10.3
786.327	9.9
786.64	10.25
786.953	10.52
787.266	10.44
787.578	10.31
787.891	10.5
788.204	10.95
788.516	11.36
788.829	11.65
789.141	11.57
789.454	12.06
789.766	12.17
790.079	12.44
790.391	12.24
790.703	12.76
791.016	12.91
791.328	12.8
791.64	12.91
791.952	13.05
792.264	12.38
792.576	12.69
792.888	12.38
793.2	12.04
793.512	11.66
793.824	11.74
794.136	11.89
794.448	11.83
794.76	11.84
795.071	11.4
795.383	11.05
795.695	11.1
796.006	10.46
796.318	10.55
796.629	10.56
796.941	10.75
797.252	10.84
797.564	10.67
797.875	10.67
798.186	10.48
798.497	10.36
798.809	10.78
799.12	10.99
799.431	11.19
799.742	11.49
800.053	12.22
800.364	12.47
800.675	12.16
800.986	11.9
801.297	11.66
801.608	11.79
801.918	11.86
802.229	11.55
802.54	11.61
802.851	11.64
803.161	11.62
803.472	11.77
803.782	11.2
804.093	11.59
804.403	11.95
804.714	12.09
805.024	12.2
805.334	12.6
805.645	12.62
805.955	12.8
806.265	12.96
806.575	12.35
806.885	12.38
807.195	12.71
807.505	13.23
807.815	13.45
808.125	13.62
808.435	13.48
808.745	14.15
809.055	14.61
809.365	14.47
809.674	14.56
809.984	14.44
810.294	14.4
810.603	14.88
810.913	15.22
811.222	15.31
811.532	15.34
811.841	16.11
812.151	16.55
812.46	16.5
812.769	16.06
813.079	16.15
813.388	16.21
813.697	16.12
814.006	15.55
814.315	15.45
814.624	15.31
814.933	15.26
815.242	14.9
815.551	15.09
815.86	15.28
816.169	14.86
816.478	14.57
816.786	14.57
817.095	14.52
817.404	14.39
817.712	13.58
818.021	13.78
818.33	12.74
818.638	12.05
818.947	12.48
819.255	13.03
819.563	13.12
819.872	12.8
820.18	12.91
820.488	12.78
820.796	12.86
821.105	12.74
821.413	12.78
821.721	12.79
822.029	12.61
822.337	12.6
822.645	12.65
822.953	12.77
823.26	12.86
823.568	12.77
823.876	12.68
824.184	12.8
824.491	12.91
824.799	12.91
825.107	12.95
825.414	12.9
825.722	12.67
826.029	12.7
826.337	12.85
826.644	12.85
826.951	12.81
827.259	12.73
827.566	12.86
827.873	12.83
828.18	12.77
828.488	12.85
828.795	12.86
829.102	13.03
829.409	13.21
829.716	13.25
830.023	13.27
830.329	13.29
830.636	13.61
830.943	13.48
831.25	13.7
831.557	13.55
831.863	13.58
832.17	13.64
832.476	13.74
832.783	13.62
833.089	13.53
833.396	13.96
833.702	14.24
834.009	14.4
834.315	14.39
834.621	14.5
834.928	14.7
835.234	14.67
835.54	14.47
835.846	14.25
836.152	14.07
836.458	14.26
836.764	14.4
837.07	14.34
837.376	13.86
837.682	14.01
837.988	14.59
838.293	14.84
838.599	15.34
838.905	14.84
839.211	14.87
839.516	15.03
839.822	14.94
840.127	14.59
840.433	14.53
840.738	15.41
841.044	16.01
841.349	16.28
841.654	16.77
841.959	16.96
842.265	16.71
842.57	16.83
842.875	16.53
843.18	16.74
843.485	16.68
843.79	18.29
844.095	17.67
844.4	17.71
844.705	16.29
845.01	15.83
845.315	16
845.619	14.85
845.924	15.46
846.229	15.02
846.533	15.37
846.838	15.22
847.142	14.34
847.447	13.05
847.751	12.19
848.056	11.33
848.36	11.49
848.664	11.96
848.969	12.77
849.273	11.29
849.577	12.41
849.881	12.75
850.185	10.87
850.489	11.41
850.794	9.93
851.097	10.99
851.401	11.98
851.705	12.68
852.009	14.77
852.313	14.56
852.617	16.4
852.92	16.71
853.224	15.69
853.528	16.58
853.831	16.46
854.135	15.76
854.438	15.35
854.742	13.45
855.045	12.05
855.349	9.33
855.652	10.5
855.955	9.75
856.259	8.91
856.562	12.1
856.865	11.68
857.168	13.66
857.471	15.23
857.774	15.33
858.077	15.78
858.38	17.39
858.683	14.82
858.986	13.32
859.289	13.51
859.592	13.92
859.894	12.77
860.197	13.38
860.5	14.5
860.802	16.23
861.105	16.85
861.407	17.88
861.71	18.99
862.012	18.61
862.315	17.62
862.617	16.59
862.919	14.27
863.222	13.72
863.524	12.24
863.826	14.03
864.128	13.77
864.43	13
864.732	11.72
865.034	12.95
865.336	12.65
865.638	11.81
865.94	13.2
866.242	13.37
866.544	12.92
866.846	14.78
867.147	14.75
867.449	15.25
867.751	15.65
868.052	18.23
868.354	18.8
868.655	19.64
868.957	22.67
869.258	21.05
869.56	21.53
869.861	20.02
870.162	17.68
870.463	15.13
870.765	15.44
871.066	15.82
871.367	19.15
871.668	20.29
871.969	19.23
872.27	15.93
872.571	14.11
872.872	15.79
873.173	12.58
873.473	12.62
873.774	13.41
874.075	13.07
874.376	11.61
874.676	11.94
874.977	9.28
875.277	11.32
875.578	10.88
875.878	11.43
876.179	12.96
876.479	12.18
876.78	13.6
877.08	14.03
877.38	12.83
877.68	9.6
877.981	9.16
878.281	10.23
878.581	14.71
