Data from BA28420_Reflection_00004.txt Node
Date: Mon Nov 18 16:08:19 EST 2019
User: vgr7
Spectrometer: USB2G7710
Scans to average: 3
Trigger mode: 4
Integration Time (sec): 2.000000E-2
Electric dark correction enabled: true
Boxcar width: 10
XAxis mode: Wavelengths
Number of Pixels in Spectrum: 2048
>>>>>Begin Spectral Data<<<<<
177.721	-214.09
178.105	417.46
178.488	-2046.2
178.871	-163.65
179.254	-165.39
179.636	24.96
180.019	-72.74
180.402	216.67
180.785	-401.68
181.168	78.63
181.55	111.49
181.933	114.33
182.316	144.64
182.698	168.39
183.081	248.26
183.463	187.39
183.846	203.28
184.228	168.98
184.611	221.4
184.993	336
185.376	389.91
185.758	-36455.56
186.14	1009.39
186.522	1856.22
186.904	-1390.84
187.287	2282.39
187.669	-2253.54
188.051	464.75
188.433	444.51
188.815	228.56
189.197	285.88
189.579	477.78
189.961	362
190.342	190.75
190.724	248.56
191.106	182.1
191.488	198.2
191.869	182.74
192.251	441
192.633	130.3
193.014	36.94
193.396	72.64
193.777	47.82
194.159	36.35
194.54	39.12
194.922	37.66
195.303	61.8
195.684	99.36
196.065	123.51
196.447	84.13
196.828	99.17
197.209	77.04
197.59	104.24
197.971	119.21
198.352	-278.03
198.733	-211.22
199.114	-213.63
199.495	-20.44
199.876	-40.45
200.257	-5.05
200.638	-28.41
201.018	-27.67
201.399	-19.33
201.78	-2.97
202.16	-29.61
202.541	-42.96
202.922	-51.59
203.302	-14.69
203.683	-21.74
204.063	-49.19
204.444	-41.94
204.824	-36.11
205.204	-48.17
205.585	-63.36
205.965	-67.58
206.345	-93.41
206.725	-179.25
207.106	-208.09
207.486	-743.14
207.866	-591.6
208.246	-707.98
208.626	-731.39
209.006	-476.95
209.386	-687.06
209.766	-739.08
210.145	-1311.89
210.525	-485.98
210.905	-317.06
211.285	-323.56
211.664	-416.24
212.044	-631.07
212.424	-529.63
212.803	-991.07
213.183	-506.89
213.562	-339.15
213.942	-277.44
214.321	-213.07
214.701	-220.8
215.08	-210.94
215.459	-144.89
215.838	-147.1
216.218	-120.28
216.597	-117.46
216.976	-104.16
217.355	-70.02
217.734	-56.73
218.113	-43.13
218.492	-42.06
218.871	-41.94
219.25	-38.91
219.629	-57.65
220.008	-69.42
220.387	-71.94
220.766	-47.76
221.144	-60.45
221.523	-68.93
221.902	-70.26
222.28	-82.01
222.659	-60.74
223.037	-49.64
223.416	-50.01
223.794	-34.75
224.173	-37.79
224.551	-25.88
224.929	-29.25
225.308	-17.71
225.686	-28.18
226.064	-25.49
226.442	-21.46
226.821	-17.49
227.199	-15.97
227.577	-12
227.955	-10.27
228.333	-8.32
228.711	-10.17
229.089	-6.72
229.467	-2.87
229.845	-4.28
230.222	0.37
230.6	0.53
230.978	1.65
231.356	7.64
231.733	5.51
232.111	5.2
232.488	3.41
232.866	3.4
233.243	2.95
233.621	4.38
233.998	3.2
234.376	1.64
234.753	0.2
235.13	1.18
235.508	2.71
235.885	3.45
236.262	1.72
236.639	2.4
237.016	1.64
237.393	3.17
237.77	3.31
238.147	1.65
238.524	1.7
238.901	2.55
239.278	1.03
239.655	1.13
240.032	1.2
240.409	1.68
240.785	1.65
241.162	1.61
241.539	1.66
241.915	1.8
242.292	1.88
242.668	2.39
243.045	2.22
243.421	2.01
243.798	2.2
244.174	2.36
244.551	2.41
244.927	2.36
245.303	2.34
245.679	2.54
246.056	2.59
246.432	2.56
246.808	2.49
247.184	2.38
247.56	2.39
247.936	2.63
248.312	2.54
248.688	2.83
249.064	2.91
249.44	3.17
249.815	3.11
250.191	3.22
250.567	3.1
250.943	3.06
251.318	3.28
251.694	3.18
252.069	2.99
252.445	3.02
252.82	3.14
253.196	3.1
253.571	3.2
253.947	3.35
254.322	3.58
254.697	3.44
255.073	3.3
255.448	3.3
255.823	3.08
256.198	3.33
256.573	3.1
256.948	3.18
257.323	2.98
257.698	3.08
258.073	3.17
258.448	3.39
258.823	3.32
259.198	3.23
259.573	3.22
259.948	3.37
260.322	3.34
260.697	3.36
261.072	3.22
261.446	3.3
261.821	3.29
262.195	3.29
262.57	3.41
262.944	3.53
263.319	3.63
263.693	3.8
264.067	3.82
264.442	3.85
264.816	3.78
265.19	3.79
265.564	3.88
265.938	3.66
266.313	3.47
266.687	3.65
267.061	3.75
267.435	3.92
267.809	3.83
268.183	3.83
268.556	3.65
268.93	3.82
269.304	3.54
269.678	3.67
270.051	3.62
270.425	3.45
270.799	3.43
271.172	3.33
271.546	3.23
271.919	3.12
272.293	3.1
272.666	3.13
273.04	3.2
273.413	3.36
273.787	3.38
274.16	3.33
274.533	3.28
274.906	3.14
275.279	2.99
275.653	3.11
276.026	3.13
276.399	3.34
276.772	3.3
277.145	3.29
277.518	3.16
277.891	3.2
278.263	3.16
278.636	3.16
279.009	3.19
279.382	3.2
279.755	3.17
280.127	3.31
280.5	3.38
280.872	3.57
281.245	3.36
281.617	3.42
281.99	3.66
282.362	3.76
282.735	3.84
283.107	3.78
283.479	3.77
283.852	3.69
284.224	3.5
284.596	3.47
284.968	3.63
285.34	3.65
285.713	3.72
286.085	3.82
286.457	3.81
286.829	3.89
287.201	3.92
287.572	3.88
287.944	3.88
288.316	3.81
288.688	3.64
289.06	3.68
289.431	3.59
289.803	3.5
290.175	3.56
290.546	3.62
290.918	3.78
291.289	3.8
291.661	3.84
292.032	4.06
292.403	4.12
292.775	4.04
293.146	3.99
293.517	3.92
293.889	4.03
294.26	4.09
294.631	4.02
295.002	3.97
295.373	4.08
295.744	4.02
296.115	4.04
296.486	4.02
296.857	3.91
297.228	4.08
297.599	4.04
297.97	4.03
298.34	4.04
298.711	4.01
299.082	3.92
299.452	3.9
299.823	3.8
300.194	3.75
300.564	3.74
300.935	3.9
301.305	3.79
301.676	3.67
302.046	3.76
302.416	3.82
302.787	3.8
303.157	3.83
303.527	3.76
303.897	3.75
304.267	3.82
304.637	3.92
305.008	3.9
305.378	3.98
305.748	3.95
306.117	3.9
306.487	3.98
306.857	4.13
307.227	4.2
307.597	4.12
307.967	4.11
308.336	4.25
308.706	4.18
309.076	4.25
309.445	4.23
309.815	4.15
310.184	3.98
310.554	4.08
310.923	4.07
311.293	4.17
311.662	4.12
312.031	4.03
312.401	4.07
312.77	4.04
313.139	3.91
313.508	3.83
313.877	3.8
314.246	3.78
314.616	3.68
314.985	3.59
315.353	3.64
315.722	3.75
316.091	3.51
316.46	3.37
316.829	3.4
317.198	3.4
317.567	3.3
317.935	3.48
318.304	3.44
318.672	3.3
319.041	3.36
319.41	3.41
319.778	3.4
320.147	3.38
320.515	3.31
320.883	3.46
321.252	3.55
321.62	3.61
321.988	3.47
322.357	3.46
322.725	3.53
323.093	3.54
323.461	3.47
323.829	3.67
324.197	3.79
324.565	3.8
324.933	3.67
325.301	3.67
325.669	3.66
326.037	3.57
326.405	3.62
326.772	3.63
327.14	3.56
327.508	3.62
327.875	3.5
328.243	3.67
328.61	3.61
328.978	3.66
329.346	3.56
329.713	3.5
330.08	3.61
330.448	3.58
330.815	3.53
331.182	3.51
331.55	3.47
331.917	3.59
332.284	3.65
332.651	3.75
333.018	3.86
333.385	3.82
333.752	3.81
334.119	3.84
334.486	3.8
334.853	3.94
335.22	3.89
335.587	3.89
335.954	3.85
336.32	3.8
336.687	3.6
337.054	3.58
337.42	3.71
337.787	3.64
338.153	3.62
338.52	3.71
338.886	3.58
339.253	3.48
339.619	3.39
339.986	3.23
340.352	3.26
340.718	3.22
341.084	3.12
341.451	3.24
341.817	3.28
342.183	3.25
342.549	3.21
342.915	3.25
343.281	3.33
343.647	3.29
344.013	3.36
344.379	3.42
344.745	3.52
345.11	3.47
345.476	3.47
345.842	3.5
346.208	3.44
346.573	3.55
346.939	3.66
347.304	3.64
347.67	3.66
348.035	3.72
348.401	3.66
348.766	3.76
349.132	3.67
349.497	3.56
349.862	3.62
350.228	3.62
350.593	3.59
350.958	3.63
351.323	3.7
351.688	3.73
352.053	3.72
352.418	3.82
352.783	3.79
353.148	3.74
353.513	3.76
353.878	3.74
354.243	3.81
354.608	3.74
354.972	3.73
355.337	3.85
355.702	3.84
356.066	3.87
356.431	3.81
356.795	3.85
357.16	3.88
357.524	3.79
357.889	3.77
358.253	3.87
358.618	3.88
358.982	3.77
359.346	3.77
359.71	3.77
360.075	3.71
360.439	3.74
360.803	3.73
361.167	3.69
361.531	3.67
361.895	3.67
362.259	3.69
362.623	3.74
362.987	3.69
363.351	3.68
363.714	3.72
364.078	3.77
364.442	3.74
364.806	3.75
365.169	3.78
365.533	3.8
365.896	3.75
366.26	3.74
366.623	3.78
366.987	3.7
367.35	3.75
367.714	3.72
368.077	3.68
368.44	3.76
368.803	3.76
369.167	3.73
369.53	3.63
369.893	3.65
370.256	3.59
370.619	3.59
370.982	3.51
371.345	3.48
371.708	3.51
372.071	3.51
372.434	3.47
372.797	3.47
373.159	3.47
373.522	3.51
373.885	3.5
374.247	3.57
374.61	3.63
374.973	3.6
375.335	3.55
375.698	3.59
376.06	3.58
376.423	3.59
376.785	3.61
377.147	3.63
377.51	3.6
377.872	3.69
378.234	3.73
378.596	3.82
378.958	3.8
379.321	3.77
379.683	3.79
380.045	3.83
380.407	3.82
380.769	3.83
381.13	3.77
381.492	3.78
381.854	3.79
382.216	3.75
382.578	3.82
382.939	3.84
383.301	3.86
383.663	3.82
384.024	3.81
384.386	3.84
384.747	3.88
385.109	3.87
385.47	3.79
385.832	3.78
386.193	3.78
386.554	3.78
386.916	3.79
387.277	3.82
387.638	3.85
387.999	3.84
388.36	3.82
388.721	3.84
389.082	3.81
389.443	3.76
389.804	3.76
390.165	3.73
390.526	3.74
390.887	3.7
391.248	3.72
391.609	3.73
391.969	3.75
392.33	3.73
392.691	3.72
393.051	3.72
393.412	3.69
393.772	3.66
394.133	3.67
394.493	3.65
394.854	3.62
395.214	3.58
395.574	3.62
395.935	3.61
396.295	3.63
396.655	3.63
397.015	3.6
397.376	3.62
397.736	3.61
398.096	3.64
398.456	3.66
398.816	3.63
399.176	3.62
399.535	3.57
399.895	3.58
400.255	3.61
400.615	3.61
400.975	3.61
401.334	3.63
401.694	3.63
402.054	3.65
402.413	3.66
402.773	3.65
403.132	3.64
403.492	3.68
403.851	3.68
404.211	3.72
404.57	3.78
404.929	3.78
405.288	3.77
405.648	3.75
406.007	3.76
406.366	3.78
406.725	3.81
407.084	3.87
407.443	3.86
407.802	3.86
408.161	3.88
408.52	3.88
408.879	3.84
409.238	3.84
409.596	3.84
409.955	3.84
410.314	3.84
410.673	3.8
411.031	3.77
411.39	3.75
411.748	3.74
412.107	3.73
412.465	3.73
412.824	3.74
413.182	3.75
413.54	3.75
413.899	3.75
414.257	3.76
414.615	3.69
414.974	3.71
415.332	3.71
415.69	3.69
416.048	3.69
416.406	3.7
416.764	3.7
417.122	3.7
417.48	3.68
417.838	3.72
418.195	3.73
418.553	3.72
418.911	3.74
419.269	3.75
419.626	3.73
419.984	3.72
420.342	3.73
420.699	3.73
421.057	3.73
421.414	3.72
421.772	3.71
422.129	3.74
422.486	3.73
422.844	3.73
423.201	3.73
423.558	3.73
423.915	3.73
424.273	3.74
424.63	3.73
424.987	3.73
425.344	3.73
425.701	3.73
426.058	3.73
426.415	3.72
426.772	3.71
427.128	3.72
427.485	3.74
427.842	3.73
428.199	3.73
428.555	3.74
428.912	3.77
429.269	3.78
429.625	3.78
429.982	3.78
430.338	3.78
430.695	3.79
431.051	3.78
431.407	3.77
431.764	3.77
432.12	3.76
432.476	3.76
432.832	3.74
433.189	3.73
433.545	3.74
433.901	3.75
434.257	3.74
434.613	3.73
434.969	3.72
435.325	3.73
435.681	3.72
436.036	3.72
436.392	3.7
436.748	3.68
437.104	3.69
437.459	3.69
437.815	3.68
438.171	3.67
438.526	3.7
438.882	3.69
439.237	3.7
439.593	3.73
439.948	3.74
440.304	3.76
440.659	3.75
441.014	3.76
441.369	3.74
441.725	3.75
442.08	3.76
442.435	3.76
442.79	3.77
443.145	3.77
443.5	3.77
443.855	3.75
444.21	3.76
444.565	3.76
444.92	3.78
445.275	3.78
445.629	3.79
445.984	3.78
446.339	3.79
446.693	3.79
447.048	3.77
447.403	3.76
447.757	3.76
448.112	3.76
448.466	3.75
448.82	3.77
449.175	3.77
449.529	3.75
449.883	3.74
450.238	3.73
450.592	3.72
450.946	3.72
451.3	3.75
451.654	3.75
452.008	3.74
452.362	3.73
452.716	3.73
453.07	3.73
453.424	3.75
453.778	3.74
454.132	3.73
454.486	3.73
454.839	3.73
455.193	3.73
455.547	3.75
455.9	3.74
456.254	3.74
456.607	3.75
456.961	3.77
457.314	3.78
457.668	3.78
458.021	3.77
458.375	3.78
458.728	3.76
459.081	3.77
459.434	3.77
459.787	3.78
460.141	3.77
460.494	3.78
460.847	3.78
461.2	3.78
461.553	3.78
461.906	3.79
462.259	3.79
462.611	3.79
462.964	3.78
463.317	3.78
463.67	3.78
464.022	3.78
464.375	3.76
464.728	3.75
465.08	3.75
465.433	3.77
465.785	3.76
466.138	3.79
466.49	3.79
466.843	3.78
467.195	3.78
467.547	3.79
467.899	3.79
468.252	3.77
468.604	3.79
468.956	3.78
469.308	3.8
469.66	3.81
470.012	3.83
470.364	3.84
470.716	3.85
471.068	3.87
471.42	3.89
471.772	3.92
472.123	3.93
472.475	3.93
472.827	3.92
473.178	3.94
473.53	3.91
473.882	3.92
474.233	3.92
474.585	3.93
474.936	3.93
475.288	3.93
475.639	3.96
475.99	3.96
476.342	3.98
476.693	3.97
477.044	3.99
477.395	3.98
477.746	3.97
478.097	3.96
478.448	3.94
478.8	3.91
479.15	3.89
479.501	3.88
479.852	3.88
480.203	3.9
480.554	3.92
480.905	3.92
481.255	3.92
481.606	3.92
481.957	3.93
482.307	3.93
482.658	3.92
483.009	3.92
483.359	3.92
483.709	3.93
484.06	3.93
484.41	3.93
484.761	3.93
485.111	3.93
485.461	3.94
485.811	3.94
486.162	3.94
486.512	3.95
486.862	3.96
487.212	3.97
487.562	3.98
487.912	3.98
488.262	3.98
488.612	3.98
488.961	3.99
489.311	3.99
489.661	4.01
490.011	4.01
490.36	4.01
490.71	4.01
491.06	4
491.409	4.02
491.759	4.01
492.108	4.01
492.458	4.02
492.807	4.01
493.157	4.02
493.506	4.02
493.855	4.02
494.204	4.02
494.554	4.03
494.903	4
495.252	3.99
495.601	4
495.95	4.01
496.299	4
496.648	3.98
496.997	3.97
497.346	3.99
497.695	4.01
498.043	4
498.392	4.01
498.741	4.01
499.09	4
499.438	4.01
499.787	4.02
500.135	4.07
500.484	4.07
500.832	4.08
501.181	4.09
501.529	4.08
501.878	4.09
502.226	4.1
502.574	4.12
502.923	4.13
503.271	4.14
503.619	4.14
503.967	4.15
504.315	4.15
504.663	4.16
505.011	4.15
505.359	4.15
505.707	4.15
506.055	4.15
506.403	4.15
506.751	4.16
507.098	4.16
507.446	4.15
507.794	4.16
508.141	4.16
508.489	4.14
508.837	4.16
509.184	4.15
509.531	4.16
509.879	4.15
510.226	4.17
510.574	4.16
510.921	4.18
511.268	4.18
511.616	4.2
511.963	4.2
512.31	4.19
512.657	4.21
513.004	4.23
513.351	4.22
513.698	4.24
514.045	4.23
514.392	4.26
514.739	4.25
515.086	4.25
515.432	4.26
515.779	4.28
516.126	4.28
516.473	4.28
516.819	4.28
517.166	4.28
517.512	4.27
517.859	4.29
518.205	4.28
518.552	4.29
518.898	4.28
519.245	4.27
519.591	4.25
519.937	4.24
520.283	4.22
520.629	4.23
520.976	4.24
521.322	4.26
521.668	4.25
522.014	4.27
522.36	4.28
522.706	4.3
523.052	4.29
523.398	4.31
523.743	4.32
524.089	4.31
524.435	4.33
524.781	4.33
525.126	4.33
525.472	4.33
525.817	4.33
526.163	4.33
526.509	4.35
526.854	4.36
527.199	4.38
527.545	4.38
527.89	4.4
528.235	4.4
528.581	4.4
528.926	4.4
529.271	4.41
529.616	4.41
529.961	4.4
530.306	4.42
530.651	4.41
530.996	4.42
531.341	4.43
531.686	4.43
532.031	4.44
532.376	4.44
532.721	4.45
533.065	4.46
533.41	4.47
533.755	4.46
534.099	4.47
534.444	4.48
534.788	4.48
535.133	4.47
535.477	4.47
535.822	4.46
536.166	4.47
536.51	4.45
536.855	4.45
537.199	4.47
537.543	4.46
537.887	4.45
538.231	4.43
538.576	4.44
538.92	4.45
539.264	4.45
539.608	4.45
539.951	4.44
540.295	4.44
540.639	4.46
540.983	4.45
541.327	4.46
541.671	4.44
542.014	4.45
542.358	4.46
542.701	4.47
543.045	4.47
543.389	4.47
543.732	4.47
544.075	4.48
544.419	4.45
544.762	4.44
545.105	4.45
545.449	4.47
545.792	4.47
546.135	4.46
546.478	4.45
546.821	4.45
547.165	4.46
547.508	4.46
547.851	4.45
548.194	4.47
548.536	4.47
548.879	4.5
549.222	4.49
549.565	4.48
549.908	4.48
550.25	4.5
550.593	4.52
550.936	4.51
551.278	4.51
551.621	4.52
551.963	4.57
552.306	4.55
552.648	4.57
552.991	4.6
553.333	4.59
553.675	4.62
554.017	4.63
554.36	4.63
554.702	4.64
555.044	4.61
555.386	4.6
555.728	4.62
556.07	4.64
556.412	4.63
556.754	4.62
557.096	4.62
557.438	4.6
557.78	4.6
558.121	4.6
558.463	4.63
558.805	4.63
559.147	4.62
559.488	4.64
559.83	4.6
560.171	4.57
560.513	4.59
560.854	4.56
561.196	4.55
561.537	4.56
561.878	4.53
562.22	4.55
562.561	4.53
562.902	4.54
563.243	4.5
563.584	4.51
563.925	4.52
564.266	4.5
564.607	4.5
564.948	4.5
565.289	4.5
565.63	4.48
565.971	4.49
566.312	4.47
566.653	4.47
566.993	4.47
567.334	4.49
567.675	4.52
568.015	4.52
568.356	4.52
568.696	4.53
569.037	4.54
569.377	4.55
569.718	4.56
570.058	4.55
570.398	4.55
570.739	4.56
571.079	4.6
571.419	4.61
571.759	4.62
572.099	4.59
572.439	4.59
572.779	4.58
573.119	4.57
573.459	4.6
573.799	4.6
574.139	4.59
574.479	4.58
574.819	4.54
575.158	4.53
575.498	4.53
575.838	4.54
576.177	4.5
576.517	4.48
576.856	4.5
577.196	4.5
577.535	4.5
577.875	4.51
578.214	4.47
578.553	4.47
578.893	4.43
579.232	4.45
579.571	4.49
579.91	4.48
580.25	4.48
580.589	4.45
580.928	4.47
581.267	4.49
581.606	4.47
581.945	4.5
582.283	4.52
582.622	4.5
582.961	4.5
583.3	4.54
583.639	4.57
583.977	4.57
584.316	4.55
584.654	4.57
584.993	4.54
585.332	4.55
585.67	4.56
586.008	4.6
586.347	4.59
586.685	4.56
587.024	4.57
587.362	4.55
587.7	4.57
588.038	4.59
588.376	4.63
588.715	4.62
589.053	4.6
589.391	4.6
589.729	4.64
590.067	4.62
590.404	4.63
590.742	4.64
591.08	4.64
591.418	4.65
591.756	4.65
592.093	4.65
592.431	4.68
592.769	4.66
593.106	4.65
593.444	4.66
593.781	4.67
594.119	4.69
594.456	4.72
594.793	4.7
595.131	4.7
595.468	4.68
595.805	4.7
596.143	4.72
596.48	4.74
596.817	4.71
597.154	4.7
597.491	4.69
597.828	4.7
598.165	4.7
598.502	4.69
598.839	4.71
599.176	4.71
599.512	4.67
599.849	4.72
600.186	4.76
600.523	4.8
600.859	4.84
601.196	4.85
601.532	4.88
601.869	4.87
602.205	4.88
602.542	4.88
602.878	4.89
603.215	4.89
603.551	4.86
603.887	4.91
604.223	4.92
604.56	4.93
604.896	4.9
605.232	4.93
605.568	4.95
605.904	4.93
606.24	4.97
606.576	4.99
606.912	4.95
607.248	4.93
607.583	4.9
607.919	4.88
608.255	4.84
608.591	4.84
608.926	4.87
609.262	4.88
609.597	4.89
609.933	4.88
610.268	4.9
610.604	4.93
610.939	4.89
611.275	4.87
611.61	4.84
611.945	4.87
612.281	4.83
612.616	4.85
612.951	4.84
613.286	4.8
613.621	4.81
613.956	4.78
614.291	4.8
614.626	4.79
614.961	4.77
615.296	4.76
615.631	4.74
615.966	4.73
616.3	4.68
616.635	4.66
616.97	4.67
617.304	4.68
617.639	4.7
617.973	4.72
618.308	4.77
618.642	4.83
618.977	4.8
619.311	4.75
619.646	4.75
619.98	4.76
620.314	4.8
620.648	4.83
620.983	4.9
621.317	4.92
621.651	4.9
621.985	4.92
622.319	4.92
622.653	4.95
622.987	4.95
623.321	4.94
623.655	4.91
623.988	4.92
624.322	4.92
624.656	4.91
624.99	4.93
625.323	4.89
625.657	4.9
625.99	4.93
626.324	4.97
626.657	4.96
626.991	5.01
627.324	5
627.658	4.99
627.991	4.99
628.324	4.97
628.657	5.04
628.991	5.04
629.324	5.1
629.657	5.08
629.99	5.13
630.323	5.19
630.656	5.25
630.989	5.23
631.322	5.25
631.655	5.2
631.987	5.17
632.32	5.21
632.653	5.18
632.986	5.18
633.318	5.18
633.651	5.2
633.984	5.19
634.316	5.14
634.649	5.11
634.981	5.1
635.313	5.12
635.646	5.07
635.978	5.12
636.31	5.11
636.643	5.13
636.975	5.13
637.307	5.13
637.639	5.1
637.971	5.21
638.303	5.2
638.635	5.16
638.967	5.2
639.299	5.22
639.631	5.27
639.963	5.19
640.295	5.18
640.626	5.18
640.958	5.22
641.29	5.3
641.621	5.32
641.953	5.3
642.285	5.31
642.616	5.36
642.948	5.34
643.279	5.37
643.61	5.33
643.942	5.24
644.273	5.19
644.604	5.23
644.936	5.15
645.267	5.16
645.598	5.26
645.929	5.28
646.26	5.25
646.591	5.19
646.922	5.3
647.253	5.34
647.584	5.39
647.915	5.3
648.245	5.23
648.576	5.29
648.907	5.33
649.238	5.34
649.568	5.32
649.899	5.26
650.229	5.26
650.56	5.34
650.89	5.44
651.221	5.46
651.551	5.4
651.882	5.47
652.212	5.46
652.542	5.48
652.872	5.46
653.203	5.46
653.533	5.49
653.863	5.47
654.193	5.47
654.523	5.46
654.853	5.52
655.183	5.57
655.513	5.54
655.843	5.54
656.172	5.54
656.502	5.53
656.832	5.54
657.162	5.58
657.491	5.53
657.821	5.48
658.15	5.43
658.48	5.47
658.809	5.44
659.139	5.46
659.468	5.44
659.798	5.52
660.127	5.58
660.456	5.63
660.785	5.62
661.115	5.64
661.444	5.6
661.773	5.58
662.102	5.58
662.431	5.59
662.76	5.57
663.089	5.53
663.418	5.53
663.747	5.48
664.076	5.43
664.404	5.38
664.733	5.41
665.062	5.49
665.39	5.5
665.719	5.43
666.048	5.41
666.376	5.45
666.705	5.33
667.033	5.32
667.362	5.31
667.69	5.33
668.018	5.29
668.347	5.31
668.675	5.31
669.003	5.36
669.331	5.41
669.659	5.45
669.987	5.44
670.315	5.46
670.643	5.48
670.971	5.53
671.299	5.65
671.627	5.68
671.955	5.61
672.283	5.54
672.61	5.58
672.938	5.62
673.266	5.57
673.593	5.69
673.921	5.61
674.249	5.62
674.576	5.63
674.904	5.63
675.231	5.58
675.558	5.64
675.886	5.54
676.213	5.51
676.54	5.53
676.867	5.53
677.195	5.5
677.522	5.61
677.849	5.55
678.176	5.5
678.503	5.42
678.83	5.5
679.157	5.52
679.484	5.54
679.81	5.55
680.137	5.53
680.464	5.44
680.791	5.47
681.117	5.45
681.444	5.48
681.771	5.49
682.097	5.49
682.424	5.5
682.75	5.5
683.077	5.48
683.403	5.5
683.729	5.57
684.056	5.62
684.382	5.55
684.708	5.57
685.034	5.5
685.36	5.58
685.686	5.53
686.012	5.58
686.339	5.67
686.664	5.56
686.99	5.62
687.316	5.57
687.642	5.62
687.968	5.67
688.294	5.69
688.619	5.68
688.945	5.74
689.271	5.64
689.596	5.65
689.922	5.64
690.247	5.58
690.573	5.55
690.898	5.55
691.224	5.58
691.549	5.62
691.874	5.66
692.2	5.78
692.525	5.84
692.85	5.9
693.175	5.82
693.5	5.83
693.825	5.83
694.15	5.94
694.475	6.01
694.8	5.98
695.125	5.92
695.45	5.86
695.775	5.93
696.099	5.99
696.424	6.02
696.749	5.95
697.073	5.96
697.398	5.99
697.723	5.99
698.047	6
698.372	5.97
698.696	5.99
699.02	5.97
699.345	5.93
699.669	5.96
699.993	5.94
700.318	6.13
700.642	6.11
700.966	6.08
701.29	6.04
701.614	5.97
701.938	6.11
702.262	6.29
702.586	6.29
702.91	6.31
703.234	6.33
703.557	6.45
703.881	6.53
704.205	6.53
704.529	6.53
704.852	6.55
705.176	6.53
705.499	6.61
705.823	6.58
706.146	6.62
706.47	6.62
706.793	6.59
707.117	6.45
707.44	6.35
707.763	6.5
708.086	6.56
708.409	6.51
708.733	6.35
709.056	6.28
709.379	6.35
709.702	6.19
710.025	6.18
710.348	6.12
710.671	5.92
710.993	5.96
711.316	6.03
711.639	6.01
711.962	6.14
712.284	6.14
712.607	6.14
712.93	6.27
713.252	6.22
713.575	6.43
713.897	6.42
714.22	6.48
714.542	6.38
714.864	6.27
715.187	6.52
715.509	6.63
715.831	6.58
716.153	6.59
716.475	6.79
716.798	6.87
717.12	7
717.442	7.22
717.764	7.24
718.085	7.28
718.407	7.39
718.729	7.34
719.051	7.28
719.373	7.23
719.695	7.1
720.016	7.13
720.338	7.05
720.659	7.12
720.981	7.07
721.302	7.18
721.624	7.27
721.945	7.21
722.267	7.19
722.588	7.2
722.909	7.07
723.231	7
723.552	7.12
723.873	7.2
724.194	7.06
724.515	7.03
724.836	6.81
725.157	6.81
725.478	6.78
725.799	6.88
726.12	6.88
726.441	6.93
726.762	6.96
727.083	6.69
727.403	6.71
727.724	6.76
728.045	6.81
728.365	6.85
728.686	6.61
729.006	6.64
729.327	6.57
729.647	6.6
729.967	6.63
730.288	6.46
730.608	6.46
730.928	6.66
731.249	6.69
731.569	6.92
731.889	6.93
732.209	6.93
732.529	7
732.849	6.94
733.169	6.92
733.489	6.97
733.809	7.16
734.129	7.08
734.448	7.3
734.768	7.21
735.088	7.23
735.408	7.36
735.727	7.31
736.047	7.41
736.366	7.4
736.686	7.46
737.005	7.43
737.325	7.26
737.644	7.2
737.963	7.19
738.283	6.94
738.602	6.95
738.921	6.93
739.24	6.96
739.56	6.99
739.879	7.07
740.198	7.1
740.517	7.12
740.836	7.16
741.155	6.97
741.473	7.14
741.792	7.03
742.111	7.18
742.43	7.18
742.748	7.23
743.067	7.1
743.386	7.11
743.704	7.35
744.023	7.59
744.341	7.39
744.66	7.6
744.978	7.74
745.297	7.62
745.615	7.86
745.933	7.67
746.252	7.7
746.57	7.7
746.888	7.59
747.206	7.28
747.524	7.54
747.842	7.55
748.16	7.57
748.478	7.71
748.796	7.62
749.114	8.03
749.432	7.99
749.749	8.25
750.067	8.34
750.385	8.12
750.703	8.04
751.02	8.42
751.338	8.24
751.655	8.17
751.973	8.31
752.29	8.08
752.608	8.16
752.925	8.22
753.242	8.22
753.56	8.18
753.877	8.51
754.194	8.36
754.511	8.36
754.828	8.2
755.145	8.14
755.462	8.31
755.779	7.99
756.096	8.34
756.413	8.31
756.73	8.14
757.047	8.36
757.364	8.29
757.68	8.05
757.997	8.15
758.314	8.24
758.63	8.22
758.947	8.31
759.264	8.37
759.58	8.5
759.896	8.41
760.213	8.6
760.529	8.56
760.846	8.55
761.162	8.36
761.478	8.31
761.794	8.19
762.11	8
762.426	7.97
762.743	7.64
763.059	7.67
763.375	7.72
763.69	7.77
764.006	7.87
764.322	7.84
764.638	7.94
764.954	8.11
765.27	7.94
765.585	8.04
765.901	8.04
766.216	7.95
766.532	8.02
766.848	7.9
767.163	7.94
767.478	7.82
767.794	7.91
768.109	7.95
768.424	8.07
768.74	8.19
769.055	8.15
769.37	8.37
769.685	8.4
770	8.5
770.315	8.4
770.63	8.44
770.945	8.67
771.26	8.57
771.575	8.21
771.89	8.49
772.205	8.24
772.52	8.17
772.834	7.94
773.149	7.98
773.464	7.87
773.778	7.99
774.093	7.96
774.407	8.24
774.722	8.39
775.036	8.47
775.351	8.38
775.665	8.33
775.979	8.15
776.293	7.96
776.608	7.96
776.922	7.72
777.236	7.38
777.55	7.05
777.864	7.02
778.178	7.25
778.492	7.42
778.806	7.51
779.12	7.35
779.434	7.71
779.747	7.44
780.061	7.57
780.375	7.41
780.689	7.48
781.002	7.33
781.316	7.38
781.629	7.68
781.943	7.94
782.256	8.13
782.57	8.03
782.883	8.33
783.196	8.3
783.51	8.54
783.823	8.54
784.136	8.92
784.449	8.88
784.762	8.55
785.075	8.21
785.388	8.38
785.701	9.08
786.014	8.72
786.327	8.83
786.64	8.95
786.953	8.94
787.266	8.95
787.578	9.04
787.891	9.07
788.204	8.69
788.516	8.61
788.829	8.85
789.141	9.06
789.454	9.22
789.766	9.36
790.079	9.46
790.391	9.78
790.703	9.89
791.016	10.1
791.328	10.79
791.64	10.83
791.952	11.2
792.264	10.26
792.576	10.4
792.888	10.5
793.2	10.65
793.512	10.52
793.824	10.17
794.136	10.39
794.448	10.14
794.76	9.85
795.071	10.02
795.383	9.51
795.695	9.37
796.006	9.13
796.318	8.82
796.629	8.93
796.941	8.92
797.252	8.8
797.564	8.83
797.875	8.48
798.186	7.98
798.497	7.73
798.809	8.03
799.12	8.12
799.431	8.68
799.742	8.69
800.053	9.08
800.364	9.46
800.675	9.5
800.986	9.34
801.297	9.95
801.608	9.78
801.918	10.05
802.229	10.37
802.54	10.32
802.851	10.32
803.161	9.69
803.472	9.91
803.782	9.76
804.093	9.84
804.403	10.14
804.714	10.83
805.024	10.41
805.334	10.9
805.645	11.09
805.955	10.78
806.265	10.64
806.575	10.63
806.885	11.09
807.195	11.17
807.505	11.78
807.815	11.61
808.125	11.29
808.435	11.54
808.745	11.25
809.055	11.78
809.365	12.14
809.674	12.32
809.984	11.79
810.294	11.58
810.603	11.61
810.913	11.26
811.222	11.5
811.532	12.14
811.841	12.36
812.151	12.8
812.46	12.34
812.769	12.21
813.079	11.7
813.388	11.3
813.697	10.59
814.006	9.69
814.315	9.9
814.624	10.01
814.933	10.38
815.242	10.85
815.551	10.12
815.86	10.41
816.169	10.47
816.478	10.11
816.786	10.66
817.095	9.67
817.404	9.87
817.712	9.76
818.021	9.65
818.33	9.35
818.638	9.15
818.947	9.97
819.255	10.09
819.563	10.48
819.872	10.07
820.18	10.25
820.488	10.7
820.796	10.71
821.105	10.64
821.413	10.52
821.721	10.39
822.029	10.64
822.337	10.6
822.645	10.85
822.953	11.04
823.26	10.94
823.568	11.16
823.876	11.18
824.184	11.23
824.491	11.09
824.799	11.11
825.107	11.14
825.414	11.15
825.722	11.2
826.029	11.24
826.337	11.63
826.644	11.72
826.951	11.63
827.259	11.62
827.566	11.7
827.873	11.88
828.18	12.11
828.488	12.1
828.795	12.06
829.102	11.96
829.409	11.96
829.716	11.92
830.023	11.8
830.329	11.74
830.636	11.82
830.943	12.21
831.25	12.55
831.557	12.74
831.863	12.52
832.17	12.52
832.476	12.56
832.783	12.52
833.089	12.32
833.396	12.54
833.702	12.64
834.009	12.71
834.315	12.05
834.621	12
834.928	11.82
835.234	11.63
835.54	11.43
835.846	11.39
836.152	11.22
836.458	11.16
836.764	11.2
837.07	11.32
837.376	11.14
837.682	10.87
837.988	10.25
838.293	9.86
838.599	9.6
838.905	8.82
839.211	8.1
839.516	8.24
839.822	8.02
840.127	7.53
840.433	7.88
840.738	8.64
841.044	8.86
841.349	8.67
841.654	8.91
841.959	9.21
842.265	8.59
842.57	8.98
842.875	8.33
843.18	8.8
843.485	7.7
843.79	6.75
844.095	6.01
844.4	7.17
844.705	6.97
845.01	6.53
845.315	8.07
845.619	8.53
845.924	8.45
846.229	8.52
846.533	8.9
846.838	8.38
847.142	7.04
847.447	4.71
847.751	5.07
848.056	4.53
848.36	4.45
848.664	6.7
848.969	7.57
849.273	7.83
849.577	6.72
849.881	7.58
850.185	9.89
850.489	11.95
850.794	10.45
851.097	10.9
851.401	12.15
851.705	11.84
852.009	12.66
852.313	12.56
852.617	11.6
852.92	11.8
853.224	9.95
853.528	11.33
853.831	11.85
854.135	11.39
854.438	12.92
854.742	11.92
855.045	10.46
855.349	11.14
855.652	12.44
855.955	14.75
856.259	13.68
856.562	12.65
856.865	10.73
857.168	11.22
857.471	11.26
857.774	9.99
858.077	12.69
858.38	12.54
858.683	13.13
858.986	15.26
859.289	16.38
859.592	16.49
859.894	16.66
860.197	15.57
860.5	15.9
860.802	14.3
861.105	13.76
861.407	13.3
861.71	11.96
862.012	13.72
862.315	11.72
862.617	11.49
862.919	11.79
863.222	11.08
863.524	10.96
863.826	12.26
864.128	14.9
864.43	10.03
864.732	10.48
865.034	9.45
865.336	8.52
865.638	5.45
865.94	4.52
866.242	2.77
866.544	3.93
866.846	5.51
867.147	7.2
867.449	7.96
867.751	8.84
868.052	9.92
868.354	8.65
868.655	9.48
868.957	11.42
869.258	10.76
869.56	12.48
869.861	11.57
870.162	10.77
870.463	8.78
870.765	11.05
871.066	7.54
871.367	8.15
871.668	6.62
871.969	8.64
872.27	8.99
872.571	10.76
872.872	11.5
873.173	9.29
873.473	6.77
873.774	8.08
874.075	7.68
874.376	6.91
874.676	6.96
874.977	3.14
875.277	2.24
875.578	2.1
875.878	0.74
876.179	1.29
876.479	0.53
876.78	-0.39
877.08	-2.21
877.38	-0.28
877.68	-0.69
877.981	0.16
878.281	-1.15
878.581	2.27
