Data from BA28524_Reflection_00013.txt Node
Date: Tue Nov 19 11:49:59 EST 2019
User: vgr7
Spectrometer: USB2G7710
Scans to average: 3
Trigger mode: 4
Integration Time (sec): 2.000000E-2
Electric dark correction enabled: true
Boxcar width: 10
XAxis mode: Wavelengths
Number of Pixels in Spectrum: 2048
>>>>>Begin Spectral Data<<<<<
177.721	-402.35
178.105	840.74
178.488	-743.54
178.871	2866.67
179.254	411.11
179.636	1623.81
180.019	39.39
180.402	176.47
180.785	-105.33
181.168	56.14
181.55	62.44
181.933	18.41
182.316	-69.04
182.698	-70.6
183.081	-37.71
183.463	-73.03
183.846	-63.48
184.228	-87.21
184.611	-215.02
184.993	-648.15
185.376	-690.96
185.758	-4324.24
186.14	-10033.33
186.522	-16455.56
186.904	9433.33
187.287	829.56
187.669	439.68
188.051	196.11
188.433	277.94
188.815	170.85
189.197	361.71
189.579	423.43
189.961	215.01
190.342	171.53
190.724	188.99
191.106	125.72
191.488	182.94
191.869	164.47
192.251	305.45
192.633	203.85
193.014	148.53
193.396	207.79
193.777	270.8
194.159	216.76
194.54	246.57
194.922	143.35
195.303	166.67
195.684	262.53
196.065	374.51
196.447	882.95
196.828	743.41
197.209	176.74
197.59	227.37
197.971	487.98
198.352	223.12
198.733	186.58
199.114	195.24
199.495	63.37
199.876	128.25
200.257	-45.54
200.638	-139.32
201.018	354.9
201.399	-45.54
201.78	-0.2
202.16	-88.51
202.541	-77.89
202.922	-233.33
203.302	-111.38
203.683	144.44
204.063	255.56
204.444	-64.75
204.824	-28.21
205.204	-88.03
205.585	-16.58
205.965	-71.22
206.345	-71.08
206.725	-49
207.106	-11.53
207.486	-47.47
207.866	-68.81
208.246	-38.99
208.626	-59.9
209.006	-67.27
209.386	-176.97
209.766	-142.18
210.145	-108.17
210.525	-160.22
210.905	-127.02
211.285	-105.07
211.664	-110.44
212.044	-102.09
212.424	-107.53
212.803	-151.83
213.183	-123.47
213.562	-104.1
213.942	-73.63
214.321	-107.59
214.701	-127.34
215.08	-214.93
215.459	-60.05
215.838	-56.71
216.218	-63.59
216.597	-13.93
216.976	-29.27
217.355	-11.11
217.734	-48.25
218.113	-36.7
218.492	3.2
218.871	38.4
219.25	20.4
219.629	4.16
220.008	-4.04
220.387	-8.71
220.766	9.13
221.144	2.8
221.523	-18.61
221.902	-21.3
222.28	-18.66
222.659	-2.07
223.037	-6.32
223.416	-8.16
223.794	-2.87
224.173	-3.75
224.551	-0.88
224.929	3.87
225.308	6.21
225.686	16.13
226.064	12.72
226.442	5.22
226.821	-1.5
227.199	-0.83
227.577	3.19
227.955	5.84
228.333	5.17
228.711	5.51
229.089	4.97
229.467	8.93
229.845	5.43
230.222	3.8
230.6	3.83
230.978	5.42
231.356	3.28
231.733	2.81
232.111	3.53
232.488	0.44
232.866	4.85
233.243	5.61
233.621	4.42
233.998	4.38
234.376	4.71
234.753	5.76
235.13	3.7
235.508	3.7
235.885	3.3
236.262	3.99
236.639	3.23
237.016	4.34
237.393	4.66
237.77	5.48
238.147	5.65
238.524	5.5
238.901	5.01
239.278	4.09
239.655	3.46
240.032	3.23
240.409	4.06
240.785	3.43
241.162	3.35
241.539	3.17
241.915	3.46
242.292	3.67
242.668	4.22
243.045	4.83
243.421	4.83
243.798	5.36
244.174	5.12
244.551	5.18
244.927	5.35
245.303	5.13
245.679	5.41
246.056	5.6
246.432	5.59
246.808	5.76
247.184	5.94
247.56	5.91
247.936	5.81
248.312	5.69
248.688	5.58
249.064	5.38
249.44	5.44
249.815	5.4
250.191	5.24
250.567	4.96
250.943	4.96
251.318	4.96
251.694	4.76
252.069	4.93
252.445	5.21
252.82	5.31
253.196	5.27
253.571	5.27
253.947	5.23
254.322	4.87
254.697	4.97
255.073	5.13
255.448	4.85
255.823	4.9
256.198	4.61
256.573	4.84
256.948	4.83
257.323	5.06
257.698	5.09
258.073	4.96
258.448	5.11
258.823	4.57
259.198	4.56
259.573	4.27
259.948	4.1
260.322	3.94
260.697	3.75
261.072	3.63
261.446	3.6
261.821	3.46
262.195	3.46
262.57	3.47
262.944	3.28
263.319	3.44
263.693	3.36
264.067	3.26
264.442	2.93
264.816	3.04
265.19	2.91
265.564	2.64
265.938	2.63
266.313	2.44
266.687	2.76
267.061	2.71
267.435	3.25
267.809	3.17
268.183	3.17
268.556	3.16
268.93	3.35
269.304	3.25
269.678	3.34
270.051	3.59
270.425	3.65
270.799	3.67
271.172	3.82
271.546	4
271.919	4.19
272.293	4.4
272.666	4.28
273.04	4.1
273.413	4.34
273.787	4.46
274.16	4.33
274.533	4.38
274.906	4.35
275.279	4.15
275.653	4.33
276.026	4.32
276.399	4.48
276.772	4.44
277.145	4.55
277.518	4.49
277.891	4.46
278.263	4.49
278.636	4.64
279.009	4.49
279.382	4.46
279.755	4.51
280.127	4.49
280.5	4.32
280.872	4.6
281.245	4.37
281.617	4.4
281.99	4.58
282.362	4.82
282.735	4.95
283.107	4.82
283.479	4.69
283.852	4.6
284.224	4.6
284.596	4.61
284.968	4.55
285.34	4.57
285.713	4.51
286.085	4.32
286.457	4.2
286.829	4.29
287.201	4.31
287.572	4.22
287.944	4.37
288.316	4.51
288.688	4.49
289.06	4.63
289.431	4.57
289.803	4.6
290.175	4.36
290.546	4.31
290.918	4.41
291.289	4.46
291.661	4.53
292.032	4.58
292.403	4.73
292.775	4.93
293.146	5.14
293.517	5.37
293.889	5.38
294.26	5.53
294.631	5.46
295.002	5.46
295.373	5.64
295.744	5.54
296.115	5.6
296.486	5.61
296.857	5.74
297.228	5.87
297.599	5.9
297.97	6.1
298.34	6.05
298.711	6.12
299.082	6.2
299.452	6.23
299.823	6.19
300.194	6.17
300.564	5.96
300.935	6.04
301.305	5.89
301.676	5.89
302.046	6.01
302.416	6.07
302.787	6.05
303.157	6.05
303.527	6.05
303.897	5.93
304.267	6.04
304.637	5.88
305.008	5.76
305.378	5.79
305.748	5.7
306.117	5.94
306.487	5.96
306.857	6.01
307.227	6.33
307.597	6.41
307.967	6.47
308.336	6.71
308.706	6.55
309.076	6.61
309.445	6.87
309.815	6.8
310.184	6.79
310.554	6.82
310.923	6.84
311.293	6.96
311.662	7.11
312.031	6.99
312.401	7.07
312.77	7.14
313.139	7.16
313.508	7.18
313.877	7.23
314.246	7.2
314.616	7.35
314.985	7.13
315.353	7.13
315.722	7.29
316.091	7.31
316.46	7.41
316.829	7.43
317.198	7.48
317.567	7.64
317.935	7.86
318.304	8.14
318.672	8.2
319.041	8.19
319.41	8.22
319.778	8.3
320.147	8.28
320.515	8.44
320.883	8.61
321.252	8.71
321.62	8.72
321.988	8.76
322.357	8.61
322.725	8.72
323.093	8.72
323.461	8.64
323.829	8.62
324.197	8.53
324.565	8.63
324.933	8.44
325.301	8.32
325.669	8.23
326.037	8.13
326.405	8.14
326.772	8.24
327.14	8.25
327.508	8.19
327.875	8.16
328.243	8.18
328.61	8.06
328.978	8.04
329.346	8.02
329.713	8.03
330.08	8.16
330.448	8.04
330.815	8.06
331.182	8.06
331.55	8.08
331.917	8.24
332.284	8.29
332.651	8.46
333.018	8.49
333.385	8.65
333.752	8.68
334.119	8.61
334.486	8.56
334.853	8.43
335.22	8.53
335.587	8.58
335.954	8.53
336.32	8.47
336.687	8.51
337.054	8.54
337.42	8.68
337.787	8.58
338.153	8.7
338.52	8.76
338.886	8.72
339.253	8.76
339.619	8.81
339.986	8.75
340.352	8.78
340.718	8.83
341.084	8.8
341.451	8.82
341.817	8.84
342.183	8.8
342.549	8.94
342.915	9
343.281	9.01
343.647	8.97
344.013	9.06
344.379	9.07
344.745	9.03
345.11	9.03
345.476	9.07
345.842	9.02
346.208	8.92
346.573	8.86
346.939	8.71
347.304	8.61
347.67	8.57
348.035	8.38
348.401	8.44
348.766	8.36
349.132	8.34
349.497	8.4
349.862	8.42
350.228	8.41
350.593	8.39
350.958	8.44
351.323	8.47
351.688	8.45
352.053	8.39
352.418	8.36
352.783	8.23
353.148	8.25
353.513	8.23
353.878	8.28
354.243	8.27
354.608	8.42
354.972	8.41
355.337	8.32
355.702	8.32
356.066	8.23
356.431	8.21
356.795	8.18
357.16	8.08
357.524	8.04
357.889	8.07
358.253	8.03
358.618	8
358.982	8.01
359.346	7.91
359.71	7.87
360.075	7.84
360.439	7.9
360.803	7.84
361.167	7.84
361.531	7.73
361.895	7.7
362.259	7.59
362.623	7.61
362.987	7.72
363.351	7.69
363.714	7.64
364.078	7.56
364.442	7.51
364.806	7.5
365.169	7.52
365.533	7.43
365.896	7.48
366.26	7.36
366.623	7.29
366.987	7.33
367.35	7.33
367.714	7.27
368.077	7.23
368.44	7.2
368.803	7.11
369.167	7.16
369.53	7.16
369.893	7.12
370.256	7
370.619	6.8
370.982	6.77
371.345	6.83
371.708	6.92
372.071	6.82
372.434	6.75
372.797	6.62
373.159	6.54
373.522	6.4
373.885	6.44
374.247	6.37
374.61	6.31
374.973	6.27
375.335	6.24
375.698	6.08
376.06	5.95
376.423	5.93
376.785	5.88
377.147	5.78
377.51	5.77
377.872	5.73
378.234	5.78
378.596	5.79
378.958	5.68
379.321	5.59
379.683	5.59
380.045	5.55
380.407	5.56
380.769	5.52
381.13	5.51
381.492	5.51
381.854	5.48
382.216	5.47
382.578	5.47
382.939	5.48
383.301	5.49
383.663	5.51
384.024	5.54
384.386	5.46
384.747	5.45
385.109	5.43
385.47	5.43
385.832	5.38
386.193	5.33
386.554	5.23
386.916	5.2
387.277	5.11
387.638	5.1
387.999	5.09
388.36	5.1
388.721	5.06
389.082	5.04
389.443	5.06
389.804	5.01
390.165	4.95
390.526	4.9
390.887	4.93
391.248	4.92
391.609	4.91
391.969	4.92
392.33	4.86
392.691	4.84
393.051	4.78
393.412	4.72
393.772	4.74
394.133	4.78
394.493	4.73
394.854	4.77
395.214	4.75
395.574	4.71
395.935	4.64
396.295	4.6
396.655	4.52
397.015	4.47
397.376	4.49
397.736	4.49
398.096	4.47
398.456	4.38
398.816	4.32
399.176	4.22
399.535	4.21
399.895	4.22
400.255	4.22
400.615	4.25
400.975	4.3
401.334	4.28
401.694	4.27
402.054	4.25
402.413	4.2
402.773	4.18
403.132	4.16
403.492	4.2
403.851	4.23
404.211	4.25
404.57	4.24
404.929	4.22
405.288	4.17
405.648	4.17
406.007	4.2
406.366	4.16
406.725	4.19
407.084	4.18
407.443	4.17
407.802	4.14
408.161	4.11
408.52	4.08
408.879	4.04
409.238	4.06
409.596	4.06
409.955	4.09
410.314	4.1
410.673	4.11
411.031	4.06
411.39	4.02
411.748	3.99
412.107	3.93
412.465	3.9
412.824	3.9
413.182	3.87
413.54	3.86
413.899	3.89
414.257	3.89
414.615	3.85
414.974	3.83
415.332	3.84
415.69	3.83
416.048	3.81
416.406	3.79
416.764	3.76
417.122	3.73
417.48	3.72
417.838	3.71
418.195	3.66
418.553	3.67
418.911	3.68
419.269	3.67
419.626	3.67
419.984	3.66
420.342	3.63
420.699	3.63
421.057	3.62
421.414	3.62
421.772	3.6
422.129	3.61
422.486	3.63
422.844	3.61
423.201	3.6
423.558	3.6
423.915	3.6
424.273	3.58
424.63	3.6
424.987	3.6
425.344	3.59
425.701	3.6
426.058	3.58
426.415	3.56
426.772	3.57
427.128	3.56
427.485	3.59
427.842	3.61
428.199	3.59
428.555	3.59
428.912	3.56
429.269	3.56
429.625	3.57
429.982	3.56
430.338	3.55
430.695	3.54
431.051	3.53
431.407	3.52
431.764	3.53
432.12	3.53
432.476	3.52
432.832	3.51
433.189	3.51
433.545	3.51
433.901	3.49
434.257	3.48
434.613	3.5
434.969	3.47
435.325	3.45
435.681	3.46
436.036	3.45
436.392	3.47
436.748	3.48
437.104	3.46
437.459	3.43
437.815	3.43
438.171	3.44
438.526	3.44
438.882	3.47
439.237	3.46
439.593	3.44
439.948	3.42
440.304	3.43
440.659	3.42
441.014	3.4
441.369	3.42
441.725	3.41
442.08	3.4
442.435	3.39
442.79	3.39
443.145	3.39
443.5	3.38
443.855	3.36
444.21	3.35
444.565	3.35
444.92	3.36
445.275	3.35
445.629	3.36
445.984	3.35
446.339	3.34
446.693	3.32
447.048	3.32
447.403	3.33
447.757	3.31
448.112	3.33
448.466	3.36
448.82	3.35
449.175	3.36
449.529	3.35
449.883	3.37
450.238	3.38
450.592	3.39
450.946	3.4
451.3	3.42
451.654	3.41
452.008	3.42
452.362	3.41
452.716	3.42
453.07	3.39
453.424	3.38
453.778	3.38
454.132	3.37
454.486	3.38
454.839	3.37
455.193	3.38
455.547	3.36
455.9	3.36
456.254	3.37
456.607	3.35
456.961	3.35
457.314	3.34
457.668	3.33
458.021	3.32
458.375	3.31
458.728	3.28
459.081	3.29
459.434	3.29
459.787	3.3
460.141	3.31
460.494	3.32
460.847	3.31
461.2	3.32
461.553	3.33
461.906	3.33
462.259	3.32
462.611	3.32
462.964	3.34
463.317	3.33
463.67	3.36
464.022	3.38
464.375	3.38
464.728	3.4
465.08	3.42
465.433	3.42
465.785	3.44
466.138	3.46
466.49	3.48
466.843	3.48
467.195	3.49
467.547	3.48
467.899	3.51
468.252	3.53
468.604	3.54
468.956	3.57
469.308	3.58
469.66	3.63
470.012	3.65
470.364	3.65
470.716	3.64
471.068	3.63
471.42	3.65
471.772	3.68
472.123	3.67
472.475	3.68
472.827	3.69
473.178	3.7
473.53	3.71
473.882	3.69
474.233	3.66
474.585	3.65
474.936	3.64
475.288	3.6
475.639	3.58
475.99	3.56
476.342	3.55
476.693	3.53
477.044	3.52
477.395	3.5
477.746	3.47
478.097	3.48
478.448	3.47
478.8	3.44
479.15	3.44
479.501	3.43
479.852	3.41
480.203	3.41
480.554	3.4
480.905	3.4
481.255	3.4
481.606	3.41
481.957	3.42
482.307	3.43
482.658	3.44
483.009	3.46
483.359	3.46
483.709	3.46
484.06	3.47
484.41	3.48
484.761	3.48
485.111	3.49
485.461	3.5
485.811	3.49
486.162	3.51
486.512	3.5
486.862	3.52
487.212	3.52
487.562	3.53
487.912	3.55
488.262	3.55
488.612	3.57
488.961	3.58
489.311	3.57
489.661	3.57
490.011	3.56
490.36	3.55
490.71	3.57
491.06	3.57
491.409	3.57
491.759	3.59
492.108	3.6
492.458	3.61
492.807	3.6
493.157	3.63
493.506	3.63
493.855	3.64
494.204	3.65
494.554	3.66
494.903	3.67
495.252	3.68
495.601	3.7
495.95	3.71
496.299	3.74
496.648	3.77
496.997	3.83
497.346	3.89
497.695	3.92
498.043	3.94
498.392	3.96
498.741	3.98
499.09	4.02
499.438	4.05
499.787	4.09
500.135	4.12
500.484	4.15
500.832	4.16
501.181	4.2
501.529	4.22
501.878	4.27
502.226	4.3
502.574	4.34
502.923	4.38
503.271	4.42
503.619	4.47
503.967	4.5
504.315	4.53
504.663	4.54
505.011	4.59
505.359	4.61
505.707	4.65
506.055	4.68
506.403	4.72
506.751	4.74
507.098	4.79
507.446	4.86
507.794	4.9
508.141	4.99
508.489	5.03
508.837	5.08
509.184	5.12
509.531	5.16
509.879	5.19
510.226	5.22
510.574	5.28
510.921	5.32
511.268	5.38
511.616	5.43
511.963	5.5
512.31	5.57
512.657	5.62
513.004	5.69
513.351	5.74
513.698	5.76
514.045	5.83
514.392	5.89
514.739	5.91
515.086	5.97
515.432	6.02
515.779	6.09
516.126	6.18
516.473	6.22
516.819	6.29
517.166	6.35
517.512	6.42
517.859	6.48
518.205	6.56
518.552	6.62
518.898	6.68
519.245	6.76
519.591	6.82
519.937	6.92
520.283	6.98
520.629	7.07
520.976	7.18
521.322	7.24
521.668	7.33
522.014	7.44
522.36	7.53
522.706	7.63
523.052	7.75
523.398	7.87
523.743	8.01
524.089	8.13
524.435	8.23
524.781	8.35
525.126	8.47
525.472	8.56
525.817	8.66
526.163	8.76
526.509	8.84
526.854	8.94
527.199	9.01
527.545	9.08
527.89	9.17
528.235	9.26
528.581	9.36
528.926	9.45
529.271	9.53
529.616	9.65
529.961	9.73
530.306	9.83
530.651	9.92
530.996	10.04
531.341	10.15
531.686	10.29
532.031	10.4
532.376	10.51
532.721	10.64
533.065	10.76
533.41	10.89
533.755	11.03
534.099	11.17
534.444	11.31
534.788	11.46
535.133	11.6
535.477	11.75
535.822	11.93
536.166	12.12
536.51	12.31
536.855	12.5
537.199	12.73
537.543	12.94
537.887	13.16
538.231	13.37
538.576	13.6
538.92	13.83
539.264	14.05
539.608	14.3
539.951	14.5
540.295	14.7
540.639	14.91
540.983	15.07
541.327	15.25
541.671	15.44
542.014	15.63
542.358	15.82
542.701	16.01
543.045	16.22
543.389	16.4
543.732	16.57
544.075	16.78
544.419	16.97
544.762	17.18
545.105	17.38
545.449	17.64
545.792	17.88
546.135	18.12
546.478	18.4
546.821	18.68
547.165	18.96
547.508	19.25
547.851	19.54
548.194	19.86
548.536	20.17
548.879	20.5
549.222	20.78
549.565	21.09
549.908	21.37
550.25	21.65
550.593	21.96
550.936	22.28
551.278	22.63
551.621	22.95
551.963	23.29
552.306	23.61
552.648	23.89
552.991	24.21
553.333	24.54
553.675	24.81
554.017	25.08
554.36	25.39
554.702	25.68
555.044	25.98
555.386	26.29
555.728	26.59
556.07	26.85
556.412	27.21
556.754	27.47
557.096	27.84
557.438	28.1
557.78	28.41
558.121	28.71
558.463	28.97
558.805	29.31
559.147	29.62
559.488	29.91
559.83	30.24
560.171	30.49
560.513	30.77
560.854	31.11
561.196	31.37
561.537	31.64
561.878	31.9
562.22	32.16
562.561	32.41
562.902	32.6
563.243	32.89
563.584	33.12
563.925	33.41
564.266	33.59
564.607	33.88
564.948	34.11
565.289	34.41
565.63	34.59
565.971	34.77
566.312	35.01
566.653	35.21
566.993	35.4
567.334	35.69
567.675	35.87
568.015	36.09
568.356	36.24
568.696	36.4
569.037	36.64
569.377	36.85
569.718	37.14
570.058	37.38
570.398	37.59
570.739	37.78
571.079	38.03
571.419	38.27
571.759	38.48
572.099	38.7
572.439	38.9
572.779	39.15
573.119	39.38
573.459	39.53
573.799	39.75
574.139	39.93
574.479	40.05
574.819	40.28
575.158	40.44
575.498	40.75
575.838	41.01
576.177	41.14
576.517	41.35
576.856	41.5
577.196	41.72
577.535	41.96
577.875	42.15
578.214	42.31
578.553	42.55
578.893	42.8
579.232	43.03
579.571	43.21
579.91	43.42
580.25	43.57
580.589	43.79
580.928	44
581.267	44.26
581.606	44.47
581.945	44.68
582.283	44.86
582.622	44.97
582.961	45.17
583.3	45.4
583.639	45.58
583.977	45.75
584.316	45.93
584.654	45.95
584.993	46.08
585.332	46.18
585.67	46.3
586.008	46.43
586.347	46.57
586.685	46.65
587.024	46.77
587.362	46.91
587.7	46.99
588.038	47.14
588.376	47.22
588.715	47.37
589.053	47.42
589.391	47.61
589.729	47.7
590.067	47.79
590.404	47.9
590.742	47.97
591.08	48.06
591.418	48.27
591.756	48.43
592.093	48.65
592.431	48.78
592.769	48.9
593.106	48.93
593.444	49
593.781	49.11
594.119	49.19
594.456	49.38
594.793	49.52
595.131	49.63
595.468	49.74
595.805	49.73
596.143	49.85
596.48	49.87
596.817	50
597.154	50.09
597.491	50.27
597.828	50.35
598.165	50.38
598.502	50.39
598.839	50.52
599.176	50.6
599.512	50.72
599.849	50.8
600.186	50.97
600.523	51.08
600.859	51.18
601.196	51.27
601.532	51.31
601.869	51.33
602.205	51.4
602.542	51.5
602.878	51.69
603.215	51.79
603.551	51.82
603.887	51.86
604.223	51.9
604.56	51.83
604.896	51.93
605.232	52.01
605.568	52.11
605.904	52.16
606.24	52.26
606.576	52.28
606.912	52.31
607.248	52.34
607.583	52.36
607.919	52.46
608.255	52.56
608.591	52.61
608.926	52.68
609.262	52.73
609.597	52.77
609.933	52.79
610.268	52.88
610.604	53.01
610.939	53.1
611.275	53.16
611.61	53.3
611.945	53.36
612.281	53.5
612.616	53.53
612.951	53.59
613.286	53.66
613.621	53.76
613.956	53.94
614.291	54.03
614.626	54.19
614.961	54.24
615.296	54.33
615.631	54.44
615.966	54.54
616.3	54.7
616.635	54.79
616.97	54.82
617.304	54.91
617.639	55.02
617.973	55.04
618.308	55.17
618.642	55.25
618.977	55.28
619.311	55.38
619.646	55.42
619.98	55.54
620.314	55.51
620.648	55.53
620.983	55.46
621.317	55.47
621.651	55.53
621.985	55.53
622.319	55.55
622.653	55.57
622.987	55.59
623.321	55.53
623.655	55.52
623.988	55.47
624.322	55.44
624.656	55.33
624.99	55.38
625.323	55.37
625.657	55.28
625.99	55.35
626.324	55.26
626.657	55.31
626.991	55.32
627.324	55.45
627.658	55.57
627.991	55.6
628.324	55.6
628.657	55.55
628.991	55.67
629.324	55.68
629.657	55.76
629.99	55.88
630.323	55.91
630.656	55.89
630.989	56.02
631.322	56.04
631.655	56.16
631.987	56.18
632.32	56.24
632.653	56.31
632.986	56.27
633.318	56.4
633.651	56.48
633.984	56.55
634.316	56.45
634.649	56.37
634.981	56.47
635.313	56.62
635.646	56.7
635.978	56.71
636.31	56.74
636.643	56.71
636.975	56.73
637.307	56.84
637.639	56.88
637.971	56.87
638.303	56.83
638.635	56.99
638.967	57.05
639.299	57.11
639.631	57.22
639.963	57.24
640.295	57.31
640.626	57.32
640.958	57.3
641.29	57.47
641.621	57.56
641.953	57.45
642.285	57.38
642.616	57.43
642.948	57.42
643.279	57.39
643.61	57.45
643.942	57.4
644.273	57.35
644.604	57.51
644.936	57.51
645.267	57.6
645.598	57.55
645.929	57.43
646.26	57.37
646.591	57.38
646.922	57.52
647.253	57.44
647.584	57.43
647.915	57.24
648.245	57.08
648.576	57.04
648.907	57.16
649.238	57.11
649.568	57.09
649.899	57.12
650.229	57.21
650.56	57.22
650.89	57.26
651.221	57.29
651.551	57.14
651.882	57.24
652.212	57.27
652.542	57.29
652.872	57.34
653.203	57.32
653.533	57.32
653.863	57.35
654.193	57.27
654.523	57.16
654.853	57.32
655.183	57.4
655.513	57.42
655.843	57.4
656.172	57.37
656.502	57.43
656.832	57.47
657.162	57.42
657.491	57.34
657.821	57.24
658.15	57.21
658.48	57.36
658.809	57.31
659.139	57.38
659.468	57.37
659.798	57.43
660.127	57.48
660.456	57.59
660.785	57.53
661.115	57.62
661.444	57.8
661.773	57.89
662.102	57.95
662.431	58.03
662.76	58.05
663.089	58.14
663.418	58.17
663.747	58.33
664.076	58.39
664.404	58.54
664.733	58.77
665.062	58.77
665.39	58.8
665.719	58.82
666.048	58.65
666.376	58.6
666.705	58.69
667.033	58.69
667.362	58.54
667.69	58.57
668.018	58.65
668.347	58.67
668.675	58.65
669.003	58.69
669.331	58.69
669.659	58.65
669.987	58.78
670.315	58.8
670.643	58.55
670.971	58.63
671.299	58.57
671.627	58.56
671.955	58.64
672.283	58.55
672.61	58.59
672.938	58.83
673.266	58.77
673.593	58.8
673.921	58.75
674.249	58.79
674.576	58.78
674.904	58.7
675.231	58.55
675.558	58.59
675.886	58.58
676.213	58.54
676.54	58.5
676.867	58.36
677.195	58.27
677.522	58.1
677.849	58.04
678.176	58.03
678.503	58.01
678.83	58.01
679.157	58.06
679.484	58.16
679.81	57.94
680.137	57.93
680.464	57.86
680.791	58.05
681.117	57.97
681.444	57.97
681.771	57.96
682.097	57.93
682.424	57.84
682.75	57.85
683.077	57.83
683.403	57.95
683.729	58.13
684.056	58.17
684.382	58.37
684.708	58.23
685.034	58.17
685.36	58.11
685.686	58.02
686.012	57.92
686.339	57.72
686.664	57.73
686.99	57.62
687.316	57.69
687.642	57.52
687.968	57.64
688.294	57.72
688.619	57.71
688.945	57.74
689.271	57.8
689.596	57.68
689.922	57.79
690.247	57.68
690.573	57.51
690.898	57.48
691.224	57.68
691.549	57.87
691.874	57.87
692.2	57.99
692.525	57.92
692.85	58.22
693.175	58.19
693.5	58.19
693.825	58.4
694.15	58.09
694.475	57.87
694.8	57.64
695.125	57.55
695.45	57.6
695.775	57.51
696.099	57.49
696.424	57.45
696.749	57.17
697.073	57.27
697.398	57.32
697.723	57.29
698.047	56.97
698.372	56.98
698.696	57.22
699.02	57.09
699.345	57.26
699.669	57.2
699.993	57.33
700.318	57.41
700.642	57.45
700.966	57.53
701.29	57.86
701.614	58.07
701.938	58.22
702.262	58.19
702.586	58.4
702.91	58.47
703.234	58.58
703.557	58.84
703.881	58.72
704.205	58.86
704.529	59
704.852	59.51
705.176	59.54
705.499	59.41
705.823	59.5
706.146	59.41
706.47	59.38
706.793	59.39
707.117	59.42
707.44	59.37
707.763	59.59
708.086	59.35
708.409	59.51
708.733	59.36
709.056	59.32
709.379	59.15
709.702	58.95
710.025	59.16
710.348	59.27
710.671	59.32
710.993	59.23
711.316	59.36
711.639	59.16
711.962	59.16
712.284	58.82
712.607	58.81
712.93	58.65
713.252	58.44
713.575	58.33
713.897	58.24
714.22	58.19
714.542	58.17
714.864	58.15
715.187	57.72
715.509	57.78
715.831	57.83
716.153	57.9
716.475	58.05
716.798	57.72
717.12	57.48
717.442	57.68
717.764	57.56
718.085	57.51
718.407	57.35
718.729	57.33
719.051	57.65
719.373	57.62
719.695	57.91
720.016	58.08
720.338	58.2
720.659	58.18
720.981	58.09
721.302	58.02
721.624	58.14
721.945	58.45
722.267	58.09
722.588	58.23
722.909	58.29
723.231	58.26
723.552	58.48
723.873	58.71
724.194	58.43
724.515	58.64
724.836	58.47
725.157	58.76
725.478	58.54
725.799	58.57
726.12	58.51
726.441	58.47
726.762	58.35
727.083	58.37
727.403	58.46
727.724	58.71
728.045	58.42
728.365	58.31
728.686	58.35
729.006	58.6
729.327	58.35
729.647	58.33
729.967	58.16
730.288	57.98
730.608	57.84
730.928	58.03
731.249	58.07
731.569	58.02
731.889	57.74
732.209	57.83
732.529	57.77
732.849	57.87
733.169	57.76
733.489	57.93
733.809	57.77
734.129	57.8
734.448	57.81
734.768	57.87
735.088	57.82
735.408	57.95
735.727	57.91
736.047	57.94
736.366	58.18
736.686	58.58
737.005	58.88
737.325	59.02
737.644	58.82
737.963	58.74
738.283	58.64
738.602	58.65
738.921	58.71
739.24	58.53
739.56	58.36
739.879	58.5
740.198	58.46
740.517	58.54
740.836	58.75
741.155	58.72
741.473	58.95
741.792	59.02
742.111	58.82
742.43	58.86
742.748	58.99
743.067	58.56
743.386	58.22
743.704	57.77
744.023	57.85
744.341	57.94
744.66	57.91
744.978	58.1
745.297	58.25
745.615	58.3
745.933	58.58
746.252	58.75
746.57	58.81
746.888	58.86
747.206	58.8
747.524	58.93
747.842	58.69
748.16	58.57
748.478	58.86
748.796	58.92
749.114	58.91
749.432	58.89
749.749	59.49
750.067	59.29
750.385	59.31
750.703	59.13
751.02	58.97
751.338	58.84
751.655	58.79
751.973	58.55
752.29	58.42
752.608	58.31
752.925	58.76
753.242	58.45
753.56	58.22
753.877	58.47
754.194	58.32
754.511	58.51
754.828	58.44
755.145	58.49
755.462	58.23
755.779	58.27
756.096	58.24
756.413	57.49
756.73	57.66
757.047	57.79
757.364	57.94
757.68	58.24
757.997	58.39
758.314	58.3
758.63	58.32
758.947	58.1
759.264	57.75
759.58	56.9
759.896	56.87
760.213	56.89
760.529	56.67
760.846	56.34
761.162	56.14
761.478	56.36
761.794	56.19
762.11	56.3
762.426	56.19
762.743	56.1
763.059	56.25
763.375	56.38
763.69	56.34
764.006	56.25
764.322	55.97
764.638	56.02
764.954	56.18
765.27	56.21
765.585	56.39
765.901	56.58
766.216	56.84
766.532	56.86
766.848	56.67
767.163	56.63
767.478	56.63
767.794	56.79
768.109	56.64
768.424	56.74
768.74	56.97
769.055	57.26
769.37	57.24
769.685	57.42
770	57.24
770.315	57.67
770.63	57.74
770.945	58.22
771.26	58.1
771.575	58.33
771.89	58.32
772.205	58.33
772.52	58.67
772.834	58.85
773.149	58.78
773.464	59.11
773.778	59.27
774.093	59.54
774.407	59.17
774.722	59.56
775.036	59.75
775.351	59.49
775.665	59.01
775.979	59.23
776.293	59.02
776.608	58.9
776.922	58.65
777.236	59.28
777.55	58.67
777.864	58.88
778.178	58.27
778.492	58.65
778.806	58.45
779.12	58.19
779.434	58.34
779.747	58.61
780.061	58.67
780.375	58.45
780.689	58.3
781.002	58.69
781.316	58.75
781.629	58.37
781.943	58.53
782.256	58.63
782.57	58.53
782.883	58.57
783.196	58.6
783.51	58.94
783.823	57.99
784.136	58.18
784.449	58.25
784.762	58.82
785.075	58.54
785.388	59.3
785.701	59.62
786.014	59.18
786.327	58.81
786.64	58.67
786.953	58.96
787.266	58.71
787.578	58.75
787.891	57.77
788.204	57.64
788.516	57.43
788.829	57.59
789.141	57.88
789.454	57.98
789.766	58.73
790.079	58.2
790.391	58.67
790.703	59.01
791.016	58.77
791.328	58.61
791.64	58.74
791.952	58.06
792.264	57.61
792.576	57.45
792.888	57.93
793.2	58.07
793.512	57.3
793.824	57.57
794.136	57.37
794.448	57.8
794.76	58.27
795.071	58
795.383	58.01
795.695	57.73
796.006	57.49
796.318	57.06
796.629	57.1
796.941	56.71
797.252	56.22
797.564	56.47
797.875	56.65
798.186	56.88
798.497	57.01
798.809	57.28
799.12	58.09
799.431	58.26
799.742	58.71
800.053	59.19
800.364	59.08
800.675	59.83
800.986	60.58
801.297	60.71
801.608	61.76
801.918	61.77
802.229	62.4
802.54	62.04
802.851	61.51
803.161	62.14
803.472	62.42
803.782	62.97
804.093	62.98
804.403	63.03
804.714	62.56
805.024	62.66
805.334	61.8
805.645	61.18
805.955	61.13
806.265	59.99
806.575	60.45
806.885	59.82
807.195	59.49
807.505	58.25
807.815	57.59
808.125	56.77
808.435	56.57
808.745	55.1
809.055	55.96
809.365	56.56
809.674	56.03
809.984	55.66
810.294	55.55
810.603	55.32
810.913	55.03
811.222	55.35
811.532	55.62
811.841	55.85
812.151	55.89
812.46	55.72
812.769	56.66
813.079	56.43
813.388	56.92
813.697	56.11
814.006	56.48
814.315	56.82
814.624	57.49
814.933	57.65
815.242	58.72
815.551	58.75
815.86	59.24
816.169	59.69
816.478	59.51
816.786	59.2
817.095	59.1
817.404	59.36
817.712	58.64
818.021	59.1
818.33	58.63
818.638	58.62
818.947	57.94
819.255	57.44
819.563	57.17
819.872	57.2
820.18	57.04
820.488	56.9
820.796	56.66
821.105	56.3
821.413	56.3
821.721	56.15
822.029	55.98
822.337	55.64
822.645	55.68
822.953	55.65
823.26	55.82
823.568	55.83
823.876	55.62
824.184	55.56
824.491	55.27
824.799	55.5
825.107	55.49
825.414	55.62
825.722	55.57
826.029	55.8
826.337	55.67
826.644	55.8
826.951	56.06
827.259	56.23
827.566	56.34
827.873	56.27
828.18	56.43
828.488	56.57
828.795	56.91
829.102	56.55
829.409	56.65
829.716	56.35
830.023	56.2
830.329	55.92
830.636	56.29
830.943	56.53
831.25	56.45
831.557	56.07
831.863	55.86
832.17	56.42
832.476	55.86
832.783	55.85
833.089	55.99
833.396	55.9
833.702	56
834.009	56.28
834.315	56.57
834.621	56.42
834.928	56.63
835.234	56.3
835.54	56.58
835.846	56.58
836.152	56.89
836.458	56.53
836.764	57.52
837.07	57.95
837.376	57.91
837.682	57.88
837.988	58.34
838.293	59.06
838.599	58.56
838.905	58.86
839.211	59.37
839.516	58.99
839.822	58.68
840.127	57.48
840.433	57.01
840.738	56.03
841.044	55.8
841.349	55.59
841.654	55.25
841.959	56.28
842.265	57.52
842.57	58.18
842.875	59.07
843.18	58.72
843.485	58.55
843.79	58.27
844.095	58.67
844.4	59.06
844.705	59.11
845.01	58.79
845.315	59.07
845.619	60.17
845.924	59.51
846.229	60.32
846.533	60.97
846.838	60.93
847.142	61.62
847.447	62.88
847.751	63.2
848.056	64.23
848.36	64.99
848.664	62.77
848.969	64.27
849.273	64.74
849.577	66.72
849.881	67.51
850.185	67.31
850.489	68.13
850.794	67.42
851.097	66.5
851.401	66.84
851.705	65.19
852.009	63.24
852.313	67.29
852.617	67.37
852.92	70.53
853.224	71.07
853.528	74.15
853.831	74.11
854.135	72.95
854.438	70.82
854.742	67.77
855.045	68.19
855.349	65.32
855.652	64.21
855.955	62.11
856.259	60.91
856.562	60.66
856.865	60.97
857.168	61.4
857.471	61.11
857.774	61.59
858.077	61.33
858.38	61.75
858.683	59.48
858.986	61.28
859.289	58.44
859.592	60.21
859.894	59.97
860.197	60.24
860.5	61.05
860.802	62.35
861.105	62.19
861.407	62.38
861.71	62.78
862.012	65.01
862.315	64.05
862.617	61.76
862.919	61.36
863.222	58.41
863.524	59.69
863.826	58.95
864.128	60.55
864.43	63.34
864.732	63.77
865.034	64.36
865.336	63.65
865.638	65.71
865.94	64.01
866.242	63.99
866.544	63.3
866.846	64.88
867.147	68.41
867.449	70.77
867.751	70.86
868.052	70.17
868.354	69.03
868.655	66.64
868.957	68.32
869.258	69.94
869.56	76.31
869.861	73.15
870.162	73.39
870.463	69.75
870.765	69.94
871.066	69.68
871.367	66.9
871.668	64.5
871.969	65.78
872.27	63.67
872.571	62.35
872.872	62.56
873.173	58.13
873.473	55.61
873.774	53
874.075	51.66
874.376	52.36
874.676	53.94
874.977	57.29
875.277	58.59
875.578	58.92
875.878	54.01
876.179	55.76
876.479	55.69
876.78	58.6
877.08	57.61
877.38	57.87
877.68	61.26
877.981	61.54
878.281	58.1
878.581	60.33
