Data from BA28417_Reflection_00006.txt Node
Date: Mon Nov 18 16:11:07 EST 2019
User: vgr7
Spectrometer: USB2G7710
Scans to average: 3
Trigger mode: 4
Integration Time (sec): 2.000000E-2
Electric dark correction enabled: true
Boxcar width: 10
XAxis mode: Wavelengths
Number of Pixels in Spectrum: 2048
>>>>>Begin Spectral Data<<<<<
177.721	-83.65
178.105	-95.47
178.488	-17.39
178.871	18.28
179.254	91.99
179.636	40.94
180.019	74.17
180.402	90.48
180.785	-401.13
181.168	4247.06
181.55	247.84
181.933	21.4
182.316	53.71
182.698	50.79
183.081	25.26
183.463	-34.38
183.846	-20.26
184.228	-84.37
184.611	-99.08
184.993	-230.06
185.376	-515.97
185.758	-545.42
186.14	-383.22
186.522	65.76
186.904	255.62
187.287	325.47
187.669	-1191.14
188.051	-195.69
188.433	-76.31
188.815	-46.09
189.197	-75.45
189.579	-91.39
189.961	-102.8
190.342	-78.8
190.724	-51.37
191.106	-84.96
191.488	-105.59
191.869	-74.82
192.251	-96.23
192.633	-116.19
193.014	-200.66
193.396	-467
193.777	-271.88
194.159	-184.82
194.54	-60.04
194.922	-43.54
195.303	-34.65
195.684	-29.85
196.065	-26.97
196.447	-11.08
196.828	-32.41
197.209	-37.96
197.59	-67.65
197.971	-57.52
198.352	-44.91
198.733	-53.21
199.114	-45.94
199.495	-43.57
199.876	-57.3
200.257	-47.01
200.638	-29.5
201.018	-45.33
201.399	-31.42
201.78	-29.05
202.16	-46.05
202.541	-72.54
202.922	-85.06
203.302	-89.96
203.683	-112.83
204.063	-114.19
204.444	-135
204.824	-137.03
205.204	-100.38
205.585	-101.84
205.965	-87.43
206.345	-103.8
206.725	-130.66
207.106	-141.18
207.486	-254.35
207.866	-189.03
208.246	-153.26
208.626	-184.37
209.006	-109.07
209.386	-180.72
209.766	-190.38
210.145	-130.03
210.525	-101.59
210.905	-80.52
211.285	-96.47
211.664	-79.23
212.044	-85.38
212.424	-117.24
212.803	-120.81
213.183	-101.56
213.562	-68.51
213.942	-62.16
214.321	-63.4
214.701	-78.05
215.08	-98.17
215.459	-42.58
215.838	-52.12
216.218	-56.8
216.597	-24.04
216.976	-72.94
217.355	-43.57
217.734	-58.83
218.113	-77.48
218.492	-98
218.871	-182.85
219.25	-174.62
219.629	-193.13
220.008	-446.92
220.387	-376.53
220.766	-1075.26
221.144	1139.11
221.523	610.26
221.902	558.23
222.28	434
222.659	215.57
223.037	5394.12
223.416	3674.47
223.794	-240.65
224.173	-140.56
224.551	-105.17
224.929	-53.93
225.308	-52.8
225.686	-29.33
226.064	-11.29
226.442	-11.1
226.821	-9.01
227.199	-8.75
227.577	-13.23
227.955	-10.31
228.333	-12.58
228.711	-11.27
229.089	-6.77
229.467	-9.26
229.845	-10.93
230.222	-9.43
230.6	-8.76
230.978	-8.27
231.356	-4.49
231.733	-3.76
232.111	-3.6
232.488	-0.69
232.866	-0.95
233.243	0.26
233.621	-3.39
233.998	-3.1
234.376	-2.01
234.753	-1.83
235.13	-1.52
235.508	2.02
235.885	1.74
236.262	2.86
236.639	4.02
237.016	3.61
237.393	3.5
237.77	6.13
238.147	6.4
238.524	5.75
238.901	6.47
239.278	6.2
239.655	6.73
240.032	6.77
240.409	6
240.785	6.31
241.162	6.28
241.539	6.49
241.915	6.25
242.292	5.61
242.668	5.74
243.045	5.95
243.421	5.37
243.798	5.43
244.174	5.39
244.551	5.31
244.927	5.08
245.303	5.29
245.679	5.01
246.056	4.93
246.432	4.89
246.808	4.52
247.184	4.36
247.56	4.09
247.936	3.73
248.312	3.76
248.688	3.82
249.064	3.76
249.44	3.9
249.815	3.83
250.191	4.25
250.567	4.29
250.943	4.01
251.318	4.19
251.694	4.19
252.069	4.09
252.445	3.94
252.82	4.05
253.196	3.76
253.571	3.62
253.947	3.83
254.322	3.86
254.697	3.9
255.073	3.82
255.448	3.8
255.823	4.05
256.198	4.12
256.573	4.07
256.948	4.2
257.323	4.15
257.698	4.19
258.073	3.99
258.448	3.95
258.823	3.99
259.198	3.89
259.573	3.79
259.948	3.92
260.322	4.04
260.697	4.05
261.072	4.08
261.446	4.15
261.821	3.95
262.195	4.08
262.57	3.92
262.944	3.84
263.319	3.85
263.693	3.81
264.067	3.84
264.442	3.85
264.816	3.74
265.19	3.67
265.564	3.7
265.938	3.61
266.313	3.54
266.687	3.6
267.061	3.59
267.435	3.61
267.809	3.45
268.183	3.28
268.556	3.3
268.93	3.51
269.304	3.64
269.678	3.61
270.051	3.49
270.425	3.75
270.799	3.92
271.172	3.98
271.546	4.02
271.919	3.8
272.293	3.78
272.666	3.84
273.04	3.88
273.413	3.79
273.787	3.84
274.16	3.88
274.533	3.91
274.906	3.96
275.279	3.97
275.653	4.24
276.026	4.15
276.399	4.14
276.772	4.08
277.145	3.77
277.518	3.99
277.891	4.02
278.263	3.95
278.636	3.93
279.009	3.93
279.382	4.2
279.755	4.29
280.127	4.36
280.5	4.27
280.872	4.38
281.245	4.3
281.617	4.31
281.99	4.34
282.362	4.35
282.735	4.22
283.107	4.26
283.479	4.08
283.852	4.12
284.224	4.15
284.596	4.08
284.968	4.08
285.34	3.89
285.713	3.82
286.085	3.85
286.457	3.95
286.829	3.86
287.201	3.71
287.572	3.62
287.944	3.45
288.316	3.55
288.688	3.41
289.06	3.48
289.431	3.43
289.803	3.45
290.175	3.4
290.546	3.55
290.918	3.55
291.289	3.51
291.661	3.56
292.032	3.59
292.403	3.55
292.775	3.75
293.146	3.8
293.517	3.97
293.889	4.08
294.26	4.02
294.631	4.17
295.002	4.05
295.373	4.21
295.744	4.35
296.115	4.28
296.486	4.31
296.857	4.24
297.228	4.29
297.599	4.2
297.97	4.22
298.34	4.17
298.711	4.21
299.082	4.24
299.452	4.29
299.823	4.24
300.194	4.28
300.564	4.25
300.935	4.36
301.305	4.26
301.676	4.22
302.046	4.08
302.416	4.18
302.787	4.31
303.157	4.32
303.527	4.29
303.897	4.32
304.267	4.35
304.637	4.4
305.008	4.5
305.378	4.6
305.748	4.64
306.117	4.52
306.487	4.44
306.857	4.44
307.227	4.33
307.597	4.22
307.967	4.2
308.336	4.03
308.706	3.9
309.076	3.9
309.445	3.81
309.815	4
310.184	3.81
310.554	3.74
310.923	3.66
311.293	3.6
311.662	3.57
312.031	3.56
312.401	3.63
312.77	3.55
313.139	3.49
313.508	3.38
313.877	3.42
314.246	3.45
314.616	3.46
314.985	3.43
315.353	3.49
315.722	3.51
316.091	3.42
316.46	3.35
316.829	3.47
317.198	3.42
317.567	3.27
317.935	3.31
318.304	3.34
318.672	3.41
319.041	3.4
319.41	3.36
319.778	3.36
320.147	3.41
320.515	3.32
320.883	3.16
321.252	3.3
321.62	3.24
321.988	3.18
322.357	3.14
322.725	3.17
323.093	3.2
323.461	3.38
323.829	3.68
324.197	3.75
324.565	3.78
324.933	3.89
325.301	3.94
325.669	3.95
326.037	3.87
326.405	3.84
326.772	3.89
327.14	3.99
327.508	3.95
327.875	3.81
328.243	3.98
328.61	4.09
328.978	3.97
329.346	4.12
329.713	4.02
330.08	4.02
330.448	3.98
330.815	3.92
331.182	3.87
331.55	3.7
331.917	3.9
332.284	3.77
332.651	3.74
333.018	3.92
333.385	3.87
333.752	3.92
334.119	3.97
334.486	3.88
334.853	3.73
335.22	3.76
335.587	3.79
335.954	3.7
336.32	3.79
336.687	3.93
337.054	3.8
337.42	3.93
337.787	4.02
338.153	4.01
338.52	4.17
338.886	3.91
339.253	3.96
339.619	3.83
339.986	3.88
340.352	3.94
340.718	3.71
341.084	3.76
341.451	3.79
341.817	3.79
342.183	3.76
342.549	3.82
342.915	3.82
343.281	3.81
343.647	3.79
344.013	3.73
344.379	3.61
344.745	3.64
345.11	3.69
345.476	3.66
345.842	3.68
346.208	3.59
346.573	3.77
346.939	3.85
347.304	3.79
347.67	3.67
348.035	3.59
348.401	3.68
348.766	3.64
349.132	3.62
349.497	3.58
349.862	3.68
350.228	3.68
350.593	3.65
350.958	3.73
351.323	3.76
351.688	3.7
352.053	3.8
352.418	3.85
352.783	3.77
353.148	3.76
353.513	3.77
353.878	3.76
354.243	3.87
354.608	3.73
354.972	3.75
355.337	3.93
355.702	4.04
356.066	4.14
356.431	4.14
356.795	4.14
357.16	4.05
357.524	3.97
357.889	3.98
358.253	4.03
358.618	4.04
358.982	3.98
359.346	4.01
359.71	3.96
360.075	4.01
360.439	4.02
360.803	4
361.167	3.99
361.531	3.96
361.895	3.87
362.259	3.91
362.623	3.91
362.987	3.8
363.351	3.69
363.714	3.65
364.078	3.67
364.442	3.63
364.806	3.66
365.169	3.72
365.533	3.75
365.896	3.73
366.26	3.64
366.623	3.7
366.987	3.72
367.35	3.78
367.714	3.73
368.077	3.71
368.44	3.69
368.803	3.68
369.167	3.68
369.53	3.64
369.893	3.66
370.256	3.67
370.619	3.7
370.982	3.71
371.345	3.63
371.708	3.65
372.071	3.67
372.434	3.7
372.797	3.66
373.159	3.62
373.522	3.6
373.885	3.67
374.247	3.66
374.61	3.65
374.973	3.56
375.335	3.59
375.698	3.61
376.06	3.67
376.423	3.72
376.785	3.76
377.147	3.81
377.51	3.81
377.872	3.86
378.234	3.94
378.596	3.98
378.958	3.98
379.321	3.94
379.683	3.95
380.045	3.93
380.407	3.94
380.769	3.99
381.13	3.94
381.492	3.94
381.854	3.93
382.216	3.91
382.578	3.94
382.939	3.91
383.301	3.94
383.663	3.88
384.024	3.82
384.386	3.83
384.747	3.84
385.109	3.83
385.47	3.76
385.832	3.77
386.193	3.79
386.554	3.83
386.916	3.83
387.277	3.85
387.638	3.9
387.999	3.9
388.36	3.84
388.721	3.89
389.082	3.87
389.443	3.84
389.804	3.83
390.165	3.87
390.526	3.84
390.887	3.83
391.248	3.86
391.609	3.87
391.969	3.87
392.33	3.85
392.691	3.88
393.051	3.89
393.412	3.84
393.772	3.79
394.133	3.77
394.493	3.79
394.854	3.78
395.214	3.78
395.574	3.78
395.935	3.79
396.295	3.8
396.655	3.76
397.015	3.77
397.376	3.78
397.736	3.74
398.096	3.74
398.456	3.73
398.816	3.7
399.176	3.71
399.535	3.68
399.895	3.7
400.255	3.66
400.615	3.64
400.975	3.64
401.334	3.66
401.694	3.68
402.054	3.64
402.413	3.63
402.773	3.63
403.132	3.62
403.492	3.6
403.851	3.59
404.211	3.63
404.57	3.64
404.929	3.68
405.288	3.69
405.648	3.71
406.007	3.73
406.366	3.75
406.725	3.77
407.084	3.79
407.443	3.78
407.802	3.81
408.161	3.82
408.52	3.82
408.879	3.8
409.238	3.79
409.596	3.82
409.955	3.82
410.314	3.82
410.673	3.82
411.031	3.83
411.39	3.84
411.748	3.82
412.107	3.84
412.465	3.79
412.824	3.78
413.182	3.74
413.54	3.72
413.899	3.71
414.257	3.69
414.615	3.68
414.974	3.66
415.332	3.67
415.69	3.66
416.048	3.69
416.406	3.71
416.764	3.7
417.122	3.69
417.48	3.68
417.838	3.67
418.195	3.69
418.553	3.7
418.911	3.71
419.269	3.72
419.626	3.73
419.984	3.73
420.342	3.74
420.699	3.74
421.057	3.75
421.414	3.74
421.772	3.74
422.129	3.75
422.486	3.75
422.844	3.74
423.201	3.73
423.558	3.74
423.915	3.73
424.273	3.74
424.63	3.75
424.987	3.75
425.344	3.75
425.701	3.75
426.058	3.74
426.415	3.73
426.772	3.72
427.128	3.71
427.485	3.71
427.842	3.7
428.199	3.72
428.555	3.72
428.912	3.74
429.269	3.75
429.625	3.74
429.982	3.73
430.338	3.74
430.695	3.73
431.051	3.7
431.407	3.69
431.764	3.69
432.12	3.68
432.476	3.68
432.832	3.69
433.189	3.69
433.545	3.71
433.901	3.71
434.257	3.69
434.613	3.69
434.969	3.7
435.325	3.71
435.681	3.69
436.036	3.69
436.392	3.69
436.748	3.68
437.104	3.67
437.459	3.67
437.815	3.67
438.171	3.7
438.526	3.71
438.882	3.73
439.237	3.72
439.593	3.71
439.948	3.71
440.304	3.7
440.659	3.7
441.014	3.69
441.369	3.68
441.725	3.67
442.08	3.68
442.435	3.67
442.79	3.66
443.145	3.68
443.5	3.68
443.855	3.68
444.21	3.67
444.565	3.68
444.92	3.69
445.275	3.68
445.629	3.68
445.984	3.67
446.339	3.67
446.693	3.67
447.048	3.68
447.403	3.68
447.757	3.67
448.112	3.66
448.466	3.66
448.82	3.68
449.175	3.68
449.529	3.68
449.883	3.68
450.238	3.67
450.592	3.66
450.946	3.65
451.3	3.64
451.654	3.63
452.008	3.64
452.362	3.62
452.716	3.62
453.07	3.63
453.424	3.62
453.778	3.62
454.132	3.63
454.486	3.61
454.839	3.61
455.193	3.62
455.547	3.63
455.9	3.63
456.254	3.63
456.607	3.64
456.961	3.63
457.314	3.64
457.668	3.63
458.021	3.61
458.375	3.63
458.728	3.66
459.081	3.69
459.434	3.68
459.787	3.71
460.141	3.71
460.494	3.71
460.847	3.72
461.2	3.71
461.553	3.73
461.906	3.73
462.259	3.72
462.611	3.73
462.964	3.74
463.317	3.74
463.67	3.75
464.022	3.75
464.375	3.74
464.728	3.74
465.08	3.75
465.433	3.77
465.785	3.78
466.138	3.75
466.49	3.72
466.843	3.72
467.195	3.7
467.547	3.7
467.899	3.69
468.252	3.68
468.604	3.67
468.956	3.67
469.308	3.67
469.66	3.66
470.012	3.66
470.364	3.66
470.716	3.65
471.068	3.65
471.42	3.65
471.772	3.68
472.123	3.69
472.475	3.7
472.827	3.71
473.178	3.69
473.53	3.71
473.882	3.71
474.233	3.71
474.585	3.72
474.936	3.73
475.288	3.73
475.639	3.74
475.99	3.75
476.342	3.76
476.693	3.76
477.044	3.79
477.395	3.79
477.746	3.8
478.097	3.82
478.448	3.83
478.8	3.82
479.15	3.78
479.501	3.78
479.852	3.78
480.203	3.76
480.554	3.78
480.905	3.78
481.255	3.78
481.606	3.79
481.957	3.79
482.307	3.79
482.658	3.8
483.009	3.8
483.359	3.8
483.709	3.81
484.06	3.8
484.41	3.81
484.761	3.81
485.111	3.81
485.461	3.79
485.811	3.79
486.162	3.79
486.512	3.81
486.862	3.82
487.212	3.82
487.562	3.83
487.912	3.83
488.262	3.84
488.612	3.85
488.961	3.85
489.311	3.86
489.661	3.86
490.011	3.87
490.36	3.86
490.71	3.86
491.06	3.86
491.409	3.87
491.759	3.86
492.108	3.87
492.458	3.87
492.807	3.87
493.157	3.88
493.506	3.89
493.855	3.89
494.204	3.86
494.554	3.86
494.903	3.85
495.252	3.85
495.601	3.84
495.95	3.82
496.299	3.82
496.648	3.81
496.997	3.81
497.346	3.79
497.695	3.79
498.043	3.78
498.392	3.8
498.741	3.81
499.09	3.83
499.438	3.82
499.787	3.84
500.135	3.88
500.484	3.88
500.832	3.89
501.181	3.89
501.529	3.93
501.878	3.94
502.226	3.96
502.574	3.99
502.923	3.99
503.271	4
503.619	4.02
503.967	4.04
504.315	4.04
504.663	4.08
505.011	4.11
505.359	4.12
505.707	4.14
506.055	4.14
506.403	4.13
506.751	4.16
507.098	4.16
507.446	4.17
507.794	4.17
508.141	4.17
508.489	4.19
508.837	4.17
509.184	4.2
509.531	4.21
509.879	4.23
510.226	4.25
510.574	4.27
510.921	4.26
511.268	4.27
511.616	4.28
511.963	4.26
512.31	4.25
512.657	4.28
513.004	4.27
513.351	4.28
513.698	4.29
514.045	4.26
514.392	4.27
514.739	4.28
515.086	4.28
515.432	4.28
515.779	4.28
516.126	4.3
516.473	4.29
516.819	4.3
517.166	4.29
517.512	4.29
517.859	4.29
518.205	4.3
518.552	4.31
518.898	4.33
519.245	4.35
519.591	4.36
519.937	4.34
520.283	4.34
520.629	4.34
520.976	4.35
521.322	4.38
521.668	4.37
522.014	4.38
522.36	4.38
522.706	4.4
523.052	4.41
523.398	4.42
523.743	4.43
524.089	4.42
524.435	4.43
524.781	4.43
525.126	4.45
525.472	4.46
525.817	4.47
526.163	4.46
526.509	4.46
526.854	4.45
527.199	4.46
527.545	4.47
527.89	4.48
528.235	4.48
528.581	4.48
528.926	4.49
529.271	4.49
529.616	4.49
529.961	4.49
530.306	4.49
530.651	4.48
530.996	4.48
531.341	4.49
531.686	4.5
532.031	4.5
532.376	4.49
532.721	4.49
533.065	4.49
533.41	4.5
533.755	4.5
534.099	4.5
534.444	4.51
534.788	4.51
535.133	4.51
535.477	4.51
535.822	4.5
536.166	4.5
536.51	4.49
536.855	4.5
537.199	4.51
537.543	4.5
537.887	4.51
538.231	4.5
538.576	4.49
538.92	4.48
539.264	4.48
539.608	4.49
539.951	4.48
540.295	4.49
540.639	4.5
540.983	4.51
541.327	4.53
541.671	4.51
542.014	4.51
542.358	4.5
542.701	4.5
543.045	4.52
543.389	4.52
543.732	4.53
544.075	4.52
544.419	4.52
544.762	4.54
545.105	4.56
545.449	4.58
545.792	4.59
546.135	4.62
546.478	4.64
546.821	4.62
547.165	4.61
547.508	4.61
547.851	4.62
548.194	4.62
548.536	4.61
548.879	4.64
549.222	4.64
549.565	4.65
549.908	4.64
550.25	4.63
550.593	4.65
550.936	4.64
551.278	4.63
551.621	4.62
551.963	4.61
552.306	4.59
552.648	4.59
552.991	4.6
553.333	4.56
553.675	4.55
554.017	4.58
554.36	4.57
554.702	4.57
555.044	4.57
555.386	4.55
555.728	4.55
556.07	4.57
556.412	4.53
556.754	4.54
557.096	4.55
557.438	4.56
557.78	4.55
558.121	4.56
558.463	4.58
558.805	4.59
559.147	4.57
559.488	4.59
559.83	4.6
560.171	4.59
560.513	4.62
560.854	4.59
561.196	4.59
561.537	4.6
561.878	4.59
562.22	4.57
562.561	4.55
562.902	4.58
563.243	4.57
563.584	4.6
563.925	4.61
564.266	4.6
564.607	4.61
564.948	4.6
565.289	4.59
565.63	4.59
565.971	4.61
566.312	4.63
566.653	4.61
566.993	4.59
567.334	4.6
567.675	4.62
568.015	4.64
568.356	4.63
568.696	4.66
569.037	4.67
569.377	4.69
569.718	4.73
570.058	4.71
570.398	4.71
570.739	4.7
571.079	4.7
571.419	4.71
571.759	4.71
572.099	4.72
572.439	4.75
572.779	4.76
573.119	4.77
573.459	4.8
573.799	4.83
574.139	4.84
574.479	4.84
574.819	4.84
575.158	4.85
575.498	4.86
575.838	4.85
576.177	4.82
576.517	4.84
576.856	4.83
577.196	4.82
577.535	4.8
577.875	4.83
578.214	4.83
578.553	4.86
578.893	4.85
579.232	4.85
579.571	4.86
579.91	4.84
580.25	4.82
580.589	4.76
580.928	4.74
581.267	4.75
581.606	4.74
581.945	4.73
582.283	4.69
582.622	4.71
582.961	4.75
583.3	4.78
583.639	4.77
583.977	4.77
584.316	4.74
584.654	4.77
584.993	4.75
585.332	4.76
585.67	4.75
586.008	4.77
586.347	4.74
586.685	4.71
587.024	4.74
587.362	4.77
587.7	4.78
588.038	4.82
588.376	4.87
588.715	4.84
589.053	4.84
589.391	4.89
589.729	4.93
590.067	4.88
590.404	4.86
590.742	4.86
591.08	4.85
591.418	4.88
591.756	4.91
592.093	4.95
592.431	4.94
592.769	4.96
593.106	4.95
593.444	4.97
593.781	4.96
594.119	4.95
594.456	4.92
594.793	4.91
595.131	4.87
595.468	4.84
595.805	4.86
596.143	4.87
596.48	4.84
596.817	4.8
597.154	4.82
597.491	4.8
597.828	4.81
598.165	4.77
598.502	4.78
598.839	4.78
599.176	4.75
599.512	4.73
599.849	4.75
600.186	4.75
600.523	4.75
600.859	4.81
601.196	4.82
601.532	4.82
601.869	4.84
602.205	4.84
602.542	4.85
602.878	4.87
603.215	4.85
603.551	4.87
603.887	4.88
604.223	4.89
604.56	4.94
604.896	4.92
605.232	4.98
605.568	5.02
605.904	5.01
606.24	5.01
606.576	5.05
606.912	5.06
607.248	5.08
607.583	5.07
607.919	5.03
608.255	5.03
608.591	5.06
608.926	5.06
609.262	5.11
609.597	5.1
609.933	5.07
610.268	5.08
610.604	5.04
610.939	5.04
611.275	5.06
611.61	5.05
611.945	5.07
612.281	5.07
612.616	5.04
612.951	5.04
613.286	5.05
613.621	5.01
613.956	4.98
614.291	4.94
614.626	4.96
614.961	4.96
615.296	4.9
615.631	4.91
615.966	4.9
616.3	4.82
616.635	4.87
616.97	4.9
617.304	4.91
617.639	4.96
617.973	4.97
618.308	4.94
618.642	4.95
618.977	4.92
619.311	4.89
619.646	4.84
619.98	4.84
620.314	4.85
620.648	4.91
620.983	4.96
621.317	4.97
621.651	4.95
621.985	4.99
622.319	5.04
622.653	5.04
622.987	5.09
623.321	5.14
623.655	5.15
623.988	5.17
624.322	5.17
624.656	5.23
624.99	5.25
625.323	5.26
625.657	5.28
625.99	5.3
626.324	5.28
626.657	5.32
626.991	5.33
627.324	5.31
627.658	5.3
627.991	5.25
628.324	5.24
628.657	5.24
628.991	5.28
629.324	5.3
629.657	5.31
629.99	5.29
630.323	5.26
630.656	5.23
630.989	5.23
631.322	5.26
631.655	5.21
631.987	5.19
632.32	5.21
632.653	5.14
632.986	5.2
633.318	5.22
633.651	5.23
633.984	5.24
634.316	5.26
634.649	5.24
634.981	5.23
635.313	5.22
635.646	5.24
635.978	5.2
636.31	5.2
636.643	5.21
636.975	5.22
637.307	5.22
637.639	5.23
637.971	5.21
638.303	5.18
638.635	5.1
638.967	5.11
639.299	5.08
639.631	5.11
639.963	4.99
640.295	5.09
640.626	5.15
640.958	5.18
641.29	5.15
641.621	5.18
641.953	5.18
642.285	5.24
642.616	5.3
642.948	5.29
643.279	5.31
643.61	5.29
643.942	5.27
644.273	5.31
644.604	5.32
644.936	5.33
645.267	5.34
645.598	5.38
645.929	5.34
646.26	5.39
646.591	5.42
646.922	5.46
647.253	5.43
647.584	5.36
647.915	5.29
648.245	5.25
648.576	5.26
648.907	5.32
649.238	5.29
649.568	5.23
649.899	5.19
650.229	5.18
650.56	5.17
650.89	5.19
651.221	5.15
651.551	5.15
651.882	5.16
652.212	5.13
652.542	5.19
652.872	5.14
653.203	5.13
653.533	5.08
653.863	5.1
654.193	5.01
654.523	5.08
654.853	5.13
655.183	5.17
655.513	5.18
655.843	5.16
656.172	5.14
656.502	5.21
656.832	5.26
657.162	5.27
657.491	5.27
657.821	5.28
658.15	5.25
658.48	5.27
658.809	5.24
659.139	5.26
659.468	5.23
659.798	5.28
660.127	5.28
660.456	5.27
660.785	5.28
661.115	5.33
661.444	5.29
661.773	5.29
662.102	5.3
662.431	5.23
662.76	5.29
663.089	5.3
663.418	5.25
663.747	5.16
664.076	5.12
664.404	5.11
664.733	5.15
665.062	5.2
665.39	5.19
665.719	5.17
666.048	5.24
666.376	5.27
666.705	5.27
667.033	5.26
667.362	5.3
667.69	5.38
668.018	5.34
668.347	5.32
668.675	5.33
669.003	5.44
669.331	5.52
669.659	5.41
669.987	5.45
670.315	5.5
670.643	5.54
670.971	5.59
671.299	5.63
671.627	5.61
671.955	5.6
672.283	5.6
672.61	5.65
672.938	5.66
673.266	5.66
673.593	5.69
673.921	5.75
674.249	5.73
674.576	5.74
674.904	5.85
675.231	5.84
675.558	5.76
675.886	5.67
676.213	5.65
676.54	5.75
676.867	5.73
677.195	5.69
677.522	5.7
677.849	5.67
678.176	5.68
678.503	5.62
678.83	5.61
679.157	5.61
679.484	5.58
679.81	5.55
680.137	5.49
680.464	5.51
680.791	5.45
681.117	5.49
681.444	5.39
681.771	5.34
682.097	5.39
682.424	5.45
682.75	5.39
683.077	5.36
683.403	5.36
683.729	5.35
684.056	5.33
684.382	5.41
684.708	5.45
685.034	5.43
685.36	5.49
685.686	5.5
686.012	5.53
686.339	5.67
686.664	5.69
686.99	5.67
687.316	5.59
687.642	5.7
687.968	5.65
688.294	5.75
688.619	5.78
688.945	5.69
689.271	5.61
689.596	5.69
689.922	5.79
690.247	5.72
690.573	5.82
690.898	5.8
691.224	5.78
691.549	5.8
691.874	5.8
692.2	5.84
692.525	5.85
692.85	5.85
693.175	5.73
693.5	5.76
693.825	5.87
694.15	5.9
694.475	5.81
694.8	5.94
695.125	5.8
695.45	5.8
695.775	5.93
696.099	6
696.424	6
696.749	5.92
697.073	6.03
697.398	5.9
697.723	5.99
698.047	5.98
698.372	5.88
698.696	5.86
699.02	5.88
699.345	5.91
699.669	5.94
699.993	5.95
700.318	5.89
700.642	5.84
700.966	5.94
701.29	6
701.614	5.96
701.938	6.07
702.262	6.11
702.586	6.14
702.91	6.08
703.234	6.16
703.557	6.28
703.881	6.16
704.205	6.2
704.529	6.08
704.852	6.12
705.176	6.34
705.499	6.39
705.823	6.31
706.146	6.35
706.47	6.44
706.793	6.38
707.117	6.35
707.44	6.34
707.763	6.33
708.086	6.18
708.409	6.22
708.733	6.2
709.056	6.13
709.379	6.01
709.702	5.91
710.025	5.84
710.348	5.67
710.671	5.7
710.993	5.84
711.316	5.92
711.639	5.91
711.962	5.89
712.284	6
712.607	5.98
712.93	5.91
713.252	5.82
713.575	5.91
713.897	5.92
714.22	5.93
714.542	5.84
714.864	5.91
715.187	5.82
715.509	5.8
715.831	5.86
716.153	5.94
716.475	6.16
716.798	6.31
717.12	6.36
717.442	6.46
717.764	6.36
718.085	6.27
718.407	6.27
718.729	6.2
719.051	6.15
719.373	6.15
719.695	6.06
720.016	6.14
720.338	6.05
720.659	6.29
720.981	6.26
721.302	6.21
721.624	6.18
721.945	6.34
722.267	6.41
722.588	6.33
722.909	6.31
723.231	6.26
723.552	6.12
723.873	6.12
724.194	6.1
724.515	5.96
724.836	5.99
725.157	6.08
725.478	6.1
725.799	6.19
726.12	6.22
726.441	6.39
726.762	6.41
727.083	6.6
727.403	6.45
727.724	6.52
728.045	6.71
728.365	6.69
728.686	6.58
729.006	6.54
729.327	6.46
729.647	6.46
729.967	6.5
730.288	6.55
730.608	6.55
730.928	6.42
731.249	6.56
731.569	6.6
731.889	6.55
732.209	6.56
732.529	6.48
732.849	6.51
733.169	6.42
733.489	6.43
733.809	6.39
734.129	6.55
734.448	6.65
734.768	6.59
735.088	6.75
735.408	6.69
735.727	6.76
736.047	6.95
736.366	6.87
736.686	6.89
737.005	7.23
737.325	7.3
737.644	7.46
737.963	7.54
738.283	7.55
738.602	7.66
738.921	7.66
739.24	7.72
739.56	7.66
739.879	7.8
740.198	7.73
740.517	7.53
740.836	7.38
741.155	7.24
741.473	7.39
741.792	7.3
742.111	7.43
742.43	7.49
742.748	7.4
743.067	7.62
743.386	7.64
743.704	7.29
744.023	7.35
744.341	7.37
744.66	7.53
744.978	7.39
745.297	7.35
745.615	7.26
745.933	6.96
746.252	7.01
746.57	6.85
746.888	6.84
747.206	6.94
747.524	6.98
747.842	7.1
748.16	7.04
748.478	7.03
748.796	6.99
749.114	7.02
749.432	6.97
749.749	6.72
750.067	6.77
750.385	6.71
750.703	6.83
751.02	6.74
751.338	6.45
751.655	6.51
751.973	6.59
752.29	6.79
752.608	7.05
752.925	7.13
753.242	7.07
753.56	6.89
753.877	7.08
754.194	7.12
754.511	6.99
754.828	6.86
755.145	6.79
755.462	6.68
755.779	6.58
756.096	6.57
756.413	6.97
756.73	6.93
757.047	7.06
757.364	6.91
757.68	7.22
757.997	7.13
758.314	6.97
758.63	6.74
758.947	6.58
759.264	6.42
759.58	6.34
759.896	6.6
760.213	6.78
760.529	6.76
760.846	6.87
761.162	7.02
761.478	7.15
761.794	7.15
762.11	7.22
762.426	7.3
762.743	7.35
763.059	7.25
763.375	7.32
763.69	7.11
764.006	7.22
764.322	7.23
764.638	7.58
764.954	7.92
765.27	8.06
765.585	8.08
765.901	8.25
766.216	8.27
766.532	8.14
766.848	8.14
767.163	8.25
767.478	8.09
767.794	8.2
768.109	8.05
768.424	8.22
768.74	8.32
769.055	8.15
769.37	8.19
769.685	7.97
770	7.81
770.315	7.86
770.63	7.52
770.945	7.2
771.26	6.83
771.575	6.97
771.89	7.03
772.205	7.05
772.52	7.03
772.834	7.12
773.149	7.11
773.464	7.25
773.778	6.88
774.093	6.73
774.407	6.46
774.722	6.51
775.036	6.71
775.351	6.78
775.665	6.98
775.979	7.17
776.293	7.68
776.608	7.56
776.922	7.59
777.236	7.91
777.55	7.89
777.864	8.04
778.178	7.61
778.492	7.37
778.806	7.15
779.12	7.03
779.434	6.87
779.747	7.23
780.061	6.79
780.375	6.88
780.689	6.69
781.002	7.04
781.316	7.18
781.629	6.62
781.943	6.28
782.256	6.14
782.57	5.98
782.883	5.49
783.196	5.61
783.51	5.58
783.823	5.48
784.136	5.82
784.449	6.08
784.762	6.08
785.075	6.04
785.388	6.17
785.701	6.24
786.014	6.18
786.327	5.91
786.64	6.39
786.953	6.53
787.266	6.84
787.578	6.35
787.891	6.24
788.204	6.71
788.516	7.33
788.829	7.16
789.141	7.41
789.454	7.71
789.766	8
790.079	7.95
790.391	8.33
790.703	8.23
791.016	8.04
791.328	8.3
791.64	8.74
791.952	9.14
792.264	8.91
792.576	8.97
792.888	9.01
793.2	8.96
793.512	8.81
793.824	8.85
794.136	9.36
794.448	9.5
794.76	9.3
795.071	8.71
795.383	8.99
795.695	8.83
796.006	8.83
796.318	8.91
796.629	9.12
796.941	8.72
797.252	8.48
797.564	8.47
797.875	8.27
798.186	7.89
798.497	7.4
798.809	7.73
799.12	7.78
799.431	7.97
799.742	8.42
800.053	8.67
800.364	8.25
800.675	7.84
800.986	7.72
801.297	7.93
801.608	8.21
801.918	8.12
802.229	8.14
802.54	8.03
802.851	7.78
803.161	7.95
803.472	7.54
803.782	8.29
804.093	8.35
804.403	8.3
804.714	8.07
805.024	7.95
805.334	8.43
805.645	8.91
805.955	8.87
806.265	9.08
806.575	9.05
806.885	9.3
807.195	9.79
807.505	9.92
807.815	9.28
808.125	8.92
808.435	8.75
808.745	8.88
809.055	9.04
809.365	9.32
809.674	8.72
809.984	9.66
810.294	9.43
810.603	9.43
810.913	10.05
811.222	10.28
811.532	10.61
811.841	10.52
812.151	10.71
812.46	9.97
812.769	8.89
813.079	8.87
813.388	9.09
813.697	9.02
814.006	8.88
814.315	9.65
814.624	9.78
814.933	9.93
815.242	9.64
815.551	9.17
815.86	9.16
816.169	9.36
816.478	8.69
816.786	8.75
817.095	8.86
817.404	9.09
817.712	9.23
818.021	9.85
818.33	9.37
818.638	9.4
818.947	10.37
819.255	10.47
819.563	10.64
819.872	10.9
820.18	10.72
820.488	10.56
820.796	10.5
821.105	10.56
821.413	10.68
821.721	10.66
822.029	10.78
822.337	10.74
822.645	10.72
822.953	10.73
823.26	10.67
823.568	10.6
823.876	10.4
824.184	10.42
824.491	10.22
824.799	10.24
825.107	10.16
825.414	10.13
825.722	10.27
826.029	10.29
826.337	10.2
826.644	10.2
826.951	10.44
827.259	10.34
827.566	10.28
827.873	10.24
828.18	10.21
828.488	10.16
828.795	10.03
829.102	10.16
829.409	10.45
829.716	10.21
830.023	10.49
830.329	10.43
830.636	10.37
830.943	10.3
831.25	10.36
831.557	10.35
831.863	10.28
832.17	10.03
832.476	10.09
832.783	10.4
833.089	10.46
833.396	9.93
833.702	9.89
834.009	10.1
834.315	9.97
834.621	10.35
834.928	10.26
835.234	10.5
835.54	10.39
835.846	10.05
836.152	10.42
836.458	10.09
836.764	10.1
837.07	9.94
837.376	9.87
837.682	9.43
837.988	9.3
838.293	8.95
838.599	9.27
838.905	8.27
839.211	7.79
839.516	7.71
839.822	7.99
840.127	8.44
840.433	8.05
840.738	8.11
841.044	7.4
841.349	7.12
841.654	7.03
841.959	7.81
842.265	7.41
842.57	7.07
842.875	7.2
843.18	8.75
843.485	9.01
843.79	9.49
844.095	9.8
844.4	10.54
844.705	10.94
845.01	10.31
845.315	11.29
845.619	10.88
845.924	10.85
846.229	11.33
846.533	11.44
846.838	11
847.142	10.11
847.447	8.78
847.751	9.95
848.056	8.49
848.36	7.18
848.664	7.53
848.969	7.53
849.273	6.04
849.577	2.67
849.881	2.76
850.185	3.36
850.489	3.79
850.794	2.16
851.097	3.3
851.401	3.8
851.705	2.11
852.009	2.92
852.313	3.46
852.617	2.61
852.92	3.02
853.224	3.68
853.528	5.54
853.831	6.99
854.135	6.02
854.438	6.17
854.742	6.24
855.045	6.14
855.349	6.03
855.652	7.17
855.955	8.78
856.259	9.14
856.562	9.17
856.865	9.42
857.168	9.93
857.471	7.74
857.774	5.31
858.077	7.05
858.38	7.63
858.683	6.49
858.986	9.06
859.289	9.9
859.592	10.36
859.894	10.69
860.197	11.15
860.5	12.25
860.802	12.8
861.105	13.26
861.407	12.41
861.71	13.33
862.012	12.96
862.315	13.26
862.617	10.43
862.919	10.5
863.222	11.86
863.524	12.11
863.826	14.29
864.128	16.93
864.43	18.37
864.732	17.31
865.034	16.72
865.336	13.12
865.638	9.91
865.94	7.73
866.242	6.9
866.544	7.71
866.846	8.58
867.147	10.72
867.449	10.48
867.751	12.39
868.052	12.36
868.354	11.24
868.655	11.75
868.957	14.8
869.258	15.41
869.56	12.84
869.861	12.49
870.162	12.4
870.463	12.5
870.765	13.07
871.066	15.22
871.367	16.73
871.668	18.98
871.969	19.3
872.27	19.41
872.571	17.06
872.872	15.21
873.173	13.07
873.473	11.43
873.774	10.96
874.075	11.23
874.376	9.74
874.676	9.25
874.977	7.83
875.277	6.72
875.578	5.68
875.878	6.62
876.179	6.66
876.479	5.14
876.78	3.18
877.08	1.16
877.38	-2.22
877.68	-3.26
877.981	-4.74
878.281	-4.4
878.581	-1.59
