Data from BA28417_Reflection_00011.txt Node
Date: Mon Nov 18 16:11:19 EST 2019
User: vgr7
Spectrometer: USB2G7710
Scans to average: 3
Trigger mode: 4
Integration Time (sec): 2.000000E-2
Electric dark correction enabled: true
Boxcar width: 10
XAxis mode: Wavelengths
Number of Pixels in Spectrum: 2048
>>>>>Begin Spectral Data<<<<<
177.721	-15.59
178.105	-10.48
178.488	13.85
178.871	-21.27
179.254	-0.13
179.636	-384.25
180.019	-129.28
180.402	9.52
180.785	147.4
181.168	1335.29
181.55	44.56
181.933	139.3
182.316	108.9
182.698	98.36
183.081	93.77
183.463	29.45
183.846	33.43
184.228	-18.53
184.611	-7.83
184.993	-47.35
185.376	-116.73
185.758	111.95
186.14	281.21
186.522	95.72
186.904	56.77
187.287	131.32
187.669	-13.92
188.051	-78.64
188.433	-68.3
188.815	-26.87
189.197	-42.22
189.579	-59.49
189.961	-49.2
190.342	-33.37
190.724	-34.41
191.106	-57.38
191.488	-69.21
191.869	-24.39
192.251	-32.74
192.633	-30.99
193.014	-30.43
193.396	-65.02
193.777	-47.09
194.159	-37.74
194.54	5.94
194.922	7.35
195.303	7.57
195.684	0.03
196.065	8.3
196.447	-3.14
196.828	0.04
197.209	2.86
197.59	1.67
197.971	-13.13
198.352	-10.26
198.733	-6.29
199.114	-1.25
199.495	-18.18
199.876	-8.66
200.257	2.97
200.638	16.26
201.018	12.96
201.399	6.59
201.78	21.01
202.16	27.64
202.541	17.96
202.922	4.75
203.302	8.86
203.683	31.85
204.063	21.99
204.444	30.09
204.824	41.46
205.204	26.83
205.585	26.71
205.965	40.75
206.345	6.59
206.725	-5.72
207.106	-11.21
207.486	-9.49
207.866	-6.21
208.246	-25.28
208.626	-36.56
209.006	-23.05
209.386	-52.7
209.766	-67.14
210.145	-62.94
210.525	-50.68
210.905	-31.03
211.285	-20.39
211.664	-25.79
212.044	-1.79
212.424	18.07
212.803	28.74
213.183	52.15
213.562	55.44
213.942	72.38
214.321	92.09
214.701	102.78
215.08	107.71
215.459	79.03
215.838	89.13
216.218	106.12
216.597	103.65
216.976	130.78
217.355	141.99
217.734	136.97
218.113	170.06
218.492	254.26
218.871	313.64
219.25	428.71
219.629	406.87
220.008	751.47
220.387	782.31
220.766	1615.46
221.144	-184.92
221.523	73.61
221.902	135.8
222.28	129.82
222.659	56.66
223.037	-1135.29
223.416	-91.49
223.794	-50.97
224.173	-45.72
224.551	-14.42
224.929	-27.71
225.308	-24.48
225.686	-15.28
226.064	-10.85
226.442	-3.67
226.821	-2.44
227.199	-6.95
227.577	-4.84
227.955	-13.22
228.333	-9.06
228.711	-6.96
229.089	0.32
229.467	2.75
229.845	0.23
230.222	-3.55
230.6	-5.48
230.978	-5.69
231.356	-2.31
231.733	-1.41
232.111	1.63
232.488	-0.58
232.866	1.16
233.243	3.12
233.621	2.13
233.998	1.26
234.376	-0.33
234.753	1.94
235.13	4.09
235.508	5.79
235.885	5.71
236.262	4.86
236.639	3.34
237.016	1
237.393	2.54
237.77	3.65
238.147	5.01
238.524	5.23
238.901	5.4
239.278	5.53
239.655	6.41
240.032	6.48
240.409	6.89
240.785	7.03
241.162	6.96
241.539	6.77
241.915	6.66
242.292	6.34
242.668	6.09
243.045	5.97
243.421	5.53
243.798	5.9
244.174	5.91
244.551	6.2
244.927	6.23
245.303	6.15
245.679	6.04
246.056	6.25
246.432	5.95
246.808	6.14
247.184	5.83
247.56	5.49
247.936	5.26
248.312	5.15
248.688	5.05
249.064	4.93
249.44	4.92
249.815	5.04
250.191	5.33
250.567	5.27
250.943	5.14
251.318	5.45
251.694	5.29
252.069	5.31
252.445	5.26
252.82	5.37
253.196	5.18
253.571	5.37
253.947	5.15
254.322	5.63
254.697	5.2
255.073	5.03
255.448	5.12
255.823	5.06
256.198	5.17
256.573	4.94
256.948	5.07
257.323	5.08
257.698	5.02
258.073	4.85
258.448	4.81
258.823	4.78
259.198	4.54
259.573	4.42
259.948	4.35
260.322	4.28
260.697	4.07
261.072	3.99
261.446	3.95
261.821	3.93
262.195	4.08
262.57	4.12
262.944	4.21
263.319	4.01
263.693	3.98
264.067	4
264.442	4.06
264.816	3.96
265.19	3.83
265.564	3.68
265.938	3.52
266.313	3.55
266.687	3.56
267.061	3.65
267.435	3.65
267.809	3.79
268.183	3.83
268.556	4.23
268.93	4.31
269.304	4.39
269.678	4.42
270.051	4.13
270.425	4.14
270.799	4.06
271.172	4.27
271.546	4.31
271.919	4.11
272.293	4.05
272.666	4.01
273.04	4.02
273.413	4.04
273.787	4.11
274.16	3.89
274.533	3.75
274.906	3.82
275.279	3.84
275.653	3.78
276.026	3.69
276.399	3.51
276.772	3.52
277.145	3.24
277.518	3.25
277.891	3.26
278.263	3.2
278.636	3.35
279.009	3.18
279.382	3.26
279.755	3.33
280.127	3.53
280.5	3.52
280.872	3.5
281.245	3.51
281.617	3.61
281.99	3.72
282.362	3.92
282.735	3.77
283.107	3.86
283.479	3.9
283.852	3.95
284.224	3.91
284.596	3.87
284.968	3.99
285.34	4.06
285.713	4.06
286.085	4.15
286.457	4.12
286.829	4.13
287.201	4.11
287.572	4.17
287.944	4.1
288.316	4.1
288.688	4.16
289.06	4.11
289.431	4.13
289.803	4.19
290.175	4.22
290.546	4.37
290.918	4.39
291.289	4.33
291.661	4.38
292.032	4.43
292.403	4.47
292.775	4.5
293.146	4.51
293.517	4.56
293.889	4.54
294.26	4.5
294.631	4.54
295.002	4.51
295.373	4.48
295.744	4.53
296.115	4.56
296.486	4.52
296.857	4.65
297.228	4.69
297.599	4.57
297.97	4.49
298.34	4.52
298.711	4.49
299.082	4.45
299.452	4.52
299.823	4.71
300.194	4.77
300.564	4.69
300.935	4.65
301.305	4.76
301.676	4.98
302.046	5.07
302.416	5.13
302.787	5.23
303.157	5.38
303.527	5.28
303.897	5.22
304.267	5.43
304.637	5.54
305.008	5.48
305.378	5.7
305.748	5.78
306.117	5.71
306.487	5.78
306.857	5.83
307.227	5.94
307.597	5.74
307.967	5.73
308.336	5.89
308.706	5.98
309.076	5.91
309.445	5.72
309.815	5.69
310.184	5.69
310.554	5.78
310.923	5.76
311.293	5.82
311.662	5.85
312.031	5.85
312.401	5.82
312.77	5.82
313.139	5.77
313.508	5.83
313.877	5.9
314.246	5.97
314.616	5.98
314.985	5.88
315.353	5.99
315.722	6.04
316.091	5.92
316.46	5.87
316.829	5.84
317.198	5.9
317.567	6.04
317.935	6.13
318.304	6.06
318.672	5.94
319.041	6.16
319.41	6.32
319.778	6.24
320.147	6.2
320.515	6.3
320.883	6.32
321.252	6.4
321.62	6.44
321.988	6.48
322.357	6.56
322.725	6.61
323.093	6.68
323.461	6.61
323.829	6.69
324.197	6.69
324.565	6.72
324.933	6.69
325.301	6.67
325.669	6.81
326.037	6.79
326.405	6.83
326.772	6.8
327.14	6.86
327.508	6.9
327.875	6.82
328.243	6.88
328.61	7.02
328.978	6.96
329.346	6.92
329.713	6.76
330.08	6.97
330.448	6.91
330.815	6.94
331.182	7.06
331.55	7.11
331.917	7.25
332.284	7.45
332.651	7.54
333.018	7.65
333.385	7.7
333.752	7.73
334.119	7.85
334.486	7.74
334.853	7.79
335.22	7.77
335.587	7.95
335.954	7.9
336.32	7.78
336.687	7.81
337.054	7.85
337.42	7.99
337.787	7.9
338.153	7.91
338.52	7.8
338.886	7.79
339.253	7.74
339.619	7.62
339.986	7.5
340.352	7.59
340.718	7.47
341.084	7.45
341.451	7.51
341.817	7.57
342.183	7.64
342.549	7.54
342.915	7.58
343.281	7.41
343.647	7.49
344.013	7.56
344.379	7.61
344.745	7.66
345.11	7.66
345.476	7.6
345.842	7.72
346.208	7.79
346.573	7.89
346.939	8.03
347.304	8.1
347.67	8.1
348.035	8.01
348.401	8.04
348.766	7.95
349.132	7.91
349.497	7.74
349.862	7.85
350.228	8.01
350.593	8.01
350.958	8.16
351.323	8.16
351.688	8.17
352.053	8.16
352.418	8.19
352.783	8.28
353.148	8.35
353.513	8.25
353.878	8.26
354.243	8.19
354.608	8.17
354.972	8.21
355.337	8.27
355.702	8.32
356.066	8.43
356.431	8.45
356.795	8.5
357.16	8.55
357.524	8.36
357.889	8.19
358.253	8.24
358.618	8.23
358.982	8.27
359.346	8.23
359.71	8.2
360.075	8.17
360.439	8.08
360.803	8.03
361.167	8.07
361.531	7.98
361.895	7.95
362.259	7.88
362.623	7.83
362.987	7.75
363.351	7.74
363.714	7.62
364.078	7.59
364.442	7.59
364.806	7.55
365.169	7.65
365.533	7.68
365.896	7.64
366.26	7.6
366.623	7.52
366.987	7.47
367.35	7.44
367.714	7.35
368.077	7.29
368.44	7.34
368.803	7.25
369.167	7.26
369.53	7.27
369.893	7.28
370.256	7.24
370.619	7.23
370.982	7.04
371.345	6.99
371.708	6.96
372.071	6.87
372.434	6.84
372.797	6.78
373.159	6.73
373.522	6.69
373.885	6.68
374.247	6.6
374.61	6.61
374.973	6.54
375.335	6.52
375.698	6.49
376.06	6.39
376.423	6.3
376.785	6.23
377.147	6.17
377.51	6.12
377.872	6.08
378.234	6.07
378.596	6.14
378.958	6.15
379.321	6.17
379.683	6.1
380.045	6.04
380.407	5.99
380.769	5.93
381.13	5.81
381.492	5.78
381.854	5.75
382.216	5.71
382.578	5.65
382.939	5.55
383.301	5.5
383.663	5.43
384.024	5.45
384.386	5.49
384.747	5.44
385.109	5.41
385.47	5.38
385.832	5.32
386.193	5.31
386.554	5.29
386.916	5.17
387.277	5.19
387.638	5.2
387.999	5.16
388.36	5.15
388.721	5.19
389.082	5.18
389.443	5.13
389.804	5.1
390.165	5.08
390.526	5.09
390.887	5.07
391.248	5.09
391.609	5.05
391.969	5.02
392.33	4.99
392.691	4.94
393.051	4.88
393.412	4.88
393.772	4.8
394.133	4.76
394.493	4.79
394.854	4.75
395.214	4.7
395.574	4.71
395.935	4.66
396.295	4.65
396.655	4.56
397.015	4.53
397.376	4.48
397.736	4.47
398.096	4.46
398.456	4.46
398.816	4.43
399.176	4.39
399.535	4.35
399.895	4.35
400.255	4.32
400.615	4.31
400.975	4.29
401.334	4.29
401.694	4.3
402.054	4.23
402.413	4.23
402.773	4.21
403.132	4.15
403.492	4.13
403.851	4.06
404.211	4.07
404.57	4.07
404.929	4.09
405.288	4.07
405.648	4.05
406.007	4.05
406.366	4.01
406.725	4.02
407.084	4
407.443	3.98
407.802	3.97
408.161	3.97
408.52	3.92
408.879	3.92
409.238	3.91
409.596	3.92
409.955	3.92
410.314	3.94
410.673	3.93
411.031	3.91
411.39	3.92
411.748	3.9
412.107	3.88
412.465	3.84
412.824	3.82
413.182	3.8
413.54	3.78
413.899	3.8
414.257	3.8
414.615	3.78
414.974	3.79
415.332	3.78
415.69	3.78
416.048	3.77
416.406	3.75
416.764	3.7
417.122	3.69
417.48	3.64
417.838	3.6
418.195	3.59
418.553	3.58
418.911	3.57
419.269	3.56
419.626	3.56
419.984	3.56
420.342	3.57
420.699	3.54
421.057	3.54
421.414	3.52
421.772	3.48
422.129	3.48
422.486	3.46
422.844	3.45
423.201	3.43
423.558	3.42
423.915	3.4
424.273	3.41
424.63	3.39
424.987	3.39
425.344	3.38
425.701	3.38
426.058	3.38
426.415	3.37
426.772	3.36
427.128	3.35
427.485	3.34
427.842	3.32
428.199	3.33
428.555	3.33
428.912	3.33
429.269	3.36
429.625	3.36
429.982	3.35
430.338	3.35
430.695	3.36
431.051	3.34
431.407	3.35
431.764	3.33
432.12	3.34
432.476	3.34
432.832	3.34
433.189	3.33
433.545	3.32
433.901	3.32
434.257	3.31
434.613	3.3
434.969	3.29
435.325	3.3
435.681	3.29
436.036	3.28
436.392	3.27
436.748	3.25
437.104	3.24
437.459	3.22
437.815	3.21
438.171	3.2
438.526	3.22
438.882	3.23
439.237	3.23
439.593	3.24
439.948	3.23
440.304	3.24
440.659	3.24
441.014	3.27
441.369	3.26
441.725	3.27
442.08	3.27
442.435	3.28
442.79	3.28
443.145	3.27
443.5	3.26
443.855	3.25
444.21	3.24
444.565	3.25
444.92	3.26
445.275	3.25
445.629	3.25
445.984	3.24
446.339	3.22
446.693	3.21
447.048	3.2
447.403	3.19
447.757	3.17
448.112	3.16
448.466	3.14
448.82	3.14
449.175	3.13
449.529	3.1
449.883	3.08
450.238	3.06
450.592	3.06
450.946	3.05
451.3	3.04
451.654	3.05
452.008	3.03
452.362	3.02
452.716	3.01
453.07	3.02
453.424	3.02
453.778	3.03
454.132	3.03
454.486	3.03
454.839	3.05
455.193	3.05
455.547	3.06
455.9	3.07
456.254	3.07
456.607	3.08
456.961	3.09
457.314	3.11
457.668	3.13
458.021	3.12
458.375	3.14
458.728	3.17
459.081	3.18
459.434	3.18
459.787	3.19
460.141	3.19
460.494	3.19
460.847	3.21
461.2	3.22
461.553	3.22
461.906	3.24
462.259	3.23
462.611	3.25
462.964	3.26
463.317	3.27
463.67	3.28
464.022	3.29
464.375	3.29
464.728	3.28
465.08	3.28
465.433	3.28
465.785	3.29
466.138	3.29
466.49	3.31
466.843	3.29
467.195	3.31
467.547	3.33
467.899	3.32
468.252	3.31
468.604	3.31
468.956	3.31
469.308	3.29
469.66	3.29
470.012	3.29
470.364	3.3
470.716	3.3
471.068	3.28
471.42	3.29
471.772	3.3
472.123	3.31
472.475	3.33
472.827	3.36
473.178	3.38
473.53	3.35
473.882	3.35
474.233	3.36
474.585	3.35
474.936	3.35
475.288	3.35
475.639	3.35
475.99	3.36
476.342	3.37
476.693	3.38
477.044	3.39
477.395	3.38
477.746	3.37
478.097	3.36
478.448	3.37
478.8	3.37
479.15	3.34
479.501	3.34
479.852	3.33
480.203	3.31
480.554	3.31
480.905	3.33
481.255	3.33
481.606	3.35
481.957	3.35
482.307	3.35
482.658	3.36
483.009	3.36
483.359	3.36
483.709	3.35
484.06	3.35
484.41	3.35
484.761	3.34
485.111	3.34
485.461	3.35
485.811	3.35
486.162	3.34
486.512	3.37
486.862	3.36
487.212	3.36
487.562	3.36
487.912	3.36
488.262	3.36
488.612	3.36
488.961	3.35
489.311	3.35
489.661	3.35
490.011	3.34
490.36	3.35
490.71	3.35
491.06	3.36
491.409	3.37
491.759	3.39
492.108	3.41
492.458	3.42
492.807	3.42
493.157	3.42
493.506	3.44
493.855	3.44
494.204	3.46
494.554	3.49
494.903	3.5
495.252	3.52
495.601	3.54
495.95	3.55
496.299	3.57
496.648	3.58
496.997	3.62
497.346	3.65
497.695	3.7
498.043	3.72
498.392	3.72
498.741	3.75
499.09	3.77
499.438	3.78
499.787	3.81
500.135	3.84
500.484	3.89
500.832	3.94
501.181	3.98
501.529	4.03
501.878	4.08
502.226	4.13
502.574	4.17
502.923	4.21
503.271	4.23
503.619	4.28
503.967	4.33
504.315	4.36
504.663	4.41
505.011	4.45
505.359	4.5
505.707	4.57
506.055	4.63
506.403	4.69
506.751	4.76
507.098	4.83
507.446	4.89
507.794	4.94
508.141	4.98
508.489	5.03
508.837	5.09
509.184	5.15
509.531	5.2
509.879	5.27
510.226	5.34
510.574	5.41
510.921	5.49
511.268	5.57
511.616	5.67
511.963	5.72
512.31	5.8
512.657	5.9
513.004	6
513.351	6.09
513.698	6.18
514.045	6.25
514.392	6.34
514.739	6.42
515.086	6.53
515.432	6.64
515.779	6.73
516.126	6.81
516.473	6.92
516.819	7.02
517.166	7.09
517.512	7.16
517.859	7.24
518.205	7.32
518.552	7.4
518.898	7.48
519.245	7.56
519.591	7.62
519.937	7.68
520.283	7.75
520.629	7.82
520.976	7.92
521.322	8.03
521.668	8.13
522.014	8.24
522.36	8.36
522.706	8.47
523.052	8.6
523.398	8.75
523.743	8.89
524.089	9
524.435	9.15
524.781	9.3
525.126	9.41
525.472	9.54
525.817	9.65
526.163	9.76
526.509	9.88
526.854	9.97
527.199	10.08
527.545	10.17
527.89	10.27
528.235	10.36
528.581	10.46
528.926	10.56
529.271	10.67
529.616	10.76
529.961	10.87
530.306	10.99
530.651	11.1
530.996	11.23
531.341	11.36
531.686	11.5
532.031	11.63
532.376	11.8
532.721	11.95
533.065	12.1
533.41	12.26
533.755	12.43
534.099	12.6
534.444	12.77
534.788	12.96
535.133	13.16
535.477	13.34
535.822	13.56
536.166	13.78
536.51	14.03
536.855	14.29
537.199	14.53
537.543	14.81
537.887	15.08
538.231	15.33
538.576	15.63
538.92	15.89
539.264	16.16
539.608	16.41
539.951	16.63
540.295	16.86
540.639	17.1
540.983	17.33
541.327	17.58
541.671	17.8
542.014	18.01
542.358	18.22
542.701	18.46
543.045	18.67
543.389	18.91
543.732	19.13
544.075	19.35
544.419	19.6
544.762	19.85
545.105	20.1
545.449	20.39
545.792	20.66
546.135	20.95
546.478	21.26
546.821	21.56
547.165	21.89
547.508	22.26
547.851	22.62
548.194	22.95
548.536	23.31
548.879	23.67
549.222	24.02
549.565	24.35
549.908	24.7
550.25	25.05
550.593	25.39
550.936	25.77
551.278	26.14
551.621	26.5
551.963	26.85
552.306	27.19
552.648	27.54
552.991	27.92
553.333	28.26
553.675	28.61
554.017	28.99
554.36	29.37
554.702	29.68
555.044	30.01
555.386	30.34
555.728	30.68
556.07	31.01
556.412	31.38
556.754	31.74
557.096	32.15
557.438	32.54
557.78	32.89
558.121	33.24
558.463	33.58
558.805	33.96
559.147	34.32
559.488	34.69
559.83	35.05
560.171	35.36
560.513	35.72
560.854	36.05
561.196	36.34
561.537	36.7
561.878	37.08
562.22	37.39
562.561	37.71
562.902	38.03
563.243	38.37
563.584	38.73
563.925	38.99
564.266	39.23
564.607	39.51
564.948	39.86
565.289	40.15
565.63	40.46
565.971	40.7
566.312	41.02
566.653	41.27
566.993	41.51
567.334	41.8
567.675	42.01
568.015	42.29
568.356	42.56
568.696	42.83
569.037	43.04
569.377	43.35
569.718	43.56
570.058	43.81
570.398	44.03
570.739	44.24
571.079	44.53
571.419	44.81
571.759	45.04
572.099	45.21
572.439	45.42
572.779	45.63
573.119	45.88
573.459	46.05
573.799	46.33
574.139	46.55
574.479	46.73
574.819	46.99
575.158	47.21
575.498	47.44
575.838	47.59
576.177	47.82
576.517	48.02
576.856	48.3
577.196	48.54
577.535	48.75
577.875	48.97
578.214	49.14
578.553	49.29
578.893	49.51
579.232	49.71
579.571	50
579.91	50.2
580.25	50.41
580.589	50.63
580.928	50.79
581.267	50.99
581.606	51.21
581.945	51.4
582.283	51.52
582.622	51.65
582.961	51.85
583.3	52.06
583.639	52.22
583.977	52.36
584.316	52.51
584.654	52.68
584.993	52.85
585.332	53.1
585.67	53.28
586.008	53.45
586.347	53.68
586.685	53.81
587.024	54.02
587.362	54.14
587.7	54.33
588.038	54.56
588.376	54.66
588.715	54.8
589.053	54.99
589.391	55.18
589.729	55.49
590.067	55.76
590.404	55.9
590.742	55.98
591.08	56.13
591.418	56.21
591.756	56.4
592.093	56.52
592.431	56.64
592.769	56.86
593.106	56.96
593.444	57.02
593.781	57.15
594.119	57.22
594.456	57.32
594.793	57.38
595.131	57.41
595.468	57.55
595.805	57.63
596.143	57.65
596.48	57.76
596.817	57.7
597.154	57.71
597.491	57.75
597.828	57.83
598.165	57.9
598.502	58.04
598.839	58.09
599.176	58.19
599.512	58.32
599.849	58.35
600.186	58.43
600.523	58.57
600.859	58.68
601.196	58.82
601.532	58.92
601.869	59.01
602.205	59.15
602.542	59.26
602.878	59.37
603.215	59.46
603.551	59.48
603.887	59.62
604.223	59.7
604.56	59.8
604.896	59.9
605.232	60
605.568	60.13
605.904	60.25
606.24	60.38
606.576	60.42
606.912	60.51
607.248	60.55
607.583	60.64
607.919	60.7
608.255	60.76
608.591	60.88
608.926	61.01
609.262	61
609.597	61.05
609.933	61.07
610.268	61.23
610.604	61.28
610.939	61.33
611.275	61.34
611.61	61.41
611.945	61.51
612.281	61.65
612.616	61.64
612.951	61.68
613.286	61.7
613.621	61.71
613.956	61.7
614.291	61.9
614.626	61.94
614.961	61.94
615.296	61.93
615.631	61.98
615.966	62.1
616.3	62.22
616.635	62.23
616.97	62.4
617.304	62.4
617.639	62.52
617.973	62.6
618.308	62.65
618.642	62.61
618.977	62.62
619.311	62.58
619.646	62.64
619.98	62.68
620.314	62.74
620.648	62.96
620.983	63.18
621.317	63.18
621.651	63.28
621.985	63.34
622.319	63.54
622.653	63.66
622.987	63.63
623.321	63.66
623.655	63.83
623.988	63.88
624.322	63.87
624.656	63.89
624.99	63.95
625.323	64.05
625.657	64.12
625.99	64.22
626.324	64.26
626.657	64.34
626.991	64.36
627.324	64.4
627.658	64.29
627.991	64.24
628.324	64.28
628.657	64.25
628.991	64.29
629.324	64.29
629.657	64.34
629.99	64.45
630.323	64.5
630.656	64.5
630.989	64.53
631.322	64.63
631.655	64.72
631.987	64.71
632.32	64.7
632.653	64.77
632.986	64.8
633.318	64.79
633.651	64.82
633.984	64.82
634.316	64.92
634.649	64.93
634.981	65.06
635.313	65.13
635.646	65.19
635.978	65.34
636.31	65.27
636.643	65.19
636.975	65.12
637.307	65.2
637.639	65.23
637.971	65.16
638.303	65.12
638.635	65.08
638.967	65.12
639.299	65.17
639.631	65.17
639.963	65.18
640.295	65.34
640.626	65.47
640.958	65.52
641.29	65.48
641.621	65.61
641.953	65.45
642.285	65.53
642.616	65.46
642.948	65.45
643.279	65.49
643.61	65.59
643.942	65.64
644.273	65.71
644.604	65.6
644.936	65.77
645.267	65.87
645.598	65.97
645.929	65.93
646.26	66
646.591	66.06
646.922	66.2
647.253	66.22
647.584	66.14
647.915	66.13
648.245	66.13
648.576	66.23
648.907	66.34
649.238	66.11
649.568	66.19
649.899	66.24
650.229	66.38
650.56	66.28
650.89	66.33
651.221	66.3
651.551	66.45
651.882	66.43
652.212	66.33
652.542	66.34
652.872	66.4
653.203	66.4
653.533	66.56
653.863	66.39
654.193	66.41
654.523	66.45
654.853	66.5
655.183	66.61
655.513	66.5
655.843	66.51
656.172	66.58
656.502	66.7
656.832	66.63
657.162	66.66
657.491	66.78
657.821	66.84
658.15	66.79
658.48	66.81
658.809	66.87
659.139	66.94
659.468	67.07
659.798	67.12
660.127	67.02
660.456	66.89
660.785	66.93
661.115	66.81
661.444	66.78
661.773	66.83
662.102	66.8
662.431	66.91
662.76	67.03
663.089	67.18
663.418	67.26
663.747	67.44
664.076	67.43
664.404	67.42
664.733	67.35
665.062	67.48
665.39	67.45
665.719	67.47
666.048	67.65
666.376	67.59
666.705	67.55
667.033	67.54
667.362	67.61
667.69	67.7
668.018	67.76
668.347	67.87
668.675	67.96
669.003	67.98
669.331	67.96
669.659	67.7
669.987	67.64
670.315	67.6
670.643	67.42
670.971	67.3
671.299	67.36
671.627	67.44
671.955	67.4
672.283	67.48
672.61	67.44
672.938	67.34
673.266	67.32
673.593	67.53
673.921	67.69
674.249	67.82
674.576	67.73
674.904	67.91
675.231	67.85
675.558	67.75
675.886	67.68
676.213	67.72
676.54	68
676.867	68.06
677.195	67.97
677.522	68.11
677.849	68.29
678.176	68.25
678.503	68.18
678.83	68.07
679.157	67.94
679.484	67.91
679.81	67.98
680.137	68.04
680.464	67.83
680.791	67.8
681.117	67.69
681.444	67.72
681.771	67.71
682.097	67.67
682.424	67.72
682.75	67.74
683.077	67.76
683.403	67.62
683.729	67.61
684.056	67.64
684.382	67.65
684.708	67.69
685.034	67.64
685.36	67.66
685.686	67.74
686.012	67.89
686.339	68
686.664	68.06
686.99	67.91
687.316	68.05
687.642	68.11
687.968	68.1
688.294	68.2
688.619	68.09
688.945	68.1
689.271	68.11
689.596	67.9
689.922	67.96
690.247	68.09
690.573	68.1
690.898	68.18
691.224	68.2
691.549	68.16
691.874	68.24
692.2	68.35
692.525	68.52
692.85	68.35
693.175	68.27
693.5	68.13
693.825	68.31
694.15	68.3
694.475	68.32
694.8	68.3
695.125	68.2
695.45	68.25
695.775	68.41
696.099	68.42
696.424	68.64
696.749	68.68
697.073	68.74
697.398	68.85
697.723	68.86
698.047	68.85
698.372	68.85
698.696	68.89
699.02	68.91
699.345	68.92
699.669	69.09
699.993	69.09
700.318	69.1
700.642	69
700.966	68.99
701.29	69.14
701.614	69.28
701.938	69.43
702.262	69.59
702.586	69.58
702.91	69.7
703.234	69.75
703.557	69.69
703.881	69.48
704.205	69.49
704.529	69.54
704.852	69.37
705.176	69.45
705.499	69.47
705.823	69.37
706.146	69.37
706.47	69.43
706.793	69.35
707.117	69.52
707.44	69.75
707.763	69.76
708.086	69.45
708.409	69.4
708.733	69.52
709.056	69.29
709.379	69.07
709.702	68.96
710.025	68.87
710.348	68.66
710.671	68.8
710.993	68.64
711.316	68.62
711.639	68.76
711.962	68.72
712.284	68.88
712.607	69.03
712.93	68.96
713.252	68.7
713.575	68.81
713.897	68.49
714.22	68.48
714.542	68.62
714.864	68.68
715.187	68.69
715.509	68.78
715.831	68.82
716.153	68.97
716.475	68.95
716.798	69
717.12	69.19
717.442	69.37
717.764	69.37
718.085	69.31
718.407	69.24
718.729	69.24
719.051	69.08
719.373	68.88
719.695	68.92
720.016	69.12
720.338	69.12
720.659	69.38
720.981	69.3
721.302	69.07
721.624	69.05
721.945	69.38
722.267	69.14
722.588	69.18
722.909	69.43
723.231	69.54
723.552	69.65
723.873	69.63
724.194	69.6
724.515	69.59
724.836	69.6
725.157	69.78
725.478	69.45
725.799	69.42
726.12	69.49
726.441	69.41
726.762	69.46
727.083	69.68
727.403	69.68
727.724	69.64
728.045	69.95
728.365	70.24
728.686	69.96
729.006	70.01
729.327	69.97
729.647	70
729.967	70.04
730.288	70.02
730.608	70.2
730.928	70.01
731.249	70.15
731.569	70.29
731.889	70.11
732.209	70.31
732.529	70.25
732.849	70.23
733.169	70.15
733.489	70.16
733.809	70.21
734.129	70.48
734.448	70.39
734.768	70.22
735.088	70.16
735.408	70.23
735.727	70.23
736.047	70.45
736.366	70.21
736.686	70
737.005	70.07
737.325	69.96
737.644	69.96
737.963	70.02
738.283	70.07
738.602	70.38
738.921	70.48
739.24	70.33
739.56	70.43
739.879	70.42
740.198	70.36
740.517	70
740.836	69.65
741.155	69.77
741.473	69.52
741.792	69.31
742.111	69.06
742.43	68.86
742.748	68.99
743.067	69.24
743.386	69.36
743.704	69.5
744.023	69.56
744.341	69.87
744.66	69.79
744.978	69.57
745.297	69.77
745.615	69.64
745.933	69.77
746.252	69.59
746.57	69.61
746.888	69.67
747.206	69.79
747.524	69.98
747.842	69.88
748.16	70.49
748.478	70.42
748.796	70.4
749.114	70.54
749.432	70.15
749.749	70.05
750.067	70.23
750.385	69.93
750.703	69.82
751.02	69.34
751.338	69.08
751.655	69.2
751.973	69.19
752.29	69.08
752.608	69.07
752.925	69.06
753.242	69.21
753.56	69.44
753.877	69.3
754.194	69.25
754.511	68.96
754.828	68.6
755.145	68.9
755.462	68.98
755.779	69.16
756.096	69.31
756.413	69.54
756.73	69.2
757.047	69.51
757.364	69.48
757.68	69.8
757.997	70.04
758.314	70.02
758.63	70.05
758.947	70.48
759.264	70.7
759.58	70.78
759.896	70.67
760.213	70.47
760.529	70.58
760.846	70.45
761.162	71.14
761.478	70.97
761.794	70.95
762.11	71.02
762.426	70.77
762.743	70.87
763.059	70.72
763.375	70.95
763.69	71.09
764.006	71.09
764.322	70.95
764.638	70.78
764.954	70.9
765.27	70.71
765.585	70.36
765.901	70.28
766.216	70.3
766.532	70.45
766.848	70.26
767.163	70.33
767.478	70.3
767.794	70.01
768.109	70.51
768.424	70.43
768.74	70.54
769.055	70.42
769.37	70.49
769.685	70.49
770	70.25
770.315	69.71
770.63	69.59
770.945	69.88
771.26	70.32
771.575	70.19
771.89	70.41
772.205	70.5
772.52	70.54
772.834	70.52
773.149	70.44
773.464	70.82
773.778	70.72
774.093	70.9
774.407	71.35
774.722	70.71
775.036	71.03
775.351	71.24
775.665	71.51
775.979	71.44
776.293	71.37
776.608	71.75
776.922	71.7
777.236	71.81
777.55	71.39
777.864	71.29
778.178	71.49
778.492	71.02
778.806	71.34
779.12	71.26
779.434	71.33
779.747	71.69
780.061	71.88
780.375	72.24
780.689	72.24
781.002	71.95
781.316	72.03
781.629	71.62
781.943	71.62
782.256	71.8
782.57	71.49
782.883	71.42
783.196	70.83
783.51	70.69
783.823	70.1
784.136	70.14
784.449	69.92
784.762	69.58
785.075	69.79
785.388	69.4
785.701	69.72
786.014	69.75
786.327	69.06
786.64	68.86
786.953	68.39
787.266	68.6
787.578	68.62
787.891	69.2
788.204	69.25
788.516	68.89
788.829	69.02
789.141	68.96
789.454	69.12
789.766	69.58
790.079	69.68
790.391	70.06
790.703	70.04
791.016	70.36
791.328	70.05
791.64	69.9
791.952	70.1
792.264	69.64
792.576	69.73
792.888	70.18
793.2	70.39
793.512	70.51
793.824	70.23
794.136	70.93
794.448	70.11
794.76	70.34
795.071	70.57
795.383	70.55
795.695	70.39
796.006	69.97
796.318	69.97
796.629	70.21
796.941	70.34
797.252	70.79
797.564	70.19
797.875	70.51
798.186	70.62
798.497	70.43
798.809	71.02
799.12	71.63
799.431	71.47
799.742	71.2
800.053	70.98
800.364	71.15
800.675	70.66
800.986	71.35
801.297	71.82
801.608	71.16
801.918	71.29
802.229	71.09
802.54	71.4
802.851	71.61
803.161	71.8
803.472	71.86
803.782	72.6
804.093	73.52
804.403	73.51
804.714	74.13
805.024	74.67
805.334	74.07
805.645	73.81
805.955	74.4
806.265	74.34
806.575	74.3
806.885	74.36
807.195	74.21
807.505	73.75
807.815	73.05
808.125	73.09
808.435	72.99
808.745	73.79
809.055	73.48
809.365	73.11
809.674	73.37
809.984	73.56
810.294	72.81
810.603	72.57
810.913	72.21
811.222	71.15
811.532	70.6
811.841	70.85
812.151	70.65
812.46	70.5
812.769	71.04
813.079	71.61
813.388	71.57
813.697	70.72
814.006	71.1
814.315	71.21
814.624	71.37
814.933	71.06
815.242	70.66
815.551	71.05
815.86	71.16
816.169	70.42
816.478	70.58
816.786	71.23
817.095	71.05
817.404	71.53
817.712	71.34
818.021	71.68
818.33	72.41
818.638	72.05
818.947	71.27
819.255	70.63
819.563	70.87
819.872	70.96
820.18	71
820.488	71.02
820.796	70.84
821.105	71.01
821.413	71.13
821.721	71.33
822.029	71.17
822.337	70.91
822.645	71.07
822.953	71.1
823.26	70.93
823.568	70.97
823.876	70.89
824.184	71.03
824.491	71.08
824.799	71.08
825.107	71.07
825.414	71.02
825.722	71.2
826.029	71.1
826.337	70.93
826.644	71.04
826.951	70.96
827.259	71.12
827.566	71.05
827.873	71.03
828.18	70.92
828.488	71.11
828.795	71.36
829.102	71.39
829.409	71.44
829.716	71.36
830.023	71.63
830.329	71.85
830.636	71.88
830.943	71.83
831.25	71.46
831.557	71.68
831.863	71.94
832.17	71.81
832.476	71.83
832.783	72.17
833.089	72.34
833.396	72.57
833.702	72.35
834.009	72.52
834.315	72.51
834.621	72.24
834.928	72.18
835.234	72.31
835.54	72.62
835.846	72.69
836.152	72.78
836.458	72.07
836.764	72.04
837.07	71.76
837.376	71.92
837.682	72.1
837.988	72.47
838.293	72.41
838.599	72.35
838.905	71.61
839.211	71.74
839.516	71.38
839.822	71.13
840.127	71.2
840.433	71.38
840.738	70.94
841.044	71.25
841.349	71.64
841.654	71.56
841.959	70.37
842.265	69.59
842.57	69.19
842.875	69.92
843.18	70.92
843.485	71.88
843.79	71.9
844.095	70.89
844.4	70.41
844.705	71.9
845.01	72.57
845.315	74.19
845.619	74.42
845.924	74.55
846.229	74.42
846.533	75.87
846.838	75.75
847.142	76.08
847.447	76.41
847.751	75.43
848.056	76.06
848.36	76.86
848.664	78.43
848.969	80.67
849.273	78.13
849.577	75.22
849.881	74.81
850.185	75.58
850.489	74.97
850.794	72.93
851.097	71.54
851.401	71.87
851.705	72.83
852.009	73.21
852.313	73.42
852.617	74.78
852.92	74.2
853.224	75.48
853.528	75.5
853.831	77.73
854.135	77.24
854.438	77.33
854.742	77.96
855.045	77.2
855.349	76.13
855.652	77.39
855.955	80.27
856.259	80.24
856.562	77.29
856.865	78.29
857.168	78.97
857.471	80.76
857.774	81.6
858.077	80.27
858.38	80.83
858.683	81.78
858.986	82.06
859.289	83.47
859.592	79.88
859.894	82.94
860.197	79.99
860.5	81.97
860.802	82.81
861.105	80.91
861.407	77.96
861.71	76.61
862.012	78.76
862.315	77.4
862.617	75.58
862.919	77.67
863.222	78.83
863.524	80.52
863.826	80.92
864.128	81.36
864.43	82.2
864.732	81.55
865.034	79.62
865.336	78.28
865.638	75.62
865.94	78.98
866.242	78.26
866.544	82.58
866.846	81.74
867.147	78.76
867.449	82.03
867.751	86.77
868.052	89.1
868.354	90.45
868.655	89.05
868.957	93.07
869.258	92.34
869.56	95.62
869.861	95.6
870.162	91.96
870.463	88.16
870.765	88.97
871.066	89.91
871.367	91.92
871.668	94.58
871.969	94.12
872.27	92.42
872.571	87.32
872.872	84.79
873.173	83.82
873.473	84.96
873.774	82.68
874.075	82.95
874.376	80.07
874.676	78.85
874.977	77.94
875.277	75.09
875.578	76.68
875.878	74.05
876.179	73.7
876.479	74.53
876.78	75.46
877.08	74.03
877.38	72.35
877.68	70.79
877.981	66.9
878.281	68.27
878.581	67.57
