Data from BA28471_Reflection_00006.txt Node
Date: Mon Nov 18 15:21:09 EST 2019
User: vgr7
Spectrometer: USB2G7710
Scans to average: 3
Trigger mode: 4
Integration Time (sec): 2.000000E-2
Electric dark correction enabled: true
Boxcar width: 10
XAxis mode: Wavelengths
Number of Pixels in Spectrum: 2048
>>>>>Begin Spectral Data<<<<<
177.721	512.53
178.105	-67.63
178.488	-54.13
178.871	-20.04
179.254	18.73
179.636	57.65
180.019	287.66
180.402	105.13
180.785	328.92
181.168	101.15
181.55	228.96
181.933	89.14
182.316	70.4
182.698	77.5
183.081	60.8
183.463	69.57
183.846	189.14
184.228	224.3
184.611	373.47
184.993	755.17
185.376	-15.21
185.758	-54.5
186.14	-701.32
186.522	-6584.21
186.904	500.58
187.287	424.68
187.669	-646.7
188.051	-326.21
188.433	-167.7
188.815	-138.37
189.197	-90.3
189.579	-56.04
189.961	-69.74
190.342	-77.18
190.724	-70.06
191.106	-80.18
191.488	-119.06
191.869	-113.11
192.251	-155.99
192.633	-192.01
193.014	-466.72
193.396	-582.42
193.777	-600.62
194.159	-1066.15
194.54	-342.9
194.922	-227.86
195.303	-485.33
195.684	-433.91
196.065	-192.87
196.447	-241.97
196.828	-415.06
197.209	-244.69
197.59	-306.11
197.971	-265.64
198.352	-266.16
198.733	-771.31
199.114	-503.41
199.495	-204.77
199.876	-191.22
200.257	-114.66
200.638	-86.37
201.018	-82.77
201.399	-73.92
201.78	-48.43
202.16	-37.17
202.541	-46.75
202.922	-39.4
203.302	-29.71
203.683	-34.67
204.063	-57.51
204.444	-32.73
204.824	-42.86
205.204	-34.92
205.585	-36.76
205.965	-39.41
206.345	-40.65
206.725	-45.35
207.106	-68.05
207.486	-71.78
207.866	-57.74
208.246	-57.12
208.626	-67.13
209.006	-65.22
209.386	-112.56
209.766	-142.36
210.145	-102.44
210.525	-81.54
210.905	-75.02
211.285	-68.24
211.664	-65.96
212.044	-54.76
212.424	-70.2
212.803	-56.08
213.183	-53.21
213.562	-46.22
213.942	-56.57
214.321	-63.34
214.701	-95.72
215.08	-66.98
215.459	-56.01
215.838	-73.12
216.218	-55.37
216.597	-52.84
216.976	-41.56
217.355	-23.3
217.734	-33.13
218.113	-41.67
218.492	-48.87
218.871	-63.61
219.25	-73.25
219.629	-68.91
220.008	-91.92
220.387	-90.13
220.766	-96
221.144	-107.55
221.523	-126.96
221.902	-127.51
222.28	-131.58
222.659	-78.96
223.037	-70.2
223.416	-75.05
223.794	-72.65
224.173	-66.4
224.551	-31.5
224.929	-24.72
225.308	-18.89
225.686	-18.76
226.064	-17.07
226.442	-16.51
226.821	-9.51
227.199	-5.99
227.577	-1.82
227.955	-0.06
228.333	-0.95
228.711	3.33
229.089	6.94
229.467	5.87
229.845	4.71
230.222	3.25
230.6	2.81
230.978	1.28
231.356	3.26
231.733	3.84
232.111	2.2
232.488	-1.73
232.866	-3.64
233.243	-3.8
233.621	-3.25
233.998	-2.04
234.376	-1.98
234.753	-1.63
235.13	-3.19
235.508	-2.77
235.885	-4.4
236.262	-3.77
236.639	-4.36
237.016	-4.92
237.393	-3.07
237.77	-2.63
238.147	-2.22
238.524	-2.17
238.901	-1.41
239.278	-0.92
239.655	-0.15
240.032	0.67
240.409	0.79
240.785	1.18
241.162	1.23
241.539	1.29
241.915	2.03
242.292	1.97
242.668	2.43
243.045	3.11
243.421	3.35
243.798	3.56
244.174	3.61
244.551	3.78
244.927	3.59
245.303	3.84
245.679	4.15
246.056	4.23
246.432	4.26
246.808	4.42
247.184	4.14
247.56	3.89
247.936	3.77
248.312	3.92
248.688	4.15
249.064	4.23
249.44	4.23
249.815	3.88
250.191	4.12
250.567	3.97
250.943	3.88
251.318	3.56
251.694	3.64
252.069	3.62
252.445	3.51
252.82	3.63
253.196	3.17
253.571	2.79
253.947	3.18
254.322	3.46
254.697	3.15
255.073	3.18
255.448	3.44
255.823	3.6
256.198	3.73
256.573	3.31
256.948	3.45
257.323	3.76
257.698	3.77
258.073	3.64
258.448	3.6
258.823	3.8
259.198	3.84
259.573	3.84
259.948	3.84
260.322	3.96
260.697	3.86
261.072	3.93
261.446	3.92
261.821	3.82
262.195	3.79
262.57	3.86
262.944	3.8
263.319	3.68
263.693	3.48
264.067	3.49
264.442	3.65
264.816	3.53
265.19	3.25
265.564	3.37
265.938	3.24
266.313	3.32
266.687	3.11
267.061	3.36
267.435	3.35
267.809	3.41
268.183	3.37
268.556	3.48
268.93	3.6
269.304	3.58
269.678	3.68
270.051	3.59
270.425	3.56
270.799	3.66
271.172	3.82
271.546	3.88
271.919	3.81
272.293	3.9
272.666	3.91
273.04	3.83
273.413	3.85
273.787	4.05
274.16	4.05
274.533	4.16
274.906	3.84
275.279	3.87
275.653	3.78
276.026	3.8
276.399	3.82
276.772	3.88
277.145	3.98
277.518	3.74
277.891	3.66
278.263	3.71
278.636	3.79
279.009	3.87
279.382	3.96
279.755	3.98
280.127	3.92
280.5	4.01
280.872	4.23
281.245	4.17
281.617	4.15
281.99	4.13
282.362	4.05
282.735	4.14
283.107	4.17
283.479	4.24
283.852	4.1
284.224	4.03
284.596	3.92
284.968	3.96
285.34	3.93
285.713	4.04
286.085	4.05
286.457	4.07
286.829	4.01
287.201	4.06
287.572	4.05
287.944	4.02
288.316	3.9
288.688	3.91
289.06	3.86
289.431	3.91
289.803	3.84
290.175	3.96
290.546	4.13
290.918	4.14
291.289	3.98
291.661	4.15
292.032	4.2
292.403	4.22
292.775	4.23
293.146	4.32
293.517	4.26
293.889	4.21
294.26	4.14
294.631	4.16
295.002	3.93
295.373	3.89
295.744	3.98
296.115	4.05
296.486	3.82
296.857	3.89
297.228	3.79
297.599	3.85
297.97	3.73
298.34	3.65
298.711	3.64
299.082	3.62
299.452	3.47
299.823	3.59
300.194	3.51
300.564	3.43
300.935	3.56
301.305	3.52
301.676	3.57
302.046	3.67
302.416	3.59
302.787	3.78
303.157	3.78
303.527	3.74
303.897	3.72
304.267	4.07
304.637	4.07
305.008	4.22
305.378	4.35
305.748	4.36
306.117	4.25
306.487	4.19
306.857	4.31
307.227	4.44
307.597	4.31
307.967	4.36
308.336	4.41
308.706	4.41
309.076	4.41
309.445	4.34
309.815	4.15
310.184	4.09
310.554	4.07
310.923	4.02
311.293	3.91
311.662	3.96
312.031	3.84
312.401	3.76
312.77	3.72
313.139	3.61
313.508	3.68
313.877	3.75
314.246	3.65
314.616	3.72
314.985	3.73
315.353	3.65
315.722	3.65
316.091	3.5
316.46	3.3
316.829	3.37
317.198	3.4
317.567	3.44
317.935	3.46
318.304	3.39
318.672	3.58
319.041	3.68
319.41	3.66
319.778	3.57
320.147	3.68
320.515	3.56
320.883	3.64
321.252	3.61
321.62	3.57
321.988	3.68
322.357	3.67
322.725	3.57
323.093	3.76
323.461	3.93
323.829	3.99
324.197	4.17
324.565	4.11
324.933	4.17
325.301	4.21
325.669	4.23
326.037	4.25
326.405	4.21
326.772	4.2
327.14	4.25
327.508	4.3
327.875	4.22
328.243	4.27
328.61	4.14
328.978	4.05
329.346	4.12
329.713	4.08
330.08	3.96
330.448	3.97
330.815	3.81
331.182	3.63
331.55	3.75
331.917	3.64
332.284	3.7
332.651	3.65
333.018	3.74
333.385	3.89
333.752	3.87
334.119	3.86
334.486	3.88
334.853	3.82
335.22	3.77
335.587	3.88
335.954	3.92
336.32	3.97
336.687	3.98
337.054	3.88
337.42	3.88
337.787	3.9
338.153	3.93
338.52	3.94
338.886	3.91
339.253	3.84
339.619	3.77
339.986	3.81
340.352	3.78
340.718	3.66
341.084	3.58
341.451	3.69
341.817	3.63
342.183	3.56
342.549	3.55
342.915	3.66
343.281	3.66
343.647	3.63
344.013	3.67
344.379	3.73
344.745	3.78
345.11	3.77
345.476	3.89
345.842	3.81
346.208	3.93
346.573	4.04
346.939	4.07
347.304	4.06
347.67	3.92
348.035	3.89
348.401	3.9
348.766	3.81
349.132	3.73
349.497	3.77
349.862	3.85
350.228	3.84
350.593	3.73
350.958	3.63
351.323	3.63
351.688	3.61
352.053	3.68
352.418	3.65
352.783	3.7
353.148	3.65
353.513	3.73
353.878	3.66
354.243	3.73
354.608	3.67
354.972	3.78
355.337	3.87
355.702	3.93
356.066	4.01
356.431	4.08
356.795	4.15
357.16	4.14
357.524	4.15
357.889	4.12
358.253	4.15
358.618	4.19
358.982	4.18
359.346	4.13
359.71	4.08
360.075	4.13
360.439	4.14
360.803	4.16
361.167	4.15
361.531	4.14
361.895	4.03
362.259	4.02
362.623	4.03
362.987	4.03
363.351	4.06
363.714	4.04
364.078	4
364.442	3.95
364.806	3.93
365.169	3.87
365.533	3.92
365.896	3.86
366.26	3.9
366.623	3.93
366.987	3.98
367.35	4.01
367.714	3.97
368.077	3.96
368.44	3.93
368.803	3.88
369.167	3.86
369.53	3.82
369.893	3.87
370.256	3.83
370.619	3.79
370.982	3.72
371.345	3.71
371.708	3.78
372.071	3.73
372.434	3.77
372.797	3.81
373.159	3.78
373.522	3.81
373.885	3.79
374.247	3.8
374.61	3.81
374.973	3.8
375.335	3.81
375.698	3.83
376.06	3.81
376.423	3.81
376.785	3.86
377.147	3.94
377.51	3.93
377.872	3.96
378.234	3.99
378.596	4.02
378.958	3.94
379.321	3.92
379.683	3.96
380.045	3.89
380.407	3.85
380.769	3.82
381.13	3.8
381.492	3.73
381.854	3.74
382.216	3.7
382.578	3.67
382.939	3.62
383.301	3.58
383.663	3.55
384.024	3.58
384.386	3.6
384.747	3.55
385.109	3.54
385.47	3.54
385.832	3.54
386.193	3.57
386.554	3.61
386.916	3.61
387.277	3.62
387.638	3.69
387.999	3.72
388.36	3.75
388.721	3.84
389.082	3.89
389.443	3.83
389.804	3.83
390.165	3.82
390.526	3.86
390.887	3.87
391.248	3.91
391.609	3.91
391.969	3.88
392.33	3.87
392.691	3.92
393.051	3.92
393.412	3.94
393.772	3.88
394.133	3.89
394.493	3.87
394.854	3.88
395.214	3.85
395.574	3.84
395.935	3.85
396.295	3.84
396.655	3.82
397.015	3.82
397.376	3.83
397.736	3.82
398.096	3.82
398.456	3.81
398.816	3.8
399.176	3.76
399.535	3.75
399.895	3.77
400.255	3.73
400.615	3.73
400.975	3.7
401.334	3.74
401.694	3.75
402.054	3.77
402.413	3.77
402.773	3.77
403.132	3.78
403.492	3.78
403.851	3.77
404.211	3.79
404.57	3.81
404.929	3.85
405.288	3.9
405.648	3.89
406.007	3.91
406.366	3.91
406.725	3.94
407.084	3.97
407.443	3.95
407.802	3.96
408.161	3.96
408.52	3.96
408.879	3.95
409.238	3.95
409.596	3.96
409.955	3.95
410.314	3.97
410.673	3.96
411.031	3.95
411.39	3.97
411.748	3.97
412.107	3.99
412.465	3.95
412.824	3.96
413.182	3.95
413.54	3.96
413.899	3.97
414.257	3.96
414.615	3.96
414.974	3.98
415.332	3.97
415.69	3.96
416.048	3.94
416.406	3.94
416.764	3.94
417.122	3.95
417.48	3.94
417.838	3.94
418.195	3.93
418.553	3.92
418.911	3.91
419.269	3.93
419.626	3.93
419.984	3.92
420.342	3.91
420.699	3.9
421.057	3.9
421.414	3.88
421.772	3.89
422.129	3.89
422.486	3.89
422.844	3.88
423.201	3.88
423.558	3.89
423.915	3.89
424.273	3.87
424.63	3.85
424.987	3.85
425.344	3.84
425.701	3.84
426.058	3.84
426.415	3.83
426.772	3.81
427.128	3.77
427.485	3.78
427.842	3.77
428.199	3.78
428.555	3.77
428.912	3.78
429.269	3.79
429.625	3.8
429.982	3.78
430.338	3.8
430.695	3.78
431.051	3.77
431.407	3.77
431.764	3.78
432.12	3.8
432.476	3.8
432.832	3.79
433.189	3.81
433.545	3.81
433.901	3.83
434.257	3.81
434.613	3.82
434.969	3.8
435.325	3.81
435.681	3.81
436.036	3.82
436.392	3.81
436.748	3.81
437.104	3.79
437.459	3.79
437.815	3.8
438.171	3.83
438.526	3.83
438.882	3.83
439.237	3.84
439.593	3.83
439.948	3.83
440.304	3.85
440.659	3.84
441.014	3.84
441.369	3.84
441.725	3.84
442.08	3.85
442.435	3.87
442.79	3.86
443.145	3.86
443.5	3.86
443.855	3.84
444.21	3.82
444.565	3.83
444.92	3.83
445.275	3.81
445.629	3.8
445.984	3.81
446.339	3.8
446.693	3.79
447.048	3.78
447.403	3.77
447.757	3.75
448.112	3.75
448.466	3.74
448.82	3.72
449.175	3.72
449.529	3.72
449.883	3.69
450.238	3.69
450.592	3.68
450.946	3.67
451.3	3.69
451.654	3.69
452.008	3.69
452.362	3.69
452.716	3.69
453.07	3.68
453.424	3.69
453.778	3.7
454.132	3.72
454.486	3.71
454.839	3.72
455.193	3.74
455.547	3.75
455.9	3.76
456.254	3.78
456.607	3.78
456.961	3.79
457.314	3.81
457.668	3.8
458.021	3.8
458.375	3.82
458.728	3.82
459.081	3.82
459.434	3.81
459.787	3.81
460.141	3.81
460.494	3.82
460.847	3.82
461.2	3.82
461.553	3.79
461.906	3.82
462.259	3.84
462.611	3.83
462.964	3.84
463.317	3.85
463.67	3.87
464.022	3.88
464.375	3.87
464.728	3.88
465.08	3.89
465.433	3.89
465.785	3.88
466.138	3.88
466.49	3.87
466.843	3.88
467.195	3.89
467.547	3.91
467.899	3.9
468.252	3.9
468.604	3.9
468.956	3.92
469.308	3.9
469.66	3.89
470.012	3.9
470.364	3.9
470.716	3.89
471.068	3.88
471.42	3.87
471.772	3.89
472.123	3.89
472.475	3.91
472.827	3.91
473.178	3.92
473.53	3.94
473.882	3.97
474.233	4
474.585	3.98
474.936	3.95
475.288	3.97
475.639	3.98
475.99	3.97
476.342	3.97
476.693	3.98
477.044	4
477.395	4
477.746	3.99
478.097	3.97
478.448	3.97
478.8	3.97
479.15	3.94
479.501	3.95
479.852	3.96
480.203	3.97
480.554	3.98
480.905	3.97
481.255	3.97
481.606	3.97
481.957	3.98
482.307	4
482.658	4
483.009	3.99
483.359	4
483.709	4.01
484.06	4.01
484.41	4.01
484.761	4.01
485.111	4.01
485.461	4.02
485.811	4.02
486.162	4.02
486.512	4.04
486.862	4.04
487.212	4.02
487.562	4.02
487.912	4.02
488.262	4.02
488.612	4.01
488.961	4.02
489.311	4.02
489.661	4.01
490.011	3.99
490.36	3.99
490.71	3.99
491.06	3.98
491.409	3.97
491.759	3.97
492.108	3.97
492.458	3.97
492.807	3.96
493.157	3.96
493.506	3.96
493.855	3.97
494.204	3.95
494.554	3.96
494.903	3.95
495.252	3.95
495.601	3.95
495.95	3.97
496.299	3.95
496.648	3.93
496.997	3.94
497.346	3.95
497.695	3.96
498.043	3.95
498.392	3.93
498.741	3.94
499.09	3.94
499.438	3.94
499.787	3.97
500.135	3.98
500.484	4.01
500.832	4.03
501.181	4.01
501.529	4.03
501.878	4.05
502.226	4.06
502.574	4.07
502.923	4.1
503.271	4.08
503.619	4.09
503.967	4.11
504.315	4.1
504.663	4.11
505.011	4.13
505.359	4.14
505.707	4.18
506.055	4.19
506.403	4.2
506.751	4.19
507.098	4.17
507.446	4.19
507.794	4.16
508.141	4.17
508.489	4.17
508.837	4.17
509.184	4.14
509.531	4.14
509.879	4.16
510.226	4.17
510.574	4.18
510.921	4.21
511.268	4.2
511.616	4.22
511.963	4.22
512.31	4.22
512.657	4.24
513.004	4.24
513.351	4.24
513.698	4.24
514.045	4.24
514.392	4.26
514.739	4.27
515.086	4.26
515.432	4.28
515.779	4.29
516.126	4.32
516.473	4.35
516.819	4.37
517.166	4.37
517.512	4.35
517.859	4.36
518.205	4.36
518.552	4.4
518.898	4.4
519.245	4.42
519.591	4.43
519.937	4.42
520.283	4.44
520.629	4.45
520.976	4.46
521.322	4.46
521.668	4.46
522.014	4.46
522.36	4.5
522.706	4.51
523.052	4.53
523.398	4.53
523.743	4.54
524.089	4.55
524.435	4.56
524.781	4.59
525.126	4.6
525.472	4.61
525.817	4.6
526.163	4.6
526.509	4.6
526.854	4.6
527.199	4.61
527.545	4.61
527.89	4.63
528.235	4.64
528.581	4.66
528.926	4.67
529.271	4.69
529.616	4.68
529.961	4.69
530.306	4.69
530.651	4.69
530.996	4.69
531.341	4.68
531.686	4.69
532.031	4.69
532.376	4.69
532.721	4.69
533.065	4.71
533.41	4.73
533.755	4.73
534.099	4.74
534.444	4.74
534.788	4.75
535.133	4.74
535.477	4.75
535.822	4.75
536.166	4.74
536.51	4.74
536.855	4.77
537.199	4.77
537.543	4.79
537.887	4.8
538.231	4.8
538.576	4.81
538.92	4.82
539.264	4.82
539.608	4.81
539.951	4.81
540.295	4.81
540.639	4.83
540.983	4.83
541.327	4.84
541.671	4.84
542.014	4.85
542.358	4.85
542.701	4.85
543.045	4.85
543.389	4.88
543.732	4.87
544.075	4.85
544.419	4.86
544.762	4.85
545.105	4.86
545.449	4.87
545.792	4.87
546.135	4.87
546.478	4.89
546.821	4.9
547.165	4.92
547.508	4.93
547.851	4.91
548.194	4.92
548.536	4.92
548.879	4.93
549.222	4.92
549.565	4.92
549.908	4.94
550.25	4.96
550.593	4.97
550.936	4.96
551.278	5.01
551.621	5.01
551.963	5.04
552.306	5.05
552.648	5.09
552.991	5.12
553.333	5.12
553.675	5.13
554.017	5.15
554.36	5.13
554.702	5.14
555.044	5.17
555.386	5.16
555.728	5.19
556.07	5.24
556.412	5.24
556.754	5.24
557.096	5.26
557.438	5.23
557.78	5.23
558.121	5.25
558.463	5.27
558.805	5.27
559.147	5.26
559.488	5.26
559.83	5.24
560.171	5.26
560.513	5.26
560.854	5.26
561.196	5.25
561.537	5.28
561.878	5.27
562.22	5.26
562.561	5.27
562.902	5.28
563.243	5.25
563.584	5.29
563.925	5.31
564.266	5.3
564.607	5.34
564.948	5.36
565.289	5.39
565.63	5.38
565.971	5.38
566.312	5.41
566.653	5.42
566.993	5.41
567.334	5.4
567.675	5.4
568.015	5.41
568.356	5.44
568.696	5.44
569.037	5.48
569.377	5.49
569.718	5.51
570.058	5.53
570.398	5.55
570.739	5.54
571.079	5.55
571.419	5.56
571.759	5.55
572.099	5.53
572.439	5.52
572.779	5.53
573.119	5.57
573.459	5.57
573.799	5.58
574.139	5.61
574.479	5.63
574.819	5.65
575.158	5.63
575.498	5.6
575.838	5.61
576.177	5.6
576.517	5.6
576.856	5.59
577.196	5.58
577.535	5.56
577.875	5.58
578.214	5.59
578.553	5.57
578.893	5.59
579.232	5.58
579.571	5.58
579.91	5.59
580.25	5.58
580.589	5.61
580.928	5.61
581.267	5.6
581.606	5.61
581.945	5.63
582.283	5.63
582.622	5.65
582.961	5.66
583.3	5.63
583.639	5.67
583.977	5.71
584.316	5.73
584.654	5.72
584.993	5.7
585.332	5.73
585.67	5.78
586.008	5.8
586.347	5.8
586.685	5.82
587.024	5.81
587.362	5.81
587.7	5.75
588.038	5.76
588.376	5.75
588.715	5.74
589.053	5.76
589.391	5.81
589.729	5.84
590.067	5.82
590.404	5.87
590.742	5.86
591.08	5.83
591.418	5.84
591.756	5.86
592.093	5.9
592.431	5.88
592.769	5.9
593.106	5.91
593.444	5.92
593.781	5.9
594.119	5.95
594.456	5.94
594.793	5.96
595.131	5.98
595.468	6
595.805	6.04
596.143	6.03
596.48	6.01
596.817	6.01
597.154	6.05
597.491	6.03
597.828	6.04
598.165	6.06
598.502	6.06
598.839	6.06
599.176	6.06
599.512	6.05
599.849	6.03
600.186	6.03
600.523	6.08
600.859	6.11
601.196	6.1
601.532	6.13
601.869	6.12
602.205	6.12
602.542	6.14
602.878	6.06
603.215	6.07
603.551	6.1
603.887	6.12
604.223	6.1
604.56	6.15
604.896	6.15
605.232	6.15
605.568	6.15
605.904	6.13
606.24	6.14
606.576	6.12
606.912	6.12
607.248	6.12
607.583	6.12
607.919	6.08
608.255	6.06
608.591	6.04
608.926	6.05
609.262	6.06
609.597	6.07
609.933	6.13
610.268	6.14
610.604	6.14
610.939	6.1
611.275	6.07
611.61	6.07
611.945	6.05
612.281	6.02
612.616	5.99
612.951	6.05
613.286	6.05
613.621	6.08
613.956	6.09
614.291	6.08
614.626	6.04
614.961	6.08
615.296	6.09
615.631	6.07
615.966	6.03
616.3	6.04
616.635	6.04
616.97	6.03
617.304	6.06
617.639	6.04
617.973	6.06
618.308	6.06
618.642	6.06
618.977	6.06
619.311	6.09
619.646	6.14
619.98	6.13
620.314	6.16
620.648	6.19
620.983	6.16
621.317	6.18
621.651	6.21
621.985	6.23
622.319	6.25
622.653	6.34
622.987	6.41
623.321	6.35
623.655	6.34
623.988	6.33
624.322	6.28
624.656	6.31
624.99	6.33
625.323	6.37
625.657	6.33
625.99	6.36
626.324	6.34
626.657	6.34
626.991	6.33
627.324	6.28
627.658	6.25
627.991	6.33
628.324	6.3
628.657	6.28
628.991	6.25
629.324	6.27
629.657	6.25
629.99	6.28
630.323	6.29
630.656	6.28
630.989	6.36
631.322	6.44
631.655	6.42
631.987	6.47
632.32	6.47
632.653	6.49
632.986	6.53
633.318	6.56
633.651	6.54
633.984	6.54
634.316	6.58
634.649	6.61
634.981	6.59
635.313	6.57
635.646	6.57
635.978	6.6
636.31	6.57
636.643	6.54
636.975	6.49
637.307	6.48
637.639	6.47
637.971	6.45
638.303	6.38
638.635	6.34
638.967	6.27
639.299	6.31
639.631	6.3
639.963	6.24
640.295	6.27
640.626	6.25
640.958	6.32
641.29	6.36
641.621	6.36
641.953	6.24
642.285	6.32
642.616	6.33
642.948	6.29
643.279	6.33
643.61	6.34
643.942	6.34
644.273	6.38
644.604	6.38
644.936	6.33
645.267	6.32
645.598	6.32
645.929	6.39
646.26	6.36
646.591	6.38
646.922	6.37
647.253	6.38
647.584	6.35
647.915	6.28
648.245	6.22
648.576	6.23
648.907	6.33
649.238	6.32
649.568	6.32
649.899	6.39
650.229	6.36
650.56	6.47
650.89	6.48
651.221	6.42
651.551	6.41
651.882	6.44
652.212	6.5
652.542	6.51
652.872	6.44
653.203	6.39
653.533	6.41
653.863	6.46
654.193	6.45
654.523	6.45
654.853	6.49
655.183	6.53
655.513	6.5
655.843	6.54
656.172	6.54
656.502	6.56
656.832	6.47
657.162	6.54
657.491	6.43
657.821	6.43
658.15	6.48
658.48	6.51
658.809	6.52
659.139	6.43
659.468	6.43
659.798	6.5
660.127	6.55
660.456	6.5
660.785	6.53
661.115	6.45
661.444	6.43
661.773	6.42
662.102	6.37
662.431	6.38
662.76	6.29
663.089	6.27
663.418	6.22
663.747	6.23
664.076	6.16
664.404	6.19
664.733	6.21
665.062	6.22
665.39	6.28
665.719	6.26
666.048	6.34
666.376	6.33
666.705	6.3
667.033	6.32
667.362	6.4
667.69	6.35
668.018	6.42
668.347	6.56
668.675	6.6
669.003	6.65
669.331	6.77
669.659	6.87
669.987	6.88
670.315	6.94
670.643	6.93
670.971	6.94
671.299	6.92
671.627	6.9
671.955	6.87
672.283	6.81
672.61	6.84
672.938	6.85
673.266	6.93
673.593	6.96
673.921	6.96
674.249	6.89
674.576	6.9
674.904	6.97
675.231	6.95
675.558	6.95
675.886	6.87
676.213	6.79
676.54	6.74
676.867	6.82
677.195	6.77
677.522	6.87
677.849	6.9
678.176	6.98
678.503	6.98
678.83	7.01
679.157	6.93
679.484	6.93
679.81	6.96
680.137	6.93
680.464	6.95
680.791	7
681.117	6.96
681.444	6.92
681.771	6.9
682.097	6.86
682.424	6.88
682.75	6.94
683.077	6.91
683.403	6.93
683.729	6.92
684.056	6.97
684.382	6.94
684.708	6.92
685.034	6.85
685.36	6.87
685.686	6.78
686.012	6.87
686.339	6.87
686.664	6.86
686.99	6.86
687.316	6.81
687.642	6.85
687.968	6.85
688.294	6.97
688.619	6.97
688.945	7.01
689.271	6.96
689.596	6.87
689.922	6.92
690.247	6.83
690.573	6.8
690.898	6.83
691.224	6.78
691.549	6.78
691.874	6.83
692.2	6.86
692.525	7
692.85	7.17
693.175	7.17
693.5	7.08
693.825	7.09
694.15	7.13
694.475	7.04
694.8	7.16
695.125	7.07
695.45	7.04
695.775	7.02
696.099	7.04
696.424	7.05
696.749	7.06
697.073	7.03
697.398	7.08
697.723	7.07
698.047	7.05
698.372	7.03
698.696	6.93
699.02	6.93
699.345	6.88
699.669	6.86
699.993	6.8
700.318	6.89
700.642	6.88
700.966	6.87
701.29	6.9
701.614	6.87
701.938	6.98
702.262	7.1
702.586	7.13
702.91	7.08
703.234	7.11
703.557	7.12
703.881	7.21
704.205	7.13
704.529	7.11
704.852	7.12
705.176	7.18
705.499	7.36
705.823	7.35
706.146	7.39
706.47	7.33
706.793	7.41
707.117	7.34
707.44	7.32
707.763	7.3
708.086	7.27
708.409	7.23
708.733	7.22
709.056	7.05
709.379	7.08
709.702	7.03
710.025	7
710.348	6.97
710.671	6.97
710.993	7.03
711.316	6.96
711.639	7.09
711.962	7.19
712.284	7.19
712.607	7.23
712.93	7.24
713.252	7.12
713.575	7.22
713.897	7.28
714.22	7.26
714.542	7.23
714.864	7.25
715.187	7.37
715.509	7.26
715.831	7.42
716.153	7.32
716.475	7.42
716.798	7.55
717.12	7.56
717.442	7.55
717.764	7.62
718.085	7.67
718.407	7.62
718.729	7.37
719.051	7.26
719.373	7.12
719.695	6.99
720.016	7.14
720.338	7.09
720.659	7.07
720.981	7.08
721.302	7.19
721.624	7.33
721.945	7.17
722.267	7.43
722.588	7.08
722.909	7.18
723.231	7.06
723.552	7.15
723.873	7.18
724.194	7.29
724.515	7.13
724.836	7.06
725.157	7.17
725.478	7.37
725.799	7.44
726.12	7.41
726.441	7.49
726.762	7.42
727.083	7.36
727.403	7.38
727.724	7.45
728.045	7.57
728.365	7.52
728.686	7.58
729.006	7.39
729.327	7.64
729.647	7.56
729.967	7.79
730.288	7.75
730.608	7.72
730.928	7.7
731.249	7.77
731.569	7.91
731.889	7.91
732.209	7.89
732.529	7.85
732.849	7.98
733.169	7.99
733.489	8.01
733.809	7.99
734.129	8.01
734.448	8.05
734.768	7.87
735.088	7.89
735.408	7.98
735.727	8.01
736.047	8.1
736.366	8.09
736.686	7.98
737.005	8.14
737.325	8.2
737.644	8.15
737.963	8.17
738.283	8.15
738.602	8.13
738.921	8.03
739.24	8.09
739.56	8.23
739.879	8.36
740.198	8.24
740.517	8.2
740.836	8.21
741.155	8.21
741.473	8.32
741.792	8.22
742.111	8.03
742.43	8.03
742.748	7.93
743.067	8.14
743.386	8.17
743.704	7.95
744.023	7.93
744.341	8.01
744.66	8.12
744.978	8
745.297	7.97
745.615	8.13
745.933	8.26
746.252	8.17
746.57	8.05
746.888	8.29
747.206	8.51
747.524	8.41
747.842	8.36
748.16	8.4
748.478	8.47
748.796	8.63
749.114	8.79
749.432	8.82
749.749	8.74
750.067	8.97
750.385	9
750.703	8.96
751.02	8.79
751.338	8.61
751.655	8.83
751.973	8.72
752.29	8.71
752.608	8.48
752.925	8.52
753.242	8.63
753.56	8.29
753.877	8.28
754.194	8.17
754.511	8.08
754.828	7.82
755.145	7.75
755.462	7.8
755.779	7.73
756.096	7.82
756.413	7.72
756.73	7.53
757.047	7.79
757.364	7.62
757.68	7.6
757.997	7.68
758.314	7.85
758.63	8.07
758.947	8.13
759.264	8.38
759.58	8.12
759.896	8.07
760.213	8.45
760.529	8.45
760.846	8.67
761.162	8.83
761.478	8.83
761.794	8.79
762.11	8.81
762.426	8.74
762.743	8.59
763.059	8.71
763.375	8.75
763.69	8.87
764.006	9.13
764.322	9.42
764.638	9.65
764.954	9.61
765.27	9.35
765.585	9.25
765.901	9.18
766.216	9.3
766.532	9.07
766.848	8.99
767.163	8.97
767.478	9.18
767.794	9.2
768.109	9.24
768.424	9.26
768.74	9.11
769.055	9.02
769.37	8.95
769.685	8.87
770	9.02
770.315	8.57
770.63	8.41
770.945	8.05
771.26	7.86
771.575	7.66
771.89	7.98
772.205	8.1
772.52	8.1
772.834	8.4
773.149	8.75
773.464	8.7
773.778	8.57
774.093	8.02
774.407	7.87
774.722	8
775.036	8.43
775.351	8.69
775.665	8.97
775.979	9.1
776.293	9.13
776.608	8.61
776.922	8.5
777.236	8.61
777.55	8.51
777.864	8.5
778.178	8.68
778.492	8.7
778.806	8.71
779.12	8.78
779.434	8.48
779.747	8.56
780.061	8.62
780.375	8.54
780.689	8.74
781.002	8.77
781.316	8.99
781.629	8.74
781.943	8.59
782.256	8.8
782.57	8.95
782.883	9.19
783.196	9.36
783.51	9.36
783.823	8.92
784.136	9.38
784.449	9.32
784.762	9.1
785.075	8.98
785.388	8.77
785.701	8.53
786.014	8.51
786.327	8.38
786.64	8.47
786.953	8.47
787.266	8.62
787.578	8.6
787.891	8.35
788.204	8.32
788.516	8.35
788.829	8.47
789.141	8.63
789.454	8.52
789.766	8.79
790.079	8.99
790.391	9.13
790.703	8.9
791.016	8.93
791.328	9.26
791.64	9.44
791.952	9.6
792.264	9.29
792.576	9.66
792.888	9.95
793.2	10.12
793.512	10.49
793.824	10.48
794.136	10.66
794.448	10.7
794.76	10.63
795.071	10.76
795.383	10.43
795.695	10.08
796.006	10.28
796.318	10.03
796.629	10.27
796.941	10.69
797.252	11.06
797.564	11.62
797.875	11.16
798.186	10.94
798.497	11.12
798.809	11.56
799.12	11.21
799.431	10.94
799.742	11.29
800.053	11.49
800.364	11.55
800.675	10.99
800.986	10.71
801.297	10.72
801.608	10.79
801.918	10.37
802.229	10.78
802.54	10.74
802.851	11.01
803.161	10.89
803.472	10.79
803.782	10.65
804.093	10.11
804.403	10.31
804.714	10.2
805.024	9.43
805.334	9.95
805.645	10.45
805.955	10.66
806.265	10.37
806.575	9.56
806.885	9.92
807.195	10.94
807.505	11.79
807.815	12.06
808.125	11.53
808.435	11.91
808.745	11.54
809.055	11.33
809.365	10.93
809.674	10.61
809.984	10.58
810.294	10.41
810.603	10.61
810.913	11.13
811.222	11.99
811.532	12.83
811.841	12.74
812.151	12.35
812.46	12.98
812.769	12.5
813.079	12.48
813.388	11.96
813.697	11.34
814.006	10.91
814.315	10.69
814.624	11.03
814.933	11.66
815.242	12.2
815.551	12.37
815.86	13.28
816.169	13.78
816.478	13.8
816.786	13.99
817.095	13.81
817.404	13.41
817.712	12.61
818.021	12.75
818.33	12.24
818.638	11.79
818.947	11.44
819.255	11.37
819.563	11.79
819.872	11.9
820.18	12.22
820.488	12.14
820.796	12.25
821.105	12.2
821.413	12.05
821.721	12.01
822.029	11.94
822.337	11.87
822.645	11.93
822.953	12
823.26	12
823.568	11.89
823.876	11.96
824.184	11.95
824.491	11.87
824.799	11.92
825.107	12.18
825.414	12.22
825.722	12.35
826.029	12.29
826.337	12.26
826.644	12.06
826.951	12.02
827.259	11.87
827.566	11.92
827.873	11.97
828.18	12.01
828.488	12.06
828.795	11.84
829.102	11.7
829.409	11.57
829.716	11.42
830.023	11.53
830.329	11.33
830.636	11.74
830.943	11.8
831.25	11.53
831.557	11.45
831.863	11.69
832.17	11.26
832.476	11.45
832.783	11.49
833.089	11.93
833.396	12.44
833.702	13.02
834.009	13.13
834.315	13.02
834.621	12.49
834.928	12.59
835.234	12.43
835.54	12.2
835.846	12.41
836.152	12.91
836.458	12.69
836.764	12.76
837.07	12.11
837.376	12.06
837.682	12.32
837.988	11.99
838.293	11.27
838.599	11.65
838.905	11.13
839.211	11
839.516	10.71
839.822	10.65
840.127	9.33
840.433	9.59
840.738	9.57
841.044	10.45
841.349	10.81
841.654	11.57
841.959	11.84
842.265	11.73
842.57	11.9
842.875	12.96
843.18	13.47
843.485	14.75
843.79	14.81
844.095	14.17
844.4	15.14
844.705	15.34
845.01	15.69
845.315	15.82
845.619	15.37
845.924	15.41
846.229	14.64
846.533	15.91
846.838	14.99
847.142	14.08
847.447	14.01
847.751	11.75
848.056	10.75
848.36	10.51
848.664	10.96
848.969	9.19
849.273	7.64
849.577	5.99
849.881	4.44
850.185	4.92
850.489	7.65
850.794	7.09
851.097	6.59
851.401	6.76
851.705	7.47
852.009	9.59
852.313	8.85
852.617	8.28
852.92	8.14
853.224	6.99
853.528	7.3
853.831	6.75
854.135	7.86
854.438	9.01
854.742	9.16
855.045	7.68
855.349	7.87
855.652	9.25
855.955	10.75
856.259	10.35
856.562	9.04
856.865	6.37
857.168	5.91
857.471	6.6
857.774	6.82
858.077	7.68
858.38	6.93
858.683	6.56
858.986	7.62
859.289	6.16
859.592	7.77
859.894	7.92
860.197	6.3
860.5	6.86
860.802	5.97
861.105	5.94
861.407	6.86
861.71	5.35
862.012	5.15
862.315	5.52
862.617	4.79
862.919	6.18
863.222	7.9
863.524	7.73
863.826	7.73
864.128	7.22
864.43	6.07
864.732	4.98
865.034	5.54
865.336	2.75
865.638	4.31
865.94	3.6
866.242	3.1
866.544	4.34
866.846	4.96
867.147	7.12
867.449	8.5
867.751	9.08
868.052	12.8
868.354	12.45
868.655	12.07
868.957	12.63
869.258	11.5
869.56	9.53
869.861	9.52
870.162	10.19
870.463	11.71
870.765	12.5
871.066	12.96
871.367	11.58
871.668	14.06
871.969	12.54
872.27	12.47
872.571	13.9
872.872	13.92
873.173	11.41
873.473	11.72
873.774	12.2
874.075	10.74
874.376	8.7
874.676	8.56
874.977	7.16
875.277	8.59
875.578	9.56
875.878	10.98
876.179	10.81
876.479	10.68
876.78	8.55
877.08	8.67
877.38	8.61
877.68	10.86
877.981	9.88
878.281	11.72
878.581	12.03
