Data from BA28467_Reflection_00005.txt Node
Date: Mon Nov 18 15:33:02 EST 2019
User: vgr7
Spectrometer: USB2G7710
Scans to average: 3
Trigger mode: 4
Integration Time (sec): 2.000000E-2
Electric dark correction enabled: true
Boxcar width: 10
XAxis mode: Wavelengths
Number of Pixels in Spectrum: 2048
>>>>>Begin Spectral Data<<<<<
177.721	125.11
178.105	160.91
178.488	38.37
178.871	36.44
179.254	295.98
179.636	-18.58
180.019	517.72
180.402	170
180.785	1312.77
181.168	627.03
181.55	372.73
181.933	141.22
182.316	143.58
182.698	102.35
183.081	67.36
183.463	151.63
183.846	304.36
184.228	234.95
184.611	138.3
184.993	-73.75
185.376	-98.24
185.758	-113.39
186.14	-57.11
186.522	12.03
186.904	-23.29
187.287	-609.92
187.669	-82.71
188.051	196.21
188.433	-77.07
188.815	-46.16
189.197	-115.12
189.579	-49.27
189.961	-34.87
190.342	-42.68
190.724	-11.81
191.106	-52.5
191.488	-50.84
191.869	-34.21
192.251	-63.36
192.633	-82.64
193.014	-115.26
193.396	-167.72
193.777	-188.07
194.159	-175.83
194.54	-248.37
194.922	-137.95
195.303	-243.72
195.684	-169.79
196.065	-76.62
196.447	-179.13
196.828	-786.12
197.209	-185.58
197.59	-644.78
197.971	2473.91
198.352	-5580.85
198.733	422.81
199.114	393.9
199.495	392.54
199.876	199.89
200.257	-748.61
200.638	-196.07
201.018	-146.98
201.399	-111.81
201.78	-91.49
202.16	-128.47
202.541	-173.31
202.922	-406.27
203.302	-346.52
203.683	-352.88
204.063	-1052.74
204.444	-908.57
204.824	-381.21
205.204	-674.76
205.585	-307.28
205.965	-180.21
206.345	-285.81
206.725	-282.24
207.106	-497.03
207.486	-547.22
207.866	-440.87
208.246	-1499.22
208.626	1803.52
209.006	885.92
209.386	262.83
209.766	353.01
210.145	4618.99
210.525	-2374.45
210.905	-442.17
211.285	-142.26
211.664	-220.9
212.044	-130.52
212.424	-105.83
212.803	-166.27
213.183	-150.78
213.562	-104.04
213.942	-93.37
214.321	-91.04
214.701	-125.15
215.08	-111.21
215.459	-116.6
215.838	-91.23
216.218	-82.25
216.597	-55.97
216.976	-63.55
217.355	-53.59
217.734	-69.9
218.113	-81.6
218.492	-89.44
218.871	-104.42
219.25	-102.69
219.629	-88.69
220.008	-110.91
220.387	-72.65
220.766	-67.67
221.144	-94.81
221.523	-120.08
221.902	-131.28
222.28	-128.94
222.659	-70.67
223.037	-63.07
223.416	-57.45
223.794	-58.4
224.173	-45.74
224.551	-48.21
224.929	-48.88
225.308	-41.32
225.686	-34.21
226.064	-25.01
226.442	-20.08
226.821	-11.8
227.199	-9.6
227.577	-12.02
227.955	-6.19
228.333	-7.81
228.711	-5
229.089	-3.66
229.467	-5.06
229.845	-2.57
230.222	-4.71
230.6	-4.94
230.978	-5.2
231.356	-2.56
231.733	-4.98
232.111	-4.08
232.488	-2.73
232.866	-2.01
233.243	-1.87
233.621	-2.73
233.998	-3.4
234.376	-6.03
234.753	-8.21
235.13	-7.88
235.508	-5.51
235.885	-4.78
236.262	-5.9
236.639	-4.69
237.016	-3.49
237.393	-0.51
237.77	-0.26
238.147	1.09
238.524	1.29
238.901	1.87
239.278	2.59
239.655	3.4
240.032	3.66
240.409	3.15
240.785	3.56
241.162	4.58
241.539	5.15
241.915	5.6
242.292	5.49
242.668	5.77
243.045	5.4
243.421	5.39
243.798	4.95
244.174	5.15
244.551	4.97
244.927	5.03
245.303	4.79
245.679	4.77
246.056	4.71
246.432	4.76
246.808	4.79
247.184	4.28
247.56	4.08
247.936	3.83
248.312	4
248.688	3.94
249.064	3.56
249.44	3.36
249.815	3.35
250.191	3.66
250.567	3.5
250.943	3.46
251.318	3.55
251.694	3.57
252.069	3.53
252.445	3.55
252.82	3.57
253.196	3.5
253.571	3.28
253.947	3.19
254.322	3.09
254.697	2.99
255.073	3.16
255.448	3.36
255.823	3.43
256.198	3.36
256.573	3.36
256.948	3.64
257.323	3.86
257.698	3.79
258.073	3.86
258.448	3.97
258.823	3.96
259.198	3.84
259.573	3.89
259.948	4
260.322	3.92
260.697	3.96
261.072	3.86
261.446	3.97
261.821	3.85
262.195	3.78
262.57	3.79
262.944	3.91
263.319	3.82
263.693	3.88
264.067	3.89
264.442	4.1
264.816	4.04
265.19	3.79
265.564	3.82
265.938	3.7
266.313	3.55
266.687	3.62
267.061	3.64
267.435	3.67
267.809	3.59
268.183	3.84
268.556	3.52
268.93	3.75
269.304	3.73
269.678	3.87
270.051	3.89
270.425	3.84
270.799	3.78
271.172	3.82
271.546	3.75
271.919	3.74
272.293	3.44
272.666	3.46
273.04	3.64
273.413	3.68
273.787	3.7
274.16	3.82
274.533	3.83
274.906	3.84
275.279	3.72
275.653	3.53
276.026	3.3
276.399	3.45
276.772	3.34
277.145	3.35
277.518	3.27
277.891	3.33
278.263	3.44
278.636	3.47
279.009	3.57
279.382	3.81
279.755	3.91
280.127	4.22
280.5	4.3
280.872	4.29
281.245	4.27
281.617	4.27
281.99	4.25
282.362	4.24
282.735	4.14
283.107	4.27
283.479	4.46
283.852	4.52
284.224	4.49
284.596	4.54
284.968	4.41
285.34	4.58
285.713	4.52
286.085	4.48
286.457	4.51
286.829	4.52
287.201	4.37
287.572	4.29
287.944	4.18
288.316	4.2
288.688	4.12
289.06	4.08
289.431	4.06
289.803	4.06
290.175	4.05
290.546	4.11
290.918	4.16
291.289	4.22
291.661	4.25
292.032	4.4
292.403	4.35
292.775	4.51
293.146	4.39
293.517	4.59
293.889	4.67
294.26	4.66
294.631	4.71
295.002	4.76
295.373	4.77
295.744	4.83
296.115	4.72
296.486	4.7
296.857	4.75
297.228	4.79
297.599	4.75
297.97	4.77
298.34	4.74
298.711	4.7
299.082	4.58
299.452	4.57
299.823	4.55
300.194	4.47
300.564	4.41
300.935	4.48
301.305	4.36
301.676	4.29
302.046	4.24
302.416	4.27
302.787	4.23
303.157	4.22
303.527	4.17
303.897	4.19
304.267	4.33
304.637	4.41
305.008	4.36
305.378	4.5
305.748	4.55
306.117	4.59
306.487	4.54
306.857	4.63
307.227	4.61
307.597	4.54
307.967	4.63
308.336	4.63
308.706	4.51
309.076	4.54
309.445	4.52
309.815	4.62
310.184	4.42
310.554	4.45
310.923	4.48
311.293	4.51
311.662	4.5
312.031	4.35
312.401	4.32
312.77	4.45
313.139	4.43
313.508	4.46
313.877	4.54
314.246	4.55
314.616	4.45
314.985	4.41
315.353	4.45
315.722	4.48
316.091	4.47
316.46	4.55
316.829	4.45
317.198	4.51
317.567	4.41
317.935	4.36
318.304	4.39
318.672	4.52
319.041	4.59
319.41	4.68
319.778	4.87
320.147	4.76
320.515	4.7
320.883	4.69
321.252	4.56
321.62	4.5
321.988	4.57
322.357	4.59
322.725	4.62
323.093	4.73
323.461	4.79
323.829	4.98
324.197	5.08
324.565	5.19
324.933	5.03
325.301	5.11
325.669	5.22
326.037	5.17
326.405	5.12
326.772	5.08
327.14	5.02
327.508	4.96
327.875	4.93
328.243	4.94
328.61	4.94
328.978	4.92
329.346	5
329.713	4.88
330.08	4.96
330.448	4.96
330.815	4.71
331.182	4.6
331.55	4.39
331.917	4.24
332.284	4.19
332.651	4.35
333.018	4.32
333.385	4.23
333.752	4.4
334.119	4.33
334.486	4.34
334.853	4.46
335.22	4.46
335.587	4.56
335.954	4.57
336.32	4.64
336.687	4.79
337.054	4.74
337.42	4.78
337.787	4.79
338.153	4.8
338.52	4.95
338.886	4.95
339.253	4.88
339.619	4.94
339.986	4.88
340.352	4.83
340.718	4.78
341.084	4.82
341.451	4.71
341.817	4.85
342.183	4.78
342.549	4.8
342.915	4.82
343.281	4.78
343.647	4.69
344.013	4.56
344.379	4.44
344.745	4.55
345.11	4.58
345.476	4.59
345.842	4.48
346.208	4.56
346.573	4.61
346.939	4.84
347.304	4.81
347.67	4.82
348.035	4.83
348.401	4.82
348.766	4.92
349.132	4.86
349.497	4.75
349.862	4.84
350.228	4.79
350.593	4.78
350.958	4.8
351.323	4.82
351.688	4.92
352.053	5.02
352.418	4.98
352.783	5.03
353.148	5.04
353.513	5.15
353.878	5.08
354.243	5.15
354.608	5
354.972	5.08
355.337	5.2
355.702	5.21
356.066	5.3
356.431	5.3
356.795	5.35
357.16	5.3
357.524	5.25
357.889	5.25
358.253	5.25
358.618	5.24
358.982	5.24
359.346	5.17
359.71	5.17
360.075	5.18
360.439	5.16
360.803	5.15
361.167	5.1
361.531	5.13
361.895	5.06
362.259	5.11
362.623	5.14
362.987	5.05
363.351	5.05
363.714	4.99
364.078	4.97
364.442	4.94
364.806	4.96
365.169	4.97
365.533	4.91
365.896	4.95
366.26	4.93
366.623	4.91
366.987	4.89
367.35	4.79
367.714	4.77
368.077	4.69
368.44	4.68
368.803	4.73
369.167	4.71
369.53	4.72
369.893	4.76
370.256	4.71
370.619	4.75
370.982	4.72
371.345	4.78
371.708	4.78
372.071	4.81
372.434	4.86
372.797	4.86
373.159	4.91
373.522	4.88
373.885	4.92
374.247	4.98
374.61	5.04
374.973	5.09
375.335	5.06
375.698	5.12
376.06	5.13
376.423	5.11
376.785	5.14
377.147	5.16
377.51	5.1
377.872	5.1
378.234	5.08
378.596	5.15
378.958	5.13
379.321	5.14
379.683	5.17
380.045	5.09
380.407	5.07
380.769	5.07
381.13	5.08
381.492	5.05
381.854	5.01
382.216	5
382.578	5
382.939	5
383.301	4.98
383.663	4.95
384.024	4.94
384.386	4.93
384.747	4.95
385.109	5.01
385.47	5.02
385.832	5.03
386.193	5.02
386.554	5.01
386.916	4.99
387.277	5
387.638	5.07
387.999	5.07
388.36	5.06
388.721	5.05
389.082	5.1
389.443	5.09
389.804	5.07
390.165	5.07
390.526	5.08
390.887	5.08
391.248	5.1
391.609	5.14
391.969	5.11
392.33	5.09
392.691	5.08
393.051	5.08
393.412	5.14
393.772	5.1
394.133	5.13
394.493	5.12
394.854	5.08
395.214	5.06
395.574	5.07
395.935	5.09
396.295	5.08
396.655	5.04
397.015	5.09
397.376	5.11
397.736	5.11
398.096	5.12
398.456	5.16
398.816	5.15
399.176	5.1
399.535	5.09
399.895	5.08
400.255	5.07
400.615	5.08
400.975	5.03
401.334	5.07
401.694	5.05
402.054	5.03
402.413	5.07
402.773	5.06
403.132	5.06
403.492	5.06
403.851	5.07
404.211	5.05
404.57	5
404.929	5.02
405.288	5.03
405.648	5
406.007	4.98
406.366	4.99
406.725	5.03
407.084	5.05
407.443	5.05
407.802	5.05
408.161	5.03
408.52	5.04
408.879	5.02
409.238	5.02
409.596	5.05
409.955	5.02
410.314	5.02
410.673	4.98
411.031	4.98
411.39	4.99
411.748	5.03
412.107	5.07
412.465	5.04
412.824	5.05
413.182	5.03
413.54	5.03
413.899	5.01
414.257	4.99
414.615	4.96
414.974	4.96
415.332	4.97
415.69	4.96
416.048	4.95
416.406	4.97
416.764	4.94
417.122	4.94
417.48	4.92
417.838	4.93
418.195	4.95
418.553	4.94
418.911	4.92
419.269	4.92
419.626	4.91
419.984	4.9
420.342	4.91
420.699	4.91
421.057	4.93
421.414	4.93
421.772	4.93
422.129	4.92
422.486	4.92
422.844	4.93
423.201	4.92
423.558	4.92
423.915	4.91
424.273	4.9
424.63	4.89
424.987	4.91
425.344	4.9
425.701	4.91
426.058	4.91
426.415	4.92
426.772	4.89
427.128	4.88
427.485	4.89
427.842	4.88
428.199	4.88
428.555	4.85
428.912	4.84
429.269	4.84
429.625	4.84
429.982	4.82
430.338	4.8
430.695	4.81
431.051	4.79
431.407	4.8
431.764	4.81
432.12	4.82
432.476	4.82
432.832	4.81
433.189	4.79
433.545	4.77
433.901	4.78
434.257	4.77
434.613	4.78
434.969	4.78
435.325	4.79
435.681	4.79
436.036	4.81
436.392	4.83
436.748	4.82
437.104	4.82
437.459	4.84
437.815	4.83
438.171	4.83
438.526	4.84
438.882	4.84
439.237	4.84
439.593	4.83
439.948	4.84
440.304	4.84
440.659	4.85
441.014	4.85
441.369	4.83
441.725	4.83
442.08	4.84
442.435	4.84
442.79	4.84
443.145	4.85
443.5	4.82
443.855	4.83
444.21	4.83
444.565	4.84
444.92	4.84
445.275	4.83
445.629	4.83
445.984	4.83
446.339	4.81
446.693	4.81
447.048	4.81
447.403	4.8
447.757	4.8
448.112	4.8
448.466	4.8
448.82	4.8
449.175	4.82
449.529	4.8
449.883	4.79
450.238	4.77
450.592	4.78
450.946	4.78
451.3	4.76
451.654	4.76
452.008	4.75
452.362	4.75
452.716	4.74
453.07	4.76
453.424	4.75
453.778	4.76
454.132	4.74
454.486	4.74
454.839	4.73
455.193	4.72
455.547	4.69
455.9	4.69
456.254	4.68
456.607	4.67
456.961	4.69
457.314	4.69
457.668	4.72
458.021	4.69
458.375	4.69
458.728	4.69
459.081	4.69
459.434	4.69
459.787	4.69
460.141	4.71
460.494	4.7
460.847	4.72
461.2	4.71
461.553	4.71
461.906	4.72
462.259	4.72
462.611	4.74
462.964	4.76
463.317	4.77
463.67	4.79
464.022	4.79
464.375	4.79
464.728	4.78
465.08	4.78
465.433	4.78
465.785	4.79
466.138	4.8
466.49	4.81
466.843	4.82
467.195	4.84
467.547	4.85
467.899	4.85
468.252	4.84
468.604	4.86
468.956	4.86
469.308	4.88
469.66	4.88
470.012	4.92
470.364	4.94
470.716	4.95
471.068	4.96
471.42	4.98
471.772	5.02
472.123	5.04
472.475	5.05
472.827	5.06
473.178	5.08
473.53	5.06
473.882	5.05
474.233	5.04
474.585	5.03
474.936	5.01
475.288	5.04
475.639	5.05
475.99	5.05
476.342	5.06
476.693	5.05
477.044	5.06
477.395	5.02
477.746	5
478.097	5
478.448	4.97
478.8	4.97
479.15	4.93
479.501	4.92
479.852	4.91
480.203	4.93
480.554	4.94
480.905	4.95
481.255	4.97
481.606	4.98
481.957	4.98
482.307	4.99
482.658	4.99
483.009	4.99
483.359	5
483.709	5
484.06	4.99
484.41	5
484.761	5.01
485.111	5.01
485.461	5.01
485.811	5.01
486.162	5.01
486.512	5.02
486.862	5.03
487.212	5.03
487.562	5.03
487.912	5.04
488.262	5.05
488.612	5.05
488.961	5.04
489.311	5.03
489.661	5.04
490.011	5.03
490.36	5.03
490.71	5.03
491.06	5.04
491.409	5.03
491.759	5.03
492.108	5.02
492.458	5.03
492.807	5.03
493.157	5.03
493.506	5.04
493.855	5.03
494.204	5.03
494.554	5.04
494.903	5.02
495.252	5.01
495.601	5.02
495.95	5.02
496.299	5.03
496.648	5.03
496.997	5.02
497.346	5.03
497.695	5.04
498.043	5.06
498.392	5.07
498.741	5.09
499.09	5.11
499.438	5.12
499.787	5.15
500.135	5.18
500.484	5.19
500.832	5.23
501.181	5.25
501.529	5.24
501.878	5.26
502.226	5.3
502.574	5.29
502.923	5.31
503.271	5.32
503.619	5.35
503.967	5.36
504.315	5.37
504.663	5.39
505.011	5.4
505.359	5.4
505.707	5.41
506.055	5.41
506.403	5.43
506.751	5.43
507.098	5.43
507.446	5.43
507.794	5.43
508.141	5.44
508.489	5.46
508.837	5.49
509.184	5.48
509.531	5.49
509.879	5.5
510.226	5.5
510.574	5.49
510.921	5.49
511.268	5.5
511.616	5.51
511.963	5.49
512.31	5.51
512.657	5.51
513.004	5.51
513.351	5.51
513.698	5.52
514.045	5.53
514.392	5.55
514.739	5.55
515.086	5.57
515.432	5.56
515.779	5.56
516.126	5.57
516.473	5.58
516.819	5.59
517.166	5.58
517.512	5.6
517.859	5.62
518.205	5.63
518.552	5.63
518.898	5.64
519.245	5.65
519.591	5.64
519.937	5.64
520.283	5.65
520.629	5.65
520.976	5.66
521.322	5.68
521.668	5.68
522.014	5.69
522.36	5.69
522.706	5.69
523.052	5.71
523.398	5.72
523.743	5.73
524.089	5.75
524.435	5.75
524.781	5.75
525.126	5.76
525.472	5.77
525.817	5.78
526.163	5.79
526.509	5.8
526.854	5.82
527.199	5.83
527.545	5.83
527.89	5.84
528.235	5.83
528.581	5.83
528.926	5.83
529.271	5.84
529.616	5.84
529.961	5.85
530.306	5.86
530.651	5.86
530.996	5.87
531.341	5.87
531.686	5.89
532.031	5.9
532.376	5.89
532.721	5.89
533.065	5.9
533.41	5.93
533.755	5.93
534.099	5.94
534.444	5.95
534.788	5.96
535.133	5.96
535.477	5.96
535.822	5.96
536.166	5.96
536.51	5.96
536.855	5.99
537.199	5.99
537.543	5.99
537.887	5.99
538.231	5.98
538.576	5.98
538.92	6
539.264	5.98
539.608	6.01
539.951	6.01
540.295	6
540.639	5.99
540.983	5.99
541.327	5.99
541.671	5.99
542.014	5.98
542.358	5.99
542.701	6.01
543.045	6.04
543.389	6.04
543.732	6.04
544.075	6.04
544.419	6.05
544.762	6.05
545.105	6.05
545.449	6.05
545.792	6.05
546.135	6.06
546.478	6.07
546.821	6.06
547.165	6.07
547.508	6.08
547.851	6.09
548.194	6.07
548.536	6.06
548.879	6.08
549.222	6.1
549.565	6.1
549.908	6.09
550.25	6.08
550.593	6.1
550.936	6.08
551.278	6.09
551.621	6.09
551.963	6.09
552.306	6.1
552.648	6.1
552.991	6.12
553.333	6.1
553.675	6.12
554.017	6.12
554.36	6.08
554.702	6.09
555.044	6.08
555.386	6.06
555.728	6.07
556.07	6.08
556.412	6.07
556.754	6.06
557.096	6.06
557.438	6.07
557.78	6.04
558.121	6.1
558.463	6.08
558.805	6.08
559.147	6.07
559.488	6.04
559.83	6.09
560.171	6.08
560.513	6.09
560.854	6.07
561.196	6.09
561.537	6.11
561.878	6.13
562.22	6.14
562.561	6.15
562.902	6.18
563.243	6.15
563.584	6.15
563.925	6.15
564.266	6.15
564.607	6.15
564.948	6.18
565.289	6.16
565.63	6.19
565.971	6.21
566.312	6.23
566.653	6.26
566.993	6.21
567.334	6.22
567.675	6.22
568.015	6.24
568.356	6.25
568.696	6.28
569.037	6.27
569.377	6.28
569.718	6.32
570.058	6.33
570.398	6.35
570.739	6.37
571.079	6.38
571.419	6.37
571.759	6.41
572.099	6.41
572.439	6.42
572.779	6.37
573.119	6.38
573.459	6.4
573.799	6.4
574.139	6.44
574.479	6.42
574.819	6.42
575.158	6.42
575.498	6.45
575.838	6.44
576.177	6.43
576.517	6.44
576.856	6.41
577.196	6.38
577.535	6.4
577.875	6.41
578.214	6.42
578.553	6.47
578.893	6.43
579.232	6.41
579.571	6.38
579.91	6.42
580.25	6.4
580.589	6.35
580.928	6.37
581.267	6.38
581.606	6.42
581.945	6.43
582.283	6.41
582.622	6.36
582.961	6.38
583.3	6.39
583.639	6.4
583.977	6.44
584.316	6.46
584.654	6.45
584.993	6.42
585.332	6.4
585.67	6.36
586.008	6.34
586.347	6.32
586.685	6.32
587.024	6.3
587.362	6.31
587.7	6.33
588.038	6.33
588.376	6.34
588.715	6.32
589.053	6.33
589.391	6.38
589.729	6.38
590.067	6.37
590.404	6.36
590.742	6.38
591.08	6.34
591.418	6.37
591.756	6.41
592.093	6.42
592.431	6.43
592.769	6.49
593.106	6.55
593.444	6.56
593.781	6.57
594.119	6.61
594.456	6.61
594.793	6.63
595.131	6.62
595.468	6.63
595.805	6.63
596.143	6.64
596.48	6.63
596.817	6.66
597.154	6.67
597.491	6.68
597.828	6.66
598.165	6.71
598.502	6.7
598.839	6.67
599.176	6.67
599.512	6.7
599.849	6.68
600.186	6.64
600.523	6.7
600.859	6.76
601.196	6.73
601.532	6.7
601.869	6.69
602.205	6.7
602.542	6.7
602.878	6.7
603.215	6.66
603.551	6.64
603.887	6.62
604.223	6.65
604.56	6.67
604.896	6.65
605.232	6.62
605.568	6.61
605.904	6.6
606.24	6.61
606.576	6.58
606.912	6.58
607.248	6.59
607.583	6.56
607.919	6.52
608.255	6.52
608.591	6.6
608.926	6.61
609.262	6.61
609.597	6.6
609.933	6.61
610.268	6.62
610.604	6.63
610.939	6.66
611.275	6.62
611.61	6.62
611.945	6.67
612.281	6.71
612.616	6.74
612.951	6.77
613.286	6.77
613.621	6.79
613.956	6.78
614.291	6.8
614.626	6.8
614.961	6.8
615.296	6.82
615.631	6.75
615.966	6.76
616.3	6.79
616.635	6.78
616.97	6.78
617.304	6.82
617.639	6.84
617.973	6.83
618.308	6.86
618.642	6.88
618.977	6.87
619.311	6.82
619.646	6.8
619.98	6.82
620.314	6.82
620.648	6.83
620.983	6.85
621.317	6.83
621.651	6.81
621.985	6.86
622.319	6.87
622.653	6.89
622.987	6.93
623.321	6.91
623.655	6.93
623.988	6.99
624.322	6.96
624.656	6.94
624.99	6.95
625.323	7.01
625.657	6.92
625.99	6.92
626.324	6.97
626.657	6.98
626.991	6.98
627.324	7.01
627.658	6.99
627.991	6.97
628.324	6.99
628.657	7.01
628.991	6.98
629.324	7
629.657	6.99
629.99	6.95
630.323	6.96
630.656	6.95
630.989	6.97
631.322	7.01
631.655	7
631.987	6.99
632.32	6.92
632.653	6.97
632.986	6.96
633.318	6.95
633.651	6.98
633.984	6.98
634.316	6.94
634.649	6.89
634.981	6.9
635.313	6.89
635.646	6.9
635.978	6.92
636.31	6.88
636.643	6.87
636.975	6.88
637.307	6.86
637.639	6.9
637.971	6.82
638.303	6.8
638.635	6.81
638.967	6.77
639.299	6.81
639.631	6.82
639.963	6.82
640.295	6.88
640.626	6.84
640.958	6.89
641.29	6.94
641.621	7
641.953	6.96
642.285	7.01
642.616	7.06
642.948	7.08
643.279	7.07
643.61	7.07
643.942	7.06
644.273	7.11
644.604	7.1
644.936	7.09
645.267	7.06
645.598	7.02
645.929	7.08
646.26	7.06
646.591	7.01
646.922	6.94
647.253	6.88
647.584	6.85
647.915	6.79
648.245	6.74
648.576	6.79
648.907	6.86
649.238	6.84
649.568	6.8
649.899	6.74
650.229	6.81
650.56	6.98
650.89	6.97
651.221	6.93
651.551	6.88
651.882	6.88
652.212	6.94
652.542	6.92
652.872	6.93
653.203	6.92
653.533	7.02
653.863	7.14
654.193	7.13
654.523	7.11
654.853	7.17
655.183	7.18
655.513	7.18
655.843	7.18
656.172	7.21
656.502	7.32
656.832	7.33
657.162	7.35
657.491	7.25
657.821	7.31
658.15	7.33
658.48	7.37
658.809	7.43
659.139	7.44
659.468	7.5
659.798	7.48
660.127	7.52
660.456	7.53
660.785	7.5
661.115	7.53
661.444	7.6
661.773	7.57
662.102	7.68
662.431	7.73
662.76	7.7
663.089	7.67
663.418	7.57
663.747	7.59
664.076	7.54
664.404	7.53
664.733	7.52
665.062	7.46
665.39	7.45
665.719	7.44
666.048	7.48
666.376	7.45
666.705	7.38
667.033	7.33
667.362	7.34
667.69	7.37
668.018	7.38
668.347	7.39
668.675	7.43
669.003	7.43
669.331	7.39
669.659	7.36
669.987	7.37
670.315	7.35
670.643	7.37
670.971	7.37
671.299	7.38
671.627	7.44
671.955	7.45
672.283	7.51
672.61	7.45
672.938	7.35
673.266	7.35
673.593	7.42
673.921	7.47
674.249	7.42
674.576	7.35
674.904	7.34
675.231	7.3
675.558	7.29
675.886	7.26
676.213	7.34
676.54	7.51
676.867	7.51
677.195	7.54
677.522	7.5
677.849	7.54
678.176	7.55
678.503	7.48
678.83	7.49
679.157	7.49
679.484	7.55
679.81	7.65
680.137	7.59
680.464	7.71
680.791	7.67
681.117	7.7
681.444	7.68
681.771	7.74
682.097	7.78
682.424	7.83
682.75	7.78
683.077	7.69
683.403	7.66
683.729	7.65
684.056	7.74
684.382	7.87
684.708	7.87
685.034	7.88
685.36	7.89
685.686	7.94
686.012	7.91
686.339	8.02
686.664	8.02
686.99	8.11
687.316	8.01
687.642	8.07
687.968	8.07
688.294	8.14
688.619	8.2
688.945	8.17
689.271	8.05
689.596	8.02
689.922	7.99
690.247	7.86
690.573	7.92
690.898	7.84
691.224	7.72
691.549	7.77
691.874	7.76
692.2	7.75
692.525	7.76
692.85	7.81
693.175	7.7
693.5	7.55
693.825	7.53
694.15	7.54
694.475	7.57
694.8	7.6
695.125	7.61
695.45	7.48
695.775	7.4
696.099	7.4
696.424	7.46
696.749	7.55
697.073	7.61
697.398	7.62
697.723	7.61
698.047	7.66
698.372	7.69
698.696	7.79
699.02	7.79
699.345	7.8
699.669	7.87
699.993	7.85
700.318	7.92
700.642	7.94
700.966	7.91
701.29	7.88
701.614	7.86
701.938	7.87
702.262	7.99
702.586	8.11
702.91	8.1
703.234	8.09
703.557	8.09
703.881	8.23
704.205	8.22
704.529	8.26
704.852	8.27
705.176	8.12
705.499	8.08
705.823	8
706.146	8.05
706.47	8
706.793	8.02
707.117	7.95
707.44	8
707.763	8.12
708.086	8.03
708.409	8.09
708.733	8.16
709.056	8.16
709.379	8.3
709.702	8.41
710.025	8.45
710.348	8.47
710.671	8.32
710.993	8.32
711.316	8.31
711.639	8.47
711.962	8.66
712.284	8.61
712.607	8.65
712.93	8.63
713.252	8.58
713.575	8.54
713.897	8.65
714.22	8.62
714.542	8.57
714.864	8.71
715.187	8.67
715.509	8.66
715.831	8.64
716.153	8.6
716.475	8.57
716.798	8.67
717.12	8.7
717.442	8.76
717.764	8.77
718.085	8.74
718.407	8.58
718.729	8.54
719.051	8.57
719.373	8.7
719.695	8.65
720.016	8.69
720.338	8.88
720.659	8.99
720.981	8.97
721.302	9.02
721.624	8.93
721.945	9.08
722.267	9
722.588	8.97
722.909	8.82
723.231	8.68
723.552	8.54
723.873	8.51
724.194	8.46
724.515	8.34
724.836	8.47
725.157	8.56
725.478	8.38
725.799	8.34
726.12	8.21
726.441	8.25
726.762	8.3
727.083	8.15
727.403	8.11
727.724	8.26
728.045	8.34
728.365	8.44
728.686	8.23
729.006	8.4
729.327	8.39
729.647	8.66
729.967	8.67
730.288	8.67
730.608	8.65
730.928	8.76
731.249	8.88
731.569	8.99
731.889	9.07
732.209	9.03
732.529	9.11
732.849	9.2
733.169	9.1
733.489	9.11
733.809	9.19
734.129	9.23
734.448	9.32
734.768	9.13
735.088	8.98
735.408	9.1
735.727	9.06
736.047	9.21
736.366	9.11
736.686	9.18
737.005	9.26
737.325	9.31
737.644	9.27
737.963	9.31
738.283	9.1
738.602	9.04
738.921	9.09
739.24	8.97
739.56	9
739.879	9.22
740.198	9.17
740.517	8.83
740.836	8.91
741.155	8.84
741.473	9.09
741.792	9.34
742.111	9.38
742.43	9.32
742.748	9.1
743.067	9.14
743.386	9.28
743.704	9.1
744.023	8.99
744.341	8.86
744.66	8.94
744.978	8.97
745.297	8.86
745.615	9
745.933	9.1
746.252	9.2
746.57	8.89
746.888	8.93
747.206	9.33
747.524	9.26
747.842	9.27
748.16	9.15
748.478	8.96
748.796	9.05
749.114	9.31
749.432	9.3
749.749	9.29
750.067	9.27
750.385	9.36
750.703	9.56
751.02	9.71
751.338	9.79
751.655	9.73
751.973	9.99
752.29	9.94
752.608	9.92
752.925	9.74
753.242	9.94
753.56	9.68
753.877	9.66
754.194	9.67
754.511	9.66
754.828	9.59
755.145	9.68
755.462	9.36
755.779	9.22
756.096	9.41
756.413	9.64
756.73	9.52
757.047	9.73
757.364	9.66
757.68	9.81
757.997	9.7
758.314	9.74
758.63	9.58
758.947	9.51
759.264	9.7
759.58	9.65
759.896	9.77
760.213	9.99
760.529	9.97
760.846	9.99
761.162	10.02
761.478	10.2
761.794	10.18
762.11	10.48
762.426	10.47
762.743	10.58
763.059	10.24
763.375	10.19
763.69	10.29
764.006	10.17
764.322	10.13
764.638	10.31
764.954	10.6
765.27	10.62
765.585	10.74
765.901	10.76
766.216	10.89
766.532	10.77
766.848	10.76
767.163	10.89
767.478	10.86
767.794	10.89
768.109	10.64
768.424	10.81
768.74	10.78
769.055	10.73
769.37	10.81
769.685	10.96
770	11.27
770.315	11.13
770.63	11.15
770.945	10.95
771.26	10.86
771.575	10.41
771.89	10.48
772.205	10.49
772.52	10.11
772.834	10.24
773.149	10.32
773.464	10.29
773.778	10.52
774.093	10.59
774.407	10.5
774.722	10.98
775.036	10.72
775.351	10.7
775.665	10.71
775.979	10.22
776.293	10.11
776.608	9.9
776.922	9.78
777.236	9.98
777.55	10.21
777.864	9.89
778.178	10.22
778.492	10.3
778.806	10.06
779.12	10.4
779.434	10.48
779.747	10.62
780.061	10.69
780.375	10.46
780.689	10.4
781.002	10.6
781.316	10.46
781.629	10.59
781.943	10.22
782.256	10.43
782.57	10.52
782.883	10.53
783.196	10.38
783.51	10.05
783.823	9.78
784.136	9.9
784.449	10.07
784.762	9.73
785.075	9.03
785.388	9.44
785.701	9.44
786.014	9.33
786.327	9.09
786.64	9.32
786.953	9.11
787.266	8.92
787.578	8.6
787.891	8.63
788.204	8.56
788.516	8.71
788.829	8.58
789.141	8.63
789.454	8.61
789.766	9.29
790.079	9.59
790.391	9.57
790.703	9.33
791.016	9.21
791.328	9.31
791.64	9.79
791.952	10.1
792.264	9.81
792.576	9.49
792.888	9.73
793.2	9.32
793.512	9.42
793.824	9.47
794.136	9.5
794.448	9.77
794.76	9.69
795.071	9.84
795.383	9.63
795.695	9.92
796.006	10.17
796.318	9.69
796.629	9.76
796.941	10.02
797.252	10.28
797.564	10.66
797.875	10.87
798.186	10.7
798.497	10.37
798.809	10.87
799.12	10.91
799.431	10.69
799.742	10.65
800.053	10.62
800.364	10.74
800.675	10.78
800.986	10.05
801.297	10
801.608	9.84
801.918	10.27
802.229	10.05
802.54	9.96
802.851	10.06
803.161	10.29
803.472	10.12
803.782	10.14
804.093	10.14
804.403	10.3
804.714	10.96
805.024	10.24
805.334	9.89
805.645	10.6
805.955	10.48
806.265	11.17
806.575	10.97
806.885	11.01
807.195	11.53
807.505	12.18
807.815	12.3
808.125	12.23
808.435	11.42
808.745	11
809.055	11.06
809.365	10.27
809.674	9.99
809.984	10.52
810.294	10.33
810.603	9.96
810.913	10.3
811.222	9.69
811.532	9.85
811.841	10.26
812.151	10.35
812.46	11.01
812.769	10.36
813.079	10.73
813.388	10.64
813.697	10.61
814.006	10.32
814.315	10.41
814.624	10.66
814.933	11.54
815.242	12.3
815.551	12.06
815.86	13.2
816.169	12.97
816.478	12.4
816.786	12.71
817.095	12.98
817.404	12.41
817.712	12.31
818.021	13.37
818.33	13.17
818.638	12.87
818.947	12.79
819.255	12.87
819.563	12.67
819.872	12.92
820.18	13.2
820.488	13.24
820.796	13.17
821.105	13.1
821.413	12.77
821.721	12.81
822.029	13.03
822.337	13.11
822.645	13.29
822.953	13.21
823.26	13.32
823.568	13.23
823.876	13.42
824.184	13.6
824.491	13.4
824.799	13.35
825.107	13.43
825.414	13.57
825.722	13.53
826.029	13.71
826.337	13.81
826.644	13.65
826.951	13.62
827.259	13.81
827.566	13.9
827.873	14.28
828.18	14.37
828.488	14.58
828.795	14.4
829.102	14.27
829.409	14.49
829.716	14.2
830.023	14.41
830.329	14.17
830.636	13.88
830.943	14.08
831.25	14.23
831.557	14.3
831.863	14.02
832.17	14.33
832.476	14.47
832.783	14.33
833.089	14.15
833.396	14.49
833.702	14.2
834.009	14.37
834.315	13.96
834.621	13.86
834.928	13.61
835.234	13.89
835.54	13.89
835.846	14.32
836.152	14.42
836.458	14.22
836.764	13.8
837.07	14.18
837.376	13.95
837.682	14.15
837.988	13.4
838.293	13.39
838.599	12.98
838.905	12.51
839.211	12.11
839.516	12.67
839.822	12.19
840.127	11.96
840.433	12.53
840.738	12.67
841.044	12.51
841.349	12.14
841.654	11.95
841.959	12.3
842.265	11.91
842.57	12.38
842.875	12
843.18	13.66
843.485	13.3
843.79	14.68
844.095	14.01
844.4	15.53
844.705	14.55
845.01	15.44
845.315	15.83
845.619	15.99
845.924	15.45
846.229	15.01
846.533	16.29
846.838	15.07
847.142	15.62
847.447	14.16
847.751	14.51
848.056	14.98
848.36	15.3
848.664	15.84
848.969	15.34
849.273	16.53
849.577	15.5
849.881	15.64
850.185	15.15
850.489	15.85
850.794	12.93
851.097	16.71
851.401	16.71
851.705	17.01
852.009	17.52
852.313	17.59
852.617	18.98
852.92	17.81
853.224	16.89
853.528	17.47
853.831	19.07
854.135	17.53
854.438	14.85
854.742	14.3
855.045	13.81
855.349	15.5
855.652	15.34
855.955	15.52
856.259	14.72
856.562	12.89
856.865	12.21
857.168	13.76
857.471	12.83
857.774	12.92
858.077	13.16
858.38	13.31
858.683	14.11
858.986	14.23
859.289	14.96
859.592	16.08
859.894	14.97
860.197	14.11
860.5	17.29
860.802	19.45
861.105	19.91
861.407	19.11
861.71	18.53
862.012	17.74
862.315	17.22
862.617	17.16
862.919	19.16
863.222	19.28
863.524	20.15
863.826	20.95
864.128	22.59
864.43	21.96
864.732	21.47
865.034	17.67
865.336	15.11
865.638	14.76
865.94	14.47
866.242	13.77
866.544	12.98
866.846	10.12
867.147	9.67
867.449	9.96
867.751	11.5
868.052	11.49
868.354	11.69
868.655	14.59
868.957	14.65
869.258	12.47
869.56	16.21
869.861	13.8
870.162	13.97
870.463	12.83
870.765	10.07
871.066	9.73
871.367	11.43
871.668	14.83
871.969	14.93
872.27	13.46
872.571	13.53
872.872	17.86
873.173	18.45
873.473	18.32
873.774	16.16
874.075	13.05
874.376	10.22
874.676	13.32
874.977	10.83
875.277	13.78
875.578	13.53
875.878	9.91
876.179	11.47
876.479	9
876.78	7.49
877.08	10.06
877.38	10.45
877.68	12.16
877.981	10.14
878.281	9.3
878.581	11.96
