Data from BA28473_Reflection_00013.txt Node
Date: Mon Nov 18 15:28:44 EST 2019
User: vgr7
Spectrometer: USB2G7710
Scans to average: 3
Trigger mode: 4
Integration Time (sec): 2.000000E-2
Electric dark correction enabled: true
Boxcar width: 10
XAxis mode: Wavelengths
Number of Pixels in Spectrum: 2048
>>>>>Begin Spectral Data<<<<<
177.721	144.85
178.105	65.16
178.488	41.18
178.871	41.18
179.254	0.32
179.636	265.73
180.019	825.19
180.402	150
180.785	-770.13
181.168	-717.31
181.55	-168.72
181.933	131.76
182.316	100.59
182.698	84.16
183.081	61.77
183.463	36.19
183.846	21.93
184.228	17.37
184.611	9.33
184.993	-10.36
185.376	-13.47
185.758	-16.92
186.14	-5.13
186.522	-21.53
186.904	-25.62
187.287	-1.76
187.669	-20.06
188.051	-17.61
188.433	-65.42
188.815	-80.44
189.197	-146.66
189.579	-156.38
189.961	-205.62
190.342	-216.4
190.724	225.95
191.106	338.31
191.488	272.41
191.869	151.44
192.251	314.48
192.633	318.7
193.014	-126.07
193.396	-159.04
193.777	-198.15
194.159	-253.19
194.54	73.84
194.922	39.12
195.303	146.1
195.684	342.36
196.065	170.19
196.447	254.05
196.828	-2573.47
197.209	-639.64
197.59	502.71
197.971	155.12
198.352	51.88
198.733	85.53
199.114	40.24
199.495	61.06
199.876	46.37
200.257	46.66
200.638	35.94
201.018	32.87
201.399	40.63
201.78	34.05
202.16	28.92
202.541	20.76
202.922	30.41
203.302	24.83
203.683	13.59
204.063	11.69
204.444	23.18
204.824	18.86
205.204	14.74
205.585	14.18
205.965	27.38
206.345	53.29
206.725	41.59
207.106	19.1
207.486	-22.16
207.866	-43.21
208.246	21.55
208.626	39.77
209.006	32.08
209.386	-3.09
209.766	15.85
210.145	35.54
210.525	52.43
210.905	51.08
211.285	39.58
211.664	35.72
212.044	61.8
212.424	79.51
212.803	135.07
213.183	95.8
213.562	64.42
213.942	71.59
214.321	39.48
214.701	31.09
215.08	50.73
215.459	72.15
215.838	74.27
216.218	49.07
216.597	36.29
216.976	57.54
217.355	86.61
217.734	88.31
218.113	82.3
218.492	69.14
218.871	28.64
219.25	19.96
219.629	4.51
220.008	-12.8
220.387	-23.82
220.766	-36.16
221.144	-52.35
221.523	-24.87
221.902	-23.59
222.28	-3.18
222.659	-7.37
223.037	-3.34
223.416	-17.44
223.794	-10.7
224.173	-2.66
224.551	1.26
224.929	-4.12
225.308	-2.29
225.686	-4.58
226.064	-0.87
226.442	3.59
226.821	12.61
227.199	11.31
227.577	15.02
227.955	19.99
228.333	19.74
228.711	23.3
229.089	22.97
229.467	19.11
229.845	17.3
230.222	18.2
230.6	19.72
230.978	19.66
231.356	21.68
231.733	19.36
232.111	20.8
232.488	19.1
232.866	19.49
233.243	18.35
233.621	17.7
233.998	15.42
234.376	14.03
234.753	13.29
235.13	13.48
235.508	15.45
235.885	12.6
236.262	11.96
236.639	9.89
237.016	10.58
237.393	11.32
237.77	11.76
238.147	11.22
238.524	11.87
238.901	11.84
239.278	11.62
239.655	12.36
240.032	11.04
240.409	10.47
240.785	10.47
241.162	10.89
241.539	10.7
241.915	10.22
242.292	10.15
242.668	9.72
243.045	10.06
243.421	9.51
243.798	9.33
244.174	9.04
244.551	9.03
244.927	8.81
245.303	8.67
245.679	8.88
246.056	8.62
246.432	8.24
246.808	8.14
247.184	8
247.56	7.75
247.936	7.97
248.312	8.07
248.688	7.91
249.064	7.87
249.44	7.69
249.815	7.88
250.191	7.95
250.567	8.02
250.943	7.99
251.318	8.15
251.694	8.2
252.069	8.38
252.445	8.66
252.82	8.73
253.196	8.87
253.571	8.49
253.947	8.64
254.322	8.84
254.697	8.54
255.073	8.27
255.448	8.26
255.823	8
256.198	7.95
256.573	7.94
256.948	7.81
257.323	7.93
257.698	7.87
258.073	7.94
258.448	7.91
258.823	7.69
259.198	7.36
259.573	7.35
259.948	7.23
260.322	7.24
260.697	7.01
261.072	6.77
261.446	6.77
261.821	6.53
262.195	6.56
262.57	6.69
262.944	6.74
263.319	6.74
263.693	6.7
264.067	6.77
264.442	6.86
264.816	6.66
265.19	6.49
265.564	6.34
265.938	6.08
266.313	5.9
266.687	5.97
267.061	6.25
267.435	6.11
267.809	6.39
268.183	6.24
268.556	6.35
268.93	6.35
269.304	6.3
269.678	6.54
270.051	6.42
270.425	6.44
270.799	6.56
271.172	6.52
271.546	6.63
271.919	6.47
272.293	6.34
272.666	6.42
273.04	6.48
273.413	6.51
273.787	6.57
274.16	6.67
274.533	6.62
274.906	6.4
275.279	6.31
275.653	6.17
276.026	6.11
276.399	6.19
276.772	6.51
277.145	6.53
277.518	6.44
277.891	6.47
278.263	6.3
278.636	6.31
279.009	6.26
279.382	6.34
279.755	6.43
280.127	6.67
280.5	6.85
280.872	6.87
281.245	6.84
281.617	6.95
281.99	6.9
282.362	7.01
282.735	7.07
283.107	7.22
283.479	7.1
283.852	7.14
284.224	7.08
284.596	6.95
284.968	6.89
285.34	6.96
285.713	6.88
286.085	6.96
286.457	7.07
286.829	7.12
287.201	7.15
287.572	7.07
287.944	6.91
288.316	6.91
288.688	6.87
289.06	6.86
289.431	6.76
289.803	6.85
290.175	6.82
290.546	6.9
290.918	6.84
291.289	6.9
291.661	6.97
292.032	7.08
292.403	7.19
292.775	7.31
293.146	7.33
293.517	7.33
293.889	7.37
294.26	7.15
294.631	7.08
295.002	6.96
295.373	7.15
295.744	7.2
296.115	7.21
296.486	7.19
296.857	7.26
297.228	7.38
297.599	7.31
297.97	7.29
298.34	7.32
298.711	7.53
299.082	7.59
299.452	7.59
299.823	7.69
300.194	7.68
300.564	7.65
300.935	7.74
301.305	7.9
301.676	8.05
302.046	8.23
302.416	8.53
302.787	8.71
303.157	8.65
303.527	8.72
303.897	8.77
304.267	9.05
304.637	9.21
305.008	9.28
305.378	9.39
305.748	9.47
306.117	9.55
306.487	9.65
306.857	9.85
307.227	9.88
307.597	9.94
307.967	10
308.336	10.17
308.706	10.14
309.076	10.25
309.445	10.16
309.815	10.18
310.184	10.06
310.554	10.04
310.923	10.18
311.293	10.31
311.662	10.3
312.031	10.31
312.401	10.26
312.77	10.27
313.139	10.5
313.508	10.61
313.877	10.7
314.246	10.75
314.616	10.75
314.985	10.85
315.353	10.87
315.722	10.99
316.091	11.07
316.46	11.11
316.829	11.17
317.198	11.28
317.567	11.34
317.935	11.5
318.304	11.6
318.672	11.57
319.041	11.66
319.41	11.8
319.778	11.82
320.147	11.98
320.515	12.21
320.883	12.16
321.252	12.36
321.62	12.34
321.988	12.34
322.357	12.39
322.725	12.39
323.093	12.44
323.461	12.47
323.829	12.57
324.197	12.69
324.565	12.69
324.933	12.84
325.301	13.01
325.669	13.02
326.037	13.06
326.405	13.17
326.772	13.21
327.14	13.31
327.508	13.41
327.875	13.54
328.243	13.51
328.61	13.59
328.978	13.55
329.346	13.65
329.713	13.7
330.08	13.77
330.448	13.85
330.815	13.73
331.182	13.84
331.55	13.81
331.917	13.82
332.284	13.92
332.651	13.94
333.018	13.78
333.385	13.96
333.752	14.08
334.119	14.11
334.486	14.16
334.853	14.07
335.22	14.14
335.587	14.11
335.954	14.17
336.32	14.11
336.687	14.12
337.054	14.29
337.42	14.4
337.787	14.47
338.153	14.52
338.52	14.72
338.886	14.58
339.253	14.55
339.619	14.64
339.986	14.68
340.352	14.65
340.718	14.72
341.084	14.66
341.451	14.73
341.817	14.75
342.183	14.66
342.549	14.63
342.915	14.59
343.281	14.68
343.647	14.66
344.013	14.79
344.379	14.78
344.745	14.59
345.11	14.47
345.476	14.41
345.842	14.38
346.208	14.44
346.573	14.54
346.939	14.66
347.304	14.66
347.67	14.64
348.035	14.75
348.401	14.79
348.766	14.85
349.132	14.76
349.497	14.75
349.862	14.85
350.228	14.95
350.593	14.96
350.958	14.92
351.323	14.94
351.688	14.93
352.053	15
352.418	15.07
352.783	15.16
353.148	15.17
353.513	15.24
353.878	15.2
354.243	15.18
354.608	15.17
354.972	15.13
355.337	15.13
355.702	15.14
356.066	15.16
356.431	15.09
356.795	15.2
357.16	15.16
357.524	15.09
357.889	15.05
358.253	15.12
358.618	15.11
358.982	15.05
359.346	14.94
359.71	14.9
360.075	14.86
360.439	14.85
360.803	14.82
361.167	14.79
361.531	14.76
361.895	14.72
362.259	14.68
362.623	14.69
362.987	14.63
363.351	14.6
363.714	14.55
364.078	14.56
364.442	14.44
364.806	14.42
365.169	14.51
365.533	14.51
365.896	14.36
366.26	14.32
366.623	14.29
366.987	14.28
367.35	14.31
367.714	14.39
368.077	14.34
368.44	14.36
368.803	14.27
369.167	14.26
369.53	14.29
369.893	14.27
370.256	14.24
370.619	14.2
370.982	14.01
371.345	13.98
371.708	13.95
372.071	13.94
372.434	13.93
372.797	13.75
373.159	13.66
373.522	13.75
373.885	13.7
374.247	13.69
374.61	13.61
374.973	13.46
375.335	13.32
375.698	13.23
376.06	13.12
376.423	13.09
376.785	13.06
377.147	12.96
377.51	12.91
377.872	12.81
378.234	12.84
378.596	12.87
378.958	12.78
379.321	12.73
379.683	12.69
380.045	12.58
380.407	12.57
380.769	12.47
381.13	12.33
381.492	12.28
381.854	12.22
382.216	12.2
382.578	12.17
382.939	12.14
383.301	12.09
383.663	12.04
384.024	12.02
384.386	11.98
384.747	11.98
385.109	11.93
385.47	11.88
385.832	11.8
386.193	11.77
386.554	11.68
386.916	11.61
387.277	11.56
387.638	11.54
387.999	11.51
388.36	11.48
388.721	11.46
389.082	11.37
389.443	11.27
389.804	11.21
390.165	11.18
390.526	11.13
390.887	11.04
391.248	11.02
391.609	10.99
391.969	10.91
392.33	10.85
392.691	10.82
393.051	10.77
393.412	10.73
393.772	10.64
394.133	10.62
394.493	10.54
394.854	10.46
395.214	10.35
395.574	10.26
395.935	10.19
396.295	10.17
396.655	10.12
397.015	10.14
397.376	10.1
397.736	10.03
398.096	9.96
398.456	9.95
398.816	9.88
399.176	9.77
399.535	9.7
399.895	9.62
400.255	9.5
400.615	9.41
400.975	9.36
401.334	9.34
401.694	9.28
402.054	9.27
402.413	9.24
402.773	9.19
403.132	9.16
403.492	9.14
403.851	9.11
404.211	9.08
404.57	9.01
404.929	8.99
405.288	8.96
405.648	8.93
406.007	8.89
406.366	8.85
406.725	8.86
407.084	8.84
407.443	8.79
407.802	8.81
408.161	8.8
408.52	8.76
408.879	8.72
409.238	8.73
409.596	8.68
409.955	8.65
410.314	8.67
410.673	8.64
411.031	8.61
411.39	8.55
411.748	8.55
412.107	8.54
412.465	8.48
412.824	8.45
413.182	8.44
413.54	8.43
413.899	8.39
414.257	8.36
414.615	8.35
414.974	8.32
415.332	8.29
415.69	8.26
416.048	8.19
416.406	8.18
416.764	8.12
417.122	8.1
417.48	8.06
417.838	8.01
418.195	7.96
418.553	7.95
418.911	7.93
419.269	7.88
419.626	7.84
419.984	7.8
420.342	7.8
420.699	7.76
421.057	7.71
421.414	7.69
421.772	7.66
422.129	7.63
422.486	7.61
422.844	7.58
423.201	7.55
423.558	7.55
423.915	7.51
424.273	7.5
424.63	7.48
424.987	7.47
425.344	7.44
425.701	7.43
426.058	7.41
426.415	7.38
426.772	7.37
427.128	7.36
427.485	7.34
427.842	7.29
428.199	7.27
428.555	7.26
428.912	7.26
429.269	7.25
429.625	7.22
429.982	7.22
430.338	7.21
430.695	7.23
431.051	7.2
431.407	7.21
431.764	7.17
432.12	7.16
432.476	7.16
432.832	7.16
433.189	7.17
433.545	7.16
433.901	7.15
434.257	7.13
434.613	7.14
434.969	7.14
435.325	7.13
435.681	7.13
436.036	7.12
436.392	7.09
436.748	7.06
437.104	7.06
437.459	7.04
437.815	7.04
438.171	7.04
438.526	7.03
438.882	7.02
439.237	7.04
439.593	7.04
439.948	7.03
440.304	7.03
440.659	7.04
441.014	7.03
441.369	7.02
441.725	7
442.08	6.98
442.435	6.97
442.79	6.97
443.145	6.97
443.5	6.97
443.855	6.97
444.21	6.98
444.565	6.98
444.92	6.97
445.275	6.94
445.629	6.93
445.984	6.91
446.339	6.89
446.693	6.88
447.048	6.84
447.403	6.82
447.757	6.8
448.112	6.77
448.466	6.75
448.82	6.74
449.175	6.75
449.529	6.74
449.883	6.72
450.238	6.7
450.592	6.68
450.946	6.64
451.3	6.63
451.654	6.59
452.008	6.58
452.362	6.56
452.716	6.55
453.07	6.52
453.424	6.54
453.778	6.52
454.132	6.51
454.486	6.52
454.839	6.5
455.193	6.48
455.547	6.47
455.9	6.49
456.254	6.49
456.607	6.5
456.961	6.5
457.314	6.49
457.668	6.51
458.021	6.5
458.375	6.52
458.728	6.52
459.081	6.51
459.434	6.51
459.787	6.52
460.141	6.52
460.494	6.53
460.847	6.54
461.2	6.55
461.553	6.56
461.906	6.58
462.259	6.62
462.611	6.65
462.964	6.66
463.317	6.66
463.67	6.66
464.022	6.66
464.375	6.65
464.728	6.68
465.08	6.67
465.433	6.7
465.785	6.7
466.138	6.72
466.49	6.75
466.843	6.76
467.195	6.78
467.547	6.81
467.899	6.84
468.252	6.86
468.604	6.89
468.956	6.91
469.308	6.92
469.66	6.92
470.012	6.95
470.364	6.97
470.716	7
471.068	7.04
471.42	7.05
471.772	7.1
472.123	7.13
472.475	7.15
472.827	7.13
473.178	7.13
473.53	7.15
473.882	7.18
474.233	7.21
474.585	7.18
474.936	7.18
475.288	7.17
475.639	7.16
475.99	7.16
476.342	7.16
476.693	7.15
477.044	7.14
477.395	7.11
477.746	7.08
478.097	7.03
478.448	7.02
478.8	7
479.15	6.97
479.501	6.95
479.852	6.96
480.203	6.96
480.554	6.99
480.905	6.98
481.255	6.97
481.606	6.98
481.957	6.99
482.307	6.99
482.658	7
483.009	6.99
483.359	6.99
483.709	7
484.06	7
484.41	7.01
484.761	7.02
485.111	7.02
485.461	7.04
485.811	7.03
486.162	7.04
486.512	7.04
486.862	7.04
487.212	7.04
487.562	7.05
487.912	7.07
488.262	7.07
488.612	7.08
488.961	7.08
489.311	7.09
489.661	7.1
490.011	7.09
490.36	7.09
490.71	7.09
491.06	7.1
491.409	7.11
491.759	7.11
492.108	7.11
492.458	7.14
492.807	7.16
493.157	7.19
493.506	7.23
493.855	7.28
494.204	7.3
494.554	7.34
494.903	7.36
495.252	7.36
495.601	7.41
495.95	7.44
496.299	7.48
496.648	7.52
496.997	7.56
497.346	7.64
497.695	7.72
498.043	7.75
498.392	7.79
498.741	7.84
499.09	7.89
499.438	7.95
499.787	8.01
500.135	8.07
500.484	8.15
500.832	8.19
501.181	8.26
501.529	8.34
501.878	8.43
502.226	8.52
502.574	8.6
502.923	8.67
503.271	8.76
503.619	8.85
503.967	8.93
504.315	9.03
504.663	9.12
505.011	9.19
505.359	9.28
505.707	9.39
506.055	9.48
506.403	9.6
506.751	9.7
507.098	9.83
507.446	9.93
507.794	10.03
508.141	10.15
508.489	10.23
508.837	10.36
509.184	10.45
509.531	10.59
509.879	10.73
510.226	10.84
510.574	10.94
510.921	11.04
511.268	11.18
511.616	11.29
511.963	11.42
512.31	11.55
512.657	11.71
513.004	11.86
513.351	12.01
513.698	12.16
514.045	12.29
514.392	12.43
514.739	12.6
515.086	12.74
515.432	12.86
515.779	13.03
516.126	13.17
516.473	13.32
516.819	13.42
517.166	13.51
517.512	13.66
517.859	13.77
518.205	13.88
518.552	13.97
518.898	14.11
519.245	14.23
519.591	14.36
519.937	14.47
520.283	14.57
520.629	14.71
520.976	14.83
521.322	15.02
521.668	15.17
522.014	15.33
522.36	15.5
522.706	15.69
523.052	15.88
523.398	16.09
523.743	16.31
524.089	16.55
524.435	16.75
524.781	16.96
525.126	17.17
525.472	17.34
525.817	17.53
526.163	17.68
526.509	17.84
526.854	17.96
527.199	18.09
527.545	18.23
527.89	18.36
528.235	18.51
528.581	18.64
528.926	18.8
529.271	18.93
529.616	19.07
529.961	19.22
530.306	19.37
530.651	19.54
530.996	19.69
531.341	19.87
531.686	20.07
532.031	20.25
532.376	20.45
532.721	20.68
533.065	20.9
533.41	21.11
533.755	21.34
534.099	21.6
534.444	21.85
534.788	22.09
535.133	22.34
535.477	22.6
535.822	22.86
536.166	23.13
536.51	23.45
536.855	23.78
537.199	24.1
537.543	24.41
537.887	24.75
538.231	25.1
538.576	25.44
538.92	25.79
539.264	26.09
539.608	26.42
539.951	26.68
540.295	26.93
540.639	27.18
540.983	27.44
541.327	27.69
541.671	27.94
542.014	28.18
542.358	28.42
542.701	28.65
543.045	28.89
543.389	29.14
543.732	29.39
544.075	29.67
544.419	29.95
544.762	30.22
545.105	30.47
545.449	30.77
545.792	31.08
546.135	31.37
546.478	31.72
546.821	32.05
547.165	32.4
547.508	32.83
547.851	33.23
548.194	33.56
548.536	33.94
548.879	34.33
549.222	34.73
549.565	35.06
549.908	35.41
550.25	35.81
550.593	36.19
550.936	36.59
551.278	36.93
551.621	37.26
551.963	37.68
552.306	38.06
552.648	38.37
552.991	38.68
553.333	39.03
553.675	39.36
554.017	39.64
554.36	39.99
554.702	40.24
555.044	40.55
555.386	40.87
555.728	41.17
556.07	41.46
556.412	41.77
556.754	42.17
557.096	42.47
557.438	42.79
557.78	43.05
558.121	43.34
558.463	43.65
558.805	44
559.147	44.29
559.488	44.6
559.83	44.98
560.171	45.34
560.513	45.62
560.854	45.86
561.196	46.18
561.537	46.42
561.878	46.64
562.22	46.94
562.561	47.21
562.902	47.49
563.243	47.8
563.584	48.03
563.925	48.28
564.266	48.57
564.607	48.76
564.948	48.98
565.289	49.16
565.63	49.38
565.971	49.59
566.312	49.8
566.653	49.99
566.993	50.16
567.334	50.32
567.675	50.45
568.015	50.7
568.356	50.88
568.696	51.06
569.037	51.23
569.377	51.39
569.718	51.53
570.058	51.71
570.398	51.81
570.739	52
571.079	52.12
571.419	52.31
571.759	52.46
572.099	52.66
572.439	52.86
572.779	53.02
573.119	53.13
573.459	53.25
573.799	53.42
574.139	53.55
574.479	53.66
574.819	53.84
575.158	53.9
575.498	54.02
575.838	54.17
576.177	54.38
576.517	54.51
576.856	54.74
577.196	54.85
577.535	55.01
577.875	55.14
578.214	55.26
578.553	55.43
578.893	55.59
579.232	55.64
579.571	55.66
579.91	55.75
580.25	55.95
580.589	56.09
580.928	56.2
581.267	56.33
581.606	56.44
581.945	56.61
582.283	56.77
582.622	56.87
582.961	57
583.3	57.1
583.639	57.13
583.977	57.22
584.316	57.33
584.654	57.45
584.993	57.57
585.332	57.76
585.67	57.76
586.008	57.85
586.347	58.06
586.685	58.25
587.024	58.4
587.362	58.43
587.7	58.45
588.038	58.51
588.376	58.54
588.715	58.64
589.053	58.64
589.391	58.73
589.729	58.78
590.067	58.73
590.404	58.75
590.742	58.87
591.08	58.93
591.418	59.02
591.756	59.06
592.093	59.08
592.431	59.14
592.769	59.21
593.106	59.32
593.444	59.33
593.781	59.43
594.119	59.44
594.456	59.56
594.793	59.64
595.131	59.67
595.468	59.8
595.805	59.84
596.143	59.93
596.48	59.93
596.817	60.06
597.154	60.28
597.491	60.37
597.828	60.4
598.165	60.43
598.502	60.46
598.839	60.59
599.176	60.73
599.512	60.83
599.849	60.89
600.186	60.89
600.523	60.96
600.859	61.07
601.196	61.24
601.532	61.33
601.869	61.47
602.205	61.55
602.542	61.62
602.878	61.7
603.215	61.71
603.551	61.79
603.887	61.79
604.223	61.83
604.56	61.89
604.896	61.89
605.232	61.94
605.568	62.01
605.904	62.02
606.24	61.99
606.576	62.02
606.912	62.08
607.248	62.1
607.583	62.12
607.919	62.09
608.255	62.12
608.591	62.12
608.926	62.18
609.262	62.25
609.597	62.28
609.933	62.23
610.268	62.37
610.604	62.42
610.939	62.51
611.275	62.49
611.61	62.49
611.945	62.62
612.281	62.63
612.616	62.66
612.951	62.71
613.286	62.8
613.621	62.78
613.956	62.87
614.291	62.89
614.626	63.01
614.961	63.02
615.296	62.86
615.631	62.85
615.966	62.81
616.3	62.93
616.635	62.89
616.97	63
617.304	63
617.639	63.08
617.973	63
618.308	62.94
618.642	62.97
618.977	63.04
619.311	63.19
619.646	63.2
619.98	63.24
620.314	63.3
620.648	63.35
620.983	63.28
621.317	63.43
621.651	63.38
621.985	63.51
622.319	63.63
622.653	63.67
622.987	63.66
623.321	63.65
623.655	63.65
623.988	63.66
624.322	63.69
624.656	63.74
624.99	63.89
625.323	64.01
625.657	64.01
625.99	64.03
626.324	63.99
626.657	64.05
626.991	64.01
627.324	63.94
627.658	64.05
627.991	64.21
628.324	64.16
628.657	64.26
628.991	64.22
629.324	64.25
629.657	64.31
629.99	64.43
630.323	64.38
630.656	64.44
630.989	64.46
631.322	64.47
631.655	64.47
631.987	64.43
632.32	64.51
632.653	64.6
632.986	64.59
633.318	64.52
633.651	64.43
633.984	64.52
634.316	64.61
634.649	64.49
634.981	64.4
635.313	64.5
635.646	64.48
635.978	64.54
636.31	64.53
636.643	64.55
636.975	64.53
637.307	64.54
637.639	64.58
637.971	64.55
638.303	64.58
638.635	64.67
638.967	64.63
639.299	64.56
639.631	64.39
639.963	64.4
640.295	64.59
640.626	64.72
640.958	64.69
641.29	64.75
641.621	64.89
641.953	64.91
642.285	64.81
642.616	64.79
642.948	64.72
643.279	64.76
643.61	64.83
643.942	64.79
644.273	64.9
644.604	64.86
644.936	64.93
645.267	64.9
645.598	64.89
645.929	65.01
646.26	65.18
646.591	65.33
646.922	65.23
647.253	65.18
647.584	65.14
647.915	65.12
648.245	65.14
648.576	65.03
648.907	64.96
649.238	65
649.568	65.09
649.899	65.18
650.229	65.31
650.56	65.33
650.89	65.29
651.221	65.19
651.551	65.22
651.882	65.16
652.212	65.17
652.542	65.19
652.872	65.07
653.203	65.07
653.533	64.98
653.863	65.12
654.193	65.26
654.523	65.27
654.853	65.32
655.183	65.16
655.513	65.21
655.843	65.35
656.172	65.37
656.502	65.35
656.832	65.37
657.162	65.39
657.491	65.35
657.821	65.39
658.15	65.47
658.48	65.62
658.809	65.77
659.139	65.77
659.468	65.64
659.798	65.65
660.127	65.55
660.456	65.63
660.785	65.64
661.115	65.45
661.444	65.49
661.773	65.52
662.102	65.7
662.431	65.75
662.76	65.79
663.089	65.73
663.418	65.69
663.747	65.7
664.076	65.68
664.404	65.69
664.733	65.77
665.062	65.8
665.39	65.77
665.719	65.75
666.048	65.76
666.376	65.86
666.705	65.9
667.033	66.03
667.362	66.06
667.69	66.11
668.018	66.27
668.347	66.41
668.675	66.45
669.003	66.4
669.331	66.33
669.659	66.3
669.987	66.44
670.315	66.47
670.643	66.5
670.971	66.44
671.299	66.55
671.627	66.48
671.955	66.42
672.283	66.29
672.61	66.29
672.938	66.42
673.266	66.37
673.593	66.43
673.921	66.43
674.249	66.46
674.576	66.48
674.904	66.45
675.231	66.33
675.558	66.34
675.886	66.36
676.213	66.41
676.54	66.42
676.867	66.39
677.195	66.49
677.522	66.5
677.849	66.49
678.176	66.41
678.503	66.44
678.83	66.48
679.157	66.5
679.484	66.52
679.81	66.61
680.137	66.86
680.464	66.84
680.791	66.78
681.117	66.78
681.444	66.79
681.771	66.78
682.097	66.77
682.424	66.69
682.75	66.62
683.077	66.74
683.403	66.7
683.729	66.75
684.056	66.82
684.382	66.83
684.708	66.89
685.034	66.88
685.36	66.85
685.686	66.76
686.012	66.85
686.339	66.97
686.664	66.78
686.99	66.66
687.316	66.72
687.642	66.7
687.968	66.6
688.294	66.6
688.619	66.64
688.945	66.76
689.271	66.77
689.596	66.7
689.922	66.54
690.247	66.53
690.573	66.56
690.898	66.4
691.224	66.33
691.549	66.25
691.874	66.29
692.2	66.36
692.525	66.51
692.85	66.42
693.175	66.47
693.5	66.67
693.825	66.69
694.15	66.63
694.475	66.67
694.8	66.84
695.125	66.83
695.45	66.84
695.775	66.93
696.099	66.96
696.424	67.09
696.749	67.13
697.073	67.24
697.398	67.28
697.723	67.42
698.047	67.39
698.372	67.67
698.696	67.59
699.02	67.58
699.345	67.57
699.669	67.66
699.993	67.6
700.318	67.54
700.642	67.46
700.966	67.6
701.29	67.69
701.614	67.78
701.938	67.94
702.262	67.97
702.586	67.91
702.91	67.91
703.234	67.99
703.557	67.86
703.881	67.76
704.205	67.77
704.529	67.65
704.852	67.67
705.176	67.4
705.499	67.57
705.823	67.51
706.146	67.5
706.47	67.37
706.793	67.28
707.117	67.39
707.44	67.4
707.763	67.27
708.086	67.24
708.409	67.2
708.733	67.28
709.056	67.18
709.379	67.17
709.702	67.23
710.025	67.26
710.348	67.54
710.671	67.43
710.993	67.33
711.316	67.33
711.639	67.44
711.962	67.34
712.284	67.25
712.607	67.4
712.93	67.43
713.252	67.85
713.575	67.68
713.897	67.55
714.22	67.5
714.542	67.56
714.864	67.53
715.187	67.52
715.509	67.28
715.831	67.4
716.153	67.34
716.475	67.35
716.798	67.24
717.12	67.21
717.442	67.44
717.764	67.51
718.085	67.71
718.407	67.7
718.729	67.81
719.051	68.01
719.373	67.88
719.695	67.77
720.016	67.42
720.338	67.55
720.659	67.64
720.981	67.71
721.302	67.7
721.624	67.67
721.945	67.56
722.267	67.56
722.588	67.91
722.909	68.05
723.231	68
723.552	67.86
723.873	68
724.194	68.08
724.515	67.96
724.836	67.86
725.157	67.95
725.478	67.87
725.799	67.67
726.12	67.77
726.441	68.18
726.762	68.42
727.083	68.49
727.403	68.46
727.724	68.59
728.045	68.62
728.365	68.6
728.686	68.5
729.006	68.59
729.327	68.25
729.647	68.17
729.967	68.17
730.288	68.46
730.608	68.37
730.928	68.33
731.249	68.31
731.569	68.08
731.889	67.93
732.209	67.79
732.529	68
732.849	67.83
733.169	67.81
733.489	67.6
733.809	67.79
734.129	67.92
734.448	67.87
734.768	67.97
735.088	67.99
735.408	68.04
735.727	67.91
736.047	67.91
736.366	67.82
736.686	68.14
737.005	68.02
737.325	68.14
737.644	68.24
737.963	68.42
738.283	68.86
738.602	68.99
738.921	69.35
739.24	69.25
739.56	69.49
739.879	69.26
740.198	69.33
740.517	69.07
740.836	68.74
741.155	68.65
741.473	68.69
741.792	68.97
742.111	69.28
742.43	69.69
742.748	69.81
743.067	69.9
743.386	69.33
743.704	69.31
744.023	69.15
744.341	68.93
744.66	68.86
744.978	68.6
745.297	68.65
745.615	68.48
745.933	68.44
746.252	68.25
746.57	68.33
746.888	68.29
747.206	68.45
747.524	68.57
747.842	68.49
748.16	68.15
748.478	68.07
748.796	68.03
749.114	67.4
749.432	67.2
749.749	67.49
750.067	67.63
750.385	67.99
750.703	68.06
751.02	67.7
751.338	67.54
751.655	67.73
751.973	67.63
752.29	67.75
752.608	67.81
752.925	68.1
753.242	68.16
753.56	68.18
753.877	68.3
754.194	68.36
754.511	68.44
754.828	68.79
755.145	68.92
755.462	69.04
755.779	69.11
756.096	69.42
756.413	68.9
756.73	69.24
757.047	69
757.364	69.02
757.68	69.38
757.997	69.76
758.314	69.47
758.63	69.47
758.947	69.53
759.264	69.15
759.58	68.89
759.896	69.02
760.213	69.24
760.529	68.99
760.846	69.07
761.162	69.18
761.478	68.92
761.794	68.8
762.11	68.65
762.426	68.64
762.743	68.53
763.059	69.02
763.375	68.69
763.69	68.68
764.006	68.75
764.322	68.83
764.638	68.78
764.954	68.68
765.27	68.7
765.585	68.47
765.901	68.68
766.216	68.68
766.532	68.57
766.848	68.48
767.163	68.93
767.478	68.85
767.794	68.78
768.109	69.01
768.424	68.68
768.74	68.75
769.055	69
769.37	69.28
769.685	68.76
770	69.11
770.315	69.59
770.63	69.7
770.945	69.72
771.26	69.87
771.575	70.06
771.89	70.21
772.205	70.24
772.52	70.86
772.834	70.66
773.149	70.43
773.464	70.21
773.778	69.9
774.093	69.53
774.407	69.47
774.722	69.51
775.036	69.99
775.351	69.68
775.665	69.81
775.979	69.25
776.293	69.67
776.608	69.86
776.922	69.11
777.236	68.78
777.55	68.56
777.864	68.67
778.178	68.89
778.492	68.88
778.806	68.93
779.12	68.27
779.434	68.74
779.747	68.92
780.061	68.94
780.375	68.84
780.689	69.47
781.002	69.49
781.316	69.14
781.629	68.86
781.943	69.87
782.256	69.54
782.57	70.05
782.883	69.59
783.196	68.95
783.51	69.29
783.823	69.76
784.136	70.65
784.449	70.57
784.762	71.05
785.075	70.66
785.388	71.02
785.701	71.01
786.014	71.24
786.327	71.29
786.64	72.14
786.953	71.52
787.266	70.86
787.578	70.24
787.891	70.25
788.204	70.22
788.516	69.52
788.829	69.66
789.141	69.64
789.454	70.19
789.766	70.55
790.079	70.75
790.391	70.18
790.703	69.98
791.016	69.2
791.328	68.63
791.64	69.6
791.952	69.15
792.264	69.3
792.576	68.88
792.888	69.35
793.2	68.77
793.512	69.67
793.824	69.78
794.136	71.07
794.448	71.79
794.76	72.28
795.071	72.5
795.383	72.49
795.695	72.17
796.006	71.45
796.318	71.87
796.629	71.58
796.941	71.42
797.252	71.14
797.564	71.61
797.875	71.39
798.186	70.45
798.497	71.09
798.809	71.12
799.12	71.34
799.431	70.91
799.742	70.69
800.053	70.43
800.364	71.16
800.675	70.79
800.986	69.66
801.297	69.12
801.608	69.24
801.918	69.53
802.229	69.66
802.54	69.98
802.851	69.55
803.161	69.58
803.472	69.94
803.782	70.13
804.093	70.4
804.403	70.65
804.714	70.99
805.024	70.88
805.334	70.43
805.645	70.98
805.955	71.23
806.265	72.33
806.575	72.2
806.885	72.14
807.195	71.88
807.505	72.37
807.815	73.06
808.125	72.5
808.435	72.75
808.745	72.75
809.055	73.02
809.365	73.8
809.674	74.09
809.984	74.48
810.294	74.06
810.603	74.91
810.913	75.36
811.222	74.99
811.532	75.18
811.841	75.93
812.151	75.66
812.46	75.83
812.769	74.92
813.079	74.44
813.388	74.07
813.697	74.79
814.006	74.72
814.315	74.41
814.624	75.13
814.933	74.87
815.242	74.79
815.551	74.79
815.86	74.07
816.169	73.48
816.478	73.06
816.786	72.98
817.095	71.84
817.404	71.43
817.712	71.78
818.021	71.32
818.33	71.31
818.638	71.41
818.947	70.62
819.255	70.83
819.563	70.88
819.872	70.81
820.18	70.7
820.488	70.43
820.796	70.79
821.105	70.47
821.413	70.13
821.721	69.92
822.029	69.82
822.337	70.02
822.645	69.95
822.953	69.94
823.26	70.04
823.568	70.1
823.876	70.14
824.184	70.21
824.491	70.07
824.799	70.11
825.107	69.91
825.414	70.14
825.722	69.96
826.029	70.03
826.337	70.05
826.644	70.06
826.951	70.25
827.259	69.92
827.566	70.01
827.873	70.18
828.18	70.35
828.488	70.42
828.795	70.33
829.102	70.58
829.409	70.53
829.716	70.66
830.023	70.6
830.329	70.39
830.636	69.9
830.943	70.06
831.25	69.43
831.557	69.62
831.863	69.2
832.17	69.59
832.476	69.38
832.783	69.29
833.089	68.9
833.396	69
833.702	69.9
834.009	69.88
834.315	70.54
834.621	70.93
834.928	71.14
835.234	71.19
835.54	71.13
835.846	71.05
836.152	70.99
836.458	71.07
836.764	71.06
837.07	71.76
837.376	72.71
837.682	73.82
837.988	74.06
838.293	74.27
838.599	74.35
838.905	74.78
839.211	75.06
839.516	75.67
839.822	76.03
840.127	73.45
840.433	73.91
840.738	72.84
841.044	73.28
841.349	73
841.654	73.69
841.959	73.36
842.265	73.98
842.57	73.84
842.875	73.44
843.18	73.91
843.485	74.6
843.79	73.92
844.095	73.55
844.4	72.83
844.705	72.59
845.01	72.02
845.315	73.09
845.619	74.39
845.924	75.15
846.229	74.95
846.533	77.39
846.838	77.4
847.142	78.5
847.447	77.05
847.751	78.93
848.056	78.04
848.36	79.94
848.664	79.23
848.969	77.77
849.273	78.41
849.577	79.74
849.881	78.44
850.185	79.47
850.489	76.71
850.794	77.69
851.097	80.12
851.401	80.59
851.705	80.16
852.009	80.27
852.313	80.28
852.617	81.76
852.92	81.96
853.224	81.87
853.528	81.78
853.831	85.56
854.135	86.31
854.438	86.41
854.742	85.91
855.045	89.84
855.349	91.85
855.652	92.29
855.955	91.17
856.259	91.58
856.562	90.5
856.865	95.07
857.168	95.08
857.471	92.11
857.774	91.65
858.077	90.22
858.38	90.11
858.683	89.08
858.986	90.28
859.289	90.66
859.592	89.32
859.894	89.87
860.197	87.62
860.5	83.97
860.802	82.12
861.105	80.77
861.407	79.69
861.71	79.14
862.012	81.45
862.315	79.99
862.617	79.08
862.919	77.94
863.222	77.77
863.524	77.2
863.826	79.81
864.128	79.81
864.43	78.27
864.732	76.64
865.034	76.76
865.336	73.5
865.638	74.09
865.94	74.62
866.242	71.24
866.544	70.95
866.846	72.22
867.147	72.27
867.449	71.97
867.751	71.76
868.052	72.99
868.354	72.2
868.655	76.29
868.957	79.52
869.258	80.4
869.56	77.27
869.861	77.85
870.162	74.01
870.463	73.35
870.765	73.11
871.066	73.78
871.367	74.03
871.668	75.46
871.969	75.43
872.27	75.64
872.571	79.52
872.872	79.15
873.173	81.14
873.473	81.84
873.774	83.47
874.075	81.52
874.376	79.14
874.676	79.93
874.977	79.26
875.277	77.83
875.578	80.54
875.878	82.29
876.179	82.27
876.479	84.64
876.78	86.65
877.08	89.65
877.38	90.35
877.68	89.95
877.981	91.16
878.281	91.19
878.581	92.09
