Data from BA28302_Reflection_00004.txt Node
Date: Mon Nov 18 15:48:37 EST 2019
User: vgr7
Spectrometer: USB2G7710
Scans to average: 3
Trigger mode: 4
Integration Time (sec): 2.000000E-2
Electric dark correction enabled: true
Boxcar width: 10
XAxis mode: Wavelengths
Number of Pixels in Spectrum: 2048
>>>>>Begin Spectral Data<<<<<
177.721	782.93
178.105	-309.45
178.488	-555.1
178.871	-237.89
179.254	2100
179.636	-1215.79
180.019	669.04
180.402	38.64
180.785	-260.66
181.168	361.36
181.55	-689.81
181.933	261.7
182.316	165.44
182.698	205.43
183.081	280.07
183.463	615.37
183.846	547.4
184.228	608.63
184.611	435.32
184.993	737.73
185.376	-63900
185.758	4773.27
186.14	-8424.59
186.522	967.51
186.904	1664.67
187.287	971.7
187.669	852.86
188.051	738.36
188.433	1339.19
188.815	1004.23
189.197	4170.8
189.579	-16140
189.961	6066.1
190.342	1575.29
190.724	-727.29
191.106	3109.9
191.488	305.67
191.869	281.64
192.251	318.88
192.633	3959.15
193.014	961.19
193.396	639.78
193.777	14927.59
194.159	-6954.55
194.54	-458.46
194.922	-319.08
195.303	-400.58
195.684	-314.43
196.065	-218.67
196.447	-247.21
196.828	-243.68
197.209	-269.55
197.59	-1376.01
197.971	-2741.38
198.352	-230.34
198.733	-584.51
199.114	-239.06
199.495	-144.25
199.876	-134.56
200.257	-124.22
200.638	-119.18
201.018	-128.96
201.399	-105.94
201.78	-52.53
202.16	-65.27
202.541	-153.19
202.922	-499.5
203.302	-462.01
203.683	-279.21
204.063	-415.64
204.444	-808.67
204.824	-3108.79
205.204	-756.34
205.585	-240.39
205.965	-140.25
206.345	-256.93
206.725	-414.97
207.106	5142.25
207.486	894.58
207.866	709.88
208.246	2011.33
208.626	2267.6
209.006	900
209.386	1278.08
209.766	-2078.14
210.145	-961
210.525	-440.73
210.905	-238.21
211.285	-223.61
211.664	-193.71
212.044	-208.35
212.424	-132.87
212.803	-141.5
213.183	-140.34
213.562	-125.32
213.942	-149.21
214.321	-130.38
214.701	-142.46
215.08	-144.41
215.459	-141.88
215.838	-113.08
216.218	-130.34
216.597	-135.26
216.976	-118.76
217.355	-112.37
217.734	-124.38
218.113	-134.38
218.492	-129.6
218.871	-157.3
219.25	-137.8
219.629	-151.11
220.008	-129.86
220.387	-132.82
220.766	-119.28
221.144	-130.66
221.523	-164.56
221.902	-133.05
222.28	-155.26
222.659	-112.4
223.037	-100.26
223.416	-85.04
223.794	-86.69
224.173	-73.5
224.551	-57.43
224.929	-54.15
225.308	-42.74
225.686	-43.51
226.064	-39.53
226.442	-34.4
226.821	-32.08
227.199	-31.04
227.577	-33.03
227.955	-36.17
228.333	-34
228.711	-29.31
229.089	-23.79
229.467	-19.77
229.845	-19.12
230.222	-17.5
230.6	-18.35
230.978	-15.59
231.356	-13.07
231.733	-11.59
232.111	-11.43
232.488	-11.26
232.866	-9.14
233.243	-9.39
233.621	-9.34
233.998	-8.41
234.376	-8.54
234.753	-7.55
235.13	-6.11
235.508	-3.4
235.885	-3.59
236.262	-3.1
236.639	-4.27
237.016	-4.47
237.393	-3.86
237.77	-2.74
238.147	-1.06
238.524	-0.46
238.901	0.21
239.278	0.86
239.655	1.04
240.032	1.11
240.409	1.03
240.785	0.65
241.162	0.88
241.539	1.66
241.915	1.23
242.292	0.99
242.668	1.57
243.045	1.79
243.421	1.75
243.798	2.15
244.174	2.15
244.551	2.37
244.927	2.36
245.303	2.56
245.679	2.71
246.056	2.45
246.432	2.41
246.808	2.57
247.184	2.28
247.56	2.2
247.936	2.13
248.312	2.18
248.688	2.37
249.064	2.13
249.44	1.99
249.815	2.06
250.191	2.32
250.567	2.31
250.943	2.18
251.318	2.21
251.694	1.93
252.069	1.5
252.445	1.54
252.82	1.33
253.196	1.05
253.571	0.83
253.947	1.08
254.322	1.24
254.697	0.59
255.073	0.65
255.448	0.65
255.823	0.82
256.198	1.1
256.573	1.05
256.948	1.34
257.323	1.56
257.698	1.69
258.073	1.68
258.448	1.77
258.823	2.02
259.198	1.95
259.573	1.99
259.948	2.27
260.322	2.36
260.697	2.49
261.072	2.38
261.446	2.31
261.821	2.33
262.195	2.54
262.57	2.63
262.944	2.67
263.319	2.69
263.693	2.73
264.067	2.55
264.442	2.71
264.816	2.48
265.19	2.38
265.564	2.39
265.938	2.21
266.313	2.07
266.687	1.85
267.061	1.97
267.435	2.14
267.809	2.07
268.183	1.98
268.556	1.8
268.93	2.04
269.304	1.98
269.678	1.98
270.051	1.8
270.425	1.82
270.799	1.75
271.172	1.89
271.546	1.81
271.919	1.77
272.293	1.72
272.666	1.89
273.04	1.92
273.413	1.74
273.787	1.88
274.16	1.9
274.533	1.92
274.906	1.8
275.279	1.87
275.653	1.88
276.026	1.81
276.399	1.98
276.772	1.92
277.145	1.9
277.518	1.82
277.891	1.86
278.263	1.88
278.636	2.03
279.009	2.03
279.382	2.26
279.755	2.36
280.127	2.55
280.5	2.56
280.872	2.69
281.245	2.77
281.617	2.82
281.99	2.82
282.362	2.78
282.735	2.69
283.107	2.63
283.479	2.58
283.852	2.67
284.224	2.58
284.596	2.58
284.968	2.7
285.34	2.73
285.713	2.53
286.085	2.47
286.457	2.56
286.829	2.56
287.201	2.42
287.572	2.38
287.944	2.24
288.316	2.3
288.688	2.14
289.06	2.22
289.431	2.25
289.803	2.1
290.175	2.05
290.546	2.19
290.918	2.23
291.289	2.26
291.661	2.19
292.032	2.32
292.403	2.34
292.775	2.37
293.146	2.38
293.517	2.5
293.889	2.67
294.26	2.55
294.631	2.56
295.002	2.64
295.373	2.73
295.744	2.71
296.115	2.64
296.486	2.61
296.857	2.59
297.228	2.41
297.599	2.49
297.97	2.64
298.34	2.73
298.711	2.69
299.082	2.75
299.452	2.83
299.823	2.88
300.194	2.8
300.564	2.75
300.935	2.79
301.305	2.88
301.676	2.79
302.046	2.83
302.416	2.95
302.787	2.89
303.157	2.81
303.527	2.9
303.897	2.93
304.267	3.09
304.637	3.03
305.008	3.24
305.378	3.32
305.748	3.33
306.117	3.1
306.487	3.21
306.857	3.15
307.227	3.05
307.597	2.91
307.967	3.04
308.336	2.99
308.706	2.84
309.076	2.84
309.445	2.79
309.815	2.78
310.184	2.69
310.554	2.73
310.923	2.73
311.293	2.59
311.662	2.48
312.031	2.37
312.401	2.38
312.77	2.36
313.139	2.26
313.508	2.21
313.877	2.2
314.246	2.08
314.616	2.07
314.985	1.96
315.353	1.91
315.722	1.86
316.091	1.8
316.46	1.77
316.829	1.61
317.198	1.66
317.567	1.56
317.935	1.43
318.304	1.42
318.672	1.28
319.041	1.41
319.41	1.53
319.778	1.68
320.147	1.63
320.515	1.62
320.883	1.68
321.252	1.59
321.62	1.79
321.988	1.72
322.357	1.83
322.725	1.88
323.093	2.02
323.461	2
323.829	2.14
324.197	2.24
324.565	2.45
324.933	2.42
325.301	2.44
325.669	2.58
326.037	2.44
326.405	2.5
326.772	2.46
327.14	2.42
327.508	2.36
327.875	2.34
328.243	2.3
328.61	2.3
328.978	2.51
329.346	2.46
329.713	2.41
330.08	2.34
330.448	2.22
330.815	2.04
331.182	1.98
331.55	1.93
331.917	1.89
332.284	1.81
332.651	1.72
333.018	1.74
333.385	1.67
333.752	1.89
334.119	1.94
334.486	1.94
334.853	2
335.22	2.03
335.587	2.09
335.954	2.07
336.32	2.1
336.687	2
337.054	1.95
337.42	2.05
337.787	2.04
338.153	2.15
338.52	2.27
338.886	2.26
339.253	2.17
339.619	2.23
339.986	2.07
340.352	2.23
340.718	2.19
341.084	2.17
341.451	2.07
341.817	2.11
342.183	2.07
342.549	2.03
342.915	2.03
343.281	2.03
343.647	2.03
344.013	2.02
344.379	1.99
344.745	2.05
345.11	2.03
345.476	2.05
345.842	1.99
346.208	2.01
346.573	2.04
346.939	2.24
347.304	2.21
347.67	2.24
348.035	2.17
348.401	2.18
348.766	2.13
349.132	2.11
349.497	2.07
349.862	2.14
350.228	2.1
350.593	2.06
350.958	2.08
351.323	2.08
351.688	2.13
352.053	2.21
352.418	2.24
352.783	2.25
353.148	2.19
353.513	2.3
353.878	2.35
354.243	2.38
354.608	2.36
354.972	2.36
355.337	2.42
355.702	2.48
356.066	2.6
356.431	2.67
356.795	2.74
357.16	2.73
357.524	2.66
357.889	2.73
358.253	2.74
358.618	2.84
358.982	2.84
359.346	2.74
359.71	2.66
360.075	2.69
360.439	2.76
360.803	2.76
361.167	2.69
361.531	2.64
361.895	2.61
362.259	2.58
362.623	2.6
362.987	2.59
363.351	2.59
363.714	2.57
364.078	2.54
364.442	2.5
364.806	2.47
365.169	2.49
365.533	2.52
365.896	2.55
366.26	2.48
366.623	2.46
366.987	2.52
367.35	2.6
367.714	2.55
368.077	2.5
368.44	2.53
368.803	2.61
369.167	2.61
369.53	2.59
369.893	2.59
370.256	2.6
370.619	2.6
370.982	2.55
371.345	2.46
371.708	2.49
372.071	2.44
372.434	2.44
372.797	2.48
373.159	2.39
373.522	2.33
373.885	2.35
374.247	2.38
374.61	2.39
374.973	2.32
375.335	2.34
375.698	2.37
376.06	2.34
376.423	2.31
376.785	2.36
377.147	2.42
377.51	2.4
377.872	2.36
378.234	2.43
378.596	2.44
378.958	2.51
379.321	2.51
379.683	2.6
380.045	2.65
380.407	2.59
380.769	2.65
381.13	2.69
381.492	2.68
381.854	2.69
382.216	2.71
382.578	2.78
382.939	2.75
383.301	2.73
383.663	2.74
384.024	2.75
384.386	2.74
384.747	2.75
385.109	2.76
385.47	2.78
385.832	2.73
386.193	2.75
386.554	2.74
386.916	2.7
387.277	2.68
387.638	2.67
387.999	2.71
388.36	2.72
388.721	2.71
389.082	2.73
389.443	2.69
389.804	2.69
390.165	2.65
390.526	2.69
390.887	2.69
391.248	2.7
391.609	2.69
391.969	2.68
392.33	2.65
392.691	2.65
393.051	2.63
393.412	2.66
393.772	2.66
394.133	2.7
394.493	2.74
394.854	2.74
395.214	2.76
395.574	2.76
395.935	2.73
396.295	2.77
396.655	2.74
397.015	2.76
397.376	2.74
397.736	2.76
398.096	2.74
398.456	2.75
398.816	2.79
399.176	2.76
399.535	2.75
399.895	2.73
400.255	2.73
400.615	2.75
400.975	2.71
401.334	2.68
401.694	2.64
402.054	2.61
402.413	2.6
402.773	2.55
403.132	2.55
403.492	2.55
403.851	2.54
404.211	2.58
404.57	2.56
404.929	2.59
405.288	2.58
405.648	2.58
406.007	2.57
406.366	2.56
406.725	2.59
407.084	2.62
407.443	2.66
407.802	2.69
408.161	2.67
408.52	2.67
408.879	2.68
409.238	2.71
409.596	2.72
409.955	2.74
410.314	2.77
410.673	2.76
411.031	2.77
411.39	2.76
411.748	2.72
412.107	2.76
412.465	2.73
412.824	2.75
413.182	2.75
413.54	2.76
413.899	2.78
414.257	2.76
414.615	2.75
414.974	2.74
415.332	2.74
415.69	2.77
416.048	2.78
416.406	2.82
416.764	2.8
417.122	2.81
417.48	2.82
417.838	2.83
418.195	2.85
418.553	2.85
418.911	2.84
419.269	2.85
419.626	2.84
419.984	2.85
420.342	2.85
420.699	2.85
421.057	2.86
421.414	2.85
421.772	2.86
422.129	2.86
422.486	2.86
422.844	2.85
423.201	2.84
423.558	2.84
423.915	2.83
424.273	2.85
424.63	2.84
424.987	2.83
425.344	2.83
425.701	2.82
426.058	2.82
426.415	2.83
426.772	2.83
427.128	2.83
427.485	2.81
427.842	2.79
428.199	2.79
428.555	2.78
428.912	2.79
429.269	2.79
429.625	2.77
429.982	2.79
430.338	2.79
430.695	2.8
431.051	2.8
431.407	2.79
431.764	2.76
432.12	2.75
432.476	2.75
432.832	2.74
433.189	2.75
433.545	2.74
433.901	2.74
434.257	2.74
434.613	2.74
434.969	2.77
435.325	2.78
435.681	2.81
436.036	2.82
436.392	2.81
436.748	2.81
437.104	2.82
437.459	2.8
437.815	2.79
438.171	2.79
438.526	2.79
438.882	2.79
439.237	2.8
439.593	2.81
439.948	2.81
440.304	2.81
440.659	2.81
441.014	2.82
441.369	2.81
441.725	2.8
442.08	2.81
442.435	2.8
442.79	2.8
443.145	2.78
443.5	2.77
443.855	2.76
444.21	2.76
444.565	2.77
444.92	2.8
445.275	2.79
445.629	2.8
445.984	2.79
446.339	2.78
446.693	2.76
447.048	2.76
447.403	2.75
447.757	2.76
448.112	2.75
448.466	2.73
448.82	2.73
449.175	2.74
449.529	2.74
449.883	2.73
450.238	2.72
450.592	2.72
450.946	2.73
451.3	2.72
451.654	2.71
452.008	2.69
452.362	2.67
452.716	2.69
453.07	2.69
453.424	2.7
453.778	2.7
454.132	2.72
454.486	2.72
454.839	2.73
455.193	2.71
455.547	2.72
455.9	2.76
456.254	2.77
456.607	2.76
456.961	2.76
457.314	2.76
457.668	2.78
458.021	2.78
458.375	2.77
458.728	2.77
459.081	2.77
459.434	2.76
459.787	2.77
460.141	2.74
460.494	2.74
460.847	2.74
461.2	2.74
461.553	2.74
461.906	2.74
462.259	2.76
462.611	2.77
462.964	2.78
463.317	2.77
463.67	2.77
464.022	2.77
464.375	2.77
464.728	2.78
465.08	2.78
465.433	2.79
465.785	2.78
466.138	2.79
466.49	2.8
466.843	2.82
467.195	2.82
467.547	2.84
467.899	2.85
468.252	2.85
468.604	2.85
468.956	2.85
469.308	2.84
469.66	2.81
470.012	2.81
470.364	2.79
470.716	2.8
471.068	2.78
471.42	2.76
471.772	2.78
472.123	2.76
472.475	2.74
472.827	2.74
473.178	2.75
473.53	2.77
473.882	2.75
474.233	2.75
474.585	2.74
474.936	2.73
475.288	2.74
475.639	2.74
475.99	2.76
476.342	2.78
476.693	2.8
477.044	2.83
477.395	2.82
477.746	2.82
478.097	2.82
478.448	2.85
478.8	2.86
479.15	2.84
479.501	2.86
479.852	2.86
480.203	2.87
480.554	2.89
480.905	2.89
481.255	2.9
481.606	2.91
481.957	2.92
482.307	2.92
482.658	2.92
483.009	2.91
483.359	2.92
483.709	2.92
484.06	2.92
484.41	2.92
484.761	2.93
485.111	2.93
485.461	2.93
485.811	2.93
486.162	2.94
486.512	2.95
486.862	2.95
487.212	2.95
487.562	2.95
487.912	2.94
488.262	2.93
488.612	2.92
488.961	2.92
489.311	2.92
489.661	2.93
490.011	2.94
490.36	2.93
490.71	2.93
491.06	2.92
491.409	2.92
491.759	2.91
492.108	2.9
492.458	2.89
492.807	2.89
493.157	2.88
493.506	2.88
493.855	2.87
494.204	2.86
494.554	2.86
494.903	2.85
495.252	2.85
495.601	2.86
495.95	2.85
496.299	2.86
496.648	2.84
496.997	2.85
497.346	2.83
497.695	2.83
498.043	2.83
498.392	2.82
498.741	2.81
499.09	2.82
499.438	2.83
499.787	2.84
500.135	2.86
500.484	2.88
500.832	2.88
501.181	2.88
501.529	2.89
501.878	2.91
502.226	2.92
502.574	2.93
502.923	2.93
503.271	2.95
503.619	2.94
503.967	2.95
504.315	2.93
504.663	2.96
505.011	2.98
505.359	2.98
505.707	3.01
506.055	2.99
506.403	3
506.751	3.01
507.098	3.01
507.446	3.01
507.794	2.99
508.141	2.99
508.489	3
508.837	2.99
509.184	2.97
509.531	2.97
509.879	3
510.226	3
510.574	3.01
510.921	3.01
511.268	3
511.616	3.01
511.963	3.02
512.31	3
512.657	3.01
513.004	2.99
513.351	3.02
513.698	3.03
514.045	3.02
514.392	3.02
514.739	3.03
515.086	3.04
515.432	3.04
515.779	3.04
516.126	3.05
516.473	3.07
516.819	3.08
517.166	3.05
517.512	3.05
517.859	3.07
518.205	3.07
518.552	3.09
518.898	3.09
519.245	3.09
519.591	3.09
519.937	3.07
520.283	3.09
520.629	3.09
520.976	3.09
521.322	3.11
521.668	3.11
522.014	3.12
522.36	3.12
522.706	3.14
523.052	3.14
523.398	3.14
523.743	3.12
524.089	3.12
524.435	3.13
524.781	3.14
525.126	3.13
525.472	3.13
525.817	3.13
526.163	3.14
526.509	3.14
526.854	3.15
527.199	3.16
527.545	3.17
527.89	3.18
528.235	3.17
528.581	3.17
528.926	3.17
529.271	3.16
529.616	3.17
529.961	3.17
530.306	3.19
530.651	3.19
530.996	3.21
531.341	3.19
531.686	3.2
532.031	3.2
532.376	3.21
532.721	3.21
533.065	3.21
533.41	3.21
533.755	3.2
534.099	3.2
534.444	3.2
534.788	3.2
535.133	3.21
535.477	3.21
535.822	3.2
536.166	3.2
536.51	3.21
536.855	3.2
537.199	3.2
537.543	3.19
537.887	3.19
538.231	3.19
538.576	3.21
538.92	3.2
539.264	3.2
539.608	3.2
539.951	3.21
540.295	3.21
540.639	3.23
540.983	3.24
541.327	3.25
541.671	3.24
542.014	3.24
542.358	3.23
542.701	3.23
543.045	3.25
543.389	3.26
543.732	3.26
544.075	3.26
544.419	3.27
544.762	3.27
545.105	3.29
545.449	3.29
545.792	3.29
546.135	3.29
546.478	3.28
546.821	3.29
547.165	3.27
547.508	3.28
547.851	3.27
548.194	3.25
548.536	3.25
548.879	3.26
549.222	3.26
549.565	3.27
549.908	3.27
550.25	3.27
550.593	3.24
550.936	3.24
551.278	3.23
551.621	3.2
551.963	3.19
552.306	3.17
552.648	3.18
552.991	3.21
553.333	3.21
553.675	3.22
554.017	3.23
554.36	3.25
554.702	3.27
555.044	3.26
555.386	3.27
555.728	3.27
556.07	3.28
556.412	3.28
556.754	3.28
557.096	3.3
557.438	3.29
557.78	3.31
558.121	3.35
558.463	3.36
558.805	3.38
559.147	3.4
559.488	3.39
559.83	3.34
560.171	3.33
560.513	3.37
560.854	3.4
561.196	3.4
561.537	3.39
561.878	3.4
562.22	3.39
562.561	3.36
562.902	3.37
563.243	3.35
563.584	3.35
563.925	3.35
564.266	3.34
564.607	3.35
564.948	3.35
565.289	3.32
565.63	3.31
565.971	3.32
566.312	3.3
566.653	3.3
566.993	3.32
567.334	3.32
567.675	3.3
568.015	3.28
568.356	3.28
568.696	3.27
569.037	3.25
569.377	3.26
569.718	3.28
570.058	3.28
570.398	3.32
570.739	3.32
571.079	3.33
571.419	3.33
571.759	3.31
572.099	3.28
572.439	3.3
572.779	3.31
573.119	3.32
573.459	3.33
573.799	3.37
574.139	3.38
574.479	3.39
574.819	3.37
575.158	3.36
575.498	3.34
575.838	3.34
576.177	3.32
576.517	3.34
576.856	3.33
577.196	3.32
577.535	3.27
577.875	3.27
578.214	3.23
578.553	3.25
578.893	3.27
579.232	3.3
579.571	3.3
579.91	3.29
580.25	3.25
580.589	3.24
580.928	3.24
581.267	3.24
581.606	3.22
581.945	3.22
582.283	3.24
582.622	3.24
582.961	3.23
583.3	3.27
583.639	3.31
583.977	3.33
584.316	3.32
584.654	3.34
584.993	3.35
585.332	3.38
585.67	3.43
586.008	3.44
586.347	3.44
586.685	3.41
587.024	3.42
587.362	3.44
587.7	3.44
588.038	3.46
588.376	3.46
588.715	3.46
589.053	3.51
589.391	3.52
589.729	3.53
590.067	3.52
590.404	3.52
590.742	3.49
591.08	3.47
591.418	3.5
591.756	3.52
592.093	3.53
592.431	3.5
592.769	3.45
593.106	3.43
593.444	3.41
593.781	3.44
594.119	3.44
594.456	3.42
594.793	3.41
595.131	3.39
595.468	3.38
595.805	3.38
596.143	3.36
596.48	3.33
596.817	3.34
597.154	3.37
597.491	3.36
597.828	3.35
598.165	3.36
598.502	3.35
598.839	3.35
599.176	3.33
599.512	3.34
599.849	3.35
600.186	3.35
600.523	3.41
600.859	3.44
601.196	3.43
601.532	3.46
601.869	3.45
602.205	3.43
602.542	3.44
602.878	3.45
603.215	3.46
603.551	3.5
603.887	3.49
604.223	3.46
604.56	3.47
604.896	3.47
605.232	3.49
605.568	3.45
605.904	3.44
606.24	3.46
606.576	3.48
606.912	3.47
607.248	3.48
607.583	3.46
607.919	3.41
608.255	3.4
608.591	3.4
608.926	3.42
609.262	3.44
609.597	3.43
609.933	3.4
610.268	3.38
610.604	3.39
610.939	3.4
611.275	3.4
611.61	3.4
611.945	3.43
612.281	3.4
612.616	3.47
612.951	3.5
613.286	3.5
613.621	3.48
613.956	3.48
614.291	3.47
614.626	3.43
614.961	3.43
615.296	3.43
615.631	3.38
615.966	3.34
616.3	3.31
616.635	3.3
616.97	3.35
617.304	3.34
617.639	3.34
617.973	3.31
618.308	3.31
618.642	3.35
618.977	3.31
619.311	3.24
619.646	3.25
619.98	3.22
620.314	3.22
620.648	3.3
620.983	3.32
621.317	3.33
621.651	3.35
621.985	3.34
622.319	3.4
622.653	3.45
622.987	3.49
623.321	3.53
623.655	3.55
623.988	3.58
624.322	3.6
624.656	3.59
624.99	3.59
625.323	3.59
625.657	3.59
625.99	3.63
626.324	3.7
626.657	3.65
626.991	3.68
627.324	3.64
627.658	3.62
627.991	3.65
628.324	3.65
628.657	3.65
628.991	3.65
629.324	3.63
629.657	3.65
629.99	3.66
630.323	3.67
630.656	3.69
630.989	3.68
631.322	3.68
631.655	3.66
631.987	3.71
632.32	3.74
632.653	3.71
632.986	3.68
633.318	3.67
633.651	3.72
633.984	3.71
634.316	3.73
634.649	3.7
634.981	3.64
635.313	3.63
635.646	3.61
635.978	3.65
636.31	3.64
636.643	3.64
636.975	3.61
637.307	3.59
637.639	3.57
637.971	3.51
638.303	3.48
638.635	3.51
638.967	3.49
639.299	3.55
639.631	3.55
639.963	3.53
640.295	3.52
640.626	3.49
640.958	3.5
641.29	3.52
641.621	3.53
641.953	3.53
642.285	3.5
642.616	3.56
642.948	3.61
643.279	3.64
643.61	3.59
643.942	3.58
644.273	3.61
644.604	3.58
644.936	3.58
645.267	3.62
645.598	3.61
645.929	3.59
646.26	3.55
646.591	3.56
646.922	3.54
647.253	3.55
647.584	3.54
647.915	3.55
648.245	3.6
648.576	3.62
648.907	3.63
649.238	3.65
649.568	3.6
649.899	3.57
650.229	3.58
650.56	3.54
650.89	3.6
651.221	3.6
651.551	3.61
651.882	3.66
652.212	3.61
652.542	3.59
652.872	3.51
653.203	3.49
653.533	3.53
653.863	3.55
654.193	3.52
654.523	3.54
654.853	3.51
655.183	3.48
655.513	3.44
655.843	3.48
656.172	3.52
656.502	3.53
656.832	3.54
657.162	3.55
657.491	3.63
657.821	3.57
658.15	3.58
658.48	3.62
658.809	3.61
659.139	3.59
659.468	3.64
659.798	3.76
660.127	3.74
660.456	3.73
660.785	3.74
661.115	3.76
661.444	3.76
661.773	3.8
662.102	3.77
662.431	3.84
662.76	3.8
663.089	3.77
663.418	3.77
663.747	3.69
664.076	3.68
664.404	3.6
664.733	3.65
665.062	3.66
665.39	3.62
665.719	3.54
666.048	3.68
666.376	3.64
666.705	3.6
667.033	3.65
667.362	3.66
667.69	3.66
668.018	3.7
668.347	3.73
668.675	3.7
669.003	3.68
669.331	3.67
669.659	3.64
669.987	3.65
670.315	3.61
670.643	3.68
670.971	3.71
671.299	3.76
671.627	3.74
671.955	3.67
672.283	3.69
672.61	3.81
672.938	3.76
673.266	3.77
673.593	3.85
673.921	3.8
674.249	3.81
674.576	3.74
674.904	3.72
675.231	3.69
675.558	3.71
675.886	3.77
676.213	3.71
676.54	3.8
676.867	3.8
677.195	3.84
677.522	3.86
677.849	3.84
678.176	3.83
678.503	3.9
678.83	3.93
679.157	3.87
679.484	3.81
679.81	3.8
680.137	3.75
680.464	3.71
680.791	3.73
681.117	3.62
681.444	3.69
681.771	3.7
682.097	3.64
682.424	3.66
682.75	3.58
683.077	3.6
683.403	3.62
683.729	3.63
684.056	3.68
684.382	3.69
684.708	3.66
685.034	3.63
685.36	3.47
685.686	3.46
686.012	3.49
686.339	3.56
686.664	3.63
686.99	3.63
687.316	3.63
687.642	3.66
687.968	3.74
688.294	3.81
688.619	3.86
688.945	3.85
689.271	3.79
689.596	3.88
689.922	3.86
690.247	3.76
690.573	3.73
690.898	3.71
691.224	3.67
691.549	3.74
691.874	3.68
692.2	3.77
692.525	3.72
692.85	3.79
693.175	3.8
693.5	3.66
693.825	3.69
694.15	3.59
694.475	3.59
694.8	3.58
695.125	3.5
695.45	3.41
695.775	3.51
696.099	3.48
696.424	3.46
696.749	3.47
697.073	3.56
697.398	3.61
697.723	3.59
698.047	3.58
698.372	3.53
698.696	3.68
699.02	3.64
699.345	3.72
699.669	3.7
699.993	3.61
700.318	3.56
700.642	3.55
700.966	3.62
701.29	3.63
701.614	3.6
701.938	3.52
702.262	3.56
702.586	3.62
702.91	3.6
703.234	3.71
703.557	3.77
703.881	3.67
704.205	3.63
704.529	3.6
704.852	3.57
705.176	3.54
705.499	3.51
705.823	3.59
706.146	3.55
706.47	3.6
706.793	3.59
707.117	3.7
707.44	3.66
707.763	3.62
708.086	3.48
708.409	3.53
708.733	3.68
709.056	3.78
709.379	3.83
709.702	3.93
710.025	3.9
710.348	3.92
710.671	3.9
710.993	3.9
711.316	3.88
711.639	3.87
711.962	3.88
712.284	3.94
712.607	3.91
712.93	3.83
713.252	3.77
713.575	3.83
713.897	3.76
714.22	3.78
714.542	3.83
714.864	3.88
715.187	3.88
715.509	3.88
715.831	3.76
716.153	3.57
716.475	3.58
716.798	3.59
717.12	3.43
717.442	3.56
717.764	3.45
718.085	3.5
718.407	3.6
718.729	3.55
719.051	3.41
719.373	3.43
719.695	3.43
720.016	3.4
720.338	3.34
720.659	3.51
720.981	3.53
721.302	3.7
721.624	3.79
721.945	3.73
722.267	3.68
722.588	3.65
722.909	3.68
723.231	3.55
723.552	3.51
723.873	3.57
724.194	3.45
724.515	3.53
724.836	3.52
725.157	3.63
725.478	3.7
725.799	3.66
726.12	3.65
726.441	3.78
726.762	3.85
727.083	3.8
727.403	3.78
727.724	4.06
728.045	3.89
728.365	3.83
728.686	3.93
729.006	3.88
729.327	3.9
729.647	3.93
729.967	4.05
730.288	3.96
730.608	3.96
730.928	4.02
731.249	4.16
731.569	4.3
731.889	4.2
732.209	4.2
732.529	4.29
732.849	4.22
733.169	4.15
733.489	4.08
733.809	4.06
734.129	3.93
734.448	3.68
734.768	3.62
735.088	3.67
735.408	3.74
735.727	3.85
736.047	3.95
736.366	3.83
736.686	3.63
737.005	3.76
737.325	3.75
737.644	3.76
737.963	3.59
738.283	3.42
738.602	3.23
738.921	3.29
739.24	3.38
739.56	3.36
739.879	3.26
740.198	3.49
740.517	3.66
740.836	3.8
741.155	3.72
741.473	3.82
741.792	3.6
742.111	3.32
742.43	3.17
742.748	3
743.067	3.24
743.386	3.38
743.704	3.3
744.023	3.4
744.341	3.53
744.66	3.67
744.978	3.51
745.297	3.55
745.615	3.67
745.933	3.55
746.252	3.69
746.57	3.95
746.888	3.59
747.206	3.53
747.524	3.51
747.842	3.67
748.16	3.76
748.478	3.98
748.796	4.04
749.114	4.54
749.432	4.6
749.749	4.62
750.067	4.48
750.385	4.44
750.703	4.14
751.02	4.16
751.338	4.13
751.655	4.28
751.973	4.41
752.29	4.37
752.608	4.55
752.925	4.54
753.242	4.26
753.56	4.52
753.877	4.51
754.194	4.54
754.511	4.46
754.828	4.15
755.145	3.96
755.462	3.98
755.779	3.69
756.096	3.84
756.413	3.88
756.73	4.04
757.047	4.15
757.364	4.43
757.68	4.22
757.997	4.16
758.314	4.16
758.63	4.24
758.947	4.1
759.264	3.89
759.58	4.11
759.896	4.5
760.213	4.57
760.529	4.6
760.846	4.67
761.162	4.58
761.478	4.81
761.794	4.74
762.11	5.11
762.426	5.19
762.743	5.16
763.059	5.05
763.375	5.07
763.69	5.06
764.006	5.02
764.322	5.09
764.638	5.21
764.954	5.53
765.27	5.45
765.585	5.6
765.901	5.73
766.216	5.59
766.532	5.31
766.848	5.1
767.163	5.33
767.478	5.2
767.794	5.36
768.109	5.14
768.424	5.46
768.74	5.17
769.055	5.18
769.37	5.06
769.685	5.34
770	5.46
770.315	5.23
770.63	5.26
770.945	5.3
771.26	5.23
771.575	4.73
771.89	4.79
772.205	4.44
772.52	4.24
772.834	4.2
773.149	4.44
773.464	4.51
773.778	4.16
774.093	4.15
774.407	4.26
774.722	4.48
775.036	4.65
775.351	4.83
775.665	4.24
775.979	4.17
776.293	3.79
776.608	3.63
776.922	3.77
777.236	3.89
777.55	3.64
777.864	3.6
778.178	4.21
778.492	4.24
778.806	4.33
779.12	4.4
779.434	4.56
779.747	4.62
780.061	4.94
780.375	5.42
780.689	5.46
781.002	5.49
781.316	5.23
781.629	5.18
781.943	4.97
782.256	5.27
782.57	5.46
782.883	5.4
783.196	5.18
783.51	5.17
783.823	4.84
784.136	4.96
784.449	5.01
784.762	4.8
785.075	4.9
785.388	4.95
785.701	5.27
786.014	4.83
786.327	4.42
786.64	4.24
786.953	4.01
787.266	3.94
787.578	3.83
787.891	4.41
788.204	3.92
788.516	4.19
788.829	4.02
789.141	4.07
789.454	4.22
789.766	4.7
790.079	4.89
790.391	5.53
790.703	5.48
791.016	5.51
791.328	5.26
791.64	5.07
791.952	5.24
792.264	4.33
792.576	4.57
792.888	5.01
793.2	5.45
793.512	5.22
793.824	5.44
794.136	5.25
794.448	5.17
794.76	5.3
795.071	4.78
795.383	4.78
795.695	4.64
796.006	4.38
796.318	3.94
796.629	4.14
796.941	3.54
797.252	3.52
797.564	3.51
797.875	3.35
798.186	2.91
798.497	2.65
798.809	3.34
799.12	3.5
799.431	3.38
799.742	2.76
800.053	3.23
800.364	3.3
800.675	3.48
800.986	3.13
801.297	2.9
801.608	3.25
801.918	3.42
802.229	3.35
802.54	3.01
802.851	2.79
803.161	2.48
803.472	2.77
803.782	3.21
804.093	2.87
804.403	2.85
804.714	3.34
805.024	3.19
805.334	3.09
805.645	3.3
805.955	2.98
806.265	3.27
806.575	2.83
806.885	2.57
807.195	2.7
807.505	2.99
807.815	2.89
808.125	2.64
808.435	2.98
808.745	2.93
809.055	3.65
809.365	3.83
809.674	3.3
809.984	3.53
810.294	3.34
810.603	4
810.913	4.57
811.222	4.82
811.532	5.17
811.841	6.04
812.151	5.74
812.46	5.93
812.769	5.41
813.079	5.49
813.388	5.42
813.697	5.23
814.006	5.3
814.315	5.51
814.624	5.86
814.933	5.79
815.242	5.72
815.551	5.81
815.86	6.55
816.169	7.48
816.478	6.73
816.786	6.38
817.095	6.21
817.404	5.72
817.712	5.71
818.021	5.84
818.33	5.86
818.638	5.25
818.947	5.9
819.255	6.29
819.563	6.26
819.872	6.32
820.18	6.63
820.488	6.53
820.796	6.8
821.105	6.93
821.413	6.96
821.721	7.2
822.029	7.31
822.337	7.13
822.645	7.23
822.953	7.32
823.26	7.36
823.568	7.18
823.876	7.32
824.184	7.29
824.491	7.39
824.799	7.21
825.107	7.56
825.414	7.4
825.722	7.42
826.029	7.47
826.337	7.69
826.644	7.6
826.951	7.45
827.259	7.35
827.566	7.27
827.873	7.28
828.18	7.17
828.488	6.85
828.795	6.89
829.102	6.81
829.409	6.88
829.716	6.72
830.023	7.09
830.329	6.98
830.636	7.16
830.943	7.12
831.25	7.13
831.557	6.82
831.863	7.21
832.17	7.2
832.476	7.37
832.783	7.12
833.089	6.97
833.396	7.76
833.702	7.89
834.009	7.8
834.315	7.93
834.621	8.07
834.928	8.21
835.234	8.41
835.54	7.89
835.846	7.65
836.152	7.85
836.458	7.83
836.764	7.68
837.07	6.97
837.376	6.29
837.682	5.8
837.988	5.75
838.293	4.75
838.599	4.48
838.905	4.1
839.211	3.74
839.516	4.2
839.822	3.32
840.127	3.34
840.433	3.2
840.738	2.36
841.044	1.3
841.349	0.93
841.654	0.21
841.959	1.13
842.265	1.01
842.57	1.17
842.875	0.6
843.18	0.72
843.485	1.54
843.79	2.21
844.095	3.32
844.4	3.81
844.705	4.37
845.01	4.1
845.315	4.17
845.619	3.12
845.924	2.05
846.229	2.01
846.533	1.22
846.838	1.32
847.142	1.12
847.447	0.5
847.751	1.23
848.056	0.49
848.36	-0.96
848.664	-1.37
848.969	-0.97
849.273	-0.72
849.577	-1.35
849.881	-1.16
850.185	0.01
850.489	-0.14
850.794	-1.5
851.097	-0.82
851.401	0.42
851.705	0.08
852.009	2.08
852.313	1.7
852.617	2.29
852.92	3.32
853.224	3.04
853.528	4.23
853.831	5.83
854.135	5.49
854.438	5.82
854.742	4.44
855.045	6.55
855.349	5.55
855.652	4.42
855.955	5.21
856.259	4.19
856.562	2.28
856.865	1.16
857.168	1.39
857.471	0.5
857.774	-0.84
858.077	0.1
858.38	0.04
858.683	-0.57
858.986	-0.54
859.289	-1.26
859.592	-2.16
859.894	-0.61
860.197	-0.17
860.5	0.97
860.802	1.21
861.105	2.38
861.407	0.71
861.71	1.46
862.012	2.26
862.315	1.67
862.617	-0.16
862.919	0.89
863.222	1.46
863.524	1.32
863.826	1.44
864.128	2.45
864.43	-0.34
864.732	-2.85
865.034	-1.27
865.336	-3.12
865.638	-2.54
865.94	-3.99
866.242	-6.92
866.544	-7.88
866.846	-8.26
867.147	-10.45
867.449	-9.39
867.751	-9.35
868.052	-8.02
868.354	-8.64
868.655	-8.71
868.957	-6.72
869.258	-9.15
869.56	-8.52
869.861	-9.09
870.162	-8.31
870.463	-7.11
870.765	-4.43
871.066	-2.57
871.367	-4.51
871.668	-5.01
871.969	-7.79
872.27	-6.85
872.571	-7.2
872.872	-5.78
873.173	-8.08
873.473	-6.21
873.774	-5.48
874.075	-2.95
874.376	-4.48
874.676	-2.89
874.977	-6.21
875.277	-5.32
875.578	-2.21
875.878	-3.43
876.179	-2.68
876.479	-2.57
876.78	-5.56
877.08	-7.75
877.38	-8.62
877.68	-6.35
877.981	-3.96
878.281	-0.65
878.581	1.89
