Data from BA28305_Reflection_00003.txt Node
Date: Mon Nov 18 15:56:48 EST 2019
User: vgr7
Spectrometer: USB2G7710
Scans to average: 3
Trigger mode: 4
Integration Time (sec): 2.000000E-2
Electric dark correction enabled: true
Boxcar width: 10
XAxis mode: Wavelengths
Number of Pixels in Spectrum: 2048
>>>>>Begin Spectral Data<<<<<
177.721	-7.42
178.105	-356.14
178.488	-435.83
178.871	117.54
179.254	44.86
179.636	40.48
180.019	-34.87
180.402	173.91
180.785	-23.74
181.168	32.39
181.55	18.26
181.933	98.42
182.316	81.04
182.698	84.57
183.081	83.63
183.463	107.73
183.846	144.27
184.228	159.23
184.611	136.68
184.993	122.41
185.376	126.41
185.758	174.23
186.14	210.46
186.522	275.54
186.904	435.01
187.287	190.98
187.669	409.98
188.051	225.16
188.433	352.47
188.815	786.08
189.197	1760.13
189.579	-508.55
189.961	-516.78
190.342	-462.38
190.724	-154.76
191.106	-135.02
191.488	-228.56
191.869	-112.98
192.251	-103.12
192.633	-70.38
193.014	-88.02
193.396	-162.1
193.777	-220.93
194.159	-193.91
194.54	-292.05
194.922	-363.65
195.303	-495.52
195.684	-494.66
196.065	-609.5
196.447	-445.82
196.828	-262.77
197.209	-235.23
197.59	-355.65
197.971	-280.35
198.352	-177.39
198.733	-178.9
199.114	-158.52
199.495	-112.88
199.876	-118.2
200.257	-113.92
200.638	-156.69
201.018	-239.23
201.399	-133.21
201.78	-101.64
202.16	-143.82
202.541	-184.22
202.922	-468.34
203.302	-574.39
203.683	-326.48
204.063	-321.86
204.444	-423.4
204.824	-687.62
205.204	-1265.33
205.585	-1160.98
205.965	-703.25
206.345	-3672.36
206.725	1531.88
207.106	520.87
207.486	292.11
207.866	396.16
208.246	316.85
208.626	445.44
209.006	1208.05
209.386	584.66
209.766	1190.51
210.145	-627.06
210.525	-535.32
210.905	-236.83
211.285	-176.25
211.664	-190.88
212.044	-177.17
212.424	-174.78
212.803	-182.25
213.183	-128.95
213.562	-129.05
213.942	-112.38
214.321	-106.21
214.701	-86.99
215.08	-77.62
215.459	-66.14
215.838	-74.71
216.218	-84.82
216.597	-86.89
216.976	-100.65
217.355	-102.56
217.734	-126.68
218.113	-136.36
218.492	-117.32
218.871	-158.95
219.25	-165.3
219.629	-173.02
220.008	-155.25
220.387	-133.24
220.766	-116.14
221.144	-233.86
221.523	-224.52
221.902	-442.04
222.28	-1114.47
222.659	-561.31
223.037	-404.01
223.416	-1211.29
223.794	-542.42
224.173	-385
224.551	-259.58
224.929	-133.56
225.308	-84.3
225.686	-54.65
226.064	-50.06
226.442	-47.63
226.821	-31.05
227.199	-23.11
227.577	-31.7
227.955	-33.1
228.333	-30.68
228.711	-29.64
229.089	-18.29
229.467	-18.09
229.845	-16.55
230.222	-14.65
230.6	-15.2
230.978	-17.18
231.356	-13
231.733	-11.48
232.111	-9.36
232.488	-6.32
232.866	-6.22
233.243	-7.7
233.621	-9.07
233.998	-8.59
234.376	-9.57
234.753	-10.51
235.13	-10.42
235.508	-6.65
235.885	-5.18
236.262	-7.03
236.639	-7.05
237.016	-9.35
237.393	-7.8
237.77	-5.73
238.147	-4.1
238.524	-2.61
238.901	-1.55
239.278	-0.26
239.655	0.89
240.032	1.57
240.409	1.12
240.785	1.14
241.162	0.6
241.539	0.49
241.915	0.98
242.292	1.48
242.668	2.08
243.045	2.63
243.421	2.33
243.798	2.57
244.174	3.25
244.551	3.48
244.927	3.74
245.303	3.96
245.679	3.73
246.056	3.9
246.432	3.48
246.808	3.64
247.184	3.31
247.56	2.69
247.936	2.62
248.312	2.59
248.688	2.71
249.064	2.73
249.44	2.95
249.815	2.92
250.191	2.89
250.567	2.58
250.943	2.43
251.318	2.75
251.694	2.7
252.069	2.39
252.445	2.37
252.82	2.3
253.196	1.99
253.571	1.95
253.947	1.71
254.322	2.01
254.697	1.96
255.073	1.85
255.448	2.24
255.823	2.21
256.198	2.26
256.573	2.33
256.948	2.56
257.323	2.75
257.698	2.7
258.073	2.55
258.448	2.58
258.823	2.43
259.198	2.27
259.573	2.27
259.948	2.35
260.322	2.26
260.697	2.19
261.072	2.14
261.446	2.21
261.821	2.3
262.195	2.38
262.57	2.29
262.944	2.28
263.319	2.28
263.693	2.35
264.067	2.47
264.442	2.41
264.816	2.56
265.19	2.29
265.564	2.22
265.938	2.22
266.313	2.21
266.687	2.13
267.061	2.2
267.435	2.21
267.809	2.17
268.183	2.18
268.556	2.36
268.93	2.48
269.304	2.44
269.678	2.39
270.051	2.31
270.425	2.38
270.799	2.53
271.172	2.53
271.546	2.4
271.919	2.23
272.293	2.27
272.666	2.17
273.04	2.29
273.413	2.37
273.787	2.47
274.16	2.49
274.533	2.7
274.906	2.77
275.279	2.8
275.653	2.86
276.026	2.8
276.399	2.68
276.772	2.62
277.145	2.56
277.518	2.46
277.891	2.62
278.263	2.57
278.636	2.6
279.009	2.68
279.382	2.78
279.755	2.93
280.127	2.99
280.5	2.93
280.872	2.98
281.245	2.93
281.617	2.98
281.99	3.03
282.362	3.12
282.735	3.01
283.107	2.97
283.479	2.82
283.852	2.91
284.224	2.97
284.596	3.05
284.968	3.21
285.34	3.29
285.713	3.24
286.085	3.31
286.457	3.37
286.829	3.38
287.201	3.37
287.572	3.18
287.944	3.1
288.316	3.02
288.688	2.9
289.06	2.85
289.431	2.77
289.803	2.72
290.175	2.6
290.546	2.73
290.918	2.74
291.289	2.97
291.661	3.07
292.032	3.22
292.403	3.23
292.775	3.11
293.146	2.99
293.517	2.86
293.889	2.72
294.26	2.63
294.631	2.51
295.002	2.47
295.373	2.59
295.744	2.75
296.115	2.88
296.486	2.8
296.857	2.94
297.228	2.97
297.599	2.99
297.97	2.93
298.34	2.85
298.711	2.91
299.082	2.88
299.452	2.86
299.823	2.82
300.194	2.83
300.564	2.79
300.935	2.89
301.305	2.95
301.676	3.18
302.046	3.33
302.416	3.53
302.787	3.48
303.157	3.45
303.527	3.3
303.897	3.12
304.267	3.43
304.637	3.32
305.008	3.31
305.378	3.39
305.748	3.53
306.117	3.46
306.487	3.38
306.857	3.24
307.227	3.06
307.597	2.88
307.967	2.81
308.336	2.84
308.706	2.8
309.076	2.7
309.445	2.62
309.815	2.48
310.184	2.38
310.554	2.46
310.923	2.55
311.293	2.52
311.662	2.68
312.031	2.51
312.401	2.45
312.77	2.55
313.139	2.52
313.508	2.41
313.877	2.31
314.246	2.43
314.616	2.33
314.985	2.38
315.353	2.45
315.722	2.61
316.091	2.51
316.46	2.34
316.829	2.47
317.198	2.43
317.567	2.4
317.935	2.33
318.304	2.37
318.672	2.27
319.041	2.41
319.41	2.42
319.778	2.36
320.147	2.42
320.515	2.34
320.883	2.35
321.252	2.36
321.62	2.58
321.988	2.52
322.357	2.7
322.725	2.69
323.093	2.67
323.461	2.57
323.829	2.73
324.197	2.8
324.565	2.75
324.933	2.76
325.301	2.76
325.669	2.75
326.037	2.62
326.405	2.6
326.772	2.61
327.14	2.68
327.508	2.68
327.875	2.63
328.243	2.59
328.61	2.4
328.978	2.5
329.346	2.37
329.713	2.19
330.08	2.19
330.448	2.18
330.815	2.18
331.182	2.15
331.55	2.13
331.917	2.24
332.284	2.27
332.651	2.26
333.018	2.25
333.385	2.35
333.752	2.45
334.119	2.47
334.486	2.31
334.853	2.28
335.22	2.28
335.587	2.33
335.954	2.44
336.32	2.72
336.687	2.66
337.054	2.79
337.42	2.87
337.787	2.8
338.153	2.75
338.52	2.75
338.886	2.72
339.253	2.66
339.619	2.71
339.986	2.71
340.352	2.76
340.718	2.78
341.084	2.73
341.451	2.68
341.817	2.76
342.183	2.89
342.549	2.87
342.915	2.94
343.281	2.94
343.647	2.91
344.013	2.8
344.379	2.84
344.745	2.85
345.11	2.82
345.476	2.79
345.842	2.86
346.208	2.9
346.573	3
346.939	3.09
347.304	3.03
347.67	3.01
348.035	3
348.401	2.96
348.766	3.05
349.132	3.09
349.497	3.06
349.862	3.05
350.228	3.13
350.593	3.08
350.958	3.11
351.323	3.12
351.688	3.12
352.053	3.05
352.418	3
352.783	3.07
353.148	3.09
353.513	3.12
353.878	3.05
354.243	3.06
354.608	2.99
354.972	2.96
355.337	2.95
355.702	3.02
356.066	3.13
356.431	3.03
356.795	3.09
357.16	3.03
357.524	2.98
357.889	2.87
358.253	2.99
358.618	3
358.982	3
359.346	2.93
359.71	2.91
360.075	2.91
360.439	2.87
360.803	2.87
361.167	2.81
361.531	2.84
361.895	2.78
362.259	2.82
362.623	2.87
362.987	2.92
363.351	2.9
363.714	2.89
364.078	2.94
364.442	2.91
364.806	2.97
365.169	2.97
365.533	2.99
365.896	2.85
366.26	2.83
366.623	2.78
366.987	2.81
367.35	2.87
367.714	2.88
368.077	2.89
368.44	2.89
368.803	2.93
369.167	2.87
369.53	2.86
369.893	2.87
370.256	2.92
370.619	2.94
370.982	2.91
371.345	2.89
371.708	2.86
372.071	2.86
372.434	2.82
372.797	2.84
373.159	2.88
373.522	2.97
373.885	3.07
374.247	3.16
374.61	3.19
374.973	3.16
375.335	3.16
375.698	3.18
376.06	3.18
376.423	3.19
376.785	3.26
377.147	3.34
377.51	3.35
377.872	3.3
378.234	3.26
378.596	3.28
378.958	3.24
379.321	3.28
379.683	3.29
380.045	3.3
380.407	3.33
380.769	3.28
381.13	3.28
381.492	3.2
381.854	3.13
382.216	3.12
382.578	3.15
382.939	3.15
383.301	3.17
383.663	3.2
384.024	3.18
384.386	3.22
384.747	3.18
385.109	3.16
385.47	3.14
385.832	3.09
386.193	3.07
386.554	3.11
386.916	3.08
387.277	3.06
387.638	3.08
387.999	3.03
388.36	3.06
388.721	3.04
389.082	3.06
389.443	3.09
389.804	3.08
390.165	3.05
390.526	3.05
390.887	3.03
391.248	3.04
391.609	3.04
391.969	3.01
392.33	3.02
392.691	3.03
393.051	3.06
393.412	3.1
393.772	3.08
394.133	3.08
394.493	3.09
394.854	3.11
395.214	3.07
395.574	3.11
395.935	3.09
396.295	3.14
396.655	3.1
397.015	3.07
397.376	3.04
397.736	3.07
398.096	3.1
398.456	3.1
398.816	3.1
399.176	3.1
399.535	3.09
399.895	3.07
400.255	3.08
400.615	3.09
400.975	3.12
401.334	3.11
401.694	3.1
402.054	3.11
402.413	3.11
402.773	3.1
403.132	3.09
403.492	3.09
403.851	3.06
404.211	3.11
404.57	3.1
404.929	3.15
405.288	3.14
405.648	3.12
406.007	3.12
406.366	3.11
406.725	3.15
407.084	3.18
407.443	3.18
407.802	3.18
408.161	3.16
408.52	3.17
408.879	3.17
409.238	3.18
409.596	3.2
409.955	3.2
410.314	3.21
410.673	3.21
411.031	3.22
411.39	3.24
411.748	3.24
412.107	3.26
412.465	3.25
412.824	3.26
413.182	3.26
413.54	3.24
413.899	3.26
414.257	3.24
414.615	3.21
414.974	3.24
415.332	3.24
415.69	3.25
416.048	3.22
416.406	3.25
416.764	3.26
417.122	3.24
417.48	3.22
417.838	3.25
418.195	3.26
418.553	3.26
418.911	3.25
419.269	3.26
419.626	3.29
419.984	3.29
420.342	3.3
420.699	3.3
421.057	3.32
421.414	3.31
421.772	3.3
422.129	3.32
422.486	3.31
422.844	3.32
423.201	3.31
423.558	3.31
423.915	3.33
424.273	3.33
424.63	3.33
424.987	3.35
425.344	3.34
425.701	3.33
426.058	3.33
426.415	3.34
426.772	3.34
427.128	3.31
427.485	3.3
427.842	3.32
428.199	3.33
428.555	3.32
428.912	3.33
429.269	3.35
429.625	3.35
429.982	3.36
430.338	3.35
430.695	3.36
431.051	3.37
431.407	3.34
431.764	3.34
432.12	3.33
432.476	3.33
432.832	3.33
433.189	3.35
433.545	3.34
433.901	3.34
434.257	3.34
434.613	3.34
434.969	3.35
435.325	3.33
435.681	3.33
436.036	3.33
436.392	3.32
436.748	3.31
437.104	3.3
437.459	3.29
437.815	3.3
438.171	3.3
438.526	3.32
438.882	3.32
439.237	3.33
439.593	3.35
439.948	3.35
440.304	3.35
440.659	3.34
441.014	3.35
441.369	3.35
441.725	3.34
442.08	3.34
442.435	3.34
442.79	3.34
443.145	3.33
443.5	3.34
443.855	3.34
444.21	3.35
444.565	3.35
444.92	3.37
445.275	3.36
445.629	3.36
445.984	3.35
446.339	3.35
446.693	3.33
447.048	3.31
447.403	3.3
447.757	3.31
448.112	3.31
448.466	3.31
448.82	3.32
449.175	3.33
449.529	3.33
449.883	3.34
450.238	3.33
450.592	3.35
450.946	3.33
451.3	3.34
451.654	3.34
452.008	3.35
452.362	3.32
452.716	3.34
453.07	3.34
453.424	3.33
453.778	3.35
454.132	3.35
454.486	3.35
454.839	3.36
455.193	3.35
455.547	3.33
455.9	3.34
456.254	3.34
456.607	3.35
456.961	3.34
457.314	3.33
457.668	3.35
458.021	3.33
458.375	3.35
458.728	3.35
459.081	3.35
459.434	3.35
459.787	3.36
460.141	3.36
460.494	3.36
460.847	3.38
461.2	3.36
461.553	3.37
461.906	3.38
462.259	3.39
462.611	3.4
462.964	3.42
463.317	3.41
463.67	3.42
464.022	3.42
464.375	3.42
464.728	3.43
465.08	3.43
465.433	3.44
465.785	3.44
466.138	3.45
466.49	3.44
466.843	3.43
467.195	3.43
467.547	3.43
467.899	3.42
468.252	3.39
468.604	3.39
468.956	3.39
469.308	3.39
469.66	3.36
470.012	3.37
470.364	3.36
470.716	3.38
471.068	3.38
471.42	3.36
471.772	3.37
472.123	3.37
472.475	3.38
472.827	3.4
473.178	3.38
473.53	3.36
473.882	3.37
474.233	3.38
474.585	3.38
474.936	3.39
475.288	3.41
475.639	3.42
475.99	3.43
476.342	3.44
476.693	3.46
477.044	3.5
477.395	3.5
477.746	3.5
478.097	3.5
478.448	3.5
478.8	3.5
479.15	3.48
479.501	3.49
479.852	3.5
480.203	3.51
480.554	3.52
480.905	3.54
481.255	3.54
481.606	3.56
481.957	3.56
482.307	3.57
482.658	3.58
483.009	3.57
483.359	3.57
483.709	3.58
484.06	3.58
484.41	3.57
484.761	3.57
485.111	3.57
485.461	3.58
485.811	3.58
486.162	3.6
486.512	3.6
486.862	3.6
487.212	3.6
487.562	3.61
487.912	3.61
488.262	3.6
488.612	3.59
488.961	3.59
489.311	3.6
489.661	3.59
490.011	3.58
490.36	3.58
490.71	3.59
491.06	3.59
491.409	3.59
491.759	3.6
492.108	3.6
492.458	3.6
492.807	3.59
493.157	3.6
493.506	3.59
493.855	3.59
494.204	3.6
494.554	3.59
494.903	3.58
495.252	3.58
495.601	3.59
495.95	3.61
496.299	3.61
496.648	3.59
496.997	3.58
497.346	3.59
497.695	3.61
498.043	3.6
498.392	3.6
498.741	3.6
499.09	3.61
499.438	3.6
499.787	3.6
500.135	3.61
500.484	3.59
500.832	3.59
501.181	3.59
501.529	3.59
501.878	3.61
502.226	3.61
502.574	3.62
502.923	3.62
503.271	3.6
503.619	3.6
503.967	3.61
504.315	3.6
504.663	3.59
505.011	3.59
505.359	3.59
505.707	3.61
506.055	3.6
506.403	3.6
506.751	3.6
507.098	3.6
507.446	3.61
507.794	3.61
508.141	3.6
508.489	3.61
508.837	3.61
509.184	3.61
509.531	3.61
509.879	3.62
510.226	3.63
510.574	3.63
510.921	3.63
511.268	3.64
511.616	3.65
511.963	3.66
512.31	3.66
512.657	3.65
513.004	3.64
513.351	3.65
513.698	3.65
514.045	3.67
514.392	3.68
514.739	3.67
515.086	3.7
515.432	3.71
515.779	3.7
516.126	3.72
516.473	3.73
516.819	3.73
517.166	3.74
517.512	3.75
517.859	3.76
518.205	3.77
518.552	3.77
518.898	3.77
519.245	3.78
519.591	3.79
519.937	3.78
520.283	3.79
520.629	3.79
520.976	3.77
521.322	3.75
521.668	3.76
522.014	3.78
522.36	3.76
522.706	3.76
523.052	3.77
523.398	3.75
523.743	3.74
524.089	3.75
524.435	3.75
524.781	3.74
525.126	3.74
525.472	3.74
525.817	3.75
526.163	3.76
526.509	3.76
526.854	3.76
527.199	3.77
527.545	3.77
527.89	3.78
528.235	3.79
528.581	3.81
528.926	3.81
529.271	3.81
529.616	3.81
529.961	3.81
530.306	3.81
530.651	3.82
530.996	3.82
531.341	3.82
531.686	3.82
532.031	3.83
532.376	3.83
532.721	3.82
533.065	3.82
533.41	3.82
533.755	3.81
534.099	3.82
534.444	3.82
534.788	3.83
535.133	3.83
535.477	3.84
535.822	3.83
536.166	3.82
536.51	3.82
536.855	3.83
537.199	3.85
537.543	3.86
537.887	3.86
538.231	3.86
538.576	3.86
538.92	3.85
539.264	3.84
539.608	3.86
539.951	3.87
540.295	3.87
540.639	3.87
540.983	3.88
541.327	3.87
541.671	3.88
542.014	3.87
542.358	3.86
542.701	3.86
543.045	3.85
543.389	3.87
543.732	3.88
544.075	3.88
544.419	3.9
544.762	3.89
545.105	3.9
545.449	3.91
545.792	3.91
546.135	3.92
546.478	3.94
546.821	3.91
547.165	3.92
547.508	3.94
547.851	3.95
548.194	3.95
548.536	3.96
548.879	3.96
549.222	3.96
549.565	3.98
549.908	3.96
550.25	3.98
550.593	4.01
550.936	3.99
551.278	3.98
551.621	3.95
551.963	3.96
552.306	3.93
552.648	3.92
552.991	3.94
553.333	3.92
553.675	3.91
554.017	3.94
554.36	3.95
554.702	3.93
555.044	3.93
555.386	3.93
555.728	3.95
556.07	3.95
556.412	3.94
556.754	3.94
557.096	3.93
557.438	3.95
557.78	3.92
558.121	3.93
558.463	3.94
558.805	3.92
559.147	3.94
559.488	3.92
559.83	3.94
560.171	3.93
560.513	3.96
560.854	3.95
561.196	3.95
561.537	3.98
561.878	3.96
562.22	3.94
562.561	3.93
562.902	3.89
563.243	3.9
563.584	3.91
563.925	3.91
564.266	3.92
564.607	3.91
564.948	3.93
565.289	3.94
565.63	3.95
565.971	3.95
566.312	3.93
566.653	3.97
566.993	3.95
567.334	3.95
567.675	3.95
568.015	3.99
568.356	3.99
568.696	3.97
569.037	3.97
569.377	3.98
569.718	4.01
570.058	4.05
570.398	4.04
570.739	4.08
571.079	4.06
571.419	4.08
571.759	4.09
572.099	4.07
572.439	4.08
572.779	4.05
573.119	4.07
573.459	4.13
573.799	4.14
574.139	4.14
574.479	4.16
574.819	4.18
575.158	4.14
575.498	4.14
575.838	4.17
576.177	4.2
576.517	4.19
576.856	4.21
577.196	4.22
577.535	4.22
577.875	4.19
578.214	4.21
578.553	4.24
578.893	4.2
579.232	4.2
579.571	4.2
579.91	4.22
580.25	4.22
580.589	4.16
580.928	4.14
581.267	4.16
581.606	4.15
581.945	4.12
582.283	4.15
582.622	4.2
582.961	4.2
583.3	4.17
583.639	4.19
583.977	4.18
584.316	4.16
584.654	4.14
584.993	4.15
585.332	4.15
585.67	4.13
586.008	4.15
586.347	4.18
586.685	4.17
587.024	4.2
587.362	4.19
587.7	4.22
588.038	4.27
588.376	4.29
588.715	4.31
589.053	4.35
589.391	4.32
589.729	4.27
590.067	4.21
590.404	4.22
590.742	4.19
591.08	4.2
591.418	4.25
591.756	4.29
592.093	4.33
592.431	4.3
592.769	4.27
593.106	4.29
593.444	4.27
593.781	4.3
594.119	4.28
594.456	4.3
594.793	4.29
595.131	4.26
595.468	4.23
595.805	4.21
596.143	4.18
596.48	4.17
596.817	4.17
597.154	4.22
597.491	4.21
597.828	4.22
598.165	4.21
598.502	4.15
598.839	4.18
599.176	4.15
599.512	4.2
599.849	4.23
600.186	4.23
600.523	4.27
600.859	4.29
601.196	4.33
601.532	4.29
601.869	4.31
602.205	4.3
602.542	4.31
602.878	4.31
603.215	4.33
603.551	4.37
603.887	4.38
604.223	4.39
604.56	4.4
604.896	4.43
605.232	4.43
605.568	4.41
605.904	4.38
606.24	4.38
606.576	4.37
606.912	4.35
607.248	4.34
607.583	4.32
607.919	4.28
608.255	4.24
608.591	4.32
608.926	4.31
609.262	4.34
609.597	4.35
609.933	4.35
610.268	4.33
610.604	4.32
610.939	4.33
611.275	4.3
611.61	4.34
611.945	4.35
612.281	4.39
612.616	4.43
612.951	4.43
613.286	4.47
613.621	4.48
613.956	4.51
614.291	4.56
614.626	4.53
614.961	4.54
615.296	4.53
615.631	4.46
615.966	4.5
616.3	4.5
616.635	4.52
616.97	4.54
617.304	4.56
617.639	4.55
617.973	4.53
618.308	4.56
618.642	4.54
618.977	4.51
619.311	4.47
619.646	4.48
619.98	4.47
620.314	4.4
620.648	4.39
620.983	4.4
621.317	4.37
621.651	4.36
621.985	4.4
622.319	4.44
622.653	4.43
622.987	4.4
623.321	4.4
623.655	4.42
623.988	4.46
624.322	4.45
624.656	4.48
624.99	4.52
625.323	4.49
625.657	4.49
625.99	4.5
626.324	4.55
626.657	4.55
626.991	4.58
627.324	4.62
627.658	4.61
627.991	4.63
628.324	4.64
628.657	4.65
628.991	4.65
629.324	4.66
629.657	4.68
629.99	4.75
630.323	4.74
630.656	4.7
630.989	4.69
631.322	4.68
631.655	4.66
631.987	4.67
632.32	4.65
632.653	4.6
632.986	4.63
633.318	4.57
633.651	4.58
633.984	4.54
634.316	4.57
634.649	4.58
634.981	4.54
635.313	4.62
635.646	4.63
635.978	4.61
636.31	4.63
636.643	4.6
636.975	4.5
637.307	4.51
637.639	4.57
637.971	4.57
638.303	4.59
638.635	4.57
638.967	4.52
639.299	4.59
639.631	4.62
639.963	4.52
640.295	4.57
640.626	4.61
640.958	4.67
641.29	4.63
641.621	4.62
641.953	4.61
642.285	4.53
642.616	4.53
642.948	4.51
643.279	4.49
643.61	4.48
643.942	4.55
644.273	4.52
644.604	4.45
644.936	4.4
645.267	4.4
645.598	4.47
645.929	4.49
646.26	4.48
646.591	4.55
646.922	4.55
647.253	4.54
647.584	4.5
647.915	4.5
648.245	4.51
648.576	4.59
648.907	4.59
649.238	4.61
649.568	4.69
649.899	4.71
650.229	4.77
650.56	4.8
650.89	4.76
651.221	4.73
651.551	4.76
651.882	4.8
652.212	4.76
652.542	4.74
652.872	4.72
653.203	4.69
653.533	4.73
653.863	4.83
654.193	4.81
654.523	4.83
654.853	4.78
655.183	4.8
655.513	4.69
655.843	4.75
656.172	4.71
656.502	4.69
656.832	4.6
657.162	4.54
657.491	4.52
657.821	4.61
658.15	4.61
658.48	4.63
658.809	4.65
659.139	4.71
659.468	4.68
659.798	4.76
660.127	4.8
660.456	4.74
660.785	4.71
661.115	4.71
661.444	4.71
661.773	4.69
662.102	4.7
662.431	4.78
662.76	4.73
663.089	4.81
663.418	4.81
663.747	4.92
664.076	4.92
664.404	4.92
664.733	4.89
665.062	4.98
665.39	4.94
665.719	4.91
666.048	4.91
666.376	4.94
666.705	4.89
667.033	4.86
667.362	4.87
667.69	4.87
668.018	4.88
668.347	4.9
668.675	4.92
669.003	4.96
669.331	4.88
669.659	4.94
669.987	4.84
670.315	4.82
670.643	4.84
670.971	4.86
671.299	4.96
671.627	4.88
671.955	4.89
672.283	4.92
672.61	4.87
672.938	4.88
673.266	4.84
673.593	4.93
673.921	4.95
674.249	4.96
674.576	4.99
674.904	5
675.231	4.98
675.558	5.02
675.886	5
676.213	5.06
676.54	5.04
676.867	5.09
677.195	5.05
677.522	5.05
677.849	5.12
678.176	5.04
678.503	5.08
678.83	5.03
679.157	5.02
679.484	5.09
679.81	5.12
680.137	5.16
680.464	5.04
680.791	5.05
681.117	5.04
681.444	4.99
681.771	5.01
682.097	5.01
682.424	4.98
682.75	4.89
683.077	4.9
683.403	4.9
683.729	4.86
684.056	4.85
684.382	4.84
684.708	4.77
685.034	4.79
685.36	4.75
685.686	4.74
686.012	4.71
686.339	4.72
686.664	4.63
686.99	4.65
687.316	4.74
687.642	4.79
687.968	4.73
688.294	4.8
688.619	4.7
688.945	4.75
689.271	4.75
689.596	4.85
689.922	4.82
690.247	4.83
690.573	4.87
690.898	4.94
691.224	4.93
691.549	5.02
691.874	5.08
692.2	5.23
692.525	5.27
692.85	5.38
693.175	5.41
693.5	5.44
693.825	5.46
694.15	5.42
694.475	5.35
694.8	5.36
695.125	5.31
695.45	5.39
695.775	5.35
696.099	5.35
696.424	5.35
696.749	5.3
697.073	5.27
697.398	5.34
697.723	5.37
698.047	5.31
698.372	5.18
698.696	5.16
699.02	5.1
699.345	5.02
699.669	5.02
699.993	5.04
700.318	5.05
700.642	5.02
700.966	5.02
701.29	5.01
701.614	5.09
701.938	5.06
702.262	5.13
702.586	5.15
702.91	5.18
703.234	5.26
703.557	5.35
703.881	5.32
704.205	5.27
704.529	5.12
704.852	5.23
705.176	5.45
705.499	5.49
705.823	5.46
706.146	5.59
706.47	5.57
706.793	5.38
707.117	5.4
707.44	5.31
707.763	5.26
708.086	5.26
708.409	5.29
708.733	5.35
709.056	5.29
709.379	5.3
709.702	5.4
710.025	5.27
710.348	5.17
710.671	5.29
710.993	5.35
711.316	5.48
711.639	5.55
711.962	5.45
712.284	5.5
712.607	5.52
712.93	5.61
713.252	5.58
713.575	5.66
713.897	5.74
714.22	5.93
714.542	6.09
714.864	6.19
715.187	6.16
715.509	6.28
715.831	6.22
716.153	6.14
716.475	5.99
716.798	6.16
717.12	6.16
717.442	6.23
717.764	6.23
718.085	6.18
718.407	6.13
718.729	6.14
719.051	6.08
719.373	6.05
719.695	5.86
720.016	6.01
720.338	6.07
720.659	6.11
720.981	5.95
721.302	5.94
721.624	5.84
721.945	5.84
722.267	5.7
722.588	5.69
722.909	5.86
723.231	5.84
723.552	5.73
723.873	5.96
724.194	5.79
724.515	5.8
724.836	5.92
725.157	5.95
725.478	5.82
725.799	5.74
726.12	5.72
726.441	5.85
726.762	5.73
727.083	5.73
727.403	5.72
727.724	5.67
728.045	5.75
728.365	5.72
728.686	5.49
729.006	5.45
729.327	5.46
729.647	5.42
729.967	5.66
730.288	5.64
730.608	5.57
730.928	5.45
731.249	5.3
731.569	5.51
731.889	5.49
732.209	5.61
732.529	5.7
732.849	5.63
733.169	5.42
733.489	5.36
733.809	5.4
734.129	5.27
734.448	5.35
734.768	5.14
735.088	5.26
735.408	5.34
735.727	5.57
736.047	5.74
736.366	5.7
736.686	5.48
737.005	5.49
737.325	5.58
737.644	5.69
737.963	5.74
738.283	5.42
738.602	5.33
738.921	5.31
739.24	5.22
739.56	5.42
739.879	5.62
740.198	5.68
740.517	5.55
740.836	5.56
741.155	5.39
741.473	5.62
741.792	5.54
742.111	5.62
742.43	5.34
742.748	5.34
743.067	5.47
743.386	5.56
743.704	5.61
744.023	5.58
744.341	5.66
744.66	5.87
744.978	5.92
745.297	6.13
745.615	6.16
745.933	5.99
746.252	5.9
746.57	5.93
746.888	5.67
747.206	5.82
747.524	5.81
747.842	5.93
748.16	5.97
748.478	6.09
748.796	6.22
749.114	6.75
749.432	6.68
749.749	6.64
750.067	6.58
750.385	6.42
750.703	6.29
751.02	6.27
751.338	6.09
751.655	6.02
751.973	6.1
752.29	6.15
752.608	6.56
752.925	6.59
753.242	6.64
753.56	6.94
753.877	6.87
754.194	6.94
754.511	7.14
754.828	6.9
755.145	6.97
755.462	6.72
755.779	6.34
756.096	6.37
756.413	6.41
756.73	6.54
757.047	6.77
757.364	6.71
757.68	6.7
757.997	6.81
758.314	7.12
758.63	6.83
758.947	7.02
759.264	6.7
759.58	6.81
759.896	7
760.213	7.28
760.529	7.29
760.846	7.42
761.162	7.5
761.478	7.59
761.794	7.38
762.11	7.65
762.426	7.52
762.743	7.5
763.059	7.47
763.375	7.44
763.69	7.5
764.006	7.74
764.322	7.89
764.638	7.93
764.954	7.86
765.27	7.95
765.585	7.7
765.901	7.82
766.216	7.76
766.532	7.55
766.848	7.19
767.163	7.25
767.478	7.18
767.794	7.02
768.109	6.78
768.424	6.91
768.74	6.81
769.055	6.96
769.37	6.97
769.685	6.9
770	7
770.315	6.58
770.63	6.46
770.945	6.31
771.26	6.38
771.575	6.38
771.89	6.38
772.205	6.31
772.52	6.62
772.834	6.7
773.149	6.9
773.464	7.24
773.778	7.35
774.093	7.23
774.407	7.2
774.722	7.27
775.036	7.35
775.351	7.23
775.665	7.29
775.979	6.95
776.293	7.01
776.608	6.72
776.922	6.78
777.236	6.64
777.55	6.31
777.864	6.21
778.178	6.25
778.492	6.55
778.806	6.47
779.12	6.12
779.434	6.28
779.747	6.16
780.061	6.14
780.375	6.09
780.689	6.29
781.002	6.41
781.316	6.58
781.629	6.6
781.943	6.78
782.256	6.43
782.57	7.01
782.883	6.83
783.196	7.14
783.51	7.35
783.823	7.46
784.136	7.65
784.449	7.6
784.762	7.21
785.075	6.8
785.388	7.2
785.701	7.4
786.014	7.16
786.327	7.28
786.64	7.34
786.953	7.15
787.266	6.91
787.578	6.75
787.891	6.71
788.204	6.26
788.516	6.47
788.829	6.55
789.141	6.63
789.454	6.83
789.766	7
790.079	6.95
790.391	6.63
790.703	6.71
791.016	6.78
791.328	6.66
791.64	6.97
791.952	6.93
792.264	6.56
792.576	6.65
792.888	6.52
793.2	6.4
793.512	6.32
793.824	6.62
794.136	6.83
794.448	6.72
794.76	7.05
795.071	6.92
795.383	6.7
795.695	6.41
796.006	6.42
796.318	6.47
796.629	6.68
796.941	6.93
797.252	7.44
797.564	7.47
797.875	7.83
798.186	7.44
798.497	7.49
798.809	8.01
799.12	8.21
799.431	8.5
799.742	8.25
800.053	8.42
800.364	8.54
800.675	8.15
800.986	8.31
801.297	8.26
801.608	7.93
801.918	8.27
802.229	8.62
802.54	8.67
802.851	8.07
803.161	8.3
803.472	8.03
803.782	7.83
804.093	7.8
804.403	8.03
804.714	8.06
805.024	7.75
805.334	7.25
805.645	7.38
805.955	7.06
806.265	7.6
806.575	7.82
806.885	7.77
807.195	8.49
807.505	8.63
807.815	8.13
808.125	8.29
808.435	7.9
808.745	7.23
809.055	7.33
809.365	7.28
809.674	6.95
809.984	7.02
810.294	6.24
810.603	6.24
810.913	6.3
811.222	6.36
811.532	7.11
811.841	7.78
812.151	7.85
812.46	7.25
812.769	7.15
813.079	6.95
813.388	6.91
813.697	6.38
814.006	6.51
814.315	7.02
814.624	7.11
814.933	8.05
815.242	8.53
815.551	7.72
815.86	8.36
816.169	8.18
816.478	8.03
816.786	8.67
817.095	8.44
817.404	8.73
817.712	8.78
818.021	8.33
818.33	8.22
818.638	8.01
818.947	8.91
819.255	9.01
819.563	8.96
819.872	8.76
820.18	8.88
820.488	8.79
820.796	8.93
821.105	8.88
821.413	8.9
821.721	8.74
822.029	8.94
822.337	8.97
822.645	9.12
822.953	9.17
823.26	9.3
823.568	9.31
823.876	9.16
824.184	9.13
824.491	9.22
824.799	9.2
825.107	9.22
825.414	9.22
825.722	9.11
826.029	9.08
826.337	9.16
826.644	9.08
826.951	9.1
827.259	9
827.566	8.91
827.873	8.77
828.18	8.85
828.488	8.81
828.795	8.71
829.102	8.73
829.409	8.9
829.716	8.51
830.023	8.6
830.329	8.75
830.636	8.86
830.943	8.58
831.25	8.47
831.557	8.4
831.863	8.15
832.17	8.16
832.476	8.61
832.783	8.33
833.089	8.33
833.396	8.28
833.702	8.95
834.009	9.32
834.315	9.23
834.621	9.17
834.928	9.5
835.234	9.27
835.54	9.03
835.846	8.98
836.152	9.25
836.458	9.18
836.764	8.8
837.07	8.77
837.376	8.91
837.682	9.44
837.988	9.43
838.293	9.14
838.599	9.13
838.905	8.68
839.211	8.24
839.516	8.38
839.822	8.18
840.127	7.47
840.433	6.76
840.738	7.04
841.044	7.68
841.349	6.68
841.654	6.44
841.959	6.28
842.265	5.83
842.57	6.02
842.875	5.93
843.18	5.6
843.485	6
843.79	5.69
844.095	5.55
844.4	6.39
844.705	5.79
845.01	6.55
845.315	6.29
845.619	6.99
845.924	8.36
846.229	8.48
846.533	8.34
846.838	9.16
847.142	8.76
847.447	6.27
847.751	6.69
848.056	7.03
848.36	7.42
848.664	9.33
848.969	7.8
849.273	7.29
849.577	8.33
849.881	6.87
850.185	8.83
850.489	5.38
850.794	2.64
851.097	3.57
851.401	3.76
851.705	2.45
852.009	4.02
852.313	2.39
852.617	3.85
852.92	4.94
853.224	4.91
853.528	5.26
853.831	6.52
854.135	6.38
854.438	6.78
854.742	5.63
855.045	3.31
855.349	3.88
855.652	2.54
855.955	3.09
856.259	3.81
856.562	1.26
856.865	2.27
857.168	4.36
857.471	4.13
857.774	2.87
858.077	4.25
858.38	5.5
858.683	4.58
858.986	4.46
859.289	4.98
859.592	4.66
859.894	5.08
860.197	6.46
860.5	7.48
860.802	5.64
861.105	6.47
861.407	4.91
861.71	4.9
862.012	6.9
862.315	6.21
862.617	4.65
862.919	5.14
863.222	4.99
863.524	4.6
863.826	7.06
864.128	6.91
864.43	6.51
864.732	6.34
865.034	7.59
865.336	6.04
865.638	3.07
865.94	2.28
866.242	1.7
866.544	-0.41
866.846	0.05
867.147	4.31
867.449	4.26
867.751	6.62
868.052	7.63
868.354	6.41
868.655	7.21
868.957	7.4
869.258	7.06
869.56	5.79
869.861	4.16
870.162	2.81
870.463	2.8
870.765	2.27
871.066	0.76
871.367	-0.65
871.668	0.79
871.969	2.16
872.27	3.61
872.571	5.18
872.872	5.81
873.173	3.61
873.473	1.36
873.774	3.34
874.075	3.61
874.376	3.47
874.676	4.93
874.977	3.2
875.277	5.78
875.578	5.8
875.878	7.83
876.179	8.78
876.479	8.94
876.78	9.35
877.08	10.99
877.38	10.51
877.68	11.41
877.981	10.75
878.281	10.62
878.581	10.95
