Data from BA28304_Reflection_00008.txt Node
Date: Mon Nov 18 15:36:11 EST 2019
User: vgr7
Spectrometer: USB2G7710
Scans to average: 3
Trigger mode: 4
Integration Time (sec): 2.000000E-2
Electric dark correction enabled: true
Boxcar width: 10
XAxis mode: Wavelengths
Number of Pixels in Spectrum: 2048
>>>>>Begin Spectral Data<<<<<
177.721	73.5
178.105	65.6
178.488	-22.63
178.871	-513.86
179.254	-161
179.636	32.12
180.019	-54.01
180.402	167.74
180.785	-448.87
181.168	-3900
181.55	4394.12
181.933	45.25
182.316	12.55
182.698	-46.53
183.081	-102.09
183.463	-3411.63
183.846	492.49
184.228	325.06
184.611	-2754.55
184.993	-3178.48
185.376	1959.81
185.758	342.07
186.14	160.94
186.522	175.4
186.904	430.05
187.287	295.22
187.669	213.48
188.051	134.11
188.433	211.79
188.815	173.55
189.197	95.79
189.579	65.15
189.961	39.93
190.342	-3.75
190.724	14.3
191.106	14.56
191.488	8.87
191.869	8.42
192.251	-15.34
192.633	-17.83
193.014	-37.01
193.396	-64.04
193.777	-44.67
194.159	-39.18
194.54	-26.98
194.922	-9.14
195.303	-5.5
195.684	-14.37
196.065	7.09
196.447	-2.83
196.828	-14.37
197.209	-3.73
197.59	-26.81
197.971	-1.78
198.352	13
198.733	-7.13
199.114	12.21
199.495	8.78
199.876	17.39
200.257	147.99
200.638	196.62
201.018	194.57
201.399	161.71
201.78	147.92
202.16	162.17
202.541	203.49
202.922	468.04
203.302	921.01
203.683	376.77
204.063	-234900
204.444	538.97
204.824	230.79
205.204	112.41
205.585	140.19
205.965	147.35
206.345	242.02
206.725	171.66
207.106	149.12
207.486	-227.35
207.866	175.14
208.246	7.52
208.626	-96.6
209.006	-60.47
209.386	-200.72
209.766	-246.53
210.145	-148.09
210.525	-55.73
210.905	-26.24
211.285	-18.03
211.664	-16.1
212.044	-12.86
212.424	-22.94
212.803	-18.95
213.183	-19.68
213.562	-35.27
213.942	-20.25
214.321	5.61
214.701	16.29
215.08	19.44
215.459	44.57
215.838	41.96
216.218	10.38
216.597	44.76
216.976	16.85
217.355	7.21
217.734	8.81
218.113	-28.67
218.492	-57.19
218.871	-56.85
219.25	-41.64
219.629	-68.05
220.008	-40.22
220.387	-24.67
220.766	-11.03
221.144	-52.07
221.523	-31.08
221.902	-30.95
222.28	-32.16
222.659	-31.17
223.037	-27.35
223.416	-33.32
223.794	-31.57
224.173	-31.93
224.551	-30.08
224.929	-24.55
225.308	-13.01
225.686	-12.04
226.064	0.73
226.442	3.7
226.821	1.15
227.199	0.14
227.577	-0.48
227.955	-0.24
228.333	-1.08
228.711	0.42
229.089	9.97
229.467	10.68
229.845	8.89
230.222	7.99
230.6	6.33
230.978	7.74
231.356	10.39
231.733	10.69
232.111	11.75
232.488	14.24
232.866	14.03
233.243	15.86
233.621	17.05
233.998	16.25
234.376	14.9
234.753	13.99
235.13	13.81
235.508	14.47
235.885	13.99
236.262	12.09
236.639	9.49
237.016	6.5
237.393	5.61
237.77	5.28
238.147	6.94
238.524	8.11
238.901	7.98
239.278	7.19
239.655	8.14
240.032	8.71
240.409	7.63
240.785	7.22
241.162	7.16
241.539	6.75
241.915	6.66
242.292	6.3
242.668	6.68
243.045	6.5
243.421	6.46
243.798	6.4
244.174	6.57
244.551	7.05
244.927	7.06
245.303	7.37
245.679	7.71
246.056	7.32
246.432	6.91
246.808	6.87
247.184	6.6
247.56	6.18
247.936	5.81
248.312	5.73
248.688	5.55
249.064	5.34
249.44	5.37
249.815	5.31
250.191	5.76
250.567	5.75
250.943	5.9
251.318	5.86
251.694	5.97
252.069	5.87
252.445	5.66
252.82	5.68
253.196	5.33
253.571	5.1
253.947	5.26
254.322	5.42
254.697	5.32
255.073	5.29
255.448	5.26
255.823	5.23
256.198	5.56
256.573	5.86
256.948	5.86
257.323	6.03
257.698	6.1
258.073	5.9
258.448	5.62
258.823	5.53
259.198	5.51
259.573	5.44
259.948	5.57
260.322	5.64
260.697	5.59
261.072	5.68
261.446	5.64
261.821	5.63
262.195	5.72
262.57	5.68
262.944	5.75
263.319	5.77
263.693	5.89
264.067	5.74
264.442	5.67
264.816	5.74
265.19	5.61
265.564	5.52
265.938	5.37
266.313	5.4
266.687	5.47
267.061	5.45
267.435	5.36
267.809	5.18
268.183	5.11
268.556	5.11
268.93	4.99
269.304	4.94
269.678	4.93
270.051	5.01
270.425	5.06
270.799	5.09
271.172	5.14
271.546	5.14
271.919	5.09
272.293	5.06
272.666	4.99
273.04	5.03
273.413	5.01
273.787	5.03
274.16	5.08
274.533	4.93
274.906	4.93
275.279	4.83
275.653	4.94
276.026	4.84
276.399	4.91
276.772	5.05
277.145	5.07
277.518	5.05
277.891	4.85
278.263	4.78
278.636	4.84
279.009	4.91
279.382	4.97
279.755	5.02
280.127	5.08
280.5	5.08
280.872	5.25
281.245	5.24
281.617	5.33
281.99	5.46
282.362	5.51
282.735	5.33
283.107	5.44
283.479	5.31
283.852	5.46
284.224	5.34
284.596	5.3
284.968	5.38
285.34	5.36
285.713	5.48
286.085	5.54
286.457	5.66
286.829	5.64
287.201	5.68
287.572	5.57
287.944	5.49
288.316	5.46
288.688	5.26
289.06	5.33
289.431	5.42
289.803	5.45
290.175	5.52
290.546	5.79
290.918	5.75
291.289	5.88
291.661	5.83
292.032	6.14
292.403	6.2
292.775	6.29
293.146	6.3
293.517	6.33
293.889	6.36
294.26	6.34
294.631	6.31
295.002	6.29
295.373	6.48
295.744	6.65
296.115	6.85
296.486	6.96
296.857	6.99
297.228	7
297.599	6.91
297.97	6.92
298.34	6.86
298.711	7.02
299.082	7
299.452	7.14
299.823	7.14
300.194	7.15
300.564	7.16
300.935	7.21
301.305	7.22
301.676	7.33
302.046	7.52
302.416	7.75
302.787	7.76
303.157	7.81
303.527	7.7
303.897	7.75
304.267	7.8
304.637	7.89
305.008	7.93
305.378	8.1
305.748	8.39
306.117	8.51
306.487	8.5
306.857	8.67
307.227	8.61
307.597	8.62
307.967	8.8
308.336	8.78
308.706	8.92
309.076	9.24
309.445	9.38
309.815	9.31
310.184	9.19
310.554	9.33
310.923	9.17
311.293	9.4
311.662	9.47
312.031	9.62
312.401	9.73
312.77	9.75
313.139	9.9
313.508	9.87
313.877	9.89
314.246	10.05
314.616	10.13
314.985	10.34
315.353	10.34
315.722	10.45
316.091	10.58
316.46	10.51
316.829	10.44
317.198	10.38
317.567	10.39
317.935	10.54
318.304	10.57
318.672	10.86
319.041	10.94
319.41	10.98
319.778	11.05
320.147	10.97
320.515	11.14
320.883	11.09
321.252	11.23
321.62	11.36
321.988	11.39
322.357	11.33
322.725	11.38
323.093	11.57
323.461	11.61
323.829	11.74
324.197	11.86
324.565	11.96
324.933	11.95
325.301	12
325.669	12.15
326.037	12.24
326.405	12.49
326.772	12.53
327.14	12.65
327.508	12.7
327.875	12.69
328.243	12.81
328.61	12.95
328.978	12.93
329.346	13.09
329.713	13.17
330.08	13.38
330.448	13.17
330.815	13.16
331.182	13.2
331.55	13.23
331.917	13.51
332.284	13.46
332.651	13.81
333.018	13.95
333.385	13.99
333.752	14.06
334.119	14.08
334.486	14.12
334.853	14.13
335.22	14.12
335.587	14.22
335.954	14.23
336.32	14.24
336.687	14.4
337.054	14.29
337.42	14.38
337.787	14.43
338.153	14.71
338.52	14.82
338.886	14.78
339.253	14.88
339.619	14.88
339.986	14.98
340.352	15.04
340.718	15.06
341.084	15.05
341.451	15.13
341.817	15.2
342.183	15.26
342.549	15.31
342.915	15.46
343.281	15.46
343.647	15.54
344.013	15.69
344.379	15.66
344.745	15.72
345.11	15.73
345.476	15.75
345.842	15.77
346.208	15.76
346.573	15.79
346.939	15.85
347.304	15.83
347.67	15.82
348.035	15.66
348.401	15.62
348.766	15.81
349.132	15.82
349.497	15.7
349.862	15.79
350.228	15.75
350.593	15.65
350.958	15.88
351.323	15.85
351.688	15.76
352.053	15.8
352.418	15.93
352.783	15.97
353.148	15.96
353.513	16.04
353.878	16.01
354.243	16.1
354.608	16.03
354.972	16.09
355.337	16.15
355.702	16.18
356.066	16.24
356.431	16.16
356.795	16.04
357.16	16.06
357.524	15.95
357.889	15.94
358.253	15.99
358.618	15.89
358.982	15.78
359.346	15.79
359.71	15.73
360.075	15.66
360.439	15.63
360.803	15.59
361.167	15.49
361.531	15.5
361.895	15.47
362.259	15.42
362.623	15.4
362.987	15.32
363.351	15.28
363.714	15.22
364.078	15.17
364.442	15.15
364.806	15.13
365.169	15.13
365.533	15.09
365.896	15.06
366.26	15.02
366.623	15.07
366.987	14.97
367.35	14.91
367.714	14.86
368.077	14.74
368.44	14.74
368.803	14.67
369.167	14.59
369.53	14.52
369.893	14.54
370.256	14.48
370.619	14.45
370.982	14.41
371.345	14.43
371.708	14.38
372.071	14.35
372.434	14.23
372.797	14.14
373.159	14.05
373.522	13.95
373.885	13.9
374.247	13.83
374.61	13.73
374.973	13.64
375.335	13.54
375.698	13.48
376.06	13.42
376.423	13.34
376.785	13.31
377.147	13.25
377.51	13.14
377.872	13.04
378.234	12.91
378.596	12.83
378.958	12.7
379.321	12.6
379.683	12.52
380.045	12.48
380.407	12.43
380.769	12.37
381.13	12.26
381.492	12.07
381.854	12
382.216	11.97
382.578	11.95
382.939	11.87
383.301	11.86
383.663	11.82
384.024	11.79
384.386	11.75
384.747	11.69
385.109	11.64
385.47	11.55
385.832	11.52
386.193	11.46
386.554	11.44
386.916	11.41
387.277	11.37
387.638	11.33
387.999	11.26
388.36	11.24
388.721	11.19
389.082	11.2
389.443	11.05
389.804	10.99
390.165	10.92
390.526	10.9
390.887	10.79
391.248	10.68
391.609	10.6
391.969	10.53
392.33	10.48
392.691	10.44
393.051	10.39
393.412	10.35
393.772	10.32
394.133	10.27
394.493	10.18
394.854	10.11
395.214	10.02
395.574	9.95
395.935	9.87
396.295	9.78
396.655	9.72
397.015	9.68
397.376	9.61
397.736	9.51
398.096	9.43
398.456	9.39
398.816	9.34
399.176	9.27
399.535	9.14
399.895	9.07
400.255	8.96
400.615	8.87
400.975	8.74
401.334	8.66
401.694	8.54
402.054	8.47
402.413	8.42
402.773	8.37
403.132	8.32
403.492	8.28
403.851	8.23
404.211	8.19
404.57	8.17
404.929	8.13
405.288	8.13
405.648	8.08
406.007	8.03
406.366	7.99
406.725	7.99
407.084	8
407.443	7.96
407.802	7.96
408.161	7.92
408.52	7.91
408.879	7.87
409.238	7.84
409.596	7.81
409.955	7.79
410.314	7.78
410.673	7.74
411.031	7.71
411.39	7.7
411.748	7.68
412.107	7.64
412.465	7.59
412.824	7.51
413.182	7.47
413.54	7.47
413.899	7.43
414.257	7.36
414.615	7.32
414.974	7.28
415.332	7.23
415.69	7.19
416.048	7.14
416.406	7.1
416.764	7.07
417.122	7.04
417.48	6.97
417.838	6.94
418.195	6.91
418.553	6.84
418.911	6.78
419.269	6.72
419.626	6.69
419.984	6.65
420.342	6.62
420.699	6.58
421.057	6.53
421.414	6.49
421.772	6.46
422.129	6.43
422.486	6.39
422.844	6.36
423.201	6.32
423.558	6.3
423.915	6.27
424.273	6.25
424.63	6.21
424.987	6.2
425.344	6.17
425.701	6.14
426.058	6.13
426.415	6.13
426.772	6.1
427.128	6.07
427.485	6.05
427.842	6.01
428.199	6
428.555	5.99
428.912	5.98
429.269	5.97
429.625	5.95
429.982	5.93
430.338	5.93
430.695	5.94
431.051	5.92
431.407	5.9
431.764	5.9
432.12	5.87
432.476	5.85
432.832	5.85
433.189	5.84
433.545	5.82
433.901	5.8
434.257	5.81
434.613	5.84
434.969	5.86
435.325	5.88
435.681	5.89
436.036	5.88
436.392	5.87
436.748	5.87
437.104	5.86
437.459	5.85
437.815	5.85
438.171	5.86
438.526	5.87
438.882	5.87
439.237	5.85
439.593	5.88
439.948	5.88
440.304	5.87
440.659	5.87
441.014	5.87
441.369	5.86
441.725	5.83
442.08	5.81
442.435	5.78
442.79	5.77
443.145	5.75
443.5	5.73
443.855	5.72
444.21	5.69
444.565	5.69
444.92	5.69
445.275	5.64
445.629	5.6
445.984	5.57
446.339	5.55
446.693	5.53
447.048	5.49
447.403	5.47
447.757	5.46
448.112	5.42
448.466	5.39
448.82	5.39
449.175	5.39
449.529	5.37
449.883	5.34
450.238	5.32
450.592	5.3
450.946	5.29
451.3	5.25
451.654	5.24
452.008	5.21
452.362	5.19
452.716	5.2
453.07	5.19
453.424	5.18
453.778	5.18
454.132	5.18
454.486	5.19
454.839	5.18
455.193	5.15
455.547	5.16
455.9	5.18
456.254	5.17
456.607	5.18
456.961	5.18
457.314	5.19
457.668	5.22
458.021	5.22
458.375	5.22
458.728	5.25
459.081	5.25
459.434	5.26
459.787	5.26
460.141	5.26
460.494	5.28
460.847	5.31
461.2	5.31
461.553	5.31
461.906	5.31
462.259	5.35
462.611	5.38
462.964	5.41
463.317	5.44
463.67	5.48
464.022	5.5
464.375	5.52
464.728	5.55
465.08	5.55
465.433	5.6
465.785	5.62
466.138	5.62
466.49	5.65
466.843	5.67
467.195	5.71
467.547	5.74
467.899	5.77
468.252	5.77
468.604	5.79
468.956	5.82
469.308	5.87
469.66	5.89
470.012	5.89
470.364	5.91
470.716	5.92
471.068	5.91
471.42	5.91
471.772	5.91
472.123	5.91
472.475	5.9
472.827	5.93
473.178	5.93
473.53	5.95
473.882	5.99
474.233	5.99
474.585	5.97
474.936	5.98
475.288	5.98
475.639	5.99
475.99	5.97
476.342	5.95
476.693	5.92
477.044	5.91
477.395	5.9
477.746	5.88
478.097	5.86
478.448	5.85
478.8	5.86
479.15	5.85
479.501	5.85
479.852	5.86
480.203	5.85
480.554	5.84
480.905	5.83
481.255	5.82
481.606	5.81
481.957	5.82
482.307	5.81
482.658	5.81
483.009	5.81
483.359	5.81
483.709	5.82
484.06	5.82
484.41	5.82
484.761	5.83
485.111	5.82
485.461	5.84
485.811	5.85
486.162	5.85
486.512	5.86
486.862	5.87
487.212	5.87
487.562	5.87
487.912	5.9
488.262	5.9
488.612	5.91
488.961	5.92
489.311	5.93
489.661	5.95
490.011	5.96
490.36	6
490.71	6.02
491.06	6.04
491.409	6.07
491.759	6.09
492.108	6.13
492.458	6.17
492.807	6.2
493.157	6.25
493.506	6.29
493.855	6.33
494.204	6.38
494.554	6.44
494.903	6.49
495.252	6.54
495.601	6.62
495.95	6.69
496.299	6.75
496.648	6.83
496.997	6.89
497.346	6.97
497.695	7.02
498.043	7.1
498.392	7.15
498.741	7.25
499.09	7.33
499.438	7.36
499.787	7.44
500.135	7.52
500.484	7.59
500.832	7.68
501.181	7.78
501.529	7.87
501.878	7.98
502.226	8.07
502.574	8.18
502.923	8.26
503.271	8.35
503.619	8.45
503.967	8.56
504.315	8.66
504.663	8.78
505.011	8.89
505.359	9
505.707	9.14
506.055	9.25
506.403	9.38
506.751	9.53
507.098	9.64
507.446	9.78
507.794	9.86
508.141	9.97
508.489	10.08
508.837	10.2
509.184	10.32
509.531	10.44
509.879	10.55
510.226	10.68
510.574	10.83
510.921	10.97
511.268	11.09
511.616	11.23
511.963	11.37
512.31	11.51
512.657	11.65
513.004	11.78
513.351	11.92
513.698	12.06
514.045	12.2
514.392	12.36
514.739	12.49
515.086	12.66
515.432	12.78
515.779	12.91
516.126	13.06
516.473	13.18
516.819	13.31
517.166	13.45
517.512	13.56
517.859	13.7
518.205	13.8
518.552	13.91
518.898	14.03
519.245	14.14
519.591	14.25
519.937	14.36
520.283	14.49
520.629	14.62
520.976	14.76
521.322	14.92
521.668	15.06
522.014	15.22
522.36	15.41
522.706	15.61
523.052	15.82
523.398	16.03
523.743	16.27
524.089	16.5
524.435	16.7
524.781	16.93
525.126	17.13
525.472	17.29
525.817	17.46
526.163	17.6
526.509	17.73
526.854	17.88
527.199	18.02
527.545	18.14
527.89	18.29
528.235	18.44
528.581	18.59
528.926	18.73
529.271	18.88
529.616	19.01
529.961	19.17
530.306	19.34
530.651	19.51
530.996	19.67
531.341	19.86
531.686	20.05
532.031	20.25
532.376	20.43
532.721	20.66
533.065	20.87
533.41	21.13
533.755	21.37
534.099	21.59
534.444	21.86
534.788	22.11
535.133	22.33
535.477	22.59
535.822	22.85
536.166	23.13
536.51	23.45
536.855	23.76
537.199	24.1
537.543	24.39
537.887	24.72
538.231	25.06
538.576	25.38
538.92	25.73
539.264	26.02
539.608	26.34
539.951	26.62
540.295	26.88
540.639	27.12
540.983	27.39
541.327	27.67
541.671	27.87
542.014	28.11
542.358	28.36
542.701	28.57
543.045	28.8
543.389	29.05
543.732	29.27
544.075	29.53
544.419	29.76
544.762	30.04
545.105	30.31
545.449	30.58
545.792	30.89
546.135	31.17
546.478	31.49
546.821	31.83
547.165	32.17
547.508	32.54
547.851	32.89
548.194	33.21
548.536	33.53
548.879	33.93
549.222	34.3
549.565	34.7
549.908	35.04
550.25	35.41
550.593	35.79
550.936	36.14
551.278	36.51
551.621	36.87
551.963	37.24
552.306	37.59
552.648	37.93
552.991	38.25
553.333	38.57
553.675	38.86
554.017	39.13
554.36	39.42
554.702	39.74
555.044	40.07
555.386	40.4
555.728	40.72
556.07	41.04
556.412	41.35
556.754	41.63
557.096	41.92
557.438	42.2
557.78	42.51
558.121	42.83
558.463	43.07
558.805	43.37
559.147	43.58
559.488	43.85
559.83	44.09
560.171	44.34
560.513	44.6
560.854	44.87
561.196	45.14
561.537	45.38
561.878	45.61
562.22	45.76
562.561	45.97
562.902	46.23
563.243	46.42
563.584	46.62
563.925	46.86
564.266	47.12
564.607	47.29
564.948	47.46
565.289	47.63
565.63	47.91
565.971	48.06
566.312	48.33
566.653	48.55
566.993	48.81
567.334	48.98
567.675	49.15
568.015	49.34
568.356	49.54
568.696	49.8
569.037	49.98
569.377	50.26
569.718	50.44
570.058	50.59
570.398	50.77
570.739	50.95
571.079	51.09
571.419	51.23
571.759	51.43
572.099	51.59
572.439	51.82
572.779	51.91
573.119	52.1
573.459	52.23
573.799	52.35
574.139	52.39
574.479	52.55
574.819	52.66
575.158	52.77
575.498	52.83
575.838	52.93
576.177	53
576.517	53.09
576.856	53.22
577.196	53.34
577.535	53.51
577.875	53.64
578.214	53.76
578.553	53.93
578.893	54.08
579.232	54.23
579.571	54.33
579.91	54.47
580.25	54.59
580.589	54.73
580.928	54.84
581.267	55.1
581.606	55.17
581.945	55.31
582.283	55.45
582.622	55.6
582.961	55.66
583.3	55.79
583.639	55.82
583.977	55.88
584.316	55.98
584.654	56.06
584.993	56.08
585.332	56.16
585.67	56.16
586.008	56.22
586.347	56.26
586.685	56.28
587.024	56.32
587.362	56.43
587.7	56.46
588.038	56.55
588.376	56.53
588.715	56.61
589.053	56.67
589.391	56.7
589.729	56.85
590.067	56.97
590.404	57.08
590.742	57.23
591.08	57.3
591.418	57.43
591.756	57.56
592.093	57.68
592.431	57.76
592.769	57.81
593.106	57.8
593.444	57.88
593.781	57.91
594.119	58.07
594.456	58.05
594.793	58.07
595.131	58.17
595.468	58.22
595.805	58.29
596.143	58.39
596.48	58.42
596.817	58.4
597.154	58.4
597.491	58.46
597.828	58.49
598.165	58.62
598.502	58.62
598.839	58.57
599.176	58.55
599.512	58.59
599.849	58.71
600.186	58.89
600.523	58.97
600.859	59.05
601.196	58.98
601.532	59.01
601.869	59.02
602.205	59
602.542	59.08
602.878	59.07
603.215	59.09
603.551	59.26
603.887	59.31
604.223	59.4
604.56	59.43
604.896	59.46
605.232	59.44
605.568	59.44
605.904	59.44
606.24	59.56
606.576	59.63
606.912	59.61
607.248	59.65
607.583	59.62
607.919	59.66
608.255	59.74
608.591	59.83
608.926	59.9
609.262	59.92
609.597	59.96
609.933	60.03
610.268	59.95
610.604	59.93
610.939	59.92
611.275	59.92
611.61	60.01
611.945	60.06
612.281	60.13
612.616	60.21
612.951	60.33
613.286	60.34
613.621	60.34
613.956	60.38
614.291	60.33
614.626	60.38
614.961	60.49
615.296	60.49
615.631	60.46
615.966	60.55
616.3	60.63
616.635	60.6
616.97	60.63
617.304	60.77
617.639	60.76
617.973	60.71
618.308	60.79
618.642	60.74
618.977	60.63
619.311	60.67
619.646	60.69
619.98	60.7
620.314	60.72
620.648	60.7
620.983	60.76
621.317	60.85
621.651	60.88
621.985	60.85
622.319	60.87
622.653	60.99
622.987	61.02
623.321	61.1
623.655	61.15
623.988	61.21
624.322	61.28
624.656	61.3
624.99	61.44
625.323	61.45
625.657	61.51
625.99	61.57
626.324	61.5
626.657	61.51
626.991	61.54
627.324	61.62
627.658	61.71
627.991	61.7
628.324	61.66
628.657	61.71
628.991	61.7
629.324	61.73
629.657	61.76
629.99	61.77
630.323	61.72
630.656	61.8
630.989	61.88
631.322	61.92
631.655	61.86
631.987	61.86
632.32	61.82
632.653	61.92
632.986	62.06
633.318	62.17
633.651	62.24
633.984	62.27
634.316	62.25
634.649	62.21
634.981	62.21
635.313	62.29
635.646	62.37
635.978	62.47
636.31	62.5
636.643	62.51
636.975	62.55
637.307	62.52
637.639	62.44
637.971	62.44
638.303	62.44
638.635	62.6
638.967	62.72
639.299	62.76
639.631	62.64
639.963	62.55
640.295	62.63
640.626	62.6
640.958	62.58
641.29	62.6
641.621	62.53
641.953	62.62
642.285	62.56
642.616	62.5
642.948	62.4
643.279	62.44
643.61	62.42
643.942	62.46
644.273	62.59
644.604	62.65
644.936	62.51
645.267	62.5
645.598	62.56
645.929	62.49
646.26	62.49
646.591	62.51
646.922	62.63
647.253	62.62
647.584	62.68
647.915	62.69
648.245	62.78
648.576	62.95
648.907	63.01
649.238	63.21
649.568	63.25
649.899	63.36
650.229	63.35
650.56	63.43
650.89	63.49
651.221	63.53
651.551	63.58
651.882	63.67
652.212	63.71
652.542	63.62
652.872	63.67
653.203	63.78
653.533	63.67
653.863	63.64
654.193	63.55
654.523	63.57
654.853	63.69
655.183	63.77
655.513	63.76
655.843	63.74
656.172	63.71
656.502	63.82
656.832	63.8
657.162	63.89
657.491	63.93
657.821	63.86
658.15	63.83
658.48	63.88
658.809	63.84
659.139	63.78
659.468	63.77
659.798	63.74
660.127	63.74
660.456	63.88
660.785	63.89
661.115	63.89
661.444	63.88
661.773	63.8
662.102	63.76
662.431	63.79
662.76	63.82
663.089	63.81
663.418	63.76
663.747	63.65
664.076	63.59
664.404	63.47
664.733	63.57
665.062	63.52
665.39	63.43
665.719	63.57
666.048	63.65
666.376	63.7
666.705	63.75
667.033	63.69
667.362	63.73
667.69	63.59
668.018	63.64
668.347	63.59
668.675	63.55
669.003	63.58
669.331	63.56
669.659	63.5
669.987	63.44
670.315	63.49
670.643	63.61
670.971	63.64
671.299	63.66
671.627	63.63
671.955	63.77
672.283	63.81
672.61	63.81
672.938	63.82
673.266	63.95
673.593	63.89
673.921	64.03
674.249	64.08
674.576	64.11
674.904	64.15
675.231	64.19
675.558	64.28
675.886	64.13
676.213	64.15
676.54	64.16
676.867	64.28
677.195	64.27
677.522	64.32
677.849	64.3
678.176	64.26
678.503	64.24
678.83	64.25
679.157	64.29
679.484	64.29
679.81	64.28
680.137	64.19
680.464	64.13
680.791	63.94
681.117	63.91
681.444	64.06
681.771	64.12
682.097	64.05
682.424	64
682.75	64.1
683.077	64.12
683.403	64.2
683.729	64.02
684.056	64.11
684.382	64.12
684.708	64.11
685.034	64.12
685.36	64.15
685.686	63.98
686.012	63.87
686.339	63.93
686.664	63.93
686.99	63.96
687.316	64.12
687.642	64.13
687.968	64.19
688.294	64.23
688.619	64.31
688.945	64.26
689.271	64.23
689.596	64.26
689.922	64.28
690.247	64.31
690.573	64.3
690.898	64.21
691.224	64.02
691.549	64.05
691.874	63.96
692.2	63.9
692.525	64.02
692.85	63.98
693.175	63.94
693.5	63.99
693.825	64.01
694.15	64.08
694.475	64.22
694.8	64.21
695.125	64.11
695.45	64.06
695.775	64.21
696.099	64.37
696.424	64.21
696.749	64.19
697.073	64.16
697.398	64.39
697.723	64.43
698.047	64.57
698.372	64.64
698.696	64.61
699.02	64.59
699.345	64.48
699.669	64.45
699.993	64.43
700.318	64.36
700.642	64.37
700.966	64.2
701.29	64.21
701.614	64.16
701.938	64.2
702.262	64.14
702.586	64.17
702.91	64.03
703.234	64.06
703.557	64.04
703.881	63.92
704.205	63.81
704.529	63.72
704.852	63.76
705.176	63.63
705.499	63.96
705.823	64.07
706.146	64.18
706.47	64.29
706.793	64.36
707.117	64.46
707.44	64.55
707.763	64.73
708.086	64.66
708.409	64.62
708.733	64.53
709.056	64.66
709.379	64.67
709.702	64.88
710.025	65.01
710.348	65.01
710.671	65.12
710.993	65.12
711.316	65.28
711.639	65.24
711.962	65.18
712.284	65.08
712.607	65.17
712.93	65.2
713.252	65.24
713.575	65
713.897	65.09
714.22	64.99
714.542	65.03
714.864	65
715.187	65.24
715.509	65.34
715.831	65.25
716.153	65.27
716.475	65.15
716.798	65.12
717.12	65.06
717.442	65.18
717.764	65.15
718.085	65.18
718.407	65.34
718.729	65.55
719.051	65.53
719.373	65.56
719.695	65.55
720.016	65.73
720.338	66.08
720.659	65.84
720.981	65.89
721.302	65.87
721.624	65.77
721.945	65.59
722.267	65.42
722.588	65.45
722.909	65.74
723.231	65.64
723.552	65.76
723.873	65.94
724.194	65.77
724.515	65.63
724.836	65.45
725.157	65.41
725.478	65.26
725.799	65.42
726.12	65.34
726.441	65.33
726.762	65.16
727.083	64.9
727.403	65.26
727.724	65.18
728.045	65.04
728.365	65.09
728.686	64.83
729.006	65.08
729.327	65.03
729.647	64.72
729.967	64.73
730.288	64.71
730.608	64.75
730.928	64.66
731.249	64.68
731.569	64.87
731.889	64.83
732.209	64.77
732.529	64.65
732.849	64.61
733.169	64.67
733.489	64.61
733.809	64.78
734.129	64.58
734.448	64.54
734.768	64.48
735.088	64.53
735.408	64.83
735.727	64.63
736.047	64.7
736.366	64.78
736.686	64.98
737.005	65.01
737.325	64.99
737.644	65.17
737.963	65.32
738.283	64.95
738.602	64.82
738.921	64.88
739.24	64.77
739.56	65.02
739.879	64.79
740.198	64.95
740.517	64.89
740.836	64.74
741.155	64.76
741.473	64.87
741.792	65.02
742.111	64.98
742.43	65.06
742.748	65.05
743.067	64.94
743.386	64.83
743.704	64.87
744.023	64.79
744.341	64.6
744.66	64.58
744.978	64.76
745.297	64.55
745.615	64.86
745.933	64.93
746.252	64.7
746.57	64.91
746.888	64.75
747.206	64.82
747.524	64.8
747.842	64.69
748.16	64.79
748.478	64.78
748.796	64.85
749.114	64.85
749.432	64.49
749.749	64.91
750.067	64.72
750.385	64.41
750.703	64.67
751.02	64.68
751.338	64.58
751.655	64.64
751.973	65.14
752.29	64.91
752.608	64.99
752.925	64.94
753.242	64.95
753.56	65
753.877	64.99
754.194	64.99
754.511	65.34
754.828	65.05
755.145	64.94
755.462	64.74
755.779	64.9
756.096	65.5
756.413	65.05
756.73	65.29
757.047	65.38
757.364	65.04
757.68	65.15
757.997	65.03
758.314	64.96
758.63	64.7
758.947	64.72
759.264	64.77
759.58	64.95
759.896	65.03
760.213	65.15
760.529	65.12
760.846	64.91
761.162	64.92
761.478	64.96
761.794	64.94
762.11	64.78
762.426	64.6
762.743	64.44
763.059	64.53
763.375	64.67
763.69	64.88
764.006	65.02
764.322	65.27
764.638	65.3
764.954	65.43
765.27	65.39
765.585	65.38
765.901	65.36
766.216	65.26
766.532	65.05
766.848	65.03
767.163	64.95
767.478	65.17
767.794	65
768.109	65.01
768.424	65.08
768.74	65.33
769.055	65.53
769.37	65.56
769.685	65.79
770	65.67
770.315	65.32
770.63	65.21
770.945	64.86
771.26	64.81
771.575	64.5
771.89	64.52
772.205	64.57
772.52	64.35
772.834	64.46
773.149	64.74
773.464	64.73
773.778	64.9
774.093	64.89
774.407	64.94
774.722	64.87
775.036	64.63
775.351	64.32
775.665	64.4
775.979	64.13
776.293	64.12
776.608	64.09
776.922	63.86
777.236	64.14
777.55	63.99
777.864	64.48
778.178	64.82
778.492	65.06
778.806	64.9
779.12	65.31
779.434	65.11
779.747	65.03
780.061	64.48
780.375	64.51
780.689	65.19
781.002	64.96
781.316	65.19
781.629	65.55
781.943	65.96
782.256	66.02
782.57	66.11
782.883	65.7
783.196	65.85
783.51	66.19
783.823	65.71
784.136	66.06
784.449	65.41
784.762	65.62
785.075	65.64
785.388	65.88
785.701	65.68
786.014	65.6
786.327	65.63
786.64	66.61
786.953	67
787.266	66.75
787.578	66.61
787.891	66.76
788.204	66.42
788.516	66.68
788.829	66.57
789.141	66.68
789.454	66.43
789.766	66.1
790.079	66.43
790.391	66.66
790.703	66.65
791.016	67.46
791.328	66.96
791.64	67.04
791.952	67.21
792.264	67.55
792.576	68.14
792.888	68.12
793.2	67.66
793.512	67.19
793.824	66.68
794.136	66.97
794.448	66.77
794.76	66.96
795.071	66.63
795.383	66.71
795.695	66.63
796.006	66.98
796.318	67.67
796.629	66.85
796.941	67.21
797.252	67.27
797.564	67.06
797.875	67.53
798.186	66.63
798.497	66.57
798.809	66.49
799.12	66.99
799.431	67.18
799.742	67.63
800.053	67.94
800.364	68.37
800.675	68.57
800.986	68.89
801.297	69.05
801.608	69.23
801.918	68.68
802.229	68.73
802.54	69.05
802.851	68.3
803.161	68.6
803.472	68.06
803.782	67.34
804.093	67.31
804.403	66.94
804.714	67.58
805.024	67.16
805.334	67.16
805.645	66.11
805.955	65.74
806.265	65.83
806.575	65.17
806.885	64.39
807.195	64.3
807.505	64.58
807.815	64.47
808.125	64.79
808.435	65.31
808.745	65.17
809.055	65.12
809.365	65.11
809.674	65.35
809.984	65.59
810.294	65.61
810.603	65.59
810.913	65.57
811.222	65.74
811.532	65.88
811.841	65.33
812.151	64.86
812.46	65.23
812.769	65.03
813.079	65.33
813.388	66.05
813.697	66.14
814.006	65.34
814.315	65.15
814.624	64.73
814.933	64.59
815.242	64.94
815.551	64.64
815.86	64.9
816.169	64.66
816.478	64.3
816.786	64.95
817.095	64.77
817.404	64.26
817.712	63.95
818.021	63.85
818.33	64.29
818.638	64.35
818.947	64.19
819.255	64.3
819.563	64.38
819.872	64.04
820.18	64.55
820.488	64.87
820.796	64.99
821.105	64.94
821.413	65.01
821.721	65.15
822.029	65.02
822.337	65.15
822.645	65.23
822.953	65.24
823.26	65.42
823.568	65.54
823.876	65.68
824.184	65.77
824.491	65.85
824.799	65.9
825.107	65.87
825.414	66.18
825.722	66.16
826.029	66.13
826.337	66.5
826.644	66.26
826.951	66.22
827.259	66.21
827.566	66.06
827.873	66.15
828.18	66.23
828.488	66.63
828.795	66.37
829.102	66.41
829.409	66.68
829.716	66.54
830.023	66.24
830.329	66.63
830.636	66.63
830.943	66.91
831.25	66.82
831.557	66.87
831.863	66.44
832.17	66.11
832.476	66.69
832.783	66.51
833.089	66.75
833.396	66.56
833.702	66.54
834.009	66.94
834.315	66.73
834.621	66.57
834.928	66.48
835.234	66.89
835.54	66.82
835.846	66.62
836.152	66.13
836.458	66.71
836.764	65.9
837.07	65.3
837.376	64.65
837.682	64.53
837.988	65.1
838.293	65.11
838.599	65.38
838.905	64.86
839.211	64.45
839.516	63.78
839.822	64.86
840.127	65.55
840.433	65.44
840.738	65.27
841.044	65.02
841.349	65.13
841.654	64.91
841.959	65.13
842.265	65.32
842.57	65.72
842.875	64.4
843.18	65.52
843.485	65.79
843.79	65.99
844.095	66.75
844.4	67.23
844.705	66.91
845.01	68.78
845.315	69.06
845.619	68.52
845.924	68.69
846.229	68
846.533	67.95
846.838	68.27
847.142	68.8
847.447	69.2
847.751	68.35
848.056	67.62
848.36	68.25
848.664	67.97
848.969	68.64
849.273	68.91
849.577	66.23
849.881	64.58
850.185	63.82
850.489	62.22
850.794	61.1
851.097	62.15
851.401	60.64
851.705	60.28
852.009	63.18
852.313	64.06
852.617	63.04
852.92	64.87
853.224	64.31
853.528	64.62
853.831	64.78
854.135	67.73
854.438	69.18
854.742	68.77
855.045	70.35
855.349	70.62
855.652	70.18
855.955	75.01
856.259	78.67
856.562	81.78
856.865	83.8
857.168	86.06
857.471	85.23
857.774	83.84
858.077	85.09
858.38	82.49
858.683	83.58
858.986	83.89
859.289	80.55
859.592	80.41
859.894	81.61
860.197	81.59
860.5	79.14
860.802	78.93
861.105	77.96
861.407	78.53
861.71	78.88
862.012	80.08
862.315	76.25
862.617	76.1
862.919	74.38
863.222	72.7
863.524	70.96
863.826	70.42
864.128	71.32
864.43	71.57
864.732	73.5
865.034	72.95
865.336	71.03
865.638	71.03
865.94	69.75
866.242	67.75
866.544	67.01
866.846	66.82
867.147	67.92
867.449	68.61
867.751	64.72
868.052	65.83
868.354	66.26
868.655	68.31
868.957	68.67
869.258	69.13
869.56	67.82
869.861	69.11
870.162	69.66
870.463	68.01
870.765	68.9
871.066	69.36
871.367	67.83
871.668	68
871.969	65.74
872.27	66.83
872.571	66.67
872.872	69.95
873.173	70.35
873.473	70.31
873.774	70.28
874.075	69.9
874.376	66.14
874.676	66.61
874.977	65.29
875.277	64.22
875.578	64.04
875.878	65.51
876.179	63.61
876.479	63.29
876.78	63.11
877.08	58.85
877.38	56.18
877.68	58.28
877.981	59.63
878.281	63.91
878.581	65.89
