Data from BA28306_Reflection_00014.txt Node
Date: Mon Nov 18 15:54:03 EST 2019
User: vgr7
Spectrometer: USB2G7710
Scans to average: 3
Trigger mode: 4
Integration Time (sec): 2.000000E-2
Electric dark correction enabled: true
Boxcar width: 10
XAxis mode: Wavelengths
Number of Pixels in Spectrum: 2048
>>>>>Begin Spectral Data<<<<<
177.721	-2822.33
178.105	-422.29
178.488	-782.16
178.871	-815.09
179.254	-900
179.636	-119.39
180.019	207.21
180.402	227.27
180.785	-103.64
181.168	-140.96
181.55	-115.96
181.933	174.37
182.316	169.34
182.698	232.72
183.081	265.15
183.463	585.93
183.846	1749.75
184.228	-1927.62
184.611	-3195.65
184.993	-689.84
185.376	-362.11
185.758	-914.67
186.14	-656.87
186.522	-484.22
186.904	-458.57
187.287	-467.07
187.669	-353.65
188.051	-458.42
188.433	-278.67
188.815	-330.47
189.197	-263.7
189.579	-331.08
189.961	-296.33
190.342	-254.04
190.724	-166.64
191.106	-238.53
191.488	-231.46
191.869	-244.6
192.251	-387.49
192.633	-312.99
193.014	-303.1
193.396	-347.95
193.777	-231.75
194.159	-177.8
194.54	-198.18
194.922	-169.79
195.303	-152.76
195.684	-171.19
196.065	-142.08
196.447	-162.27
196.828	-238.07
197.209	-273.24
197.59	-292.97
197.971	-343.9
198.352	-280.09
198.733	-488.29
199.114	-292.45
199.495	-226.45
199.876	-183.58
200.257	-175.3
200.638	-132.08
201.018	-185.02
201.399	-159.91
201.78	-157.69
202.16	-187.18
202.541	-217.88
202.922	-305.64
203.302	-482.44
203.683	-491.67
204.063	-717.77
204.444	-540.11
204.824	-303.66
205.204	-269.76
205.585	-248.54
205.965	-199.79
206.345	-254.37
206.725	-227.01
207.106	-272.19
207.486	-398.27
207.866	-361.01
208.246	-347.05
208.626	-383.95
209.006	-255.03
209.386	-306.68
209.766	-274.64
210.145	-248.49
210.525	-188.36
210.905	-191.15
211.285	-120.8
211.664	-104.85
212.044	-91.13
212.424	-97.21
212.803	-116.54
213.183	-123.25
213.562	-133.1
213.942	-124.87
214.321	-120.44
214.701	-123.77
215.08	-118.05
215.459	-103.31
215.838	-116.66
216.218	-110.83
216.597	-112.05
216.976	-91.81
217.355	-71.13
217.734	-67.79
218.113	-77.45
218.492	-91.61
218.871	-88.32
219.25	-91.31
219.629	-88.62
220.008	-98.34
220.387	-88.89
220.766	-72.84
221.144	-78.98
221.523	-76.29
221.902	-89.81
222.28	-92.03
222.659	-79.27
223.037	-80.28
223.416	-92.9
223.794	-96.74
224.173	-97.69
224.551	-79.02
224.929	-85.93
225.308	-80.11
225.686	-71.45
226.064	-62.42
226.442	-46.81
226.821	-33.78
227.199	-36.66
227.577	-35.49
227.955	-29.3
228.333	-28.44
228.711	-25.94
229.089	-19.48
229.467	-19.94
229.845	-15.52
230.222	-12.63
230.6	-11.84
230.978	-11.38
231.356	-7.85
231.733	-7.69
232.111	-6.61
232.488	-6.54
232.866	-5.17
233.243	-6.07
233.621	-6.45
233.998	-4.24
234.376	-6.07
234.753	-9.68
235.13	-9
235.508	-8.8
235.885	-8.72
236.262	-7.77
236.639	-7.25
237.016	-7.06
237.393	-4.62
237.77	-3.94
238.147	-2.51
238.524	-1.68
238.901	0.5
239.278	0.02
239.655	1.88
240.032	2.36
240.409	2.32
240.785	1.96
241.162	2.45
241.539	2.29
241.915	2.16
242.292	2.8
242.668	3.43
243.045	3.77
243.421	4
243.798	3.89
244.174	3.45
244.551	3.38
244.927	3.29
245.303	3.35
245.679	3.7
246.056	3.63
246.432	3.57
246.808	3.3
247.184	3.33
247.56	3
247.936	2.82
248.312	2.95
248.688	3.3
249.064	3.13
249.44	3.35
249.815	3.23
250.191	3.26
250.567	3.22
250.943	3.23
251.318	3.63
251.694	3.74
252.069	3.94
252.445	4.06
252.82	4.24
253.196	4.14
253.571	3.91
253.947	4.06
254.322	4.21
254.697	3.99
255.073	3.72
255.448	3.59
255.823	3.65
256.198	3.66
256.573	3.35
256.948	3.61
257.323	3.51
257.698	3.76
258.073	3.57
258.448	3.54
258.823	3.58
259.198	3.12
259.573	2.99
259.948	3.07
260.322	3.08
260.697	2.99
261.072	2.83
261.446	2.89
261.821	2.72
262.195	2.7
262.57	2.73
262.944	2.75
263.319	2.68
263.693	2.52
264.067	2.38
264.442	2.45
264.816	2.2
265.19	2.15
265.564	1.88
265.938	1.82
266.313	1.69
266.687	1.42
267.061	1.61
267.435	1.73
267.809	1.66
268.183	1.67
268.556	1.71
268.93	1.96
269.304	2.1
269.678	2.21
270.051	2.2
270.425	2.27
270.799	2.45
271.172	2.61
271.546	2.68
271.919	2.76
272.293	2.66
272.666	2.78
273.04	2.85
273.413	2.89
273.787	3.12
274.16	3.22
274.533	3.39
274.906	3.27
275.279	3.43
275.653	3.47
276.026	3.41
276.399	3.44
276.772	3.51
277.145	3.41
277.518	3.48
277.891	3.56
278.263	3.42
278.636	3.31
279.009	3.23
279.382	3.41
279.755	3.19
280.127	3.35
280.5	3.47
280.872	3.48
281.245	3.49
281.617	3.46
281.99	3.7
282.362	3.76
282.735	3.8
283.107	3.67
283.479	3.8
283.852	3.86
284.224	3.79
284.596	3.63
284.968	3.56
285.34	3.6
285.713	3.47
286.085	3.62
286.457	3.73
286.829	3.78
287.201	3.8
287.572	3.93
287.944	3.86
288.316	3.76
288.688	3.73
289.06	3.81
289.431	3.79
289.803	3.7
290.175	3.63
290.546	3.69
290.918	3.57
291.289	3.55
291.661	3.6
292.032	3.79
292.403	3.91
292.775	4.07
293.146	4.01
293.517	4.09
293.889	4.13
294.26	4.22
294.631	4.26
295.002	4.16
295.373	4.26
295.744	4.25
296.115	4.3
296.486	4.27
296.857	4.32
297.228	4.41
297.599	4.45
297.97	4.44
298.34	4.63
298.711	4.82
299.082	4.74
299.452	4.8
299.823	4.89
300.194	5.1
300.564	5.04
300.935	5.1
301.305	5.19
301.676	5.28
302.046	5.21
302.416	5.32
302.787	5.39
303.157	5.46
303.527	5.56
303.897	5.61
304.267	5.88
304.637	5.96
305.008	5.9
305.378	5.97
305.748	6.09
306.117	6.07
306.487	6.12
306.857	6.29
307.227	6.43
307.597	6.35
307.967	6.32
308.336	6.36
308.706	6.42
309.076	6.49
309.445	6.35
309.815	6.42
310.184	6.43
310.554	6.44
310.923	6.41
311.293	6.46
311.662	6.46
312.031	6.46
312.401	6.48
312.77	6.55
313.139	6.65
313.508	6.82
313.877	6.73
314.246	6.72
314.616	6.59
314.985	6.54
315.353	6.51
315.722	6.47
316.091	6.5
316.46	6.5
316.829	6.46
317.198	6.57
317.567	6.55
317.935	6.71
318.304	6.86
318.672	7.07
319.041	7.3
319.41	7.4
319.778	7.39
320.147	7.55
320.515	7.48
320.883	7.18
321.252	7.21
321.62	7.3
321.988	7.31
322.357	7.47
322.725	7.61
323.093	7.86
323.461	8
323.829	7.98
324.197	8.17
324.565	8.22
324.933	8.33
325.301	8.53
325.669	8.56
326.037	8.54
326.405	8.38
326.772	8.41
327.14	8.56
327.508	8.63
327.875	8.45
328.243	8.6
328.61	8.77
328.978	8.64
329.346	8.9
329.713	8.89
330.08	8.92
330.448	8.81
330.815	8.67
331.182	8.62
331.55	8.71
331.917	8.63
332.284	8.66
332.651	8.68
333.018	8.66
333.385	8.55
333.752	8.63
334.119	8.74
334.486	8.65
334.853	8.54
335.22	8.41
335.587	8.65
335.954	8.58
336.32	8.71
336.687	8.9
337.054	8.71
337.42	8.82
337.787	8.9
338.153	8.99
338.52	9.05
338.886	9.15
339.253	9.19
339.619	9.26
339.986	9.35
340.352	9.41
340.718	9.35
341.084	9.33
341.451	9.47
341.817	9.6
342.183	9.71
342.549	9.68
342.915	9.84
343.281	9.82
343.647	9.79
344.013	9.77
344.379	9.62
344.745	9.66
345.11	9.66
345.476	9.64
345.842	9.58
346.208	9.59
346.573	9.59
346.939	9.64
347.304	9.64
347.67	9.59
348.035	9.53
348.401	9.64
348.766	9.8
349.132	9.8
349.497	9.72
349.862	9.65
350.228	9.66
350.593	9.68
350.958	9.62
351.323	9.89
351.688	9.92
352.053	9.96
352.418	10.07
352.783	10.01
353.148	9.98
353.513	10.03
353.878	10.03
354.243	10.01
354.608	10.1
354.972	10.05
355.337	10.09
355.702	10.2
356.066	10.15
356.431	9.95
356.795	9.94
357.16	9.93
357.524	9.89
357.889	9.96
358.253	9.97
358.618	10.02
358.982	9.81
359.346	9.77
359.71	9.75
360.075	9.66
360.439	9.73
360.803	9.76
361.167	9.68
361.531	9.61
361.895	9.59
362.259	9.47
362.623	9.47
362.987	9.42
363.351	9.27
363.714	9.28
364.078	9.3
364.442	9.27
364.806	9.21
365.169	9.19
365.533	9.16
365.896	9.06
366.26	8.94
366.623	8.83
366.987	8.78
367.35	8.77
367.714	8.74
368.077	8.69
368.44	8.64
368.803	8.65
369.167	8.59
369.53	8.49
369.893	8.59
370.256	8.56
370.619	8.48
370.982	8.43
371.345	8.34
371.708	8.31
372.071	8.23
372.434	8.22
372.797	8.16
373.159	8.06
373.522	8.03
373.885	8.04
374.247	8.13
374.61	8.02
374.973	7.9
375.335	7.86
375.698	7.77
376.06	7.71
376.423	7.61
376.785	7.6
377.147	7.59
377.51	7.44
377.872	7.41
378.234	7.37
378.596	7.39
378.958	7.32
379.321	7.29
379.683	7.25
380.045	7.17
380.407	7.14
380.769	7.1
381.13	7.04
381.492	6.97
381.854	6.89
382.216	6.89
382.578	6.91
382.939	6.83
383.301	6.83
383.663	6.75
384.024	6.74
384.386	6.74
384.747	6.7
385.109	6.65
385.47	6.58
385.832	6.55
386.193	6.51
386.554	6.51
386.916	6.45
387.277	6.4
387.638	6.42
387.999	6.37
388.36	6.3
388.721	6.28
389.082	6.23
389.443	6.17
389.804	6.11
390.165	6.06
390.526	6.03
390.887	5.97
391.248	5.99
391.609	5.97
391.969	5.91
392.33	5.86
392.691	5.85
393.051	5.79
393.412	5.74
393.772	5.66
394.133	5.6
394.493	5.56
394.854	5.52
395.214	5.47
395.574	5.45
395.935	5.44
396.295	5.41
396.655	5.34
397.015	5.33
397.376	5.29
397.736	5.23
398.096	5.17
398.456	5.14
398.816	5.09
399.176	5.03
399.535	4.99
399.895	4.94
400.255	4.88
400.615	4.89
400.975	4.85
401.334	4.84
401.694	4.81
402.054	4.8
402.413	4.76
402.773	4.71
403.132	4.65
403.492	4.61
403.851	4.58
404.211	4.56
404.57	4.53
404.929	4.54
405.288	4.52
405.648	4.52
406.007	4.46
406.366	4.44
406.725	4.44
407.084	4.45
407.443	4.44
407.802	4.44
408.161	4.41
408.52	4.37
408.879	4.36
409.238	4.36
409.596	4.34
409.955	4.32
410.314	4.3
410.673	4.29
411.031	4.28
411.39	4.28
411.748	4.28
412.107	4.25
412.465	4.23
412.824	4.22
413.182	4.21
413.54	4.22
413.899	4.17
414.257	4.14
414.615	4.09
414.974	4.09
415.332	4.08
415.69	4.05
416.048	4.03
416.406	4.03
416.764	4
417.122	3.98
417.48	3.94
417.838	3.94
418.195	3.93
418.553	3.92
418.911	3.91
419.269	3.91
419.626	3.91
419.984	3.89
420.342	3.89
420.699	3.88
421.057	3.86
421.414	3.85
421.772	3.85
422.129	3.82
422.486	3.8
422.844	3.78
423.201	3.77
423.558	3.77
423.915	3.76
424.273	3.73
424.63	3.73
424.987	3.74
425.344	3.73
425.701	3.72
426.058	3.71
426.415	3.7
426.772	3.67
427.128	3.65
427.485	3.65
427.842	3.62
428.199	3.59
428.555	3.59
428.912	3.59
429.269	3.58
429.625	3.58
429.982	3.57
430.338	3.58
430.695	3.56
431.051	3.56
431.407	3.55
431.764	3.57
432.12	3.56
432.476	3.55
432.832	3.53
433.189	3.54
433.545	3.52
433.901	3.54
434.257	3.55
434.613	3.55
434.969	3.56
435.325	3.57
435.681	3.58
436.036	3.57
436.392	3.58
436.748	3.57
437.104	3.57
437.459	3.57
437.815	3.56
438.171	3.58
438.526	3.58
438.882	3.58
439.237	3.58
439.593	3.57
439.948	3.57
440.304	3.56
440.659	3.55
441.014	3.56
441.369	3.53
441.725	3.52
442.08	3.52
442.435	3.5
442.79	3.49
443.145	3.47
443.5	3.46
443.855	3.44
444.21	3.45
444.565	3.45
444.92	3.46
445.275	3.44
445.629	3.44
445.984	3.44
446.339	3.42
446.693	3.39
447.048	3.38
447.403	3.37
447.757	3.36
448.112	3.34
448.466	3.34
448.82	3.33
449.175	3.33
449.529	3.31
449.883	3.3
450.238	3.3
450.592	3.31
450.946	3.3
451.3	3.33
451.654	3.29
452.008	3.29
452.362	3.26
452.716	3.27
453.07	3.27
453.424	3.26
453.778	3.27
454.132	3.27
454.486	3.27
454.839	3.26
455.193	3.27
455.547	3.26
455.9	3.26
456.254	3.28
456.607	3.28
456.961	3.28
457.314	3.28
457.668	3.29
458.021	3.26
458.375	3.25
458.728	3.24
459.081	3.25
459.434	3.25
459.787	3.27
460.141	3.27
460.494	3.27
460.847	3.28
461.2	3.27
461.553	3.28
461.906	3.3
462.259	3.32
462.611	3.33
462.964	3.35
463.317	3.35
463.67	3.34
464.022	3.34
464.375	3.34
464.728	3.33
465.08	3.34
465.433	3.37
465.785	3.39
466.138	3.41
466.49	3.42
466.843	3.41
467.195	3.4
467.547	3.4
467.899	3.4
468.252	3.39
468.604	3.4
468.956	3.41
469.308	3.4
469.66	3.38
470.012	3.4
470.364	3.41
470.716	3.43
471.068	3.44
471.42	3.45
471.772	3.48
472.123	3.48
472.475	3.5
472.827	3.5
473.178	3.5
473.53	3.49
473.882	3.47
474.233	3.47
474.585	3.48
474.936	3.45
475.288	3.46
475.639	3.46
475.99	3.46
476.342	3.45
476.693	3.45
477.044	3.48
477.395	3.47
477.746	3.47
478.097	3.47
478.448	3.47
478.8	3.47
479.15	3.44
479.501	3.46
479.852	3.45
480.203	3.45
480.554	3.46
480.905	3.47
481.255	3.47
481.606	3.48
481.957	3.49
482.307	3.51
482.658	3.5
483.009	3.5
483.359	3.52
483.709	3.52
484.06	3.53
484.41	3.52
484.761	3.52
485.111	3.53
485.461	3.53
485.811	3.54
486.162	3.54
486.512	3.55
486.862	3.55
487.212	3.56
487.562	3.57
487.912	3.57
488.262	3.57
488.612	3.58
488.961	3.58
489.311	3.59
489.661	3.59
490.011	3.6
490.36	3.6
490.71	3.59
491.06	3.61
491.409	3.62
491.759	3.62
492.108	3.63
492.458	3.64
492.807	3.65
493.157	3.67
493.506	3.68
493.855	3.69
494.204	3.72
494.554	3.73
494.903	3.74
495.252	3.76
495.601	3.79
495.95	3.82
496.299	3.83
496.648	3.86
496.997	3.89
497.346	3.94
497.695	3.98
498.043	4.01
498.392	4.04
498.741	4.07
499.09	4.09
499.438	4.14
499.787	4.18
500.135	4.22
500.484	4.25
500.832	4.31
501.181	4.35
501.529	4.38
501.878	4.44
502.226	4.49
502.574	4.52
502.923	4.57
503.271	4.61
503.619	4.66
503.967	4.72
504.315	4.79
504.663	4.84
505.011	4.91
505.359	4.99
505.707	5.02
506.055	5.1
506.403	5.17
506.751	5.24
507.098	5.29
507.446	5.35
507.794	5.42
508.141	5.48
508.489	5.55
508.837	5.63
509.184	5.68
509.531	5.75
509.879	5.86
510.226	5.93
510.574	6
510.921	6.07
511.268	6.13
511.616	6.19
511.963	6.27
512.31	6.34
512.657	6.41
513.004	6.51
513.351	6.58
513.698	6.68
514.045	6.76
514.392	6.88
514.739	6.99
515.086	7.1
515.432	7.21
515.779	7.28
516.126	7.36
516.473	7.44
516.819	7.54
517.166	7.62
517.512	7.7
517.859	7.78
518.205	7.85
518.552	7.94
518.898	8.02
519.245	8.1
519.591	8.18
519.937	8.25
520.283	8.35
520.629	8.45
520.976	8.55
521.322	8.66
521.668	8.73
522.014	8.83
522.36	8.92
522.706	9.03
523.052	9.2
523.398	9.36
523.743	9.52
524.089	9.67
524.435	9.8
524.781	9.93
525.126	10.07
525.472	10.21
525.817	10.32
526.163	10.44
526.509	10.54
526.854	10.64
527.199	10.75
527.545	10.85
527.89	10.94
528.235	11.03
528.581	11.15
528.926	11.28
529.271	11.38
529.616	11.49
529.961	11.6
530.306	11.71
530.651	11.81
530.996	11.94
531.341	12.05
531.686	12.2
532.031	12.34
532.376	12.48
532.721	12.63
533.065	12.8
533.41	12.95
533.755	13.12
534.099	13.29
534.444	13.48
534.788	13.65
535.133	13.83
535.477	14.01
535.822	14.19
536.166	14.39
536.51	14.61
536.855	14.86
537.199	15.1
537.543	15.35
537.887	15.64
538.231	15.89
538.576	16.16
538.92	16.42
539.264	16.67
539.608	16.91
539.951	17.14
540.295	17.36
540.639	17.58
540.983	17.81
541.327	18.01
541.671	18.18
542.014	18.39
542.358	18.59
542.701	18.8
543.045	19.02
543.389	19.24
543.732	19.46
544.075	19.66
544.419	19.89
544.762	20.11
545.105	20.33
545.449	20.61
545.792	20.87
546.135	21.17
546.478	21.45
546.821	21.75
547.165	22.06
547.508	22.37
547.851	22.68
548.194	23.02
548.536	23.33
548.879	23.7
549.222	24.05
549.565	24.38
549.908	24.76
550.25	25.06
550.593	25.33
550.936	25.65
551.278	25.98
551.621	26.32
551.963	26.66
552.306	26.96
552.648	27.27
552.991	27.56
553.333	27.82
553.675	28.11
554.017	28.4
554.36	28.65
554.702	28.91
555.044	29.2
555.386	29.49
555.728	29.8
556.07	30.07
556.412	30.3
556.754	30.57
557.096	30.83
557.438	31.09
557.78	31.43
558.121	31.7
558.463	32.02
558.805	32.28
559.147	32.61
559.488	32.96
559.83	33.2
560.171	33.49
560.513	33.8
560.854	34.11
561.196	34.38
561.537	34.66
561.878	34.9
562.22	35.19
562.561	35.43
562.902	35.68
563.243	35.9
563.584	36.18
563.925	36.43
564.266	36.63
564.607	36.89
564.948	37.11
565.289	37.38
565.63	37.56
565.971	37.75
566.312	37.89
566.653	38.06
566.993	38.28
567.334	38.5
567.675	38.64
568.015	38.84
568.356	38.97
568.696	39.16
569.037	39.34
569.377	39.48
569.718	39.6
570.058	39.73
570.398	39.92
570.739	40.09
571.079	40.26
571.419	40.49
571.759	40.67
572.099	40.81
572.439	40.93
572.779	41.11
573.119	41.26
573.459	41.47
573.799	41.59
574.139	41.75
574.479	41.88
574.819	42.09
575.158	42.18
575.498	42.38
575.838	42.51
576.177	42.73
576.517	42.87
576.856	43.03
577.196	43.25
577.535	43.45
577.875	43.61
578.214	43.84
578.553	43.94
578.893	44.04
579.232	44.19
579.571	44.33
579.91	44.47
580.25	44.61
580.589	44.72
580.928	44.86
581.267	44.95
581.606	45.1
581.945	45.17
582.283	45.34
582.622	45.48
582.961	45.64
583.3	45.7
583.639	45.91
583.977	46.09
584.316	46.19
584.654	46.25
584.993	46.32
585.332	46.35
585.67	46.44
586.008	46.59
586.347	46.62
586.685	46.76
587.024	46.83
587.362	46.93
587.7	47.03
588.038	47.12
588.376	47.22
588.715	47.27
589.053	47.32
589.391	47.37
589.729	47.42
590.067	47.46
590.404	47.53
590.742	47.55
591.08	47.55
591.418	47.62
591.756	47.68
592.093	47.75
592.431	47.78
592.769	47.86
593.106	47.9
593.444	48.04
593.781	48.08
594.119	48.09
594.456	48.11
594.793	48.1
595.131	48.18
595.468	48.29
595.805	48.33
596.143	48.45
596.48	48.52
596.817	48.57
597.154	48.61
597.491	48.67
597.828	48.68
598.165	48.7
598.502	48.72
598.839	48.81
599.176	48.9
599.512	48.95
599.849	48.98
600.186	49.06
600.523	49.15
600.859	49.14
601.196	49.24
601.532	49.39
601.869	49.47
602.205	49.46
602.542	49.46
602.878	49.48
603.215	49.48
603.551	49.5
603.887	49.6
604.223	49.7
604.56	49.76
604.896	49.83
605.232	49.9
605.568	49.97
605.904	50.05
606.24	50.09
606.576	50.13
606.912	50.19
607.248	50.25
607.583	50.22
607.919	50.3
608.255	50.31
608.591	50.33
608.926	50.45
609.262	50.57
609.597	50.61
609.933	50.67
610.268	50.76
610.604	50.8
610.939	50.81
611.275	50.84
611.61	50.82
611.945	50.86
612.281	50.88
612.616	50.9
612.951	50.87
613.286	50.9
613.621	50.99
613.956	51.11
614.291	51.09
614.626	51.21
614.961	51.28
615.296	51.38
615.631	51.44
615.966	51.42
616.3	51.39
616.635	51.47
616.97	51.52
617.304	51.56
617.639	51.62
617.973	51.64
618.308	51.6
618.642	51.69
618.977	51.72
619.311	51.74
619.646	51.79
619.98	51.82
620.314	51.88
620.648	51.81
620.983	51.79
621.317	51.83
621.651	51.84
621.985	51.82
622.319	51.77
622.653	51.74
622.987	51.77
623.321	51.82
623.655	51.83
623.988	51.88
624.322	51.86
624.656	51.91
624.99	51.96
625.323	52.1
625.657	52.04
625.99	51.92
626.324	51.9
626.657	51.93
626.991	51.94
627.324	51.94
627.658	52.02
627.991	52.11
628.324	52.17
628.657	52.13
628.991	52.21
629.324	52.33
629.657	52.36
629.99	52.36
630.323	52.39
630.656	52.44
630.989	52.47
631.322	52.52
631.655	52.47
631.987	52.49
632.32	52.34
632.653	52.35
632.986	52.52
633.318	52.69
633.651	52.68
633.984	52.66
634.316	52.69
634.649	52.81
634.981	52.77
635.313	52.65
635.646	52.73
635.978	52.79
636.31	52.74
636.643	52.81
636.975	52.71
637.307	52.73
637.639	52.76
637.971	52.71
638.303	52.74
638.635	52.81
638.967	52.83
639.299	52.97
639.631	53.05
639.963	53.06
640.295	53.04
640.626	53.02
640.958	53.16
641.29	53.14
641.621	52.99
641.953	52.95
642.285	53.13
642.616	53.2
642.948	53.12
643.279	53.2
643.61	53.25
643.942	53.45
644.273	53.45
644.604	53.49
644.936	53.52
645.267	53.51
645.598	53.43
645.929	53.47
646.26	53.43
646.591	53.48
646.922	53.43
647.253	53.42
647.584	53.46
647.915	53.36
648.245	53.35
648.576	53.39
648.907	53.44
649.238	53.48
649.568	53.48
649.899	53.61
650.229	53.62
650.56	53.63
650.89	53.48
651.221	53.55
651.551	53.45
651.882	53.49
652.212	53.48
652.542	53.46
652.872	53.4
653.203	53.49
653.533	53.42
653.863	53.53
654.193	53.47
654.523	53.48
654.853	53.48
655.183	53.56
655.513	53.52
655.843	53.54
656.172	53.52
656.502	53.48
656.832	53.4
657.162	53.46
657.491	53.34
657.821	53.47
658.15	53.36
658.48	53.46
658.809	53.38
659.139	53.38
659.468	53.49
659.798	53.56
660.127	53.6
660.456	53.68
660.785	53.66
661.115	53.75
661.444	53.8
661.773	53.91
662.102	53.92
662.431	54.07
662.76	54.1
663.089	54.03
663.418	54.03
663.747	54.02
664.076	53.96
664.404	54.05
664.733	53.99
665.062	54.06
665.39	54.03
665.719	54.17
666.048	54.14
666.376	54.12
666.705	54.15
667.033	53.96
667.362	53.86
667.69	53.85
668.018	53.84
668.347	53.92
668.675	53.83
669.003	53.9
669.331	53.87
669.659	53.75
669.987	53.82
670.315	53.84
670.643	53.98
670.971	54
671.299	53.99
671.627	54.13
671.955	54.11
672.283	54.09
672.61	53.98
672.938	54.08
673.266	54.06
673.593	53.91
673.921	54.19
674.249	54.28
674.576	54.3
674.904	54.3
675.231	54.22
675.558	54.19
675.886	54.06
676.213	54.03
676.54	54.16
676.867	54.11
677.195	54.05
677.522	54
677.849	54.04
678.176	53.87
678.503	53.7
678.83	53.78
679.157	53.74
679.484	53.82
679.81	53.78
680.137	53.77
680.464	53.81
680.791	53.62
681.117	53.65
681.444	53.65
681.771	53.73
682.097	53.66
682.424	53.82
682.75	53.78
683.077	53.71
683.403	53.63
683.729	53.72
684.056	53.74
684.382	53.67
684.708	53.61
685.034	53.69
685.36	53.83
685.686	53.74
686.012	53.82
686.339	53.86
686.664	53.77
686.99	53.85
687.316	53.85
687.642	53.92
687.968	53.81
688.294	53.86
688.619	53.75
688.945	53.7
689.271	53.62
689.596	53.61
689.922	53.67
690.247	53.76
690.573	53.67
690.898	53.77
691.224	53.69
691.549	53.68
691.874	53.84
692.2	53.67
692.525	53.71
692.85	53.71
693.175	53.57
693.5	53.54
693.825	53.53
694.15	53.59
694.475	53.61
694.8	53.67
695.125	53.57
695.45	53.58
695.775	53.68
696.099	53.65
696.424	53.67
696.749	53.58
697.073	53.46
697.398	53.43
697.723	53.44
698.047	53.61
698.372	53.66
698.696	53.61
699.02	53.69
699.345	53.63
699.669	53.61
699.993	53.64
700.318	53.79
700.642	53.76
700.966	53.78
701.29	53.73
701.614	53.75
701.938	53.77
702.262	53.7
702.586	53.83
702.91	53.87
703.234	53.93
703.557	53.86
703.881	54.04
704.205	54.1
704.529	54.02
704.852	53.95
705.176	54.08
705.499	54.09
705.823	54.01
706.146	54.03
706.47	53.98
706.793	54.09
707.117	54.07
707.44	53.93
707.763	53.86
708.086	53.85
708.409	53.94
708.733	54.15
709.056	54.31
709.379	54.35
709.702	54.2
710.025	54.31
710.348	54.59
710.671	54.44
710.993	54.43
711.316	54.49
711.639	54.6
711.962	54.55
712.284	54.5
712.607	54.51
712.93	54.57
713.252	54.55
713.575	54.5
713.897	54.49
714.22	54.73
714.542	54.61
714.864	54.45
715.187	54.26
715.509	54.08
715.831	53.92
716.153	53.65
716.475	53.78
716.798	53.44
717.12	53.41
717.442	53.39
717.764	53.32
718.085	53.41
718.407	53.18
718.729	52.94
719.051	52.95
719.373	52.87
719.695	52.83
720.016	52.91
720.338	53.05
720.659	53.02
720.981	52.74
721.302	52.93
721.624	53.27
721.945	53.36
722.267	53.19
722.588	53.12
722.909	53.24
723.231	53.34
723.552	53.55
723.873	53.57
724.194	53.76
724.515	53.88
724.836	53.67
725.157	53.74
725.478	53.86
725.799	53.69
726.12	53.82
726.441	53.78
726.762	53.7
727.083	53.51
727.403	53.43
727.724	53.73
728.045	53.69
728.365	53.47
728.686	53.5
729.006	53.78
729.327	53.84
729.647	54.05
729.967	53.98
730.288	54.01
730.608	53.95
730.928	53.75
731.249	53.54
731.569	53.58
731.889	53.53
732.209	53.5
732.529	53.58
732.849	53.36
733.169	53.43
733.489	53.53
733.809	53.59
734.129	53.66
734.448	53.63
734.768	53.65
735.088	53.87
735.408	53.95
735.727	53.89
736.047	54.16
736.366	54
736.686	53.74
737.005	53.66
737.325	53.62
737.644	53.8
737.963	53.98
738.283	53.87
738.602	53.96
738.921	54.19
739.24	54.24
739.56	54.31
739.879	54.3
740.198	54.27
740.517	54.26
740.836	54.21
741.155	54.18
741.473	54.12
741.792	53.9
742.111	53.64
742.43	53.64
742.748	53.2
743.067	53.09
743.386	53.18
743.704	53.27
744.023	53.13
744.341	52.98
744.66	53.12
744.978	53.44
745.297	53.49
745.615	53.17
745.933	53.18
746.252	53.41
746.57	53.37
746.888	53.21
747.206	53.13
747.524	53.01
747.842	52.91
748.16	52.72
748.478	52.99
748.796	53.15
749.114	53.22
749.432	53.66
749.749	53.54
750.067	53.66
750.385	53.58
750.703	53.74
751.02	53.65
751.338	53.35
751.655	53.33
751.973	53.55
752.29	53.56
752.608	53.65
752.925	53.53
753.242	53.52
753.56	53.43
753.877	53.55
754.194	53.54
754.511	53.21
754.828	53.58
755.145	53.11
755.462	52.96
755.779	52.88
756.096	52.55
756.413	52.87
756.73	52.9
757.047	52.83
757.364	52.74
757.68	52.54
757.997	52.5
758.314	52.35
758.63	52.11
758.947	52.19
759.264	52.08
759.58	52.04
759.896	52.26
760.213	52.42
760.529	52.34
760.846	52.61
761.162	52.85
761.478	52.77
761.794	52.99
762.11	53.08
762.426	52.94
762.743	53.05
763.059	52.98
763.375	53.02
763.69	53.33
764.006	53.35
764.322	53.64
764.638	53.81
764.954	53.99
765.27	54.09
765.585	54.09
765.901	54.15
766.216	54.1
766.532	54.09
766.848	54.15
767.163	54.15
767.478	53.84
767.794	53.86
768.109	53.97
768.424	53.87
768.74	53.91
769.055	54.11
769.37	54.37
769.685	54.3
770	54.33
770.315	54.36
770.63	54.59
770.945	54.35
771.26	54.4
771.575	54.22
771.89	53.87
772.205	53.62
772.52	53.48
772.834	53.73
773.149	53.4
773.464	53.29
773.778	53.44
774.093	53.6
774.407	53.35
774.722	53.23
775.036	53.47
775.351	53.25
775.665	53
775.979	52.63
776.293	52.51
776.608	52.29
776.922	51.96
777.236	51.41
777.55	51.29
777.864	51.08
778.178	50.93
778.492	51.12
778.806	51.04
779.12	51.05
779.434	50.97
779.747	51.36
780.061	51.56
780.375	51.44
780.689	51.34
781.002	51.55
781.316	51.2
781.629	51.2
781.943	51.22
782.256	51.74
782.57	51.98
782.883	52.15
783.196	52.17
783.51	52.07
783.823	52.12
784.136	52.59
784.449	52.5
784.762	52.69
785.075	52.58
785.388	52.9
785.701	52.96
786.014	53.3
786.327	52.82
786.64	52.52
786.953	52.76
787.266	52.61
787.578	53
787.891	53.66
788.204	53.54
788.516	53.32
788.829	52.79
789.141	52.7
789.454	52.56
789.766	53.29
790.079	53.3
790.391	53.55
790.703	53.36
791.016	53.91
791.328	53.53
791.64	53.39
791.952	53.16
792.264	52.44
792.576	51.75
792.888	51.85
793.2	52.49
793.512	51.73
793.824	51.95
794.136	51.68
794.448	51.48
794.76	51.57
795.071	52.32
795.383	52.37
795.695	52.13
796.006	52.37
796.318	51.53
796.629	52.13
796.941	52.11
797.252	52.39
797.564	52.03
797.875	51.72
798.186	51.32
798.497	50.88
798.809	51.4
799.12	51.34
799.431	51.58
799.742	50.74
800.053	51.11
800.364	50.97
800.675	50.5
800.986	49.76
801.297	49.27
801.608	48.78
801.918	48.5
802.229	48.51
802.54	48.1
802.851	48.36
803.161	47.99
803.472	47.97
803.782	48.05
804.093	47.91
804.403	48.65
804.714	49.67
805.024	50.39
805.334	50.66
805.645	51.37
805.955	50.95
806.265	51.1
806.575	51.39
806.885	51.76
807.195	52.53
807.505	53.19
807.815	52.94
808.125	53.02
808.435	53.01
808.745	53.15
809.055	53.54
809.365	53.09
809.674	52.68
809.984	52.67
810.294	51.55
810.603	51.8
810.913	50.98
811.222	51.02
811.532	50.86
811.841	50.93
812.151	50.95
812.46	51.12
812.769	51.15
813.079	50.85
813.388	51.03
813.697	50.4
814.006	50.29
814.315	50.42
814.624	50.39
814.933	51.11
815.242	51.39
815.551	50.78
815.86	51.55
816.169	51.98
816.478	52.12
816.786	52.8
817.095	52.14
817.404	52.66
817.712	52.08
818.021	52.24
818.33	52.18
818.638	51.65
818.947	52.07
819.255	53.17
819.563	53.07
819.872	53.02
820.18	53.47
820.488	53.87
820.796	54.13
821.105	54.32
821.413	54.22
821.721	54.44
822.029	54.62
822.337	54.61
822.645	54.55
822.953	54.59
823.26	54.59
823.568	54.65
823.876	54.62
824.184	54.55
824.491	54.71
824.799	54.61
825.107	54.83
825.414	54.94
825.722	54.49
826.029	54.72
826.337	54.84
826.644	54.95
826.951	54.71
827.259	54.87
827.566	54.81
827.873	54.74
828.18	54.31
828.488	54.27
828.795	54.02
829.102	53.95
829.409	53.88
829.716	53.8
830.023	53.89
830.329	53.73
830.636	54.17
830.943	53.69
831.25	54.08
831.557	54.04
831.863	53.49
832.17	53.63
832.476	53.31
832.783	53.1
833.089	52.44
833.396	52.43
833.702	52.28
834.009	52.31
834.315	52.45
834.621	52.77
834.928	52.81
835.234	53.06
835.54	53
835.846	52.77
836.152	52.94
836.458	52.83
836.764	53.38
837.07	52.79
837.376	52.75
837.682	52.35
837.988	51.96
838.293	51.99
838.599	52.3
838.905	52.19
839.211	51.88
839.516	52.36
839.822	51.88
840.127	50.68
840.433	50.2
840.738	49.75
841.044	49
841.349	48.24
841.654	46.94
841.959	46.83
842.265	47.17
842.57	46.12
842.875	46.32
843.18	45.48
843.485	45.98
843.79	46.07
844.095	45.67
844.4	45.43
844.705	45.75
845.01	45.16
845.315	45.59
845.619	44.52
845.924	42.86
846.229	42.75
846.533	43.39
846.838	43.23
847.142	42.44
847.447	41.42
847.751	43.54
848.056	44.33
848.36	43.69
848.664	43.79
848.969	43.78
849.273	42.25
849.577	40.93
849.881	40.35
850.185	40.97
850.489	41.53
850.794	43.43
851.097	41.8
851.401	41.66
851.705	39.07
852.009	40.45
852.313	39.56
852.617	39.59
852.92	39.17
853.224	38.91
853.528	40.73
853.831	41.27
854.135	37.19
854.438	37.34
854.742	38.38
855.045	37.78
855.349	39.13
855.652	40.04
855.955	39.98
856.259	41.69
856.562	41.81
856.865	41.68
857.168	38.87
857.471	38.68
857.774	38.46
858.077	40.11
858.38	39.42
858.683	38.86
858.986	39.39
859.289	40.1
859.592	40.42
859.894	37.92
860.197	38.31
860.5	39.44
860.802	38.79
861.105	36.44
861.407	35.24
861.71	34.44
862.012	35.13
862.315	35.14
862.617	32.92
862.919	33.04
863.222	33.35
863.524	35.08
863.826	37.97
864.128	37.33
864.43	37.22
864.732	37.55
865.034	39
865.336	39.07
865.638	39.2
865.94	38.41
866.242	39.08
866.544	39.75
866.846	37.53
867.147	39.18
867.449	40.96
867.751	41.72
868.052	39.86
868.354	39
868.655	41.65
868.957	42.7
869.258	41.57
869.56	41.63
869.861	41.19
870.162	38.4
870.463	40.9
870.765	41.45
871.066	41.7
871.367	42.33
871.668	42.66
871.969	41.82
872.27	42.85
872.571	44.79
872.872	44.02
873.173	47.44
873.473	47.62
873.774	46.19
874.075	45.68
874.376	47.74
874.676	47.22
874.977	46.85
875.277	45.55
875.578	45.17
875.878	44.69
876.179	44.08
876.479	45.85
876.78	43.86
877.08	43.7
877.38	43.88
877.68	44.55
877.981	44
878.281	44.76
878.581	43.46
