Data from BA28300_Reflection_00012.txt Node
Date: Mon Nov 18 15:58:25 EST 2019
User: vgr7
Spectrometer: USB2G7710
Scans to average: 3
Trigger mode: 4
Integration Time (sec): 2.000000E-2
Electric dark correction enabled: true
Boxcar width: 10
XAxis mode: Wavelengths
Number of Pixels in Spectrum: 2048
>>>>>Begin Spectral Data<<<<<
177.721	-832.11
178.105	-1841.18
178.488	148.21
178.871	115.23
179.254	359.52
179.636	34.28
180.019	-35.02
180.402	58.33
180.785	1.16
181.168	54.94
181.55	257.89
181.933	130.72
182.316	139.75
182.698	116.26
183.081	149.29
183.463	211.29
183.846	213.99
184.228	182.9
184.611	281.21
184.993	-2646.48
185.376	-12782.35
185.758	1063.1
186.14	1023.88
186.522	555.3
186.904	660.57
187.287	1432.05
187.669	-350.68
188.051	-2227.1
188.433	7478.38
188.815	-384.89
189.197	-508.62
189.579	-456.83
189.961	-1202.25
190.342	-1710.57
190.724	-578.3
191.106	-667.89
191.488	-539.08
191.869	-713.29
192.251	-1145.13
192.633	-1435.12
193.014	1228.28
193.396	634.01
193.777	-1469.4
194.159	1934.29
194.54	-21605.88
194.922	2039.23
195.303	-4585.39
195.684	-5350.7
196.065	-605.57
196.447	-348.18
196.828	-835.69
197.209	-378.39
197.59	-577.42
197.971	-328.57
198.352	-109.53
198.733	-82.7
199.114	-60.59
199.495	-57.05
199.876	-16.74
200.257	-13.31
200.638	-35.69
201.018	-52.81
201.399	-63.5
201.78	-49.03
202.16	-81.33
202.541	-103.36
202.922	-214.54
203.302	-368.95
203.683	-534.74
204.063	-386.77
204.444	-336.32
204.824	-412.49
205.204	-500
205.585	-328.57
205.965	-285.3
206.345	-463.48
206.725	-1107.06
207.106	-4311.76
207.486	-1793.37
207.866	-7815.66
208.246	-1435.33
208.626	-889.06
209.006	-460.15
209.386	-571.89
209.766	-852.32
210.145	-511.33
210.525	-433.29
210.905	-257.49
211.285	-247.49
211.664	-200.1
212.044	-209.22
212.424	-228.53
212.803	-200.11
213.183	-192.11
213.562	-193.6
213.942	-217.19
214.321	-176.48
214.701	-192.87
215.08	-187.04
215.459	-153.56
215.838	-127.34
216.218	-119.07
216.597	-101.44
216.976	-106.81
217.355	-90.8
217.734	-70.14
218.113	-77.39
218.492	-47.48
218.871	-64.6
219.25	-52.36
219.629	-74.35
220.008	-68.93
220.387	-69.68
220.766	-65.92
221.144	-69.36
221.523	-79.51
221.902	-72
222.28	-76.92
222.659	-70.81
223.037	-52.07
223.416	-47.7
223.794	-56.16
224.173	-46.47
224.551	-45.35
224.929	-46.3
225.308	-34.74
225.686	-30.29
226.064	-25.07
226.442	-31.85
226.821	-24.48
227.199	-21.92
227.577	-15.74
227.955	-17.64
228.333	-16.85
228.711	-14.72
229.089	-12.91
229.467	-10.54
229.845	-10.33
230.222	-8.04
230.6	-6.13
230.978	-7.23
231.356	-8.39
231.733	-7.29
232.111	-6.53
232.488	-5.84
232.866	-5.92
233.243	-7.06
233.621	-8.58
233.998	-8.85
234.376	-6.52
234.753	-6.88
235.13	-7.68
235.508	-8.34
235.885	-8.18
236.262	-7.01
236.639	-5.37
237.016	-3.54
237.393	-2.07
237.77	-1.27
238.147	-1.29
238.524	-0.76
238.901	-0.37
239.278	0.46
239.655	2.06
240.032	1.86
240.409	1.67
240.785	1.97
241.162	2.31
241.539	2.41
241.915	2.32
242.292	1.76
242.668	1.95
243.045	2.34
243.421	2.97
243.798	3.06
244.174	3.31
244.551	3.13
244.927	3.07
245.303	2.97
245.679	2.9
246.056	2.96
246.432	2.99
246.808	3.26
247.184	3.07
247.56	2.41
247.936	2.3
248.312	2.51
248.688	2.68
249.064	2.44
249.44	2.38
249.815	2.65
250.191	3
250.567	2.9
250.943	2.77
251.318	2.74
251.694	2.54
252.069	2.32
252.445	2.41
252.82	2.37
253.196	1.98
253.571	2.17
253.947	2.13
254.322	2.44
254.697	2.29
255.073	2.45
255.448	2.55
255.823	2.83
256.198	2.74
256.573	2.84
256.948	3.32
257.323	3.45
257.698	3.37
258.073	3.16
258.448	3.31
258.823	3.15
259.198	3.04
259.573	3.34
259.948	3.29
260.322	3.16
260.697	2.89
261.072	3.07
261.446	2.95
261.821	2.94
262.195	2.88
262.57	2.85
262.944	2.73
263.319	2.85
263.693	2.77
264.067	2.76
264.442	2.57
264.816	2.44
265.19	2.33
265.564	2.19
265.938	2.13
266.313	2.11
266.687	2.37
267.061	2.54
267.435	2.51
267.809	2.67
268.183	2.52
268.556	2.71
268.93	2.82
269.304	2.93
269.678	3.01
270.051	3.09
270.425	3.25
270.799	3.15
271.172	3.13
271.546	3.09
271.919	2.98
272.293	3.02
272.666	2.91
273.04	2.95
273.413	2.99
273.787	3.03
274.16	3.02
274.533	3.02
274.906	2.81
275.279	2.69
275.653	2.73
276.026	2.86
276.399	2.87
276.772	2.92
277.145	2.94
277.518	2.92
277.891	2.86
278.263	2.71
278.636	2.87
279.009	2.79
279.382	2.92
279.755	3.16
280.127	3.35
280.5	3.49
280.872	3.5
281.245	3.58
281.617	3.64
281.99	3.69
282.362	3.64
282.735	3.57
283.107	3.63
283.479	3.72
283.852	3.88
284.224	3.86
284.596	3.82
284.968	3.8
285.34	3.93
285.713	3.8
286.085	3.72
286.457	3.77
286.829	3.83
287.201	3.82
287.572	3.69
287.944	3.52
288.316	3.5
288.688	3.39
289.06	3.34
289.431	3.41
289.803	3.48
290.175	3.48
290.546	3.69
290.918	3.63
291.289	3.56
291.661	3.45
292.032	3.59
292.403	3.47
292.775	3.46
293.146	3.4
293.517	3.41
293.889	3.57
294.26	3.62
294.631	3.79
295.002	3.74
295.373	3.79
295.744	3.93
296.115	3.86
296.486	3.88
296.857	3.91
297.228	3.94
297.599	3.86
297.97	3.86
298.34	3.83
298.711	3.94
299.082	3.74
299.452	3.8
299.823	3.86
300.194	3.94
300.564	3.82
300.935	3.82
301.305	3.69
301.676	3.63
302.046	3.48
302.416	3.42
302.787	3.54
303.157	3.63
303.527	3.58
303.897	3.61
304.267	3.87
304.637	3.96
305.008	3.94
305.378	3.97
305.748	4
306.117	4.04
306.487	4.06
306.857	4.32
307.227	4.35
307.597	4.21
307.967	4.21
308.336	4.31
308.706	4.4
309.076	4.67
309.445	4.75
309.815	4.9
310.184	4.9
310.554	4.91
310.923	4.82
311.293	4.86
311.662	4.96
312.031	4.78
312.401	4.84
312.77	4.88
313.139	4.91
313.508	4.91
313.877	4.87
314.246	4.93
314.616	4.85
314.985	4.85
315.353	4.79
315.722	4.86
316.091	4.86
316.46	4.69
316.829	4.71
317.198	4.74
317.567	4.6
317.935	4.55
318.304	4.37
318.672	4.4
319.041	4.49
319.41	4.43
319.778	4.63
320.147	4.44
320.515	4.28
320.883	4.26
321.252	4.41
321.62	4.55
321.988	4.49
322.357	4.54
322.725	4.6
323.093	4.7
323.461	4.67
323.829	4.77
324.197	4.84
324.565	4.79
324.933	4.77
325.301	4.87
325.669	4.95
326.037	5.03
326.405	4.99
326.772	4.85
327.14	4.88
327.508	4.79
327.875	4.87
328.243	4.99
328.61	4.97
328.978	4.93
329.346	4.88
329.713	4.8
330.08	4.97
330.448	4.87
330.815	4.84
331.182	4.73
331.55	4.82
331.917	4.84
332.284	4.95
332.651	4.97
333.018	4.95
333.385	4.94
333.752	5.01
334.119	5.08
334.486	5.12
334.853	5.06
335.22	5.07
335.587	5.08
335.954	4.99
336.32	5.03
336.687	5.12
337.054	5.17
337.42	5.25
337.787	5.21
338.153	5.23
338.52	5.33
338.886	5.41
339.253	5.28
339.619	5.29
339.986	5.25
340.352	5.24
340.718	5.33
341.084	5.34
341.451	5.35
341.817	5.38
342.183	5.39
342.549	5.43
342.915	5.45
343.281	5.59
343.647	5.59
344.013	5.52
344.379	5.38
344.745	5.37
345.11	5.39
345.476	5.42
345.842	5.47
346.208	5.34
346.573	5.44
346.939	5.51
347.304	5.6
347.67	5.49
348.035	5.5
348.401	5.47
348.766	5.54
349.132	5.57
349.497	5.57
349.862	5.68
350.228	5.7
350.593	5.68
350.958	5.64
351.323	5.78
351.688	5.91
352.053	6.02
352.418	6.04
352.783	6.13
353.148	6.06
353.513	6.04
353.878	6.12
354.243	6.09
354.608	6.12
354.972	6.02
355.337	6.17
355.702	6.26
356.066	6.28
356.431	6.21
356.795	6.22
357.16	6.18
357.524	6.12
357.889	6.08
358.253	6.1
358.618	6.11
358.982	6.04
359.346	6.01
359.71	6
360.075	5.97
360.439	5.96
360.803	5.93
361.167	5.92
361.531	5.95
361.895	5.94
362.259	5.92
362.623	5.96
362.987	5.95
363.351	5.92
363.714	5.85
364.078	5.82
364.442	5.75
364.806	5.78
365.169	5.77
365.533	5.81
365.896	5.79
366.26	5.72
366.623	5.67
366.987	5.7
367.35	5.67
367.714	5.69
368.077	5.62
368.44	5.65
368.803	5.66
369.167	5.62
369.53	5.54
369.893	5.51
370.256	5.51
370.619	5.48
370.982	5.46
371.345	5.51
371.708	5.55
372.071	5.48
372.434	5.38
372.797	5.38
373.159	5.33
373.522	5.28
373.885	5.32
374.247	5.35
374.61	5.26
374.973	5.21
375.335	5.14
375.698	5.12
376.06	5.04
376.423	4.98
376.785	4.99
377.147	5.06
377.51	5.08
377.872	5.03
378.234	4.95
378.596	4.9
378.958	4.81
379.321	4.81
379.683	4.87
380.045	4.89
380.407	4.8
380.769	4.77
381.13	4.77
381.492	4.72
381.854	4.68
382.216	4.64
382.578	4.61
382.939	4.59
383.301	4.57
383.663	4.56
384.024	4.54
384.386	4.53
384.747	4.52
385.109	4.47
385.47	4.46
385.832	4.44
386.193	4.41
386.554	4.39
386.916	4.34
387.277	4.29
387.638	4.32
387.999	4.33
388.36	4.31
388.721	4.29
389.082	4.27
389.443	4.24
389.804	4.25
390.165	4.26
390.526	4.25
390.887	4.23
391.248	4.23
391.609	4.22
391.969	4.19
392.33	4.17
392.691	4.18
393.051	4.11
393.412	4.13
393.772	4.08
394.133	4.09
394.493	4.06
394.854	4.08
395.214	4.04
395.574	4.03
395.935	4
396.295	4.03
396.655	4.01
397.015	4
397.376	4
397.736	3.97
398.096	3.99
398.456	3.97
398.816	3.98
399.176	3.95
399.535	3.92
399.895	3.89
400.255	3.84
400.615	3.88
400.975	3.84
401.334	3.87
401.694	3.82
402.054	3.81
402.413	3.78
402.773	3.73
403.132	3.7
403.492	3.7
403.851	3.65
404.211	3.63
404.57	3.63
404.929	3.63
405.288	3.6
405.648	3.55
406.007	3.55
406.366	3.53
406.725	3.52
407.084	3.51
407.443	3.49
407.802	3.49
408.161	3.48
408.52	3.48
408.879	3.48
409.238	3.52
409.596	3.49
409.955	3.48
410.314	3.49
410.673	3.49
411.031	3.52
411.39	3.52
411.748	3.52
412.107	3.49
412.465	3.45
412.824	3.44
413.182	3.43
413.54	3.43
413.899	3.43
414.257	3.44
414.615	3.45
414.974	3.45
415.332	3.44
415.69	3.42
416.048	3.41
416.406	3.39
416.764	3.37
417.122	3.39
417.48	3.37
417.838	3.35
418.195	3.35
418.553	3.32
418.911	3.32
419.269	3.31
419.626	3.31
419.984	3.29
420.342	3.32
420.699	3.3
421.057	3.31
421.414	3.31
421.772	3.3
422.129	3.28
422.486	3.28
422.844	3.27
423.201	3.25
423.558	3.26
423.915	3.26
424.273	3.24
424.63	3.23
424.987	3.23
425.344	3.23
425.701	3.24
426.058	3.23
426.415	3.22
426.772	3.23
427.128	3.22
427.485	3.23
427.842	3.2
428.199	3.23
428.555	3.21
428.912	3.2
429.269	3.21
429.625	3.19
429.982	3.19
430.338	3.18
430.695	3.19
431.051	3.17
431.407	3.17
431.764	3.19
432.12	3.19
432.476	3.19
432.832	3.19
433.189	3.18
433.545	3.18
433.901	3.19
434.257	3.16
434.613	3.18
434.969	3.18
435.325	3.18
435.681	3.16
436.036	3.18
436.392	3.18
436.748	3.16
437.104	3.18
437.459	3.18
437.815	3.19
438.171	3.2
438.526	3.2
438.882	3.2
439.237	3.18
439.593	3.18
439.948	3.18
440.304	3.17
440.659	3.18
441.014	3.18
441.369	3.16
441.725	3.16
442.08	3.16
442.435	3.17
442.79	3.16
443.145	3.16
443.5	3.13
443.855	3.14
444.21	3.15
444.565	3.14
444.92	3.14
445.275	3.12
445.629	3.12
445.984	3.12
446.339	3.11
446.693	3.11
447.048	3.1
447.403	3.1
447.757	3.09
448.112	3.08
448.466	3.08
448.82	3.08
449.175	3.1
449.529	3.09
449.883	3.09
450.238	3.09
450.592	3.1
450.946	3.11
451.3	3.08
451.654	3.08
452.008	3.06
452.362	3.05
452.716	3.04
453.07	3.05
453.424	3.04
453.778	3.05
454.132	3.06
454.486	3.05
454.839	3.06
455.193	3.08
455.547	3.08
455.9	3.09
456.254	3.1
456.607	3.1
456.961	3.09
457.314	3.08
457.668	3.09
458.021	3.07
458.375	3.07
458.728	3.09
459.081	3.08
459.434	3.08
459.787	3.09
460.141	3.1
460.494	3.1
460.847	3.11
461.2	3.1
461.553	3.08
461.906	3.09
462.259	3.1
462.611	3.13
462.964	3.13
463.317	3.14
463.67	3.13
464.022	3.13
464.375	3.12
464.728	3.13
465.08	3.12
465.433	3.13
465.785	3.13
466.138	3.11
466.49	3.13
466.843	3.13
467.195	3.12
467.547	3.13
467.899	3.14
468.252	3.15
468.604	3.16
468.956	3.17
469.308	3.18
469.66	3.17
470.012	3.14
470.364	3.16
470.716	3.14
471.068	3.14
471.42	3.15
471.772	3.16
472.123	3.18
472.475	3.2
472.827	3.21
473.178	3.22
473.53	3.21
473.882	3.23
474.233	3.24
474.585	3.26
474.936	3.25
475.288	3.24
475.639	3.25
475.99	3.24
476.342	3.26
476.693	3.25
477.044	3.25
477.395	3.25
477.746	3.24
478.097	3.22
478.448	3.24
478.8	3.23
479.15	3.22
479.501	3.21
479.852	3.21
480.203	3.21
480.554	3.22
480.905	3.22
481.255	3.22
481.606	3.22
481.957	3.21
482.307	3.23
482.658	3.23
483.009	3.24
483.359	3.24
483.709	3.24
484.06	3.24
484.41	3.24
484.761	3.24
485.111	3.24
485.461	3.25
485.811	3.25
486.162	3.26
486.512	3.26
486.862	3.26
487.212	3.25
487.562	3.25
487.912	3.25
488.262	3.26
488.612	3.26
488.961	3.26
489.311	3.26
489.661	3.27
490.011	3.26
490.36	3.26
490.71	3.28
491.06	3.28
491.409	3.28
491.759	3.27
492.108	3.28
492.458	3.29
492.807	3.3
493.157	3.31
493.506	3.31
493.855	3.34
494.204	3.35
494.554	3.37
494.903	3.37
495.252	3.39
495.601	3.42
495.95	3.42
496.299	3.41
496.648	3.42
496.997	3.43
497.346	3.44
497.695	3.45
498.043	3.47
498.392	3.49
498.741	3.51
499.09	3.55
499.438	3.56
499.787	3.58
500.135	3.59
500.484	3.62
500.832	3.66
501.181	3.67
501.529	3.68
501.878	3.73
502.226	3.76
502.574	3.77
502.923	3.78
503.271	3.82
503.619	3.89
503.967	3.91
504.315	3.94
504.663	3.97
505.011	4.01
505.359	4.02
505.707	4.07
506.055	4.12
506.403	4.19
506.751	4.23
507.098	4.26
507.446	4.3
507.794	4.32
508.141	4.35
508.489	4.41
508.837	4.48
509.184	4.5
509.531	4.56
509.879	4.63
510.226	4.69
510.574	4.73
510.921	4.78
511.268	4.84
511.616	4.89
511.963	4.96
512.31	5.02
512.657	5.11
513.004	5.15
513.351	5.2
513.698	5.24
514.045	5.28
514.392	5.35
514.739	5.4
515.086	5.48
515.432	5.55
515.779	5.59
516.126	5.64
516.473	5.71
516.819	5.76
517.166	5.8
517.512	5.86
517.859	5.94
518.205	5.98
518.552	6.04
518.898	6.09
519.245	6.14
519.591	6.18
519.937	6.21
520.283	6.27
520.629	6.33
520.976	6.41
521.322	6.5
521.668	6.58
522.014	6.66
522.36	6.75
522.706	6.82
523.052	6.92
523.398	7.06
523.743	7.15
524.089	7.28
524.435	7.39
524.781	7.49
525.126	7.59
525.472	7.69
525.817	7.78
526.163	7.87
526.509	7.95
526.854	8.03
527.199	8.12
527.545	8.21
527.89	8.29
528.235	8.37
528.581	8.46
528.926	8.55
529.271	8.65
529.616	8.72
529.961	8.83
530.306	8.93
530.651	9.03
530.996	9.15
531.341	9.26
531.686	9.39
532.031	9.51
532.376	9.63
532.721	9.77
533.065	9.92
533.41	10.06
533.755	10.23
534.099	10.4
534.444	10.55
534.788	10.72
535.133	10.89
535.477	11.05
535.822	11.21
536.166	11.39
536.51	11.58
536.855	11.81
537.199	12.04
537.543	12.27
537.887	12.48
538.231	12.72
538.576	12.94
538.92	13.18
539.264	13.41
539.608	13.64
539.951	13.85
540.295	14.04
540.639	14.25
540.983	14.42
541.327	14.63
541.671	14.8
542.014	15
542.358	15.19
542.701	15.38
543.045	15.59
543.389	15.81
543.732	16.03
544.075	16.25
544.419	16.47
544.762	16.71
545.105	16.95
545.449	17.2
545.792	17.49
546.135	17.76
546.478	18.03
546.821	18.32
547.165	18.64
547.508	18.95
547.851	19.29
548.194	19.63
548.536	19.92
548.879	20.27
549.222	20.6
549.565	20.92
549.908	21.27
550.25	21.59
550.593	21.92
550.936	22.25
551.278	22.55
551.621	22.88
551.963	23.2
552.306	23.51
552.648	23.83
552.991	24.19
553.333	24.48
553.675	24.84
554.017	25.15
554.36	25.42
554.702	25.73
555.044	25.98
555.386	26.28
555.728	26.57
556.07	26.89
556.412	27.2
556.754	27.5
557.096	27.79
557.438	28.11
557.78	28.41
558.121	28.72
558.463	29.04
558.805	29.32
559.147	29.6
559.488	29.88
559.83	30.17
560.171	30.41
560.513	30.73
560.854	30.98
561.196	31.29
561.537	31.56
561.878	31.81
562.22	32.14
562.561	32.39
562.902	32.71
563.243	32.99
563.584	33.25
563.925	33.55
564.266	33.77
564.607	34.03
564.948	34.3
565.289	34.57
565.63	34.81
565.971	35.02
566.312	35.26
566.653	35.52
566.993	35.73
567.334	35.94
567.675	36.18
568.015	36.43
568.356	36.65
568.696	36.92
569.037	37.17
569.377	37.33
569.718	37.62
570.058	37.82
570.398	37.99
570.739	38.16
571.079	38.33
571.419	38.6
571.759	38.79
572.099	38.96
572.439	39.11
572.779	39.29
573.119	39.5
573.459	39.69
573.799	39.84
574.139	40.02
574.479	40.2
574.819	40.32
575.158	40.5
575.498	40.64
575.838	40.78
576.177	40.87
576.517	41.04
576.856	41.18
577.196	41.33
577.535	41.55
577.875	41.76
578.214	41.96
578.553	42.09
578.893	42.23
579.232	42.4
579.571	42.62
579.91	42.78
580.25	42.95
580.589	43.05
580.928	43.26
581.267	43.44
581.606	43.54
581.945	43.72
582.283	43.78
582.622	43.9
582.961	44.09
583.3	44.29
583.639	44.49
583.977	44.63
584.316	44.82
584.654	44.92
584.993	45.02
585.332	45.18
585.67	45.25
586.008	45.4
586.347	45.56
586.685	45.68
587.024	45.8
587.362	45.88
587.7	46.02
588.038	46.11
588.376	46.18
588.715	46.37
589.053	46.47
589.391	46.62
589.729	46.73
590.067	46.85
590.404	46.95
590.742	47.07
591.08	47.12
591.418	47.21
591.756	47.28
592.093	47.41
592.431	47.53
592.769	47.71
593.106	47.72
593.444	47.81
593.781	47.91
594.119	48
594.456	48.15
594.793	48.21
595.131	48.33
595.468	48.45
595.805	48.53
596.143	48.68
596.48	48.73
596.817	48.82
597.154	48.9
597.491	49.01
597.828	49.08
598.165	49.22
598.502	49.22
598.839	49.34
599.176	49.39
599.512	49.42
599.849	49.53
600.186	49.64
600.523	49.74
600.859	49.77
601.196	49.84
601.532	49.9
601.869	49.99
602.205	50.07
602.542	50.19
602.878	50.27
603.215	50.38
603.551	50.46
603.887	50.55
604.223	50.58
604.56	50.67
604.896	50.7
605.232	50.77
605.568	50.9
605.904	50.9
606.24	50.99
606.576	51.1
606.912	51.15
607.248	51.3
607.583	51.37
607.919	51.45
608.255	51.57
608.591	51.69
608.926	51.79
609.262	51.84
609.597	51.87
609.933	51.9
610.268	51.9
610.604	51.96
610.939	51.99
611.275	52.04
611.61	52.03
611.945	52.07
612.281	52.16
612.616	52.27
612.951	52.46
613.286	52.54
613.621	52.52
613.956	52.53
614.291	52.52
614.626	52.61
614.961	52.66
615.296	52.71
615.631	52.75
615.966	52.81
616.3	52.9
616.635	53.04
616.97	53.08
617.304	53.15
617.639	53.22
617.973	53.35
618.308	53.47
618.642	53.56
618.977	53.67
619.311	53.61
619.646	53.61
619.98	53.68
620.314	53.78
620.648	53.88
620.983	53.92
621.317	54.01
621.651	53.96
621.985	53.97
622.319	53.99
622.653	53.99
622.987	54.03
623.321	54.04
623.655	53.96
623.988	54.02
624.322	54.05
624.656	54.11
624.99	54.06
625.323	54.06
625.657	54.02
625.99	54.1
626.324	54.12
626.657	54.14
626.991	54.16
627.324	54.16
627.658	54.14
627.991	54.14
628.324	54.13
628.657	54.23
628.991	54.4
629.324	54.48
629.657	54.5
629.99	54.61
630.323	54.61
630.656	54.64
630.989	54.66
631.322	54.67
631.655	54.75
631.987	54.81
632.32	54.87
632.653	55.01
632.986	55.01
633.318	55.1
633.651	55.17
633.984	55.14
634.316	55.17
634.649	55.19
634.981	55.24
635.313	55.29
635.646	55.32
635.978	55.26
636.31	55.19
636.643	55.29
636.975	55.34
637.307	55.44
637.639	55.53
637.971	55.59
638.303	55.55
638.635	55.55
638.967	55.67
639.299	55.57
639.631	55.58
639.963	55.61
640.295	55.61
640.626	55.62
640.958	55.74
641.29	55.73
641.621	55.82
641.953	55.91
642.285	55.96
642.616	55.94
642.948	56.04
643.279	56.17
643.61	56.14
643.942	56.1
644.273	56.12
644.604	56.11
644.936	56.12
645.267	56.29
645.598	56.34
645.929	56.35
646.26	56.55
646.591	56.58
646.922	56.51
647.253	56.52
647.584	56.64
647.915	56.61
648.245	56.66
648.576	56.69
648.907	56.78
649.238	56.87
649.568	56.94
649.899	56.84
650.229	56.89
650.56	56.9
650.89	56.99
651.221	57.04
651.551	57.02
651.882	57.09
652.212	57.02
652.542	56.97
652.872	56.99
653.203	56.98
653.533	56.94
653.863	57.12
654.193	57.17
654.523	57.13
654.853	57.11
655.183	57.19
655.513	57.33
655.843	57.29
656.172	57.34
656.502	57.25
656.832	57.33
657.162	57.4
657.491	57.48
657.821	57.48
658.15	57.48
658.48	57.59
658.809	57.67
659.139	57.73
659.468	57.72
659.798	57.68
660.127	57.74
660.456	57.8
660.785	57.87
661.115	57.87
661.444	57.81
661.773	57.86
662.102	57.83
662.431	57.8
662.76	57.85
663.089	57.76
663.418	57.89
663.747	57.85
664.076	57.82
664.404	57.85
664.733	57.86
665.062	57.88
665.39	57.84
665.719	57.82
666.048	57.96
666.376	58.11
666.705	58.09
667.033	58.04
667.362	58.18
667.69	57.91
668.018	58
668.347	58.14
668.675	58.28
669.003	58.33
669.331	58.31
669.659	58.35
669.987	58.38
670.315	58.41
670.643	58.63
670.971	58.6
671.299	58.65
671.627	58.62
671.955	58.65
672.283	58.77
672.61	58.71
672.938	58.56
673.266	58.52
673.593	58.61
673.921	58.72
674.249	58.55
674.576	58.82
674.904	58.83
675.231	58.8
675.558	58.68
675.886	58.57
676.213	58.57
676.54	58.42
676.867	58.35
677.195	58.33
677.522	58.23
677.849	58.27
678.176	58.29
678.503	58.34
678.83	58.32
679.157	58.24
679.484	58.25
679.81	58.26
680.137	58.26
680.464	58.29
680.791	58.22
681.117	58.15
681.444	58.07
681.771	57.98
682.097	57.95
682.424	58.07
682.75	58.3
683.077	58.27
683.403	58.39
683.729	58.55
684.056	58.59
684.382	58.59
684.708	58.52
685.034	58.6
685.36	58.59
685.686	58.56
686.012	58.59
686.339	58.66
686.664	58.73
686.99	58.81
687.316	58.85
687.642	58.87
687.968	59.04
688.294	59.03
688.619	59.1
688.945	59.14
689.271	59.06
689.596	58.88
689.922	59
690.247	59.01
690.573	58.99
690.898	59.07
691.224	59.05
691.549	59.01
691.874	58.89
692.2	58.82
692.525	58.95
692.85	59.07
693.175	59.12
693.5	59.14
693.825	59.02
694.15	59.11
694.475	59.2
694.8	59.13
695.125	59.24
695.45	59.24
695.775	59.24
696.099	59.21
696.424	59.25
696.749	59.32
697.073	59.35
697.398	59.38
697.723	59.38
698.047	59.44
698.372	59.48
698.696	59.44
699.02	59.41
699.345	59.32
699.669	59.23
699.993	59.18
700.318	59.21
700.642	59.33
700.966	59.22
701.29	59.19
701.614	59.36
701.938	59.35
702.262	59.51
702.586	59.44
702.91	59.57
703.234	59.44
703.557	59.58
703.881	59.64
704.205	59.55
704.529	59.39
704.852	59.28
705.176	59.36
705.499	59.27
705.823	59.42
706.146	59.44
706.47	59.5
706.793	59.43
707.117	59.53
707.44	59.39
707.763	59.4
708.086	59.25
708.409	59.11
708.733	59.16
709.056	59.01
709.379	59.18
709.702	59.14
710.025	59.41
710.348	59.23
710.671	59.18
710.993	59.32
711.316	59.48
711.639	59.57
711.962	59.58
712.284	59.76
712.607	59.83
712.93	59.84
713.252	59.81
713.575	59.97
713.897	59.76
714.22	59.86
714.542	60.02
714.864	60.26
715.187	60.32
715.509	60.05
715.831	60.04
716.153	59.93
716.475	60.11
716.798	60.03
717.12	60.1
717.442	60.06
717.764	60.13
718.085	60.2
718.407	60.05
718.729	60.05
719.051	59.9
719.373	59.81
719.695	59.82
720.016	60.01
720.338	60.02
720.659	60.1
720.981	60.1
721.302	60.06
721.624	59.92
721.945	59.96
722.267	60.34
722.588	60.24
722.909	60.24
723.231	59.99
723.552	59.77
723.873	59.72
724.194	59.7
724.515	59.69
724.836	59.48
725.157	59.49
725.478	59.68
725.799	59.94
726.12	59.88
726.441	60.21
726.762	60.44
727.083	60.43
727.403	60.53
727.724	60.61
728.045	60.59
728.365	60.72
728.686	60.73
729.006	60.49
729.327	60.67
729.647	60.62
729.967	60.54
730.288	60.61
730.608	60.56
730.928	60.43
731.249	60.17
731.569	60.19
731.889	60.25
732.209	60.36
732.529	60.36
732.849	60.37
733.169	60.08
733.489	59.91
733.809	59.69
734.129	59.57
734.448	59.43
734.768	59.23
735.088	59.5
735.408	59.53
735.727	59.71
736.047	59.69
736.366	59.76
736.686	59.65
737.005	59.72
737.325	59.77
737.644	59.97
737.963	60
738.283	60.36
738.602	60.48
738.921	60.4
739.24	60.53
739.56	60.58
739.879	60.76
740.198	60.44
740.517	60.72
740.836	61.04
741.155	61.38
741.473	61.2
741.792	60.72
742.111	60.81
742.43	60.59
742.748	60.41
743.067	60.42
743.386	60.63
743.704	60.71
744.023	60.43
744.341	60.48
744.66	60.68
744.978	60.48
745.297	60.74
745.615	60.56
745.933	60.36
746.252	60.24
746.57	60.1
746.888	60.17
747.206	59.98
747.524	59.45
747.842	59.19
748.16	59.62
748.478	60.2
748.796	60.12
749.114	60.52
749.432	60.63
749.749	60.62
750.067	60.76
750.385	60.83
750.703	61.04
751.02	60.96
751.338	60.87
751.655	60.76
751.973	60.66
752.29	60.95
752.608	60.93
752.925	60.94
753.242	61
753.56	61.26
753.877	61.21
754.194	61.26
754.511	60.98
754.828	61.19
755.145	60.88
755.462	60.78
755.779	60.53
756.096	60.75
756.413	60.8
756.73	60.87
757.047	60.42
757.364	60.36
757.68	60.26
757.997	60.42
758.314	60.32
758.63	60.17
758.947	59.87
759.264	59.71
759.58	59.78
759.896	59.68
760.213	59.45
760.529	59.91
760.846	60.11
761.162	60.37
761.478	60.31
761.794	59.93
762.11	60.08
762.426	60.31
762.743	60.31
763.059	60.3
763.375	60.16
763.69	60.33
764.006	60.56
764.322	60.87
764.638	60.72
764.954	60.85
765.27	60.93
765.585	60.91
765.901	60.99
766.216	61.13
766.532	61.38
766.848	61.46
767.163	61.25
767.478	61.23
767.794	61.35
768.109	61.12
768.424	61.07
768.74	60.97
769.055	60.78
769.37	60.87
769.685	61.05
770	61.47
770.315	61.61
770.63	61.84
770.945	61.34
771.26	61.1
771.575	60.9
771.89	60.69
772.205	60.61
772.52	60.63
772.834	60.66
773.149	60.53
773.464	60.63
773.778	60.61
774.093	60.64
774.407	60.46
774.722	60.68
775.036	60.63
775.351	60.24
775.665	60.1
775.979	59.66
776.293	59.61
776.608	59.12
776.922	59.41
777.236	58.93
777.55	59.14
777.864	59.73
778.178	59.81
778.492	59.46
778.806	59.61
779.12	59.71
779.434	60.06
779.747	60.11
780.061	59.83
780.375	59.59
780.689	59.21
781.002	59.08
781.316	58.85
781.629	59.49
781.943	59.88
782.256	59.85
782.57	60.02
782.883	60.23
783.196	60.01
783.51	59.95
783.823	59.66
784.136	59.77
784.449	59.53
784.762	59.7
785.075	60.04
785.388	60.33
785.701	60.46
786.014	59.28
786.327	59.97
786.64	60.29
786.953	60.58
787.266	61.1
787.578	61.57
787.891	61.87
788.204	62.13
788.516	61.85
788.829	62
789.141	62.58
789.454	62.62
789.766	63.04
790.079	62.74
790.391	63.06
790.703	63.75
791.016	63.43
791.328	63.41
791.64	63.26
791.952	62.87
792.264	62.37
792.576	62.92
792.888	61.91
793.2	62.03
793.512	62.39
793.824	62.1
794.136	61.4
794.448	60.87
794.76	60.49
795.071	60.72
795.383	60.38
795.695	59.78
796.006	59.47
796.318	59.68
796.629	59.82
796.941	59.35
797.252	59.02
797.564	59.76
797.875	59.78
798.186	59.83
798.497	60.22
798.809	60.39
799.12	60.75
799.431	60.61
799.742	60.49
800.053	60.16
800.364	60.58
800.675	61.04
800.986	61.53
801.297	62.08
801.608	61.92
801.918	62.04
802.229	62.03
802.54	61.43
802.851	61.27
803.161	61.52
803.472	62.14
803.782	61.54
804.093	60.91
804.403	60.6
804.714	60.92
805.024	61.26
805.334	60.97
805.645	60.7
805.955	60.57
806.265	60.32
806.575	60.09
806.885	60.14
807.195	59.8
807.505	59.91
807.815	59.54
808.125	59.33
808.435	59.83
808.745	59.73
809.055	60.06
809.365	60.35
809.674	60.23
809.984	59.87
810.294	60.24
810.603	60.82
810.913	60.69
811.222	60.98
811.532	60.32
811.841	61.08
812.151	61.35
812.46	61.37
812.769	61.65
813.079	62.12
813.388	61.69
813.697	61.22
814.006	60.87
814.315	60.03
814.624	60.83
814.933	60.2
815.242	60.15
815.551	59.79
815.86	59.14
816.169	58.61
816.478	58.16
816.786	58.01
817.095	58.24
817.404	58.72
817.712	58.49
818.021	59.17
818.33	58.71
818.638	58.25
818.947	58.87
819.255	59.66
819.563	59.71
819.872	59.96
820.18	60.7
820.488	60.89
820.796	61.14
821.105	61.35
821.413	61.63
821.721	61.61
822.029	61.88
822.337	61.69
822.645	61.91
822.953	62.09
823.26	62.27
823.568	62.31
823.876	62.24
824.184	62.16
824.491	62.32
824.799	62.44
825.107	62.59
825.414	62.76
825.722	62.67
826.029	62.65
826.337	62.51
826.644	62.54
826.951	62.48
827.259	62.56
827.566	62.3
827.873	62.31
828.18	62.05
828.488	61.95
828.795	62.45
829.102	62.18
829.409	62.27
829.716	61.67
830.023	61.3
830.329	61.18
830.636	61.5
830.943	61.03
831.25	60.88
831.557	61.06
831.863	60.74
832.17	60.72
832.476	60.89
832.783	61.45
833.089	61.23
833.396	61.2
833.702	61.18
834.009	61.45
834.315	61.89
834.621	62.41
834.928	62.32
835.234	61.9
835.54	62.41
835.846	62.55
836.152	62.86
836.458	62.8
836.764	63.01
837.07	62.86
837.376	62.63
837.682	62.74
837.988	62.64
838.293	62.49
838.599	62.16
838.905	61.44
839.211	60.95
839.516	60.62
839.822	60.77
840.127	59.84
840.433	59.16
840.738	57.73
841.044	58.01
841.349	58.1
841.654	57.89
841.959	57.6
842.265	56.82
842.57	56.68
842.875	56.35
843.18	55.95
843.485	55
843.79	54.62
844.095	53.54
844.4	53.76
844.705	53.58
845.01	53.79
845.315	54.68
845.619	55.61
845.924	55.67
846.229	55.82
846.533	57.31
846.838	57.8
847.142	57.41
847.447	57.86
847.751	57.92
848.056	59.01
848.36	59.17
848.664	58.94
848.969	60.07
849.273	62.35
849.577	63.75
849.881	65.83
850.185	66.85
850.489	68.79
850.794	68.23
851.097	66.44
851.401	67.85
851.705	67.05
852.009	65.57
852.313	65.7
852.617	65.14
852.92	63.59
853.224	63.95
853.528	63.73
853.831	62.07
854.135	60.71
854.438	61.64
854.742	59.02
855.045	59.82
855.349	60.46
855.652	58.24
855.955	57.19
856.259	56.43
856.562	55.93
856.865	55.49
857.168	54.13
857.471	56.56
857.774	55.02
858.077	56.28
858.38	55.91
858.683	57.84
858.986	57.28
859.289	59.53
859.592	60.54
859.894	61.1
860.197	61.06
860.5	64.03
860.802	62.52
861.105	63.41
861.407	63.13
861.71	62.77
862.012	62.1
862.315	62.76
862.617	63.63
862.919	62.03
863.222	62.73
863.524	63.15
863.826	62.23
864.128	60.92
864.43	59.29
864.732	59.47
865.034	55.92
865.336	53.86
865.638	53.43
865.94	51.58
866.242	51.13
866.544	51.31
866.846	49.84
867.147	47.08
867.449	47.49
867.751	46.14
868.052	47.13
868.354	49.87
868.655	49.69
868.957	47.8
869.258	49.31
869.56	49.58
869.861	49.81
870.162	49.47
870.463	52.43
870.765	54.1
871.066	55.16
871.367	57.24
871.668	59.97
871.969	59.53
872.27	58.89
872.571	61.98
872.872	60.81
873.173	60.41
873.473	63.96
873.774	65.82
874.075	66.39
874.376	65.75
874.676	64.91
874.977	65.74
875.277	68.21
875.578	66.32
875.878	64.72
876.179	65.35
876.479	66.6
876.78	64.53
877.08	64.16
877.38	63.33
877.68	63.23
877.981	63.69
878.281	63.88
878.581	66.83
