Data from BA28469_Reflection_00004.txt Node
Date: Mon Nov 18 15:17:49 EST 2019
User: vgr7
Spectrometer: USB2G7710
Scans to average: 3
Trigger mode: 4
Integration Time (sec): 2.000000E-2
Electric dark correction enabled: true
Boxcar width: 10
XAxis mode: Wavelengths
Number of Pixels in Spectrum: 2048
>>>>>Begin Spectral Data<<<<<
177.721	175.64
178.105	-15233.33
178.488	-128.73
178.871	-124.53
179.254	-85.92
179.636	21766.67
180.019	36.61
180.402	247.37
180.785	-216.74
181.168	-52.71
181.55	-17.37
181.933	68.5
182.316	62.96
182.698	35.46
183.081	35.95
183.463	10.21
183.846	-75.03
184.228	-292.33
184.611	-126.67
184.993	-13344.44
185.376	534.6
185.758	172.26
186.14	129.19
186.522	483.65
186.904	115.45
187.287	-79.94
187.669	91.36
188.051	-139.37
188.433	-16.41
188.815	-40.43
189.197	-49.8
189.579	-32.23
189.961	-36.61
190.342	-40.34
190.724	-39.03
191.106	-40.73
191.488	-33.71
191.869	-47.55
192.251	-35.31
192.633	-21.39
193.014	-23.62
193.396	-32.24
193.777	-32.38
194.159	-29.77
194.54	-9.98
194.922	-4.85
195.303	-7.88
195.684	-3.99
196.065	11.13
196.447	16.48
196.828	16.73
197.209	41.91
197.59	56.15
197.971	92.52
198.352	102.16
198.733	180.97
199.114	98.3
199.495	90.23
199.876	92.12
200.257	98.24
200.638	92.66
201.018	77.65
201.399	79.54
201.78	96.49
202.16	127
202.541	174.3
202.922	198.79
203.302	194.28
203.683	169.47
204.063	153.88
204.444	150.64
204.824	144.49
205.204	159.71
205.585	113.26
205.965	76.45
206.345	71.83
206.725	50.99
207.106	75.81
207.486	55.63
207.866	86.95
208.246	72.54
208.626	70.95
209.006	123.84
209.386	80.34
209.766	91.07
210.145	66.86
210.525	59.34
210.905	55.22
211.285	65.67
211.664	59.78
212.044	48.86
212.424	45.95
212.803	56.59
213.183	44.19
213.562	43.95
213.942	45.5
214.321	45.67
214.701	44.86
215.08	42.29
215.459	38.97
215.838	37.16
216.218	34.21
216.597	30.4
216.976	33.72
217.355	30.98
217.734	29.32
218.113	31.44
218.492	28.49
218.871	21.28
219.25	25.18
219.629	26.84
220.008	18.67
220.387	19.24
220.766	23.68
221.144	8.07
221.523	1.21
221.902	7.36
222.28	14.96
222.659	10.04
223.037	17.95
223.416	24.76
223.794	12.98
224.173	12.09
224.551	22.46
224.929	1.58
225.308	22.43
225.686	13.1
226.064	13.37
226.442	12.93
226.821	15.88
227.199	8.26
227.577	5.96
227.955	10.41
228.333	7.71
228.711	7.59
229.089	10.9
229.467	11.74
229.845	9.97
230.222	8.04
230.6	7.57
230.978	5.93
231.356	8.94
231.733	9.43
232.111	11.12
232.488	10.62
232.866	11.94
233.243	9.78
233.621	9.08
233.998	9.74
234.376	8.7
234.753	8.44
235.13	9.42
235.508	10.06
235.885	9.54
236.262	7.97
236.639	6.37
237.016	4.93
237.393	4.86
237.77	5.01
238.147	5.47
238.524	5.8
238.901	6.7
239.278	5.53
239.655	5.88
240.032	5.7
240.409	5.37
240.785	4.49
241.162	4.48
241.539	4.76
241.915	4.33
242.292	4.37
242.668	4.22
243.045	4.61
243.421	4.44
243.798	4.28
244.174	4.46
244.551	4.82
244.927	4.93
245.303	4.82
245.679	4.98
246.056	4.88
246.432	4.81
246.808	4.78
247.184	4.73
247.56	4.47
247.936	4.34
248.312	4.22
248.688	4.43
249.064	4.47
249.44	4.36
249.815	4.4
250.191	4.57
250.567	4.57
250.943	4.23
251.318	4.29
251.694	4.5
252.069	4.36
252.445	4.11
252.82	4.04
253.196	4.11
253.571	3.93
253.947	3.95
254.322	3.92
254.697	3.74
255.073	3.74
255.448	3.47
255.823	3.62
256.198	3.72
256.573	3.87
256.948	3.95
257.323	4.05
257.698	3.97
258.073	3.92
258.448	3.82
258.823	3.92
259.198	3.79
259.573	3.71
259.948	3.84
260.322	3.9
260.697	3.95
261.072	3.82
261.446	3.77
261.821	3.92
262.195	3.92
262.57	3.9
262.944	3.71
263.319	3.88
263.693	3.74
264.067	3.74
264.442	3.64
264.816	3.68
265.19	3.69
265.564	3.72
265.938	3.74
266.313	3.85
266.687	3.86
267.061	4.11
267.435	4.16
267.809	4.1
268.183	4.07
268.556	4.03
268.93	4.08
269.304	4.2
269.678	3.91
270.051	4
270.425	4.03
270.799	4.25
271.172	4.34
271.546	4.34
271.919	4.24
272.293	4.22
272.666	4.14
273.04	4.14
273.413	4.16
273.787	4.12
274.16	4.04
274.533	3.94
274.906	3.79
275.279	3.73
275.653	3.71
276.026	3.71
276.399	3.95
276.772	3.96
277.145	3.76
277.518	3.84
277.891	3.65
278.263	3.64
278.636	3.57
279.009	3.43
279.382	3.6
279.755	3.68
280.127	3.87
280.5	3.97
280.872	4.13
281.245	4.16
281.617	4.1
281.99	4.17
282.362	4.29
282.735	4.24
283.107	4.22
283.479	4.23
283.852	4.17
284.224	3.93
284.596	4
284.968	4.11
285.34	4.07
285.713	4.22
286.085	4.2
286.457	4.16
286.829	4.19
287.201	4.09
287.572	3.97
287.944	3.84
288.316	3.82
288.688	3.76
289.06	3.76
289.431	3.83
289.803	3.86
290.175	3.73
290.546	3.86
290.918	3.71
291.289	3.73
291.661	3.84
292.032	3.9
292.403	3.94
292.775	3.98
293.146	3.89
293.517	3.77
293.889	3.92
294.26	3.97
294.631	3.98
295.002	4
295.373	4.12
295.744	4.19
296.115	4.14
296.486	3.93
296.857	3.88
297.228	3.93
297.599	3.89
297.97	3.95
298.34	3.91
298.711	4.1
299.082	4.13
299.452	4.1
299.823	4.06
300.194	4.01
300.564	3.86
300.935	3.98
301.305	4.07
301.676	3.97
302.046	3.98
302.416	4.02
302.787	3.92
303.157	3.96
303.527	4
303.897	4.04
304.267	4.23
304.637	4.28
305.008	4.31
305.378	4.39
305.748	4.44
306.117	4.34
306.487	4.18
306.857	4.13
307.227	4.06
307.597	4.03
307.967	3.97
308.336	4.06
308.706	3.94
309.076	3.88
309.445	3.87
309.815	3.83
310.184	3.66
310.554	3.85
310.923	3.75
311.293	3.71
311.662	3.67
312.031	3.6
312.401	3.53
312.77	3.44
313.139	3.41
313.508	3.42
313.877	3.46
314.246	3.54
314.616	3.54
314.985	3.51
315.353	3.42
315.722	3.56
316.091	3.57
316.46	3.52
316.829	3.5
317.198	3.46
317.567	3.42
317.935	3.55
318.304	3.49
318.672	3.58
319.041	3.66
319.41	3.61
319.778	3.69
320.147	3.9
320.515	3.83
320.883	3.68
321.252	3.82
321.62	3.9
321.988	3.82
322.357	3.84
322.725	3.89
323.093	4
323.461	3.79
323.829	3.73
324.197	3.92
324.565	4.05
324.933	3.98
325.301	3.95
325.669	4.04
326.037	3.98
326.405	3.96
326.772	3.97
327.14	4.03
327.508	4.03
327.875	3.84
328.243	3.92
328.61	4.08
328.978	3.94
329.346	3.91
329.713	3.94
330.08	3.9
330.448	3.81
330.815	3.72
331.182	3.93
331.55	4.01
331.917	4.05
332.284	3.94
332.651	4.01
333.018	4.12
333.385	4.04
333.752	4.05
334.119	4.06
334.486	3.92
334.853	3.8
335.22	3.7
335.587	3.68
335.954	3.57
336.32	3.47
336.687	3.51
337.054	3.51
337.42	3.6
337.787	3.69
338.153	3.87
338.52	4.07
338.886	3.92
339.253	3.74
339.619	3.71
339.986	3.78
340.352	3.76
340.718	3.77
341.084	3.74
341.451	3.73
341.817	3.75
342.183	3.85
342.549	3.87
342.915	3.9
343.281	3.93
343.647	3.93
344.013	3.99
344.379	3.97
344.745	3.92
345.11	3.92
345.476	3.86
345.842	3.81
346.208	3.72
346.573	3.78
346.939	4.03
347.304	3.94
347.67	3.92
348.035	3.86
348.401	3.88
348.766	3.89
349.132	3.94
349.497	3.89
349.862	3.82
350.228	3.91
350.593	3.97
350.958	3.95
351.323	4.02
351.688	4
352.053	4
352.418	4.12
352.783	4.09
353.148	4.08
353.513	4.05
353.878	3.98
354.243	3.99
354.608	3.91
354.972	3.97
355.337	3.96
355.702	4.07
356.066	4.01
356.431	3.92
356.795	3.9
357.16	3.89
357.524	3.86
357.889	3.82
358.253	3.79
358.618	3.84
358.982	3.84
359.346	3.77
359.71	3.69
360.075	3.6
360.439	3.63
360.803	3.63
361.167	3.58
361.531	3.61
361.895	3.56
362.259	3.52
362.623	3.54
362.987	3.51
363.351	3.45
363.714	3.48
364.078	3.5
364.442	3.47
364.806	3.46
365.169	3.47
365.533	3.47
365.896	3.46
366.26	3.45
366.623	3.41
366.987	3.47
367.35	3.55
367.714	3.57
368.077	3.51
368.44	3.53
368.803	3.55
369.167	3.48
369.53	3.42
369.893	3.43
370.256	3.46
370.619	3.49
370.982	3.45
371.345	3.4
371.708	3.45
372.071	3.47
372.434	3.49
372.797	3.52
373.159	3.51
373.522	3.49
373.885	3.51
374.247	3.55
374.61	3.53
374.973	3.49
375.335	3.45
375.698	3.49
376.06	3.41
376.423	3.45
376.785	3.52
377.147	3.58
377.51	3.58
377.872	3.58
378.234	3.56
378.596	3.64
378.958	3.64
379.321	3.66
379.683	3.68
380.045	3.65
380.407	3.65
380.769	3.66
381.13	3.71
381.492	3.65
381.854	3.67
382.216	3.69
382.578	3.7
382.939	3.73
383.301	3.67
383.663	3.69
384.024	3.66
384.386	3.7
384.747	3.71
385.109	3.73
385.47	3.7
385.832	3.7
386.193	3.66
386.554	3.68
386.916	3.65
387.277	3.66
387.638	3.7
387.999	3.67
388.36	3.64
388.721	3.62
389.082	3.6
389.443	3.56
389.804	3.56
390.165	3.57
390.526	3.6
390.887	3.62
391.248	3.69
391.609	3.66
391.969	3.63
392.33	3.65
392.691	3.66
393.051	3.63
393.412	3.62
393.772	3.63
394.133	3.63
394.493	3.62
394.854	3.58
395.214	3.57
395.574	3.59
395.935	3.6
396.295	3.61
396.655	3.63
397.015	3.65
397.376	3.64
397.736	3.68
398.096	3.66
398.456	3.66
398.816	3.64
399.176	3.68
399.535	3.68
399.895	3.63
400.255	3.62
400.615	3.67
400.975	3.68
401.334	3.67
401.694	3.68
402.054	3.69
402.413	3.7
402.773	3.64
403.132	3.64
403.492	3.66
403.851	3.68
404.211	3.68
404.57	3.67
404.929	3.69
405.288	3.67
405.648	3.68
406.007	3.68
406.366	3.66
406.725	3.66
407.084	3.66
407.443	3.69
407.802	3.69
408.161	3.61
408.52	3.61
408.879	3.63
409.238	3.62
409.596	3.64
409.955	3.62
410.314	3.64
410.673	3.63
411.031	3.61
411.39	3.58
411.748	3.58
412.107	3.57
412.465	3.55
412.824	3.53
413.182	3.5
413.54	3.5
413.899	3.5
414.257	3.47
414.615	3.47
414.974	3.46
415.332	3.44
415.69	3.48
416.048	3.47
416.406	3.47
416.764	3.47
417.122	3.45
417.48	3.44
417.838	3.47
418.195	3.47
418.553	3.47
418.911	3.47
419.269	3.47
419.626	3.48
419.984	3.48
420.342	3.5
420.699	3.5
421.057	3.51
421.414	3.49
421.772	3.49
422.129	3.5
422.486	3.49
422.844	3.49
423.201	3.49
423.558	3.5
423.915	3.48
424.273	3.48
424.63	3.47
424.987	3.47
425.344	3.46
425.701	3.47
426.058	3.46
426.415	3.45
426.772	3.46
427.128	3.43
427.485	3.41
427.842	3.4
428.199	3.42
428.555	3.4
428.912	3.42
429.269	3.43
429.625	3.42
429.982	3.43
430.338	3.44
430.695	3.45
431.051	3.45
431.407	3.46
431.764	3.46
432.12	3.45
432.476	3.45
432.832	3.45
433.189	3.46
433.545	3.45
433.901	3.45
434.257	3.43
434.613	3.46
434.969	3.46
435.325	3.45
435.681	3.44
436.036	3.46
436.392	3.46
436.748	3.45
437.104	3.45
437.459	3.44
437.815	3.44
438.171	3.44
438.526	3.44
438.882	3.44
439.237	3.44
439.593	3.47
439.948	3.46
440.304	3.49
440.659	3.47
441.014	3.49
441.369	3.49
441.725	3.5
442.08	3.5
442.435	3.5
442.79	3.49
443.145	3.5
443.5	3.48
443.855	3.47
444.21	3.47
444.565	3.47
444.92	3.47
445.275	3.45
445.629	3.45
445.984	3.44
446.339	3.43
446.693	3.41
447.048	3.39
447.403	3.4
447.757	3.39
448.112	3.39
448.466	3.38
448.82	3.37
449.175	3.38
449.529	3.39
449.883	3.37
450.238	3.38
450.592	3.4
450.946	3.37
451.3	3.38
451.654	3.38
452.008	3.38
452.362	3.38
452.716	3.38
453.07	3.37
453.424	3.37
453.778	3.39
454.132	3.41
454.486	3.4
454.839	3.39
455.193	3.38
455.547	3.37
455.9	3.37
456.254	3.39
456.607	3.37
456.961	3.36
457.314	3.38
457.668	3.39
458.021	3.35
458.375	3.38
458.728	3.38
459.081	3.38
459.434	3.38
459.787	3.38
460.141	3.39
460.494	3.39
460.847	3.39
461.2	3.38
461.553	3.38
461.906	3.4
462.259	3.41
462.611	3.41
462.964	3.42
463.317	3.42
463.67	3.41
464.022	3.4
464.375	3.4
464.728	3.39
465.08	3.39
465.433	3.41
465.785	3.38
466.138	3.39
466.49	3.4
466.843	3.38
467.195	3.4
467.547	3.4
467.899	3.41
468.252	3.41
468.604	3.42
468.956	3.42
469.308	3.41
469.66	3.41
470.012	3.41
470.364	3.43
470.716	3.43
471.068	3.44
471.42	3.47
471.772	3.48
472.123	3.5
472.475	3.52
472.827	3.52
473.178	3.55
473.53	3.53
473.882	3.53
474.233	3.55
474.585	3.53
474.936	3.52
475.288	3.53
475.639	3.56
475.99	3.56
476.342	3.57
476.693	3.57
477.044	3.58
477.395	3.56
477.746	3.55
478.097	3.54
478.448	3.55
478.8	3.54
479.15	3.52
479.501	3.52
479.852	3.51
480.203	3.51
480.554	3.51
480.905	3.53
481.255	3.53
481.606	3.54
481.957	3.56
482.307	3.57
482.658	3.57
483.009	3.57
483.359	3.57
483.709	3.57
484.06	3.58
484.41	3.58
484.761	3.6
485.111	3.6
485.461	3.6
485.811	3.59
486.162	3.59
486.512	3.6
486.862	3.6
487.212	3.61
487.562	3.61
487.912	3.6
488.262	3.59
488.612	3.59
488.961	3.59
489.311	3.58
489.661	3.58
490.011	3.57
490.36	3.56
490.71	3.57
491.06	3.56
491.409	3.56
491.759	3.55
492.108	3.54
492.458	3.55
492.807	3.54
493.157	3.54
493.506	3.55
493.855	3.55
494.204	3.55
494.554	3.54
494.903	3.54
495.252	3.55
495.601	3.58
495.95	3.59
496.299	3.57
496.648	3.59
496.997	3.6
497.346	3.6
497.695	3.62
498.043	3.62
498.392	3.62
498.741	3.62
499.09	3.62
499.438	3.63
499.787	3.63
500.135	3.65
500.484	3.67
500.832	3.68
501.181	3.69
501.529	3.7
501.878	3.73
502.226	3.75
502.574	3.75
502.923	3.74
503.271	3.75
503.619	3.76
503.967	3.76
504.315	3.74
504.663	3.76
505.011	3.78
505.359	3.77
505.707	3.8
506.055	3.8
506.403	3.81
506.751	3.82
507.098	3.81
507.446	3.8
507.794	3.79
508.141	3.78
508.489	3.79
508.837	3.79
509.184	3.78
509.531	3.79
509.879	3.79
510.226	3.8
510.574	3.79
510.921	3.79
511.268	3.79
511.616	3.8
511.963	3.8
512.31	3.79
512.657	3.81
513.004	3.78
513.351	3.8
513.698	3.82
514.045	3.83
514.392	3.85
514.739	3.85
515.086	3.86
515.432	3.88
515.779	3.88
516.126	3.91
516.473	3.91
516.819	3.92
517.166	3.93
517.512	3.93
517.859	3.95
518.205	3.96
518.552	3.99
518.898	4.01
519.245	4
519.591	4.02
519.937	4.01
520.283	4.05
520.629	4.05
520.976	4.06
521.322	4.06
521.668	4.06
522.014	4.08
522.36	4.07
522.706	4.07
523.052	4.08
523.398	4.08
523.743	4.1
524.089	4.09
524.435	4.08
524.781	4.08
525.126	4.08
525.472	4.09
525.817	4.07
526.163	4.08
526.509	4.1
526.854	4.08
527.199	4.1
527.545	4.09
527.89	4.08
528.235	4.08
528.581	4.09
528.926	4.08
529.271	4.08
529.616	4.1
529.961	4.1
530.306	4.09
530.651	4.08
530.996	4.08
531.341	4.08
531.686	4.08
532.031	4.09
532.376	4.09
532.721	4.1
533.065	4.1
533.41	4.09
533.755	4.08
534.099	4.09
534.444	4.09
534.788	4.1
535.133	4.11
535.477	4.12
535.822	4.11
536.166	4.13
536.51	4.13
536.855	4.13
537.199	4.14
537.543	4.16
537.887	4.16
538.231	4.15
538.576	4.16
538.92	4.16
539.264	4.17
539.608	4.16
539.951	4.15
540.295	4.14
540.639	4.15
540.983	4.16
541.327	4.17
541.671	4.16
542.014	4.17
542.358	4.16
542.701	4.16
543.045	4.19
543.389	4.19
543.732	4.2
544.075	4.2
544.419	4.21
544.762	4.21
545.105	4.21
545.449	4.22
545.792	4.22
546.135	4.24
546.478	4.25
546.821	4.27
547.165	4.28
547.508	4.31
547.851	4.3
548.194	4.3
548.536	4.3
548.879	4.32
549.222	4.33
549.565	4.34
549.908	4.35
550.25	4.33
550.593	4.31
550.936	4.27
551.278	4.27
551.621	4.27
551.963	4.26
552.306	4.27
552.648	4.28
552.991	4.3
553.333	4.28
553.675	4.26
554.017	4.26
554.36	4.28
554.702	4.29
555.044	4.29
555.386	4.29
555.728	4.28
556.07	4.28
556.412	4.25
556.754	4.25
557.096	4.25
557.438	4.28
557.78	4.3
558.121	4.36
558.463	4.35
558.805	4.34
559.147	4.33
559.488	4.33
559.83	4.35
560.171	4.34
560.513	4.36
560.854	4.36
561.196	4.35
561.537	4.33
561.878	4.29
562.22	4.31
562.561	4.31
562.902	4.34
563.243	4.36
563.584	4.37
563.925	4.38
564.266	4.36
564.607	4.37
564.948	4.36
565.289	4.34
565.63	4.35
565.971	4.35
566.312	4.34
566.653	4.35
566.993	4.36
567.334	4.35
567.675	4.34
568.015	4.33
568.356	4.34
568.696	4.36
569.037	4.36
569.377	4.36
569.718	4.36
570.058	4.36
570.398	4.36
570.739	4.35
571.079	4.34
571.419	4.35
571.759	4.36
572.099	4.34
572.439	4.32
572.779	4.32
573.119	4.34
573.459	4.37
573.799	4.39
574.139	4.39
574.479	4.4
574.819	4.42
575.158	4.41
575.498	4.44
575.838	4.42
576.177	4.43
576.517	4.43
576.856	4.43
577.196	4.44
577.535	4.43
577.875	4.45
578.214	4.43
578.553	4.46
578.893	4.45
579.232	4.45
579.571	4.48
579.91	4.49
580.25	4.49
580.589	4.48
580.928	4.44
581.267	4.43
581.606	4.39
581.945	4.36
582.283	4.39
582.622	4.35
582.961	4.38
583.3	4.39
583.639	4.43
583.977	4.45
584.316	4.42
584.654	4.41
584.993	4.39
585.332	4.44
585.67	4.45
586.008	4.44
586.347	4.48
586.685	4.47
587.024	4.48
587.362	4.49
587.7	4.44
588.038	4.51
588.376	4.53
588.715	4.53
589.053	4.55
589.391	4.54
589.729	4.54
590.067	4.52
590.404	4.54
590.742	4.53
591.08	4.5
591.418	4.52
591.756	4.54
592.093	4.56
592.431	4.55
592.769	4.56
593.106	4.55
593.444	4.5
593.781	4.49
594.119	4.49
594.456	4.47
594.793	4.51
595.131	4.48
595.468	4.45
595.805	4.47
596.143	4.46
596.48	4.45
596.817	4.47
597.154	4.48
597.491	4.44
597.828	4.41
598.165	4.4
598.502	4.38
598.839	4.37
599.176	4.33
599.512	4.29
599.849	4.29
600.186	4.29
600.523	4.36
600.859	4.42
601.196	4.44
601.532	4.43
601.869	4.42
602.205	4.42
602.542	4.47
602.878	4.47
603.215	4.49
603.551	4.52
603.887	4.53
604.223	4.51
604.56	4.57
604.896	4.59
605.232	4.62
605.568	4.6
605.904	4.61
606.24	4.66
606.576	4.69
606.912	4.67
607.248	4.66
607.583	4.66
607.919	4.63
608.255	4.62
608.591	4.65
608.926	4.66
609.262	4.63
609.597	4.58
609.933	4.59
610.268	4.58
610.604	4.58
610.939	4.58
611.275	4.58
611.61	4.54
611.945	4.54
612.281	4.53
612.616	4.56
612.951	4.54
613.286	4.52
613.621	4.47
613.956	4.49
614.291	4.5
614.626	4.45
614.961	4.46
615.296	4.42
615.631	4.41
615.966	4.39
616.3	4.42
616.635	4.48
616.97	4.46
617.304	4.46
617.639	4.41
617.973	4.37
618.308	4.38
618.642	4.38
618.977	4.4
619.311	4.42
619.646	4.47
619.98	4.51
620.314	4.5
620.648	4.55
620.983	4.54
621.317	4.56
621.651	4.61
621.985	4.6
622.319	4.65
622.653	4.67
622.987	4.69
623.321	4.67
623.655	4.63
623.988	4.68
624.322	4.69
624.656	4.71
624.99	4.76
625.323	4.77
625.657	4.81
625.99	4.82
626.324	4.8
626.657	4.78
626.991	4.76
627.324	4.73
627.658	4.75
627.991	4.79
628.324	4.79
628.657	4.76
628.991	4.75
629.324	4.75
629.657	4.7
629.99	4.74
630.323	4.79
630.656	4.81
630.989	4.84
631.322	4.82
631.655	4.84
631.987	4.8
632.32	4.79
632.653	4.74
632.986	4.72
633.318	4.75
633.651	4.7
633.984	4.71
634.316	4.75
634.649	4.73
634.981	4.7
635.313	4.7
635.646	4.69
635.978	4.72
636.31	4.73
636.643	4.76
636.975	4.74
637.307	4.71
637.639	4.71
637.971	4.64
638.303	4.66
638.635	4.63
638.967	4.68
639.299	4.76
639.631	4.8
639.963	4.69
640.295	4.66
640.626	4.78
640.958	4.82
641.29	4.84
641.621	4.88
641.953	4.84
642.285	4.87
642.616	4.91
642.948	4.85
643.279	4.85
643.61	4.83
643.942	4.84
644.273	4.81
644.604	4.78
644.936	4.82
645.267	4.84
645.598	4.88
645.929	4.87
646.26	4.85
646.591	4.84
646.922	4.85
647.253	4.85
647.584	4.81
647.915	4.72
648.245	4.74
648.576	4.7
648.907	4.74
649.238	4.73
649.568	4.74
649.899	4.79
650.229	4.77
650.56	4.84
650.89	4.85
651.221	4.87
651.551	4.87
651.882	4.86
652.212	4.84
652.542	4.85
652.872	4.85
653.203	4.79
653.533	4.8
653.863	4.86
654.193	4.91
654.523	4.91
654.853	4.95
655.183	4.9
655.513	4.86
655.843	4.84
656.172	4.8
656.502	4.81
656.832	4.84
657.162	4.94
657.491	4.89
657.821	4.86
658.15	4.87
658.48	4.89
658.809	4.93
659.139	4.96
659.468	4.92
659.798	4.97
660.127	5.03
660.456	5.05
660.785	5.11
661.115	5.08
661.444	5.03
661.773	5.07
662.102	5.16
662.431	5.28
662.76	5.3
663.089	5.29
663.418	5.25
663.747	5.2
664.076	5.12
664.404	5.17
664.733	5.21
665.062	5.23
665.39	5.23
665.719	5.18
666.048	5.14
666.376	5.14
666.705	5.07
667.033	5.01
667.362	5
667.69	4.96
668.018	4.97
668.347	4.99
668.675	5.02
669.003	5
669.331	4.95
669.659	4.96
669.987	5
670.315	5.06
670.643	5.15
670.971	5.16
671.299	5.16
671.627	5.17
671.955	5.17
672.283	5.13
672.61	5.12
672.938	5.15
673.266	5.19
673.593	5.28
673.921	5.3
674.249	5.34
674.576	5.37
674.904	5.33
675.231	5.29
675.558	5.19
675.886	5.12
676.213	5.1
676.54	5.12
676.867	5.19
677.195	5.12
677.522	5.12
677.849	5.1
678.176	5.13
678.503	5.14
678.83	5.15
679.157	5.2
679.484	5.21
679.81	5.23
680.137	5.27
680.464	5.2
680.791	5.18
681.117	5.17
681.444	5.13
681.771	5.18
682.097	5.19
682.424	5.29
682.75	5.36
683.077	5.32
683.403	5.32
683.729	5.23
684.056	5.32
684.382	5.32
684.708	5.28
685.034	5.27
685.36	5.26
685.686	5.22
686.012	5.17
686.339	5.2
686.664	5.19
686.99	5.15
687.316	5.17
687.642	5.24
687.968	5.25
688.294	5.35
688.619	5.43
688.945	5.41
689.271	5.42
689.596	5.34
689.922	5.48
690.247	5.43
690.573	5.51
690.898	5.49
691.224	5.43
691.549	5.48
691.874	5.44
692.2	5.48
692.525	5.54
692.85	5.61
693.175	5.61
693.5	5.59
693.825	5.64
694.15	5.6
694.475	5.56
694.8	5.53
695.125	5.44
695.45	5.32
695.775	5.39
696.099	5.39
696.424	5.49
696.749	5.39
697.073	5.44
697.398	5.49
697.723	5.54
698.047	5.5
698.372	5.45
698.696	5.49
699.02	5.49
699.345	5.51
699.669	5.59
699.993	5.53
700.318	5.49
700.642	5.48
700.966	5.53
701.29	5.49
701.614	5.53
701.938	5.54
702.262	5.72
702.586	5.75
702.91	5.72
703.234	5.66
703.557	5.74
703.881	5.72
704.205	5.8
704.529	5.49
704.852	5.56
705.176	5.65
705.499	5.6
705.823	5.55
706.146	5.52
706.47	5.39
706.793	5.47
707.117	5.54
707.44	5.63
707.763	5.66
708.086	5.71
708.409	5.57
708.733	5.63
709.056	5.47
709.379	5.68
709.702	5.66
710.025	5.57
710.348	5.53
710.671	5.41
710.993	5.26
711.316	5.53
711.639	5.58
711.962	5.63
712.284	5.52
712.607	5.46
712.93	5.49
713.252	5.54
713.575	5.59
713.897	5.6
714.22	5.56
714.542	5.6
714.864	5.63
715.187	5.81
715.509	5.83
715.831	5.83
716.153	5.69
716.475	5.7
716.798	5.94
717.12	5.92
717.442	6.11
717.764	6.07
718.085	6.1
718.407	6.11
718.729	6.13
719.051	6.32
719.373	6.37
719.695	6.31
720.016	6.33
720.338	6.36
720.659	6.44
720.981	6.33
721.302	6.28
721.624	6.34
721.945	6.28
722.267	6.22
722.588	6.11
722.909	6.13
723.231	6.24
723.552	6.03
723.873	6.02
724.194	6.06
724.515	6.19
724.836	6.15
725.157	6.18
725.478	6.13
725.799	6.26
726.12	6.27
726.441	6.25
726.762	6.23
727.083	6.17
727.403	6.19
727.724	6.33
728.045	6.36
728.365	6.23
728.686	6.38
729.006	6.31
729.327	6.42
729.647	6.37
729.967	6.22
730.288	6.35
730.608	6.25
730.928	6.14
731.249	6.01
731.569	6.28
731.889	6.26
732.209	6.22
732.529	6.07
732.849	6.24
733.169	6.31
733.489	6.38
733.809	6.42
734.129	6.33
734.448	6.17
734.768	6.09
735.088	6.36
735.408	6.31
735.727	6.55
736.047	6.63
736.366	6.63
736.686	6.7
737.005	6.63
737.325	6.74
737.644	6.66
737.963	6.87
738.283	6.48
738.602	6.42
738.921	6.63
739.24	6.69
739.56	6.47
739.879	6.55
740.198	6.43
740.517	6.47
740.836	6.66
741.155	6.94
741.473	6.94
741.792	6.96
742.111	6.67
742.43	6.66
742.748	6.42
743.067	6.41
743.386	6.48
743.704	6.45
744.023	6.59
744.341	6.81
744.66	6.98
744.978	7.03
745.297	7.04
745.615	7.06
745.933	7.16
746.252	7.21
746.57	7.01
746.888	6.9
747.206	6.65
747.524	6.45
747.842	6.38
748.16	6.67
748.478	6.39
748.796	6.67
749.114	6.89
749.432	7.22
749.749	7.55
750.067	7.35
750.385	7.42
750.703	7.28
751.02	7.11
751.338	6.69
751.655	6.66
751.973	7.01
752.29	6.92
752.608	6.55
752.925	6.53
753.242	7.02
753.56	7.21
753.877	7.36
754.194	7.47
754.511	7.52
754.828	7.17
755.145	7.04
755.462	6.82
755.779	6.63
756.096	6.53
756.413	6.44
756.73	6.65
757.047	6.58
757.364	6.64
757.68	6.81
757.997	7.1
758.314	6.86
758.63	6.59
758.947	6.43
759.264	6.63
759.58	6.49
759.896	6.18
760.213	6.2
760.529	6.35
760.846	6.37
761.162	6.2
761.478	6.52
761.794	6.56
762.11	6.78
762.426	6.66
762.743	6.67
763.059	6.55
763.375	6.5
763.69	6.57
764.006	6.7
764.322	6.8
764.638	6.93
764.954	7.2
765.27	7.18
765.585	7.47
765.901	7.47
766.216	7.72
766.532	7.61
766.848	7.55
767.163	7.6
767.478	7.48
767.794	7.43
768.109	7.06
768.424	7.22
768.74	7.11
769.055	7.33
769.37	7.48
769.685	7.37
770	7.33
770.315	7.45
770.63	7.28
770.945	7.07
771.26	6.87
771.575	6.94
771.89	7.15
772.205	6.99
772.52	7.08
772.834	7.12
773.149	7.43
773.464	7.75
773.778	7.73
774.093	7.74
774.407	7.93
774.722	8.41
775.036	8.54
775.351	8.6
775.665	8.1
775.979	7.71
776.293	7.95
776.608	8.27
776.922	8.16
777.236	8.47
777.55	8.52
777.864	8.78
778.178	8.62
778.492	8.72
778.806	8.21
779.12	8.14
779.434	7.61
779.747	7.53
780.061	7.52
780.375	7.35
780.689	7.65
781.002	7.76
781.316	7.35
781.629	7.29
781.943	7.67
782.256	7.69
782.57	8.09
782.883	7.94
783.196	7.41
783.51	7.11
783.823	6.85
784.136	6.76
784.449	6.59
784.762	6.73
785.075	6.34
785.388	6.71
785.701	7.02
786.014	7.4
786.327	7.32
786.64	7.54
786.953	7.08
787.266	6.73
787.578	6.49
787.891	6.79
788.204	6.79
788.516	6.65
788.829	7.05
789.141	6.99
789.454	7.23
789.766	7.71
790.079	8.04
790.391	8.03
790.703	8.1
791.016	8
791.328	8.24
791.64	8.42
791.952	8.41
792.264	7.7
792.576	7.67
792.888	8.09
793.2	8.19
793.512	8.82
793.824	8.77
794.136	9.06
794.448	9.01
794.76	9.24
795.071	9.03
795.383	8.77
795.695	8.65
796.006	8.9
796.318	8.6
796.629	9.08
796.941	9.01
797.252	9.14
797.564	9.26
797.875	8.74
798.186	8.78
798.497	8.93
798.809	9.44
799.12	9.63
799.431	9.16
799.742	8.9
800.053	9.29
800.364	9.52
800.675	9.14
800.986	9.04
801.297	8.39
801.608	8.32
801.918	8.47
802.229	8.77
802.54	8.52
802.851	8.44
803.161	7.94
803.472	8.15
803.782	7.87
804.093	7.41
804.403	7.5
804.714	7.37
805.024	7.23
805.334	7.18
805.645	7.15
805.955	7.51
806.265	7.54
806.575	7.34
806.885	7.69
807.195	8.35
807.505	8.8
807.815	9.53
808.125	9.98
808.435	10.22
808.745	10.4
809.055	10.22
809.365	10.91
809.674	11.19
809.984	11.71
810.294	11.45
810.603	11.8
810.913	12.12
811.222	12.78
811.532	13.05
811.841	13.57
812.151	14.04
812.46	13.92
812.769	14.12
813.079	13.49
813.388	13.2
813.697	13.24
814.006	13.02
814.315	12.77
814.624	12.65
814.933	12.23
815.242	11.93
815.551	12.21
815.86	12.58
816.169	12.06
816.478	11.58
816.786	12.02
817.095	12.33
817.404	12.59
817.712	12.26
818.021	12.27
818.33	11.6
818.638	11.26
818.947	11.09
819.255	10.54
819.563	10.77
819.872	10.41
820.18	10.62
820.488	10.59
820.796	10.71
821.105	10.64
821.413	10.47
821.721	10.26
822.029	10.15
822.337	9.95
822.645	10.04
822.953	10.07
823.26	10.04
823.568	10.01
823.876	9.84
824.184	9.87
824.491	9.67
824.799	9.87
825.107	9.85
825.414	9.96
825.722	9.97
826.029	10.06
826.337	10.23
826.644	9.94
826.951	9.81
827.259	9.75
827.566	9.49
827.873	9.6
828.18	9.79
828.488	9.83
828.795	9.81
829.102	9.85
829.409	9.92
829.716	9.96
830.023	10.05
830.329	10.08
830.636	9.83
830.943	10.21
831.25	10.19
831.557	10.47
831.863	10.51
832.17	10.87
832.476	10.57
832.783	10.97
833.089	11.17
833.396	11.52
833.702	11.44
834.009	11.99
834.315	12
834.621	11.69
834.928	11.8
835.234	11.82
835.54	11.76
835.846	11.81
836.152	12.15
836.458	12.24
836.764	12.53
837.07	12.4
837.376	11.92
837.682	11.62
837.988	10.81
838.293	9.99
838.599	9.67
838.905	9.44
839.211	8.89
839.516	8.77
839.822	8.87
840.127	8.87
840.433	9.03
840.738	9.63
841.044	9.89
841.349	9.91
841.654	9.57
841.959	9.61
842.265	9.14
842.57	8.6
842.875	8.31
843.18	8.47
843.485	9.49
843.79	10.04
844.095	9.38
844.4	11.44
844.705	13.82
845.01	13.91
845.315	15.06
845.619	14.01
845.924	13.91
846.229	14.32
846.533	14.94
846.838	13.39
847.142	12.41
847.447	11.67
847.751	12.26
848.056	12.06
848.36	12.5
848.664	11.84
848.969	12.17
849.273	11.16
849.577	11.32
849.881	10.35
850.185	10.4
850.489	12.07
850.794	10.92
851.097	8.37
851.401	8.39
851.705	8.01
852.009	11.13
852.313	10.26
852.617	9.63
852.92	9.97
853.224	11.24
853.528	11.35
853.831	10.87
854.135	10.03
854.438	9.72
854.742	8.93
855.045	8.8
855.349	9.39
855.652	10.71
855.955	9.85
856.259	10.2
856.562	12.07
856.865	11.27
857.168	11.02
857.471	12.73
857.774	12.47
858.077	13.28
858.38	13.6
858.683	14.53
858.986	13.96
859.289	14.13
859.592	14.05
859.894	15.42
860.197	17.21
860.5	16.79
860.802	17.27
861.105	16.48
861.407	17.21
861.71	16.66
862.012	16.46
862.315	16.53
862.617	14.14
862.919	12.77
863.222	11.96
863.524	12.15
863.826	11.57
864.128	11.23
864.43	10.87
864.732	8.72
865.034	9.74
865.336	9.82
865.638	8.93
865.94	9.84
866.242	10.68
866.544	10.71
866.846	13.05
867.147	14.49
867.449	14.79
867.751	14.98
868.052	15.74
868.354	15.24
868.655	14.55
868.957	16.93
869.258	15.02
869.56	16.59
869.861	16.14
870.162	15.58
870.463	18.69
870.765	19.94
871.066	19.99
871.367	19.39
871.668	17.51
871.969	17.11
872.27	15.34
872.571	13.95
872.872	13.92
873.173	11.68
873.473	11.86
873.774	14.55
874.075	15.94
874.376	12.66
874.676	13.77
874.977	14.03
875.277	15.17
875.578	19.13
875.878	18.87
876.179	19.5
876.479	20.58
876.78	19.02
877.08	17.47
877.38	17.74
877.68	18.91
877.981	22.05
878.281	22.25
878.581	24.75
