Data from BA28470_Reflection_00012.txt Node
Date: Mon Nov 18 15:10:19 EST 2019
User: vgr7
Spectrometer: USB2G7710
Scans to average: 3
Trigger mode: 4
Integration Time (sec): 2.000000E-2
Electric dark correction enabled: true
Boxcar width: 10
XAxis mode: Wavelengths
Number of Pixels in Spectrum: 2048
>>>>>Begin Spectral Data<<<<<
177.721	79.52
178.105	155.12
178.488	-52.84
178.871	-13.97
179.254	125.83
179.636	130.97
180.019	44.32
180.402	66.67
180.785	-1170.27
181.168	51.99
181.55	-53.09
181.933	106.37
182.316	132.26
182.698	224.85
183.081	121.54
183.463	238.86
183.846	177.56
184.228	114.65
184.611	75.93
184.993	84.27
185.376	116.3
185.758	180.71
186.14	203.05
186.522	181.83
186.904	240.92
187.287	298.79
187.669	235.07
188.051	142.94
188.433	156.18
188.815	171.32
189.197	150.81
189.579	205.73
189.961	372.41
190.342	4269.81
190.724	-660.62
191.106	2367.61
191.488	722.38
191.869	-107.88
192.251	-25.74
192.633	-14.4
193.014	-14.24
193.396	-81.66
193.777	-92.51
194.159	-65.32
194.54	-40.96
194.922	35.11
195.303	56.9
195.684	40.72
196.065	36.07
196.447	23.81
196.828	-28.25
197.209	-25.42
197.59	-5.87
197.971	10.15
198.352	33.73
198.733	26.05
199.114	16.95
199.495	17.77
199.876	15.72
200.257	0.33
200.638	-1.53
201.018	-26.32
201.399	-16.58
201.78	5.32
202.16	-6.03
202.541	-19.8
202.922	-35.14
203.302	-60.5
203.683	-111.1
204.063	-249.8
204.444	-133.6
204.824	-64.64
205.204	-105.15
205.585	-160.17
205.965	-635.38
206.345	-653.35
206.725	860
207.106	-2094.24
207.486	485.69
207.866	1800.51
208.246	3489.38
208.626	1022.88
209.006	-1677.14
209.386	-986.15
209.766	-535.58
210.145	-545.81
210.525	-465.53
210.905	-593.2
211.285	-479.35
211.664	-197.86
212.044	-177.12
212.424	-152.87
212.803	-216.4
213.183	-175.75
213.562	-127.73
213.942	-97.31
214.321	-74.03
214.701	-67.17
215.08	-86.39
215.459	-54.63
215.838	-54.37
216.218	-41.56
216.597	-30.75
216.976	-22.97
217.355	-16.58
217.734	-5.17
218.113	-0.82
218.492	5.83
218.871	-1.34
219.25	7.4
219.629	-1.08
220.008	1.48
220.387	1.9
220.766	20.48
221.144	12.96
221.523	10.86
221.902	8.16
222.28	-8.22
222.659	-6.31
223.037	14.2
223.416	2.97
223.794	-1.96
224.173	-12.64
224.551	-18.01
224.929	-24.08
225.308	-21.21
225.686	-23.98
226.064	-17.1
226.442	-17.23
226.821	-7.49
227.199	-4.5
227.577	-9.21
227.955	-6.93
228.333	-7.36
228.711	-6.82
229.089	-3.18
229.467	-4.34
229.845	-2.3
230.222	-1.12
230.6	-3.26
230.978	-5.81
231.356	0.16
231.733	0.66
232.111	5.72
232.488	8.13
232.866	7.38
233.243	6.65
233.621	5
233.998	6.05
234.376	6.07
234.753	3.5
235.13	2.37
235.508	3.73
235.885	2.13
236.262	1.55
236.639	0.13
237.016	0.81
237.393	2.99
237.77	2.79
238.147	2.69
238.524	3.58
238.901	4.83
239.278	4.03
239.655	4.92
240.032	4.37
240.409	4.38
240.785	4.45
241.162	5.22
241.539	5.75
241.915	5.68
242.292	5.64
242.668	5.74
243.045	5.72
243.421	5.93
243.798	6.01
244.174	6.45
244.551	6.58
244.927	6.06
245.303	6.03
245.679	5.93
246.056	5.84
246.432	5.73
246.808	5.66
247.184	5.59
247.56	5.19
247.936	5.24
248.312	4.93
248.688	5.19
249.064	4.95
249.44	4.92
249.815	4.88
250.191	4.84
250.567	5.06
250.943	4.97
251.318	5.1
251.694	5.02
252.069	4.64
252.445	4.79
252.82	5.02
253.196	4.89
253.571	4.7
253.947	4.95
254.322	5.29
254.697	5.1
255.073	4.79
255.448	4.8
255.823	4.75
256.198	5.09
256.573	4.92
256.948	4.95
257.323	4.96
257.698	4.97
258.073	5.12
258.448	5.01
258.823	4.89
259.198	4.64
259.573	4.63
259.948	4.47
260.322	4.29
260.697	4.2
261.072	4.1
261.446	4.17
261.821	4.11
262.195	4.11
262.57	4.13
262.944	4.21
263.319	4.3
263.693	4.37
264.067	4.32
264.442	4.26
264.816	4.21
265.19	3.94
265.564	3.78
265.938	3.7
266.313	3.62
266.687	3.55
267.061	3.74
267.435	3.83
267.809	4.26
268.183	4.47
268.556	4.43
268.93	4.52
269.304	4.72
269.678	4.71
270.051	4.53
270.425	4.5
270.799	4.58
271.172	4.47
271.546	4.15
271.919	4
272.293	3.93
272.666	3.91
273.04	4.14
273.413	4.15
273.787	3.99
274.16	3.98
274.533	4.09
274.906	3.99
275.279	4.02
275.653	3.73
276.026	3.6
276.399	3.61
276.772	3.78
277.145	3.53
277.518	3.55
277.891	3.76
278.263	3.83
278.636	3.79
279.009	3.85
279.382	4.11
279.755	4.17
280.127	4.29
280.5	4.39
280.872	4.38
281.245	4.41
281.617	4.6
281.99	4.71
282.362	4.67
282.735	4.59
283.107	4.6
283.479	4.75
283.852	4.76
284.224	4.8
284.596	4.65
284.968	4.7
285.34	4.69
285.713	4.53
286.085	4.49
286.457	4.6
286.829	4.65
287.201	4.55
287.572	4.49
287.944	4.4
288.316	4.44
288.688	4.36
289.06	4.43
289.431	4.34
289.803	4.39
290.175	4.52
290.546	4.68
290.918	4.65
291.289	4.52
291.661	4.58
292.032	4.77
292.403	4.81
292.775	4.79
293.146	4.73
293.517	4.76
293.889	4.93
294.26	4.91
294.631	4.86
295.002	4.96
295.373	5.05
295.744	5.19
296.115	5.22
296.486	5.13
296.857	5.23
297.228	5.21
297.599	5.17
297.97	5.09
298.34	5.09
298.711	5.09
299.082	5.14
299.452	5.17
299.823	5.24
300.194	5.23
300.564	5.18
300.935	5.26
301.305	5.4
301.676	5.23
302.046	5.3
302.416	5.38
302.787	5.33
303.157	5.4
303.527	5.41
303.897	5.33
304.267	5.65
304.637	5.63
305.008	5.67
305.378	5.7
305.748	5.7
306.117	5.96
306.487	6.14
306.857	6.25
307.227	6.34
307.597	6.42
307.967	6.52
308.336	6.75
308.706	6.87
309.076	6.95
309.445	7.04
309.815	6.99
310.184	7.07
310.554	7.14
310.923	7.2
311.293	7.15
311.662	7.23
312.031	7.12
312.401	7.09
312.77	7.19
313.139	7.35
313.508	7.45
313.877	7.23
314.246	7.29
314.616	7.39
314.985	7.38
315.353	7.34
315.722	7.39
316.091	7.54
316.46	7.53
316.829	7.52
317.198	7.75
317.567	7.84
317.935	7.85
318.304	8.01
318.672	7.91
319.041	8.22
319.41	8.29
319.778	8.33
320.147	8.38
320.515	8.51
320.883	8.38
321.252	8.59
321.62	8.78
321.988	8.65
322.357	8.75
322.725	8.72
323.093	8.61
323.461	8.58
323.829	8.47
324.197	8.55
324.565	8.62
324.933	8.66
325.301	8.78
325.669	8.77
326.037	8.89
326.405	9.03
326.772	8.91
327.14	8.89
327.508	9.04
327.875	9.04
328.243	8.99
328.61	9.12
328.978	9.17
329.346	9.11
329.713	9.1
330.08	9.1
330.448	9.15
330.815	9.14
331.182	9.34
331.55	9.53
331.917	9.47
332.284	9.5
332.651	9.39
333.018	9.33
333.385	9.46
333.752	9.5
334.119	9.58
334.486	9.6
334.853	9.65
335.22	9.68
335.587	9.79
335.954	9.79
336.32	9.69
336.687	9.72
337.054	9.72
337.42	9.93
337.787	9.94
338.153	9.98
338.52	10.03
338.886	9.92
339.253	9.76
339.619	9.87
339.986	9.87
340.352	9.96
340.718	10.03
341.084	10.05
341.451	9.99
341.817	9.99
342.183	9.99
342.549	10.05
342.915	10.02
343.281	10.03
343.647	10.13
344.013	10.29
344.379	10.17
344.745	10.25
345.11	10.11
345.476	10.13
345.842	10.17
346.208	10.27
346.573	10.25
346.939	10.33
347.304	10.28
347.67	10.27
348.035	10.24
348.401	10.22
348.766	10.22
349.132	10.21
349.497	10.15
349.862	10.29
350.228	10.28
350.593	10.3
350.958	10.23
351.323	10.28
351.688	10.13
352.053	10.17
352.418	10.17
352.783	10.3
353.148	10.17
353.513	10.21
353.878	10.16
354.243	10.24
354.608	10.24
354.972	10.21
355.337	10.25
355.702	10.36
356.066	10.37
356.431	10.25
356.795	10.27
357.16	10.16
357.524	10
357.889	9.9
358.253	9.84
358.618	9.85
358.982	9.75
359.346	9.71
359.71	9.74
360.075	9.73
360.439	9.68
360.803	9.67
361.167	9.58
361.531	9.57
361.895	9.5
362.259	9.44
362.623	9.44
362.987	9.33
363.351	9.18
363.714	9.2
364.078	9.2
364.442	9.11
364.806	9.19
365.169	9.24
365.533	9.28
365.896	9.33
366.26	9.26
366.623	9.16
366.987	9.18
367.35	9.07
367.714	9.05
368.077	8.99
368.44	8.98
368.803	8.95
369.167	8.79
369.53	8.76
369.893	8.73
370.256	8.64
370.619	8.65
370.982	8.56
371.345	8.44
371.708	8.46
372.071	8.4
372.434	8.26
372.797	8.17
373.159	8.04
373.522	8
373.885	7.95
374.247	7.96
374.61	7.89
374.973	7.83
375.335	7.71
375.698	7.69
376.06	7.59
376.423	7.46
376.785	7.47
377.147	7.45
377.51	7.39
377.872	7.41
378.234	7.33
378.596	7.33
378.958	7.2
379.321	7.1
379.683	7.04
380.045	7.04
380.407	7
380.769	7
381.13	6.91
381.492	6.9
381.854	6.84
382.216	6.77
382.578	6.75
382.939	6.67
383.301	6.57
383.663	6.53
384.024	6.53
384.386	6.52
384.747	6.47
385.109	6.4
385.47	6.31
385.832	6.31
386.193	6.29
386.554	6.29
386.916	6.23
387.277	6.22
387.638	6.15
387.999	6.11
388.36	6.06
388.721	6.02
389.082	5.98
389.443	5.92
389.804	5.91
390.165	5.84
390.526	5.86
390.887	5.84
391.248	5.84
391.609	5.85
391.969	5.84
392.33	5.81
392.691	5.82
393.051	5.77
393.412	5.71
393.772	5.64
394.133	5.63
394.493	5.62
394.854	5.58
395.214	5.56
395.574	5.52
395.935	5.48
396.295	5.44
396.655	5.4
397.015	5.37
397.376	5.32
397.736	5.3
398.096	5.27
398.456	5.21
398.816	5.16
399.176	5.05
399.535	4.94
399.895	4.86
400.255	4.76
400.615	4.76
400.975	4.73
401.334	4.69
401.694	4.65
402.054	4.59
402.413	4.59
402.773	4.56
403.132	4.54
403.492	4.51
403.851	4.49
404.211	4.47
404.57	4.45
404.929	4.45
405.288	4.43
405.648	4.41
406.007	4.4
406.366	4.39
406.725	4.39
407.084	4.39
407.443	4.38
407.802	4.41
408.161	4.36
408.52	4.31
408.879	4.31
409.238	4.3
409.596	4.3
409.955	4.25
410.314	4.25
410.673	4.21
411.031	4.2
411.39	4.19
411.748	4.15
412.107	4.12
412.465	4.09
412.824	4.07
413.182	4.04
413.54	4.03
413.899	4.03
414.257	4.02
414.615	4.02
414.974	4.01
415.332	3.99
415.69	3.98
416.048	3.98
416.406	3.96
416.764	3.94
417.122	3.94
417.48	3.92
417.838	3.9
418.195	3.89
418.553	3.87
418.911	3.86
419.269	3.86
419.626	3.86
419.984	3.86
420.342	3.83
420.699	3.81
421.057	3.8
421.414	3.76
421.772	3.76
422.129	3.74
422.486	3.74
422.844	3.74
423.201	3.74
423.558	3.73
423.915	3.72
424.273	3.7
424.63	3.69
424.987	3.69
425.344	3.68
425.701	3.68
426.058	3.68
426.415	3.69
426.772	3.69
427.128	3.69
427.485	3.67
427.842	3.67
428.199	3.67
428.555	3.67
428.912	3.69
429.269	3.68
429.625	3.67
429.982	3.65
430.338	3.62
430.695	3.63
431.051	3.63
431.407	3.64
431.764	3.64
432.12	3.63
432.476	3.62
432.832	3.62
433.189	3.64
433.545	3.61
433.901	3.58
434.257	3.57
434.613	3.56
434.969	3.59
435.325	3.6
435.681	3.6
436.036	3.61
436.392	3.6
436.748	3.59
437.104	3.58
437.459	3.57
437.815	3.58
438.171	3.55
438.526	3.55
438.882	3.56
439.237	3.56
439.593	3.56
439.948	3.56
440.304	3.54
440.659	3.52
441.014	3.53
441.369	3.52
441.725	3.51
442.08	3.5
442.435	3.49
442.79	3.48
443.145	3.46
443.5	3.44
443.855	3.42
444.21	3.41
444.565	3.41
444.92	3.42
445.275	3.4
445.629	3.4
445.984	3.39
446.339	3.36
446.693	3.34
447.048	3.33
447.403	3.32
447.757	3.32
448.112	3.32
448.466	3.31
448.82	3.32
449.175	3.34
449.529	3.34
449.883	3.31
450.238	3.32
450.592	3.33
450.946	3.32
451.3	3.33
451.654	3.35
452.008	3.36
452.362	3.35
452.716	3.37
453.07	3.37
453.424	3.38
453.778	3.39
454.132	3.39
454.486	3.39
454.839	3.39
455.193	3.4
455.547	3.38
455.9	3.37
456.254	3.37
456.607	3.37
456.961	3.36
457.314	3.36
457.668	3.35
458.021	3.33
458.375	3.34
458.728	3.34
459.081	3.34
459.434	3.33
459.787	3.33
460.141	3.33
460.494	3.32
460.847	3.32
461.2	3.33
461.553	3.35
461.906	3.37
462.259	3.38
462.611	3.38
462.964	3.39
463.317	3.41
463.67	3.4
464.022	3.39
464.375	3.4
464.728	3.41
465.08	3.42
465.433	3.45
465.785	3.44
466.138	3.43
466.49	3.44
466.843	3.46
467.195	3.46
467.547	3.47
467.899	3.48
468.252	3.48
468.604	3.48
468.956	3.48
469.308	3.47
469.66	3.47
470.012	3.5
470.364	3.52
470.716	3.53
471.068	3.53
471.42	3.54
471.772	3.55
472.123	3.57
472.475	3.59
472.827	3.59
473.178	3.61
473.53	3.62
473.882	3.62
474.233	3.62
474.585	3.62
474.936	3.6
475.288	3.6
475.639	3.61
475.99	3.61
476.342	3.6
476.693	3.6
477.044	3.63
477.395	3.6
477.746	3.58
478.097	3.57
478.448	3.57
478.8	3.56
479.15	3.54
479.501	3.54
479.852	3.53
480.203	3.53
480.554	3.54
480.905	3.57
481.255	3.56
481.606	3.56
481.957	3.57
482.307	3.58
482.658	3.59
483.009	3.58
483.359	3.58
483.709	3.58
484.06	3.57
484.41	3.57
484.761	3.57
485.111	3.57
485.461	3.57
485.811	3.57
486.162	3.58
486.512	3.58
486.862	3.58
487.212	3.58
487.562	3.58
487.912	3.57
488.262	3.56
488.612	3.56
488.961	3.56
489.311	3.56
489.661	3.56
490.011	3.56
490.36	3.56
490.71	3.57
491.06	3.57
491.409	3.59
491.759	3.58
492.108	3.59
492.458	3.6
492.807	3.61
493.157	3.63
493.506	3.63
493.855	3.66
494.204	3.67
494.554	3.7
494.903	3.71
495.252	3.73
495.601	3.77
495.95	3.78
496.299	3.8
496.648	3.83
496.997	3.85
497.346	3.89
497.695	3.93
498.043	3.95
498.392	3.99
498.741	4.01
499.09	4.05
499.438	4.09
499.787	4.14
500.135	4.19
500.484	4.21
500.832	4.25
501.181	4.27
501.529	4.3
501.878	4.35
502.226	4.4
502.574	4.44
502.923	4.47
503.271	4.51
503.619	4.58
503.967	4.62
504.315	4.66
504.663	4.72
505.011	4.77
505.359	4.84
505.707	4.88
506.055	4.93
506.403	4.98
506.751	5.05
507.098	5.1
507.446	5.15
507.794	5.2
508.141	5.26
508.489	5.3
508.837	5.37
509.184	5.42
509.531	5.46
509.879	5.54
510.226	5.63
510.574	5.68
510.921	5.75
511.268	5.83
511.616	5.88
511.963	5.93
512.31	5.99
512.657	6.05
513.004	6.15
513.351	6.22
513.698	6.32
514.045	6.39
514.392	6.47
514.739	6.55
515.086	6.65
515.432	6.74
515.779	6.83
516.126	6.94
516.473	7.02
516.819	7.12
517.166	7.2
517.512	7.27
517.859	7.37
518.205	7.43
518.552	7.49
518.898	7.59
519.245	7.64
519.591	7.74
519.937	7.82
520.283	7.9
520.629	8
520.976	8.09
521.322	8.2
521.668	8.31
522.014	8.42
522.36	8.54
522.706	8.66
523.052	8.81
523.398	8.94
523.743	9.09
524.089	9.24
524.435	9.37
524.781	9.5
525.126	9.64
525.472	9.76
525.817	9.87
526.163	9.97
526.509	10.07
526.854	10.16
527.199	10.25
527.545	10.34
527.89	10.41
528.235	10.5
528.581	10.61
528.926	10.71
529.271	10.81
529.616	10.9
529.961	10.99
530.306	11.08
530.651	11.18
530.996	11.3
531.341	11.41
531.686	11.55
532.031	11.68
532.376	11.79
532.721	11.94
533.065	12.11
533.41	12.29
533.755	12.44
534.099	12.61
534.444	12.8
534.788	12.97
535.133	13.16
535.477	13.34
535.822	13.51
536.166	13.71
536.51	13.93
536.855	14.17
537.199	14.43
537.543	14.69
537.887	14.93
538.231	15.17
538.576	15.41
538.92	15.63
539.264	15.87
539.608	16.11
539.951	16.32
540.295	16.52
540.639	16.69
540.983	16.93
541.327	17.12
541.671	17.31
542.014	17.51
542.358	17.71
542.701	17.9
543.045	18.12
543.389	18.33
543.732	18.53
544.075	18.73
544.419	18.94
544.762	19.15
545.105	19.4
545.449	19.66
545.792	19.95
546.135	20.22
546.478	20.54
546.821	20.83
547.165	21.15
547.508	21.46
547.851	21.78
548.194	22.07
548.536	22.39
548.879	22.74
549.222	23.08
549.565	23.39
549.908	23.73
550.25	24.08
550.593	24.44
550.936	24.75
551.278	25.14
551.621	25.49
551.963	25.89
552.306	26.25
552.648	26.61
552.991	26.98
553.333	27.35
553.675	27.62
554.017	28.01
554.36	28.35
554.702	28.7
555.044	29.03
555.386	29.39
555.728	29.76
556.07	30.11
556.412	30.5
556.754	30.87
557.096	31.23
557.438	31.58
557.78	31.88
558.121	32.26
558.463	32.64
558.805	33.03
559.147	33.36
559.488	33.75
559.83	34.11
560.171	34.46
560.513	34.83
560.854	35.21
561.196	35.56
561.537	35.99
561.878	36.32
562.22	36.66
562.561	36.98
562.902	37.27
563.243	37.6
563.584	37.91
563.925	38.2
564.266	38.56
564.607	38.84
564.948	39.23
565.289	39.56
565.63	39.84
565.971	40.13
566.312	40.44
566.653	40.68
566.993	40.96
567.334	41.21
567.675	41.47
568.015	41.78
568.356	42.06
568.696	42.28
569.037	42.58
569.377	42.87
569.718	43.16
570.058	43.46
570.398	43.69
570.739	43.97
571.079	44.27
571.419	44.54
571.759	44.75
572.099	44.92
572.439	45.14
572.779	45.38
573.119	45.6
573.459	45.81
573.799	46.09
574.139	46.29
574.479	46.51
574.819	46.7
575.158	46.93
575.498	47.14
575.838	47.42
576.177	47.57
576.517	47.78
576.856	48.02
577.196	48.24
577.535	48.48
577.875	48.7
578.214	48.88
578.553	49.12
578.893	49.43
579.232	49.77
579.571	50.02
579.91	50.19
580.25	50.43
580.589	50.64
580.928	50.86
581.267	51.12
581.606	51.33
581.945	51.56
582.283	51.71
582.622	51.84
582.961	52
583.3	52.22
583.639	52.4
583.977	52.54
584.316	52.65
584.654	52.83
584.993	53
585.332	53.17
585.67	53.31
586.008	53.4
586.347	53.44
586.685	53.62
587.024	53.82
587.362	53.96
587.7	54.05
588.038	54.21
588.376	54.3
588.715	54.46
589.053	54.53
589.391	54.67
589.729	54.88
590.067	54.91
590.404	55.11
590.742	55.21
591.08	55.37
591.418	55.54
591.756	55.7
592.093	55.84
592.431	56.01
592.769	56.12
593.106	56.33
593.444	56.48
593.781	56.57
594.119	56.71
594.456	56.82
594.793	57.05
595.131	57.09
595.468	57.14
595.805	57.24
596.143	57.45
596.48	57.53
596.817	57.6
597.154	57.73
597.491	57.76
597.828	57.94
598.165	58.11
598.502	58.16
598.839	58.18
599.176	58.2
599.512	58.22
599.849	58.32
600.186	58.37
600.523	58.47
600.859	58.61
601.196	58.71
601.532	58.79
601.869	58.74
602.205	58.76
602.542	58.87
602.878	58.89
603.215	58.88
603.551	58.99
603.887	59.09
604.223	59.05
604.56	59.15
604.896	59.2
605.232	59.26
605.568	59.44
605.904	59.55
606.24	59.66
606.576	59.75
606.912	59.82
607.248	59.84
607.583	59.82
607.919	59.88
608.255	59.9
608.591	59.94
608.926	60.1
609.262	60.26
609.597	60.35
609.933	60.45
610.268	60.61
610.604	60.67
610.939	60.65
611.275	60.85
611.61	60.86
611.945	60.82
612.281	60.79
612.616	60.82
612.951	60.87
613.286	61.03
613.621	61.15
613.956	61.21
614.291	61.37
614.626	61.56
614.961	61.54
615.296	61.62
615.631	61.65
615.966	61.7
616.3	61.66
616.635	61.67
616.97	61.73
617.304	61.66
617.639	61.66
617.973	61.83
618.308	61.92
618.642	61.98
618.977	62.09
619.311	62.23
619.646	62.22
619.98	62.25
620.314	62.23
620.648	62.27
620.983	62.36
621.317	62.31
621.651	62.33
621.985	62.51
622.319	62.53
622.653	62.7
622.987	62.73
623.321	62.87
623.655	62.88
623.988	62.98
624.322	62.98
624.656	63.01
624.99	62.99
625.323	62.91
625.657	62.98
625.99	63.01
626.324	63
626.657	63.04
626.991	63.05
627.324	62.98
627.658	62.96
627.991	62.96
628.324	63.09
628.657	63.16
628.991	63.07
629.324	63.07
629.657	63.01
629.99	63.02
630.323	63.02
630.656	63.15
630.989	63.09
631.322	63.29
631.655	63.41
631.987	63.48
632.32	63.57
632.653	63.57
632.986	63.68
633.318	63.77
633.651	63.8
633.984	63.87
634.316	63.97
634.649	64.04
634.981	64.06
635.313	64.12
635.646	64.14
635.978	64.24
636.31	64.4
636.643	64.47
636.975	64.55
637.307	64.49
637.639	64.51
637.971	64.53
638.303	64.43
638.635	64.32
638.967	64.27
639.299	64.3
639.631	64.28
639.963	64.23
640.295	64.2
640.626	64.25
640.958	64.29
641.29	64.27
641.621	64.31
641.953	64.47
642.285	64.47
642.616	64.47
642.948	64.47
643.279	64.35
643.61	64.42
643.942	64.38
644.273	64.56
644.604	64.55
644.936	64.64
645.267	64.6
645.598	64.66
645.929	64.72
646.26	64.8
646.591	64.8
646.922	64.81
647.253	64.82
647.584	64.84
647.915	64.95
648.245	64.96
648.576	65.07
648.907	64.97
649.238	64.9
649.568	64.92
649.899	64.75
650.229	64.83
650.56	64.8
650.89	64.82
651.221	64.78
651.551	64.79
651.882	64.72
652.212	64.79
652.542	64.77
652.872	64.74
653.203	64.74
653.533	64.85
653.863	64.93
654.193	64.91
654.523	64.96
654.853	64.96
655.183	65.08
655.513	64.9
655.843	65.07
656.172	65.03
656.502	65.05
656.832	65.27
657.162	65.35
657.491	65.29
657.821	65.28
658.15	65.36
658.48	65.49
658.809	65.59
659.139	65.54
659.468	65.67
659.798	65.78
660.127	65.79
660.456	65.85
660.785	65.82
661.115	65.9
661.444	65.8
661.773	65.81
662.102	65.73
662.431	65.82
662.76	65.72
663.089	65.73
663.418	65.65
663.747	65.72
664.076	65.66
664.404	65.61
664.733	65.66
665.062	65.59
665.39	65.5
665.719	65.61
666.048	65.82
666.376	65.71
666.705	65.52
667.033	65.5
667.362	65.42
667.69	65.37
668.018	65.29
668.347	65.4
668.675	65.35
669.003	65.46
669.331	65.52
669.659	65.48
669.987	65.59
670.315	65.64
670.643	65.64
670.971	65.74
671.299	65.97
671.627	66.06
671.955	66.05
672.283	66.05
672.61	66
672.938	65.92
673.266	65.97
673.593	66.13
673.921	65.9
674.249	66.04
674.576	66.07
674.904	66.3
675.231	66.31
675.558	66.34
675.886	66.21
676.213	66.2
676.54	66.29
676.867	66.24
677.195	66.22
677.522	66.29
677.849	66.24
678.176	66.24
678.503	66.28
678.83	66.44
679.157	66.47
679.484	66.45
679.81	66.48
680.137	66.44
680.464	66.48
680.791	66.57
681.117	66.41
681.444	66.39
681.771	66.35
682.097	66.46
682.424	66.42
682.75	66.46
683.077	66.47
683.403	66.41
683.729	66.33
684.056	66.38
684.382	66.29
684.708	66.2
685.034	66.17
685.36	66.11
685.686	65.94
686.012	66
686.339	66.03
686.664	65.97
686.99	66.04
687.316	66.03
687.642	66.09
687.968	66.23
688.294	66.34
688.619	66.31
688.945	66.18
689.271	66.2
689.596	66.15
689.922	66.13
690.247	66.19
690.573	66.42
690.898	66.53
691.224	66.54
691.549	66.57
691.874	66.63
692.2	66.5
692.525	66.43
692.85	66.4
693.175	66.28
693.5	66.24
693.825	66.26
694.15	66.4
694.475	66.48
694.8	66.48
695.125	66.41
695.45	66.42
695.775	66.28
696.099	66.36
696.424	66.55
696.749	66.6
697.073	66.52
697.398	66.45
697.723	66.3
698.047	66.23
698.372	66.45
698.696	66.4
699.02	66.5
699.345	66.61
699.669	66.68
699.993	66.79
700.318	66.95
700.642	66.95
700.966	66.8
701.29	66.71
701.614	66.72
701.938	66.81
702.262	66.94
702.586	67.02
702.91	66.97
703.234	67.01
703.557	67.18
703.881	67.35
704.205	67.27
704.529	67.42
704.852	67.59
705.176	67.26
705.499	67.3
705.823	67.35
706.146	67.42
706.47	67.53
706.793	67.43
707.117	67.25
707.44	67.31
707.763	67.3
708.086	67.37
708.409	67.34
708.733	67.46
709.056	67.17
709.379	67.47
709.702	67.44
710.025	67.23
710.348	67.06
710.671	66.8
710.993	66.86
711.316	66.9
711.639	66.81
711.962	67.03
712.284	66.97
712.607	67.02
712.93	66.87
713.252	66.66
713.575	66.71
713.897	66.89
714.22	66.74
714.542	66.77
714.864	66.78
715.187	66.81
715.509	66.81
715.831	66.85
716.153	66.61
716.475	66.7
716.798	66.77
717.12	66.77
717.442	66.96
717.764	66.98
718.085	66.96
718.407	67.17
718.729	67.19
719.051	67.18
719.373	67.03
719.695	67.25
720.016	67.25
720.338	67.31
720.659	66.91
720.981	67.05
721.302	67.11
721.624	67.16
721.945	67.29
722.267	67.21
722.588	67.15
722.909	67.11
723.231	67.03
723.552	67.18
723.873	67.18
724.194	67.34
724.515	67.62
724.836	67.43
725.157	67.26
725.478	67.18
725.799	67.18
726.12	67.26
726.441	67.06
726.762	66.83
727.083	66.78
727.403	66.95
727.724	66.86
728.045	67.01
728.365	66.98
728.686	66.94
729.006	66.88
729.327	67.08
729.647	67.13
729.967	67.15
730.288	66.82
730.608	66.66
730.928	66.4
731.249	66.06
731.569	66.28
731.889	66.25
732.209	66.24
732.529	66.18
732.849	66.22
733.169	66.28
733.489	66.46
733.809	66.34
734.129	66.49
734.448	66.57
734.768	66.5
735.088	66.72
735.408	66.76
735.727	66.98
736.047	66.67
736.366	66.68
736.686	66.59
737.005	66.92
737.325	66.96
737.644	67.01
737.963	67.17
738.283	66.97
738.602	66.99
738.921	66.93
739.24	67.24
739.56	67.22
739.879	67.25
740.198	67.58
740.517	67.72
740.836	67.98
741.155	67.97
741.473	67.92
741.792	67.98
742.111	67.73
742.43	67.39
742.748	67.68
743.067	67.9
743.386	67.96
743.704	67.98
744.023	67.86
744.341	68.15
744.66	68.48
744.978	68.68
745.297	68.55
745.615	68.55
745.933	68.51
746.252	68.76
746.57	68.99
746.888	68.41
747.206	68.55
747.524	68.26
747.842	68.4
748.16	68.3
748.478	68.16
748.796	68.31
749.114	68.78
749.432	68.59
749.749	68.67
750.067	68.79
750.385	68.56
750.703	68.79
751.02	68.63
751.338	68.32
751.655	68.31
751.973	68.46
752.29	68.54
752.608	68.48
752.925	68.29
753.242	68.2
753.56	68.53
753.877	68.4
754.194	68.24
754.511	68.4
754.828	68.53
755.145	68.35
755.462	68.45
755.779	68.06
756.096	68.28
756.413	67.88
756.73	67.57
757.047	67.55
757.364	67.43
757.68	67.43
757.997	67.55
758.314	67.63
758.63	67.6
758.947	67.5
759.264	67.67
759.58	67.77
759.896	67.53
760.213	67.6
760.529	67.73
760.846	67.92
761.162	67.67
761.478	67.45
761.794	67.89
762.11	68.11
762.426	68.25
762.743	68.07
763.059	68.01
763.375	68.04
763.69	68
764.006	68.14
764.322	67.99
764.638	67.83
764.954	67.77
765.27	67.69
765.585	67.86
765.901	67.93
766.216	67.65
766.532	67.69
766.848	67.5
767.163	67.45
767.478	67.66
767.794	67.59
768.109	67.81
768.424	67.54
768.74	67.25
769.055	67.23
769.37	67.39
769.685	67.54
770	67.93
770.315	67.77
770.63	68.11
770.945	68.4
771.26	68.43
771.575	68.46
771.89	68.61
772.205	68.4
772.52	67.84
772.834	68.3
773.149	68.64
773.464	68.83
773.778	69.03
774.093	68.73
774.407	69.09
774.722	69.13
775.036	69.35
775.351	69.29
775.665	69.28
775.979	69.29
776.293	69.05
776.608	68.79
776.922	69.32
777.236	68.77
777.55	68.51
777.864	68.59
778.178	68.59
778.492	68.51
778.806	68.57
779.12	68.76
779.434	68.58
779.747	68.65
780.061	68.6
780.375	67.97
780.689	67.87
781.002	67.87
781.316	67.7
781.629	67.74
781.943	67.88
782.256	67.71
782.57	67.32
782.883	67.71
783.196	67.75
783.51	67.64
783.823	67.89
784.136	68.46
784.449	68.99
784.762	69.03
785.075	69.42
785.388	69.23
785.701	69.33
786.014	68.67
786.327	68.35
786.64	68.49
786.953	68.81
787.266	68.58
787.578	68.15
787.891	68.22
788.204	68.03
788.516	68.33
788.829	68.6
789.141	68.97
789.454	69.3
789.766	69.53
790.079	69.78
790.391	69.91
790.703	69.47
791.016	69.37
791.328	69.44
791.64	69.03
791.952	68.77
792.264	68.4
792.576	68.76
792.888	68.93
793.2	68.66
793.512	69.15
793.824	69.51
794.136	70.02
794.448	70.46
794.76	70.33
795.071	70.21
795.383	70.06
795.695	70.12
796.006	69.57
796.318	69.23
796.629	68.83
796.941	68.71
797.252	69.47
797.564	69.2
797.875	68.92
798.186	69.05
798.497	69.67
798.809	70.03
799.12	70.65
799.431	69.98
799.742	70.39
800.053	69.96
800.364	70.37
800.675	70.36
800.986	70.15
801.297	69.73
801.608	69.56
801.918	69.26
802.229	68.7
802.54	68.87
802.851	69.51
803.161	69.99
803.472	69.68
803.782	68.93
804.093	69.39
804.403	69.2
804.714	68.72
805.024	68.42
805.334	68.55
805.645	68.08
805.955	69.03
806.265	68.43
806.575	67.84
806.885	67.25
807.195	67.23
807.505	66.79
807.815	66.8
808.125	66.46
808.435	66.41
808.745	67.02
809.055	67.5
809.365	67.31
809.674	66.96
809.984	67.21
810.294	67.59
810.603	67.2
810.913	67.64
811.222	68.49
811.532	69.1
811.841	69.21
812.151	69.22
812.46	68.24
812.769	68.43
813.079	69.73
813.388	69.32
813.697	69.44
814.006	69.64
814.315	69.79
814.624	70.07
814.933	70.55
815.242	70.16
815.551	70.48
815.86	70.24
816.169	70.12
816.478	69.97
816.786	69.19
817.095	68.41
817.404	68.72
817.712	68.52
818.021	68.42
818.33	68.17
818.638	68.48
818.947	68.94
819.255	68.89
819.563	68.81
819.872	69.63
820.18	69.45
820.488	69.05
820.796	69.17
821.105	69.16
821.413	69.23
821.721	69.11
822.029	69
822.337	69.11
822.645	69.14
822.953	69.25
823.26	69.22
823.568	69.41
823.876	69.23
824.184	69.22
824.491	69.17
824.799	69.33
825.107	69.23
825.414	69.3
825.722	69.3
826.029	69.31
826.337	68.83
826.644	68.79
826.951	68.99
827.259	68.99
827.566	68.91
827.873	69.05
828.18	69.35
828.488	69.24
828.795	68.93
829.102	68.79
829.409	68.64
829.716	68.92
830.023	68.89
830.329	69.04
830.636	69.29
830.943	69.25
831.25	68.84
831.557	69.04
831.863	69.09
832.17	69.02
832.476	68.98
832.783	69.68
833.089	69.88
833.396	70.16
833.702	69.48
834.009	69.8
834.315	69.16
834.621	69.43
834.928	69.71
835.234	70.01
835.54	70.23
835.846	70.68
836.152	70.45
836.458	70.18
836.764	70.13
837.07	69.96
837.376	69.73
837.682	69.67
837.988	69.68
838.293	68.92
838.599	68.76
838.905	68.77
839.211	68.4
839.516	68.56
839.822	68.1
840.127	68.82
840.433	68.02
840.738	68.8
841.044	67.95
841.349	67.54
841.654	67.34
841.959	67.54
842.265	67.67
842.57	67.87
842.875	67.98
843.18	68.28
843.485	69.24
843.79	69.72
844.095	70.04
844.4	69.71
844.705	71.51
845.01	71.9
845.315	72.15
845.619	72.1
845.924	70.53
846.229	71.46
846.533	72.9
846.838	73.53
847.142	72.09
847.447	72.35
847.751	70.5
848.056	70.84
848.36	70.66
848.664	69.01
848.969	69.66
849.273	70.13
849.577	70.76
849.881	68.44
850.185	69.17
850.489	69.75
850.794	68.76
851.097	66.04
851.401	67.6
851.705	65.65
852.009	67.52
852.313	68.96
852.617	68.08
852.92	67.58
853.224	68.43
853.528	70.58
853.831	70.46
854.135	69.97
854.438	68.11
854.742	67.51
855.045	67.18
855.349	66.7
855.652	66.35
855.955	66.29
856.259	65.88
856.562	65.68
856.865	67.25
857.168	68.74
857.471	69.76
857.774	70.56
858.077	72.34
858.38	70.52
858.683	68.56
858.986	66.9
859.289	66.28
859.592	64.1
859.894	63.25
860.197	63.58
860.5	65.24
860.802	67
861.105	69.47
861.407	71.7
861.71	69.18
862.012	69.42
862.315	66.69
862.617	66.59
862.919	66.13
863.222	65.36
863.524	65.18
863.826	66.67
864.128	66.13
864.43	67.09
864.732	69.4
865.034	71.69
865.336	75.47
865.638	77
865.94	77.04
866.242	77.09
866.544	76.95
866.846	77.24
867.147	77.96
867.449	74.71
867.751	73.03
868.052	77.55
868.354	79.52
868.655	84.41
868.957	85.46
869.258	85.35
869.56	83.38
869.861	83.56
870.162	85.73
870.463	86.17
870.765	86.74
871.066	81.84
871.367	80.45
871.668	77.49
871.969	73.89
872.27	76.88
872.571	78.58
872.872	77.08
873.173	76.48
873.473	75.83
873.774	76.15
874.075	75.94
874.376	72.27
874.676	71.83
874.977	67.7
875.277	65.99
875.578	66.7
875.878	68.06
876.179	68.06
876.479	65.52
876.78	63.94
877.08	60.98
877.38	63.97
877.68	65.01
877.981	65.03
878.281	68.18
878.581	65.36
