Data from BA28470_Reflection_00014.txt Node
Date: Mon Nov 18 15:10:25 EST 2019
User: vgr7
Spectrometer: USB2G7710
Scans to average: 3
Trigger mode: 4
Integration Time (sec): 2.000000E-2
Electric dark correction enabled: true
Boxcar width: 10
XAxis mode: Wavelengths
Number of Pixels in Spectrum: 2048
>>>>>Begin Spectral Data<<<<<
177.721	-116.38
178.105	-88.98
178.488	453.71
178.871	-32.35
179.254	-110.33
179.636	139.82
180.019	200.22
180.402	33.33
180.785	-6467.57
181.168	-168.21
181.55	-339.74
181.933	203.18
182.316	241.01
182.698	415.2
183.081	253.23
183.463	415.94
183.846	332.67
184.228	244.01
184.611	198.47
184.993	271.81
185.376	425.02
185.758	580.16
186.14	618.14
186.522	447.5
186.904	468.66
187.287	723.67
187.669	471.17
188.051	258.95
188.433	341.14
188.815	568.89
189.197	442.28
189.579	661.78
189.961	948.86
190.342	9552.83
190.724	-1834.36
191.106	6564.79
191.488	3016.08
191.869	-1009.41
192.251	-332.52
192.633	-243.19
193.014	-350.76
193.396	-1158.06
193.777	-702.29
194.159	-798.27
194.54	-674.83
194.922	-545.04
195.303	-489.48
195.684	-293.34
196.065	-188.98
196.447	-259.83
196.828	-328.57
197.209	-242.57
197.59	-198.85
197.971	-152.85
198.352	-142.63
198.733	-179.81
199.114	-146.08
199.495	-138
199.876	-136.25
200.257	-127.61
200.638	-124.48
201.018	-116.66
201.399	-113.42
201.78	-135.68
202.16	-135.78
202.541	-165.17
202.922	-159.28
203.302	-204.38
203.683	-384.09
204.063	-941.61
204.444	-552.17
204.824	-466.94
205.204	-623.61
205.585	-669.16
205.965	-2309.23
206.345	-2127.88
206.725	2685.45
207.106	-5317.27
207.486	1130.86
207.866	4592.39
208.246	8144.25
208.626	2297.94
209.006	-4717.14
209.386	-2660
209.766	-1109.47
210.145	-1006.52
210.525	-838.61
210.905	-1119.97
211.285	-918.06
211.664	-377.15
212.044	-336.5
212.424	-270.35
212.803	-306.81
213.183	-283.01
213.562	-243.27
213.942	-177.26
214.321	-153.17
214.701	-132.28
215.08	-190.76
215.459	-127.53
215.838	-125.92
216.218	-118.43
216.597	-109.42
216.976	-114.61
217.355	-98.41
217.734	-101.76
218.113	-98.01
218.492	-104.86
218.871	-82.64
219.25	-89.14
219.629	-104.32
220.008	-95.78
220.387	-94.94
220.766	-88.89
221.144	-102.62
221.523	-106.72
221.902	-117.57
222.28	-150.61
222.659	-142.69
223.037	-113.3
223.416	-122.52
223.794	-97.62
224.173	-102.35
224.551	-82.25
224.929	-76.78
225.308	-65.86
225.686	-57.08
226.064	-45.35
226.442	-38.05
226.821	-37.03
227.199	-30.04
227.577	-28.38
227.955	-24.31
228.333	-22.53
228.711	-19.73
229.089	-13.16
229.467	-15.23
229.845	-13.07
230.222	-10.85
230.6	-12.28
230.978	-10.95
231.356	-8.49
231.733	-10.18
232.111	-8.78
232.488	-9.27
232.866	-10.56
233.243	-9.14
233.621	-11.12
233.998	-11.22
234.376	-11.2
234.753	-9.42
235.13	-9.01
235.508	-7.73
235.885	-7.44
236.262	-8.22
236.639	-7.25
237.016	-7.31
237.393	-3.21
237.77	-2.8
238.147	-1.5
238.524	0.15
238.901	0.87
239.278	1.71
239.655	3.17
240.032	3.8
240.409	4.28
240.785	4.58
241.162	4.43
241.539	4.45
241.915	4.39
242.292	4.26
242.668	4.09
243.045	4.73
243.421	5.12
243.798	5.19
244.174	5.39
244.551	5.56
244.927	5.53
245.303	5.45
245.679	5.51
246.056	5.34
246.432	5.19
246.808	5.38
247.184	5.13
247.56	4.93
247.936	4.87
248.312	4.89
248.688	4.79
249.064	4.75
249.44	4.61
249.815	4.72
250.191	5.04
250.567	5.11
250.943	4.65
251.318	4.6
251.694	4.49
252.069	4.25
252.445	4.09
252.82	4.15
253.196	3.82
253.571	3.34
253.947	3.4
254.322	3.47
254.697	3.13
255.073	3.12
255.448	3.27
255.823	3.01
256.198	3.37
256.573	3.58
256.948	3.67
257.323	3.95
257.698	4.18
258.073	4.12
258.448	3.95
258.823	4.35
259.198	4.15
259.573	4.29
259.948	4.4
260.322	4.39
260.697	4.32
261.072	4.36
261.446	4.53
261.821	4.51
262.195	4.58
262.57	4.57
262.944	4.53
263.319	4.51
263.693	4.67
264.067	4.54
264.442	4.58
264.816	4.53
265.19	4.43
265.564	4.28
265.938	4.05
266.313	4.16
266.687	4.21
267.061	4.33
267.435	4.37
267.809	4.33
268.183	4.31
268.556	4.24
268.93	4.25
269.304	4.35
269.678	4.49
270.051	4.4
270.425	4.5
270.799	4.54
271.172	4.41
271.546	4.41
271.919	4.31
272.293	4.35
272.666	4.41
273.04	4.45
273.413	4.4
273.787	4.47
274.16	4.41
274.533	4.21
274.906	4.07
275.279	4.02
275.653	3.98
276.026	3.84
276.399	3.96
276.772	4.16
277.145	4.07
277.518	3.96
277.891	4.02
278.263	4.05
278.636	4.16
279.009	4.29
279.382	4.4
279.755	4.31
280.127	4.46
280.5	4.57
280.872	4.55
281.245	4.61
281.617	4.67
281.99	4.79
282.362	4.86
282.735	4.84
283.107	4.89
283.479	4.93
283.852	5.09
284.224	5.03
284.596	4.95
284.968	4.91
285.34	4.87
285.713	4.93
286.085	4.89
286.457	4.89
286.829	4.89
287.201	4.89
287.572	4.92
287.944	4.75
288.316	4.71
288.688	4.68
289.06	4.57
289.431	4.56
289.803	4.53
290.175	4.58
290.546	4.81
290.918	4.73
291.289	4.8
291.661	4.88
292.032	4.98
292.403	4.99
292.775	5.02
293.146	5.1
293.517	5.09
293.889	5.2
294.26	5.26
294.631	5.27
295.002	5.28
295.373	5.41
295.744	5.46
296.115	5.56
296.486	5.55
296.857	5.68
297.228	5.71
297.599	5.73
297.97	5.71
298.34	5.58
298.711	5.73
299.082	5.72
299.452	5.74
299.823	5.81
300.194	5.88
300.564	5.92
300.935	6.05
301.305	6.12
301.676	6.21
302.046	6.2
302.416	6.38
302.787	6.44
303.157	6.38
303.527	6.4
303.897	6.38
304.267	6.67
304.637	6.75
305.008	6.9
305.378	7.14
305.748	7.24
306.117	7.45
306.487	7.29
306.857	7.39
307.227	7.36
307.597	7.35
307.967	7.41
308.336	7.46
308.706	7.41
309.076	7.41
309.445	7.4
309.815	7.48
310.184	7.55
310.554	7.57
310.923	7.66
311.293	7.8
311.662	7.77
312.031	7.71
312.401	7.85
312.77	8.04
313.139	7.99
313.508	7.93
313.877	7.88
314.246	8.02
314.616	8.07
314.985	8.15
315.353	8.12
315.722	8.14
316.091	8.1
316.46	7.97
316.829	8.04
317.198	8.11
317.567	8.14
317.935	8.07
318.304	8.23
318.672	8.29
319.041	8.38
319.41	8.56
319.778	8.7
320.147	8.73
320.515	8.58
320.883	8.64
321.252	8.98
321.62	9.03
321.988	9.11
322.357	9
322.725	9.04
323.093	9.22
323.461	9.3
323.829	9.52
324.197	9.75
324.565	9.8
324.933	9.87
325.301	9.95
325.669	10.12
326.037	10.1
326.405	10.15
326.772	10.19
327.14	10.2
327.508	10.2
327.875	10.16
328.243	10.19
328.61	10.26
328.978	10.28
329.346	10.38
329.713	10.32
330.08	10.6
330.448	10.62
330.815	10.5
331.182	10.54
331.55	10.69
331.917	10.72
332.284	10.92
332.651	10.93
333.018	11.06
333.385	10.89
333.752	10.93
334.119	10.99
334.486	11.04
334.853	11.05
335.22	11.06
335.587	11.08
335.954	11.05
336.32	10.97
336.687	10.9
337.054	10.97
337.42	11.1
337.787	11.14
338.153	11.17
338.52	11.38
338.886	11.26
339.253	11.16
339.619	11.24
339.986	11.17
340.352	11.2
340.718	11.2
341.084	11.27
341.451	11.33
341.817	11.37
342.183	11.29
342.549	11.32
342.915	11.41
343.281	11.47
343.647	11.56
344.013	11.67
344.379	11.66
344.745	11.68
345.11	11.75
345.476	11.67
345.842	11.8
346.208	11.8
346.573	11.95
346.939	12.05
347.304	11.98
347.67	12.02
348.035	11.97
348.401	11.93
348.766	12
349.132	12.08
349.497	12.05
349.862	12.19
350.228	12.14
350.593	12.09
350.958	12.05
351.323	12.05
351.688	12.18
352.053	12.26
352.418	12.11
352.783	12.11
353.148	12.12
353.513	12.05
353.878	12.02
354.243	12.03
354.608	11.98
354.972	11.97
355.337	12.02
355.702	12.16
356.066	12.14
356.431	12.04
356.795	11.9
357.16	11.95
357.524	11.86
357.889	11.86
358.253	11.9
358.618	12.01
358.982	11.98
359.346	11.85
359.71	11.85
360.075	11.95
360.439	11.89
360.803	11.82
361.167	11.79
361.531	11.73
361.895	11.68
362.259	11.67
362.623	11.76
362.987	11.66
363.351	11.48
363.714	11.5
364.078	11.57
364.442	11.58
364.806	11.51
365.169	11.5
365.533	11.5
365.896	11.39
366.26	11.27
366.623	11.18
366.987	11.14
367.35	11.03
367.714	10.99
368.077	10.95
368.44	10.97
368.803	10.99
369.167	10.94
369.53	10.86
369.893	10.81
370.256	10.7
370.619	10.62
370.982	10.62
371.345	10.53
371.708	10.4
372.071	10.28
372.434	10.22
372.797	10.14
373.159	10.09
373.522	10.1
373.885	10.03
374.247	10.04
374.61	10.07
374.973	9.98
375.335	9.83
375.698	9.77
376.06	9.64
376.423	9.52
376.785	9.49
377.147	9.48
377.51	9.4
377.872	9.37
378.234	9.36
378.596	9.33
378.958	9.29
379.321	9.25
379.683	9.27
380.045	9.2
380.407	9.1
380.769	9.03
381.13	8.94
381.492	8.89
381.854	8.84
382.216	8.68
382.578	8.73
382.939	8.74
383.301	8.67
383.663	8.69
384.024	8.66
384.386	8.62
384.747	8.55
385.109	8.56
385.47	8.49
385.832	8.43
386.193	8.37
386.554	8.31
386.916	8.3
387.277	8.24
387.638	8.19
387.999	8.19
388.36	8.15
388.721	8.14
389.082	8.07
389.443	8.06
389.804	8.04
390.165	7.95
390.526	7.9
390.887	7.85
391.248	7.81
391.609	7.77
391.969	7.72
392.33	7.71
392.691	7.6
393.051	7.53
393.412	7.5
393.772	7.44
394.133	7.43
394.493	7.38
394.854	7.35
395.214	7.3
395.574	7.26
395.935	7.21
396.295	7.17
396.655	7.15
397.015	7.08
397.376	7.01
397.736	6.99
398.096	6.94
398.456	6.92
398.816	6.92
399.176	6.87
399.535	6.83
399.895	6.74
400.255	6.76
400.615	6.75
400.975	6.71
401.334	6.68
401.694	6.64
402.054	6.61
402.413	6.57
402.773	6.54
403.132	6.57
403.492	6.55
403.851	6.5
404.211	6.48
404.57	6.42
404.929	6.46
405.288	6.4
405.648	6.37
406.007	6.35
406.366	6.28
406.725	6.28
407.084	6.28
407.443	6.28
407.802	6.28
408.161	6.21
408.52	6.21
408.879	6.21
409.238	6.18
409.596	6.16
409.955	6.13
410.314	6.13
410.673	6.09
411.031	6.06
411.39	6.03
411.748	6
412.107	6.04
412.465	5.98
412.824	6
413.182	5.98
413.54	5.97
413.899	5.95
414.257	5.92
414.615	5.88
414.974	5.88
415.332	5.86
415.69	5.89
416.048	5.86
416.406	5.81
416.764	5.77
417.122	5.75
417.48	5.7
417.838	5.67
418.195	5.66
418.553	5.63
418.911	5.64
419.269	5.64
419.626	5.61
419.984	5.59
420.342	5.57
420.699	5.54
421.057	5.51
421.414	5.5
421.772	5.49
422.129	5.48
422.486	5.45
422.844	5.43
423.201	5.4
423.558	5.37
423.915	5.36
424.273	5.37
424.63	5.36
424.987	5.37
425.344	5.37
425.701	5.34
426.058	5.35
426.415	5.32
426.772	5.28
427.128	5.24
427.485	5.25
427.842	5.23
428.199	5.23
428.555	5.21
428.912	5.2
429.269	5.19
429.625	5.19
429.982	5.18
430.338	5.17
430.695	5.18
431.051	5.19
431.407	5.2
431.764	5.19
432.12	5.18
432.476	5.19
432.832	5.18
433.189	5.17
433.545	5.17
433.901	5.19
434.257	5.2
434.613	5.23
434.969	5.22
435.325	5.22
435.681	5.23
436.036	5.24
436.392	5.24
436.748	5.21
437.104	5.2
437.459	5.2
437.815	5.19
438.171	5.18
438.526	5.19
438.882	5.18
439.237	5.17
439.593	5.17
439.948	5.14
440.304	5.15
440.659	5.13
441.014	5.13
441.369	5.1
441.725	5.09
442.08	5.08
442.435	5.06
442.79	5.07
443.145	5.05
443.5	5.03
443.855	5.03
444.21	5.04
444.565	5.05
444.92	5.05
445.275	5.04
445.629	5.04
445.984	5.02
446.339	5
446.693	4.98
447.048	4.97
447.403	4.95
447.757	4.92
448.112	4.92
448.466	4.9
448.82	4.89
449.175	4.88
449.529	4.89
449.883	4.87
450.238	4.85
450.592	4.83
450.946	4.83
451.3	4.81
451.654	4.77
452.008	4.75
452.362	4.73
452.716	4.72
453.07	4.71
453.424	4.72
453.778	4.71
454.132	4.7
454.486	4.7
454.839	4.72
455.193	4.74
455.547	4.76
455.9	4.77
456.254	4.79
456.607	4.81
456.961	4.79
457.314	4.81
457.668	4.81
458.021	4.82
458.375	4.82
458.728	4.81
459.081	4.83
459.434	4.82
459.787	4.83
460.141	4.83
460.494	4.83
460.847	4.83
461.2	4.84
461.553	4.86
461.906	4.89
462.259	4.89
462.611	4.89
462.964	4.9
463.317	4.89
463.67	4.88
464.022	4.89
464.375	4.89
464.728	4.9
465.08	4.91
465.433	4.92
465.785	4.92
466.138	4.93
466.49	4.96
466.843	4.98
467.195	4.99
467.547	5.02
467.899	5.03
468.252	5.03
468.604	5.05
468.956	5.05
469.308	5.06
469.66	5.07
470.012	5.08
470.364	5.08
470.716	5.09
471.068	5.13
471.42	5.13
471.772	5.16
472.123	5.17
472.475	5.18
472.827	5.2
473.178	5.23
473.53	5.22
473.882	5.22
474.233	5.23
474.585	5.21
474.936	5.2
475.288	5.22
475.639	5.22
475.99	5.2
476.342	5.2
476.693	5.19
477.044	5.19
477.395	5.17
477.746	5.17
478.097	5.16
478.448	5.14
478.8	5.13
479.15	5.1
479.501	5.11
479.852	5.1
480.203	5.11
480.554	5.11
480.905	5.13
481.255	5.13
481.606	5.13
481.957	5.15
482.307	5.15
482.658	5.15
483.009	5.15
483.359	5.15
483.709	5.16
484.06	5.15
484.41	5.15
484.761	5.16
485.111	5.17
485.461	5.18
485.811	5.18
486.162	5.19
486.512	5.21
486.862	5.21
487.212	5.22
487.562	5.21
487.912	5.21
488.262	5.2
488.612	5.22
488.961	5.2
489.311	5.2
489.661	5.21
490.011	5.21
490.36	5.21
490.71	5.23
491.06	5.23
491.409	5.24
491.759	5.26
492.108	5.26
492.458	5.27
492.807	5.28
493.157	5.3
493.506	5.31
493.855	5.32
494.204	5.33
494.554	5.33
494.903	5.35
495.252	5.39
495.601	5.41
495.95	5.42
496.299	5.46
496.648	5.49
496.997	5.51
497.346	5.55
497.695	5.59
498.043	5.64
498.392	5.69
498.741	5.75
499.09	5.78
499.438	5.83
499.787	5.87
500.135	5.93
500.484	5.99
500.832	6.05
501.181	6.1
501.529	6.15
501.878	6.22
502.226	6.3
502.574	6.35
502.923	6.41
503.271	6.48
503.619	6.56
503.967	6.66
504.315	6.73
504.663	6.79
505.011	6.88
505.359	6.95
505.707	7
506.055	7.07
506.403	7.16
506.751	7.2
507.098	7.28
507.446	7.34
507.794	7.39
508.141	7.47
508.489	7.52
508.837	7.61
509.184	7.71
509.531	7.78
509.879	7.88
510.226	7.98
510.574	8.08
510.921	8.16
511.268	8.2
511.616	8.3
511.963	8.39
512.31	8.45
512.657	8.54
513.004	8.62
513.351	8.7
513.698	8.8
514.045	8.92
514.392	9.04
514.739	9.14
515.086	9.26
515.432	9.37
515.779	9.46
516.126	9.56
516.473	9.66
516.819	9.75
517.166	9.83
517.512	9.91
517.859	9.98
518.205	10.05
518.552	10.17
518.898	10.26
519.245	10.36
519.591	10.43
519.937	10.51
520.283	10.65
520.629	10.77
520.976	10.87
521.322	10.98
521.668	11.09
522.014	11.19
522.36	11.33
522.706	11.48
523.052	11.68
523.398	11.85
523.743	12.02
524.089	12.2
524.435	12.35
524.781	12.51
525.126	12.63
525.472	12.77
525.817	12.88
526.163	13.01
526.509	13.12
526.854	13.24
527.199	13.33
527.545	13.43
527.89	13.53
528.235	13.65
528.581	13.77
528.926	13.88
529.271	14.01
529.616	14.12
529.961	14.22
530.306	14.33
530.651	14.45
530.996	14.59
531.341	14.74
531.686	14.92
532.031	15.07
532.376	15.24
532.721	15.42
533.065	15.62
533.41	15.79
533.755	15.98
534.099	16.18
534.444	16.38
534.788	16.57
535.133	16.76
535.477	16.94
535.822	17.14
536.166	17.4
536.51	17.64
536.855	17.91
537.199	18.19
537.543	18.42
537.887	18.71
538.231	18.99
538.576	19.28
538.92	19.52
539.264	19.8
539.608	20.08
539.951	20.29
540.295	20.51
540.639	20.74
540.983	20.96
541.327	21.18
541.671	21.45
542.014	21.68
542.358	21.92
542.701	22.17
543.045	22.4
543.389	22.62
543.732	22.83
544.075	23.07
544.419	23.33
544.762	23.61
545.105	23.87
545.449	24.15
545.792	24.42
546.135	24.74
546.478	25.07
546.821	25.4
547.165	25.77
547.508	26.14
547.851	26.48
548.194	26.84
548.536	27.19
548.879	27.55
549.222	27.93
549.565	28.27
549.908	28.66
550.25	29.05
550.593	29.42
550.936	29.85
551.278	30.28
551.621	30.68
551.963	31.1
552.306	31.46
552.648	31.82
552.991	32.23
553.333	32.6
553.675	32.97
554.017	33.36
554.36	33.69
554.702	34.08
555.044	34.45
555.386	34.83
555.728	35.23
556.07	35.62
556.412	35.95
556.754	36.39
557.096	36.81
557.438	37.15
557.78	37.55
558.121	37.93
558.463	38.32
558.805	38.69
559.147	39.09
559.488	39.52
559.83	39.97
560.171	40.29
560.513	40.71
560.854	41.08
561.196	41.39
561.537	41.8
561.878	42.2
562.22	42.6
562.561	42.91
562.902	43.3
563.243	43.6
563.584	44
563.925	44.27
564.266	44.6
564.607	44.89
564.948	45.22
565.289	45.52
565.63	45.77
565.971	46.05
566.312	46.29
566.653	46.57
566.993	46.71
567.334	47
567.675	47.26
568.015	47.55
568.356	47.87
568.696	48.09
569.037	48.25
569.377	48.5
569.718	48.77
570.058	49.04
570.398	49.25
570.739	49.49
571.079	49.72
571.419	49.88
571.759	50.15
572.099	50.37
572.439	50.59
572.779	50.78
573.119	50.97
573.459	51.15
573.799	51.35
574.139	51.61
574.479	51.78
574.819	51.98
575.158	52.13
575.498	52.36
575.838	52.57
576.177	52.84
576.517	53.01
576.856	53.23
577.196	53.35
577.535	53.53
577.875	53.73
578.214	53.97
578.553	54.27
578.893	54.48
579.232	54.71
579.571	54.92
579.91	55.11
580.25	55.34
580.589	55.63
580.928	55.87
581.267	56.1
581.606	56.31
581.945	56.47
582.283	56.62
582.622	56.77
582.961	57.03
583.3	57.12
583.639	57.29
583.977	57.4
584.316	57.61
584.654	57.84
584.993	58.01
585.332	58.13
585.67	58.25
586.008	58.38
586.347	58.5
586.685	58.63
587.024	58.79
587.362	58.92
587.7	58.91
588.038	59
588.376	59.09
588.715	59.24
589.053	59.3
589.391	59.45
589.729	59.59
590.067	59.61
590.404	59.76
590.742	59.8
591.08	59.92
591.418	60.04
591.756	60.08
592.093	60.14
592.431	60.34
592.769	60.35
593.106	60.45
593.444	60.5
593.781	60.58
594.119	60.72
594.456	60.81
594.793	60.98
595.131	61.04
595.468	61.08
595.805	61.05
596.143	61.09
596.48	61.15
596.817	61.23
597.154	61.24
597.491	61.34
597.828	61.53
598.165	61.64
598.502	61.65
598.839	61.75
599.176	61.85
599.512	61.83
599.849	61.98
600.186	62.05
600.523	62.16
600.859	62.32
601.196	62.38
601.532	62.4
601.869	62.44
602.205	62.49
602.542	62.6
602.878	62.71
603.215	62.8
603.551	62.84
603.887	62.81
604.223	62.84
604.56	62.87
604.896	62.88
605.232	62.92
605.568	63.04
605.904	63.13
606.24	63.22
606.576	63.24
606.912	63.26
607.248	63.33
607.583	63.31
607.919	63.24
608.255	63.22
608.591	63.28
608.926	63.36
609.262	63.51
609.597	63.66
609.933	63.71
610.268	63.76
610.604	63.89
610.939	63.99
611.275	64.06
611.61	64.12
611.945	64.13
612.281	64.12
612.616	64.19
612.951	64.22
613.286	64.34
613.621	64.43
613.956	64.48
614.291	64.5
614.626	64.67
614.961	64.75
615.296	64.85
615.631	64.96
615.966	64.97
616.3	64.93
616.635	64.89
616.97	64.95
617.304	65.05
617.639	65.03
617.973	65.18
618.308	65.31
618.642	65.37
618.977	65.39
619.311	65.46
619.646	65.5
619.98	65.57
620.314	65.46
620.648	65.56
620.983	65.59
621.317	65.62
621.651	65.63
621.985	65.79
622.319	65.79
622.653	65.88
622.987	65.96
623.321	65.97
623.655	65.97
623.988	66.04
624.322	66
624.656	65.98
624.99	65.87
625.323	65.88
625.657	65.87
625.99	65.89
626.324	65.95
626.657	65.98
626.991	65.91
627.324	65.91
627.658	65.88
627.991	65.91
628.324	65.97
628.657	66.06
628.991	65.98
629.324	66.02
629.657	65.99
629.99	65.98
630.323	65.91
630.656	65.96
630.989	65.98
631.322	66.15
631.655	66.22
631.987	66.32
632.32	66.39
632.653	66.42
632.986	66.53
633.318	66.59
633.651	66.55
633.984	66.58
634.316	66.69
634.649	66.69
634.981	66.71
635.313	66.76
635.646	66.68
635.978	66.71
636.31	66.83
636.643	66.88
636.975	66.95
637.307	67.03
637.639	67.02
637.971	67.01
638.303	66.85
638.635	66.85
638.967	66.85
639.299	66.85
639.631	66.83
639.963	66.86
640.295	66.74
640.626	66.74
640.958	66.83
641.29	66.69
641.621	66.77
641.953	66.92
642.285	66.97
642.616	66.93
642.948	67.01
643.279	67
643.61	66.96
643.942	67
644.273	67.11
644.604	67.17
644.936	67.17
645.267	67.31
645.598	67.28
645.929	67.29
646.26	67.34
646.591	67.47
646.922	67.42
647.253	67.51
647.584	67.54
647.915	67.61
648.245	67.69
648.576	67.7
648.907	67.58
649.238	67.54
649.568	67.55
649.899	67.42
650.229	67.49
650.56	67.67
650.89	67.71
651.221	67.62
651.551	67.6
651.882	67.57
652.212	67.56
652.542	67.56
652.872	67.54
653.203	67.49
653.533	67.39
653.863	67.36
654.193	67.33
654.523	67.35
654.853	67.34
655.183	67.43
655.513	67.4
655.843	67.49
656.172	67.43
656.502	67.59
656.832	67.73
657.162	67.78
657.491	67.56
657.821	67.4
658.15	67.44
658.48	67.55
658.809	67.64
659.139	67.64
659.468	67.55
659.798	67.64
660.127	67.67
660.456	67.72
660.785	67.78
661.115	67.93
661.444	67.86
661.773	67.9
662.102	67.86
662.431	67.93
662.76	67.88
663.089	67.95
663.418	67.83
663.747	67.84
664.076	67.72
664.404	67.9
664.733	67.95
665.062	68.12
665.39	68.03
665.719	68.08
666.048	68.16
666.376	68.34
666.705	68.2
667.033	68.26
667.362	68.37
667.69	68.34
668.018	68.31
668.347	68.45
668.675	68.4
669.003	68.48
669.331	68.39
669.659	68.41
669.987	68.48
670.315	68.66
670.643	68.55
670.971	68.53
671.299	68.49
671.627	68.5
671.955	68.28
672.283	68.29
672.61	68.3
672.938	68.22
673.266	68.15
673.593	68.27
673.921	68.06
674.249	68.03
674.576	68.06
674.904	67.94
675.231	67.89
675.558	67.83
675.886	67.81
676.213	67.91
676.54	67.88
676.867	67.72
677.195	67.69
677.522	67.9
677.849	68.05
678.176	68.06
678.503	68.25
678.83	68.29
679.157	68.3
679.484	68.22
679.81	68.34
680.137	68.31
680.464	68.22
680.791	68.54
681.117	68.43
681.444	68.38
681.771	68.46
682.097	68.56
682.424	68.63
682.75	68.59
683.077	68.59
683.403	68.63
683.729	68.62
684.056	68.65
684.382	68.69
684.708	68.39
685.034	68.37
685.36	68.29
685.686	68.28
686.012	68.29
686.339	68.46
686.664	68.24
686.99	68.27
687.316	68.27
687.642	67.98
687.968	68.07
688.294	68.2
688.619	68.13
688.945	68.07
689.271	68.04
689.596	67.94
689.922	67.96
690.247	67.93
690.573	68.06
690.898	68.08
691.224	67.94
691.549	68.07
691.874	68.11
692.2	67.98
692.525	67.92
692.85	67.85
693.175	67.51
693.5	67.54
693.825	67.73
694.15	67.78
694.475	67.92
694.8	67.97
695.125	67.75
695.45	67.74
695.775	67.63
696.099	67.59
696.424	67.83
696.749	67.84
697.073	67.81
697.398	67.85
697.723	67.74
698.047	67.85
698.372	68.06
698.696	68
699.02	68.09
699.345	68.05
699.669	68.07
699.993	68.22
700.318	68.34
700.642	68.2
700.966	68.21
701.29	68.11
701.614	68.17
701.938	68.21
702.262	68.45
702.586	68.55
702.91	68.64
703.234	68.46
703.557	68.55
703.881	68.76
704.205	68.65
704.529	68.59
704.852	68.47
705.176	68.18
705.499	68.11
705.823	68.1
706.146	68.29
706.47	68.36
706.793	68.38
707.117	68.22
707.44	68.12
707.763	68.09
708.086	68.26
708.409	68.21
708.733	68.38
709.056	68.29
709.379	68.35
709.702	68.25
710.025	68.17
710.348	68.05
710.671	67.83
710.993	67.89
711.316	68.02
711.639	67.78
711.962	67.69
712.284	67.9
712.607	67.92
712.93	68.04
713.252	68.11
713.575	67.95
713.897	68.09
714.22	68.02
714.542	68.06
714.864	67.84
715.187	67.72
715.509	67.6
715.831	67.59
716.153	67.54
716.475	67.57
716.798	67.86
717.12	67.77
717.442	67.98
717.764	68.07
718.085	68.11
718.407	68.22
718.729	68.39
719.051	68.24
719.373	68.21
719.695	68.13
720.016	67.89
720.338	68.01
720.659	67.97
720.981	68.22
721.302	68.07
721.624	68.19
721.945	68.35
722.267	68.58
722.588	68.38
722.909	68.41
723.231	68.21
723.552	67.91
723.873	68.01
724.194	67.84
724.515	67.7
724.836	67.56
725.157	67.49
725.478	67.41
725.799	67.58
726.12	67.48
726.441	67.22
726.762	67.24
727.083	67.1
727.403	67.2
727.724	67.02
728.045	67.38
728.365	67.42
728.686	67.3
729.006	67.14
729.327	67.29
729.647	67.37
729.967	67.47
730.288	67.49
730.608	67.27
730.928	67.31
731.249	67.22
731.569	67.45
731.889	67.53
732.209	67.55
732.529	67.4
732.849	67.29
733.169	67.64
733.489	67.85
733.809	67.98
734.129	67.98
734.448	68.14
734.768	67.96
735.088	68.1
735.408	68.3
735.727	68.51
736.047	68.35
736.366	68.32
736.686	68.37
737.005	68.52
737.325	68.44
737.644	68.34
737.963	68.45
738.283	68.08
738.602	67.93
738.921	68.04
739.24	68.1
739.56	68.39
739.879	68.36
740.198	68.25
740.517	68.21
740.836	68.11
741.155	67.94
741.473	67.87
741.792	67.7
742.111	67.49
742.43	67.22
742.748	67.19
743.067	67.28
743.386	67.24
743.704	67.42
744.023	67.56
744.341	67.56
744.66	67.94
744.978	68.12
745.297	68.22
745.615	68.08
745.933	67.96
746.252	68.18
746.57	68.12
746.888	67.99
747.206	67.94
747.524	67.75
747.842	68.01
748.16	68.12
748.478	68.33
748.796	68.59
749.114	68.66
749.432	68.38
749.749	68.59
750.067	68.7
750.385	68.41
750.703	68.47
751.02	68.51
751.338	68.11
751.655	67.95
751.973	68.1
752.29	68.2
752.608	68.62
752.925	68.03
753.242	67.99
753.56	67.83
753.877	67.81
754.194	67.96
754.511	67.88
754.828	67.89
755.145	67.55
755.462	67.38
755.779	67.26
756.096	67.46
756.413	66.9
756.73	66.89
757.047	66.8
757.364	67
757.68	67.08
757.997	67.47
758.314	67.48
758.63	67.49
758.947	67.46
759.264	67.2
759.58	67.47
759.896	67.05
760.213	67.15
760.529	67.35
760.846	67.51
761.162	67.56
761.478	67.59
761.794	67.86
762.11	68.08
762.426	68.37
762.743	68.71
763.059	68.62
763.375	68.38
763.69	68.23
764.006	68.24
764.322	68.34
764.638	68.21
764.954	68.41
765.27	68.24
765.585	68.18
765.901	68.18
766.216	68.16
766.532	68.53
766.848	68.58
767.163	68.46
767.478	68.56
767.794	68.63
768.109	68.44
768.424	68.34
768.74	68.25
769.055	68.24
769.37	67.98
769.685	68.17
770	68.25
770.315	68.35
770.63	68.39
770.945	68.51
771.26	68.36
771.575	68.39
771.89	68.57
772.205	68.22
772.52	68.02
772.834	68.02
773.149	67.86
773.464	67.91
773.778	68.2
774.093	67.95
774.407	68.24
774.722	68.48
775.036	68.7
775.351	68.42
775.665	68.16
775.979	68.07
776.293	67.73
776.608	68.15
776.922	68.27
777.236	68.13
777.55	67.55
777.864	67.49
778.178	66.95
778.492	66.64
778.806	67.17
779.12	67.35
779.434	67.2
779.747	67.45
780.061	67.63
780.375	67.32
780.689	67.38
781.002	67.18
781.316	66.94
781.629	66.68
781.943	66.77
782.256	66.8
782.57	66.3
782.883	66.59
783.196	66.25
783.51	66.18
783.823	66.31
784.136	66.9
784.449	66.7
784.762	67.02
785.075	67.01
785.388	67.51
785.701	67.14
786.014	67.12
786.327	66.75
786.64	66.4
786.953	66.26
787.266	65.79
787.578	65.19
787.891	65.04
788.204	65.05
788.516	65.31
788.829	65.65
789.141	66.31
789.454	66.19
789.766	66.18
790.079	66.76
790.391	66.82
790.703	66.4
791.016	66.68
791.328	66.88
791.64	67.16
791.952	66.33
792.264	66.28
792.576	66.3
792.888	66.33
793.2	66.35
793.512	67.01
793.824	67.03
794.136	67.24
794.448	67.27
794.76	67.1
795.071	66.5
795.383	66.05
795.695	65.41
796.006	65.95
796.318	66.61
796.629	66.42
796.941	66.26
797.252	66.72
797.564	67.03
797.875	66.57
798.186	67.1
798.497	67.26
798.809	67.85
799.12	68.18
799.431	68.87
799.742	69.22
800.053	68.53
800.364	69.4
800.675	69.42
800.986	69.9
801.297	70.11
801.608	70.2
801.918	69.64
802.229	69.67
802.54	69.02
802.851	68.92
803.161	68.75
803.472	68.99
803.782	68.62
804.093	67.84
804.403	68.01
804.714	67.44
805.024	67.09
805.334	67.02
805.645	66.64
805.955	65.67
806.265	64.99
806.575	64.91
806.885	64.71
807.195	64.63
807.505	64.58
807.815	64.73
808.125	64.73
808.435	64.76
808.745	65.19
809.055	65.47
809.365	65.12
809.674	64.55
809.984	64.57
810.294	64.86
810.603	64.97
810.913	64.88
811.222	64.9
811.532	64.98
811.841	64.74
812.151	64.89
812.46	64.2
812.769	64.09
813.079	64.79
813.388	64.93
813.697	65.04
814.006	64.71
814.315	64.44
814.624	64.18
814.933	64.96
815.242	64.94
815.551	65.63
815.86	65.31
816.169	65.1
816.478	64.7
816.786	64.07
817.095	64.68
817.404	65.11
817.712	65.21
818.021	66.26
818.33	66.56
818.638	66.69
818.947	67.32
819.255	67.9
819.563	68.45
819.872	68.47
820.18	68.9
820.488	68.96
820.796	69.2
821.105	69.17
821.413	69.22
821.721	69.11
822.029	69.16
822.337	69.36
822.645	69.61
822.953	69.59
823.26	69.6
823.568	69.51
823.876	69.49
824.184	69.59
824.491	69.52
824.799	69.45
825.107	69.33
825.414	69.38
825.722	69.42
826.029	69.2
826.337	69.2
826.644	69.14
826.951	69.04
827.259	68.79
827.566	68.95
827.873	69.04
828.18	69.37
828.488	69.11
828.795	68.81
829.102	68.69
829.409	68.9
829.716	69.03
830.023	68.83
830.329	68.92
830.636	69.13
830.943	69.09
831.25	69.06
831.557	69.17
831.863	69.32
832.17	69.16
832.476	69.19
832.783	68.94
833.089	68.88
833.396	69.19
833.702	69.31
834.009	69.41
834.315	69.07
834.621	68.53
834.928	68.62
835.234	69.09
835.54	69.41
835.846	69.13
836.152	69.27
836.458	69.3
836.764	69.11
837.07	68.31
837.376	67.53
837.682	67.82
837.988	67.13
838.293	66.52
838.599	65.79
838.905	65.46
839.211	65.38
839.516	64.96
839.822	64.55
840.127	64.71
840.433	63.8
840.738	63.82
841.044	63.8
841.349	62.79
841.654	62.26
841.959	61.79
842.265	62.08
842.57	61.26
842.875	60.93
843.18	60.98
843.485	60.37
843.79	60.96
844.095	59.53
844.4	61.15
844.705	61.91
845.01	62.56
845.315	61.94
845.619	60.47
845.924	60.18
846.229	60.33
846.533	59.2
846.838	59.13
847.142	57.66
847.447	57.43
847.751	58.82
848.056	58.29
848.36	57.24
848.664	56.36
848.969	56.68
849.273	56.22
849.577	55.19
849.881	55.22
850.185	56.47
850.489	57.31
850.794	55.3
851.097	55.56
851.401	56.85
851.705	57.76
852.009	59.53
852.313	58.89
852.617	58.96
852.92	59.44
853.224	58.73
853.528	59.58
853.831	58.45
854.135	57.94
854.438	59.49
854.742	58.73
855.045	57.81
855.349	56.85
855.652	58.27
855.955	57.74
856.259	57.59
856.562	56.73
856.865	59.21
857.168	59.07
857.471	59.28
857.774	57.94
858.077	58.55
858.38	59.78
858.683	59.79
858.986	58.12
859.289	56.33
859.592	56.86
859.894	58.05
860.197	59.7
860.5	58.98
860.802	57.6
861.105	59.4
861.407	59.91
861.71	60.64
862.012	60.95
862.315	61.41
862.617	61.27
862.919	60.45
863.222	58.89
863.524	61.23
863.826	60.06
864.128	61.27
864.43	61.48
864.732	58.88
865.034	57.11
865.336	57.55
865.638	59.74
865.94	59.76
866.242	59.24
866.544	56.12
866.846	55.92
867.147	54.33
867.449	53.64
867.751	52.89
868.052	52.97
868.354	50.9
868.655	52.22
868.957	53.55
869.258	54.39
869.56	52.21
869.861	53.22
870.162	52.41
870.463	52
870.765	52.79
871.066	55.82
871.367	59.63
871.668	58.64
871.969	55.63
872.27	56.9
872.571	57.19
872.872	59.98
873.173	58.21
873.473	58.8
873.774	59.45
874.075	58.96
874.376	59.53
874.676	60.23
874.977	56.21
875.277	56.86
875.578	56.13
875.878	57.77
876.179	55.77
876.479	56.9
876.78	56.32
877.08	54.28
877.38	51.97
877.68	50.66
877.981	51.93
878.281	55.06
878.581	52.74
