Data from BA28524_Reflection_00005.txt Node
Date: Tue Nov 19 11:49:41 EST 2019
User: vgr7
Spectrometer: USB2G7710
Scans to average: 3
Trigger mode: 4
Integration Time (sec): 2.000000E-2
Electric dark correction enabled: true
Boxcar width: 10
XAxis mode: Wavelengths
Number of Pixels in Spectrum: 2048
>>>>>Begin Spectral Data<<<<<
177.721	-705.16
178.105	507.41
178.488	62.59
178.871	66.67
179.254	44.44
179.636	195.24
180.019	68.32
180.402	158.82
180.785	-13.33
181.168	279.82
181.55	125.82
181.933	98.83
182.316	61.3
182.698	75.07
183.081	26
183.463	52.93
183.846	149.89
184.228	207.31
184.611	10.26
184.993	140.74
185.376	249.72
185.758	539.39
186.14	3466.67
186.522	9711.11
186.904	-4066.67
187.287	-311.95
187.669	-260.32
188.051	-175.05
188.433	-267.17
188.815	-164.9
189.197	-270.52
189.579	-373.6
189.961	-308.38
190.342	-255.51
190.724	-301.96
191.106	-217.01
191.488	-335.84
191.869	-253.22
192.251	-427.25
192.633	-416.75
193.014	-259.51
193.396	-307.13
193.777	-485.4
194.159	-356.69
194.54	-452.01
194.922	-352.17
195.303	-499.05
195.684	-667.22
196.065	-621.29
196.447	-1640.31
196.828	-1686.82
197.209	-488.73
197.59	-500.27
197.971	-798.91
198.352	-448.05
198.733	-599.13
199.114	-855.78
199.495	-546.52
199.876	-880.23
200.257	-728.64
200.638	-1229.06
201.018	2913.73
201.399	-615.96
201.78	-310.02
202.16	-333.33
202.541	-230.74
202.922	-942.64
203.302	973.98
203.683	-2222.22
204.063	2488.89
204.444	-403.83
204.824	-528.21
205.204	-690.6
205.585	-177.78
205.965	-188.71
206.345	-158.38
206.725	-143.47
207.106	-100.89
207.486	-171.72
207.866	-118.17
208.246	-76.09
208.626	-83.89
209.006	-108.78
209.386	-111.76
209.766	-87.07
210.145	-52.62
210.525	-131.18
210.905	-72.2
211.285	-30.25
211.664	-12.85
212.044	-9.25
212.424	-9.73
212.803	-31.14
213.183	-40.38
213.562	-31.79
213.942	-19.31
214.321	-34.64
214.701	0.28
215.08	-40.08
215.459	13.96
215.838	28.95
216.218	-6.4
216.597	5.7
216.976	6.68
217.355	-10.01
217.734	-4.34
218.113	-13.04
218.492	-5
218.871	11.81
219.25	-12.65
219.629	-37.07
220.008	-30.88
220.387	-45.65
220.766	-26.33
221.144	-24.94
221.523	-22.13
221.902	-32.22
222.28	-4.19
222.659	-1.6
223.037	4.01
223.416	1.38
223.794	2.75
224.173	2.32
224.551	-0.45
224.929	-3.34
225.308	-5.09
225.686	-7.1
226.064	-8.41
226.442	-3.04
226.821	-3.87
227.199	-1.59
227.577	0.52
227.955	1.18
228.333	0.2
228.711	-2.35
229.089	-2.35
229.467	-0.43
229.845	-0.27
230.222	-0.45
230.6	-2.63
230.978	-0.24
231.356	-0.68
231.733	0.46
232.111	4.55
232.488	2.52
232.866	4.72
233.243	4.74
233.621	4.54
233.998	7.24
234.376	5.5
234.753	3.67
235.13	2.52
235.508	2.99
235.885	2.02
236.262	2.05
236.639	2.26
237.016	2.74
237.393	1.51
237.77	4.01
238.147	2.62
238.524	4.27
238.901	2.26
239.278	2.37
239.655	2.06
240.032	2.26
240.409	2.45
240.785	2.22
241.162	2.55
241.539	2.6
241.915	2.24
242.292	2.99
242.668	3.98
243.045	4.76
243.421	4.9
243.798	5.25
244.174	5.81
244.551	6.19
244.927	5.75
245.303	5.74
245.679	5.67
246.056	5.62
246.432	5.37
246.808	5.75
247.184	6.01
247.56	5.89
247.936	5.57
248.312	5.76
248.688	5.83
249.064	5.61
249.44	5.88
249.815	5.86
250.191	5.73
250.567	5.48
250.943	5.57
251.318	5.17
251.694	4.94
252.069	4.98
252.445	4.89
252.82	5.29
253.196	5.39
253.571	5.11
253.947	5.18
254.322	4.96
254.697	4.98
255.073	4.64
255.448	4.83
255.823	4.82
256.198	4.66
256.573	4.61
256.948	4.45
257.323	4.45
257.698	4.56
258.073	4.32
258.448	4.46
258.823	4.35
259.198	4.59
259.573	4.52
259.948	4.33
260.322	4.31
260.697	4.21
261.072	4.23
261.446	4.25
261.821	4.21
262.195	4.19
262.57	3.98
262.944	3.99
263.319	4.09
263.693	4
264.067	3.97
264.442	3.92
264.816	4.03
265.19	3.86
265.564	3.74
265.938	3.97
266.313	3.82
266.687	3.67
267.061	3.51
267.435	3.86
267.809	3.88
268.183	3.67
268.556	3.59
268.93	3.85
269.304	3.89
269.678	3.87
270.051	3.91
270.425	3.96
270.799	3.8
271.172	3.62
271.546	3.75
271.919	3.79
272.293	3.96
272.666	4.27
273.04	4.41
273.413	4.31
273.787	4.31
274.16	4.29
274.533	4.18
274.906	4.17
275.279	3.88
275.653	4.04
276.026	4.18
276.399	4.33
276.772	4.22
277.145	4.26
277.518	4.44
277.891	4.54
278.263	4.76
278.636	5.02
279.009	5.17
279.382	5.15
279.755	5.1
280.127	5.16
280.5	4.8
280.872	4.7
281.245	4.85
281.617	4.82
281.99	5.01
282.362	5.26
282.735	5.3
283.107	5.32
283.479	5.16
283.852	4.99
284.224	4.91
284.596	4.9
284.968	4.71
285.34	4.62
285.713	4.59
286.085	4.65
286.457	4.56
286.829	4.56
287.201	4.64
287.572	4.82
287.944	4.68
288.316	4.81
288.688	4.86
289.06	4.83
289.431	4.9
289.803	4.78
290.175	4.64
290.546	4.67
290.918	4.61
291.289	4.62
291.661	4.76
292.032	4.92
292.403	4.94
292.775	5.13
293.146	5.2
293.517	5.25
293.889	5.12
294.26	5.11
294.631	5.07
295.002	5.03
295.373	4.89
295.744	4.85
296.115	4.81
296.486	4.83
296.857	4.83
297.228	4.68
297.599	4.68
297.97	4.74
298.34	4.82
298.711	4.83
299.082	4.76
299.452	4.7
299.823	4.65
300.194	4.54
300.564	4.48
300.935	4.47
301.305	4.54
301.676	4.61
302.046	4.62
302.416	4.58
302.787	4.61
303.157	4.54
303.527	4.82
303.897	4.83
304.267	4.69
304.637	4.71
305.008	4.86
305.378	4.73
305.748	4.73
306.117	4.62
306.487	4.68
306.857	4.86
307.227	5.05
307.597	4.98
307.967	5.1
308.336	5.15
308.706	5.13
309.076	5.05
309.445	5.05
309.815	5.08
310.184	5.07
310.554	5.05
310.923	5.07
311.293	4.83
311.662	4.87
312.031	5.08
312.401	4.98
312.77	4.89
313.139	5.03
313.508	5.21
313.877	5.32
314.246	5.38
314.616	5.41
314.985	5.24
315.353	5.28
315.722	5.23
316.091	5.31
316.46	5.19
316.829	5.15
317.198	5.03
317.567	5.27
317.935	5.29
318.304	5.54
318.672	5.56
319.041	5.67
319.41	5.64
319.778	5.33
320.147	5.62
320.515	5.74
320.883	5.76
321.252	5.54
321.62	5.31
321.988	5.11
322.357	4.96
322.725	5.11
323.093	5.01
323.461	5.23
323.829	5.21
324.197	5.33
324.565	5.43
324.933	5.54
325.301	5.2
325.669	5.22
326.037	5.04
326.405	5.02
326.772	5
327.14	4.85
327.508	4.98
327.875	4.75
328.243	4.74
328.61	4.75
328.978	4.7
329.346	4.9
329.713	5.17
330.08	5.39
330.448	5.29
330.815	5.32
331.182	5.06
331.55	5.01
331.917	5
332.284	4.99
332.651	5.06
333.018	5.32
333.385	5.36
333.752	5.29
334.119	5.39
334.486	5.3
334.853	5.38
335.22	5.29
335.587	5.37
335.954	5.39
336.32	5.44
336.687	5.43
337.054	5.43
337.42	5.32
337.787	5.18
338.153	5.39
338.52	5.46
338.886	5.46
339.253	5.45
339.619	5.39
339.986	5.35
340.352	5.16
340.718	5.01
341.084	4.96
341.451	5.08
341.817	5.1
342.183	5.22
342.549	5.26
342.915	5.35
343.281	5.35
343.647	5.27
344.013	5.18
344.379	5.14
344.745	5.19
345.11	5.28
345.476	5.41
345.842	5.25
346.208	5.3
346.573	5.34
346.939	5.32
347.304	5.44
347.67	5.44
348.035	5.57
348.401	5.62
348.766	5.59
349.132	5.57
349.497	5.52
349.862	5.5
350.228	5.51
350.593	5.52
350.958	5.57
351.323	5.56
351.688	5.63
352.053	5.77
352.418	5.65
352.783	5.6
353.148	5.46
353.513	5.49
353.878	5.35
354.243	5.21
354.608	5.31
354.972	5.23
355.337	5.23
355.702	5.16
356.066	5.21
356.431	5.19
356.795	5.18
357.16	5.23
357.524	5.21
357.889	5.18
358.253	5.12
358.618	5.08
358.982	5.08
359.346	5.03
359.71	5
360.075	5.07
360.439	5.1
360.803	5.11
361.167	5.13
361.531	5.19
361.895	5.29
362.259	5.23
362.623	5.24
362.987	5.28
363.351	5.2
363.714	5.21
364.078	5.22
364.442	5.19
364.806	5.19
365.169	5.3
365.533	5.34
365.896	5.41
366.26	5.37
366.623	5.43
366.987	5.56
367.35	5.63
367.714	5.61
368.077	5.67
368.44	5.68
368.803	5.68
369.167	5.65
369.53	5.65
369.893	5.62
370.256	5.62
370.619	5.52
370.982	5.59
371.345	5.55
371.708	5.58
372.071	5.61
372.434	5.57
372.797	5.47
373.159	5.42
373.522	5.35
373.885	5.38
374.247	5.34
374.61	5.27
374.973	5.18
375.335	5.13
375.698	4.99
376.06	5.05
376.423	5.07
376.785	5.12
377.147	5.11
377.51	5.15
377.872	5.18
378.234	5.22
378.596	5.26
378.958	5.25
379.321	5.28
379.683	5.25
380.045	5.24
380.407	5.22
380.769	5.2
381.13	5.24
381.492	5.25
381.854	5.28
382.216	5.3
382.578	5.3
382.939	5.26
383.301	5.3
383.663	5.27
384.024	5.2
384.386	5.15
384.747	5.12
385.109	5.11
385.47	5.09
385.832	5.07
386.193	5.07
386.554	4.99
386.916	4.97
387.277	5
387.638	5.03
387.999	5.08
388.36	5.09
388.721	5.11
389.082	5.12
389.443	5.13
389.804	5.08
390.165	5.09
390.526	5.15
390.887	5.15
391.248	5.15
391.609	5.18
391.969	5.18
392.33	5.2
392.691	5.19
393.051	5.17
393.412	5.18
393.772	5.18
394.133	5.2
394.493	5.19
394.854	5.17
395.214	5.15
395.574	5.16
395.935	5.18
396.295	5.15
396.655	5.15
397.015	5.12
397.376	5.17
397.736	5.15
398.096	5.12
398.456	5.13
398.816	5.13
399.176	5.09
399.535	5.07
399.895	5.07
400.255	5.07
400.615	5.07
400.975	5.07
401.334	5.03
401.694	5.05
402.054	5.02
402.413	5
402.773	5.04
403.132	5.02
403.492	5.03
403.851	5.04
404.211	5.05
404.57	5.04
404.929	5.02
405.288	5.05
405.648	5.06
406.007	5.03
406.366	5.03
406.725	5.04
407.084	5.07
407.443	5.06
407.802	5.08
408.161	5.07
408.52	5.05
408.879	5.09
409.238	5.1
409.596	5.12
409.955	5.14
410.314	5.1
410.673	5.07
411.031	5.05
411.39	5.05
411.748	5.07
412.107	5.05
412.465	5.03
412.824	4.97
413.182	4.98
413.54	5.01
413.899	5.01
414.257	5.03
414.615	5.02
414.974	5.04
415.332	5.02
415.69	5.03
416.048	5.02
416.406	4.97
416.764	4.95
417.122	4.94
417.48	4.94
417.838	4.93
418.195	4.91
418.553	4.92
418.911	4.91
419.269	4.89
419.626	4.9
419.984	4.91
420.342	4.92
420.699	4.91
421.057	4.91
421.414	4.9
421.772	4.88
422.129	4.87
422.486	4.87
422.844	4.87
423.201	4.86
423.558	4.86
423.915	4.87
424.273	4.87
424.63	4.87
424.987	4.85
425.344	4.86
425.701	4.85
426.058	4.85
426.415	4.84
426.772	4.85
427.128	4.85
427.485	4.84
427.842	4.83
428.199	4.84
428.555	4.83
428.912	4.81
429.269	4.8
429.625	4.79
429.982	4.77
430.338	4.77
430.695	4.76
431.051	4.75
431.407	4.77
431.764	4.75
432.12	4.75
432.476	4.78
432.832	4.77
433.189	4.78
433.545	4.75
433.901	4.78
434.257	4.75
434.613	4.73
434.969	4.73
435.325	4.73
435.681	4.73
436.036	4.72
436.392	4.75
436.748	4.78
437.104	4.79
437.459	4.8
437.815	4.81
438.171	4.79
438.526	4.8
438.882	4.78
439.237	4.79
439.593	4.79
439.948	4.77
440.304	4.78
440.659	4.79
441.014	4.8
441.369	4.79
441.725	4.79
442.08	4.79
442.435	4.79
442.79	4.79
443.145	4.78
443.5	4.76
443.855	4.75
444.21	4.74
444.565	4.73
444.92	4.72
445.275	4.71
445.629	4.71
445.984	4.7
446.339	4.72
446.693	4.73
447.048	4.72
447.403	4.71
447.757	4.71
448.112	4.69
448.466	4.69
448.82	4.68
449.175	4.69
449.529	4.7
449.883	4.68
450.238	4.68
450.592	4.69
450.946	4.71
451.3	4.71
451.654	4.69
452.008	4.7
452.362	4.7
452.716	4.69
453.07	4.7
453.424	4.71
453.778	4.7
454.132	4.68
454.486	4.71
454.839	4.72
455.193	4.71
455.547	4.71
455.9	4.7
456.254	4.7
456.607	4.69
456.961	4.7
457.314	4.7
457.668	4.7
458.021	4.68
458.375	4.67
458.728	4.66
459.081	4.69
459.434	4.69
459.787	4.71
460.141	4.7
460.494	4.71
460.847	4.7
461.2	4.7
461.553	4.72
461.906	4.71
462.259	4.71
462.611	4.7
462.964	4.73
463.317	4.74
463.67	4.75
464.022	4.79
464.375	4.78
464.728	4.81
465.08	4.83
465.433	4.86
465.785	4.89
466.138	4.9
466.49	4.9
466.843	4.91
467.195	4.92
467.547	4.94
467.899	4.92
468.252	4.91
468.604	4.9
468.956	4.92
469.308	4.92
469.66	4.93
470.012	4.93
470.364	4.95
470.716	4.94
471.068	4.96
471.42	4.91
471.772	4.92
472.123	4.91
472.475	4.89
472.827	4.88
473.178	4.88
473.53	4.88
473.882	4.89
474.233	4.88
474.585	4.86
474.936	4.85
475.288	4.84
475.639	4.87
475.99	4.88
476.342	4.87
476.693	4.86
477.044	4.85
477.395	4.85
477.746	4.84
478.097	4.83
478.448	4.82
478.8	4.82
479.15	4.83
479.501	4.83
479.852	4.82
480.203	4.83
480.554	4.83
480.905	4.83
481.255	4.82
481.606	4.82
481.957	4.82
482.307	4.83
482.658	4.86
483.009	4.85
483.359	4.86
483.709	4.85
484.06	4.86
484.41	4.86
484.761	4.85
485.111	4.85
485.461	4.86
485.811	4.85
486.162	4.86
486.512	4.87
486.862	4.88
487.212	4.89
487.562	4.89
487.912	4.89
488.262	4.88
488.612	4.89
488.961	4.9
489.311	4.91
489.661	4.9
490.011	4.9
490.36	4.9
490.71	4.91
491.06	4.91
491.409	4.91
491.759	4.92
492.108	4.92
492.458	4.92
492.807	4.93
493.157	4.94
493.506	4.94
493.855	4.93
494.204	4.94
494.554	4.95
494.903	4.95
495.252	4.95
495.601	4.98
495.95	4.97
496.299	4.97
496.648	4.99
496.997	5
497.346	5.01
497.695	5
498.043	5.01
498.392	5.02
498.741	5.04
499.09	5.07
499.438	5.12
499.787	5.14
500.135	5.15
500.484	5.16
500.832	5.17
501.181	5.18
501.529	5.19
501.878	5.21
502.226	5.24
502.574	5.26
502.923	5.25
503.271	5.27
503.619	5.3
503.967	5.29
504.315	5.31
504.663	5.31
505.011	5.34
505.359	5.34
505.707	5.35
506.055	5.36
506.403	5.35
506.751	5.34
507.098	5.36
507.446	5.36
507.794	5.4
508.141	5.41
508.489	5.43
508.837	5.43
509.184	5.42
509.531	5.39
509.879	5.39
510.226	5.42
510.574	5.42
510.921	5.42
511.268	5.44
511.616	5.47
511.963	5.48
512.31	5.5
512.657	5.51
513.004	5.5
513.351	5.51
513.698	5.54
514.045	5.54
514.392	5.56
514.739	5.6
515.086	5.59
515.432	5.61
515.779	5.62
516.126	5.64
516.473	5.68
516.819	5.72
517.166	5.75
517.512	5.76
517.859	5.78
518.205	5.77
518.552	5.78
518.898	5.77
519.245	5.8
519.591	5.8
519.937	5.8
520.283	5.83
520.629	5.85
520.976	5.83
521.322	5.87
521.668	5.85
522.014	5.84
522.36	5.86
522.706	5.89
523.052	5.88
523.398	5.89
523.743	5.91
524.089	5.92
524.435	5.91
524.781	5.92
525.126	5.93
525.472	5.98
525.817	5.98
526.163	5.97
526.509	5.99
526.854	5.99
527.199	6.01
527.545	6.02
527.89	6.03
528.235	6.03
528.581	6.03
528.926	6.05
529.271	6.06
529.616	6.06
529.961	6.05
530.306	6.05
530.651	6.04
530.996	6.04
531.341	6.05
531.686	6.05
532.031	6.07
532.376	6.06
532.721	6.04
533.065	6.05
533.41	6.05
533.755	6.04
534.099	6.06
534.444	6.05
534.788	6.05
535.133	6.07
535.477	6.07
535.822	6.05
536.166	6.04
536.51	6.05
536.855	6.06
537.199	6.07
537.543	6.08
537.887	6.11
538.231	6.11
538.576	6.09
538.92	6.11
539.264	6.1
539.608	6.12
539.951	6.16
540.295	6.17
540.639	6.19
540.983	6.18
541.327	6.17
541.671	6.19
542.014	6.2
542.358	6.2
542.701	6.2
543.045	6.23
543.389	6.24
543.732	6.23
544.075	6.24
544.419	6.23
544.762	6.25
545.105	6.27
545.449	6.3
545.792	6.33
546.135	6.31
546.478	6.31
546.821	6.28
547.165	6.25
547.508	6.22
547.851	6.22
548.194	6.22
548.536	6.23
548.879	6.18
549.222	6.15
549.565	6.15
549.908	6.16
550.25	6.13
550.593	6.13
550.936	6.15
551.278	6.15
551.621	6.17
551.963	6.15
552.306	6.14
552.648	6.08
552.991	6.07
553.333	6.09
553.675	6.13
554.017	6.18
554.36	6.18
554.702	6.21
555.044	6.19
555.386	6.21
555.728	6.23
556.07	6.24
556.412	6.28
556.754	6.28
557.096	6.31
557.438	6.33
557.78	6.3
558.121	6.27
558.463	6.27
558.805	6.28
559.147	6.29
559.488	6.25
559.83	6.26
560.171	6.28
560.513	6.26
560.854	6.26
561.196	6.25
561.537	6.24
561.878	6.25
562.22	6.27
562.561	6.28
562.902	6.26
563.243	6.3
563.584	6.28
563.925	6.29
564.266	6.25
564.607	6.26
564.948	6.26
565.289	6.29
565.63	6.3
565.971	6.29
566.312	6.29
566.653	6.33
566.993	6.32
567.334	6.3
567.675	6.31
568.015	6.26
568.356	6.26
568.696	6.28
569.037	6.28
569.377	6.3
569.718	6.31
570.058	6.34
570.398	6.3
570.739	6.31
571.079	6.32
571.419	6.33
571.759	6.31
572.099	6.33
572.439	6.34
572.779	6.33
573.119	6.33
573.459	6.33
573.799	6.33
574.139	6.32
574.479	6.35
574.819	6.36
575.158	6.4
575.498	6.39
575.838	6.37
576.177	6.33
576.517	6.34
576.856	6.32
577.196	6.32
577.535	6.37
577.875	6.35
578.214	6.31
578.553	6.32
578.893	6.35
579.232	6.33
579.571	6.31
579.91	6.29
580.25	6.29
580.589	6.3
580.928	6.27
581.267	6.28
581.606	6.29
581.945	6.28
582.283	6.29
582.622	6.31
582.961	6.31
583.3	6.34
583.639	6.36
583.977	6.35
584.316	6.36
584.654	6.32
584.993	6.34
585.332	6.36
585.67	6.37
586.008	6.4
586.347	6.44
586.685	6.41
587.024	6.43
587.362	6.41
587.7	6.41
588.038	6.5
588.376	6.48
588.715	6.49
589.053	6.5
589.391	6.49
589.729	6.46
590.067	6.48
590.404	6.49
590.742	6.47
591.08	6.49
591.418	6.47
591.756	6.5
592.093	6.53
592.431	6.56
592.769	6.55
593.106	6.49
593.444	6.49
593.781	6.51
594.119	6.5
594.456	6.56
594.793	6.58
595.131	6.52
595.468	6.55
595.805	6.58
596.143	6.57
596.48	6.6
596.817	6.65
597.154	6.65
597.491	6.64
597.828	6.62
598.165	6.61
598.502	6.61
598.839	6.6
599.176	6.6
599.512	6.55
599.849	6.54
600.186	6.57
600.523	6.57
600.859	6.59
601.196	6.6
601.532	6.57
601.869	6.59
602.205	6.6
602.542	6.62
602.878	6.59
603.215	6.59
603.551	6.56
603.887	6.5
604.223	6.49
604.56	6.52
604.896	6.54
605.232	6.54
605.568	6.52
605.904	6.51
606.24	6.48
606.576	6.57
606.912	6.59
607.248	6.58
607.583	6.59
607.919	6.58
608.255	6.56
608.591	6.55
608.926	6.5
609.262	6.54
609.597	6.54
609.933	6.51
610.268	6.49
610.604	6.52
610.939	6.58
611.275	6.61
611.61	6.63
611.945	6.63
612.281	6.63
612.616	6.66
612.951	6.7
613.286	6.73
613.621	6.66
613.956	6.67
614.291	6.71
614.626	6.71
614.961	6.75
615.296	6.8
615.631	6.8
615.966	6.81
616.3	6.84
616.635	6.78
616.97	6.79
617.304	6.82
617.639	6.82
617.973	6.76
618.308	6.77
618.642	6.72
618.977	6.68
619.311	6.71
619.646	6.71
619.98	6.72
620.314	6.7
620.648	6.7
620.983	6.65
621.317	6.66
621.651	6.68
621.985	6.6
622.319	6.6
622.653	6.59
622.987	6.65
623.321	6.57
623.655	6.66
623.988	6.69
624.322	6.71
624.656	6.68
624.99	6.72
625.323	6.69
625.657	6.64
625.99	6.68
626.324	6.66
626.657	6.67
626.991	6.63
627.324	6.62
627.658	6.65
627.991	6.7
628.324	6.67
628.657	6.65
628.991	6.7
629.324	6.71
629.657	6.77
629.99	6.67
630.323	6.69
630.656	6.64
630.989	6.67
631.322	6.62
631.655	6.6
631.987	6.57
632.32	6.62
632.653	6.64
632.986	6.65
633.318	6.62
633.651	6.65
633.984	6.71
634.316	6.71
634.649	6.68
634.981	6.66
635.313	6.67
635.646	6.69
635.978	6.7
636.31	6.71
636.643	6.64
636.975	6.73
637.307	6.76
637.639	6.76
637.971	6.7
638.303	6.7
638.635	6.74
638.967	6.73
639.299	6.72
639.631	6.71
639.963	6.65
640.295	6.68
640.626	6.61
640.958	6.57
641.29	6.6
641.621	6.58
641.953	6.5
642.285	6.5
642.616	6.56
642.948	6.49
643.279	6.47
643.61	6.48
643.942	6.46
644.273	6.44
644.604	6.48
644.936	6.42
645.267	6.42
645.598	6.41
645.929	6.39
646.26	6.36
646.591	6.45
646.922	6.54
647.253	6.59
647.584	6.61
647.915	6.6
648.245	6.61
648.576	6.61
648.907	6.68
649.238	6.65
649.568	6.58
649.899	6.62
650.229	6.7
650.56	6.71
650.89	6.73
651.221	6.75
651.551	6.75
651.882	6.74
652.212	6.8
652.542	6.9
652.872	6.99
653.203	6.99
653.533	6.88
653.863	6.86
654.193	6.85
654.523	6.86
654.853	6.94
655.183	6.96
655.513	7.02
655.843	7.02
656.172	7.18
656.502	7.17
656.832	7.16
657.162	7.14
657.491	7.2
657.821	7.12
658.15	7.13
658.48	7.15
658.809	7.2
659.139	7.22
659.468	7.13
659.798	7.12
660.127	7.14
660.456	7.19
660.785	7.21
661.115	7.24
661.444	7.31
661.773	7.23
662.102	7.14
662.431	7.09
662.76	7.11
663.089	6.97
663.418	6.98
663.747	6.99
664.076	6.95
664.404	6.93
664.733	6.97
665.062	6.93
665.39	6.86
665.719	6.81
666.048	6.78
666.376	6.79
666.705	6.77
667.033	6.77
667.362	6.82
667.69	6.86
668.018	6.85
668.347	6.78
668.675	6.8
669.003	6.85
669.331	6.86
669.659	6.8
669.987	6.76
670.315	6.83
670.643	6.84
670.971	6.81
671.299	6.74
671.627	6.83
671.955	6.76
672.283	6.81
672.61	6.89
672.938	6.92
673.266	6.93
673.593	6.94
673.921	6.98
674.249	7
674.576	6.94
674.904	6.85
675.231	6.97
675.558	7.04
675.886	7.12
676.213	7.16
676.54	7.29
676.867	7.42
677.195	7.26
677.522	7.27
677.849	7.27
678.176	7.32
678.503	7.21
678.83	7.3
679.157	7.31
679.484	7.33
679.81	7.29
680.137	7.32
680.464	7.3
680.791	7.25
681.117	7.19
681.444	7.23
681.771	7.32
682.097	7.2
682.424	7.16
682.75	7.12
683.077	7.17
683.403	7.19
683.729	7.09
684.056	7.23
684.382	7.22
684.708	7.16
685.034	7.11
685.36	7.15
685.686	7.15
686.012	7.14
686.339	7.1
686.664	7.16
686.99	7.11
687.316	7.13
687.642	7.19
687.968	7.29
688.294	7.34
688.619	7.4
688.945	7.51
689.271	7.52
689.596	7.51
689.922	7.42
690.247	7.32
690.573	7.35
690.898	7.31
691.224	7.35
691.549	7.49
691.874	7.59
692.2	7.58
692.525	7.57
692.85	7.6
693.175	7.71
693.5	7.66
693.825	7.73
694.15	7.79
694.475	7.78
694.8	7.64
695.125	7.53
695.45	7.48
695.775	7.38
696.099	7.43
696.424	7.48
696.749	7.5
697.073	7.55
697.398	7.52
697.723	7.51
698.047	7.45
698.372	7.38
698.696	7.34
699.02	7.37
699.345	7.45
699.669	7.47
699.993	7.46
700.318	7.47
700.642	7.53
700.966	7.5
701.29	7.6
701.614	7.76
701.938	7.73
702.262	7.65
702.586	7.68
702.91	7.7
703.234	7.6
703.557	7.58
703.881	7.63
704.205	7.66
704.529	7.67
704.852	7.75
705.176	7.92
705.499	7.81
705.823	7.78
706.146	7.76
706.47	7.79
706.793	7.8
707.117	7.88
707.44	7.82
707.763	7.85
708.086	7.76
708.409	7.68
708.733	7.66
709.056	7.71
709.379	7.78
709.702	7.62
710.025	7.81
710.348	7.89
710.671	8.01
710.993	8.05
711.316	8.03
711.639	7.98
711.962	8
712.284	8.14
712.607	8.14
712.93	8.07
713.252	8.03
713.575	7.95
713.897	7.83
714.22	7.83
714.542	7.76
714.864	7.69
715.187	7.5
715.509	7.42
715.831	7.39
716.153	7.36
716.475	7.47
716.798	7.33
717.12	7.3
717.442	7.08
717.764	7.07
718.085	7.27
718.407	7.21
718.729	7.18
719.051	7.26
719.373	7.3
719.695	7.32
720.016	7.2
720.338	7.18
720.659	7.32
720.981	7.18
721.302	7.27
721.624	7.43
721.945	7.67
722.267	7.86
722.588	7.86
722.909	7.96
723.231	7.89
723.552	7.9
723.873	8.02
724.194	8.17
724.515	8.14
724.836	7.9
725.157	8.09
725.478	8.09
725.799	8.01
726.12	8.14
726.441	8.22
726.762	8.32
727.083	8.5
727.403	8.51
727.724	8.68
728.045	8.61
728.365	8.52
728.686	8.42
729.006	8.32
729.327	8.32
729.647	8.28
729.967	8.25
730.288	8.24
730.608	8.07
730.928	7.99
731.249	8.06
731.569	8.21
731.889	8.17
732.209	7.92
732.529	7.77
732.849	7.69
733.169	7.52
733.489	7.57
733.809	7.44
734.129	7.53
734.448	7.51
734.768	7.47
735.088	7.22
735.408	7.4
735.727	7.62
736.047	7.65
736.366	7.39
736.686	7.38
737.005	7.4
737.325	7.52
737.644	7.79
737.963	7.79
738.283	7.79
738.602	7.58
738.921	7.94
739.24	7.86
739.56	8.02
739.879	8.17
740.198	8.24
740.517	8.03
740.836	7.68
741.155	7.67
741.473	7.8
741.792	8.16
742.111	8.06
742.43	7.86
742.748	7.88
743.067	8.23
743.386	8.43
743.704	8.65
744.023	8.64
744.341	8.28
744.66	8.11
744.978	8.11
745.297	8.35
745.615	8.2
745.933	8.49
746.252	8.25
746.57	8.14
746.888	8.21
747.206	8.52
747.524	8.76
747.842	8.67
748.16	8.71
748.478	8.59
748.796	8.41
749.114	8.34
749.432	8.44
749.749	8.35
750.067	8.31
750.385	8.32
750.703	8.15
751.02	8.47
751.338	8.6
751.655	8.37
751.973	8.39
752.29	8.26
752.608	8.17
752.925	8.36
753.242	8.49
753.56	8.21
753.877	8.24
754.194	8.27
754.511	8.3
754.828	8.27
755.145	8.07
755.462	8.21
755.779	8.26
756.096	8.17
756.413	8
756.73	8.06
757.047	7.59
757.364	7.73
757.68	7.35
757.997	7.38
758.314	7.78
758.63	7.85
758.947	7.85
759.264	7.86
759.58	7.57
759.896	7.64
760.213	7.81
760.529	7.93
760.846	7.91
761.162	7.99
761.478	8.07
761.794	8.55
762.11	8.59
762.426	8.65
762.743	8.75
763.059	8.93
763.375	8.79
763.69	9.1
764.006	9.03
764.322	9.22
764.638	9.1
764.954	9.15
765.27	9.06
765.585	9.21
765.901	9.35
766.216	9.6
766.532	9.51
766.848	9.43
767.163	9.2
767.478	9.17
767.794	9.29
768.109	9.05
768.424	8.87
768.74	8.78
769.055	8.82
769.37	8.39
769.685	8.25
770	8.6
770.315	8.77
770.63	9.15
770.945	9.11
771.26	9.19
771.575	8.68
771.89	8.88
772.205	8.8
772.52	8.59
772.834	8.39
773.149	8.29
773.464	8.34
773.778	8.66
774.093	8.72
774.407	8.66
774.722	8.97
775.036	9.22
775.351	9.38
775.665	9.19
775.979	9.42
776.293	9.41
776.608	9.18
776.922	9.01
777.236	8.62
777.55	8.16
777.864	8.12
778.178	8.36
778.492	7.88
778.806	8.01
779.12	8.02
779.434	8.17
779.747	8.75
780.061	8.9
780.375	9
780.689	9.46
781.002	9.37
781.316	9.28
781.629	8.84
781.943	8.84
782.256	9.33
782.57	9.64
782.883	9.75
783.196	9.69
783.51	9.98
783.823	10.16
784.136	10.46
784.449	10.46
784.762	10.3
785.075	10.5
785.388	10.76
785.701	10.75
786.014	10.34
786.327	9.94
786.64	9.8
786.953	9.53
787.266	9.36
787.578	9.26
787.891	9.09
788.204	9.54
788.516	9.63
788.829	9.24
789.141	9.11
789.454	9.11
789.766	9.01
790.079	8.28
790.391	7.89
790.703	7.9
791.016	8.07
791.328	8.58
791.64	8.86
791.952	8.96
792.264	8.72
792.576	9.05
792.888	9.02
793.2	9.2
793.512	8.93
793.824	8.81
794.136	9.15
794.448	9.82
794.76	9.63
795.071	9.5
795.383	9.77
795.695	9.55
796.006	9.37
796.318	10.05
796.629	10.27
796.941	10.66
797.252	10.84
797.564	10.77
797.875	10.29
798.186	10.45
798.497	10.03
798.809	10.88
799.12	10.72
799.431	10.72
799.742	10.56
800.053	10.79
800.364	10.81
800.675	10.87
800.986	10.6
801.297	10.41
801.608	10.16
801.918	9.79
802.229	10.23
802.54	10.44
802.851	9.92
803.161	10.15
803.472	11.01
803.782	11.35
804.093	11.46
804.403	11.94
804.714	12.59
805.024	12.52
805.334	11.8
805.645	12.67
805.955	12.71
806.265	13.14
806.575	13.48
806.885	13.37
807.195	13.2
807.505	12.82
807.815	13.15
808.125	13.53
808.435	13.88
808.745	14.28
809.055	13.86
809.365	14
809.674	13.73
809.984	12.45
810.294	11.52
810.603	11.2
810.913	10.68
811.222	9.36
811.532	8.93
811.841	9.2
812.151	8.08
812.46	8.41
812.769	8.12
813.079	8.31
813.388	8.35
813.697	7.99
814.006	8.02
814.315	8.2
814.624	8.65
814.933	9.1
815.242	9.07
815.551	9.47
815.86	8.9
816.169	8.29
816.478	8.85
816.786	9.65
817.095	9.52
817.404	9.75
817.712	10.42
818.021	10.76
818.33	10.38
818.638	10.5
818.947	10.36
819.255	10.15
819.563	9.95
819.872	10.16
820.18	10.78
820.488	11.06
820.796	11.03
821.105	10.86
821.413	11.04
821.721	11.03
822.029	11.14
822.337	11.37
822.645	11.81
822.953	11.79
823.26	11.91
823.568	11.98
823.876	11.9
824.184	11.73
824.491	11.67
824.799	11.91
825.107	11.99
825.414	11.91
825.722	12.09
826.029	12.25
826.337	12.11
826.644	11.84
826.951	11.77
827.259	11.83
827.566	12
827.873	11.85
828.18	11.83
828.488	11.66
828.795	11.75
829.102	11.38
829.409	11.27
829.716	11.08
830.023	11.19
830.329	11.59
830.636	11.66
830.943	11.7
831.25	11.61
831.557	12.03
831.863	12.3
832.17	12.12
832.476	11.97
832.783	12.36
833.089	12.73
833.396	12.6
833.702	12.12
834.009	11.97
834.315	12.08
834.621	12.28
834.928	12.43
835.234	12.25
835.54	12.14
835.846	12.32
836.152	12.23
836.458	12.24
836.764	11.97
837.07	11.96
837.376	12.06
837.682	11.43
837.988	10.63
838.293	10.56
838.599	10.43
838.905	10.67
839.211	10.35
839.516	10.15
839.822	10.86
840.127	10.67
840.433	10.83
840.738	10.51
841.044	9.99
841.349	10.42
841.654	9.52
841.959	10.58
842.265	10.41
842.57	10.6
842.875	10.32
843.18	9.72
843.485	10.03
843.79	10.74
844.095	12.09
844.4	13.73
844.705	13.74
845.01	14.66
845.315	13.81
845.619	13.77
845.924	13.31
846.229	13.27
846.533	13.99
846.838	13.67
847.142	14.22
847.447	14.14
847.751	13.1
848.056	13.95
848.36	12.63
848.664	13.12
848.969	12.92
849.273	11.16
849.577	12.56
849.881	12.49
850.185	11.09
850.489	12.19
850.794	11.26
851.097	9.66
851.401	7.97
851.705	7.93
852.009	9.41
852.313	10.54
852.617	9.51
852.92	10.64
853.224	9.71
853.528	7.18
853.831	7.84
854.135	9.95
854.438	10.08
854.742	8.52
855.045	9.2
855.349	10.17
855.652	14.46
855.955	15.03
856.259	14.72
856.562	15.3
856.865	12.51
857.168	12.22
857.471	13.62
857.774	14.51
858.077	15.41
858.38	14.28
858.683	13.3
858.986	13.21
859.289	13.84
859.592	14.23
859.894	16.12
860.197	15.89
860.5	16.72
860.802	15.38
861.105	15.7
861.407	13.98
861.71	13.27
862.012	11.15
862.315	9.38
862.617	7.09
862.919	6.77
863.222	7.33
863.524	7
863.826	8.04
864.128	9.01
864.43	9.97
864.732	9.42
865.034	10.35
865.336	11.56
865.638	9.33
865.94	10.81
866.242	9.07
866.544	9.67
866.846	7.68
867.147	9.69
867.449	11.23
867.751	12.62
868.052	12.75
868.354	13.85
868.655	13.95
868.957	17.24
869.258	16
869.56	17.39
869.861	17.56
870.162	16.45
870.463	16.41
870.765	14.86
871.066	15.57
871.367	14.2
871.668	11.61
871.969	12.56
872.27	12.45
872.571	16.14
872.872	15.74
873.173	15.42
873.473	15.71
873.774	17.81
874.075	16.91
874.376	15.09
874.676	12.31
874.977	15.07
875.277	13.95
875.578	17.29
875.878	17.02
876.179	16.92
876.479	17.55
876.78	16.07
877.08	16.5
877.38	16.87
877.68	18.23
877.981	20.31
878.281	20.79
878.581	20.54
