Data from BA28300_Reflection_00013.txt Node
Date: Mon Nov 18 15:58:28 EST 2019
User: vgr7
Spectrometer: USB2G7710
Scans to average: 3
Trigger mode: 4
Integration Time (sec): 2.000000E-2
Electric dark correction enabled: true
Boxcar width: 10
XAxis mode: Wavelengths
Number of Pixels in Spectrum: 2048
>>>>>Begin Spectral Data<<<<<
177.721	-704.18
178.105	-2311.76
178.488	394.19
178.871	154.57
179.254	293.77
179.636	-3.09
180.019	-145.88
180.402	97.22
180.785	-69.19
181.168	-18.03
181.55	-200.75
181.933	93.17
182.316	139.12
182.698	89.16
183.081	104.53
183.463	96.7
183.846	179.22
184.228	155.27
184.611	263.76
184.993	-2716.9
185.376	-6723.53
185.758	417.34
186.14	501.38
186.522	341.16
186.904	301.23
187.287	362.55
187.669	-12.29
188.051	-423.36
188.433	-170.27
188.815	34.3
189.197	64.09
189.579	36.69
189.961	151.45
190.342	276.21
190.724	60.55
191.106	134.98
191.488	56.58
191.869	301.08
192.251	361.84
192.633	233.78
193.014	-348.98
193.396	7.38
193.777	-206.05
194.159	454.29
194.54	-4605.88
194.922	343.09
195.303	-933.71
195.684	-942.25
196.065	-151.35
196.447	-136.88
196.828	-465.92
197.209	-144.41
197.59	-380.94
197.971	-352.75
198.352	-113.64
198.733	-129.48
199.114	-124.98
199.495	-88.11
199.876	-79.12
200.257	-61.53
200.638	-28.61
201.018	-75.88
201.399	-36.46
201.78	-43.41
202.16	-15.88
202.541	-45.17
202.922	-159.3
203.302	-341.11
203.683	-465.7
204.063	-268.24
204.444	-197.45
204.824	-219.68
205.204	-361.15
205.585	-148.32
205.965	-115.97
206.345	-204.3
206.725	-511.76
207.106	-1984.03
207.486	-856.77
207.866	-3683.13
208.246	-675.16
208.626	-337.76
209.006	-105.17
209.386	-172.81
209.766	-203.64
210.145	-128.17
210.525	-60.31
210.905	-3.01
211.285	-25.85
211.664	10.62
212.044	18.99
212.424	39.61
212.803	28.91
213.183	27.57
213.562	26.7
213.942	26.41
214.321	5.16
214.701	2.74
215.08	-8.16
215.459	-6.07
215.838	-0.09
216.218	0.25
216.597	-5.48
216.976	7.7
217.355	0.41
217.734	6.09
218.113	16.35
218.492	2.49
218.871	6.24
219.25	5.2
219.629	-15.82
220.008	-9.95
220.387	-4.54
220.766	-7.09
221.144	3.82
221.523	-10.9
221.902	-10.92
222.28	-1.97
222.659	0.84
223.037	-0.81
223.416	-1.99
223.794	-6.71
224.173	-0.04
224.551	0.27
224.929	-8.98
225.308	-1.62
225.686	-0.95
226.064	-2.39
226.442	-2.82
226.821	-2.11
227.199	3.75
227.577	5.22
227.955	4.76
228.333	1.1
228.711	1.11
229.089	4.39
229.467	3.79
229.845	5.24
230.222	7.13
230.6	5.88
230.978	7.65
231.356	9.05
231.733	10.97
232.111	12.4
232.488	14.48
232.866	16.15
233.243	16.14
233.621	14.35
233.998	15.06
234.376	15.04
234.753	12.66
235.13	13.69
235.508	15.49
235.885	15.31
236.262	14.56
236.639	14.37
237.016	11.1
237.393	13.4
237.77	12.25
238.147	11.19
238.524	10.81
238.901	10.67
239.278	9.67
239.655	9.63
240.032	9.02
240.409	7.73
240.785	7.53
241.162	7.79
241.539	8.06
241.915	7.6
242.292	7.23
242.668	7.34
243.045	6.78
243.421	6.92
243.798	6.73
244.174	6.96
244.551	7.06
244.927	6.98
245.303	6.86
245.679	6.96
246.056	6.85
246.432	6.86
246.808	6.8
247.184	6.77
247.56	6.49
247.936	6.47
248.312	6.54
248.688	6.65
249.064	6.58
249.44	6.61
249.815	6.78
250.191	6.73
250.567	7.11
250.943	7.03
251.318	6.76
251.694	6.66
252.069	6.55
252.445	6.5
252.82	6.73
253.196	6.36
253.571	6.16
253.947	6.4
254.322	6.74
254.697	6.27
255.073	6.07
255.448	6.26
255.823	6.11
256.198	6.26
256.573	5.85
256.948	5.82
257.323	5.92
257.698	5.76
258.073	5.96
258.448	5.67
258.823	5.69
259.198	5.58
259.573	5.51
259.948	5.51
260.322	5.44
260.697	5.33
261.072	5.39
261.446	5.49
261.821	5.32
262.195	5.17
262.57	5.3
262.944	5.35
263.319	5.29
263.693	5.27
264.067	5.23
264.442	5.3
264.816	5.19
265.19	4.95
265.564	4.84
265.938	4.71
266.313	4.63
266.687	4.51
267.061	4.6
267.435	4.67
267.809	4.84
268.183	4.81
268.556	4.84
268.93	4.95
269.304	4.82
269.678	5.06
270.051	5.23
270.425	5.34
270.799	5.46
271.172	5.43
271.546	5.36
271.919	5.3
272.293	5.3
272.666	5.44
273.04	5.61
273.413	5.6
273.787	5.64
274.16	5.65
274.533	5.7
274.906	5.64
275.279	5.67
275.653	5.5
276.026	5.55
276.399	5.62
276.772	5.61
277.145	5.68
277.518	5.5
277.891	5.33
278.263	5.28
278.636	5.32
279.009	5.33
279.382	5.63
279.755	5.7
280.127	5.84
280.5	5.96
280.872	5.88
281.245	5.82
281.617	5.86
281.99	5.84
282.362	6.01
282.735	5.88
283.107	5.82
283.479	5.92
283.852	5.89
284.224	5.85
284.596	5.79
284.968	5.78
285.34	5.82
285.713	5.91
286.085	5.8
286.457	5.69
286.829	5.79
287.201	5.74
287.572	5.7
287.944	5.6
288.316	5.41
288.688	5.42
289.06	5.5
289.431	5.53
289.803	5.68
290.175	5.51
290.546	5.76
290.918	5.85
291.289	5.9
291.661	6.01
292.032	6.1
292.403	6.08
292.775	6.11
293.146	6.12
293.517	6
293.889	6.24
294.26	6.32
294.631	6.27
295.002	6.27
295.373	6.24
295.744	6.45
296.115	6.52
296.486	6.54
296.857	6.66
297.228	6.75
297.599	6.69
297.97	6.85
298.34	6.86
298.711	6.99
299.082	7.07
299.452	7.13
299.823	7.23
300.194	7.48
300.564	7.6
300.935	7.74
301.305	7.84
301.676	7.92
302.046	8.04
302.416	8.33
302.787	8.35
303.157	8.5
303.527	8.37
303.897	8.53
304.267	8.79
304.637	8.93
305.008	8.97
305.378	9.07
305.748	9.12
306.117	9.08
306.487	9.23
306.857	9.2
307.227	9.33
307.597	9.38
307.967	9.45
308.336	9.52
308.706	9.57
309.076	9.8
309.445	9.76
309.815	9.85
310.184	9.81
310.554	9.98
310.923	10.09
311.293	10.45
311.662	10.65
312.031	10.63
312.401	10.64
312.77	10.73
313.139	10.88
313.508	11.01
313.877	11.3
314.246	11.35
314.616	11.39
314.985	11.36
315.353	11.35
315.722	11.29
316.091	11.42
316.46	11.6
316.829	11.7
317.198	11.83
317.567	11.88
317.935	12.03
318.304	12.12
318.672	12.16
319.041	12.05
319.41	11.91
319.778	11.94
320.147	12.15
320.515	12.01
320.883	12.01
321.252	12.09
321.62	12.02
321.988	12.06
322.357	12.21
322.725	12.36
323.093	12.52
323.461	12.74
323.829	12.69
324.197	12.67
324.565	12.71
324.933	12.73
325.301	12.87
325.669	12.86
326.037	12.83
326.405	12.86
326.772	12.85
327.14	13.04
327.508	13.21
327.875	13.1
328.243	13.28
328.61	13.35
328.978	13.36
329.346	13.4
329.713	13.45
330.08	13.62
330.448	13.49
330.815	13.61
331.182	13.54
331.55	13.68
331.917	13.79
332.284	13.85
332.651	13.88
333.018	13.96
333.385	13.93
333.752	14.11
334.119	14.34
334.486	14.42
334.853	14.32
335.22	14.38
335.587	14.49
335.954	14.55
336.32	14.42
336.687	14.51
337.054	14.68
337.42	14.7
337.787	14.67
338.153	14.9
338.52	14.89
338.886	14.88
339.253	14.88
339.619	14.98
339.986	14.91
340.352	14.99
340.718	14.83
341.084	14.87
341.451	14.89
341.817	14.77
342.183	14.74
342.549	14.84
342.915	14.8
343.281	14.78
343.647	14.71
344.013	14.86
344.379	14.94
344.745	14.94
345.11	14.9
345.476	14.97
345.842	14.92
346.208	14.96
346.573	15.06
346.939	15.16
347.304	15.1
347.67	15.21
348.035	15.27
348.401	15.43
348.766	15.59
349.132	15.67
349.497	15.76
349.862	15.91
350.228	15.91
350.593	15.92
350.958	15.95
351.323	16.08
351.688	16.1
352.053	16.06
352.418	16
352.783	16.04
353.148	16.02
353.513	16.06
353.878	16.09
354.243	16.15
354.608	16.05
354.972	16.12
355.337	16.12
355.702	16.18
356.066	16.17
356.431	16.13
356.795	16.1
357.16	16.13
357.524	16.1
357.889	16.08
358.253	16.11
358.618	16.14
358.982	16.15
359.346	16.09
359.71	16.11
360.075	16.21
360.439	16.24
360.803	16.26
361.167	16.29
361.531	16.23
361.895	16.19
362.259	16.19
362.623	16.17
362.987	16.12
363.351	16.12
363.714	16.13
364.078	16.1
364.442	16.02
364.806	15.95
365.169	15.89
365.533	15.92
365.896	15.94
366.26	15.99
366.623	16
366.987	16.03
367.35	16.01
367.714	16.03
368.077	16.03
368.44	15.96
368.803	15.85
369.167	15.97
369.53	15.95
369.893	16.01
370.256	15.94
370.619	15.95
370.982	15.89
371.345	15.9
371.708	15.91
372.071	15.93
372.434	15.86
372.797	15.91
373.159	15.84
373.522	15.82
373.885	15.76
374.247	15.71
374.61	15.7
374.973	15.63
375.335	15.47
375.698	15.4
376.06	15.43
376.423	15.46
376.785	15.36
377.147	15.38
377.51	15.4
377.872	15.42
378.234	15.41
378.596	15.38
378.958	15.33
379.321	15.32
379.683	15.37
380.045	15.39
380.407	15.34
380.769	15.37
381.13	15.24
381.492	15.26
381.854	15.27
382.216	15.3
382.578	15.29
382.939	15.29
383.301	15.28
383.663	15.19
384.024	15.14
384.386	15.17
384.747	15.08
385.109	14.98
385.47	14.93
385.832	14.85
386.193	14.83
386.554	14.71
386.916	14.64
387.277	14.57
387.638	14.55
387.999	14.47
388.36	14.42
388.721	14.45
389.082	14.33
389.443	14.24
389.804	14.17
390.165	14.11
390.526	14.1
390.887	14.03
391.248	14.03
391.609	14.01
391.969	13.91
392.33	13.87
392.691	13.85
393.051	13.76
393.412	13.75
393.772	13.69
394.133	13.68
394.493	13.62
394.854	13.54
395.214	13.51
395.574	13.47
395.935	13.4
396.295	13.35
396.655	13.32
397.015	13.3
397.376	13.23
397.736	13.23
398.096	13.17
398.456	13.14
398.816	13.06
399.176	12.99
399.535	12.96
399.895	12.91
400.255	12.86
400.615	12.87
400.975	12.77
401.334	12.73
401.694	12.7
402.054	12.67
402.413	12.65
402.773	12.58
403.132	12.55
403.492	12.5
403.851	12.45
404.211	12.43
404.57	12.4
404.929	12.4
405.288	12.36
405.648	12.29
406.007	12.26
406.366	12.27
406.725	12.26
407.084	12.28
407.443	12.25
407.802	12.26
408.161	12.23
408.52	12.24
408.879	12.22
409.238	12.24
409.596	12.18
409.955	12.18
410.314	12.21
410.673	12.19
411.031	12.14
411.39	12.1
411.748	12.08
412.107	12.04
412.465	11.99
412.824	11.94
413.182	11.91
413.54	11.88
413.899	11.84
414.257	11.79
414.615	11.68
414.974	11.66
415.332	11.59
415.69	11.54
416.048	11.5
416.406	11.47
416.764	11.4
417.122	11.38
417.48	11.33
417.838	11.26
418.195	11.21
418.553	11.2
418.911	11.16
419.269	11.13
419.626	11.08
419.984	11.04
420.342	11.03
420.699	11.03
421.057	10.98
421.414	10.93
421.772	10.9
422.129	10.89
422.486	10.85
422.844	10.83
423.201	10.81
423.558	10.79
423.915	10.76
424.273	10.75
424.63	10.7
424.987	10.66
425.344	10.62
425.701	10.59
426.058	10.59
426.415	10.57
426.772	10.54
427.128	10.52
427.485	10.5
427.842	10.42
428.199	10.39
428.555	10.38
428.912	10.39
429.269	10.38
429.625	10.34
429.982	10.34
430.338	10.31
430.695	10.27
431.051	10.24
431.407	10.2
431.764	10.2
432.12	10.21
432.476	10.22
432.832	10.22
433.189	10.22
433.545	10.2
433.901	10.21
434.257	10.23
434.613	10.24
434.969	10.23
435.325	10.24
435.681	10.25
436.036	10.25
436.392	10.22
436.748	10.18
437.104	10.19
437.459	10.17
437.815	10.17
438.171	10.18
438.526	10.17
438.882	10.19
439.237	10.17
439.593	10.17
439.948	10.14
440.304	10.14
440.659	10.14
441.014	10.13
441.369	10.1
441.725	10.06
442.08	10.06
442.435	10.04
442.79	10.03
443.145	10.02
443.5	10
443.855	9.98
444.21	9.96
444.565	9.94
444.92	9.92
445.275	9.89
445.629	9.88
445.984	9.86
446.339	9.82
446.693	9.79
447.048	9.76
447.403	9.74
447.757	9.72
448.112	9.68
448.466	9.65
448.82	9.63
449.175	9.63
449.529	9.58
449.883	9.56
450.238	9.52
450.592	9.49
450.946	9.45
451.3	9.44
451.654	9.42
452.008	9.4
452.362	9.39
452.716	9.37
453.07	9.35
453.424	9.35
453.778	9.35
454.132	9.35
454.486	9.33
454.839	9.33
455.193	9.31
455.547	9.29
455.9	9.3
456.254	9.31
456.607	9.31
456.961	9.31
457.314	9.32
457.668	9.36
458.021	9.35
458.375	9.38
458.728	9.4
459.081	9.44
459.434	9.45
459.787	9.45
460.141	9.45
460.494	9.46
460.847	9.48
461.2	9.5
461.553	9.51
461.906	9.55
462.259	9.6
462.611	9.64
462.964	9.7
463.317	9.73
463.67	9.76
464.022	9.77
464.375	9.81
464.728	9.85
465.08	9.87
465.433	9.91
465.785	9.96
466.138	9.99
466.49	10.02
466.843	10.06
467.195	10.12
467.547	10.16
467.899	10.2
468.252	10.23
468.604	10.24
468.956	10.28
469.308	10.27
469.66	10.29
470.012	10.33
470.364	10.34
470.716	10.37
471.068	10.4
471.42	10.44
471.772	10.46
472.123	10.49
472.475	10.51
472.827	10.53
473.178	10.54
473.53	10.55
473.882	10.55
474.233	10.56
474.585	10.54
474.936	10.54
475.288	10.53
475.639	10.53
475.99	10.56
476.342	10.59
476.693	10.61
477.044	10.59
477.395	10.55
477.746	10.54
478.097	10.52
478.448	10.5
478.8	10.47
479.15	10.44
479.501	10.43
479.852	10.42
480.203	10.4
480.554	10.39
480.905	10.37
481.255	10.36
481.606	10.35
481.957	10.35
482.307	10.35
482.658	10.35
483.009	10.34
483.359	10.33
483.709	10.32
484.06	10.32
484.41	10.31
484.761	10.32
485.111	10.3
485.461	10.31
485.811	10.31
486.162	10.31
486.512	10.32
486.862	10.31
487.212	10.31
487.562	10.32
487.912	10.31
488.262	10.32
488.612	10.33
488.961	10.32
489.311	10.34
489.661	10.35
490.011	10.35
490.36	10.36
490.71	10.39
491.06	10.41
491.409	10.44
491.759	10.47
492.108	10.51
492.458	10.56
492.807	10.58
493.157	10.63
493.506	10.68
493.855	10.72
494.204	10.76
494.554	10.82
494.903	10.87
495.252	10.95
495.601	11.03
495.95	11.12
496.299	11.22
496.648	11.29
496.997	11.37
497.346	11.48
497.695	11.59
498.043	11.67
498.392	11.74
498.741	11.79
499.09	11.88
499.438	11.92
499.787	12.03
500.135	12.14
500.484	12.22
500.832	12.33
501.181	12.46
501.529	12.58
501.878	12.67
502.226	12.79
502.574	12.89
502.923	13.02
503.271	13.12
503.619	13.27
503.967	13.39
504.315	13.5
504.663	13.62
505.011	13.73
505.359	13.84
505.707	13.96
506.055	14.09
506.403	14.21
506.751	14.35
507.098	14.48
507.446	14.58
507.794	14.72
508.141	14.83
508.489	14.94
508.837	15.06
509.184	15.19
509.531	15.32
509.879	15.45
510.226	15.55
510.574	15.66
510.921	15.76
511.268	15.87
511.616	16
511.963	16.12
512.31	16.24
512.657	16.38
513.004	16.51
513.351	16.63
513.698	16.76
514.045	16.9
514.392	17.01
514.739	17.18
515.086	17.33
515.432	17.45
515.779	17.59
516.126	17.71
516.473	17.81
516.819	17.94
517.166	18.06
517.512	18.18
517.859	18.32
518.205	18.44
518.552	18.56
518.898	18.66
519.245	18.77
519.591	18.88
519.937	18.96
520.283	19.09
520.629	19.24
520.976	19.4
521.322	19.54
521.668	19.66
522.014	19.78
522.36	19.93
522.706	20.1
523.052	20.26
523.398	20.42
523.743	20.61
524.089	20.77
524.435	20.92
524.781	21.1
525.126	21.25
525.472	21.39
525.817	21.55
526.163	21.7
526.509	21.85
526.854	21.97
527.199	22.1
527.545	22.2
527.89	22.3
528.235	22.42
528.581	22.55
528.926	22.69
529.271	22.81
529.616	22.95
529.961	23.07
530.306	23.21
530.651	23.37
530.996	23.52
531.341	23.69
531.686	23.87
532.031	24.04
532.376	24.23
532.721	24.42
533.065	24.6
533.41	24.77
533.755	24.96
534.099	25.16
534.444	25.38
534.788	25.6
535.133	25.81
535.477	26.01
535.822	26.24
536.166	26.48
536.51	26.74
536.855	26.98
537.199	27.28
537.543	27.58
537.887	27.86
538.231	28.16
538.576	28.42
538.92	28.7
539.264	28.96
539.608	29.18
539.951	29.4
540.295	29.63
540.639	29.86
540.983	30.03
541.327	30.28
541.671	30.47
542.014	30.69
542.358	30.89
542.701	31.12
543.045	31.3
543.389	31.53
543.732	31.73
544.075	31.96
544.419	32.2
544.762	32.42
545.105	32.66
545.449	32.89
545.792	33.15
546.135	33.41
546.478	33.69
546.821	33.97
547.165	34.28
547.508	34.56
547.851	34.88
548.194	35.22
548.536	35.51
548.879	35.86
549.222	36.17
549.565	36.47
549.908	36.78
550.25	37.1
550.593	37.36
550.936	37.66
551.278	37.89
551.621	38.17
551.963	38.53
552.306	38.77
552.648	39.09
552.991	39.38
553.333	39.65
553.675	39.87
554.017	40.13
554.36	40.39
554.702	40.67
555.044	40.93
555.386	41.18
555.728	41.37
556.07	41.64
556.412	41.88
556.754	42.09
557.096	42.29
557.438	42.5
557.78	42.79
558.121	43.06
558.463	43.4
558.805	43.59
559.147	43.77
559.488	43.99
559.83	44.23
560.171	44.42
560.513	44.63
560.854	44.92
561.196	45.16
561.537	45.39
561.878	45.58
562.22	45.77
562.561	46.05
562.902	46.3
563.243	46.48
563.584	46.64
563.925	46.92
564.266	47.05
564.607	47.26
564.948	47.47
565.289	47.67
565.63	47.8
565.971	47.97
566.312	48.12
566.653	48.36
566.993	48.55
567.334	48.76
567.675	48.96
568.015	49.13
568.356	49.21
568.696	49.35
569.037	49.54
569.377	49.72
569.718	49.86
570.058	50
570.398	50.13
570.739	50.25
571.079	50.35
571.419	50.59
571.759	50.76
572.099	50.85
572.439	50.91
572.779	51.01
573.119	51.13
573.459	51.28
573.799	51.37
574.139	51.43
574.479	51.56
574.819	51.67
575.158	51.76
575.498	51.93
575.838	52.05
576.177	52.09
576.517	52.18
576.856	52.24
577.196	52.33
577.535	52.42
577.875	52.55
578.214	52.61
578.553	52.7
578.893	52.69
579.232	52.81
579.571	52.96
579.91	53.03
580.25	53.17
580.589	53.18
580.928	53.3
581.267	53.45
581.606	53.52
581.945	53.6
582.283	53.66
582.622	53.77
582.961	53.87
583.3	54.01
583.639	54.1
583.977	54.25
584.316	54.35
584.654	54.41
584.993	54.48
585.332	54.7
585.67	54.65
586.008	54.79
586.347	54.88
586.685	54.9
587.024	55.01
587.362	55.04
587.7	55.19
588.038	55.27
588.376	55.31
588.715	55.38
589.053	55.47
589.391	55.53
589.729	55.53
590.067	55.61
590.404	55.72
590.742	55.79
591.08	55.7
591.418	55.77
591.756	55.85
592.093	55.91
592.431	55.91
592.769	56.05
593.106	56.11
593.444	56.16
593.781	56.32
594.119	56.43
594.456	56.5
594.793	56.51
595.131	56.51
595.468	56.48
595.805	56.53
596.143	56.54
596.48	56.63
596.817	56.71
597.154	56.75
597.491	56.71
597.828	56.77
598.165	56.93
598.502	56.91
598.839	56.94
599.176	56.96
599.512	57.02
599.849	57.08
600.186	57.08
600.523	57.07
600.859	57.03
601.196	57.02
601.532	56.95
601.869	56.98
602.205	57.04
602.542	57.09
602.878	57.14
603.215	57.27
603.551	57.27
603.887	57.27
604.223	57.22
604.56	57.35
604.896	57.33
605.232	57.35
605.568	57.49
605.904	57.57
606.24	57.66
606.576	57.7
606.912	57.74
607.248	57.85
607.583	57.9
607.919	58.01
608.255	58.14
608.591	58.31
608.926	58.41
609.262	58.46
609.597	58.52
609.933	58.56
610.268	58.47
610.604	58.56
610.939	58.6
611.275	58.76
611.61	58.74
611.945	58.81
612.281	58.86
612.616	58.84
612.951	58.84
613.286	58.82
613.621	58.86
613.956	58.83
614.291	58.79
614.626	58.88
614.961	58.83
615.296	58.82
615.631	58.75
615.966	58.73
616.3	58.76
616.635	58.84
616.97	58.78
617.304	58.96
617.639	58.94
617.973	59.07
618.308	59.04
618.642	59.02
618.977	59.04
619.311	58.98
619.646	58.92
619.98	58.97
620.314	59.12
620.648	59.09
620.983	59.13
621.317	59.12
621.651	59.03
621.985	59.16
622.319	59.14
622.653	59.2
622.987	59.25
623.321	59.33
623.655	59.31
623.988	59.37
624.322	59.3
624.656	59.36
624.99	59.25
625.323	59.21
625.657	59.25
625.99	59.22
626.324	59.28
626.657	59.36
626.991	59.45
627.324	59.41
627.658	59.44
627.991	59.5
628.324	59.54
628.657	59.63
628.991	59.6
629.324	59.55
629.657	59.57
629.99	59.57
630.323	59.46
630.656	59.45
630.989	59.47
631.322	59.51
631.655	59.47
631.987	59.49
632.32	59.54
632.653	59.65
632.986	59.71
633.318	59.78
633.651	59.78
633.984	59.69
634.316	59.6
634.649	59.62
634.981	59.63
635.313	59.58
635.646	59.6
635.978	59.58
636.31	59.55
636.643	59.59
636.975	59.66
637.307	59.74
637.639	59.84
637.971	59.84
638.303	59.84
638.635	59.85
638.967	60.04
639.299	60.02
639.631	59.9
639.963	59.96
640.295	59.89
640.626	59.85
640.958	59.87
641.29	59.91
641.621	59.88
641.953	59.9
642.285	60
642.616	59.95
642.948	59.9
643.279	60.07
643.61	60.09
643.942	60.04
644.273	59.94
644.604	59.81
644.936	59.93
645.267	59.9
645.598	59.93
645.929	59.83
646.26	59.93
646.591	59.96
646.922	59.84
647.253	59.86
647.584	59.92
647.915	59.97
648.245	60.04
648.576	60.11
648.907	60.16
649.238	60.22
649.568	60.32
649.899	60.3
650.229	60.39
650.56	60.37
650.89	60.39
651.221	60.53
651.551	60.6
651.882	60.52
652.212	60.58
652.542	60.65
652.872	60.6
653.203	60.6
653.533	60.71
653.863	60.87
654.193	60.83
654.523	60.91
654.853	60.94
655.183	61.01
655.513	61.02
655.843	60.95
656.172	61
656.502	61
656.832	61.11
657.162	61.14
657.491	61.21
657.821	61.26
658.15	61.18
658.48	61.18
658.809	61.14
659.139	61.11
659.468	60.98
659.798	61.05
660.127	61.09
660.456	61.03
660.785	61.02
661.115	61.13
661.444	60.99
661.773	61.01
662.102	60.94
662.431	60.99
662.76	61.09
663.089	61.07
663.418	61.01
663.747	61.03
664.076	60.88
664.404	60.77
664.733	60.73
665.062	60.84
665.39	60.86
665.719	60.96
666.048	61.03
666.376	61.17
666.705	61.14
667.033	61.16
667.362	61.32
667.69	61.24
668.018	61.24
668.347	61.39
668.675	61.41
669.003	61.5
669.331	61.4
669.659	61.36
669.987	61.28
670.315	61.38
670.643	61.34
670.971	61.42
671.299	61.48
671.627	61.59
671.955	61.61
672.283	61.63
672.61	61.72
672.938	61.69
673.266	61.7
673.593	61.78
673.921	61.84
674.249	61.6
674.576	61.73
674.904	61.78
675.231	61.61
675.558	61.57
675.886	61.52
676.213	61.58
676.54	61.55
676.867	61.62
677.195	61.75
677.522	61.7
677.849	61.71
678.176	61.87
678.503	61.79
678.83	61.74
679.157	61.76
679.484	61.67
679.81	61.67
680.137	61.63
680.464	61.68
680.791	61.63
681.117	61.63
681.444	61.57
681.771	61.47
682.097	61.61
682.424	61.64
682.75	61.66
683.077	61.76
683.403	61.69
683.729	61.81
684.056	61.73
684.382	61.72
684.708	61.66
685.034	61.45
685.36	61.47
685.686	61.64
686.012	61.59
686.339	61.65
686.664	61.69
686.99	61.75
687.316	61.73
687.642	61.68
687.968	61.8
688.294	61.78
688.619	61.97
688.945	61.92
689.271	61.98
689.596	61.97
689.922	61.92
690.247	62.1
690.573	61.97
690.898	62
691.224	62.18
691.549	62.29
691.874	62.28
692.2	62.28
692.525	62.19
692.85	62.36
693.175	62.3
693.5	62.27
693.825	62.22
694.15	62.13
694.475	62.26
694.8	62.33
695.125	62.25
695.45	62.26
695.775	62.24
696.099	62.17
696.424	62.09
696.749	62.05
697.073	61.96
697.398	61.91
697.723	62.02
698.047	61.99
698.372	62.08
698.696	62.23
699.02	62.21
699.345	62.27
699.669	62.16
699.993	62.03
700.318	62.03
700.642	62.17
700.966	62.2
701.29	62.06
701.614	61.99
701.938	62.17
702.262	62.23
702.586	62.38
702.91	62.44
703.234	62.4
703.557	62.5
703.881	62.61
704.205	62.78
704.529	62.56
704.852	62.43
705.176	62.17
705.499	62.03
705.823	61.97
706.146	61.64
706.47	61.7
706.793	61.87
707.117	61.88
707.44	61.75
707.763	61.76
708.086	61.88
708.409	61.97
708.733	61.73
709.056	61.57
709.379	61.49
709.702	61.52
710.025	61.7
710.348	61.68
710.671	61.57
710.993	61.61
711.316	61.61
711.639	61.63
711.962	61.66
712.284	61.58
712.607	61.73
712.93	61.8
713.252	61.73
713.575	61.74
713.897	61.89
714.22	61.89
714.542	61.91
714.864	61.96
715.187	61.92
715.509	61.95
715.831	61.92
716.153	61.86
716.475	61.93
716.798	61.82
717.12	61.9
717.442	62.04
717.764	61.89
718.085	61.8
718.407	61.86
718.729	61.92
719.051	62.05
719.373	61.95
719.695	61.93
720.016	61.94
720.338	62.19
720.659	61.98
720.981	62.03
721.302	61.94
721.624	61.73
721.945	61.73
722.267	61.87
722.588	61.65
722.909	61.67
723.231	61.47
723.552	61.5
723.873	61.43
724.194	61.37
724.515	61.54
724.836	61.75
725.157	61.8
725.478	61.76
725.799	62
726.12	62.1
726.441	62.28
726.762	62.46
727.083	62.24
727.403	62.32
727.724	62.35
728.045	62.31
728.365	62.38
728.686	62.38
729.006	62.37
729.327	62.57
729.647	62.41
729.967	62.47
730.288	62.53
730.608	62.22
730.928	62.1
731.249	61.99
731.569	61.92
731.889	61.93
732.209	61.98
732.529	61.95
732.849	61.9
733.169	61.97
733.489	61.94
733.809	61.95
734.129	61.75
734.448	61.63
734.768	61.64
735.088	61.82
735.408	61.8
735.727	62.04
736.047	61.98
736.366	62.14
736.686	62.06
737.005	62.01
737.325	62.31
737.644	62.37
737.963	62.22
738.283	62.15
738.602	62.19
738.921	62.45
739.24	62.49
739.56	62.42
739.879	62.38
740.198	62.16
740.517	62.29
740.836	62.49
741.155	62.7
741.473	62.73
741.792	62.39
742.111	62.43
742.43	62.04
742.748	62.13
743.067	62.17
743.386	62.1
743.704	62.18
744.023	62.27
744.341	62.36
744.66	62.84
744.978	62.92
745.297	62.86
745.615	62.9
745.933	62.56
746.252	62.7
746.57	62.79
746.888	62.91
747.206	62.7
747.524	62.4
747.842	62.25
748.16	62.52
748.478	63.01
748.796	62.96
749.114	63.39
749.432	63.21
749.749	63.03
750.067	63.33
750.385	63.3
750.703	63.25
751.02	63.17
751.338	62.92
751.655	62.81
751.973	63.06
752.29	62.95
752.608	62.92
752.925	62.87
753.242	62.67
753.56	62.7
753.877	63.08
754.194	63.5
754.511	63.59
754.828	63.61
755.145	63.38
755.462	63.29
755.779	63.09
756.096	63.23
756.413	63.51
756.73	62.98
757.047	63.09
757.364	62.93
757.68	62.98
757.997	63.15
758.314	63.11
758.63	62.82
758.947	62.55
759.264	62.63
759.58	62.43
759.896	62.52
760.213	62.83
760.529	62.74
760.846	62.66
761.162	62.69
761.478	62.49
761.794	62
762.11	62.08
762.426	62.19
762.743	62.11
763.059	61.83
763.375	62.33
763.69	62.16
764.006	62.31
764.322	62.43
764.638	62.24
764.954	62.59
765.27	62.52
765.585	62.31
765.901	62.34
766.216	62.7
766.532	62.74
766.848	62.52
767.163	62.15
767.478	62.28
767.794	62.08
768.109	62.2
768.424	62.61
768.74	62.5
769.055	62.45
769.37	62.5
769.685	62.87
770	63.04
770.315	63.08
770.63	63.08
770.945	62.73
771.26	62.64
771.575	62.36
771.89	62.4
772.205	62.89
772.52	62.61
772.834	62.56
773.149	62.34
773.464	62.04
773.778	62.03
774.093	61.99
774.407	62.05
774.722	61.76
775.036	61.76
775.351	62.15
775.665	61.75
775.979	61.48
776.293	61.06
776.608	60.15
776.922	59.99
777.236	59.57
777.55	60
777.864	59.92
778.178	59.78
778.492	60.15
778.806	59.71
779.12	60.03
779.434	60.19
779.747	60.31
780.061	60.12
780.375	60.31
780.689	59.9
781.002	60.4
781.316	60.71
781.629	60.83
781.943	60.65
782.256	60.91
782.57	61.33
782.883	62.04
783.196	62.54
783.51	62.72
783.823	62.95
784.136	62.64
784.449	62.95
784.762	63.39
785.075	63.06
785.388	63.32
785.701	63.57
786.014	63
786.327	63.82
786.64	64.39
786.953	64.37
787.266	64.9
787.578	64.55
787.891	64.97
788.204	65.1
788.516	65.41
788.829	65.12
789.141	65.51
789.454	65.01
789.766	64.69
790.079	65.19
790.391	65.83
790.703	66.39
791.016	66.2
791.328	66.16
791.64	66.05
791.952	66.28
792.264	66.03
792.576	66.32
792.888	65.85
793.2	66.02
793.512	66.47
793.824	66.23
794.136	66.17
794.448	65.9
794.76	65.61
795.071	64.98
795.383	65.11
795.695	64.83
796.006	65.11
796.318	65.32
796.629	64.88
796.941	64.35
797.252	64.85
797.564	65.3
797.875	65.32
798.186	65.2
798.497	65.28
798.809	65.78
799.12	65.48
799.431	65.54
799.742	65.23
800.053	65.2
800.364	65.67
800.675	65.66
800.986	65.13
801.297	65.33
801.608	65.47
801.918	65.53
802.229	65.37
802.54	64.91
802.851	65.62
803.161	65.83
803.472	65.58
803.782	65.23
804.093	65.37
804.403	64.76
804.714	64.81
805.024	64.37
805.334	64.41
805.645	64.53
805.955	64.25
806.265	64.16
806.575	63.6
806.885	62.89
807.195	63.3
807.505	64.18
807.815	64.52
808.125	64.68
808.435	65.05
808.745	64.84
809.055	65.1
809.365	64.21
809.674	64.13
809.984	63.85
810.294	63.47
810.603	63.28
810.913	63.1
811.222	64.12
811.532	64.34
811.841	63.93
812.151	64.82
812.46	65.15
812.769	66.23
813.079	66.58
813.388	66.82
813.697	66.61
814.006	65.72
814.315	65.14
814.624	64.71
814.933	64.21
815.242	64.22
815.551	63.74
815.86	64.12
816.169	63.94
816.478	64.46
816.786	64.42
817.095	64.73
817.404	65.24
817.712	64.55
818.021	64.81
818.33	65
818.638	64.15
818.947	63.65
819.255	63.26
819.563	62.98
819.872	62.95
820.18	63.09
820.488	62.94
820.796	62.81
821.105	62.96
821.413	63.42
821.721	63.34
822.029	63.72
822.337	63.65
822.645	63.89
822.953	64.05
823.26	64.18
823.568	64.08
823.876	64.17
824.184	64.19
824.491	64.23
824.799	64.17
825.107	64.31
825.414	64.5
825.722	64.46
826.029	64.66
826.337	64.59
826.644	64.56
826.951	64.77
827.259	65.05
827.566	64.91
827.873	64.67
828.18	64.98
828.488	64.88
828.795	64.85
829.102	64.45
829.409	64.38
829.716	63.86
830.023	63.89
830.329	63.88
830.636	63.93
830.943	63.85
831.25	63.69
831.557	63.74
831.863	63.44
832.17	63.36
832.476	63.63
832.783	63.99
833.089	63.83
833.396	63.87
833.702	63.67
834.009	63.91
834.315	64.61
834.621	64.57
834.928	64.68
835.234	64.7
835.54	65.19
835.846	65.36
836.152	65.9
836.458	65.41
836.764	65.31
837.07	65.02
837.376	65.31
837.682	65.45
837.988	64.78
838.293	64.95
838.599	65.06
838.905	64.36
839.211	64.17
839.516	64.47
839.822	64.42
840.127	64.66
840.433	65.74
840.738	64
841.044	63.81
841.349	64.09
841.654	64.98
841.959	64.49
842.265	63.91
842.57	63.45
842.875	63.84
843.18	63.74
843.485	64.59
843.79	63.49
844.095	62.51
844.4	64
844.705	63.49
845.01	63.69
845.315	63.53
845.619	64.03
845.924	64.11
846.229	65.02
846.533	64.73
846.838	64.1
847.142	64.39
847.447	64.08
847.751	63.19
848.056	62.3
848.36	62.92
848.664	63.19
848.969	62.7
849.273	63.58
849.577	63.62
849.881	63.29
850.185	64.64
850.489	66.55
850.794	63.95
851.097	64.99
851.401	66.36
851.705	65.06
852.009	63.6
852.313	63.23
852.617	62.66
852.92	62.63
853.224	62.48
853.528	63.76
853.831	66
854.135	66.93
854.438	67.88
854.742	66.12
855.045	64.03
855.349	66.71
855.652	67.85
855.955	68.92
856.259	68.4
856.562	67.46
856.865	66.63
857.168	67.21
857.471	66.14
857.774	64.14
858.077	65.45
858.38	66.98
858.683	67.67
858.986	68.64
859.289	69.31
859.592	69.81
859.894	69.58
860.197	65.75
860.5	65.44
860.802	65.23
861.105	66.65
861.407	70.13
861.71	67.78
862.012	68.62
862.315	68.46
862.617	67.88
862.919	65.87
863.222	66.52
863.524	67.92
863.826	67.37
864.128	67.83
864.43	68.03
864.732	67.08
865.034	64.83
865.336	62.64
865.638	61.63
865.94	59.54
866.242	59.42
866.544	60.46
866.846	60.71
867.147	58.35
867.449	58.45
867.751	57.57
868.052	57.76
868.354	53.6
868.655	53
868.957	53.58
869.258	55.76
869.56	58
869.861	57.65
870.162	59.3
870.463	60.06
870.765	61.62
871.066	61.9
871.367	63.62
871.668	66.37
871.969	66.77
872.27	66.26
872.571	67.46
872.872	68.32
873.173	66.92
873.473	69.19
873.774	73.11
874.075	72.91
874.376	72.35
874.676	74.5
874.977	74.04
875.277	74.16
875.578	76.49
875.878	74.05
876.179	73.83
876.479	73.52
876.78	72.53
877.08	71.84
877.38	72.84
877.68	73.47
877.981	72
878.281	72.71
878.581	77.09
