Data from BA28302_Reflection_00008.txt Node
Date: Mon Nov 18 15:48:47 EST 2019
User: vgr7
Spectrometer: USB2G7710
Scans to average: 3
Trigger mode: 4
Integration Time (sec): 2.000000E-2
Electric dark correction enabled: true
Boxcar width: 10
XAxis mode: Wavelengths
Number of Pixels in Spectrum: 2048
>>>>>Begin Spectral Data<<<<<
177.721	1068.64
178.105	-364.57
178.488	-715.62
178.871	-288.67
179.254	1354.24
179.636	-202.63
180.019	459.83
180.402	40.91
180.785	-59.25
181.168	77.27
181.55	-256.69
181.933	224.26
182.316	145.38
182.698	133.35
183.081	141.33
183.463	190.78
183.846	138.69
184.228	102.3
184.611	45.53
184.993	33.22
185.376	7528.57
185.758	-474.26
186.14	755.74
186.522	5.63
186.904	-234.38
187.287	-107.38
187.669	-230.61
188.051	-178.18
188.433	-361.1
188.815	-403.34
189.197	-1687.61
189.579	10580
189.961	-4544.07
190.342	-827.76
190.724	479.53
191.106	-1602.97
191.488	-105.67
191.869	-75.72
192.251	4.24
192.633	-209.86
193.014	54.67
193.396	168.64
193.777	4720.69
194.159	-2336.36
194.54	-117.33
194.922	-115.15
195.303	-132.83
195.684	-85.01
196.065	-48.52
196.447	-52.4
196.828	-101.36
197.209	-153.77
197.59	-881.55
197.971	-1444.83
198.352	-96.27
198.733	-328.3
199.114	-147.95
199.495	-94.17
199.876	-90.52
200.257	-37.49
200.638	-49.04
201.018	-24.79
201.399	7.39
201.78	-4.28
202.16	-32.99
202.541	-110.71
202.922	-434.01
203.302	-213.97
203.683	-144.47
204.063	-217.9
204.444	-326.23
204.824	-1372.53
205.204	-294.37
205.585	-100.55
205.965	-34.98
206.345	-87.44
206.725	-146.71
207.106	1480.28
207.486	226.41
207.866	154.51
208.246	671.43
208.626	681.01
209.006	262.64
209.386	500
209.766	-588.26
210.145	-180.96
210.525	-9.22
210.905	-3.99
211.285	-18.83
211.664	-41.35
212.044	-24.11
212.424	-28.02
212.803	-14.95
213.183	7.7
213.562	1.57
213.942	9
214.321	3.76
214.701	9.89
215.08	6.41
215.459	-0.34
215.838	-1.69
216.218	1.42
216.597	2.02
216.976	0.4
217.355	-4.08
217.734	-12.19
218.113	-14.39
218.492	3.24
218.871	12.77
219.25	16.29
219.629	19.65
220.008	5.86
220.387	16.54
220.766	-4.1
221.144	-29.24
221.523	-24.22
221.902	-20.72
222.28	-23.73
222.659	-7.39
223.037	-2.37
223.416	4.44
223.794	14.17
224.173	15.77
224.551	18.55
224.929	15.55
225.308	20
225.686	23.66
226.064	22.25
226.442	18.47
226.821	14.67
227.199	11.24
227.577	13.65
227.955	14.18
228.333	13.16
228.711	15.08
229.089	19.4
229.467	18
229.845	16.65
230.222	16.87
230.6	13.6
230.978	13.94
231.356	13.31
231.733	13.03
232.111	13.32
232.488	13.43
232.866	14.23
233.243	12.86
233.621	12.38
233.998	13.38
234.376	12.26
234.753	14.81
235.13	16.01
235.508	14.75
235.885	13.76
236.262	13.48
236.639	12.9
237.016	10.68
237.393	10.7
237.77	11.21
238.147	11.17
238.524	10.87
238.901	9.93
239.278	9.5
239.655	9.13
240.032	8.57
240.409	7.56
240.785	7.45
241.162	7.51
241.539	6.95
241.915	6.73
242.292	6.32
242.668	6
243.045	6.02
243.421	6.21
243.798	6.08
244.174	6.18
244.551	6.01
244.927	5.99
245.303	6.17
245.679	5.89
246.056	5.42
246.432	5.52
246.808	5.8
247.184	5.93
247.56	5.65
247.936	5.57
248.312	5.54
248.688	5.42
249.064	5.27
249.44	5.2
249.815	5.05
250.191	5.14
250.567	5.16
250.943	4.81
251.318	4.65
251.694	4.93
252.069	4.81
252.445	4.94
252.82	5.14
253.196	4.94
253.571	4.97
253.947	5.6
254.322	5.75
254.697	5.19
255.073	4.69
255.448	4.89
255.823	5.06
256.198	5.36
256.573	5.29
256.948	5.33
257.323	5.51
257.698	5.54
258.073	5.41
258.448	5.25
258.823	5.41
259.198	5.44
259.573	5.1
259.948	5.18
260.322	5.16
260.697	5.05
261.072	5.08
261.446	5.05
261.821	4.84
262.195	4.73
262.57	4.84
262.944	4.96
263.319	5.03
263.693	4.94
264.067	4.74
264.442	4.9
264.816	4.92
265.19	4.77
265.564	4.8
265.938	4.85
266.313	4.7
266.687	4.95
267.061	4.92
267.435	5.12
267.809	5.05
268.183	4.97
268.556	4.86
268.93	4.89
269.304	4.93
269.678	5.06
270.051	5.06
270.425	5.08
270.799	4.98
271.172	4.91
271.546	4.89
271.919	4.98
272.293	4.76
272.666	4.77
273.04	4.9
273.413	4.84
273.787	4.97
274.16	5.15
274.533	4.99
274.906	4.96
275.279	4.91
275.653	4.99
276.026	5
276.399	5.23
276.772	5.25
277.145	5.37
277.518	5.34
277.891	5.43
278.263	5.36
278.636	5.46
279.009	5.29
279.382	5.31
279.755	5.27
280.127	5.37
280.5	5.41
280.872	5.44
281.245	5.49
281.617	5.49
281.99	5.63
282.362	5.56
282.735	5.28
283.107	5.27
283.479	5.23
283.852	5.29
284.224	5.15
284.596	5.06
284.968	5
285.34	5.08
285.713	4.9
286.085	4.81
286.457	4.84
286.829	4.86
287.201	5
287.572	4.91
287.944	4.9
288.316	4.94
288.688	4.78
289.06	4.79
289.431	4.7
289.803	4.65
290.175	4.76
290.546	5.16
290.918	5.12
291.289	5.06
291.661	5.17
292.032	5.27
292.403	5.36
292.775	5.45
293.146	5.45
293.517	5.68
293.889	5.85
294.26	5.82
294.631	5.95
295.002	5.88
295.373	6
295.744	6.09
296.115	6.12
296.486	6.1
296.857	6.12
297.228	6.25
297.599	6.16
297.97	6.11
298.34	6.06
298.711	6.15
299.082	6.25
299.452	6.13
299.823	6.18
300.194	6.34
300.564	6.38
300.935	6.4
301.305	6.37
301.676	6.46
302.046	6.55
302.416	6.74
302.787	6.71
303.157	6.8
303.527	6.81
303.897	6.83
304.267	7.08
304.637	7.23
305.008	7.32
305.378	7.48
305.748	7.6
306.117	7.6
306.487	7.78
306.857	7.92
307.227	8.08
307.597	8.1
307.967	7.99
308.336	7.94
308.706	8.02
309.076	8.09
309.445	8.15
309.815	8.34
310.184	8.08
310.554	8.21
310.923	8.3
311.293	8.4
311.662	8.46
312.031	8.5
312.401	8.48
312.77	8.52
313.139	8.6
313.508	8.75
313.877	8.82
314.246	8.71
314.616	8.71
314.985	8.79
315.353	8.83
315.722	8.89
316.091	8.97
316.46	9
316.829	9.02
317.198	9
317.567	8.98
317.935	9.14
318.304	9.22
318.672	9.12
319.041	9.26
319.41	9.35
319.778	9.28
320.147	9.39
320.515	9.31
320.883	9.23
321.252	9.18
321.62	9.26
321.988	9.5
322.357	9.59
322.725	9.45
323.093	9.45
323.461	9.59
323.829	9.71
324.197	9.71
324.565	9.83
324.933	10
325.301	10.05
325.669	10.24
326.037	10.3
326.405	10.34
326.772	10.32
327.14	10.39
327.508	10.52
327.875	10.49
328.243	10.55
328.61	10.74
328.978	10.89
329.346	11.1
329.713	11
330.08	11.09
330.448	11.22
330.815	11.25
331.182	11.18
331.55	11.22
331.917	11.39
332.284	11.5
332.651	11.53
333.018	11.58
333.385	11.6
333.752	11.68
334.119	11.86
334.486	11.86
334.853	11.85
335.22	12
335.587	12.16
335.954	12.23
336.32	12.22
336.687	12.14
337.054	12
337.42	12.17
337.787	12.06
338.153	12.01
338.52	12.16
338.886	12.09
339.253	11.99
339.619	11.94
339.986	11.87
340.352	11.92
340.718	11.97
341.084	11.96
341.451	11.99
341.817	11.96
342.183	11.94
342.549	11.9
342.915	11.93
343.281	11.89
343.647	11.91
344.013	12.01
344.379	11.97
344.745	12.02
345.11	12.01
345.476	12.15
345.842	12.29
346.208	12.33
346.573	12.55
346.939	12.65
347.304	12.7
347.67	12.73
348.035	12.6
348.401	12.62
348.766	12.66
349.132	12.63
349.497	12.66
349.862	12.78
350.228	12.8
350.593	12.71
350.958	12.78
351.323	12.86
351.688	12.89
352.053	13.01
352.418	13.05
352.783	13
353.148	12.97
353.513	13.03
353.878	13.03
354.243	13.1
354.608	13.09
354.972	13.15
355.337	13.2
355.702	13.32
356.066	13.42
356.431	13.41
356.795	13.4
357.16	13.42
357.524	13.33
357.889	13.41
358.253	13.49
358.618	13.48
358.982	13.48
359.346	13.35
359.71	13.28
360.075	13.26
360.439	13.29
360.803	13.29
361.167	13.19
361.531	13.2
361.895	13.07
362.259	13.05
362.623	13.02
362.987	12.97
363.351	12.89
363.714	12.72
364.078	12.68
364.442	12.66
364.806	12.67
365.169	12.66
365.533	12.61
365.896	12.49
366.26	12.42
366.623	12.29
366.987	12.3
367.35	12.38
367.714	12.32
368.077	12.26
368.44	12.25
368.803	12.26
369.167	12.16
369.53	12.13
369.893	12.17
370.256	12.13
370.619	12.06
370.982	12.01
371.345	11.98
371.708	11.98
372.071	11.93
372.434	11.84
372.797	11.86
373.159	11.76
373.522	11.77
373.885	11.76
374.247	11.79
374.61	11.72
374.973	11.59
375.335	11.58
375.698	11.53
376.06	11.47
376.423	11.43
376.785	11.38
377.147	11.35
377.51	11.23
377.872	11.17
378.234	11.17
378.596	11.17
378.958	11.14
379.321	11.04
379.683	11.04
380.045	10.99
380.407	10.9
380.769	10.86
381.13	10.84
381.492	10.77
381.854	10.71
382.216	10.69
382.578	10.59
382.939	10.51
383.301	10.43
383.663	10.36
384.024	10.28
384.386	10.28
384.747	10.29
385.109	10.25
385.47	10.17
385.832	10.12
386.193	10.05
386.554	10.03
386.916	10.02
387.277	9.98
387.638	9.95
387.999	9.9
388.36	9.84
388.721	9.76
389.082	9.75
389.443	9.71
389.804	9.65
390.165	9.65
390.526	9.61
390.887	9.55
391.248	9.49
391.609	9.43
391.969	9.37
392.33	9.27
392.691	9.22
393.051	9.19
393.412	9.16
393.772	9.06
394.133	9
394.493	8.94
394.854	8.87
395.214	8.82
395.574	8.79
395.935	8.74
396.295	8.68
396.655	8.59
397.015	8.49
397.376	8.45
397.736	8.38
398.096	8.34
398.456	8.31
398.816	8.3
399.176	8.22
399.535	8.15
399.895	8.07
400.255	8.04
400.615	7.99
400.975	7.96
401.334	7.97
401.694	7.93
402.054	7.88
402.413	7.84
402.773	7.79
403.132	7.71
403.492	7.69
403.851	7.65
404.211	7.63
404.57	7.62
404.929	7.61
405.288	7.53
405.648	7.5
406.007	7.47
406.366	7.43
406.725	7.45
407.084	7.42
407.443	7.42
407.802	7.35
408.161	7.31
408.52	7.23
408.879	7.19
409.238	7.12
409.596	7.1
409.955	7.04
410.314	7.01
410.673	6.96
411.031	6.94
411.39	6.89
411.748	6.87
412.107	6.85
412.465	6.81
412.824	6.8
413.182	6.74
413.54	6.72
413.899	6.68
414.257	6.67
414.615	6.66
414.974	6.64
415.332	6.65
415.69	6.64
416.048	6.62
416.406	6.61
416.764	6.6
417.122	6.59
417.48	6.56
417.838	6.55
418.195	6.52
418.553	6.5
418.911	6.47
419.269	6.45
419.626	6.43
419.984	6.39
420.342	6.36
420.699	6.33
421.057	6.3
421.414	6.26
421.772	6.22
422.129	6.21
422.486	6.17
422.844	6.15
423.201	6.12
423.558	6.09
423.915	6.06
424.273	6.04
424.63	5.98
424.987	5.97
425.344	5.94
425.701	5.93
426.058	5.89
426.415	5.86
426.772	5.84
427.128	5.8
427.485	5.79
427.842	5.78
428.199	5.79
428.555	5.76
428.912	5.79
429.269	5.78
429.625	5.73
429.982	5.7
430.338	5.68
430.695	5.68
431.051	5.67
431.407	5.66
431.764	5.64
432.12	5.65
432.476	5.63
432.832	5.62
433.189	5.61
433.545	5.6
433.901	5.61
434.257	5.56
434.613	5.57
434.969	5.57
435.325	5.58
435.681	5.59
436.036	5.6
436.392	5.57
436.748	5.56
437.104	5.55
437.459	5.56
437.815	5.57
438.171	5.56
438.526	5.57
438.882	5.58
439.237	5.6
439.593	5.59
439.948	5.6
440.304	5.6
440.659	5.6
441.014	5.61
441.369	5.61
441.725	5.63
442.08	5.62
442.435	5.61
442.79	5.58
443.145	5.57
443.5	5.56
443.855	5.55
444.21	5.55
444.565	5.55
444.92	5.54
445.275	5.5
445.629	5.49
445.984	5.46
446.339	5.43
446.693	5.4
447.048	5.38
447.403	5.37
447.757	5.36
448.112	5.35
448.466	5.33
448.82	5.32
449.175	5.31
449.529	5.3
449.883	5.29
450.238	5.29
450.592	5.26
450.946	5.24
451.3	5.21
451.654	5.19
452.008	5.2
452.362	5.18
452.716	5.18
453.07	5.19
453.424	5.2
453.778	5.21
454.132	5.2
454.486	5.18
454.839	5.16
455.193	5.13
455.547	5.14
455.9	5.14
456.254	5.13
456.607	5.11
456.961	5.1
457.314	5.1
457.668	5.09
458.021	5.08
458.375	5.08
458.728	5.1
459.081	5.1
459.434	5.08
459.787	5.1
460.141	5.11
460.494	5.09
460.847	5.09
461.2	5.06
461.553	5.08
461.906	5.11
462.259	5.11
462.611	5.16
462.964	5.16
463.317	5.16
463.67	5.19
464.022	5.22
464.375	5.23
464.728	5.26
465.08	5.27
465.433	5.29
465.785	5.3
466.138	5.31
466.49	5.31
466.843	5.32
467.195	5.33
467.547	5.36
467.899	5.38
468.252	5.39
468.604	5.42
468.956	5.42
469.308	5.45
469.66	5.47
470.012	5.47
470.364	5.47
470.716	5.45
471.068	5.46
471.42	5.46
471.772	5.48
472.123	5.48
472.475	5.5
472.827	5.52
473.178	5.54
473.53	5.54
473.882	5.56
474.233	5.59
474.585	5.58
474.936	5.57
475.288	5.59
475.639	5.6
475.99	5.6
476.342	5.61
476.693	5.59
477.044	5.6
477.395	5.6
477.746	5.61
478.097	5.64
478.448	5.62
478.8	5.63
479.15	5.61
479.501	5.58
479.852	5.59
480.203	5.59
480.554	5.59
480.905	5.61
481.255	5.61
481.606	5.6
481.957	5.61
482.307	5.59
482.658	5.58
483.009	5.58
483.359	5.57
483.709	5.57
484.06	5.57
484.41	5.57
484.761	5.57
485.111	5.57
485.461	5.56
485.811	5.56
486.162	5.55
486.512	5.55
486.862	5.56
487.212	5.55
487.562	5.55
487.912	5.55
488.262	5.54
488.612	5.54
488.961	5.54
489.311	5.53
489.661	5.54
490.011	5.55
490.36	5.54
490.71	5.56
491.06	5.56
491.409	5.56
491.759	5.57
492.108	5.57
492.458	5.59
492.807	5.6
493.157	5.62
493.506	5.64
493.855	5.67
494.204	5.68
494.554	5.69
494.903	5.7
495.252	5.71
495.601	5.76
495.95	5.77
496.299	5.81
496.648	5.83
496.997	5.89
497.346	5.94
497.695	5.99
498.043	6.02
498.392	6.06
498.741	6.12
499.09	6.15
499.438	6.2
499.787	6.24
500.135	6.28
500.484	6.32
500.832	6.38
501.181	6.42
501.529	6.48
501.878	6.55
502.226	6.63
502.574	6.67
502.923	6.73
503.271	6.81
503.619	6.9
503.967	6.99
504.315	7.02
504.663	7.07
505.011	7.13
505.359	7.21
505.707	7.3
506.055	7.35
506.403	7.43
506.751	7.52
507.098	7.6
507.446	7.69
507.794	7.75
508.141	7.81
508.489	7.89
508.837	7.95
509.184	8.03
509.531	8.1
509.879	8.2
510.226	8.28
510.574	8.34
510.921	8.4
511.268	8.46
511.616	8.54
511.963	8.62
512.31	8.69
512.657	8.76
513.004	8.84
513.351	8.95
513.698	9.03
514.045	9.11
514.392	9.21
514.739	9.29
515.086	9.38
515.432	9.46
515.779	9.57
516.126	9.68
516.473	9.77
516.819	9.86
517.166	9.94
517.512	10.01
517.859	10.12
518.205	10.2
518.552	10.29
518.898	10.4
519.245	10.46
519.591	10.56
519.937	10.64
520.283	10.72
520.629	10.82
520.976	10.89
521.322	10.96
521.668	11.06
522.014	11.17
522.36	11.3
522.706	11.43
523.052	11.53
523.398	11.67
523.743	11.82
524.089	11.99
524.435	12.12
524.781	12.25
525.126	12.37
525.472	12.47
525.817	12.56
526.163	12.65
526.509	12.76
526.854	12.84
527.199	12.92
527.545	13.02
527.89	13.09
528.235	13.19
528.581	13.29
528.926	13.38
529.271	13.48
529.616	13.57
529.961	13.67
530.306	13.76
530.651	13.86
530.996	13.97
531.341	14.05
531.686	14.17
532.031	14.32
532.376	14.43
532.721	14.59
533.065	14.72
533.41	14.88
533.755	15.05
534.099	15.22
534.444	15.38
534.788	15.52
535.133	15.68
535.477	15.85
535.822	16.04
536.166	16.23
536.51	16.44
536.855	16.64
537.199	16.89
537.543	17.15
537.887	17.4
538.231	17.65
538.576	17.91
538.92	18.17
539.264	18.38
539.608	18.62
539.951	18.83
540.295	19.07
540.639	19.27
540.983	19.46
541.327	19.64
541.671	19.85
542.014	20.07
542.358	20.27
542.701	20.47
543.045	20.67
543.389	20.86
543.732	21.05
544.075	21.31
544.419	21.53
544.762	21.76
545.105	21.98
545.449	22.21
545.792	22.5
546.135	22.74
546.478	23.02
546.821	23.32
547.165	23.62
547.508	23.92
547.851	24.23
548.194	24.55
548.536	24.91
548.879	25.3
549.222	25.62
549.565	25.98
549.908	26.38
550.25	26.79
550.593	27.17
550.936	27.58
551.278	27.93
551.621	28.26
551.963	28.65
552.306	29.08
552.648	29.5
552.991	29.83
553.333	30.23
553.675	30.58
554.017	30.97
554.36	31.31
554.702	31.71
555.044	32.12
555.386	32.51
555.728	32.88
556.07	33.19
556.412	33.59
556.754	33.96
557.096	34.31
557.438	34.71
557.78	35.16
558.121	35.57
558.463	35.95
558.805	36.4
559.147	36.78
559.488	37.08
559.83	37.44
560.171	37.79
560.513	38.13
560.854	38.58
561.196	38.91
561.537	39.29
561.878	39.62
562.22	39.95
562.561	40.28
562.902	40.67
563.243	40.98
563.584	41.37
563.925	41.66
564.266	42.02
564.607	42.28
564.948	42.54
565.289	42.79
565.63	43.11
565.971	43.35
566.312	43.63
566.653	43.96
566.993	44.23
567.334	44.54
567.675	44.89
568.015	45.11
568.356	45.41
568.696	45.66
569.037	45.95
569.377	46.18
569.718	46.46
570.058	46.74
570.398	47.03
570.739	47.23
571.079	47.54
571.419	47.77
571.759	48.05
572.099	48.25
572.439	48.49
572.779	48.69
573.119	48.95
573.459	49.15
573.799	49.36
574.139	49.6
574.479	49.77
574.819	49.92
575.158	50.1
575.498	50.3
575.838	50.51
576.177	50.67
576.517	50.92
576.856	51.09
577.196	51.19
577.535	51.4
577.875	51.62
578.214	51.81
578.553	52.04
578.893	52.18
579.232	52.45
579.571	52.68
579.91	52.86
580.25	52.98
580.589	53.26
580.928	53.45
581.267	53.56
581.606	53.81
581.945	54.05
582.283	54.21
582.622	54.33
582.961	54.47
583.3	54.65
583.639	54.87
583.977	55.08
584.316	55.31
584.654	55.55
584.993	55.71
585.332	55.89
585.67	55.97
586.008	56.16
586.347	56.27
586.685	56.47
587.024	56.59
587.362	56.76
587.7	56.86
588.038	56.94
588.376	57.07
588.715	57.21
589.053	57.29
589.391	57.45
589.729	57.62
590.067	57.76
590.404	57.81
590.742	57.81
591.08	57.92
591.418	58.05
591.756	57.98
592.093	58.02
592.431	58.13
592.769	58.23
593.106	58.31
593.444	58.45
593.781	58.47
594.119	58.58
594.456	58.67
594.793	58.72
595.131	58.8
595.468	58.89
595.805	58.93
596.143	58.97
596.48	59.07
596.817	59.16
597.154	59.27
597.491	59.39
597.828	59.5
598.165	59.49
598.502	59.6
598.839	59.73
599.176	59.83
599.512	59.87
599.849	59.96
600.186	60.07
600.523	60.09
600.859	60.21
601.196	60.34
601.532	60.54
601.869	60.57
602.205	60.73
602.542	60.77
602.878	60.89
603.215	61
603.551	60.99
603.887	61.03
604.223	61.08
604.56	61.11
604.896	61.17
605.232	61.28
605.568	61.27
605.904	61.35
606.24	61.45
606.576	61.55
606.912	61.58
607.248	61.66
607.583	61.72
607.919	61.73
608.255	61.73
608.591	61.67
608.926	61.7
609.262	61.74
609.597	61.84
609.933	61.84
610.268	61.89
610.604	62
610.939	62.02
611.275	62.09
611.61	62.1
611.945	62.14
612.281	62.2
612.616	62.28
612.951	62.29
613.286	62.48
613.621	62.55
613.956	62.63
614.291	62.67
614.626	62.78
614.961	62.87
615.296	62.93
615.631	62.95
615.966	63.07
616.3	63.03
616.635	63.08
616.97	63.16
617.304	63.23
617.639	63.19
617.973	63.29
618.308	63.33
618.642	63.39
618.977	63.38
619.311	63.41
619.646	63.42
619.98	63.46
620.314	63.37
620.648	63.34
620.983	63.41
621.317	63.41
621.651	63.42
621.985	63.44
622.319	63.56
622.653	63.56
622.987	63.58
623.321	63.58
623.655	63.66
623.988	63.59
624.322	63.55
624.656	63.68
624.99	63.73
625.323	63.8
625.657	63.87
625.99	63.93
626.324	63.94
626.657	63.9
626.991	63.98
627.324	63.96
627.658	63.91
627.991	63.96
628.324	63.93
628.657	63.93
628.991	64
629.324	63.96
629.657	64.1
629.99	64.06
630.323	64.11
630.656	64.06
630.989	64.16
631.322	64.16
631.655	64.04
631.987	63.95
632.32	63.84
632.653	63.89
632.986	63.88
633.318	63.88
633.651	63.98
633.984	63.99
634.316	64.02
634.649	64.12
634.981	64.03
635.313	64.01
635.646	64.03
635.978	63.91
636.31	63.91
636.643	63.95
636.975	64.05
637.307	64.17
637.639	64.17
637.971	64.22
638.303	64.26
638.635	64.45
638.967	64.6
639.299	64.72
639.631	64.66
639.963	64.73
640.295	64.72
640.626	64.77
640.958	64.82
641.29	64.87
641.621	64.88
641.953	64.98
642.285	65.13
642.616	65.24
642.948	65.31
643.279	65.43
643.61	65.34
643.942	65.32
644.273	65.27
644.604	65.28
644.936	65.3
645.267	65.31
645.598	65.23
645.929	65.13
646.26	65.17
646.591	65.24
646.922	65.19
647.253	65.22
647.584	65.23
647.915	65.35
648.245	65.32
648.576	65.4
648.907	65.38
649.238	65.37
649.568	65.28
649.899	65.29
650.229	65.19
650.56	65.27
650.89	65.31
651.221	65.31
651.551	65.37
651.882	65.36
652.212	65.42
652.542	65.48
652.872	65.52
653.203	65.37
653.533	65.4
653.863	65.42
654.193	65.45
654.523	65.53
654.853	65.46
655.183	65.51
655.513	65.49
655.843	65.39
656.172	65.38
656.502	65.46
656.832	65.51
657.162	65.57
657.491	65.61
657.821	65.65
658.15	65.53
658.48	65.62
658.809	65.72
659.139	65.8
659.468	65.8
659.798	65.87
660.127	66.03
660.456	66.01
660.785	66
661.115	66.02
661.444	65.88
661.773	65.92
662.102	65.95
662.431	65.92
662.76	66.02
663.089	66.03
663.418	66.06
663.747	66.06
664.076	66.11
664.404	66.02
664.733	66.05
665.062	66.39
665.39	66.29
665.719	66.16
666.048	66.14
666.376	66.16
666.705	66.05
667.033	66.08
667.362	66.14
667.69	66.27
668.018	66.3
668.347	66.41
668.675	66.32
669.003	66.32
669.331	66.35
669.659	66.42
669.987	66.35
670.315	66.17
670.643	66.25
670.971	66.17
671.299	66.17
671.627	66.08
671.955	65.89
672.283	66.02
672.61	66.07
672.938	65.96
673.266	66.05
673.593	66.21
673.921	66.12
674.249	66.08
674.576	66.12
674.904	66.1
675.231	66.13
675.558	66.15
675.886	66.11
676.213	66.17
676.54	66.15
676.867	66.15
677.195	66.25
677.522	66.31
677.849	66.34
678.176	66.32
678.503	66.28
678.83	66.24
679.157	66.16
679.484	66.18
679.81	66.19
680.137	66.11
680.464	66.02
680.791	66.14
681.117	66.12
681.444	66.01
681.771	66.12
682.097	66.13
682.424	66.02
682.75	66.04
683.077	65.98
683.403	65.86
683.729	66.05
684.056	66.1
684.382	66.1
684.708	66.2
685.034	66.32
685.36	66.53
685.686	66.73
686.012	66.69
686.339	66.82
686.664	66.88
686.99	66.94
687.316	66.91
687.642	66.75
687.968	66.78
688.294	66.84
688.619	66.72
688.945	66.62
689.271	66.81
689.596	66.69
689.922	66.88
690.247	67.17
690.573	67.19
690.898	67.11
691.224	67.07
691.549	67
691.874	67
692.2	66.95
692.525	66.64
692.85	66.64
693.175	66.37
693.5	66.49
693.825	66.51
694.15	66.75
694.475	66.76
694.8	66.77
695.125	66.69
695.45	66.78
695.775	66.7
696.099	66.61
696.424	66.8
696.749	66.74
697.073	66.61
697.398	66.55
697.723	66.77
698.047	66.81
698.372	66.82
698.696	66.74
699.02	66.79
699.345	66.93
699.669	67
699.993	67.05
700.318	67
700.642	66.81
700.966	66.85
701.29	66.93
701.614	67.05
701.938	67.14
702.262	67.11
702.586	67.21
702.91	67.32
703.234	67.42
703.557	67.45
703.881	67.39
704.205	67.33
704.529	67.13
704.852	67.11
705.176	67.11
705.499	67.13
705.823	67.06
706.146	67.3
706.47	67.28
706.793	67.37
707.117	67.22
707.44	67.39
707.763	67.26
708.086	67.14
708.409	67.1
708.733	67.1
709.056	67.07
709.379	67.06
709.702	67
710.025	66.81
710.348	66.7
710.671	66.78
710.993	66.84
711.316	66.86
711.639	66.8
711.962	67
712.284	66.9
712.607	66.69
712.93	66.67
713.252	66.69
713.575	66.78
713.897	66.8
714.22	66.92
714.542	66.76
714.864	66.93
715.187	66.82
715.509	66.87
715.831	66.99
716.153	66.91
716.475	66.87
716.798	66.89
717.12	66.75
717.442	66.87
717.764	66.95
718.085	67.06
718.407	67.11
718.729	66.87
719.051	66.99
719.373	67.26
719.695	67.03
720.016	67.01
720.338	66.83
720.659	66.92
720.981	67.08
721.302	67.03
721.624	66.97
721.945	66.97
722.267	66.95
722.588	66.75
722.909	66.93
723.231	67.02
723.552	67.01
723.873	67.22
724.194	66.96
724.515	66.71
724.836	66.58
725.157	66.56
725.478	66.42
725.799	66.63
726.12	66.66
726.441	66.82
726.762	66.84
727.083	67.04
727.403	66.95
727.724	66.83
728.045	66.89
728.365	66.82
728.686	66.92
729.006	66.99
729.327	67.15
729.647	67.19
729.967	67.13
730.288	67.42
730.608	67.47
730.928	67.76
731.249	68.08
731.569	68.27
731.889	68.31
732.209	68.24
732.529	67.99
732.849	67.83
733.169	68.1
733.489	68.25
733.809	68.32
734.129	68.4
734.448	68.32
734.768	68.45
735.088	68.38
735.408	68.31
735.727	68.32
736.047	68.37
736.366	68.45
736.686	68.49
737.005	68.13
737.325	68.17
737.644	68.01
737.963	67.73
738.283	67.53
738.602	67.59
738.921	67.91
739.24	68.15
739.56	68.36
739.879	67.91
740.198	67.86
740.517	67.65
740.836	67.63
741.155	67.52
741.473	67.6
741.792	67.69
742.111	67.92
742.43	67.82
742.748	67.71
743.067	67.62
743.386	67.61
743.704	67.55
744.023	67.62
744.341	67.63
744.66	67.57
744.978	67.59
745.297	67.29
745.615	67.3
745.933	67.02
746.252	67.12
746.57	67.26
746.888	67.12
747.206	67.42
747.524	67.72
747.842	68.02
748.16	68.37
748.478	68.84
748.796	68.63
749.114	68.8
749.432	68.68
749.749	68.56
750.067	68.45
750.385	68.64
750.703	68.31
751.02	68.27
751.338	68.62
751.655	68.66
751.973	68.69
752.29	68.65
752.608	68.87
752.925	68.96
753.242	68.79
753.56	68.89
753.877	68.82
754.194	68.6
754.511	68.46
754.828	67.94
755.145	67.33
755.462	67.34
755.779	67.32
756.096	67.44
756.413	67.68
756.73	67.82
757.047	67.72
757.364	67.66
757.68	67.72
757.997	67.54
758.314	67.67
758.63	68.18
758.947	68.45
759.264	68.4
759.58	67.92
759.896	67.98
760.213	67.79
760.529	67.67
760.846	67.64
761.162	67.75
761.478	67.78
761.794	68.1
762.11	68
762.426	67.55
762.743	67.39
763.059	67.54
763.375	67.84
763.69	68.04
764.006	68.2
764.322	68.27
764.638	68.28
764.954	68.35
765.27	67.99
765.585	67.72
765.901	67.79
766.216	67.88
766.532	67.83
766.848	67.93
767.163	67.87
767.478	68
767.794	67.78
768.109	67.84
768.424	67.8
768.74	68.05
769.055	68.74
769.37	68.96
769.685	68.42
770	67.92
770.315	67.95
770.63	67.86
770.945	67.64
771.26	68.28
771.575	67.92
771.89	68.22
772.205	68.59
772.52	68.62
772.834	68.84
773.149	69.27
773.464	69.56
773.778	69.73
774.093	69.8
774.407	69.86
774.722	69.57
775.036	69.43
775.351	69.3
775.665	68.77
775.979	68.97
776.293	69.39
776.608	69.94
776.922	69.72
777.236	69.62
777.55	69.43
777.864	68.7
778.178	68.82
778.492	68.77
778.806	68.41
779.12	68.27
779.434	68.49
779.747	68.17
780.061	67.84
780.375	67.47
780.689	67.6
781.002	67.44
781.316	67.42
781.629	67.37
781.943	67.68
782.256	67.7
782.57	67.25
782.883	66.92
783.196	66.57
783.51	66.53
783.823	66.8
784.136	67.11
784.449	67.34
784.762	67.26
785.075	67.19
785.388	67.19
785.701	67.1
786.014	67.05
786.327	66.76
786.64	66.99
786.953	67.61
787.266	67.52
787.578	68.02
787.891	68.2
788.204	68.03
788.516	68.42
788.829	69.11
789.141	69.27
789.454	69.41
789.766	69.4
790.079	69.52
790.391	69.72
790.703	69.86
791.016	70.21
791.328	70.89
791.64	71.03
791.952	71.66
792.264	71.2
792.576	71.12
792.888	71.43
793.2	72.02
793.512	71.79
793.824	71.44
794.136	71.05
794.448	71.17
794.76	71.33
795.071	70.55
795.383	70.36
795.695	70.64
796.006	70.78
796.318	71.06
796.629	70.74
796.941	70.28
797.252	69.89
797.564	69.6
797.875	69.2
798.186	68.77
798.497	68.65
798.809	69.51
799.12	69.24
799.431	69.3
799.742	68.26
800.053	68.02
800.364	68.29
800.675	68.69
800.986	69.06
801.297	69.31
801.608	69.26
801.918	68.32
802.229	68.28
802.54	68.65
802.851	69.09
803.161	69.59
803.472	70.45
803.782	71.06
804.093	70.81
804.403	70.55
804.714	71.14
805.024	70.44
805.334	69.95
805.645	70.5
805.955	70.86
806.265	71.54
806.575	71.93
806.885	71.83
807.195	71.64
807.505	71.13
807.815	71.38
808.125	71.49
808.435	72.51
808.745	72.51
809.055	72.11
809.365	71.38
809.674	70.98
809.984	70.18
810.294	70.42
810.603	70.55
810.913	71.07
811.222	71.55
811.532	71.78
811.841	72.22
812.151	72.32
812.46	71.53
812.769	71.07
813.079	71.67
813.388	72.59
813.697	72.56
814.006	72.39
814.315	72.77
814.624	72.96
814.933	72.98
815.242	72.89
815.551	73.13
815.86	73.14
816.169	73.28
816.478	73.44
816.786	73.13
817.095	72.64
817.404	71.19
817.712	70.21
818.021	70.53
818.33	70.53
818.638	69.28
818.947	69.95
819.255	70.1
819.563	68.86
819.872	68.88
820.18	69.03
820.488	68.86
820.796	68.7
821.105	68.61
821.413	68.48
821.721	68.22
822.029	68.06
822.337	68.09
822.645	68.28
822.953	68.32
823.26	68.36
823.568	68.35
823.876	68.57
824.184	68.55
824.491	68.42
824.799	68.39
825.107	68.65
825.414	68.43
825.722	68.35
826.029	68.57
826.337	68.45
826.644	68.11
826.951	68.27
827.259	67.9
827.566	68.16
827.873	68.46
828.18	68.8
828.488	69.12
828.795	69.01
829.102	68.61
829.409	68.41
829.716	68.05
830.023	68.09
830.329	68.04
830.636	68.35
830.943	68.51
831.25	68.23
831.557	68.67
831.863	69.33
832.17	69.57
832.476	69.79
832.783	69.75
833.089	70.06
833.396	70.39
833.702	71.14
834.009	70.58
834.315	70.42
834.621	69.97
834.928	68.93
835.234	69.41
835.54	70.17
835.846	70.86
836.152	70.91
836.458	71.05
836.764	71.47
837.07	71.34
837.376	71.32
837.682	71.59
837.988	70.44
838.293	70.11
838.599	69.49
838.905	69.49
839.211	69.43
839.516	68.99
839.822	68.57
840.127	68.06
840.433	68.43
840.738	67.47
841.044	68.2
841.349	69.92
841.654	69.49
841.959	67.85
842.265	67.34
842.57	68.18
842.875	68.71
843.18	67.86
843.485	67.11
843.79	66.38
844.095	66.05
844.4	67.93
844.705	67.51
845.01	67.5
845.315	67.21
845.619	67.28
845.924	67.8
846.229	68.43
846.533	69.32
846.838	68.6
847.142	68.67
847.447	68.71
847.751	67.7
848.056	66.64
848.36	67.27
848.664	67.48
848.969	66.1
849.273	64.06
849.577	64.21
849.881	64.77
850.185	67.38
850.489	69.4
850.794	67.99
851.097	67.08
851.401	67.59
851.705	68.4
852.009	67.29
852.313	68.48
852.617	65.91
852.92	65.92
853.224	66.89
853.528	67.03
853.831	66.25
854.135	65.48
854.438	66.39
854.742	64.76
855.045	64.34
855.349	64.09
855.652	65.24
855.955	64.27
856.259	63.8
856.562	62.26
856.865	61.13
857.168	60.55
857.471	60.26
857.774	62.13
858.077	61.06
858.38	61.97
858.683	62.16
858.986	65.23
859.289	62.06
859.592	60.87
859.894	61.23
860.197	61.88
860.5	63.96
860.802	64.73
861.105	68.91
861.407	68.48
861.71	70.18
862.012	72.1
862.315	71.85
862.617	72.25
862.919	72.31
863.222	72.09
863.524	73.92
863.826	76.69
864.128	75.14
864.43	73.53
864.732	75.83
865.034	74.99
865.336	72.68
865.638	77.47
865.94	79.61
866.242	81.95
866.544	81.65
866.846	80.15
867.147	77.53
867.449	75.86
867.751	75.66
868.052	75.91
868.354	75.51
868.655	76.6
868.957	76.84
869.258	75.86
869.56	73.37
869.861	73.04
870.162	70.71
870.463	70.72
870.765	73.61
871.066	70.98
871.367	71.65
871.668	72.01
871.969	70.11
872.27	67.34
872.571	65.55
872.872	64.46
873.173	65.89
873.473	67.93
873.774	68
874.075	69.07
874.376	70.42
874.676	70.54
874.977	72.14
875.277	73.14
875.578	71.29
875.878	74.37
876.179	73.5
876.479	74.82
876.78	75.39
877.08	74.88
877.38	75.11
877.68	75.79
877.981	76.83
878.281	77.2
878.581	79.55
