Data from BA28467_Reflection_00002.txt Node
Date: Mon Nov 18 15:32:55 EST 2019
User: vgr7
Spectrometer: USB2G7710
Scans to average: 3
Trigger mode: 4
Integration Time (sec): 2.000000E-2
Electric dark correction enabled: true
Boxcar width: 10
XAxis mode: Wavelengths
Number of Pixels in Spectrum: 2048
>>>>>Begin Spectral Data<<<<<
177.721	11.78
178.105	-62.44
178.488	-17.16
178.871	123.31
179.254	34.67
179.636	48.62
180.019	1226.58
180.402	173.33
180.785	1270.21
181.168	600
181.55	112.99
181.933	217.56
182.316	206.15
182.698	150.82
183.081	139.33
183.463	339.01
183.846	620.44
184.228	760.9
184.611	963.83
184.993	744.79
185.376	-1085.02
185.758	-925.1
186.14	-615.71
186.522	-244.79
186.904	-205.11
187.287	-1907.63
187.669	-463.85
188.051	989.21
188.433	-545.87
188.815	-270.77
189.197	-414.99
189.579	-314.63
189.961	-276.62
190.342	-177.11
190.724	-83.21
191.106	-111.87
191.488	-116.16
191.869	-83.13
192.251	-109.79
192.633	-137.69
193.014	-124.31
193.396	-169.39
193.777	-201.65
194.159	-217.54
194.54	-182.98
194.922	-126.09
195.303	-139.15
195.684	-88.32
196.065	-5.29
196.447	20.37
196.828	103.56
197.209	-29.12
197.59	-36.89
197.971	91.3
198.352	-6.38
198.733	64.13
199.114	-23.84
199.495	-96.94
199.876	-49.3
200.257	366.93
200.638	69.43
201.018	-9.6
201.399	19.03
201.78	30.75
202.16	25.83
202.541	-14.54
202.922	-101.54
203.302	-137.1
203.683	-144.37
204.063	-456.09
204.444	-398.93
204.824	-190.56
205.204	-317.48
205.585	-138.69
205.965	-79.95
206.345	-147.08
206.725	-177.22
207.106	-343.76
207.486	-460.38
207.866	-362.49
208.246	-1390.27
208.626	1542.21
209.006	773.24
209.386	259.85
209.766	414.35
210.145	4264.56
210.525	-1994.89
210.905	-373.32
211.285	-107.55
211.664	-146.32
212.044	-89.1
212.424	-46.8
212.803	-89.89
213.183	-84.62
213.562	-93.16
213.942	-76.81
214.321	-60.96
214.701	-69.98
215.08	-80.39
215.459	-62.89
215.838	-46.81
216.218	-26.87
216.597	-15.45
216.976	-18.25
217.355	-17.78
217.734	-14.6
218.113	-15.32
218.492	-31.97
218.871	-36.66
219.25	-46.58
219.629	-51.41
220.008	-70.19
220.387	-85.91
220.766	-72.09
221.144	-68.23
221.523	-70.24
221.902	-70.05
222.28	-103.35
222.659	-71.28
223.037	-41.82
223.416	-61.38
223.794	-68.64
224.173	-62.2
224.551	-48.68
224.929	-35.91
225.308	-18.79
225.686	-15.49
226.064	-15.6
226.442	-11.88
226.821	-11.45
227.199	-14.24
227.577	-12.18
227.955	-8.93
228.333	-7.53
228.711	-2.89
229.089	-0.75
229.467	-3.23
229.845	-5.2
230.222	-3.3
230.6	-4.17
230.978	-2.81
231.356	-0.3
231.733	0.04
232.111	0.88
232.488	0.5
232.866	0.64
233.243	1.75
233.621	0.21
233.998	3.09
234.376	2.81
234.753	5.47
235.13	6.9
235.508	7.7
235.885	6.63
236.262	5.72
236.639	4.61
237.016	5.5
237.393	6.75
237.77	5.94
238.147	6.1
238.524	6.4
238.901	6.11
239.278	6.36
239.655	6.45
240.032	6.25
240.409	5.57
240.785	5.49
241.162	5.04
241.539	5.49
241.915	5.35
242.292	4.86
242.668	4.19
243.045	4.59
243.421	4.18
243.798	4.05
244.174	4.23
244.551	4.43
244.927	4.12
245.303	4.23
245.679	4.38
246.056	4.29
246.432	4.41
246.808	4.36
247.184	3.87
247.56	3.61
247.936	3.48
248.312	3.56
248.688	3.53
249.064	3.6
249.44	3.63
249.815	3.45
250.191	3.59
250.567	3.79
250.943	3.41
251.318	3.52
251.694	3.79
252.069	3.52
252.445	3.47
252.82	3.67
253.196	3.86
253.571	3.65
253.947	3.6
254.322	3.59
254.697	3.29
255.073	3.53
255.448	3.54
255.823	3.2
256.198	3.33
256.573	3.31
256.948	3.42
257.323	3.43
257.698	3.42
258.073	3.39
258.448	3.29
258.823	3.46
259.198	3.39
259.573	3.25
259.948	3.34
260.322	3.27
260.697	3.22
261.072	3.08
261.446	3.14
261.821	3.17
262.195	3.11
262.57	3.22
262.944	3.12
263.319	3.22
263.693	3.18
264.067	3.24
264.442	3.42
264.816	3.36
265.19	3.34
265.564	3.44
265.938	3.39
266.313	3.41
266.687	3.47
267.061	3.6
267.435	3.68
267.809	3.75
268.183	3.7
268.556	3.63
268.93	3.69
269.304	3.79
269.678	3.78
270.051	3.75
270.425	3.79
270.799	3.86
271.172	3.72
271.546	3.91
271.919	3.76
272.293	3.63
272.666	3.49
273.04	3.27
273.413	3.17
273.787	3.22
274.16	3.11
274.533	3.07
274.906	2.92
275.279	2.79
275.653	2.72
276.026	2.58
276.399	2.48
276.772	2.27
277.145	2.18
277.518	2.09
277.891	2.12
278.263	2.12
278.636	2.13
279.009	2.31
279.382	2.59
279.755	2.42
280.127	2.53
280.5	2.7
280.872	2.91
281.245	2.84
281.617	2.95
281.99	3
282.362	2.93
282.735	2.91
283.107	2.98
283.479	2.93
283.852	3.11
284.224	3.21
284.596	3.42
284.968	3.47
285.34	3.64
285.713	3.57
286.085	3.53
286.457	3.64
286.829	3.53
287.201	3.45
287.572	3.56
287.944	3.49
288.316	3.34
288.688	3.24
289.06	3.31
289.431	3.25
289.803	3.33
290.175	3.45
290.546	3.69
290.918	3.76
291.289	3.9
291.661	3.98
292.032	4.15
292.403	4.01
292.775	3.99
293.146	3.86
293.517	3.89
293.889	3.93
294.26	3.81
294.631	3.91
295.002	3.82
295.373	3.9
295.744	4.02
296.115	4.16
296.486	4.12
296.857	4.17
297.228	4.23
297.599	4.19
297.97	4.15
298.34	4.09
298.711	4.09
299.082	4.08
299.452	3.97
299.823	3.86
300.194	3.89
300.564	3.89
300.935	3.94
301.305	4
301.676	4
302.046	4.05
302.416	3.97
302.787	4
303.157	3.92
303.527	3.82
303.897	3.77
304.267	4.01
304.637	4.03
305.008	4.08
305.378	4.12
305.748	4.07
306.117	4.04
306.487	4.02
306.857	3.98
307.227	4.01
307.597	3.98
307.967	4.01
308.336	4.1
308.706	4.07
309.076	4.14
309.445	4.08
309.815	4.11
310.184	4.13
310.554	3.99
310.923	4.05
311.293	4
311.662	4.06
312.031	3.93
312.401	3.92
312.77	3.85
313.139	3.91
313.508	3.84
313.877	3.87
314.246	3.9
314.616	3.91
314.985	3.95
315.353	3.92
315.722	3.96
316.091	3.85
316.46	3.86
316.829	3.75
317.198	3.88
317.567	3.92
317.935	3.91
318.304	4.04
318.672	4.02
319.041	4.06
319.41	3.92
319.778	3.94
320.147	3.92
320.515	3.9
320.883	3.76
321.252	3.92
321.62	3.81
321.988	3.57
322.357	3.5
322.725	3.48
323.093	3.44
323.461	3.36
323.829	3.41
324.197	3.45
324.565	3.33
324.933	3.21
325.301	3.17
325.669	3.16
326.037	3.15
326.405	3.07
326.772	3.02
327.14	3.05
327.508	3.02
327.875	2.81
328.243	2.87
328.61	2.79
328.978	2.76
329.346	2.85
329.713	2.92
330.08	3.04
330.448	2.93
330.815	2.87
331.182	2.86
331.55	2.78
331.917	2.68
332.284	2.92
332.651	2.9
333.018	2.91
333.385	2.92
333.752	2.92
334.119	3.1
334.486	3.14
334.853	3.06
335.22	3.11
335.587	3.22
335.954	3.2
336.32	3.36
336.687	3.43
337.054	3.38
337.42	3.52
337.787	3.5
338.153	3.51
338.52	3.67
338.886	3.52
339.253	3.55
339.619	3.66
339.986	3.56
340.352	3.52
340.718	3.41
341.084	3.43
341.451	3.53
341.817	3.48
342.183	3.45
342.549	3.5
342.915	3.61
343.281	3.69
343.647	3.61
344.013	3.61
344.379	3.47
344.745	3.54
345.11	3.58
345.476	3.62
345.842	3.61
346.208	3.61
346.573	3.75
346.939	3.86
347.304	3.79
347.67	3.78
348.035	3.89
348.401	3.95
348.766	3.97
349.132	3.91
349.497	3.88
349.862	3.99
350.228	4.07
350.593	3.93
350.958	3.89
351.323	3.89
351.688	3.92
352.053	4.01
352.418	4
352.783	3.97
353.148	3.91
353.513	4.01
353.878	3.98
354.243	4.03
354.608	3.97
354.972	4.01
355.337	4.06
355.702	4.1
356.066	4.13
356.431	4.15
356.795	4.18
357.16	4.17
357.524	4.13
357.889	4.11
358.253	4.14
358.618	4.08
358.982	4.07
359.346	4.04
359.71	3.97
360.075	3.96
360.439	3.94
360.803	3.94
361.167	3.88
361.531	3.9
361.895	3.84
362.259	3.81
362.623	3.75
362.987	3.75
363.351	3.72
363.714	3.73
364.078	3.73
364.442	3.65
364.806	3.63
365.169	3.6
365.533	3.62
365.896	3.55
366.26	3.61
366.623	3.65
366.987	3.59
367.35	3.67
367.714	3.64
368.077	3.6
368.44	3.59
368.803	3.58
369.167	3.52
369.53	3.51
369.893	3.53
370.256	3.59
370.619	3.58
370.982	3.57
371.345	3.53
371.708	3.54
372.071	3.6
372.434	3.61
372.797	3.6
373.159	3.55
373.522	3.62
373.885	3.59
374.247	3.63
374.61	3.67
374.973	3.59
375.335	3.62
375.698	3.66
376.06	3.69
376.423	3.71
376.785	3.76
377.147	3.81
377.51	3.78
377.872	3.79
378.234	3.81
378.596	3.85
378.958	3.85
379.321	3.83
379.683	3.87
380.045	3.92
380.407	3.93
380.769	3.95
381.13	3.95
381.492	3.96
381.854	3.94
382.216	3.99
382.578	4.03
382.939	3.97
383.301	3.95
383.663	3.93
384.024	3.93
384.386	3.93
384.747	3.92
385.109	3.92
385.47	3.86
385.832	3.84
386.193	3.84
386.554	3.85
386.916	3.85
387.277	3.83
387.638	3.84
387.999	3.85
388.36	3.84
388.721	3.82
389.082	3.89
389.443	3.85
389.804	3.8
390.165	3.8
390.526	3.86
390.887	3.84
391.248	3.86
391.609	3.87
391.969	3.88
392.33	3.88
392.691	3.86
393.051	3.91
393.412	3.92
393.772	3.89
394.133	3.91
394.493	3.9
394.854	3.89
395.214	3.9
395.574	3.91
395.935	3.93
396.295	3.96
396.655	3.92
397.015	3.93
397.376	3.98
397.736	3.98
398.096	3.99
398.456	4.05
398.816	4.07
399.176	4.06
399.535	4.03
399.895	4.02
400.255	4.06
400.615	4.1
400.975	4.1
401.334	4.11
401.694	4.09
402.054	4.08
402.413	4.08
402.773	4.04
403.132	4.04
403.492	4.02
403.851	4.01
404.211	4.04
404.57	4.04
404.929	4.03
405.288	4.04
405.648	4
406.007	3.97
406.366	3.94
406.725	3.95
407.084	3.98
407.443	3.98
407.802	3.99
408.161	3.95
408.52	3.93
408.879	3.95
409.238	3.96
409.596	3.97
409.955	3.97
410.314	3.98
410.673	3.97
411.031	3.98
411.39	4
411.748	3.98
412.107	3.97
412.465	3.96
412.824	3.98
413.182	3.99
413.54	3.97
413.899	3.99
414.257	4
414.615	3.95
414.974	3.96
415.332	3.96
415.69	3.98
416.048	4
416.406	3.99
416.764	4
417.122	4.01
417.48	4.01
417.838	4.02
418.195	4.03
418.553	4.03
418.911	4.04
419.269	4.05
419.626	4.06
419.984	4.04
420.342	4.06
420.699	4.05
421.057	4.06
421.414	4.07
421.772	4.05
422.129	4.09
422.486	4.08
422.844	4.08
423.201	4.07
423.558	4.07
423.915	4.07
424.273	4.08
424.63	4.08
424.987	4.09
425.344	4.1
425.701	4.1
426.058	4.12
426.415	4.11
426.772	4.1
427.128	4.09
427.485	4.11
427.842	4.09
428.199	4.11
428.555	4.11
428.912	4.12
429.269	4.15
429.625	4.11
429.982	4.14
430.338	4.15
430.695	4.16
431.051	4.16
431.407	4.16
431.764	4.16
432.12	4.15
432.476	4.13
432.832	4.12
433.189	4.13
433.545	4.11
433.901	4.1
434.257	4.1
434.613	4.14
434.969	4.14
435.325	4.13
435.681	4.12
436.036	4.12
436.392	4.11
436.748	4.12
437.104	4.15
437.459	4.13
437.815	4.13
438.171	4.13
438.526	4.15
438.882	4.14
439.237	4.14
439.593	4.16
439.948	4.17
440.304	4.17
440.659	4.17
441.014	4.16
441.369	4.16
441.725	4.15
442.08	4.14
442.435	4.15
442.79	4.16
443.145	4.17
443.5	4.17
443.855	4.18
444.21	4.17
444.565	4.18
444.92	4.21
445.275	4.19
445.629	4.2
445.984	4.18
446.339	4.18
446.693	4.17
447.048	4.15
447.403	4.15
447.757	4.15
448.112	4.14
448.466	4.14
448.82	4.15
449.175	4.17
449.529	4.17
449.883	4.17
450.238	4.17
450.592	4.18
450.946	4.17
451.3	4.16
451.654	4.17
452.008	4.16
452.362	4.13
452.716	4.13
453.07	4.14
453.424	4.13
453.778	4.14
454.132	4.13
454.486	4.13
454.839	4.1
455.193	4.09
455.547	4.11
455.9	4.13
456.254	4.11
456.607	4.1
456.961	4.11
457.314	4.1
457.668	4.12
458.021	4.1
458.375	4.11
458.728	4.11
459.081	4.08
459.434	4.08
459.787	4.1
460.141	4.1
460.494	4.1
460.847	4.11
461.2	4.12
461.553	4.13
461.906	4.14
462.259	4.16
462.611	4.17
462.964	4.16
463.317	4.16
463.67	4.17
464.022	4.2
464.375	4.17
464.728	4.19
465.08	4.2
465.433	4.2
465.785	4.21
466.138	4.2
466.49	4.22
466.843	4.2
467.195	4.18
467.547	4.19
467.899	4.18
468.252	4.18
468.604	4.19
468.956	4.19
469.308	4.21
469.66	4.2
470.012	4.2
470.364	4.19
470.716	4.2
471.068	4.19
471.42	4.19
471.772	4.22
472.123	4.2
472.475	4.18
472.827	4.2
473.178	4.2
473.53	4.22
473.882	4.21
474.233	4.24
474.585	4.25
474.936	4.24
475.288	4.25
475.639	4.25
475.99	4.26
476.342	4.27
476.693	4.25
477.044	4.25
477.395	4.24
477.746	4.26
478.097	4.25
478.448	4.27
478.8	4.27
479.15	4.23
479.501	4.24
479.852	4.23
480.203	4.24
480.554	4.25
480.905	4.25
481.255	4.26
481.606	4.27
481.957	4.28
482.307	4.29
482.658	4.29
483.009	4.29
483.359	4.29
483.709	4.29
484.06	4.29
484.41	4.31
484.761	4.31
485.111	4.31
485.461	4.32
485.811	4.32
486.162	4.32
486.512	4.34
486.862	4.35
487.212	4.36
487.562	4.37
487.912	4.38
488.262	4.38
488.612	4.39
488.961	4.39
489.311	4.39
489.661	4.38
490.011	4.39
490.36	4.39
490.71	4.4
491.06	4.41
491.409	4.41
491.759	4.4
492.108	4.4
492.458	4.4
492.807	4.4
493.157	4.4
493.506	4.4
493.855	4.4
494.204	4.39
494.554	4.38
494.903	4.36
495.252	4.34
495.601	4.34
495.95	4.35
496.299	4.35
496.648	4.36
496.997	4.38
497.346	4.38
497.695	4.39
498.043	4.38
498.392	4.38
498.741	4.39
499.09	4.41
499.438	4.44
499.787	4.45
500.135	4.47
500.484	4.48
500.832	4.48
501.181	4.5
501.529	4.5
501.878	4.51
502.226	4.5
502.574	4.5
502.923	4.5
503.271	4.5
503.619	4.49
503.967	4.49
504.315	4.47
504.663	4.47
505.011	4.48
505.359	4.48
505.707	4.5
506.055	4.52
506.403	4.5
506.751	4.5
507.098	4.51
507.446	4.51
507.794	4.51
508.141	4.51
508.489	4.49
508.837	4.51
509.184	4.52
509.531	4.55
509.879	4.56
510.226	4.59
510.574	4.58
510.921	4.61
511.268	4.61
511.616	4.62
511.963	4.62
512.31	4.62
512.657	4.61
513.004	4.6
513.351	4.61
513.698	4.63
514.045	4.59
514.392	4.59
514.739	4.6
515.086	4.61
515.432	4.62
515.779	4.62
516.126	4.64
516.473	4.66
516.819	4.67
517.166	4.66
517.512	4.66
517.859	4.68
518.205	4.66
518.552	4.66
518.898	4.67
519.245	4.67
519.591	4.67
519.937	4.68
520.283	4.68
520.629	4.67
520.976	4.67
521.322	4.7
521.668	4.7
522.014	4.71
522.36	4.73
522.706	4.74
523.052	4.75
523.398	4.75
523.743	4.75
524.089	4.72
524.435	4.72
524.781	4.72
525.126	4.74
525.472	4.75
525.817	4.75
526.163	4.75
526.509	4.76
526.854	4.77
527.199	4.78
527.545	4.8
527.89	4.81
528.235	4.81
528.581	4.81
528.926	4.81
529.271	4.81
529.616	4.8
529.961	4.8
530.306	4.8
530.651	4.8
530.996	4.81
531.341	4.83
531.686	4.83
532.031	4.84
532.376	4.83
532.721	4.83
533.065	4.83
533.41	4.83
533.755	4.84
534.099	4.84
534.444	4.83
534.788	4.82
535.133	4.8
535.477	4.81
535.822	4.8
536.166	4.8
536.51	4.8
536.855	4.79
537.199	4.8
537.543	4.79
537.887	4.78
538.231	4.77
538.576	4.78
538.92	4.77
539.264	4.78
539.608	4.77
539.951	4.79
540.295	4.79
540.639	4.81
540.983	4.8
541.327	4.81
541.671	4.81
542.014	4.82
542.358	4.83
542.701	4.84
543.045	4.84
543.389	4.85
543.732	4.86
544.075	4.88
544.419	4.87
544.762	4.88
545.105	4.9
545.449	4.91
545.792	4.91
546.135	4.94
546.478	4.95
546.821	4.95
547.165	4.95
547.508	4.94
547.851	4.93
548.194	4.92
548.536	4.92
548.879	4.94
549.222	4.92
549.565	4.94
549.908	4.91
550.25	4.92
550.593	4.91
550.936	4.88
551.278	4.88
551.621	4.89
551.963	4.89
552.306	4.89
552.648	4.89
552.991	4.92
553.333	4.94
553.675	4.93
554.017	4.94
554.36	4.95
554.702	4.99
555.044	4.99
555.386	5.01
555.728	5.03
556.07	5.03
556.412	5.03
556.754	5.03
557.096	5.05
557.438	5.05
557.78	5.07
558.121	5.12
558.463	5.12
558.805	5.14
559.147	5.11
559.488	5.11
559.83	5.11
560.171	5.09
560.513	5.09
560.854	5.06
561.196	5.07
561.537	5.06
561.878	5.03
562.22	5.03
562.561	5.01
562.902	4.99
563.243	4.98
563.584	4.99
563.925	4.97
564.266	4.97
564.607	4.98
564.948	4.98
565.289	4.96
565.63	4.96
565.971	4.93
566.312	4.95
566.653	4.91
566.993	4.91
567.334	4.91
567.675	4.91
568.015	4.95
568.356	4.94
568.696	4.94
569.037	4.96
569.377	4.97
569.718	4.99
570.058	5
570.398	5.01
570.739	5.03
571.079	5.05
571.419	5.06
571.759	5.08
572.099	5.07
572.439	5.08
572.779	5.08
573.119	5.11
573.459	5.13
573.799	5.16
574.139	5.16
574.479	5.18
574.819	5.17
575.158	5.16
575.498	5.21
575.838	5.21
576.177	5.2
576.517	5.2
576.856	5.2
577.196	5.19
577.535	5.19
577.875	5.22
578.214	5.23
578.553	5.24
578.893	5.25
579.232	5.25
579.571	5.21
579.91	5.21
580.25	5.21
580.589	5.2
580.928	5.23
581.267	5.24
581.606	5.21
581.945	5.23
582.283	5.19
582.622	5.16
582.961	5.16
583.3	5.18
583.639	5.23
583.977	5.24
584.316	5.25
584.654	5.23
584.993	5.21
585.332	5.24
585.67	5.24
586.008	5.21
586.347	5.23
586.685	5.27
587.024	5.26
587.362	5.28
587.7	5.28
588.038	5.24
588.376	5.23
588.715	5.25
589.053	5.28
589.391	5.31
589.729	5.31
590.067	5.29
590.404	5.26
590.742	5.25
591.08	5.23
591.418	5.24
591.756	5.31
592.093	5.31
592.431	5.26
592.769	5.26
593.106	5.28
593.444	5.27
593.781	5.29
594.119	5.34
594.456	5.32
594.793	5.33
595.131	5.32
595.468	5.33
595.805	5.33
596.143	5.32
596.48	5.33
596.817	5.35
597.154	5.38
597.491	5.39
597.828	5.39
598.165	5.42
598.502	5.38
598.839	5.32
599.176	5.31
599.512	5.31
599.849	5.32
600.186	5.31
600.523	5.32
600.859	5.33
601.196	5.32
601.532	5.33
601.869	5.3
602.205	5.33
602.542	5.37
602.878	5.37
603.215	5.35
603.551	5.34
603.887	5.33
604.223	5.36
604.56	5.36
604.896	5.35
605.232	5.35
605.568	5.41
605.904	5.44
606.24	5.46
606.576	5.47
606.912	5.45
607.248	5.44
607.583	5.45
607.919	5.42
608.255	5.4
608.591	5.41
608.926	5.42
609.262	5.47
609.597	5.43
609.933	5.42
610.268	5.45
610.604	5.47
610.939	5.48
611.275	5.45
611.61	5.48
611.945	5.49
612.281	5.48
612.616	5.48
612.951	5.48
613.286	5.47
613.621	5.53
613.956	5.51
614.291	5.55
614.626	5.54
614.961	5.55
615.296	5.55
615.631	5.52
615.966	5.55
616.3	5.5
616.635	5.49
616.97	5.48
617.304	5.45
617.639	5.41
617.973	5.4
618.308	5.39
618.642	5.38
618.977	5.41
619.311	5.44
619.646	5.45
619.98	5.42
620.314	5.44
620.648	5.42
620.983	5.48
621.317	5.46
621.651	5.49
621.985	5.51
622.319	5.53
622.653	5.59
622.987	5.63
623.321	5.63
623.655	5.68
623.988	5.7
624.322	5.71
624.656	5.75
624.99	5.76
625.323	5.79
625.657	5.84
625.99	5.8
626.324	5.83
626.657	5.77
626.991	5.79
627.324	5.81
627.658	5.81
627.991	5.82
628.324	5.76
628.657	5.75
628.991	5.78
629.324	5.8
629.657	5.76
629.99	5.77
630.323	5.8
630.656	5.8
630.989	5.82
631.322	5.83
631.655	5.81
631.987	5.79
632.32	5.77
632.653	5.73
632.986	5.73
633.318	5.7
633.651	5.72
633.984	5.73
634.316	5.72
634.649	5.69
634.981	5.67
635.313	5.76
635.646	5.74
635.978	5.76
636.31	5.77
636.643	5.81
636.975	5.76
637.307	5.76
637.639	5.74
637.971	5.67
638.303	5.71
638.635	5.7
638.967	5.7
639.299	5.72
639.631	5.73
639.963	5.72
640.295	5.75
640.626	5.75
640.958	5.82
641.29	5.88
641.621	5.87
641.953	5.89
642.285	5.81
642.616	5.81
642.948	5.75
643.279	5.73
643.61	5.73
643.942	5.67
644.273	5.67
644.604	5.63
644.936	5.67
645.267	5.64
645.598	5.66
645.929	5.73
646.26	5.73
646.591	5.68
646.922	5.7
647.253	5.67
647.584	5.67
647.915	5.62
648.245	5.54
648.576	5.59
648.907	5.59
649.238	5.63
649.568	5.69
649.899	5.74
650.229	5.8
650.56	5.77
650.89	5.83
651.221	5.76
651.551	5.77
651.882	5.78
652.212	5.83
652.542	5.84
652.872	5.71
653.203	5.68
653.533	5.73
653.863	5.76
654.193	5.77
654.523	5.77
654.853	5.76
655.183	5.76
655.513	5.77
655.843	5.77
656.172	5.75
656.502	5.78
656.832	5.74
657.162	5.66
657.491	5.69
657.821	5.64
658.15	5.74
658.48	5.75
658.809	5.75
659.139	5.74
659.468	5.71
659.798	5.83
660.127	5.85
660.456	5.86
660.785	5.8
661.115	5.83
661.444	5.82
661.773	5.81
662.102	5.76
662.431	5.8
662.76	5.82
663.089	5.88
663.418	5.81
663.747	5.88
664.076	5.97
664.404	5.95
664.733	5.95
665.062	5.88
665.39	5.88
665.719	5.88
666.048	5.87
666.376	5.86
666.705	5.73
667.033	5.76
667.362	5.79
667.69	5.84
668.018	5.82
668.347	5.82
668.675	5.83
669.003	5.94
669.331	5.92
669.659	5.9
669.987	5.86
670.315	5.93
670.643	5.84
670.971	5.8
671.299	5.88
671.627	5.92
671.955	5.97
672.283	5.99
672.61	6.02
672.938	6.04
673.266	6.16
673.593	6.38
673.921	6.33
674.249	6.31
674.576	6.32
674.904	6.32
675.231	6.36
675.558	6.42
675.886	6.35
676.213	6.32
676.54	6.35
676.867	6.39
677.195	6.34
677.522	6.36
677.849	6.34
678.176	6.26
678.503	6.32
678.83	6.23
679.157	6.18
679.484	6.11
679.81	6.14
680.137	6.08
680.464	5.9
680.791	5.91
681.117	5.9
681.444	5.88
681.771	5.86
682.097	5.79
682.424	5.82
682.75	5.89
683.077	5.87
683.403	5.86
683.729	5.9
684.056	5.88
684.382	5.91
684.708	5.88
685.034	5.88
685.36	5.85
685.686	5.87
686.012	5.92
686.339	6.03
686.664	5.95
686.99	5.95
687.316	6.05
687.642	6.12
687.968	6.12
688.294	6.07
688.619	6.14
688.945	6.14
689.271	6.01
689.596	5.97
689.922	6.03
690.247	5.96
690.573	5.85
690.898	5.94
691.224	6.01
691.549	6.12
691.874	6.13
692.2	6.21
692.525	6.34
692.85	6.32
693.175	6.29
693.5	6.25
693.825	6.2
694.15	6.27
694.475	6.22
694.8	6.3
695.125	6.37
695.45	6.34
695.775	6.37
696.099	6.4
696.424	6.41
696.749	6.35
697.073	6.4
697.398	6.54
697.723	6.53
698.047	6.52
698.372	6.5
698.696	6.52
699.02	6.47
699.345	6.4
699.669	6.58
699.993	6.58
700.318	6.62
700.642	6.61
700.966	6.61
701.29	6.62
701.614	6.57
701.938	6.64
702.262	6.73
702.586	6.74
702.91	6.8
703.234	6.76
703.557	6.79
703.881	6.72
704.205	6.67
704.529	6.66
704.852	6.62
705.176	6.61
705.499	6.68
705.823	6.68
706.146	6.66
706.47	6.61
706.793	6.64
707.117	6.75
707.44	6.96
707.763	6.89
708.086	6.83
708.409	6.81
708.733	6.67
709.056	6.61
709.379	6.8
709.702	6.71
710.025	6.76
710.348	6.76
710.671	6.89
710.993	6.99
711.316	7
711.639	7.1
711.962	7.2
712.284	7.11
712.607	7.15
712.93	7.28
713.252	7.3
713.575	7.23
713.897	7.1
714.22	6.98
714.542	6.9
714.864	6.95
715.187	6.95
715.509	7.09
715.831	7.18
716.153	7.19
716.475	7.4
716.798	7.46
717.12	7.56
717.442	7.56
717.764	7.42
718.085	7.45
718.407	7.33
718.729	7.26
719.051	7.27
719.373	7.24
719.695	7.06
720.016	7.06
720.338	7.19
720.659	7.32
720.981	7.36
721.302	7.46
721.624	7.44
721.945	7.49
722.267	7.56
722.588	7.44
722.909	7.4
723.231	7.19
723.552	7.27
723.873	7.33
724.194	7.27
724.515	7.41
724.836	7.32
725.157	7.35
725.478	7.34
725.799	7.34
726.12	7.46
726.441	7.63
726.762	7.42
727.083	7.36
727.403	7.28
727.724	7.37
728.045	7.55
728.365	7.58
728.686	7.64
729.006	7.64
729.327	7.7
729.647	7.69
729.967	7.83
730.288	7.72
730.608	7.5
730.928	7.53
731.249	7.5
731.569	7.64
731.889	7.79
732.209	7.77
732.529	7.83
732.849	7.8
733.169	7.77
733.489	7.83
733.809	7.82
734.129	7.92
734.448	7.75
734.768	7.57
735.088	7.66
735.408	7.65
735.727	7.65
736.047	7.76
736.366	7.69
736.686	7.61
737.005	7.76
737.325	7.94
737.644	7.88
737.963	7.92
738.283	7.69
738.602	7.57
738.921	7.66
739.24	7.77
739.56	7.86
739.879	7.88
740.198	8.09
740.517	8.07
740.836	8.05
741.155	8.03
741.473	8.11
741.792	8.13
742.111	8.21
742.43	8.05
742.748	7.88
743.067	7.91
743.386	7.81
743.704	7.88
744.023	7.77
744.341	7.65
744.66	7.73
744.978	7.91
745.297	7.82
745.615	8.04
745.933	8.07
746.252	8.08
746.57	8.02
746.888	7.73
747.206	7.96
747.524	8
747.842	8.12
748.16	8.37
748.478	8.39
748.796	8.39
749.114	8.58
749.432	8.47
749.749	8.7
750.067	8.83
750.385	8.64
750.703	8.77
751.02	8.87
751.338	8.81
751.655	9.01
751.973	9.29
752.29	8.9
752.608	8.84
752.925	8.76
753.242	8.84
753.56	8.76
753.877	8.69
754.194	8.58
754.511	8.79
754.828	8.51
755.145	8.48
755.462	8.27
755.779	8.43
756.096	8.48
756.413	8.46
756.73	8.5
757.047	8.27
757.364	8.16
757.68	8.21
757.997	8.13
758.314	7.8
758.63	7.59
758.947	7.65
759.264	7.48
759.58	7.51
759.896	7.62
760.213	7.71
760.529	7.76
760.846	7.87
761.162	7.94
761.478	8
761.794	8.05
762.11	8.15
762.426	8.09
762.743	8.24
763.059	8.19
763.375	8.33
763.69	8.64
764.006	8.8
764.322	8.85
764.638	8.94
764.954	9.15
765.27	9.16
765.585	9.16
765.901	9.25
766.216	9.32
766.532	9.23
766.848	9.14
767.163	9.14
767.478	9.26
767.794	9.13
768.109	9.1
768.424	9.06
768.74	9.19
769.055	9.21
769.37	9.17
769.685	9.09
770	9.03
770.315	8.62
770.63	8.26
770.945	8.31
771.26	8.29
771.575	8.11
771.89	8.39
772.205	8.5
772.52	8.62
772.834	8.49
773.149	8.42
773.464	8.64
773.778	8.81
774.093	8.47
774.407	8.28
774.722	8.32
775.036	8.34
775.351	8.13
775.665	7.67
775.979	7.8
776.293	8.11
776.608	7.95
776.922	8.65
777.236	9.07
777.55	8.97
777.864	9.04
778.178	9.1
778.492	9.05
778.806	8.66
779.12	8.67
779.434	8.67
779.747	8.84
780.061	8.93
780.375	8.82
780.689	8.99
781.002	9.22
781.316	9.18
781.629	9.81
781.943	9.93
782.256	10.03
782.57	9.77
782.883	9.74
783.196	9.33
783.51	8.6
783.823	8.72
784.136	8.98
784.449	8.77
784.762	8.87
785.075	9.02
785.388	9.47
785.701	9.69
786.014	9.87
786.327	9.96
786.64	10.37
786.953	10.12
787.266	9.62
787.578	9.49
787.891	9.49
788.204	8.54
788.516	8.73
788.829	8.97
789.141	8.98
789.454	8.56
789.766	8.99
790.079	9.29
790.391	8.94
790.703	8.66
791.016	9.01
791.328	9
791.64	8.48
791.952	8.36
792.264	7.9
792.576	7.53
792.888	7.47
793.2	6.99
793.512	7.06
793.824	7.37
794.136	7.64
794.448	7.98
794.76	8.38
795.071	8.4
795.383	7.94
795.695	7.77
796.006	7.95
796.318	8
796.629	8.18
796.941	8.39
797.252	8.74
797.564	8.37
797.875	8.22
798.186	7.87
798.497	7.78
798.809	7.74
799.12	8.24
799.431	8.34
799.742	8.34
800.053	8.21
800.364	8.3
800.675	8.02
800.986	7.57
801.297	7.72
801.608	7.28
801.918	7.77
802.229	8.08
802.54	7.6
802.851	7.44
803.161	7.12
803.472	6.66
803.782	6.42
804.093	6.69
804.403	6.98
804.714	7.24
805.024	7.36
805.334	7.6
805.645	7.27
805.955	6.96
806.265	7.96
806.575	8.43
806.885	8.46
807.195	9.02
807.505	9.24
807.815	9.04
808.125	9.35
808.435	9.75
808.745	9.53
809.055	10.31
809.365	10.36
809.674	10.93
809.984	11.68
810.294	11.29
810.603	11.09
810.913	11.37
811.222	11.21
811.532	11.77
811.841	11.8
812.151	12.19
812.46	12.58
812.769	11.37
813.079	10.54
813.388	10.79
813.697	10.82
814.006	10.53
814.315	10.92
814.624	10.81
814.933	10.82
815.242	10.99
815.551	11.45
815.86	11.54
816.169	11.25
816.478	10.52
816.786	11.25
817.095	11.72
817.404	11.28
817.712	12.08
818.021	11.47
818.33	11.03
818.638	10.44
818.947	9.96
819.255	10.19
819.563	10.66
819.872	10.38
820.18	10.36
820.488	10.32
820.796	10.11
821.105	10.24
821.413	10.02
821.721	10.01
822.029	9.95
822.337	10.1
822.645	10.19
822.953	10.33
823.26	10.34
823.568	10.21
823.876	10.15
824.184	10.19
824.491	10.23
824.799	10.53
825.107	10.72
825.414	11.04
825.722	11.07
826.029	11.05
826.337	11.25
826.644	11.19
826.951	11.26
827.259	11.36
827.566	11.23
827.873	11.6
828.18	11.77
828.488	11.59
828.795	11.61
829.102	11.43
829.409	11.44
829.716	11.44
830.023	11.62
830.329	11.73
830.636	11.51
830.943	11.45
831.25	10.91
831.557	10.59
831.863	10.15
832.17	10.18
832.476	10.29
832.783	10.21
833.089	10.25
833.396	10.46
833.702	10.75
834.009	10.98
834.315	10.28
834.621	10.26
834.928	10.37
835.234	10.22
835.54	10.44
835.846	10.3
836.152	10.52
836.458	10.58
836.764	10.2
837.07	10.46
837.376	10.48
837.682	10.47
837.988	10.89
838.293	10.68
838.599	9.91
838.905	9.28
839.211	8.98
839.516	8.66
839.822	8.88
840.127	8.01
840.433	8.23
840.738	8.67
841.044	9.19
841.349	8.51
841.654	8.63
841.959	8.97
842.265	9.81
842.57	9.43
842.875	8.89
843.18	10.29
843.485	9.64
843.79	9.39
844.095	9.71
844.4	9.63
844.705	10.16
845.01	11.62
845.315	11.95
845.619	10.88
845.924	11.84
846.229	12.23
846.533	12.07
846.838	11.81
847.142	11.61
847.447	9.02
847.751	10.89
848.056	9.77
848.36	8.84
848.664	8.55
848.969	7.21
849.273	7.94
849.577	6.05
849.881	5.59
850.185	6.55
850.489	8.29
850.794	6.38
851.097	5.62
851.401	4.87
851.705	5.29
852.009	6.89
852.313	7.68
852.617	5.55
852.92	8.09
853.224	6.65
853.528	7.6
853.831	10.49
854.135	10.57
854.438	10.27
854.742	10.54
855.045	10.69
855.349	12.51
855.652	10.71
855.955	11.13
856.259	11.94
856.562	12.83
856.865	10.52
857.168	11.15
857.471	11.29
857.774	12.12
858.077	13.28
858.38	15.28
858.683	13.11
858.986	15.28
859.289	13
859.592	14.88
859.894	12.83
860.197	12.5
860.5	13.35
860.802	13.78
861.105	13.9
861.407	13.76
861.71	13.17
862.012	14.54
862.315	14.1
862.617	12.8
862.919	11.1
863.222	12.76
863.524	12.66
863.826	14.94
864.128	16.11
864.43	14.57
864.732	14.69
865.034	16.75
865.336	13.28
865.638	13.15
865.94	13.95
866.242	16.24
866.544	14.04
866.846	13.3
867.147	15.9
867.449	13.89
867.751	14.03
868.052	14.18
868.354	13.72
868.655	12.91
868.957	13.89
869.258	12.17
869.56	12.24
869.861	13.96
870.162	11.76
870.463	13.22
870.765	14.87
871.066	12.51
871.367	11.58
871.668	10.87
871.969	12.57
872.27	10.84
872.571	12.55
872.872	14.59
873.173	13.9
873.473	10.2
873.774	10.26
874.075	10.58
874.376	7.86
874.676	8.82
874.977	11.21
875.277	12.31
875.578	16.91
875.878	16.21
876.179	15.21
876.479	15.31
876.78	12.61
877.08	11.9
877.38	12.2
877.68	11.96
877.981	15.78
878.281	14.72
878.581	16.44
