Data from BA28301_Reflection_00001.txt Node
Date: Mon Nov 18 15:44:55 EST 2019
User: vgr7
Spectrometer: USB2G7710
Scans to average: 3
Trigger mode: 4
Integration Time (sec): 2.000000E-2
Electric dark correction enabled: true
Boxcar width: 10
XAxis mode: Wavelengths
Number of Pixels in Spectrum: 2048
>>>>>Begin Spectral Data<<<<<
177.721	-306.36
178.105	-2185.71
178.488	149.04
178.871	-70.21
179.254	334.45
179.636	96.5
180.019	-174.92
180.402	388.89
180.785	-101.52
181.168	-48.31
181.55	68.84
181.933	133.8
182.316	188.82
182.698	185.36
183.081	153.12
183.463	140.05
183.846	83.47
184.228	82.01
184.611	63.42
184.993	72.09
185.376	75.05
185.758	166.96
186.14	196.66
186.522	147.98
186.904	-320.91
187.287	1419.33
187.669	-230.3
188.051	-380.09
188.433	-208.68
188.815	-256.75
189.197	-651.15
189.579	-141.29
189.961	-83.79
190.342	-173.1
190.724	-25.18
191.106	-52.48
191.488	-77.48
191.869	-93.02
192.251	-113.21
192.633	-178.57
193.014	-283.11
193.396	-252.41
193.777	-341.86
194.159	-2100
194.54	-243.54
194.922	-62.79
195.303	-48.79
195.684	11.85
196.065	84.68
196.447	-1958.82
196.828	42.6
197.209	-6.18
197.59	-503.31
197.971	-572.73
198.352	-33.44
198.733	-73.95
199.114	-162.76
199.495	-37.06
199.876	-4.18
200.257	7.11
200.638	25.05
201.018	32.39
201.399	11.45
201.78	-8.62
202.16	-18.47
202.541	-107.5
202.922	-183.34
203.302	-238.47
203.683	-173.34
204.063	-268.62
204.444	-207.57
204.824	-242.73
205.204	-236.17
205.585	-236.37
205.965	-191.04
206.345	-326.22
206.725	-1195.38
207.106	8612.2
207.486	484.1
207.866	396.46
208.246	376.26
208.626	482.13
209.006	687.97
209.386	366.42
209.766	272.6
210.145	242.12
210.525	243.06
210.905	397.53
211.285	48300
211.664	-2771.56
212.044	1129.09
212.424	-570.44
212.803	-260.12
213.183	-322.96
213.562	-161.75
213.942	-99.82
214.321	-92.35
214.701	-79.21
215.08	-66.04
215.459	-63.22
215.838	-53.16
216.218	-60.46
216.597	-54.7
216.976	-54.79
217.355	-38.3
217.734	-29.83
218.113	-24.82
218.492	-28.87
218.871	-38.92
219.25	-41.5
219.629	-40.43
220.008	-28.71
220.387	-25.54
220.766	-24.68
221.144	-26.68
221.523	-31.15
221.902	-41.72
222.28	-40.64
222.659	-27.98
223.037	-23.13
223.416	-18.67
223.794	-13.44
224.173	1.86
224.551	-0.8
224.929	-2.01
225.308	1.04
225.686	-1.17
226.064	-5.16
226.442	-5.96
226.821	-0.36
227.199	0.67
227.577	0.08
227.955	-0.05
228.333	-0.45
228.711	1.24
229.089	3.2
229.467	2.14
229.845	0.66
230.222	1.53
230.6	0.03
230.978	0.44
231.356	1.34
231.733	0.47
232.111	-0.97
232.488	-1.56
232.866	-0.24
233.243	-0.95
233.621	-0.7
233.998	0.85
234.376	2.5
234.753	1.1
235.13	0.65
235.508	2.01
235.885	1.8
236.262	1.03
236.639	0.98
237.016	1.3
237.393	2.56
237.77	4.3
238.147	5.01
238.524	4.27
238.901	4.15
239.278	4.6
239.655	5.23
240.032	4.96
240.409	4.92
240.785	4.89
241.162	5.24
241.539	5.53
241.915	5.29
242.292	4.88
242.668	4.95
243.045	5.26
243.421	4.86
243.798	4.74
244.174	5.02
244.551	4.6
244.927	4.67
245.303	4.66
245.679	4.56
246.056	4.45
246.432	4.37
246.808	4.4
247.184	4.12
247.56	3.73
247.936	3.83
248.312	3.77
248.688	3.57
249.064	3.48
249.44	3.47
249.815	3.45
250.191	3.64
250.567	3.74
250.943	3.49
251.318	3.64
251.694	3.58
252.069	3.37
252.445	3.57
252.82	3.46
253.196	3.22
253.571	3.28
253.947	3.1
254.322	3.25
254.697	3.15
255.073	3.19
255.448	3.29
255.823	3.27
256.198	3.48
256.573	3.53
256.948	3.57
257.323	3.55
257.698	3.68
258.073	3.51
258.448	3.52
258.823	3.63
259.198	3.54
259.573	3.59
259.948	3.71
260.322	3.69
260.697	3.51
261.072	3.55
261.446	3.48
261.821	3.46
262.195	3.57
262.57	3.53
262.944	3.56
263.319	3.58
263.693	3.48
264.067	3.44
264.442	3.61
264.816	3.57
265.19	3.41
265.564	3.27
265.938	3.29
266.313	3.17
266.687	3.23
267.061	3.26
267.435	3.3
267.809	3.2
268.183	3.22
268.556	3.32
268.93	3.44
269.304	3.44
269.678	3.77
270.051	3.84
270.425	3.89
270.799	3.79
271.172	3.84
271.546	3.8
271.919	3.66
272.293	3.61
272.666	3.76
273.04	3.88
273.413	3.86
273.787	3.8
274.16	3.82
274.533	3.81
274.906	3.78
275.279	3.73
275.653	3.69
276.026	3.7
276.399	3.78
276.772	3.7
277.145	3.77
277.518	3.62
277.891	3.6
278.263	3.58
278.636	3.67
279.009	3.68
279.382	3.94
279.755	4.02
280.127	3.94
280.5	3.95
280.872	3.89
281.245	4.02
281.617	4.07
281.99	4.09
282.362	4.15
282.735	4.14
283.107	4.28
283.479	4.43
283.852	4.47
284.224	4.57
284.596	4.58
284.968	4.53
285.34	4.5
285.713	4.52
286.085	4.56
286.457	4.66
286.829	4.69
287.201	4.61
287.572	4.65
287.944	4.66
288.316	4.64
288.688	4.74
289.06	4.73
289.431	4.76
289.803	4.75
290.175	4.71
290.546	4.85
290.918	4.8
291.289	4.8
291.661	4.77
292.032	4.64
292.403	4.72
292.775	4.81
293.146	4.83
293.517	4.84
293.889	4.91
294.26	4.79
294.631	4.87
295.002	4.83
295.373	4.79
295.744	4.86
296.115	4.74
296.486	4.63
296.857	4.63
297.228	4.58
297.599	4.49
297.97	4.5
298.34	4.4
298.711	4.51
299.082	4.39
299.452	4.4
299.823	4.55
300.194	4.43
300.564	4.32
300.935	4.32
301.305	4.17
301.676	4.18
302.046	4.3
302.416	4.3
302.787	4.38
303.157	4.41
303.527	4.34
303.897	4.41
304.267	4.41
304.637	4.47
305.008	4.52
305.378	4.7
305.748	4.85
306.117	4.8
306.487	4.74
306.857	4.83
307.227	4.9
307.597	4.74
307.967	4.79
308.336	4.86
308.706	4.83
309.076	4.89
309.445	4.8
309.815	4.71
310.184	4.7
310.554	4.72
310.923	4.67
311.293	4.69
311.662	4.62
312.031	4.67
312.401	4.68
312.77	4.77
313.139	4.73
313.508	4.6
313.877	4.69
314.246	4.65
314.616	4.61
314.985	4.54
315.353	4.52
315.722	4.62
316.091	4.51
316.46	4.42
316.829	4.51
317.198	4.54
317.567	4.47
317.935	4.37
318.304	4.46
318.672	4.61
319.041	4.72
319.41	4.91
319.778	4.86
320.147	4.8
320.515	4.69
320.883	4.66
321.252	4.76
321.62	4.68
321.988	4.7
322.357	4.86
322.725	4.86
323.093	4.97
323.461	4.86
323.829	5.05
324.197	5.09
324.565	5.05
324.933	5.1
325.301	5.29
325.669	5.37
326.037	5.08
326.405	4.87
326.772	4.67
327.14	4.69
327.508	4.7
327.875	4.62
328.243	4.67
328.61	4.61
328.978	4.61
329.346	4.66
329.713	4.64
330.08	4.47
330.448	4.42
330.815	4.34
331.182	4.45
331.55	4.35
331.917	4.51
332.284	4.53
332.651	4.38
333.018	4.23
333.385	4.2
333.752	4.36
334.119	4.46
334.486	4.57
334.853	4.39
335.22	4.42
335.587	4.39
335.954	4.46
336.32	4.51
336.687	4.46
337.054	4.37
337.42	4.43
337.787	4.44
338.153	4.51
338.52	4.56
338.886	4.45
339.253	4.35
339.619	4.26
339.986	4.24
340.352	4.34
340.718	4.47
341.084	4.33
341.451	4.33
341.817	4.37
342.183	4.37
342.549	4.47
342.915	4.59
343.281	4.73
343.647	4.69
344.013	4.66
344.379	4.6
344.745	4.73
345.11	4.62
345.476	4.64
345.842	4.58
346.208	4.5
346.573	4.62
346.939	4.87
347.304	4.83
347.67	4.75
348.035	4.73
348.401	4.65
348.766	4.7
349.132	4.67
349.497	4.62
349.862	4.75
350.228	4.75
350.593	4.65
350.958	4.58
351.323	4.61
351.688	4.63
352.053	4.74
352.418	4.73
352.783	4.83
353.148	4.85
353.513	4.88
353.878	5
354.243	4.98
354.608	4.88
354.972	4.94
355.337	4.95
355.702	5.02
356.066	5.1
356.431	5.12
356.795	5.22
357.16	5.24
357.524	5.16
357.889	5.1
358.253	5.18
358.618	5.23
358.982	5.18
359.346	5.2
359.71	5.15
360.075	5.13
360.439	5.12
360.803	5.09
361.167	5.05
361.531	5
361.895	5.01
362.259	5.01
362.623	5
362.987	5.06
363.351	5.05
363.714	5
364.078	5
364.442	4.89
364.806	4.9
365.169	4.86
365.533	4.86
365.896	4.76
366.26	4.69
366.623	4.82
366.987	4.78
367.35	4.74
367.714	4.74
368.077	4.67
368.44	4.71
368.803	4.7
369.167	4.71
369.53	4.64
369.893	4.65
370.256	4.65
370.619	4.59
370.982	4.53
371.345	4.5
371.708	4.54
372.071	4.54
372.434	4.56
372.797	4.6
373.159	4.61
373.522	4.66
373.885	4.72
374.247	4.67
374.61	4.71
374.973	4.75
375.335	4.76
375.698	4.8
376.06	4.81
376.423	4.79
376.785	4.8
377.147	4.84
377.51	4.81
377.872	4.82
378.234	4.81
378.596	4.82
378.958	4.83
379.321	4.79
379.683	4.84
380.045	4.82
380.407	4.76
380.769	4.75
381.13	4.72
381.492	4.74
381.854	4.72
382.216	4.65
382.578	4.68
382.939	4.64
383.301	4.63
383.663	4.59
384.024	4.62
384.386	4.61
384.747	4.59
385.109	4.64
385.47	4.63
385.832	4.68
386.193	4.74
386.554	4.74
386.916	4.75
387.277	4.76
387.638	4.78
387.999	4.84
388.36	4.84
388.721	4.86
389.082	4.86
389.443	4.83
389.804	4.86
390.165	4.85
390.526	4.87
390.887	4.87
391.248	4.91
391.609	4.93
391.969	4.96
392.33	4.95
392.691	4.92
393.051	4.92
393.412	4.89
393.772	4.86
394.133	4.9
394.493	4.9
394.854	4.86
395.214	4.87
395.574	4.87
395.935	4.9
396.295	4.9
396.655	4.88
397.015	4.87
397.376	4.9
397.736	4.92
398.096	4.93
398.456	4.89
398.816	4.91
399.176	4.89
399.535	4.86
399.895	4.86
400.255	4.88
400.615	4.89
400.975	4.89
401.334	4.92
401.694	4.89
402.054	4.85
402.413	4.87
402.773	4.88
403.132	4.85
403.492	4.84
403.851	4.87
404.211	4.84
404.57	4.85
404.929	4.8
405.288	4.78
405.648	4.77
406.007	4.82
406.366	4.78
406.725	4.77
407.084	4.79
407.443	4.78
407.802	4.8
408.161	4.78
408.52	4.78
408.879	4.74
409.238	4.75
409.596	4.8
409.955	4.8
410.314	4.79
410.673	4.79
411.031	4.77
411.39	4.75
411.748	4.77
412.107	4.75
412.465	4.78
412.824	4.82
413.182	4.81
413.54	4.81
413.899	4.84
414.257	4.84
414.615	4.85
414.974	4.89
415.332	4.87
415.69	4.87
416.048	4.87
416.406	4.87
416.764	4.86
417.122	4.85
417.48	4.86
417.838	4.86
418.195	4.87
418.553	4.88
418.911	4.88
419.269	4.9
419.626	4.91
419.984	4.92
420.342	4.91
420.699	4.93
421.057	4.92
421.414	4.92
421.772	4.92
422.129	4.91
422.486	4.9
422.844	4.91
423.201	4.91
423.558	4.91
423.915	4.9
424.273	4.9
424.63	4.9
424.987	4.9
425.344	4.9
425.701	4.9
426.058	4.9
426.415	4.89
426.772	4.89
427.128	4.88
427.485	4.88
427.842	4.87
428.199	4.85
428.555	4.84
428.912	4.83
429.269	4.86
429.625	4.85
429.982	4.83
430.338	4.8
430.695	4.81
431.051	4.8
431.407	4.82
431.764	4.82
432.12	4.8
432.476	4.8
432.832	4.78
433.189	4.78
433.545	4.78
433.901	4.76
434.257	4.74
434.613	4.75
434.969	4.73
435.325	4.76
435.681	4.75
436.036	4.75
436.392	4.77
436.748	4.75
437.104	4.75
437.459	4.76
437.815	4.77
438.171	4.77
438.526	4.76
438.882	4.75
439.237	4.76
439.593	4.76
439.948	4.76
440.304	4.77
440.659	4.78
441.014	4.78
441.369	4.8
441.725	4.8
442.08	4.81
442.435	4.83
442.79	4.81
443.145	4.82
443.5	4.83
443.855	4.83
444.21	4.83
444.565	4.84
444.92	4.85
445.275	4.85
445.629	4.83
445.984	4.84
446.339	4.84
446.693	4.82
447.048	4.82
447.403	4.82
447.757	4.81
448.112	4.8
448.466	4.78
448.82	4.76
449.175	4.78
449.529	4.77
449.883	4.75
450.238	4.76
450.592	4.75
450.946	4.73
451.3	4.71
451.654	4.71
452.008	4.7
452.362	4.71
452.716	4.7
453.07	4.73
453.424	4.73
453.778	4.75
454.132	4.76
454.486	4.76
454.839	4.75
455.193	4.76
455.547	4.75
455.9	4.77
456.254	4.81
456.607	4.79
456.961	4.8
457.314	4.81
457.668	4.81
458.021	4.82
458.375	4.85
458.728	4.87
459.081	4.87
459.434	4.87
459.787	4.86
460.141	4.88
460.494	4.86
460.847	4.86
461.2	4.86
461.553	4.88
461.906	4.89
462.259	4.91
462.611	4.92
462.964	4.94
463.317	4.95
463.67	4.95
464.022	4.97
464.375	4.94
464.728	4.95
465.08	4.93
465.433	4.93
465.785	4.92
466.138	4.93
466.49	4.94
466.843	4.95
467.195	4.96
467.547	4.96
467.899	4.98
468.252	4.99
468.604	4.98
468.956	4.94
469.308	4.95
469.66	4.91
470.012	4.91
470.364	4.9
470.716	4.9
471.068	4.88
471.42	4.89
471.772	4.93
472.123	4.94
472.475	4.96
472.827	4.97
473.178	4.97
473.53	4.96
473.882	4.95
474.233	4.94
474.585	4.94
474.936	4.92
475.288	4.91
475.639	4.91
475.99	4.94
476.342	4.96
476.693	4.96
477.044	4.99
477.395	5.02
477.746	5.03
478.097	5.02
478.448	5.03
478.8	5.02
479.15	4.99
479.501	4.99
479.852	4.99
480.203	4.99
480.554	5
480.905	5
481.255	5.01
481.606	5.03
481.957	5.04
482.307	5.05
482.658	5.04
483.009	5.04
483.359	5.04
483.709	5.06
484.06	5.06
484.41	5.07
484.761	5.06
485.111	5.05
485.461	5.06
485.811	5.06
486.162	5.06
486.512	5.07
486.862	5.08
487.212	5.08
487.562	5.09
487.912	5.08
488.262	5.08
488.612	5.07
488.961	5.08
489.311	5.08
489.661	5.07
490.011	5.09
490.36	5.08
490.71	5.08
491.06	5.08
491.409	5.08
491.759	5.08
492.108	5.09
492.458	5.1
492.807	5.08
493.157	5.09
493.506	5.1
493.855	5.11
494.204	5.1
494.554	5.1
494.903	5.1
495.252	5.11
495.601	5.13
495.95	5.14
496.299	5.12
496.648	5.1
496.997	5.11
497.346	5.12
497.695	5.14
498.043	5.13
498.392	5.13
498.741	5.14
499.09	5.13
499.438	5.13
499.787	5.13
500.135	5.16
500.484	5.14
500.832	5.16
501.181	5.15
501.529	5.15
501.878	5.17
502.226	5.19
502.574	5.2
502.923	5.18
503.271	5.19
503.619	5.21
503.967	5.23
504.315	5.24
504.663	5.24
505.011	5.26
505.359	5.27
505.707	5.3
506.055	5.29
506.403	5.3
506.751	5.31
507.098	5.31
507.446	5.32
507.794	5.33
508.141	5.33
508.489	5.34
508.837	5.36
509.184	5.37
509.531	5.39
509.879	5.4
510.226	5.42
510.574	5.41
510.921	5.42
511.268	5.42
511.616	5.44
511.963	5.47
512.31	5.47
512.657	5.48
513.004	5.46
513.351	5.47
513.698	5.47
514.045	5.48
514.392	5.49
514.739	5.49
515.086	5.52
515.432	5.51
515.779	5.51
516.126	5.54
516.473	5.53
516.819	5.53
517.166	5.54
517.512	5.54
517.859	5.55
518.205	5.54
518.552	5.56
518.898	5.56
519.245	5.53
519.591	5.52
519.937	5.51
520.283	5.51
520.629	5.51
520.976	5.52
521.322	5.54
521.668	5.52
522.014	5.55
522.36	5.54
522.706	5.55
523.052	5.57
523.398	5.58
523.743	5.6
524.089	5.6
524.435	5.61
524.781	5.61
525.126	5.62
525.472	5.62
525.817	5.62
526.163	5.63
526.509	5.65
526.854	5.68
527.199	5.69
527.545	5.7
527.89	5.71
528.235	5.71
528.581	5.7
528.926	5.7
529.271	5.7
529.616	5.7
529.961	5.71
530.306	5.71
530.651	5.71
530.996	5.71
531.341	5.72
531.686	5.72
532.031	5.72
532.376	5.73
532.721	5.74
533.065	5.74
533.41	5.73
533.755	5.72
534.099	5.72
534.444	5.73
534.788	5.75
535.133	5.75
535.477	5.77
535.822	5.78
536.166	5.78
536.51	5.79
536.855	5.8
537.199	5.79
537.543	5.79
537.887	5.79
538.231	5.79
538.576	5.79
538.92	5.8
539.264	5.82
539.608	5.81
539.951	5.83
540.295	5.84
540.639	5.86
540.983	5.87
541.327	5.87
541.671	5.86
542.014	5.85
542.358	5.86
542.701	5.86
543.045	5.86
543.389	5.87
543.732	5.88
544.075	5.88
544.419	5.89
544.762	5.89
545.105	5.89
545.449	5.89
545.792	5.9
546.135	5.88
546.478	5.87
546.821	5.89
547.165	5.85
547.508	5.87
547.851	5.86
548.194	5.84
548.536	5.83
548.879	5.84
549.222	5.83
549.565	5.8
549.908	5.81
550.25	5.83
550.593	5.84
550.936	5.84
551.278	5.84
551.621	5.85
551.963	5.85
552.306	5.86
552.648	5.85
552.991	5.86
553.333	5.91
553.675	5.89
554.017	5.92
554.36	5.95
554.702	5.98
555.044	5.96
555.386	5.95
555.728	5.95
556.07	5.96
556.412	5.96
556.754	5.99
557.096	5.97
557.438	5.95
557.78	5.97
558.121	5.97
558.463	5.98
558.805	5.97
559.147	5.94
559.488	5.95
559.83	5.97
560.171	5.97
560.513	5.96
560.854	5.98
561.196	5.96
561.537	5.92
561.878	5.89
562.22	5.9
562.561	5.91
562.902	5.93
563.243	5.91
563.584	5.95
563.925	5.95
564.266	5.97
564.607	5.99
564.948	5.98
565.289	5.97
565.63	5.95
565.971	5.94
566.312	5.97
566.653	5.96
566.993	5.96
567.334	5.95
567.675	5.98
568.015	5.97
568.356	5.95
568.696	5.99
569.037	6
569.377	6.02
569.718	6.05
570.058	6.03
570.398	6.02
570.739	6
571.079	6.01
571.419	6.01
571.759	6.01
572.099	6.03
572.439	6.02
572.779	6.02
573.119	6.04
573.459	6.04
573.799	6.07
574.139	6.07
574.479	6.06
574.819	6.04
575.158	6.05
575.498	6.05
575.838	6.07
576.177	6.06
576.517	6.06
576.856	6.04
577.196	6.04
577.535	6.05
577.875	6.09
578.214	6.08
578.553	6.09
578.893	6.08
579.232	6.06
579.571	6.12
579.91	6.12
580.25	6.14
580.589	6.14
580.928	6.11
581.267	6.12
581.606	6.16
581.945	6.14
582.283	6.14
582.622	6.16
582.961	6.13
583.3	6.14
583.639	6.15
583.977	6.22
584.316	6.22
584.654	6.25
584.993	6.25
585.332	6.25
585.67	6.24
586.008	6.19
586.347	6.2
586.685	6.16
587.024	6.15
587.362	6.17
587.7	6.2
588.038	6.17
588.376	6.19
588.715	6.19
589.053	6.2
589.391	6.2
589.729	6.2
590.067	6.17
590.404	6.17
590.742	6.18
591.08	6.15
591.418	6.18
591.756	6.19
592.093	6.15
592.431	6.18
592.769	6.16
593.106	6.21
593.444	6.19
593.781	6.19
594.119	6.24
594.456	6.2
594.793	6.19
595.131	6.21
595.468	6.23
595.805	6.18
596.143	6.2
596.48	6.22
596.817	6.21
597.154	6.23
597.491	6.25
597.828	6.24
598.165	6.23
598.502	6.19
598.839	6.17
599.176	6.18
599.512	6.19
599.849	6.21
600.186	6.18
600.523	6.22
600.859	6.28
601.196	6.27
601.532	6.27
601.869	6.27
602.205	6.27
602.542	6.3
602.878	6.31
603.215	6.31
603.551	6.3
603.887	6.29
604.223	6.3
604.56	6.29
604.896	6.3
605.232	6.34
605.568	6.38
605.904	6.38
606.24	6.4
606.576	6.37
606.912	6.36
607.248	6.39
607.583	6.41
607.919	6.37
608.255	6.35
608.591	6.41
608.926	6.42
609.262	6.42
609.597	6.38
609.933	6.4
610.268	6.43
610.604	6.43
610.939	6.44
611.275	6.47
611.61	6.49
611.945	6.49
612.281	6.45
612.616	6.44
612.951	6.44
613.286	6.45
613.621	6.52
613.956	6.47
614.291	6.47
614.626	6.46
614.961	6.41
615.296	6.4
615.631	6.35
615.966	6.39
616.3	6.35
616.635	6.34
616.97	6.33
617.304	6.29
617.639	6.36
617.973	6.36
618.308	6.36
618.642	6.38
618.977	6.37
619.311	6.37
619.646	6.43
619.98	6.42
620.314	6.42
620.648	6.4
620.983	6.52
621.317	6.49
621.651	6.52
621.985	6.58
622.319	6.6
622.653	6.59
622.987	6.61
623.321	6.63
623.655	6.64
623.988	6.65
624.322	6.65
624.656	6.63
624.99	6.64
625.323	6.63
625.657	6.64
625.99	6.69
626.324	6.7
626.657	6.64
626.991	6.67
627.324	6.66
627.658	6.67
627.991	6.63
628.324	6.63
628.657	6.59
628.991	6.54
629.324	6.53
629.657	6.56
629.99	6.51
630.323	6.5
630.656	6.48
630.989	6.48
631.322	6.47
631.655	6.45
631.987	6.44
632.32	6.46
632.653	6.41
632.986	6.38
633.318	6.34
633.651	6.35
633.984	6.33
634.316	6.29
634.649	6.28
634.981	6.29
635.313	6.28
635.646	6.35
635.978	6.42
636.31	6.49
636.643	6.48
636.975	6.5
637.307	6.56
637.639	6.58
637.971	6.58
638.303	6.58
638.635	6.51
638.967	6.55
639.299	6.55
639.631	6.51
639.963	6.47
640.295	6.53
640.626	6.63
640.958	6.63
641.29	6.68
641.621	6.67
641.953	6.68
642.285	6.69
642.616	6.73
642.948	6.7
643.279	6.7
643.61	6.7
643.942	6.69
644.273	6.63
644.604	6.64
644.936	6.63
645.267	6.66
645.598	6.73
645.929	6.74
646.26	6.78
646.591	6.84
646.922	6.85
647.253	6.87
647.584	6.8
647.915	6.76
648.245	6.78
648.576	6.82
648.907	6.83
649.238	6.85
649.568	6.78
649.899	6.77
650.229	6.79
650.56	6.8
650.89	6.83
651.221	6.85
651.551	6.85
651.882	6.88
652.212	6.91
652.542	6.96
652.872	6.93
653.203	6.86
653.533	6.9
653.863	6.96
654.193	6.91
654.523	6.91
654.853	6.92
655.183	6.93
655.513	6.88
655.843	6.77
656.172	6.82
656.502	6.85
656.832	6.83
657.162	6.78
657.491	6.69
657.821	6.71
658.15	6.74
658.48	6.72
658.809	6.72
659.139	6.66
659.468	6.63
659.798	6.62
660.127	6.7
660.456	6.67
660.785	6.63
661.115	6.64
661.444	6.63
661.773	6.73
662.102	6.72
662.431	6.78
662.76	6.88
663.089	6.8
663.418	6.75
663.747	6.78
664.076	6.78
664.404	6.86
664.733	6.88
665.062	6.93
665.39	6.89
665.719	6.84
666.048	6.91
666.376	6.95
666.705	6.97
667.033	6.82
667.362	6.8
667.69	6.84
668.018	6.86
668.347	6.85
668.675	6.75
669.003	6.74
669.331	6.8
669.659	6.83
669.987	6.89
670.315	6.96
670.643	7.03
670.971	7.08
671.299	7.09
671.627	7.08
671.955	6.96
672.283	6.98
672.61	7.04
672.938	7.01
673.266	7.07
673.593	7.17
673.921	7.26
674.249	7.37
674.576	7.39
674.904	7.34
675.231	7.34
675.558	7.32
675.886	7.33
676.213	7.28
676.54	7.3
676.867	7.29
677.195	7.29
677.522	7.24
677.849	7.22
678.176	7.21
678.503	7.19
678.83	7.3
679.157	7.31
679.484	7.38
679.81	7.38
680.137	7.27
680.464	7.15
680.791	7.16
681.117	7.15
681.444	7.11
681.771	7.21
682.097	7.21
682.424	7.25
682.75	7.27
683.077	7.2
683.403	7.2
683.729	7.15
684.056	7.11
684.382	7.11
684.708	7.07
685.034	6.94
685.36	6.93
685.686	6.84
686.012	6.85
686.339	6.83
686.664	6.83
686.99	6.88
687.316	6.92
687.642	7.01
687.968	6.93
688.294	6.99
688.619	6.97
688.945	6.92
689.271	6.94
689.596	6.89
689.922	6.98
690.247	6.86
690.573	6.91
690.898	7
691.224	6.98
691.549	7
691.874	7.16
692.2	7.19
692.525	7.22
692.85	7.4
693.175	7.38
693.5	7.35
693.825	7.36
694.15	7.33
694.475	7.34
694.8	7.39
695.125	7.35
695.45	7.22
695.775	7.27
696.099	7.33
696.424	7.38
696.749	7.28
697.073	7.44
697.398	7.41
697.723	7.36
698.047	7.43
698.372	7.45
698.696	7.47
699.02	7.45
699.345	7.47
699.669	7.39
699.993	7.32
700.318	7.33
700.642	7.31
700.966	7.33
701.29	7.25
701.614	7.29
701.938	7.27
702.262	7.45
702.586	7.47
702.91	7.31
703.234	7.36
703.557	7.48
703.881	7.4
704.205	7.49
704.529	7.45
704.852	7.39
705.176	7.37
705.499	7.38
705.823	7.38
706.146	7.36
706.47	7.36
706.793	7.45
707.117	7.53
707.44	7.55
707.763	7.59
708.086	7.48
708.409	7.31
708.733	7.32
709.056	7.24
709.379	7.35
709.702	7.38
710.025	7.18
710.348	7.19
710.671	7.04
710.993	7.1
711.316	7.07
711.639	7.1
711.962	7.25
712.284	7.36
712.607	7.42
712.93	7.38
713.252	7.22
713.575	7.27
713.897	7.35
714.22	7.38
714.542	7.24
714.864	7.4
715.187	7.48
715.509	7.55
715.831	7.7
716.153	7.73
716.475	7.79
716.798	8.02
717.12	8.03
717.442	8.22
717.764	8.12
718.085	8.24
718.407	8.32
718.729	8.16
719.051	8.04
719.373	7.94
719.695	7.92
720.016	8.11
720.338	8.01
720.659	7.83
720.981	7.74
721.302	7.79
721.624	7.84
721.945	7.93
722.267	7.95
722.588	7.54
722.909	7.34
723.231	7.26
723.552	7.09
723.873	7.14
724.194	6.94
724.515	7.05
724.836	7.08
725.157	7.06
725.478	7
725.799	7.1
726.12	7.11
726.441	7.1
726.762	7.1
727.083	7.18
727.403	7.23
727.724	7.46
728.045	7.68
728.365	7.48
728.686	7.48
729.006	7.34
729.327	7.61
729.647	7.75
729.967	7.88
730.288	8.04
730.608	7.9
730.928	7.87
731.249	7.68
731.569	7.82
731.889	7.77
732.209	7.92
732.529	7.8
732.849	7.89
733.169	7.98
733.489	8.12
733.809	8.04
734.129	8
734.448	8.06
734.768	7.92
735.088	8.06
735.408	7.93
735.727	8.14
736.047	8.26
736.366	8.13
736.686	8.2
737.005	8.22
737.325	8.33
737.644	8.49
737.963	8.64
738.283	8.34
738.602	8.47
738.921	8.49
739.24	8.58
739.56	8.58
739.879	8.51
740.198	8.52
740.517	8.55
740.836	8.62
741.155	8.58
741.473	8.87
741.792	9.03
742.111	9.15
742.43	9.07
742.748	8.77
743.067	8.83
743.386	8.74
743.704	8.65
744.023	8.72
744.341	8.71
744.66	8.97
744.978	9.08
745.297	9
745.615	8.92
745.933	9.04
746.252	9.26
746.57	9.38
746.888	9.2
747.206	9.05
747.524	9.09
747.842	8.92
748.16	8.64
748.478	8.52
748.796	8.45
749.114	8.64
749.432	8.71
749.749	8.73
750.067	8.91
750.385	8.85
750.703	8.86
751.02	8.78
751.338	8.34
751.655	8.31
751.973	8.38
752.29	8.32
752.608	7.96
752.925	7.75
753.242	7.84
753.56	7.81
753.877	8.11
754.194	7.77
754.511	7.88
754.828	7.88
755.145	7.71
755.462	7.67
755.779	7.58
756.096	7.89
756.413	8.2
756.73	8.17
757.047	8.1
757.364	7.88
757.68	8.03
757.997	8.25
758.314	8.44
758.63	8.3
758.947	8.41
759.264	8.69
759.58	8.64
759.896	8.56
760.213	8.39
760.529	8.42
760.846	8.82
761.162	8.9
761.478	8.9
761.794	8.98
762.11	9.08
762.426	9.01
762.743	8.76
763.059	8.56
763.375	8.64
763.69	8.81
764.006	9.06
764.322	9.01
764.638	9.11
764.954	9.18
765.27	9.18
765.585	9.23
765.901	9.26
766.216	9.35
766.532	9.32
766.848	9.4
767.163	9.37
767.478	9.25
767.794	9.21
768.109	9.24
768.424	9.38
768.74	9.47
769.055	9.52
769.37	9.88
769.685	10.04
770	10.01
770.315	10.01
770.63	9.99
770.945	10.19
771.26	10.26
771.575	9.95
771.89	10.31
772.205	10.22
772.52	9.97
772.834	10.08
773.149	10.23
773.464	10.11
773.778	10.44
774.093	10.29
774.407	10.06
774.722	10.09
775.036	9.81
775.351	9.88
775.665	9.69
775.979	8.89
776.293	8.6
776.608	8.23
776.922	8.07
777.236	7.85
777.55	7.97
777.864	7.88
778.178	8.28
778.492	7.8
778.806	7.35
779.12	7.62
779.434	7.58
779.747	7.71
780.061	8.16
780.375	7.66
780.689	7.91
781.002	8.23
781.316	8.22
781.629	8.5
781.943	8.51
782.256	8.54
782.57	9.02
782.883	9.01
783.196	9.19
783.51	9.08
783.823	9.08
784.136	8.94
784.449	9.1
784.762	9.14
785.075	9.12
785.388	9.83
785.701	10.33
786.014	10.26
786.327	10.22
786.64	10.5
786.953	10.81
787.266	10.58
787.578	10.19
787.891	10.16
788.204	10.15
788.516	10.23
788.829	10.59
789.141	10.67
789.454	11.12
789.766	11.08
790.079	11.27
790.391	11.26
790.703	11.33
791.016	11.14
791.328	11.02
791.64	11.38
791.952	11.59
792.264	10.75
792.576	10.73
792.888	10.58
793.2	10.49
793.512	10.6
793.824	11.09
794.136	11.39
794.448	11.88
794.76	11.59
795.071	11.65
795.383	11.25
795.695	11.39
796.006	11.15
796.318	11.42
796.629	11.67
796.941	12.06
797.252	12.16
797.564	12.01
797.875	11.72
798.186	11.46
798.497	10.93
798.809	11.02
799.12	11.18
799.431	11.18
799.742	10.81
800.053	10.72
800.364	10.78
800.675	10.59
800.986	10.23
801.297	10.54
801.608	10
801.918	10.5
802.229	10.64
802.54	10.93
802.851	10.82
803.161	10.77
803.472	10.89
803.782	10.36
804.093	10.53
804.403	10.55
804.714	10.59
805.024	11.03
805.334	11.39
805.645	11.45
805.955	12.01
806.265	12.37
806.575	12.22
806.885	11.83
807.195	11.97
807.505	12.18
807.815	11.91
808.125	11.83
808.435	11.21
808.745	11
809.055	11.14
809.365	11.26
809.674	11.11
809.984	10.84
810.294	11.01
810.603	10.94
810.913	11.86
811.222	12.37
811.532	11.83
811.841	12.23
812.151	12.55
812.46	11.86
812.769	11.47
813.079	11.43
813.388	11.56
813.697	11.97
814.006	11.83
814.315	11.93
814.624	12.16
814.933	12.38
815.242	12.5
815.551	12.01
815.86	11.87
816.169	11.4
816.478	10.37
816.786	10.3
817.095	10.28
817.404	9.95
817.712	9.45
818.021	9.77
818.33	9.37
818.638	8.88
818.947	9.71
819.255	10.2
819.563	10.24
819.872	10.18
820.18	10.3
820.488	10.4
820.796	10.72
821.105	10.96
821.413	10.98
821.721	10.9
822.029	10.98
822.337	11.02
822.645	11.22
822.953	11.34
823.26	11.59
823.568	11.67
823.876	11.72
824.184	11.76
824.491	11.76
824.799	11.86
825.107	11.93
825.414	11.81
825.722	11.74
826.029	11.76
826.337	11.86
826.644	11.87
826.951	11.93
827.259	11.96
827.566	11.85
827.873	12.04
828.18	12.24
828.488	12.24
828.795	12.09
829.102	12.08
829.409	12.56
829.716	12.13
830.023	12.23
830.329	12.09
830.636	12.26
830.943	12.34
831.25	12.17
831.557	12.31
831.863	12.41
832.17	12.41
832.476	12.46
832.783	12.62
833.089	12.38
833.396	12.61
833.702	12.67
834.009	12.7
834.315	12.11
834.621	11.74
834.928	11.5
835.234	11.82
835.54	11.83
835.846	11.53
836.152	11.73
836.458	11.34
836.764	11.44
837.07	11.22
837.376	10.97
837.682	10.91
837.988	10.28
838.293	10.09
838.599	10.28
838.905	10.01
839.211	10.02
839.516	10.12
839.822	9.85
840.127	8.87
840.433	9.28
840.738	9.85
841.044	9.8
841.349	10.88
841.654	10.6
841.959	11.01
842.265	10.46
842.57	10.08
842.875	10.47
843.18	10.64
843.485	11.06
843.79	11.7
844.095	11.8
844.4	13.54
844.705	12.89
845.01	12.53
845.315	12.72
845.619	12.32
845.924	12.48
846.229	12.21
846.533	12.93
846.838	9.58
847.142	8.87
847.447	8.2
847.751	7.59
848.056	6.91
848.36	7.24
848.664	7.55
848.969	9.25
849.273	8.18
849.577	7.12
849.881	7.3
850.185	6.4
850.489	6.29
850.794	5.11
851.097	7.71
851.401	6.04
851.705	5.86
852.009	5.1
852.313	4.82
852.617	2.64
852.92	3.94
853.224	6.77
853.528	8.13
853.831	8.46
854.135	7.03
854.438	7.66
854.742	5.71
855.045	6.48
855.349	4.61
855.652	4.96
855.955	6.6
856.259	4.93
856.562	5.29
856.865	5.76
857.168	6.55
857.471	7.05
857.774	10.21
858.077	11.86
858.38	13.66
858.683	14.73
858.986	16.12
859.289	13.52
859.592	14.04
859.894	15.04
860.197	15.78
860.5	18.44
860.802	19.88
861.105	20.37
861.407	19.97
861.71	19.47
862.012	19.11
862.315	15.47
862.617	16.06
862.919	16.1
863.222	16.49
863.524	16.32
863.826	13.98
864.128	10.53
864.43	10.15
864.732	8.51
865.034	7.38
865.336	7.64
865.638	7.7
865.94	7.4
866.242	5.84
866.544	5.44
866.846	4.3
867.147	3.55
867.449	2.6
867.751	3.44
868.052	7.3
868.354	9.75
868.655	13.14
868.957	12.84
869.258	11.79
869.56	11.95
869.861	11.06
870.162	10.53
870.463	13.83
870.765	13.36
871.066	14.53
871.367	15.06
871.668	14.58
871.969	12.8
872.27	11.07
872.571	10.05
872.872	9.72
873.173	8.72
873.473	8.61
873.774	9.18
874.075	7.2
874.376	3.18
874.676	3.13
874.977	0.19
875.277	0.98
875.578	3.73
875.878	2.13
876.179	2.49
876.479	2.27
876.78	0.89
877.08	0.53
877.38	-0.65
877.68	-1.39
877.981	-1.36
878.281	1.94
878.581	4.74
