Data from BA28468_Reflection_00003.txt Node
Date: Mon Nov 18 15:14:44 EST 2019
User: vgr7
Spectrometer: USB2G7710
Scans to average: 3
Trigger mode: 4
Integration Time (sec): 2.000000E-2
Electric dark correction enabled: true
Boxcar width: 10
XAxis mode: Wavelengths
Number of Pixels in Spectrum: 2048
>>>>>Begin Spectral Data<<<<<
177.721	-33.53
178.105	385.71
178.488	14.42
178.871	66.53
179.254	51.76
179.636	205.26
180.019	66.62
180.402	65.45
180.785	-301.98
181.168	-162.43
181.55	-94.11
181.933	-1852.94
182.316	-564.94
182.698	-332.43
183.081	-221.17
183.463	-235.95
183.846	-14515.38
184.228	-1754.3
184.611	-480.53
184.993	-250.64
185.376	-169.41
185.758	-116.17
186.14	-115.22
186.522	-160.48
186.904	-132.43
187.287	-132.8
187.669	-85.47
188.051	-102.62
188.433	-77.55
188.815	-55.09
189.197	-71.69
189.579	-77.68
189.961	-78.31
190.342	-64.62
190.724	-55
191.106	-48
191.488	-54.05
191.869	-43.68
192.251	-32.88
192.633	-39.09
193.014	-41.15
193.396	-56.52
193.777	-38.57
194.159	-41.88
194.54	-34.51
194.922	-24.17
195.303	-28.4
195.684	-29.75
196.065	-22.67
196.447	-23.78
196.828	-33.95
197.209	-21.5
197.59	-21.46
197.971	-17.36
198.352	-15.84
198.733	-26.44
199.114	-32.25
199.495	-31.06
199.876	-32.32
200.257	-28.97
200.638	-20.52
201.018	-20.73
201.399	-18.72
201.78	-24.89
202.16	-24.63
202.541	-33.17
202.922	-46.48
203.302	-48.2
203.683	-45.59
204.063	-57
204.444	-61.66
204.824	-48.07
205.204	-43.79
205.585	-49.37
205.965	-52.04
206.345	-55.06
206.725	-60.54
207.106	-62.81
207.486	-62.19
207.866	-59.3
208.246	-61.51
208.626	-66.14
209.006	-53.98
209.386	-46.29
209.766	-47.79
210.145	-59.45
210.525	-40.29
210.905	-38.39
211.285	-21.72
211.664	-14.65
212.044	-4.05
212.424	-2.23
212.803	-1.64
213.183	1.26
213.562	6.83
213.942	-2.61
214.321	-0.33
214.701	-4.5
215.08	-8.94
215.459	5.85
215.838	0.49
216.218	-2.44
216.597	2.82
216.976	-3.95
217.355	-8.3
217.734	-18.27
218.113	-7.83
218.492	-7.03
218.871	-11.47
219.25	-10.82
219.629	-19.15
220.008	-20.75
220.387	-20.42
220.766	-28.76
221.144	-40.45
221.523	-44.48
221.902	-40.47
222.28	-35.72
222.659	-30.28
223.037	-23.9
223.416	-29.22
223.794	-19.13
224.173	-15.6
224.551	-12.22
224.929	-8.59
225.308	-4.88
225.686	3.72
226.064	2.53
226.442	-0.77
226.821	2.61
227.199	-4.38
227.577	-5.96
227.955	-1.67
228.333	-1.97
228.711	0.76
229.089	5.08
229.467	2.31
229.845	0.7
230.222	0.34
230.6	0.66
230.978	0.47
231.356	1.4
231.733	-0.96
232.111	-0.98
232.488	-0.04
232.866	0.42
233.243	1.46
233.621	1.03
233.998	2.08
234.376	1.88
234.753	0.94
235.13	2.33
235.508	4.16
235.885	2.28
236.262	2.65
236.639	1.54
237.016	0.05
237.393	3.63
237.77	4.04
238.147	4.66
238.524	4.5
238.901	4.69
239.278	4.99
239.655	6.1
240.032	5.92
240.409	5.14
240.785	4.71
241.162	4.16
241.539	3.88
241.915	3.19
242.292	3.15
242.668	3.25
243.045	3.75
243.421	3.72
243.798	3.83
244.174	3.9
244.551	4.09
244.927	4.19
245.303	4.08
245.679	4.14
246.056	3.88
246.432	4
246.808	4
247.184	3.69
247.56	3.33
247.936	3.19
248.312	3.43
248.688	3.61
249.064	3.85
249.44	3.95
249.815	4.31
250.191	4.52
250.567	4.73
250.943	4.59
251.318	4.44
251.694	4.64
252.069	4.53
252.445	4.71
252.82	4.7
253.196	4.37
253.571	4.61
253.947	4.59
254.322	4.8
254.697	4.73
255.073	4.68
255.448	4.73
255.823	5.01
256.198	4.91
256.573	4.51
256.948	4.51
257.323	4.44
257.698	4.3
258.073	4.36
258.448	4.31
258.823	4.28
259.198	4.42
259.573	4.33
259.948	4.3
260.322	4.34
260.697	4.38
261.072	4.4
261.446	4.39
261.821	4.39
262.195	4.3
262.57	4.3
262.944	4.42
263.319	4.51
263.693	4.42
264.067	4.39
264.442	4.76
264.816	4.57
265.19	4.61
265.564	4.68
265.938	4.4
266.313	4.18
266.687	4.19
267.061	4.27
267.435	4.19
267.809	4.28
268.183	4.26
268.556	4.08
268.93	4.15
269.304	3.78
269.678	3.88
270.051	3.73
270.425	3.71
270.799	3.73
271.172	3.72
271.546	3.6
271.919	3.47
272.293	3.35
272.666	3.46
273.04	3.44
273.413	3.36
273.787	3.47
274.16	3.56
274.533	3.48
274.906	3.31
275.279	3.16
275.653	3.15
276.026	3.05
276.399	3.2
276.772	3.25
277.145	3.36
277.518	3.31
277.891	3.48
278.263	3.63
278.636	3.56
279.009	3.61
279.382	3.93
279.755	4
280.127	4.08
280.5	4.18
280.872	4.32
281.245	4.44
281.617	4.56
281.99	4.68
282.362	4.68
282.735	4.62
283.107	4.87
283.479	4.72
283.852	4.79
284.224	4.81
284.596	4.89
284.968	5.12
285.34	5.16
285.713	5.19
286.085	5.2
286.457	5.37
286.829	5.37
287.201	5.26
287.572	5.31
287.944	5.24
288.316	5.17
288.688	5.11
289.06	5.17
289.431	5.14
289.803	5.22
290.175	5.37
290.546	5.52
290.918	5.48
291.289	5.67
291.661	5.68
292.032	5.74
292.403	5.7
292.775	5.67
293.146	5.63
293.517	5.6
293.889	5.55
294.26	5.49
294.631	5.44
295.002	5.44
295.373	5.36
295.744	5.42
296.115	5.44
296.486	5.4
296.857	5.23
297.228	5.3
297.599	5.19
297.97	5.18
298.34	5.2
298.711	5.15
299.082	5.2
299.452	5.28
299.823	5.3
300.194	5.25
300.564	5.18
300.935	5.27
301.305	5.2
301.676	5.17
302.046	5.28
302.416	5.33
302.787	5.36
303.157	5.47
303.527	5.38
303.897	5.4
304.267	5.53
304.637	5.81
305.008	5.82
305.378	5.86
305.748	5.82
306.117	5.86
306.487	5.98
306.857	5.87
307.227	5.71
307.597	5.76
307.967	5.81
308.336	5.78
308.706	5.78
309.076	5.95
309.445	5.91
309.815	5.72
310.184	5.73
310.554	5.83
310.923	5.87
311.293	5.96
311.662	5.84
312.031	5.72
312.401	5.53
312.77	5.46
313.139	5.43
313.508	5.57
313.877	5.47
314.246	5.47
314.616	5.54
314.985	5.58
315.353	5.52
315.722	5.59
316.091	5.68
316.46	5.59
316.829	5.48
317.198	5.47
317.567	5.55
317.935	5.55
318.304	5.48
318.672	5.36
319.041	5.28
319.41	5.36
319.778	5.39
320.147	5.45
320.515	5.52
320.883	5.61
321.252	5.65
321.62	5.8
321.988	5.74
322.357	5.76
322.725	5.8
323.093	5.83
323.461	5.68
323.829	5.7
324.197	5.89
324.565	5.94
324.933	6.04
325.301	6.05
325.669	5.98
326.037	5.89
326.405	5.98
326.772	6.13
327.14	6.3
327.508	6.36
327.875	6.35
328.243	6.34
328.61	6.19
328.978	6.11
329.346	6.13
329.713	6.16
330.08	6.23
330.448	6.17
330.815	6.05
331.182	6.11
331.55	6.18
331.917	6.09
332.284	6.09
332.651	6.11
333.018	6.25
333.385	6.29
333.752	6.38
334.119	6.44
334.486	6.29
334.853	6.2
335.22	6.21
335.587	6.21
335.954	6.15
336.32	6.26
336.687	6.26
337.054	6.3
337.42	6.36
337.787	6.3
338.153	6.45
338.52	6.49
338.886	6.46
339.253	6.34
339.619	6.26
339.986	6.23
340.352	6.21
340.718	6.05
341.084	6.09
341.451	6.14
341.817	6.13
342.183	6.14
342.549	6.15
342.915	6.11
343.281	6.21
343.647	6.24
344.013	6.23
344.379	6.17
344.745	6.12
345.11	6.04
345.476	6
345.842	5.91
346.208	5.85
346.573	5.85
346.939	5.94
347.304	6.04
347.67	6.06
348.035	6.09
348.401	6.04
348.766	6.01
349.132	5.93
349.497	5.94
349.862	5.93
350.228	5.95
350.593	5.97
350.958	5.94
351.323	5.95
351.688	6.04
352.053	6.15
352.418	6.18
352.783	6.25
353.148	6.27
353.513	6.26
353.878	6.32
354.243	6.34
354.608	6.37
354.972	6.37
355.337	6.33
355.702	6.32
356.066	6.39
356.431	6.37
356.795	6.46
357.16	6.46
357.524	6.48
357.889	6.48
358.253	6.47
358.618	6.49
358.982	6.45
359.346	6.38
359.71	6.32
360.075	6.27
360.439	6.25
360.803	6.26
361.167	6.28
361.531	6.33
361.895	6.33
362.259	6.21
362.623	6.22
362.987	6.24
363.351	6.25
363.714	6.28
364.078	6.27
364.442	6.21
364.806	6.13
365.169	6.1
365.533	6.08
365.896	6.08
366.26	6.09
366.623	6.14
366.987	6.19
367.35	6.21
367.714	6.3
368.077	6.31
368.44	6.29
368.803	6.28
369.167	6.22
369.53	6.25
369.893	6.34
370.256	6.33
370.619	6.3
370.982	6.21
371.345	6.16
371.708	6.23
372.071	6.24
372.434	6.22
372.797	6.27
373.159	6.29
373.522	6.31
373.885	6.33
374.247	6.35
374.61	6.39
374.973	6.39
375.335	6.3
375.698	6.33
376.06	6.3
376.423	6.34
376.785	6.42
377.147	6.44
377.51	6.46
377.872	6.46
378.234	6.55
378.596	6.64
378.958	6.64
379.321	6.65
379.683	6.65
380.045	6.71
380.407	6.69
380.769	6.7
381.13	6.68
381.492	6.63
381.854	6.59
382.216	6.55
382.578	6.57
382.939	6.57
383.301	6.56
383.663	6.57
384.024	6.55
384.386	6.52
384.747	6.49
385.109	6.47
385.47	6.42
385.832	6.39
386.193	6.44
386.554	6.43
386.916	6.38
387.277	6.39
387.638	6.4
387.999	6.39
388.36	6.37
388.721	6.39
389.082	6.4
389.443	6.36
389.804	6.36
390.165	6.37
390.526	6.38
390.887	6.32
391.248	6.34
391.609	6.33
391.969	6.34
392.33	6.34
392.691	6.32
393.051	6.32
393.412	6.35
393.772	6.27
394.133	6.3
394.493	6.3
394.854	6.32
395.214	6.27
395.574	6.28
395.935	6.29
396.295	6.33
396.655	6.34
397.015	6.39
397.376	6.41
397.736	6.37
398.096	6.39
398.456	6.46
398.816	6.47
399.176	6.48
399.535	6.47
399.895	6.42
400.255	6.42
400.615	6.46
400.975	6.45
401.334	6.51
401.694	6.48
402.054	6.49
402.413	6.52
402.773	6.53
403.132	6.51
403.492	6.48
403.851	6.45
404.211	6.45
404.57	6.45
404.929	6.44
405.288	6.43
405.648	6.4
406.007	6.38
406.366	6.38
406.725	6.41
407.084	6.41
407.443	6.46
407.802	6.49
408.161	6.49
408.52	6.49
408.879	6.46
409.238	6.51
409.596	6.52
409.955	6.48
410.314	6.5
410.673	6.52
411.031	6.53
411.39	6.52
411.748	6.51
412.107	6.5
412.465	6.49
412.824	6.54
413.182	6.58
413.54	6.59
413.899	6.62
414.257	6.61
414.615	6.59
414.974	6.61
415.332	6.59
415.69	6.59
416.048	6.6
416.406	6.58
416.764	6.53
417.122	6.55
417.48	6.55
417.838	6.57
418.195	6.57
418.553	6.58
418.911	6.59
419.269	6.59
419.626	6.61
419.984	6.6
420.342	6.6
420.699	6.58
421.057	6.57
421.414	6.54
421.772	6.54
422.129	6.55
422.486	6.56
422.844	6.57
423.201	6.55
423.558	6.55
423.915	6.57
424.273	6.59
424.63	6.57
424.987	6.57
425.344	6.55
425.701	6.56
426.058	6.56
426.415	6.56
426.772	6.57
427.128	6.54
427.485	6.55
427.842	6.54
428.199	6.55
428.555	6.55
428.912	6.57
429.269	6.58
429.625	6.57
429.982	6.55
430.338	6.55
430.695	6.56
431.051	6.55
431.407	6.55
431.764	6.54
432.12	6.54
432.476	6.53
432.832	6.55
433.189	6.54
433.545	6.53
433.901	6.53
434.257	6.54
434.613	6.56
434.969	6.57
435.325	6.58
435.681	6.6
436.036	6.61
436.392	6.61
436.748	6.61
437.104	6.64
437.459	6.64
437.815	6.64
438.171	6.63
438.526	6.64
438.882	6.64
439.237	6.65
439.593	6.68
439.948	6.69
440.304	6.66
440.659	6.66
441.014	6.67
441.369	6.67
441.725	6.66
442.08	6.65
442.435	6.66
442.79	6.65
443.145	6.64
443.5	6.65
443.855	6.64
444.21	6.63
444.565	6.62
444.92	6.61
445.275	6.59
445.629	6.6
445.984	6.61
446.339	6.6
446.693	6.58
447.048	6.57
447.403	6.57
447.757	6.58
448.112	6.58
448.466	6.57
448.82	6.56
449.175	6.56
449.529	6.57
449.883	6.53
450.238	6.52
450.592	6.53
450.946	6.51
451.3	6.49
451.654	6.5
452.008	6.49
452.362	6.48
452.716	6.5
453.07	6.48
453.424	6.48
453.778	6.48
454.132	6.49
454.486	6.49
454.839	6.48
455.193	6.48
455.547	6.47
455.9	6.49
456.254	6.5
456.607	6.47
456.961	6.47
457.314	6.5
457.668	6.5
458.021	6.49
458.375	6.5
458.728	6.51
459.081	6.51
459.434	6.51
459.787	6.52
460.141	6.52
460.494	6.54
460.847	6.55
461.2	6.55
461.553	6.56
461.906	6.55
462.259	6.55
462.611	6.55
462.964	6.57
463.317	6.57
463.67	6.57
464.022	6.57
464.375	6.56
464.728	6.57
465.08	6.57
465.433	6.58
465.785	6.6
466.138	6.61
466.49	6.62
466.843	6.65
467.195	6.66
467.547	6.66
467.899	6.67
468.252	6.69
468.604	6.73
468.956	6.73
469.308	6.73
469.66	6.72
470.012	6.73
470.364	6.73
470.716	6.74
471.068	6.76
471.42	6.77
471.772	6.8
472.123	6.8
472.475	6.8
472.827	6.8
473.178	6.78
473.53	6.77
473.882	6.78
474.233	6.77
474.585	6.73
474.936	6.74
475.288	6.74
475.639	6.7
475.99	6.66
476.342	6.67
476.693	6.68
477.044	6.71
477.395	6.71
477.746	6.72
478.097	6.7
478.448	6.68
478.8	6.69
479.15	6.69
479.501	6.67
479.852	6.69
480.203	6.72
480.554	6.74
480.905	6.75
481.255	6.75
481.606	6.76
481.957	6.79
482.307	6.8
482.658	6.79
483.009	6.8
483.359	6.81
483.709	6.82
484.06	6.83
484.41	6.84
484.761	6.84
485.111	6.85
485.461	6.85
485.811	6.88
486.162	6.86
486.512	6.87
486.862	6.88
487.212	6.87
487.562	6.86
487.912	6.85
488.262	6.85
488.612	6.84
488.961	6.84
489.311	6.82
489.661	6.81
490.011	6.83
490.36	6.83
490.71	6.82
491.06	6.8
491.409	6.79
491.759	6.77
492.108	6.76
492.458	6.74
492.807	6.74
493.157	6.72
493.506	6.73
493.855	6.73
494.204	6.72
494.554	6.72
494.903	6.73
495.252	6.73
495.601	6.74
495.95	6.76
496.299	6.73
496.648	6.73
496.997	6.75
497.346	6.73
497.695	6.74
498.043	6.74
498.392	6.73
498.741	6.74
499.09	6.75
499.438	6.76
499.787	6.77
500.135	6.76
500.484	6.76
500.832	6.77
501.181	6.76
501.529	6.78
501.878	6.79
502.226	6.8
502.574	6.81
502.923	6.79
503.271	6.78
503.619	6.81
503.967	6.83
504.315	6.8
504.663	6.79
505.011	6.77
505.359	6.81
505.707	6.81
506.055	6.82
506.403	6.83
506.751	6.83
507.098	6.82
507.446	6.86
507.794	6.86
508.141	6.85
508.489	6.85
508.837	6.85
509.184	6.83
509.531	6.83
509.879	6.84
510.226	6.84
510.574	6.86
510.921	6.86
511.268	6.86
511.616	6.86
511.963	6.88
512.31	6.89
512.657	6.88
513.004	6.91
513.351	6.93
513.698	6.91
514.045	6.91
514.392	6.92
514.739	6.9
515.086	6.9
515.432	6.92
515.779	6.9
516.126	6.92
516.473	6.93
516.819	6.94
517.166	6.93
517.512	6.93
517.859	6.93
518.205	6.93
518.552	6.92
518.898	6.92
519.245	6.89
519.591	6.88
519.937	6.86
520.283	6.86
520.629	6.84
520.976	6.84
521.322	6.86
521.668	6.84
522.014	6.86
522.36	6.87
522.706	6.86
523.052	6.9
523.398	6.9
523.743	6.93
524.089	6.94
524.435	6.95
524.781	6.96
525.126	6.97
525.472	6.96
525.817	6.97
526.163	6.99
526.509	7.03
526.854	7.06
527.199	7.07
527.545	7.07
527.89	7.07
528.235	7.09
528.581	7.1
528.926	7.11
529.271	7.11
529.616	7.11
529.961	7.12
530.306	7.12
530.651	7.11
530.996	7.11
531.341	7.11
531.686	7.11
532.031	7.11
532.376	7.12
532.721	7.12
533.065	7.13
533.41	7.13
533.755	7.1
534.099	7.1
534.444	7.1
534.788	7.11
535.133	7.12
535.477	7.12
535.822	7.1
536.166	7.09
536.51	7.09
536.855	7.09
537.199	7.11
537.543	7.13
537.887	7.13
538.231	7.12
538.576	7.13
538.92	7.13
539.264	7.14
539.608	7.14
539.951	7.16
540.295	7.16
540.639	7.14
540.983	7.16
541.327	7.14
541.671	7.14
542.014	7.13
542.358	7.13
542.701	7.12
543.045	7.12
543.389	7.11
543.732	7.11
544.075	7.11
544.419	7.09
544.762	7.09
545.105	7.08
545.449	7.07
545.792	7.06
546.135	7.07
546.478	7.05
546.821	7.06
547.165	7.02
547.508	7.02
547.851	7.04
548.194	7.02
548.536	7.02
548.879	7.03
549.222	7.04
549.565	7.07
549.908	7.1
550.25	7.12
550.593	7.15
550.936	7.11
551.278	7.12
551.621	7.11
551.963	7.12
552.306	7.14
552.648	7.15
552.991	7.17
553.333	7.14
553.675	7.16
554.017	7.15
554.36	7.18
554.702	7.22
555.044	7.21
555.386	7.23
555.728	7.25
556.07	7.26
556.412	7.23
556.754	7.2
557.096	7.2
557.438	7.17
557.78	7.15
558.121	7.23
558.463	7.24
558.805	7.25
559.147	7.24
559.488	7.25
559.83	7.25
560.171	7.24
560.513	7.27
560.854	7.24
561.196	7.24
561.537	7.26
561.878	7.24
562.22	7.23
562.561	7.22
562.902	7.22
563.243	7.22
563.584	7.26
563.925	7.29
564.266	7.29
564.607	7.31
564.948	7.31
565.289	7.29
565.63	7.28
565.971	7.28
566.312	7.28
566.653	7.25
566.993	7.28
567.334	7.29
567.675	7.27
568.015	7.3
568.356	7.34
568.696	7.34
569.037	7.33
569.377	7.36
569.718	7.38
570.058	7.4
570.398	7.4
570.739	7.36
571.079	7.34
571.419	7.34
571.759	7.36
572.099	7.35
572.439	7.33
572.779	7.32
573.119	7.34
573.459	7.37
573.799	7.39
574.139	7.37
574.479	7.35
574.819	7.37
575.158	7.36
575.498	7.35
575.838	7.32
576.177	7.32
576.517	7.32
576.856	7.33
577.196	7.33
577.535	7.33
577.875	7.36
578.214	7.35
578.553	7.37
578.893	7.36
579.232	7.36
579.571	7.37
579.91	7.38
580.25	7.38
580.589	7.35
580.928	7.36
581.267	7.38
581.606	7.4
581.945	7.39
582.283	7.39
582.622	7.38
582.961	7.39
583.3	7.41
583.639	7.4
583.977	7.39
584.316	7.37
584.654	7.37
584.993	7.32
585.332	7.35
585.67	7.35
586.008	7.35
586.347	7.37
586.685	7.39
587.024	7.39
587.362	7.37
587.7	7.41
588.038	7.43
588.376	7.43
588.715	7.44
589.053	7.46
589.391	7.44
589.729	7.48
590.067	7.5
590.404	7.53
590.742	7.54
591.08	7.5
591.418	7.53
591.756	7.56
592.093	7.62
592.431	7.61
592.769	7.65
593.106	7.65
593.444	7.61
593.781	7.63
594.119	7.68
594.456	7.66
594.793	7.62
595.131	7.59
595.468	7.59
595.805	7.62
596.143	7.6
596.48	7.62
596.817	7.57
597.154	7.57
597.491	7.55
597.828	7.54
598.165	7.59
598.502	7.56
598.839	7.54
599.176	7.56
599.512	7.54
599.849	7.52
600.186	7.52
600.523	7.58
600.859	7.57
601.196	7.55
601.532	7.57
601.869	7.59
602.205	7.6
602.542	7.62
602.878	7.61
603.215	7.63
603.551	7.64
603.887	7.66
604.223	7.65
604.56	7.7
604.896	7.7
605.232	7.67
605.568	7.66
605.904	7.63
606.24	7.64
606.576	7.68
606.912	7.67
607.248	7.67
607.583	7.64
607.919	7.62
608.255	7.59
608.591	7.6
608.926	7.59
609.262	7.61
609.597	7.61
609.933	7.62
610.268	7.61
610.604	7.62
610.939	7.62
611.275	7.59
611.61	7.53
611.945	7.51
612.281	7.54
612.616	7.58
612.951	7.62
613.286	7.58
613.621	7.57
613.956	7.56
614.291	7.57
614.626	7.63
614.961	7.68
615.296	7.7
615.631	7.71
615.966	7.71
616.3	7.66
616.635	7.61
616.97	7.62
617.304	7.6
617.639	7.58
617.973	7.58
618.308	7.64
618.642	7.7
618.977	7.73
619.311	7.7
619.646	7.67
619.98	7.71
620.314	7.77
620.648	7.73
620.983	7.75
621.317	7.73
621.651	7.79
621.985	7.77
622.319	7.8
622.653	7.84
622.987	7.88
623.321	7.89
623.655	7.93
623.988	7.92
624.322	7.92
624.656	7.96
624.99	7.97
625.323	7.99
625.657	7.97
625.99	8.06
626.324	8.05
626.657	8.06
626.991	8.05
627.324	7.99
627.658	8
627.991	8.09
628.324	8.06
628.657	8.02
628.991	7.98
629.324	8.02
629.657	8.01
629.99	8.01
630.323	8.01
630.656	8
630.989	8
631.322	8.05
631.655	7.98
631.987	7.98
632.32	7.96
632.653	7.99
632.986	7.91
633.318	7.94
633.651	8.01
633.984	7.97
634.316	7.96
634.649	7.97
634.981	7.9
635.313	7.92
635.646	7.87
635.978	7.89
636.31	7.83
636.643	7.86
636.975	7.88
637.307	7.87
637.639	7.88
637.971	7.91
638.303	7.85
638.635	7.86
638.967	7.81
639.299	7.85
639.631	7.81
639.963	7.79
640.295	7.78
640.626	7.76
640.958	7.77
641.29	7.73
641.621	7.77
641.953	7.77
642.285	7.78
642.616	7.82
642.948	7.88
643.279	7.82
643.61	7.73
643.942	7.78
644.273	7.87
644.604	7.85
644.936	7.83
645.267	7.9
645.598	7.93
645.929	7.95
646.26	7.91
646.591	7.96
646.922	7.99
647.253	8.11
647.584	8.11
647.915	8.09
648.245	8.17
648.576	8.17
648.907	8.17
649.238	8.21
649.568	8.19
649.899	8.16
650.229	8.26
650.56	8.34
650.89	8.31
651.221	8.24
651.551	8.22
651.882	8.26
652.212	8.17
652.542	8.2
652.872	8.21
653.203	8.15
653.533	8.18
653.863	8.21
654.193	8.17
654.523	8.15
654.853	8.22
655.183	8.23
655.513	8.24
655.843	8.25
656.172	8.21
656.502	8.25
656.832	8.21
657.162	8.23
657.491	8.2
657.821	8.25
658.15	8.25
658.48	8.25
658.809	8.23
659.139	8.28
659.468	8.25
659.798	8.29
660.127	8.38
660.456	8.29
660.785	8.28
661.115	8.29
661.444	8.3
661.773	8.27
662.102	8.3
662.431	8.28
662.76	8.28
663.089	8.3
663.418	8.26
663.747	8.36
664.076	8.29
664.404	8.29
664.733	8.22
665.062	8.31
665.39	8.3
665.719	8.32
666.048	8.4
666.376	8.42
666.705	8.4
667.033	8.36
667.362	8.44
667.69	8.42
668.018	8.36
668.347	8.38
668.675	8.4
669.003	8.38
669.331	8.39
669.659	8.43
669.987	8.38
670.315	8.4
670.643	8.34
670.971	8.45
671.299	8.54
671.627	8.54
671.955	8.48
672.283	8.57
672.61	8.57
672.938	8.54
673.266	8.61
673.593	8.71
673.921	8.7
674.249	8.72
674.576	8.66
674.904	8.67
675.231	8.64
675.558	8.59
675.886	8.59
676.213	8.64
676.54	8.66
676.867	8.75
677.195	8.82
677.522	8.86
677.849	8.8
678.176	8.77
678.503	8.77
678.83	8.76
679.157	8.6
679.484	8.6
679.81	8.53
680.137	8.46
680.464	8.33
680.791	8.36
681.117	8.36
681.444	8.41
681.771	8.42
682.097	8.41
682.424	8.5
682.75	8.51
683.077	8.48
683.403	8.46
683.729	8.39
684.056	8.34
684.382	8.38
684.708	8.39
685.034	8.31
685.36	8.33
685.686	8.29
686.012	8.31
686.339	8.33
686.664	8.39
686.99	8.4
687.316	8.44
687.642	8.51
687.968	8.48
688.294	8.57
688.619	8.64
688.945	8.62
689.271	8.57
689.596	8.5
689.922	8.54
690.247	8.43
690.573	8.47
690.898	8.49
691.224	8.41
691.549	8.4
691.874	8.42
692.2	8.32
692.525	8.4
692.85	8.59
693.175	8.63
693.5	8.67
693.825	8.74
694.15	8.8
694.475	8.79
694.8	8.87
695.125	8.75
695.45	8.63
695.775	8.79
696.099	8.85
696.424	8.81
696.749	8.82
697.073	8.97
697.398	9.05
697.723	9.08
698.047	9.07
698.372	9.03
698.696	9.08
699.02	9.12
699.345	9.18
699.669	9.23
699.993	9.18
700.318	9.17
700.642	9.21
700.966	9.2
701.29	9.16
701.614	9.08
701.938	9.16
702.262	9.25
702.586	9.12
702.91	9.02
703.234	9.14
703.557	9.2
703.881	9.05
704.205	9.05
704.529	8.99
704.852	9
705.176	9.12
705.499	9.34
705.823	9.47
706.146	9.35
706.47	9.23
706.793	9.34
707.117	9.33
707.44	9.22
707.763	9.17
708.086	9.19
708.409	9.2
708.733	9.23
709.056	9.26
709.379	9.34
709.702	9.47
710.025	9.41
710.348	9.22
710.671	9.27
710.993	9.23
711.316	9.36
711.639	9.42
711.962	9.44
712.284	9.38
712.607	9.42
712.93	9.47
713.252	9.45
713.575	9.4
713.897	9.41
714.22	9.43
714.542	9.56
714.864	9.46
715.187	9.56
715.509	9.43
715.831	9.46
716.153	9.43
716.475	9.32
716.798	9.54
717.12	9.65
717.442	9.74
717.764	9.76
718.085	9.59
718.407	9.59
718.729	9.61
719.051	9.54
719.373	9.31
719.695	9.33
720.016	9.5
720.338	9.44
720.659	9.49
720.981	9.62
721.302	9.56
721.624	9.64
721.945	9.66
722.267	9.6
722.588	9.52
722.909	9.57
723.231	9.58
723.552	9.39
723.873	9.47
724.194	9.37
724.515	9.48
724.836	9.68
725.157	9.83
725.478	9.68
725.799	9.6
726.12	9.86
726.441	9.85
726.762	9.82
727.083	9.86
727.403	9.94
727.724	9.82
728.045	9.97
728.365	9.84
728.686	9.73
729.006	10.01
729.327	10.03
729.647	10.04
729.967	10.29
730.288	10.24
730.608	10.09
730.928	10.12
731.249	9.89
731.569	9.85
731.889	9.74
732.209	9.79
732.529	9.72
732.849	9.76
733.169	9.87
733.489	9.8
733.809	9.86
734.129	9.69
734.448	9.78
734.768	9.73
735.088	9.93
735.408	9.94
735.727	9.78
736.047	9.8
736.366	9.75
736.686	9.55
737.005	9.69
737.325	9.8
737.644	9.85
737.963	9.87
738.283	9.52
738.602	9.44
738.921	9.38
739.24	9.35
739.56	9.14
739.879	9.15
740.198	9.09
740.517	9.07
740.836	9.27
741.155	9.13
741.473	9.13
741.792	9.09
742.111	9.13
742.43	9.17
742.748	9.18
743.067	9.43
743.386	9.38
743.704	9.34
744.023	9.45
744.341	9.48
744.66	9.74
744.978	10.1
745.297	10.21
745.615	10.39
745.933	10.48
746.252	10.58
746.57	10.6
746.888	10.69
747.206	10.45
747.524	10.25
747.842	10.06
748.16	10.06
748.478	10.27
748.796	10.1
749.114	10.2
749.432	10.01
749.749	10.05
750.067	10.18
750.385	10.04
750.703	10.06
751.02	10.01
751.338	10.05
751.655	10.05
751.973	9.96
752.29	9.75
752.608	9.74
752.925	9.94
753.242	9.69
753.56	9.75
753.877	9.96
754.194	10.06
754.511	10.27
754.828	10.08
755.145	9.73
755.462	10.12
755.779	10.05
756.096	10.36
756.413	10.31
756.73	10.47
757.047	10.63
757.364	10.62
757.68	10.64
757.997	10.53
758.314	10.55
758.63	10.67
758.947	10.68
759.264	10.59
759.58	10.44
759.896	10.68
760.213	10.47
760.529	10.55
760.846	10.53
761.162	10.6
761.478	10.79
761.794	10.64
762.11	10.48
762.426	10.61
762.743	10.53
763.059	10.34
763.375	10.24
763.69	10.3
764.006	10.39
764.322	10.43
764.638	10.42
764.954	10.61
765.27	10.52
765.585	10.61
765.901	10.75
766.216	10.75
766.532	10.62
766.848	10.77
767.163	10.83
767.478	10.93
767.794	10.89
768.109	10.74
768.424	10.9
768.74	10.92
769.055	10.81
769.37	10.78
769.685	10.68
770	10.57
770.315	10.59
770.63	10.32
770.945	10.26
771.26	10.47
771.575	10.23
771.89	10.56
772.205	10.59
772.52	10.48
772.834	10.26
773.149	10.06
773.464	10.19
773.778	10.25
774.093	9.94
774.407	10.14
774.722	10.08
775.036	10.35
775.351	10.47
775.665	10.47
775.979	10.44
776.293	10.8
776.608	10.88
776.922	10.84
777.236	11.03
777.55	10.81
777.864	10.68
778.178	10.65
778.492	10.52
778.806	10.68
779.12	10.93
779.434	11.27
779.747	11.57
780.061	11.29
780.375	11.4
780.689	11.52
781.002	11.68
781.316	11.83
781.629	11.68
781.943	11.56
782.256	11.39
782.57	11.63
782.883	11.4
783.196	11.48
783.51	11.08
783.823	10.86
784.136	11.56
784.449	11.56
784.762	11.76
785.075	11.56
785.388	11.58
785.701	11.15
786.014	11
786.327	11.24
786.64	11.44
786.953	11.27
787.266	11.2
787.578	10.84
787.891	10.94
788.204	10.99
788.516	10.99
788.829	11.05
789.141	10.93
789.454	11.31
789.766	11.73
790.079	12.11
790.391	12.05
790.703	11.7
791.016	11.84
791.328	11.57
791.64	11.77
791.952	11.81
792.264	12.02
792.576	11.89
792.888	11.87
793.2	11.82
793.512	11.82
793.824	11.96
794.136	12.14
794.448	12.38
794.76	12.27
795.071	12.52
795.383	12.78
795.695	12.77
796.006	12.61
796.318	12.44
796.629	12.41
796.941	12.54
797.252	12.76
797.564	12.59
797.875	12.54
798.186	12.51
798.497	12.46
798.809	12.39
799.12	12.67
799.431	12.5
799.742	12.6
800.053	12.62
800.364	12.94
800.675	12.88
800.986	12.79
801.297	12.94
801.608	12.92
801.918	12.41
802.229	12.56
802.54	12.18
802.851	11.93
803.161	12.44
803.472	12.54
803.782	12.36
804.093	12.12
804.403	12.18
804.714	11.92
805.024	12.05
805.334	12.3
805.645	12.37
805.955	12.78
806.265	12.91
806.575	12.71
806.885	12.31
807.195	12.35
807.505	12.66
807.815	12.56
808.125	12.27
808.435	12.43
808.745	12.33
809.055	13.11
809.365	13.3
809.674	12.36
809.984	12.62
810.294	12.54
810.603	12.77
810.913	13.04
811.222	13.26
811.532	12.61
811.841	12.92
812.151	13.03
812.46	12.74
812.769	12
813.079	11.64
813.388	10.86
813.697	10.94
814.006	10.47
814.315	10.58
814.624	10.7
814.933	11.04
815.242	11.24
815.551	10.33
815.86	10.13
816.169	10.06
816.478	9.87
816.786	10
817.095	9.64
817.404	10.11
817.712	10.21
818.021	10.91
818.33	10.66
818.638	10.66
818.947	11.04
819.255	11.75
819.563	12.11
819.872	12.76
820.18	12.8
820.488	12.77
820.796	12.83
821.105	12.92
821.413	13.06
821.721	13.15
822.029	13.31
822.337	13.45
822.645	13.67
822.953	13.68
823.26	13.68
823.568	13.95
823.876	13.95
824.184	14.03
824.491	13.94
824.799	13.92
825.107	13.93
825.414	13.93
825.722	13.85
826.029	14.01
826.337	14.1
826.644	14.09
826.951	14.21
827.259	14.27
827.566	14.44
827.873	14.47
828.18	14.51
828.488	14.69
828.795	14.55
829.102	14.56
829.409	14.56
829.716	14.27
830.023	13.91
830.329	13.65
830.636	13.84
830.943	13.92
831.25	13.89
831.557	13.81
831.863	13.8
832.17	13.96
832.476	14.02
832.783	14.03
833.089	14.44
833.396	14.58
833.702	14.66
834.009	14.53
834.315	14.46
834.621	14.25
834.928	13.88
835.234	13.83
835.54	13.53
835.846	13.62
836.152	14.51
836.458	14.47
836.764	14.5
837.07	13.86
837.376	13.44
837.682	13.79
837.988	13.71
838.293	13.78
838.599	14.16
838.905	13.39
839.211	12.85
839.516	12.41
839.822	12
840.127	11.18
840.433	11.05
840.738	10.21
841.044	10.55
841.349	11.17
841.654	10.95
841.959	10.88
842.265	10.41
842.57	9.58
842.875	10
843.18	10.13
843.485	10.82
843.79	11.67
844.095	10.71
844.4	12.32
844.705	11
845.01	9.13
845.315	10.61
845.619	10.56
845.924	10.52
846.229	10.94
846.533	12.3
846.838	11.52
847.142	11.91
847.447	10.41
847.751	9.55
848.056	9.09
848.36	10.24
848.664	10.69
848.969	10.35
849.273	9.54
849.577	10.02
849.881	9.86
850.185	9.74
850.489	11.36
850.794	8.83
851.097	9.63
851.401	11.25
851.705	8.5
852.009	10.92
852.313	10.35
852.617	9.96
852.92	9.66
853.224	10.18
853.528	11.96
853.831	11.84
854.135	13.07
854.438	14.66
854.742	12.58
855.045	12.18
855.349	11.67
855.652	11.54
855.955	11.93
856.259	10.78
856.562	11.48
856.865	11.53
857.168	10.44
857.471	11.78
857.774	11.31
858.077	13.31
858.38	11.92
858.683	12.12
858.986	11.39
859.289	11.88
859.592	12
859.894	11.19
860.197	11.24
860.5	11.08
860.802	11.96
861.105	12.22
861.407	11.4
861.71	11.76
862.012	12.33
862.315	11.2
862.617	11.49
862.919	10.35
863.222	9.18
863.524	11.13
863.826	9.35
864.128	10.04
864.43	10.7
864.732	10.67
865.034	11.09
865.336	10.57
865.638	11.53
865.94	9.89
866.242	8.64
866.544	8.94
866.846	8.34
867.147	6.69
867.449	6.97
867.751	9.93
868.052	10.56
868.354	10.82
868.655	10.73
868.957	10.11
869.258	9.92
869.56	9.05
869.861	7.09
870.162	8.21
870.463	8.97
870.765	7.46
871.066	7.07
871.367	9.19
871.668	9.94
871.969	9.31
872.27	9.47
872.571	11.18
872.872	12.52
873.173	10.96
873.473	11.16
873.774	11.15
874.075	11.75
874.376	10.67
874.676	12.02
874.977	10.41
875.277	11.88
875.578	12.56
875.878	13.78
876.179	16.12
876.479	16.06
876.78	14.64
877.08	15.57
877.38	15.79
877.68	12.24
877.981	12.51
878.281	10.78
878.581	13.53
