Data from BA28302_Reflection_00009.txt Node
Date: Mon Nov 18 15:48:49 EST 2019
User: vgr7
Spectrometer: USB2G7710
Scans to average: 3
Trigger mode: 4
Integration Time (sec): 2.000000E-2
Electric dark correction enabled: true
Boxcar width: 10
XAxis mode: Wavelengths
Number of Pixels in Spectrum: 2048
>>>>>Begin Spectral Data<<<<<
177.721	382.23
178.105	-277.95
178.488	-270.93
178.871	-198.83
179.254	1269.49
179.636	-373.68
180.019	288.28
180.402	70.45
180.785	-5.39
181.168	202.27
181.55	195.54
181.933	87.23
182.316	54.09
182.698	85.48
183.081	102.21
183.463	16.54
183.846	45.59
184.228	-0.12
184.611	-4.68
184.993	74.96
185.376	-6328.57
185.758	901.98
186.14	-2506.56
186.522	279.67
186.904	506.94
187.287	263.44
187.669	114.73
188.051	183.46
188.433	195.1
188.815	160.13
189.197	498.23
189.579	-4820
189.961	3405.08
190.342	773
190.724	-239.02
191.106	1614.85
191.488	254.25
191.869	221.42
192.251	301.09
192.633	3353.52
193.014	669.41
193.396	488.46
193.777	10548.28
194.159	-6281.82
194.54	-407.57
194.922	-256.41
195.303	-364.49
195.684	-346.81
196.065	-200.65
196.447	-265.28
196.828	-297.43
197.209	-264
197.59	-973.8
197.971	-1700
198.352	-171.6
198.733	-582.6
199.114	-197.98
199.495	-128.41
199.876	-119.72
200.257	-130.04
200.638	-89.04
201.018	-76.87
201.399	-51.35
201.78	-9.73
202.16	16.72
202.541	-19.8
202.922	-209.82
203.302	-64.84
203.683	27.82
204.063	-1.38
204.444	92.97
204.824	858.24
205.204	176.06
205.585	-2.12
205.965	38.7
206.345	73.08
206.725	60.48
207.106	-195.77
207.486	-28.67
207.866	64.22
208.246	292.12
208.626	653.07
209.006	278.02
209.386	354.79
209.766	-470.85
210.145	-304.81
210.525	-149.78
210.905	-52.95
211.285	-57.56
211.664	-55.58
212.044	-61.81
212.424	-32.2
212.803	-33.46
213.183	-44.74
213.562	-44.97
213.942	-60.66
214.321	-34.44
214.701	-29.34
215.08	-47.54
215.459	-41.8
215.838	-22.72
216.218	-30.56
216.597	-31.25
216.976	-23.57
217.355	-32.32
217.734	-42.46
218.113	-42.68
218.492	-29.69
218.871	-42.14
219.25	-43.16
219.629	-53.32
220.008	-42.94
220.387	-55.32
220.766	-43.21
221.144	-39.96
221.523	-35.26
221.902	-20.95
222.28	-39.59
222.659	-23.04
223.037	-4.8
223.416	-7.88
223.794	-10.42
224.173	-7.04
224.551	-3.4
224.929	-8.54
225.308	2.65
225.686	-0.52
226.064	5.33
226.442	4.7
226.821	6.96
227.199	8.29
227.577	4.63
227.955	1.98
228.333	2.34
228.711	4.61
229.089	5.53
229.467	3.04
229.845	1.61
230.222	2.63
230.6	1.79
230.978	2.26
231.356	5.79
231.733	6.48
232.111	6.59
232.488	6.79
232.866	8.23
233.243	6.62
233.621	6.61
233.998	7.37
234.376	7.72
234.753	6.29
235.13	5.64
235.508	8.47
235.885	8.7
236.262	6.87
236.639	5.91
237.016	4.62
237.393	6.17
237.77	6.06
238.147	5.68
238.524	5.06
238.901	4.86
239.278	4.83
239.655	5.02
240.032	5.33
240.409	4.75
240.785	5.08
241.162	4.92
241.539	5.09
241.915	4.64
242.292	4.38
242.668	4.07
243.045	3.91
243.421	3.77
243.798	3.7
244.174	4.06
244.551	4.11
244.927	4.23
245.303	4.35
245.679	4.54
246.056	4.55
246.432	4.58
246.808	4.52
247.184	4.39
247.56	4.4
247.936	4.43
248.312	4.4
248.688	4.34
249.064	4.11
249.44	4.1
249.815	4
250.191	4.08
250.567	4.22
250.943	4.23
251.318	4.26
251.694	4.15
252.069	4.12
252.445	4.27
252.82	4.25
253.196	3.94
253.571	3.8
253.947	3.74
254.322	3.8
254.697	3.8
255.073	3.55
255.448	3.3
255.823	3.27
256.198	3.74
256.573	3.62
256.948	3.86
257.323	4.07
257.698	4.19
258.073	4.29
258.448	4.37
258.823	4.35
259.198	4.16
259.573	4.23
259.948	4.28
260.322	4.09
260.697	4.09
261.072	4.11
261.446	4.08
261.821	4.22
262.195	4.21
262.57	4.09
262.944	4.19
263.319	4.23
263.693	4.24
264.067	4.12
264.442	4.1
264.816	4.12
265.19	3.96
265.564	3.94
265.938	3.87
266.313	3.96
266.687	4.11
267.061	4.3
267.435	4.39
267.809	4.27
268.183	4.28
268.556	4.28
268.93	4.36
269.304	4.34
269.678	4.32
270.051	4.29
270.425	4.43
270.799	4.29
271.172	4.34
271.546	4.18
271.919	4.2
272.293	4.24
272.666	4.22
273.04	4.2
273.413	4.2
273.787	4.09
274.16	3.98
274.533	4.02
274.906	3.82
275.279	3.78
275.653	3.75
276.026	3.74
276.399	3.58
276.772	3.51
277.145	3.41
277.518	3.51
277.891	3.58
278.263	3.39
278.636	3.54
279.009	3.39
279.382	3.64
279.755	3.63
280.127	3.74
280.5	3.77
280.872	3.86
281.245	3.94
281.617	4.06
281.99	4.09
282.362	4.08
282.735	4.18
283.107	4.13
283.479	4.23
283.852	4.37
284.224	4.39
284.596	4.43
284.968	4.5
285.34	4.42
285.713	4.26
286.085	4.43
286.457	4.55
286.829	4.7
287.201	4.74
287.572	4.74
287.944	4.69
288.316	4.73
288.688	4.68
289.06	4.77
289.431	4.81
289.803	4.73
290.175	4.76
290.546	4.9
290.918	5.03
291.289	5.07
291.661	5.1
292.032	5.35
292.403	5.33
292.775	5.55
293.146	5.59
293.517	5.74
293.889	5.75
294.26	5.71
294.631	5.77
295.002	5.7
295.373	5.65
295.744	5.77
296.115	5.8
296.486	5.86
296.857	5.81
297.228	5.91
297.599	5.96
297.97	6.03
298.34	6.01
298.711	6.11
299.082	6.08
299.452	6.18
299.823	6.18
300.194	6.2
300.564	6.08
300.935	6.12
301.305	6.17
301.676	6.3
302.046	6.31
302.416	6.46
302.787	6.53
303.157	6.74
303.527	6.74
303.897	6.81
304.267	7.08
304.637	7.17
305.008	7.1
305.378	7.41
305.748	7.35
306.117	7.35
306.487	7.37
306.857	7.41
307.227	7.42
307.597	7.49
307.967	7.62
308.336	7.71
308.706	7.74
309.076	7.85
309.445	7.83
309.815	7.94
310.184	7.87
310.554	7.87
310.923	7.84
311.293	7.97
311.662	7.99
312.031	7.94
312.401	7.9
312.77	8.05
313.139	8.01
313.508	8.07
313.877	8.2
314.246	8.19
314.616	8.21
314.985	8.09
315.353	8.07
315.722	8.22
316.091	8.21
316.46	8.28
316.829	8.37
317.198	8.43
317.567	8.34
317.935	8.33
318.304	8.47
318.672	8.61
319.041	8.6
319.41	8.57
319.778	8.51
320.147	8.62
320.515	8.68
320.883	8.61
321.252	8.84
321.62	8.89
321.988	8.87
322.357	9.01
322.725	9.22
323.093	9.24
323.461	9.1
323.829	9.24
324.197	9.28
324.565	9.26
324.933	9.28
325.301	9.42
325.669	9.6
326.037	9.57
326.405	9.59
326.772	9.69
327.14	9.95
327.508	9.91
327.875	9.88
328.243	9.88
328.61	10.01
328.978	9.99
329.346	10.19
329.713	10.38
330.08	10.45
330.448	10.45
330.815	10.52
331.182	10.68
331.55	10.64
331.917	10.8
332.284	10.94
332.651	10.96
333.018	11.06
333.385	10.88
333.752	10.85
334.119	10.88
334.486	10.76
334.853	10.72
335.22	10.86
335.587	10.97
335.954	10.95
336.32	10.98
336.687	10.95
337.054	10.76
337.42	10.79
337.787	10.79
338.153	10.75
338.52	10.84
338.886	10.74
339.253	10.8
339.619	10.74
339.986	10.68
340.352	10.8
340.718	10.79
341.084	10.92
341.451	11.11
341.817	11.13
342.183	11.19
342.549	11.19
342.915	11.26
343.281	11.33
343.647	11.31
344.013	11.3
344.379	11.33
344.745	11.36
345.11	11.32
345.476	11.38
345.842	11.49
346.208	11.59
346.573	11.72
346.939	11.83
347.304	11.91
347.67	11.98
348.035	11.97
348.401	12
348.766	12.05
349.132	12
349.497	12.03
349.862	12.08
350.228	12.14
350.593	12.07
350.958	11.94
351.323	11.96
351.688	12
352.053	12.11
352.418	12.25
352.783	12.32
353.148	12.33
353.513	12.32
353.878	12.28
354.243	12.29
354.608	12.23
354.972	12.24
355.337	12.17
355.702	12.23
356.066	12.18
356.431	12.13
356.795	12.14
357.16	12.15
357.524	12.18
357.889	12.13
358.253	12.22
358.618	12.34
358.982	12.38
359.346	12.33
359.71	12.27
360.075	12.19
360.439	12.18
360.803	12.14
361.167	12.12
361.531	12.09
361.895	12.04
362.259	12.1
362.623	12.06
362.987	12.13
363.351	12.14
363.714	12.19
364.078	12.19
364.442	12.17
364.806	12.1
365.169	12.09
365.533	12.07
365.896	11.98
366.26	11.88
366.623	11.86
366.987	11.89
367.35	11.85
367.714	11.85
368.077	11.74
368.44	11.82
368.803	11.73
369.167	11.6
369.53	11.59
369.893	11.53
370.256	11.48
370.619	11.33
370.982	11.25
371.345	11.13
371.708	11.15
372.071	11.18
372.434	11.1
372.797	11.04
373.159	11.08
373.522	11.1
373.885	11.06
374.247	11.05
374.61	11.02
374.973	10.96
375.335	10.9
375.698	10.89
376.06	10.67
376.423	10.71
376.785	10.75
377.147	10.71
377.51	10.67
377.872	10.63
378.234	10.63
378.596	10.58
378.958	10.48
379.321	10.4
379.683	10.32
380.045	10.32
380.407	10.21
380.769	10.11
381.13	10.02
381.492	9.96
381.854	9.88
382.216	9.78
382.578	9.74
382.939	9.68
383.301	9.62
383.663	9.67
384.024	9.61
384.386	9.64
384.747	9.61
385.109	9.53
385.47	9.47
385.832	9.45
386.193	9.43
386.554	9.46
386.916	9.44
387.277	9.36
387.638	9.35
387.999	9.33
388.36	9.25
388.721	9.22
389.082	9.23
389.443	9.18
389.804	9.16
390.165	9.1
390.526	9.07
390.887	9.02
391.248	8.97
391.609	8.92
391.969	8.83
392.33	8.78
392.691	8.75
393.051	8.7
393.412	8.66
393.772	8.56
394.133	8.49
394.493	8.41
394.854	8.38
395.214	8.31
395.574	8.26
395.935	8.19
396.295	8.15
396.655	8.09
397.015	8.02
397.376	7.96
397.736	7.93
398.096	7.9
398.456	7.88
398.816	7.83
399.176	7.75
399.535	7.67
399.895	7.58
400.255	7.54
400.615	7.49
400.975	7.38
401.334	7.3
401.694	7.25
402.054	7.24
402.413	7.2
402.773	7.14
403.132	7.11
403.492	7.1
403.851	7.05
404.211	7.04
404.57	7
404.929	7
405.288	6.96
405.648	6.91
406.007	6.9
406.366	6.87
406.725	6.87
407.084	6.88
407.443	6.88
407.802	6.86
408.161	6.84
408.52	6.84
408.879	6.86
409.238	6.87
409.596	6.82
409.955	6.79
410.314	6.8
410.673	6.79
411.031	6.79
411.39	6.75
411.748	6.73
412.107	6.77
412.465	6.71
412.824	6.68
413.182	6.64
413.54	6.6
413.899	6.57
414.257	6.53
414.615	6.49
414.974	6.45
415.332	6.4
415.69	6.36
416.048	6.32
416.406	6.29
416.764	6.25
417.122	6.23
417.48	6.2
417.838	6.18
418.195	6.14
418.553	6.12
418.911	6.09
419.269	6.07
419.626	6.02
419.984	6.01
420.342	5.99
420.699	5.97
421.057	5.93
421.414	5.9
421.772	5.87
422.129	5.85
422.486	5.83
422.844	5.83
423.201	5.81
423.558	5.81
423.915	5.78
424.273	5.77
424.63	5.75
424.987	5.73
425.344	5.71
425.701	5.69
426.058	5.68
426.415	5.67
426.772	5.64
427.128	5.62
427.485	5.6
427.842	5.58
428.199	5.57
428.555	5.56
428.912	5.58
429.269	5.6
429.625	5.59
429.982	5.56
430.338	5.54
430.695	5.52
431.051	5.51
431.407	5.49
431.764	5.49
432.12	5.46
432.476	5.47
432.832	5.45
433.189	5.47
433.545	5.44
433.901	5.43
434.257	5.44
434.613	5.45
434.969	5.46
435.325	5.46
435.681	5.46
436.036	5.46
436.392	5.45
436.748	5.44
437.104	5.43
437.459	5.43
437.815	5.44
438.171	5.44
438.526	5.43
438.882	5.44
439.237	5.45
439.593	5.46
439.948	5.45
440.304	5.45
440.659	5.43
441.014	5.43
441.369	5.43
441.725	5.39
442.08	5.37
442.435	5.34
442.79	5.33
443.145	5.32
443.5	5.3
443.855	5.3
444.21	5.29
444.565	5.29
444.92	5.29
445.275	5.26
445.629	5.25
445.984	5.25
446.339	5.22
446.693	5.19
447.048	5.17
447.403	5.15
447.757	5.15
448.112	5.12
448.466	5.1
448.82	5.09
449.175	5.09
449.529	5.08
449.883	5.06
450.238	5.05
450.592	5.05
450.946	5.02
451.3	4.98
451.654	4.97
452.008	4.95
452.362	4.91
452.716	4.9
453.07	4.9
453.424	4.88
453.778	4.89
454.132	4.89
454.486	4.9
454.839	4.9
455.193	4.88
455.547	4.89
455.9	4.9
456.254	4.89
456.607	4.89
456.961	4.9
457.314	4.9
457.668	4.9
458.021	4.88
458.375	4.9
458.728	4.91
459.081	4.91
459.434	4.9
459.787	4.93
460.141	4.93
460.494	4.93
460.847	4.95
461.2	4.95
461.553	4.95
461.906	4.96
462.259	4.97
462.611	5
462.964	5
463.317	5.02
463.67	5.04
464.022	5.05
464.375	5.06
464.728	5.08
465.08	5.09
465.433	5.12
465.785	5.13
466.138	5.17
466.49	5.18
466.843	5.22
467.195	5.22
467.547	5.23
467.899	5.25
468.252	5.25
468.604	5.27
468.956	5.3
469.308	5.31
469.66	5.3
470.012	5.29
470.364	5.32
470.716	5.31
471.068	5.32
471.42	5.35
471.772	5.37
472.123	5.38
472.475	5.39
472.827	5.41
473.178	5.43
473.53	5.42
473.882	5.43
474.233	5.43
474.585	5.42
474.936	5.41
475.288	5.4
475.639	5.4
475.99	5.39
476.342	5.37
476.693	5.37
477.044	5.4
477.395	5.41
477.746	5.39
478.097	5.41
478.448	5.39
478.8	5.39
479.15	5.38
479.501	5.37
479.852	5.36
480.203	5.37
480.554	5.36
480.905	5.37
481.255	5.38
481.606	5.39
481.957	5.41
482.307	5.41
482.658	5.41
483.009	5.41
483.359	5.4
483.709	5.4
484.06	5.4
484.41	5.38
484.761	5.38
485.111	5.38
485.461	5.37
485.811	5.38
486.162	5.37
486.512	5.37
486.862	5.38
487.212	5.38
487.562	5.37
487.912	5.36
488.262	5.34
488.612	5.34
488.961	5.33
489.311	5.32
489.661	5.32
490.011	5.32
490.36	5.31
490.71	5.32
491.06	5.32
491.409	5.32
491.759	5.34
492.108	5.34
492.458	5.36
492.807	5.35
493.157	5.36
493.506	5.37
493.855	5.37
494.204	5.38
494.554	5.41
494.903	5.43
495.252	5.44
495.601	5.48
495.95	5.49
496.299	5.53
496.648	5.56
496.997	5.57
497.346	5.61
497.695	5.66
498.043	5.69
498.392	5.73
498.741	5.77
499.09	5.8
499.438	5.86
499.787	5.9
500.135	5.98
500.484	6.03
500.832	6.08
501.181	6.16
501.529	6.22
501.878	6.27
502.226	6.34
502.574	6.41
502.923	6.46
503.271	6.51
503.619	6.57
503.967	6.63
504.315	6.7
504.663	6.76
505.011	6.83
505.359	6.88
505.707	6.99
506.055	7.07
506.403	7.14
506.751	7.21
507.098	7.27
507.446	7.35
507.794	7.43
508.141	7.47
508.489	7.53
508.837	7.59
509.184	7.65
509.531	7.69
509.879	7.78
510.226	7.87
510.574	7.95
510.921	8.04
511.268	8.1
511.616	8.2
511.963	8.27
512.31	8.35
512.657	8.42
513.004	8.46
513.351	8.56
513.698	8.65
514.045	8.7
514.392	8.81
514.739	8.87
515.086	8.96
515.432	9.08
515.779	9.14
516.126	9.25
516.473	9.34
516.819	9.44
517.166	9.52
517.512	9.57
517.859	9.66
518.205	9.73
518.552	9.8
518.898	9.86
519.245	9.93
519.591	10.01
519.937	10.1
520.283	10.17
520.629	10.25
520.976	10.33
521.322	10.44
521.668	10.53
522.014	10.63
522.36	10.73
522.706	10.83
523.052	10.95
523.398	11.07
523.743	11.19
524.089	11.31
524.435	11.44
524.781	11.6
525.126	11.71
525.472	11.82
525.817	11.95
526.163	12.05
526.509	12.13
526.854	12.2
527.199	12.27
527.545	12.36
527.89	12.44
528.235	12.52
528.581	12.6
528.926	12.69
529.271	12.78
529.616	12.88
529.961	12.97
530.306	13.07
530.651	13.17
530.996	13.29
531.341	13.41
531.686	13.51
532.031	13.62
532.376	13.75
532.721	13.87
533.065	13.99
533.41	14.15
533.755	14.32
534.099	14.49
534.444	14.67
534.788	14.83
535.133	14.99
535.477	15.17
535.822	15.34
536.166	15.51
536.51	15.7
536.855	15.9
537.199	16.12
537.543	16.34
537.887	16.57
538.231	16.81
538.576	17.06
538.92	17.35
539.264	17.58
539.608	17.8
539.951	18.01
540.295	18.22
540.639	18.42
540.983	18.59
541.327	18.78
541.671	18.97
542.014	19.15
542.358	19.34
542.701	19.56
543.045	19.78
543.389	20
543.732	20.21
544.075	20.44
544.419	20.69
544.762	20.94
545.105	21.19
545.449	21.44
545.792	21.7
546.135	21.94
546.478	22.23
546.821	22.53
547.165	22.86
547.508	23.16
547.851	23.48
548.194	23.81
548.536	24.15
548.879	24.49
549.222	24.84
549.565	25.22
549.908	25.58
550.25	25.94
550.593	26.28
550.936	26.68
551.278	27.03
551.621	27.41
551.963	27.79
552.306	28.16
552.648	28.51
552.991	28.88
553.333	29.27
553.675	29.6
554.017	29.97
554.36	30.27
554.702	30.63
555.044	30.95
555.386	31.37
555.728	31.71
556.07	32.12
556.412	32.48
556.754	32.82
557.096	33.16
557.438	33.54
557.78	33.97
558.121	34.4
558.463	34.83
558.805	35.19
559.147	35.52
559.488	35.89
559.83	36.25
560.171	36.6
560.513	36.97
560.854	37.3
561.196	37.59
561.537	37.99
561.878	38.33
562.22	38.71
562.561	38.99
562.902	39.33
563.243	39.61
563.584	40
563.925	40.32
564.266	40.64
564.607	40.94
564.948	41.21
565.289	41.47
565.63	41.71
565.971	42.01
566.312	42.27
566.653	42.55
566.993	42.84
567.334	43.07
567.675	43.33
568.015	43.64
568.356	44
568.696	44.24
569.037	44.53
569.377	44.77
569.718	45.01
570.058	45.33
570.398	45.58
570.739	45.76
571.079	46
571.419	46.23
571.759	46.48
572.099	46.7
572.439	46.88
572.779	47.13
573.119	47.33
573.459	47.52
573.799	47.67
574.139	47.89
574.479	48.09
574.819	48.26
575.158	48.43
575.498	48.58
575.838	48.79
576.177	48.9
576.517	49.13
576.856	49.4
577.196	49.55
577.535	49.76
577.875	49.99
578.214	50.2
578.553	50.41
578.893	50.61
579.232	50.81
579.571	51.03
579.91	51.19
580.25	51.38
580.589	51.63
580.928	51.88
581.267	52.03
581.606	52.28
581.945	52.5
582.283	52.65
582.622	52.85
582.961	53.02
583.3	53.27
583.639	53.45
583.977	53.52
584.316	53.65
584.654	53.8
584.993	53.99
585.332	54.13
585.67	54.23
586.008	54.37
586.347	54.46
586.685	54.66
587.024	54.74
587.362	54.83
587.7	54.96
588.038	55.03
588.376	55.16
588.715	55.24
589.053	55.34
589.391	55.49
589.729	55.61
590.067	55.71
590.404	55.79
590.742	55.82
591.08	55.97
591.418	56.07
591.756	56.11
592.093	56.16
592.431	56.29
592.769	56.39
593.106	56.45
593.444	56.53
593.781	56.53
594.119	56.63
594.456	56.68
594.793	56.7
595.131	56.77
595.468	56.82
595.805	56.82
596.143	56.92
596.48	57
596.817	57.05
597.154	57.03
597.491	57.1
597.828	57.25
598.165	57.32
598.502	57.43
598.839	57.5
599.176	57.56
599.512	57.62
599.849	57.69
600.186	57.73
600.523	57.89
600.859	58.08
601.196	58.16
601.532	58.43
601.869	58.5
602.205	58.58
602.542	58.63
602.878	58.69
603.215	58.78
603.551	58.84
603.887	58.82
604.223	58.86
604.56	58.85
604.896	58.9
605.232	58.92
605.568	58.99
605.904	59.01
606.24	59.11
606.576	59.23
606.912	59.27
607.248	59.37
607.583	59.3
607.919	59.23
608.255	59.29
608.591	59.12
608.926	59.17
609.262	59.26
609.597	59.33
609.933	59.41
610.268	59.41
610.604	59.43
610.939	59.5
611.275	59.68
611.61	59.87
611.945	59.88
612.281	59.92
612.616	59.94
612.951	59.99
613.286	60.07
613.621	60.09
613.956	60.14
614.291	60.26
614.626	60.43
614.961	60.6
615.296	60.67
615.631	60.82
615.966	60.9
616.3	60.89
616.635	60.93
616.97	60.97
617.304	61
617.639	60.99
617.973	61.12
618.308	61.11
618.642	61.1
618.977	61.06
619.311	61.1
619.646	61.12
619.98	61.21
620.314	61.18
620.648	61.11
620.983	61.17
621.317	61.13
621.651	61.13
621.985	61.17
622.319	61.22
622.653	61.19
622.987	61.19
623.321	61.2
623.655	61.2
623.988	61.21
624.322	61.2
624.656	61.35
624.99	61.31
625.323	61.42
625.657	61.43
625.99	61.46
626.324	61.45
626.657	61.46
626.991	61.54
627.324	61.51
627.658	61.54
627.991	61.61
628.324	61.57
628.657	61.63
628.991	61.66
629.324	61.7
629.657	61.78
629.99	61.89
630.323	61.91
630.656	62.01
630.989	62.1
631.322	62.14
631.655	62.03
631.987	62.07
632.32	61.93
632.653	61.89
632.986	61.89
633.318	61.98
633.651	62.04
633.984	62.02
634.316	62.09
634.649	62.12
634.981	62.04
635.313	62.09
635.646	62.11
635.978	62.02
636.31	61.93
636.643	61.95
636.975	61.97
637.307	62.11
637.639	62.11
637.971	62.09
638.303	62.15
638.635	62.26
638.967	62.35
639.299	62.57
639.631	62.68
639.963	62.72
640.295	62.78
640.626	62.85
640.958	62.82
641.29	62.8
641.621	62.78
641.953	62.83
642.285	62.9
642.616	62.91
642.948	62.92
643.279	63.01
643.61	63.01
643.942	62.98
644.273	62.87
644.604	62.82
644.936	62.83
645.267	62.81
645.598	62.73
645.929	62.74
646.26	62.63
646.591	62.55
646.922	62.56
647.253	62.46
647.584	62.51
647.915	62.6
648.245	62.69
648.576	62.78
648.907	62.88
649.238	62.84
649.568	62.87
649.899	62.85
650.229	62.96
650.56	62.95
650.89	62.94
651.221	63.01
651.551	63.01
651.882	62.94
652.212	62.96
652.542	62.99
652.872	62.88
653.203	62.99
653.533	63.03
653.863	63.11
654.193	63.23
654.523	63.1
654.853	63.12
655.183	62.99
655.513	62.95
655.843	62.81
656.172	62.71
656.502	62.71
656.832	62.88
657.162	62.73
657.491	62.77
657.821	62.86
658.15	62.74
658.48	62.92
658.809	63.14
659.139	63.22
659.468	63.29
659.798	63.47
660.127	63.42
660.456	63.51
660.785	63.47
661.115	63.44
661.444	63.35
661.773	63.34
662.102	63.44
662.431	63.59
662.76	63.64
663.089	63.75
663.418	63.8
663.747	63.69
664.076	63.86
664.404	63.97
664.733	64.1
665.062	64.3
665.39	64.21
665.719	64.02
666.048	63.97
666.376	64.02
666.705	63.87
667.033	63.82
667.362	63.82
667.69	63.86
668.018	63.86
668.347	64.05
668.675	64.1
669.003	64.09
669.331	63.95
669.659	63.99
669.987	64.01
670.315	63.84
670.643	63.79
670.971	63.71
671.299	63.56
671.627	63.34
671.955	63.23
672.283	63.24
672.61	63.24
672.938	63.06
673.266	63.14
673.593	63.13
673.921	63.13
674.249	63.08
674.576	63.06
674.904	63.01
675.231	63.06
675.558	63.01
675.886	63.17
676.213	63.38
676.54	63.42
676.867	63.48
677.195	63.54
677.522	63.62
677.849	63.67
678.176	63.77
678.503	63.73
678.83	63.74
679.157	63.66
679.484	63.65
679.81	63.78
680.137	63.69
680.464	63.73
680.791	63.77
681.117	63.74
681.444	63.78
681.771	63.87
682.097	63.74
682.424	63.64
682.75	63.53
683.077	63.34
683.403	63.28
683.729	63.41
684.056	63.47
684.382	63.46
684.708	63.43
685.034	63.29
685.36	63.36
685.686	63.51
686.012	63.55
686.339	63.65
686.664	63.73
686.99	63.74
687.316	63.81
687.642	63.89
687.968	63.95
688.294	63.94
688.619	63.77
688.945	63.8
689.271	63.9
689.596	63.91
689.922	64.12
690.247	64.23
690.573	64.13
690.898	64.06
691.224	64.09
691.549	64.11
691.874	64.24
692.2	64.35
692.525	64.26
692.85	64.37
693.175	64.3
693.5	64.17
693.825	64.24
694.15	64.19
694.475	64
694.8	64
695.125	63.96
695.45	64.15
695.775	64.2
696.099	64.15
696.424	64.24
696.749	64.1
697.073	63.94
697.398	63.97
697.723	64.04
698.047	64.22
698.372	64.08
698.696	64.13
699.02	64.05
699.345	64.1
699.669	63.99
699.993	64.1
700.318	64.16
700.642	64.04
700.966	64.05
701.29	64.19
701.614	64.2
701.938	64.3
702.262	64.3
702.586	64.33
702.91	64.43
703.234	64.58
703.557	64.85
703.881	64.99
704.205	64.93
704.529	64.83
704.852	64.77
705.176	64.86
705.499	64.68
705.823	64.91
706.146	64.86
706.47	64.97
706.793	64.97
707.117	64.88
707.44	65.11
707.763	64.99
708.086	64.84
708.409	64.88
708.733	64.67
709.056	64.6
709.379	64.45
709.702	64.44
710.025	64.33
710.348	64.1
710.671	64.17
710.993	64.18
711.316	64.3
711.639	64.33
711.962	64.47
712.284	64.67
712.607	64.36
712.93	64.26
713.252	64.22
713.575	64.22
713.897	64.31
714.22	64.21
714.542	64.23
714.864	64.38
715.187	64.46
715.509	64.64
715.831	64.63
716.153	64.67
716.475	64.7
716.798	64.64
717.12	64.54
717.442	64.49
717.764	64.54
718.085	64.46
718.407	64.37
718.729	64.1
719.051	63.91
719.373	64.07
719.695	64.19
720.016	64.12
720.338	64.08
720.659	63.97
720.981	63.97
721.302	64.02
721.624	63.96
721.945	63.87
722.267	63.92
722.588	63.81
722.909	63.89
723.231	63.78
723.552	63.73
723.873	64.03
724.194	63.99
724.515	63.92
724.836	64.08
725.157	64.1
725.478	64.18
725.799	64.21
726.12	64.12
726.441	64.2
726.762	64.45
727.083	64.51
727.403	64.41
727.724	64.44
728.045	64.3
728.365	64.25
728.686	64.35
729.006	64.21
729.327	64.35
729.647	64.52
729.967	64.66
730.288	64.8
730.608	64.63
730.928	64.71
731.249	64.94
731.569	64.89
731.889	65.03
732.209	65.09
732.529	65.26
732.849	65.43
733.169	65.52
733.489	65.23
733.809	65.18
734.129	65.33
734.448	65.32
734.768	65.38
735.088	65.38
735.408	65.29
735.727	65.51
736.047	65.63
736.366	65.56
736.686	65.67
737.005	65.64
737.325	65.7
737.644	65.71
737.963	65.54
738.283	65.45
738.602	65.23
738.921	65.56
739.24	65.4
739.56	65.25
739.879	65.06
740.198	65.16
740.517	64.88
740.836	64.9
741.155	64.91
741.473	65.19
741.792	65.29
742.111	65.16
742.43	64.94
742.748	64.68
743.067	64.67
743.386	64.35
743.704	64.38
744.023	64.43
744.341	64.41
744.66	64.36
744.978	64.39
745.297	64.49
745.615	64.19
745.933	64.34
746.252	64.66
746.57	64.64
746.888	64.64
747.206	65.14
747.524	65.37
747.842	65.24
748.16	65.63
748.478	65.89
748.796	65.93
749.114	66.09
749.432	66.4
749.749	66.08
750.067	65.94
750.385	65.66
750.703	65.49
751.02	65.65
751.338	65.74
751.655	65.73
751.973	65.59
752.29	65.62
752.608	65.77
752.925	65.63
753.242	65.59
753.56	65.69
753.877	65.43
754.194	65.17
754.511	65.27
754.828	64.87
755.145	64.41
755.462	64.72
755.779	64.61
756.096	64.75
756.413	65.03
756.73	65.38
757.047	65.43
757.364	65.47
757.68	65.37
757.997	65.28
758.314	65.21
758.63	65.4
758.947	65.44
759.264	65.09
759.58	64.63
759.896	64.74
760.213	64.64
760.529	64.83
760.846	64.84
761.162	64.7
761.478	64.53
761.794	64.88
762.11	64.61
762.426	64.34
762.743	64.25
763.059	64.36
763.375	64.32
763.69	64.43
764.006	64.68
764.322	64.74
764.638	64.9
764.954	65.04
765.27	64.91
765.585	64.63
765.901	64.8
766.216	65.02
766.532	65.1
766.848	65.23
767.163	65.01
767.478	64.95
767.794	64.95
768.109	64.92
768.424	64.61
768.74	64.77
769.055	65.1
769.37	64.76
769.685	64.63
770	64.75
770.315	64.91
770.63	64.43
770.945	64.37
771.26	64.05
771.575	64.16
771.89	64.02
772.205	64.78
772.52	64.78
772.834	65.19
773.149	65.49
773.464	65.63
773.778	65.97
774.093	65.99
774.407	65.95
774.722	65.68
775.036	65.89
775.351	65.91
775.665	66.41
775.979	66.66
776.293	66.68
776.608	66.65
776.922	66.19
777.236	66.11
777.55	65.9
777.864	66.03
778.178	65.98
778.492	65.95
778.806	65.42
779.12	65.58
779.434	65.41
779.747	64.83
780.061	65.21
780.375	64.6
780.689	64.87
781.002	65.13
781.316	65.43
781.629	65.5
781.943	65.56
782.256	65.53
782.57	65.41
782.883	65.75
783.196	65.64
783.51	65.84
783.823	66.24
784.136	66.44
784.449	66.24
784.762	66.43
785.075	66.86
785.388	66.93
785.701	66.59
786.014	66.11
786.327	66.43
786.64	65.96
786.953	66.86
787.266	66.91
787.578	67.1
787.891	66.99
788.204	66.43
788.516	66.26
788.829	66.14
789.141	66.54
789.454	65.82
789.766	65.52
790.079	65.73
790.391	65.28
790.703	65.49
791.016	66.08
791.328	65.79
791.64	65.86
791.952	66.3
792.264	65.36
792.576	65.54
792.888	64.89
793.2	64.85
793.512	64.49
793.824	64.25
794.136	63.56
794.448	63.28
794.76	64.08
795.071	63.93
795.383	63.24
795.695	63.03
796.006	64.05
796.318	64.12
796.629	63.32
796.941	63.44
797.252	63.24
797.564	62.68
797.875	62.98
798.186	62.77
798.497	62.99
798.809	64.05
799.12	63.88
799.431	64.26
799.742	63.99
800.053	63.81
800.364	63.71
800.675	64.25
800.986	64.82
801.297	64.67
801.608	64.53
801.918	64.41
802.229	64.4
802.54	63.79
802.851	64.38
803.161	65.47
803.472	66.28
803.782	66.36
804.093	66.52
804.403	65.97
804.714	66.16
805.024	65.29
805.334	65.58
805.645	65.83
805.955	65.97
806.265	66.23
806.575	66.82
806.885	66.58
807.195	66.69
807.505	66.4
807.815	66.4
808.125	66.71
808.435	67.03
808.745	66.85
809.055	66.96
809.365	66.52
809.674	65.94
809.984	65.38
810.294	65
810.603	65.15
810.913	65.29
811.222	64.53
811.532	64.25
811.841	64.1
812.151	64.64
812.46	64.53
812.769	64.39
813.079	64.27
813.388	64.86
813.697	65.19
814.006	65
814.315	65.19
814.624	65.58
814.933	65.49
815.242	64.72
815.551	64.54
815.86	64.96
816.169	65.09
816.478	64.7
816.786	65.14
817.095	65.45
817.404	65.08
817.712	64.86
818.021	65.69
818.33	65.53
818.638	64.95
818.947	64.67
819.255	65.02
819.563	64.64
819.872	64.96
820.18	65.29
820.488	65.2
820.796	65.07
821.105	65.17
821.413	65.15
821.721	65.45
822.029	65.5
822.337	65.57
822.645	65.49
822.953	65.47
823.26	65.37
823.568	65.23
823.876	65.28
824.184	65.45
824.491	65.32
824.799	65.33
825.107	65.46
825.414	65.76
825.722	65.75
826.029	65.96
826.337	65.98
826.644	65.68
826.951	65.78
827.259	65.74
827.566	65.63
827.873	65.79
828.18	65.86
828.488	65.95
828.795	65.76
829.102	65.97
829.409	66.04
829.716	66.12
830.023	66.21
830.329	66.21
830.636	66.53
830.943	66.75
831.25	67.03
831.557	67.16
831.863	66.96
832.17	66.89
832.476	66.76
832.783	66.82
833.089	67.07
833.396	67.55
833.702	67.85
834.009	67.94
834.315	68.04
834.621	67.79
834.928	67.65
835.234	67.76
835.54	67.58
835.846	67.6
836.152	67.29
836.458	66.88
836.764	66.78
837.07	66.84
837.376	66.65
837.682	65.84
837.988	64.81
838.293	64.63
838.599	64.56
838.905	64.45
839.211	64.27
839.516	63.55
839.822	63.09
840.127	62.35
840.433	62.07
840.738	61.07
841.044	61.68
841.349	61.27
841.654	61.8
841.959	60.49
842.265	61.3
842.57	62.42
842.875	63.13
843.18	64.29
843.485	63.68
843.79	64.45
844.095	64.59
844.4	65.87
844.705	65.1
845.01	64.93
845.315	65.38
845.619	65.28
845.924	64.69
846.229	64.87
846.533	64.67
846.838	63.71
847.142	65.29
847.447	62.76
847.751	61.86
848.056	60.06
848.36	62.41
848.664	62.07
848.969	61.06
849.273	60.1
849.577	57.78
849.881	56.53
850.185	55.82
850.489	56.15
850.794	55.42
851.097	57.3
851.401	57.29
851.705	55.88
852.009	55.34
852.313	56.29
852.617	55.39
852.92	56.75
853.224	57.03
853.528	56.49
853.831	57.18
854.135	58.97
854.438	61.55
854.742	60.07
855.045	58.7
855.349	58.01
855.652	59.68
855.955	59.58
856.259	60.16
856.562	59.45
856.865	60.03
857.168	61.58
857.471	58.31
857.774	59.45
858.077	60.85
858.38	60.69
858.683	61.22
858.986	61.7
859.289	58.4
859.592	59.02
859.894	59.75
860.197	60.4
860.5	60.31
860.802	58.26
861.105	61.53
861.407	60.35
861.71	62.52
862.012	63.68
862.315	64.56
862.617	64.78
862.919	64.61
863.222	63.96
863.524	61.74
863.826	64.94
864.128	63.69
864.43	64.25
864.732	65.92
865.034	67.11
865.336	66.41
865.638	69.34
865.94	68.7
866.242	67.37
866.544	68.5
866.846	67.86
867.147	67.56
867.449	64.92
867.751	65.96
868.052	64.87
868.354	62.06
868.655	63.51
868.957	63.19
869.258	62.32
869.56	63.06
869.861	64.43
870.162	64.49
870.463	64.31
870.765	61.6
871.066	60.5
871.367	58.87
871.668	59.92
871.969	60.39
872.27	60.95
872.571	63.17
872.872	65.01
873.173	66.65
873.473	66.29
873.774	66.55
874.075	70.28
874.376	70.39
874.676	71.99
874.977	74.09
875.277	74.85
875.578	76.42
875.878	77.31
876.179	77.99
876.479	77.44
876.78	78.94
877.08	82.24
877.38	81.81
877.68	83.5
877.981	85.13
878.281	86.64
878.581	88.6
