Data from BA28472_Reflection_00001.txt Node
Date: Mon Nov 18 15:24:07 EST 2019
User: vgr7
Spectrometer: USB2G7710
Scans to average: 3
Trigger mode: 4
Integration Time (sec): 2.000000E-2
Electric dark correction enabled: true
Boxcar width: 10
XAxis mode: Wavelengths
Number of Pixels in Spectrum: 2048
>>>>>Begin Spectral Data<<<<<
177.721	2.32
178.105	100
178.488	237.34
178.871	162.38
179.254	77.55
179.636	212.15
180.019	-8627.27
180.402	169.23
180.785	60.68
181.168	84.69
181.55	-331.14
181.933	177.84
182.316	124.57
182.698	108.62
183.081	97.25
183.463	66.88
183.846	50.72
184.228	66.15
184.611	36.53
184.993	28.6
185.376	13.7
185.758	23.62
186.14	59.84
186.522	113.15
186.904	86.7
187.287	78.56
187.669	92.31
188.051	155.11
188.433	106.75
188.815	108.22
189.197	129.94
189.579	68.33
189.961	77.08
190.342	116.52
190.724	287.11
191.106	252.14
191.488	606.2
191.869	-427.83
192.251	-211.4
192.633	-115.26
193.014	-256.19
193.396	-389.49
193.777	-355.54
194.159	-540.6
194.54	-312.21
194.922	-204.38
195.303	-202.45
195.684	-150.15
196.065	-126.49
196.447	-125.42
196.828	-127.38
197.209	-110.95
197.59	-155.32
197.971	-122.32
198.352	-75.01
198.733	-79.56
199.114	-84.89
199.495	-54.71
199.876	-75.96
200.257	-87.33
200.638	-85.33
201.018	-113.58
201.399	-97.67
201.78	-51.76
202.16	-53.39
202.541	-95.5
202.922	-153.62
203.302	-150.11
203.683	-144.8
204.063	-130.19
204.444	-153.05
204.824	-246.78
205.204	-229.47
205.585	-203.68
205.965	-217.54
206.345	-281.78
206.725	-529.83
207.106	-539.48
207.486	-592.1
207.866	-525.47
208.246	-529.46
208.626	-720.56
209.006	-679.15
209.386	-782.9
209.766	-1271.15
210.145	-2311.58
210.525	-1624.82
210.905	-1808.36
211.285	-2212.73
211.664	-1411.57
212.044	2525.53
212.424	-4437.82
212.803	-735.99
213.183	-629.84
213.562	-2294.09
213.942	6675.34
214.321	-1175.95
214.701	-1350.75
215.08	-1215.07
215.459	-654.04
215.838	-445.45
216.218	-217.33
216.597	-124.15
216.976	-118.24
217.355	-125.61
217.734	-84.3
218.113	-98.03
218.492	-110.64
218.871	-91.52
219.25	-51.26
219.629	-84.14
220.008	-80.6
220.387	-95.56
220.766	-72.4
221.144	-104.45
221.523	-88.96
221.902	-94.7
222.28	-101.19
222.659	-81.49
223.037	-59.15
223.416	-72.77
223.794	-74.43
224.173	-79.33
224.551	-82.63
224.929	-56.51
225.308	-42.59
225.686	-33.79
226.064	-23.08
226.442	-17.33
226.821	-11.85
227.199	-16.15
227.577	-18.22
227.955	-15.74
228.333	-14.09
228.711	-14.69
229.089	-8.27
229.467	-10.23
229.845	-9.61
230.222	-9.96
230.6	-9.39
230.978	-8.18
231.356	-5.99
231.733	-7.68
232.111	-6.29
232.488	-2.98
232.866	-4.35
233.243	-2.34
233.621	-2.23
233.998	-4.84
234.376	-6.75
234.753	-6.89
235.13	-5.49
235.508	-2.98
235.885	-3.35
236.262	-3.37
236.639	-2.52
237.016	-3.35
237.393	-1.36
237.77	-0.14
238.147	0.47
238.524	1.2
238.901	2.24
239.278	2.34
239.655	3.7
240.032	3.8
240.409	3.26
240.785	3.32
241.162	3.37
241.539	2.94
241.915	3.67
242.292	3.8
242.668	3.77
243.045	4
243.421	4.09
243.798	3.92
244.174	3.98
244.551	4.15
244.927	4.34
245.303	4.52
245.679	4.33
246.056	4.41
246.432	4.44
246.808	4.22
247.184	3.8
247.56	3.5
247.936	3.42
248.312	3.32
248.688	3.49
249.064	3.35
249.44	3.35
249.815	3.28
250.191	3.35
250.567	3.33
250.943	3.11
251.318	3.04
251.694	3.17
252.069	3.31
252.445	3.22
252.82	3.05
253.196	2.71
253.571	2.62
253.947	2.92
254.322	2.99
254.697	3.2
255.073	3.4
255.448	3.64
255.823	3.76
256.198	3.93
256.573	3.76
256.948	3.87
257.323	3.98
257.698	3.96
258.073	3.95
258.448	3.97
258.823	3.99
259.198	3.93
259.573	3.85
259.948	3.86
260.322	3.73
260.697	3.61
261.072	3.66
261.446	3.7
261.821	3.5
262.195	3.42
262.57	3.24
262.944	3.14
263.319	3.06
263.693	2.95
264.067	3.03
264.442	3.15
264.816	3.27
265.19	3.2
265.564	3.12
265.938	3.08
266.313	2.96
266.687	3.07
267.061	2.98
267.435	3.05
267.809	3.08
268.183	3.08
268.556	3.17
268.93	3.15
269.304	3.04
269.678	3.04
270.051	3.17
270.425	3.35
270.799	3.53
271.172	3.6
271.546	3.54
271.919	3.36
272.293	3.32
272.666	3.24
273.04	3.2
273.413	3.36
273.787	3.32
274.16	3.44
274.533	3.42
274.906	3.41
275.279	3.47
275.653	3.32
276.026	3.27
276.399	3.28
276.772	3.23
277.145	3.22
277.518	3.3
277.891	3.12
278.263	3.11
278.636	2.88
279.009	2.87
279.382	3.03
279.755	3.01
280.127	3.1
280.5	3.06
280.872	3.17
281.245	2.97
281.617	3.22
281.99	3.28
282.362	3.27
282.735	3.36
283.107	3.41
283.479	3.52
283.852	3.67
284.224	3.73
284.596	3.72
284.968	3.91
285.34	3.82
285.713	3.88
286.085	3.82
286.457	4.15
286.829	4.21
287.201	4.2
287.572	4.25
287.944	4.23
288.316	4.26
288.688	4.3
289.06	4.4
289.431	4.22
289.803	4.12
290.175	4.04
290.546	4.21
290.918	4.07
291.289	3.94
291.661	4.04
292.032	4.07
292.403	4.12
292.775	4.23
293.146	4.17
293.517	4.15
293.889	4.22
294.26	4.07
294.631	3.93
295.002	3.78
295.373	3.78
295.744	3.75
296.115	3.75
296.486	3.64
296.857	3.66
297.228	3.64
297.599	3.65
297.97	3.66
298.34	3.55
298.711	3.75
299.082	3.78
299.452	3.64
299.823	3.61
300.194	3.62
300.564	3.47
300.935	3.54
301.305	3.47
301.676	3.51
302.046	3.57
302.416	3.87
302.787	3.95
303.157	3.95
303.527	3.85
303.897	3.9
304.267	3.93
304.637	3.95
305.008	3.94
305.378	4.03
305.748	4.07
306.117	3.99
306.487	3.78
306.857	3.84
307.227	3.81
307.597	3.75
307.967	3.71
308.336	3.72
308.706	3.77
309.076	3.8
309.445	3.81
309.815	3.69
310.184	3.53
310.554	3.56
310.923	3.58
311.293	3.69
311.662	3.63
312.031	3.61
312.401	3.47
312.77	3.63
313.139	3.64
313.508	3.68
313.877	3.65
314.246	3.76
314.616	3.66
314.985	3.7
315.353	3.79
315.722	3.79
316.091	3.66
316.46	3.54
316.829	3.66
317.198	3.5
317.567	3.51
317.935	3.35
318.304	3.3
318.672	3.22
319.041	3.3
319.41	3.45
319.778	3.44
320.147	3.44
320.515	3.29
320.883	3.14
321.252	3.15
321.62	3.23
321.988	3.13
322.357	3.16
322.725	3.14
323.093	3.07
323.461	3.16
323.829	3.35
324.197	3.62
324.565	3.52
324.933	3.66
325.301	3.73
325.669	3.79
326.037	3.97
326.405	4.03
326.772	4.09
327.14	4.04
327.508	4.04
327.875	4.07
328.243	4.17
328.61	4.22
328.978	4.21
329.346	4.31
329.713	4.32
330.08	4.45
330.448	4.43
330.815	4.35
331.182	4.36
331.55	4.39
331.917	4.17
332.284	4.32
332.651	4.21
333.018	4.27
333.385	4.31
333.752	4.16
334.119	4.03
334.486	3.87
334.853	3.87
335.22	3.86
335.587	3.94
335.954	3.93
336.32	3.93
336.687	3.93
337.054	3.9
337.42	3.92
337.787	3.91
338.153	3.84
338.52	3.81
338.886	3.68
339.253	3.58
339.619	3.69
339.986	3.65
340.352	3.63
340.718	3.51
341.084	3.52
341.451	3.57
341.817	3.69
342.183	3.68
342.549	3.69
342.915	3.71
343.281	3.69
343.647	3.63
344.013	3.64
344.379	3.62
344.745	3.54
345.11	3.63
345.476	3.61
345.842	3.63
346.208	3.76
346.573	3.86
346.939	3.96
347.304	3.86
347.67	3.86
348.035	3.95
348.401	3.93
348.766	3.96
349.132	3.96
349.497	3.91
349.862	4.01
350.228	4.01
350.593	4.01
350.958	4
351.323	4.04
351.688	4
352.053	3.98
352.418	4.09
352.783	4.09
353.148	4.06
353.513	4.07
353.878	3.98
354.243	4.05
354.608	3.94
354.972	3.97
355.337	4.08
355.702	4.05
356.066	4.12
356.431	4.09
356.795	4.14
357.16	4.11
357.524	4.05
357.889	4.04
358.253	4.08
358.618	4.18
358.982	4.12
359.346	4.1
359.71	4.15
360.075	4.12
360.439	4.12
360.803	4.13
361.167	4.15
361.531	4.21
361.895	4.09
362.259	4.09
362.623	4.05
362.987	3.97
363.351	4.01
363.714	3.99
364.078	3.94
364.442	3.89
364.806	3.92
365.169	3.91
365.533	3.9
365.896	3.82
366.26	3.78
366.623	3.81
366.987	3.85
367.35	3.85
367.714	3.86
368.077	3.79
368.44	3.74
368.803	3.76
369.167	3.72
369.53	3.76
369.893	3.86
370.256	3.92
370.619	3.95
370.982	3.92
371.345	3.89
371.708	3.97
372.071	4
372.434	3.95
372.797	4
373.159	3.95
373.522	4.07
373.885	4.05
374.247	4.08
374.61	4.08
374.973	3.97
375.335	3.92
375.698	3.92
376.06	3.96
376.423	3.94
376.785	3.94
377.147	4.02
377.51	3.97
377.872	3.98
378.234	4
378.596	4
378.958	4.02
379.321	3.97
379.683	3.97
380.045	4.01
380.407	3.94
380.769	3.95
381.13	3.91
381.492	3.86
381.854	3.83
382.216	3.87
382.578	3.96
382.939	3.93
383.301	3.95
383.663	3.92
384.024	3.9
384.386	4.01
384.747	4
385.109	4
385.47	3.95
385.832	3.94
386.193	3.94
386.554	3.94
386.916	3.94
387.277	3.96
387.638	4.01
387.999	4.04
388.36	4
388.721	3.99
389.082	4.01
389.443	4.02
389.804	3.97
390.165	3.97
390.526	4.06
390.887	4.07
391.248	4.11
391.609	4.16
391.969	4.11
392.33	4.1
392.691	4.1
393.051	4.14
393.412	4.13
393.772	4.12
394.133	4.14
394.493	4.15
394.854	4.14
395.214	4.11
395.574	4.1
395.935	4.15
396.295	4.18
396.655	4.2
397.015	4.21
397.376	4.2
397.736	4.21
398.096	4.13
398.456	4.12
398.816	4.09
399.176	4.06
399.535	4.07
399.895	4.02
400.255	3.99
400.615	3.97
400.975	3.99
401.334	3.97
401.694	3.97
402.054	3.97
402.413	3.97
402.773	3.96
403.132	3.94
403.492	3.94
403.851	3.94
404.211	3.95
404.57	3.95
404.929	3.98
405.288	3.96
405.648	3.98
406.007	3.98
406.366	3.99
406.725	4
407.084	3.99
407.443	4.02
407.802	4.05
408.161	4.04
408.52	4
408.879	3.98
409.238	3.99
409.596	4
409.955	4.01
410.314	4.03
410.673	4.06
411.031	4.07
411.39	4.05
411.748	4.05
412.107	4.06
412.465	4.08
412.824	4.07
413.182	4.1
413.54	4.13
413.899	4.15
414.257	4.16
414.615	4.17
414.974	4.18
415.332	4.13
415.69	4.14
416.048	4.17
416.406	4.2
416.764	4.18
417.122	4.18
417.48	4.16
417.838	4.16
418.195	4.17
418.553	4.15
418.911	4.17
419.269	4.16
419.626	4.15
419.984	4.14
420.342	4.16
420.699	4.14
421.057	4.15
421.414	4.14
421.772	4.15
422.129	4.14
422.486	4.13
422.844	4.16
423.201	4.15
423.558	4.16
423.915	4.16
424.273	4.17
424.63	4.17
424.987	4.18
425.344	4.17
425.701	4.17
426.058	4.18
426.415	4.16
426.772	4.18
427.128	4.18
427.485	4.17
427.842	4.16
428.199	4.18
428.555	4.16
428.912	4.18
429.269	4.16
429.625	4.17
429.982	4.17
430.338	4.13
430.695	4.16
431.051	4.14
431.407	4.14
431.764	4.14
432.12	4.12
432.476	4.11
432.832	4.1
433.189	4.12
433.545	4.11
433.901	4.1
434.257	4.1
434.613	4.1
434.969	4.11
435.325	4.1
435.681	4.1
436.036	4.1
436.392	4.09
436.748	4.1
437.104	4.1
437.459	4.1
437.815	4.1
438.171	4.08
438.526	4.1
438.882	4.1
439.237	4.09
439.593	4.13
439.948	4.14
440.304	4.13
440.659	4.13
441.014	4.14
441.369	4.15
441.725	4.15
442.08	4.16
442.435	4.16
442.79	4.17
443.145	4.17
443.5	4.18
443.855	4.16
444.21	4.16
444.565	4.16
444.92	4.16
445.275	4.19
445.629	4.19
445.984	4.18
446.339	4.18
446.693	4.18
447.048	4.17
447.403	4.15
447.757	4.15
448.112	4.14
448.466	4.13
448.82	4.13
449.175	4.13
449.529	4.13
449.883	4.11
450.238	4.11
450.592	4.13
450.946	4.1
451.3	4.1
451.654	4.08
452.008	4.09
452.362	4.09
452.716	4.07
453.07	4.08
453.424	4.09
453.778	4.1
454.132	4.1
454.486	4.08
454.839	4.08
455.193	4.09
455.547	4.09
455.9	4.09
456.254	4.09
456.607	4.08
456.961	4.07
457.314	4.07
457.668	4.09
458.021	4.06
458.375	4.08
458.728	4.1
459.081	4.11
459.434	4.11
459.787	4.13
460.141	4.13
460.494	4.13
460.847	4.11
461.2	4.11
461.553	4.11
461.906	4.11
462.259	4.13
462.611	4.13
462.964	4.14
463.317	4.15
463.67	4.14
464.022	4.14
464.375	4.14
464.728	4.15
465.08	4.14
465.433	4.15
465.785	4.16
466.138	4.15
466.49	4.14
466.843	4.14
467.195	4.13
467.547	4.15
467.899	4.15
468.252	4.12
468.604	4.13
468.956	4.11
469.308	4.14
469.66	4.13
470.012	4.13
470.364	4.14
470.716	4.14
471.068	4.16
471.42	4.18
471.772	4.2
472.123	4.2
472.475	4.21
472.827	4.21
473.178	4.2
473.53	4.19
473.882	4.21
474.233	4.22
474.585	4.21
474.936	4.19
475.288	4.19
475.639	4.23
475.99	4.22
476.342	4.24
476.693	4.23
477.044	4.25
477.395	4.25
477.746	4.24
478.097	4.26
478.448	4.25
478.8	4.24
479.15	4.23
479.501	4.23
479.852	4.25
480.203	4.26
480.554	4.27
480.905	4.29
481.255	4.29
481.606	4.3
481.957	4.31
482.307	4.32
482.658	4.32
483.009	4.33
483.359	4.34
483.709	4.35
484.06	4.36
484.41	4.37
484.761	4.37
485.111	4.38
485.461	4.38
485.811	4.38
486.162	4.39
486.512	4.4
486.862	4.4
487.212	4.39
487.562	4.4
487.912	4.39
488.262	4.38
488.612	4.38
488.961	4.37
489.311	4.37
489.661	4.37
490.011	4.37
490.36	4.36
490.71	4.35
491.06	4.34
491.409	4.33
491.759	4.31
492.108	4.3
492.458	4.29
492.807	4.28
493.157	4.27
493.506	4.27
493.855	4.25
494.204	4.26
494.554	4.26
494.903	4.26
495.252	4.24
495.601	4.27
495.95	4.26
496.299	4.27
496.648	4.27
496.997	4.27
497.346	4.27
497.695	4.28
498.043	4.29
498.392	4.29
498.741	4.3
499.09	4.3
499.438	4.32
499.787	4.33
500.135	4.32
500.484	4.34
500.832	4.36
501.181	4.37
501.529	4.36
501.878	4.38
502.226	4.37
502.574	4.39
502.923	4.37
503.271	4.36
503.619	4.35
503.967	4.36
504.315	4.35
504.663	4.36
505.011	4.36
505.359	4.34
505.707	4.36
506.055	4.38
506.403	4.4
506.751	4.41
507.098	4.4
507.446	4.4
507.794	4.4
508.141	4.38
508.489	4.39
508.837	4.41
509.184	4.42
509.531	4.42
509.879	4.42
510.226	4.46
510.574	4.47
510.921	4.49
511.268	4.48
511.616	4.49
511.963	4.5
512.31	4.51
512.657	4.54
513.004	4.51
513.351	4.51
513.698	4.52
514.045	4.5
514.392	4.51
514.739	4.51
515.086	4.5
515.432	4.51
515.779	4.51
516.126	4.52
516.473	4.51
516.819	4.52
517.166	4.53
517.512	4.51
517.859	4.5
518.205	4.5
518.552	4.52
518.898	4.52
519.245	4.52
519.591	4.51
519.937	4.5
520.283	4.53
520.629	4.53
520.976	4.52
521.322	4.53
521.668	4.54
522.014	4.54
522.36	4.56
522.706	4.57
523.052	4.58
523.398	4.59
523.743	4.6
524.089	4.61
524.435	4.6
524.781	4.62
525.126	4.63
525.472	4.64
525.817	4.65
526.163	4.65
526.509	4.65
526.854	4.67
527.199	4.69
527.545	4.68
527.89	4.68
528.235	4.68
528.581	4.69
528.926	4.7
529.271	4.7
529.616	4.69
529.961	4.69
530.306	4.68
530.651	4.68
530.996	4.69
531.341	4.7
531.686	4.71
532.031	4.71
532.376	4.71
532.721	4.72
533.065	4.72
533.41	4.73
533.755	4.74
534.099	4.73
534.444	4.73
534.788	4.73
535.133	4.74
535.477	4.76
535.822	4.76
536.166	4.75
536.51	4.76
536.855	4.77
537.199	4.77
537.543	4.77
537.887	4.78
538.231	4.78
538.576	4.79
538.92	4.79
539.264	4.79
539.608	4.79
539.951	4.78
540.295	4.78
540.639	4.77
540.983	4.77
541.327	4.77
541.671	4.78
542.014	4.79
542.358	4.78
542.701	4.77
543.045	4.78
543.389	4.78
543.732	4.79
544.075	4.79
544.419	4.79
544.762	4.81
545.105	4.8
545.449	4.79
545.792	4.76
546.135	4.75
546.478	4.74
546.821	4.73
547.165	4.73
547.508	4.75
547.851	4.76
548.194	4.75
548.536	4.76
548.879	4.74
549.222	4.72
549.565	4.73
549.908	4.72
550.25	4.71
550.593	4.72
550.936	4.71
551.278	4.71
551.621	4.73
551.963	4.73
552.306	4.71
552.648	4.73
552.991	4.76
553.333	4.76
553.675	4.78
554.017	4.79
554.36	4.78
554.702	4.79
555.044	4.8
555.386	4.82
555.728	4.78
556.07	4.79
556.412	4.79
556.754	4.81
557.096	4.82
557.438	4.82
557.78	4.85
558.121	4.88
558.463	4.9
558.805	4.87
559.147	4.84
559.488	4.87
559.83	4.87
560.171	4.87
560.513	4.92
560.854	4.91
561.196	4.91
561.537	4.91
561.878	4.86
562.22	4.85
562.561	4.82
562.902	4.84
563.243	4.83
563.584	4.87
563.925	4.86
564.266	4.89
564.607	4.89
564.948	4.87
565.289	4.87
565.63	4.85
565.971	4.88
566.312	4.89
566.653	4.91
566.993	4.91
567.334	4.89
567.675	4.87
568.015	4.87
568.356	4.91
568.696	4.94
569.037	4.96
569.377	4.97
569.718	4.99
570.058	4.99
570.398	5.01
570.739	5
571.079	5.01
571.419	5.01
571.759	5
572.099	5
572.439	5
572.779	5
573.119	5.01
573.459	5.03
573.799	5.03
574.139	5.03
574.479	5.04
574.819	5.03
575.158	5.03
575.498	5.02
575.838	5.01
576.177	4.99
576.517	5
576.856	5
577.196	5.01
577.535	5
577.875	5
578.214	4.99
578.553	4.97
578.893	4.97
579.232	4.93
579.571	4.94
579.91	4.94
580.25	4.93
580.589	4.94
580.928	4.93
581.267	4.9
581.606	4.89
581.945	4.92
582.283	4.91
582.622	4.9
582.961	4.89
583.3	4.91
583.639	4.95
583.977	4.98
584.316	4.97
584.654	4.94
584.993	4.95
585.332	4.94
585.67	4.96
586.008	4.97
586.347	5.01
586.685	4.99
587.024	4.97
587.362	4.96
587.7	4.94
588.038	4.93
588.376	4.94
588.715	4.95
589.053	4.93
589.391	4.92
589.729	4.93
590.067	4.94
590.404	4.97
590.742	4.96
591.08	4.91
591.418	4.91
591.756	4.97
592.093	4.97
592.431	4.96
592.769	4.96
593.106	4.98
593.444	4.97
593.781	4.96
594.119	5.01
594.456	5
594.793	5.03
595.131	5.02
595.468	5.05
595.805	5.07
596.143	5.06
596.48	5.09
596.817	5.07
597.154	5.05
597.491	5.01
597.828	5
598.165	5
598.502	5
598.839	4.99
599.176	4.96
599.512	4.98
599.849	4.98
600.186	4.96
600.523	5
600.859	5.04
601.196	5.06
601.532	5.08
601.869	5.07
602.205	5.08
602.542	5.1
602.878	5.11
603.215	5.11
603.551	5.13
603.887	5.16
604.223	5.18
604.56	5.22
604.896	5.21
605.232	5.26
605.568	5.3
605.904	5.3
606.24	5.32
606.576	5.34
606.912	5.35
607.248	5.36
607.583	5.34
607.919	5.32
608.255	5.33
608.591	5.35
608.926	5.36
609.262	5.38
609.597	5.36
609.933	5.37
610.268	5.38
610.604	5.37
610.939	5.35
611.275	5.36
611.61	5.35
611.945	5.39
612.281	5.35
612.616	5.33
612.951	5.34
613.286	5.35
613.621	5.35
613.956	5.31
614.291	5.35
614.626	5.39
614.961	5.39
615.296	5.32
615.631	5.32
615.966	5.34
616.3	5.35
616.635	5.37
616.97	5.4
617.304	5.39
617.639	5.38
617.973	5.42
618.308	5.45
618.642	5.46
618.977	5.43
619.311	5.45
619.646	5.45
619.98	5.44
620.314	5.44
620.648	5.43
620.983	5.55
621.317	5.51
621.651	5.48
621.985	5.46
622.319	5.48
622.653	5.49
622.987	5.46
623.321	5.46
623.655	5.43
623.988	5.35
624.322	5.29
624.656	5.3
624.99	5.33
625.323	5.28
625.657	5.27
625.99	5.31
626.324	5.29
626.657	5.28
626.991	5.33
627.324	5.34
627.658	5.4
627.991	5.35
628.324	5.37
628.657	5.31
628.991	5.3
629.324	5.29
629.657	5.25
629.99	5.24
630.323	5.26
630.656	5.29
630.989	5.37
631.322	5.43
631.655	5.39
631.987	5.39
632.32	5.41
632.653	5.41
632.986	5.36
633.318	5.34
633.651	5.39
633.984	5.33
634.316	5.29
634.649	5.25
634.981	5.23
635.313	5.26
635.646	5.34
635.978	5.38
636.31	5.39
636.643	5.4
636.975	5.41
637.307	5.38
637.639	5.4
637.971	5.36
638.303	5.37
638.635	5.38
638.967	5.35
639.299	5.38
639.631	5.4
639.963	5.43
640.295	5.54
640.626	5.46
640.958	5.51
641.29	5.52
641.621	5.54
641.953	5.53
642.285	5.51
642.616	5.52
642.948	5.51
643.279	5.56
643.61	5.57
643.942	5.6
644.273	5.57
644.604	5.56
644.936	5.5
645.267	5.49
645.598	5.5
645.929	5.54
646.26	5.52
646.591	5.49
646.922	5.45
647.253	5.41
647.584	5.4
647.915	5.36
648.245	5.36
648.576	5.38
648.907	5.35
649.238	5.31
649.568	5.28
649.899	5.34
650.229	5.29
650.56	5.33
650.89	5.28
651.221	5.32
651.551	5.32
651.882	5.41
652.212	5.43
652.542	5.45
652.872	5.39
653.203	5.45
653.533	5.45
653.863	5.51
654.193	5.49
654.523	5.56
654.853	5.57
655.183	5.58
655.513	5.52
655.843	5.54
656.172	5.54
656.502	5.58
656.832	5.55
657.162	5.64
657.491	5.52
657.821	5.55
658.15	5.53
658.48	5.54
658.809	5.49
659.139	5.49
659.468	5.46
659.798	5.47
660.127	5.42
660.456	5.44
660.785	5.44
661.115	5.51
661.444	5.49
661.773	5.48
662.102	5.47
662.431	5.5
662.76	5.51
663.089	5.58
663.418	5.57
663.747	5.58
664.076	5.47
664.404	5.59
664.733	5.63
665.062	5.6
665.39	5.59
665.719	5.61
666.048	5.65
666.376	5.65
666.705	5.68
667.033	5.64
667.362	5.69
667.69	5.69
668.018	5.65
668.347	5.69
668.675	5.72
669.003	5.8
669.331	5.84
669.659	5.9
669.987	5.82
670.315	5.79
670.643	5.81
670.971	5.87
671.299	5.87
671.627	5.82
671.955	5.84
672.283	5.86
672.61	5.78
672.938	5.78
673.266	5.83
673.593	5.86
673.921	5.95
674.249	5.91
674.576	5.89
674.904	5.9
675.231	5.78
675.558	5.77
675.886	5.76
676.213	5.77
676.54	5.77
676.867	5.85
677.195	5.83
677.522	5.85
677.849	5.83
678.176	5.81
678.503	5.8
678.83	5.79
679.157	5.77
679.484	5.89
679.81	5.9
680.137	5.82
680.464	5.69
680.791	5.68
681.117	5.59
681.444	5.68
681.771	5.69
682.097	5.73
682.424	5.73
682.75	5.69
683.077	5.62
683.403	5.61
683.729	5.57
684.056	5.61
684.382	5.64
684.708	5.64
685.034	5.66
685.36	5.67
685.686	5.65
686.012	5.63
686.339	5.63
686.664	5.61
686.99	5.76
687.316	5.88
687.642	5.87
687.968	5.94
688.294	5.88
688.619	5.92
688.945	5.99
689.271	6
689.596	5.96
689.922	5.97
690.247	5.87
690.573	5.88
690.898	5.93
691.224	5.84
691.549	5.94
691.874	5.86
692.2	5.95
692.525	6.11
692.85	6.24
693.175	6.15
693.5	6.14
693.825	6.06
694.15	6.11
694.475	6.09
694.8	6.21
695.125	6.17
695.45	6.11
695.775	6.13
696.099	6.14
696.424	6.19
696.749	6.17
697.073	6.29
697.398	6.32
697.723	6.34
698.047	6.35
698.372	6.24
698.696	6.33
699.02	6.29
699.345	6.25
699.669	6.26
699.993	6.28
700.318	6.26
700.642	6.21
700.966	6.22
701.29	6.24
701.614	6.18
701.938	6.24
702.262	6.23
702.586	6.17
702.91	6.16
703.234	6.16
703.557	6.23
703.881	6.23
704.205	6.17
704.529	5.98
704.852	6.03
705.176	6.03
705.499	6.01
705.823	5.93
706.146	5.84
706.47	5.74
706.793	5.83
707.117	5.87
707.44	5.97
707.763	5.9
708.086	5.8
708.409	5.79
708.733	5.75
709.056	5.74
709.379	5.8
709.702	5.77
710.025	5.77
710.348	5.77
710.671	5.69
710.993	5.79
711.316	5.85
711.639	5.84
711.962	6.03
712.284	6.04
712.607	6.12
712.93	6.14
713.252	6.12
713.575	6.06
713.897	6
714.22	6.03
714.542	6
714.864	6.13
715.187	6.22
715.509	6.16
715.831	6.26
716.153	6.24
716.475	6.37
716.798	6.41
717.12	6.37
717.442	6.4
717.764	6.33
718.085	6.3
718.407	6.3
718.729	6.14
719.051	6.07
719.373	5.95
719.695	5.97
720.016	6.02
720.338	6
720.659	6.19
720.981	6.16
721.302	6.29
721.624	6.17
721.945	6.03
722.267	6.04
722.588	5.78
722.909	5.78
723.231	5.65
723.552	5.57
723.873	5.71
724.194	5.82
724.515	5.86
724.836	6.08
725.157	6.23
725.478	6.2
725.799	6.24
726.12	6.36
726.441	6.43
726.762	6.51
727.083	6.62
727.403	6.49
727.724	6.45
728.045	6.4
728.365	6.51
728.686	6.5
729.006	6.63
729.327	6.7
729.647	6.73
729.967	6.64
730.288	6.69
730.608	6.53
730.928	6.48
731.249	6.48
731.569	6.44
731.889	6.28
732.209	6.41
732.529	6.4
732.849	6.5
733.169	6.37
733.489	6.24
733.809	6.19
734.129	6.18
734.448	6.23
734.768	6.18
735.088	6.32
735.408	6.37
735.727	6.31
736.047	6.43
736.366	6.45
736.686	6.61
737.005	6.76
737.325	6.88
737.644	6.91
737.963	6.95
738.283	6.86
738.602	7.01
738.921	6.96
739.24	6.93
739.56	6.78
739.879	6.83
740.198	6.84
740.517	7
740.836	7.09
741.155	6.99
741.473	7.08
741.792	6.86
742.111	6.87
742.43	6.79
742.748	6.63
743.067	6.51
743.386	6.55
743.704	6.32
744.023	6.34
744.341	6.14
744.66	6.39
744.978	6.3
745.297	6.22
745.615	6.19
745.933	6.19
746.252	6.4
746.57	6.41
746.888	6.52
747.206	6.27
747.524	6.12
747.842	6.47
748.16	6.65
748.478	6.76
748.796	6.9
749.114	7.3
749.432	7.38
749.749	7.37
750.067	7.29
750.385	7.35
750.703	7.26
751.02	7.28
751.338	7.05
751.655	7.22
751.973	7.16
752.29	7.17
752.608	7.33
752.925	7.3
753.242	7.43
753.56	7.22
753.877	7.11
754.194	7.3
754.511	7.19
754.828	6.99
755.145	6.88
755.462	6.85
755.779	6.55
756.096	6.61
756.413	6.67
756.73	6.93
757.047	7.05
757.364	7.09
757.68	7.34
757.997	7.18
758.314	7.15
758.63	7.08
758.947	7.22
759.264	7.07
759.58	6.99
759.896	6.98
760.213	6.96
760.529	7.21
760.846	7.15
761.162	7.16
761.478	7.18
761.794	7.22
762.11	7.27
762.426	7.36
762.743	7.35
763.059	7.31
763.375	7.15
763.69	7.19
764.006	7.35
764.322	7.36
764.638	7.6
764.954	7.81
765.27	7.73
765.585	7.68
765.901	7.81
766.216	7.85
766.532	7.84
766.848	7.86
767.163	8.09
767.478	8.1
767.794	8.08
768.109	7.91
768.424	7.93
768.74	7.9
769.055	7.75
769.37	7.9
769.685	7.93
770	7.99
770.315	8
770.63	7.89
770.945	7.86
771.26	7.47
771.575	7.06
771.89	7.41
772.205	7.28
772.52	6.94
772.834	6.68
773.149	6.6
773.464	6.79
773.778	6.43
774.093	6.27
774.407	5.99
774.722	6.15
775.036	6.22
775.351	6.04
775.665	6.12
775.979	5.85
776.293	6.2
776.608	6.19
776.922	5.72
777.236	5.88
777.55	5.74
777.864	5.77
778.178	6.25
778.492	6.3
778.806	6.48
779.12	6.8
779.434	7.28
779.747	7.39
780.061	7.66
780.375	7.66
780.689	8.03
781.002	8.43
781.316	8.81
781.629	8.94
781.943	9.08
782.256	9.22
782.57	9.24
782.883	8.69
783.196	8.35
783.51	8.55
783.823	8.39
784.136	8.63
784.449	8.65
784.762	8.32
785.075	8.49
785.388	8.6
785.701	8.66
786.014	8.68
786.327	8.51
786.64	8.26
786.953	8.11
787.266	7.96
787.578	7.81
787.891	7.64
788.204	7.38
788.516	7.37
788.829	7.64
789.141	8
789.454	8.59
789.766	8.99
790.079	9.15
790.391	8.78
790.703	8.56
791.016	8.5
791.328	8.88
791.64	8.42
791.952	8.34
792.264	8.22
792.576	7.87
792.888	8.36
793.2	8.28
793.512	8.3
793.824	8.33
794.136	8.27
794.448	8.37
794.76	8.3
795.071	8.53
795.383	8.28
795.695	7.87
796.006	7.46
796.318	7.73
796.629	8.4
796.941	8.61
797.252	8.83
797.564	9.2
797.875	8.72
798.186	8.71
798.497	8.81
798.809	8.91
799.12	8.98
799.431	8.57
799.742	8.42
800.053	8.76
800.364	9.03
800.675	8.58
800.986	8.39
801.297	8.7
801.608	8.34
801.918	8.04
802.229	8.33
802.54	8.59
802.851	8.22
803.161	7.57
803.472	7.44
803.782	7.68
804.093	7.91
804.403	7.89
804.714	7.34
805.024	7.22
805.334	7.05
805.645	7.47
805.955	7.91
806.265	8.48
806.575	8.11
806.885	7.8
807.195	8.65
807.505	8.36
807.815	7.9
808.125	7.64
808.435	8.09
808.745	7.93
809.055	8.33
809.365	8.1
809.674	7.65
809.984	8.23
810.294	7.75
810.603	7.34
810.913	7.86
811.222	8.19
811.532	8
811.841	8.33
812.151	8.04
812.46	7.7
812.769	7.24
813.079	6.9
813.388	6.75
813.697	6.07
814.006	6.65
814.315	7.2
814.624	6.83
814.933	6.92
815.242	7.26
815.551	6.87
815.86	7.34
816.169	7.87
816.478	7.27
816.786	7.38
817.095	7.39
817.404	7.09
817.712	7.32
818.021	7.59
818.33	7.62
818.638	7.29
818.947	7.94
819.255	8.5
819.563	9.26
819.872	9.48
820.18	9.75
820.488	9.67
820.796	9.82
821.105	10.12
821.413	10.07
821.721	9.94
822.029	9.95
822.337	9.87
822.645	9.93
822.953	10
823.26	10.15
823.568	10.03
823.876	10.1
824.184	10.18
824.491	10.14
824.799	10.2
825.107	10.35
825.414	10.26
825.722	10.22
826.029	10.23
826.337	10.18
826.644	10.06
826.951	9.99
827.259	9.88
827.566	9.87
827.873	9.91
828.18	9.95
828.488	10.01
828.795	9.91
829.102	9.77
829.409	9.82
829.716	9.72
830.023	9.84
830.329	9.76
830.636	9.7
830.943	9.86
831.25	9.66
831.557	9.45
831.863	9.2
832.17	8.88
832.476	8.59
832.783	8.85
833.089	8.95
833.396	9.44
833.702	9.75
834.009	9.88
834.315	9.66
834.621	9.53
834.928	9.43
835.234	9.59
835.54	9.36
835.846	9.18
836.152	9.18
836.458	9.26
836.764	8.9
837.07	8.9
837.376	8.62
837.682	8.65
837.988	8.8
838.293	8.96
838.599	9.43
838.905	9.52
839.211	8.51
839.516	8.78
839.822	8.33
840.127	7.95
840.433	8.15
840.738	8.52
841.044	8.25
841.349	8.07
841.654	8.32
841.959	8.92
842.265	9.57
842.57	9.87
842.875	10.13
843.18	11.29
843.485	11.17
843.79	10.6
844.095	9.4
844.4	9.74
844.705	8.84
845.01	7.87
845.315	6.76
845.619	7.77
845.924	7.25
846.229	6.85
846.533	6.8
846.838	5.6
847.142	4.25
847.447	3.82
847.751	3.45
848.056	1.32
848.36	0.1
848.664	-0.02
848.969	-0.6
849.273	0.1
849.577	-0.09
849.881	-0.65
850.185	0.77
850.489	2.32
850.794	2.39
851.097	2
851.401	3.51
851.705	3.43
852.009	5.67
852.313	5.8
852.617	5.79
852.92	5.81
853.224	6.09
853.528	6.61
853.831	8.89
854.135	8.69
854.438	11.76
854.742	11.45
855.045	11.29
855.349	10.93
855.652	10.15
855.955	10.03
856.259	9.94
856.562	9.26
856.865	7.8
857.168	7.14
857.471	9.15
857.774	8.01
858.077	9.95
858.38	7.68
858.683	7.92
858.986	8.45
859.289	7.88
859.592	9.2
859.894	8.73
860.197	9.28
860.5	10.47
860.802	11.05
861.105	12.8
861.407	12.72
861.71	11.55
862.012	12.7
862.315	11.56
862.617	12.17
862.919	13.7
863.222	16.73
863.524	17.49
863.826	16.81
864.128	16.86
864.43	15.91
864.732	15.79
865.034	14.19
865.336	13.96
865.638	14.57
865.94	13.25
866.242	13.49
866.544	12.63
866.846	12.27
867.147	11.09
867.449	8.71
867.751	8.86
868.052	10
868.354	7.44
868.655	7.83
868.957	7.56
869.258	4.91
869.56	4.07
869.861	1.51
870.162	0.83
870.463	2.17
870.765	2.82
871.066	3.16
871.367	3.94
871.668	4.12
871.969	4.31
872.27	3.61
872.571	4.23
872.872	2.64
873.173	3.94
873.473	3.22
873.774	7.23
874.075	7.71
874.376	7.18
874.676	6.9
874.977	5.73
875.277	5.81
875.578	7.06
875.878	6.73
876.179	8.42
876.479	9.71
876.78	8.39
877.08	8.31
877.38	8.53
877.68	9.07
877.981	8.56
878.281	6.51
878.581	8.1
