Data from BA28417_Reflection_00012.txt Node
Date: Mon Nov 18 16:11:21 EST 2019
User: vgr7
Spectrometer: USB2G7710
Scans to average: 3
Trigger mode: 4
Integration Time (sec): 2.000000E-2
Electric dark correction enabled: true
Boxcar width: 10
XAxis mode: Wavelengths
Number of Pixels in Spectrum: 2048
>>>>>Begin Spectral Data<<<<<
177.721	136.37
178.105	182.15
178.488	138.18
178.871	169.42
179.254	154.74
179.636	273.23
180.019	137.67
180.402	204.76
180.785	179.01
181.168	-1458.82
181.55	3.49
181.933	130.57
182.316	53.12
182.698	43.69
183.081	140.83
183.463	145.91
183.846	86.4
184.228	120.19
184.611	99.08
184.993	298.43
185.376	484.03
185.758	478.49
186.14	737.58
186.522	235.52
186.904	391.07
187.287	310.86
187.669	-1254.43
188.051	-193.63
188.433	-64.74
188.815	-17.47
189.197	-29.82
189.579	-75.7
189.961	-87.83
190.342	-122.28
190.724	-118.79
191.106	-129.85
191.488	-130.36
191.869	-85.66
192.251	-109.7
192.633	-148.83
193.014	-297.2
193.396	-617.91
193.777	-420.81
194.159	-342.8
194.54	-194.34
194.922	-197.09
195.303	-178.05
195.684	-159.36
196.065	-135.47
196.447	-107.76
196.828	-187.75
197.209	-203.61
197.59	-202.53
197.971	-183.05
198.352	-122.26
198.733	-112.26
199.114	-96.72
199.495	-90.55
199.876	-106.62
200.257	-83.93
200.638	-48.2
201.018	-21.11
201.399	-23.47
201.78	-11.96
202.16	-28.57
202.541	-57.03
202.922	-70.24
203.302	-64.69
203.683	-93.3
204.063	-124.33
204.444	-134.51
204.824	-93.72
205.204	-75.23
205.585	-96.64
205.965	-78.46
206.345	-76.71
206.725	-89.02
207.106	-95.18
207.486	-170.07
207.866	-178
208.246	-144.72
208.626	-150.12
209.006	-132.67
209.386	-217.22
209.766	-260.72
210.145	-178.87
210.525	-115.79
210.905	-97.67
211.285	-96.15
211.664	-64.15
212.044	-60.28
212.424	-70.91
212.803	-96.39
213.183	-78.83
213.562	-52.04
213.942	-49.39
214.321	-73.65
214.701	-74.03
215.08	-106.61
215.459	-77.52
215.838	-91.31
216.218	-88.24
216.597	-84.43
216.976	-125.21
217.355	-64.79
217.734	-47.42
218.113	-76.96
218.492	-111.05
218.871	-139.72
219.25	-173.23
219.629	-274.05
220.008	-540.75
220.387	-611.19
220.766	-1869.07
221.144	1368.16
221.523	783.28
221.902	670.41
222.28	527.44
222.659	377.69
223.037	9217.65
223.416	4929.79
223.794	-216.13
224.173	-162.91
224.551	-91.58
224.929	-36.74
225.308	-38.09
225.686	-30.27
226.064	-21.58
226.442	-14.52
226.821	-11.2
227.199	-9.18
227.577	-6.44
227.955	-7.54
228.333	-11.68
228.711	-4.46
229.089	-1.87
229.467	-3.12
229.845	-5.37
230.222	-3.95
230.6	-4.14
230.978	-6.06
231.356	-0.34
231.733	0.74
232.111	0.16
232.488	-0.21
232.866	-0.92
233.243	1.14
233.621	-0.65
233.998	0.58
234.376	-0.2
234.753	-0.25
235.13	-1.49
235.508	0.47
235.885	0.25
236.262	1.93
236.639	1.19
237.016	2.08
237.393	4.16
237.77	5.92
238.147	6.21
238.524	6.89
238.901	7.34
239.278	7.3
239.655	7.59
240.032	7.45
240.409	7.24
240.785	7.07
241.162	6.12
241.539	5.94
241.915	5.69
242.292	5.66
242.668	5.7
243.045	5.99
243.421	5.38
243.798	5.46
244.174	5.18
244.551	5.26
244.927	4.96
245.303	4.7
245.679	4.61
246.056	4.55
246.432	4.24
246.808	3.95
247.184	3.62
247.56	3.34
247.936	3.22
248.312	3.18
248.688	3.26
249.064	3.28
249.44	3.4
249.815	3.34
250.191	3.4
250.567	3.62
250.943	3.63
251.318	3.74
251.694	3.51
252.069	3.29
252.445	2.97
252.82	2.97
253.196	2.94
253.571	2.67
253.947	2.69
254.322	2.95
254.697	3.14
255.073	2.98
255.448	2.79
255.823	2.93
256.198	3.03
256.573	3.04
256.948	3.56
257.323	3.4
257.698	3.4
258.073	3.48
258.448	3.35
258.823	3.25
259.198	3.1
259.573	3.27
259.948	3.44
260.322	3.41
260.697	3.31
261.072	3.15
261.446	3.24
261.821	3.19
262.195	3.13
262.57	2.94
262.944	3.03
263.319	3.11
263.693	3.18
264.067	3.14
264.442	3.18
264.816	2.94
265.19	2.96
265.564	2.94
265.938	2.87
266.313	2.85
266.687	2.78
267.061	2.89
267.435	2.82
267.809	2.79
268.183	2.95
268.556	3.01
268.93	3.21
269.304	3.3
269.678	3.37
270.051	3.3
270.425	3.59
270.799	3.61
271.172	3.55
271.546	3.34
271.919	3.34
272.293	3.19
272.666	3.2
273.04	3.18
273.413	3.33
273.787	3.32
274.16	3.26
274.533	3.22
274.906	3.12
275.279	3.06
275.653	3.1
276.026	3.12
276.399	3.24
276.772	3.14
277.145	3
277.518	2.96
277.891	2.95
278.263	2.92
278.636	2.98
279.009	3.08
279.382	3.24
279.755	3.2
280.127	3.21
280.5	3.15
280.872	3.24
281.245	3.04
281.617	2.98
281.99	3.13
282.362	3.31
282.735	3.37
283.107	3.52
283.479	3.53
283.852	3.55
284.224	3.5
284.596	3.53
284.968	3.66
285.34	3.69
285.713	3.77
286.085	3.78
286.457	3.79
286.829	3.79
287.201	3.69
287.572	3.69
287.944	3.85
288.316	4.02
288.688	4.03
289.06	4.15
289.431	4.3
289.803	4.27
290.175	4.27
290.546	4.4
290.918	4.38
291.289	4.46
291.661	4.56
292.032	4.65
292.403	4.62
292.775	4.53
293.146	4.54
293.517	4.58
293.889	4.66
294.26	4.67
294.631	4.61
295.002	4.61
295.373	4.7
295.744	4.67
296.115	4.45
296.486	4.33
296.857	4.36
297.228	4.28
297.599	4.21
297.97	4.13
298.34	4.21
298.711	4.23
299.082	4.23
299.452	4.16
299.823	4.11
300.194	4.22
300.564	4.26
300.935	4.24
301.305	4.26
301.676	4.19
302.046	4.17
302.416	4.42
302.787	4.53
303.157	4.54
303.527	4.62
303.897	4.79
304.267	5.11
304.637	5.18
305.008	5.23
305.378	5.3
305.748	5.34
306.117	5.23
306.487	5.22
306.857	5.13
307.227	5.11
307.597	5.18
307.967	5.25
308.336	5.26
308.706	5.38
309.076	5.38
309.445	5.29
309.815	5.36
310.184	5.12
310.554	5.18
310.923	5.17
311.293	5.06
311.662	5.1
312.031	4.95
312.401	4.85
312.77	4.98
313.139	5.04
313.508	4.98
313.877	5.02
314.246	5.02
314.616	5.06
314.985	5.14
315.353	5.12
315.722	5.12
316.091	5.08
316.46	4.93
316.829	5.08
317.198	5.26
317.567	5.32
317.935	5.52
318.304	5.35
318.672	5.47
319.041	5.56
319.41	5.5
319.778	5.48
320.147	5.53
320.515	5.5
320.883	5.37
321.252	5.68
321.62	5.7
321.988	5.7
322.357	5.72
322.725	5.73
323.093	5.93
323.461	6.01
323.829	6.03
324.197	6.09
324.565	6.04
324.933	6.05
325.301	6.05
325.669	5.94
326.037	6.08
326.405	6.02
326.772	6.1
327.14	6.19
327.508	6.18
327.875	6.12
328.243	6.04
328.61	6.13
328.978	5.94
329.346	5.99
329.713	5.99
330.08	6.01
330.448	5.93
330.815	5.77
331.182	5.64
331.55	5.65
331.917	5.71
332.284	5.72
332.651	5.72
333.018	5.74
333.385	5.84
333.752	6.04
334.119	6.07
334.486	5.93
334.853	5.93
335.22	6.05
335.587	6.28
335.954	6.4
336.32	6.37
336.687	6.44
337.054	6.43
337.42	6.47
337.787	6.49
338.153	6.54
338.52	6.65
338.886	6.63
339.253	6.56
339.619	6.6
339.986	6.61
340.352	6.56
340.718	6.56
341.084	6.49
341.451	6.42
341.817	6.34
342.183	6.39
342.549	6.4
342.915	6.46
343.281	6.28
343.647	6.09
344.013	6.16
344.379	6.19
344.745	6.22
345.11	6.2
345.476	6.27
345.842	6.32
346.208	6.28
346.573	6.33
346.939	6.5
347.304	6.42
347.67	6.31
348.035	6.37
348.401	6.33
348.766	6.37
349.132	6.39
349.497	6.47
349.862	6.59
350.228	6.58
350.593	6.58
350.958	6.66
351.323	6.89
351.688	6.87
352.053	6.82
352.418	6.81
352.783	6.93
353.148	6.8
353.513	6.74
353.878	6.81
354.243	6.84
354.608	6.77
354.972	6.83
355.337	6.9
355.702	6.9
356.066	6.99
356.431	6.94
356.795	6.94
357.16	6.96
357.524	6.79
357.889	6.7
358.253	6.65
358.618	6.64
358.982	6.55
359.346	6.5
359.71	6.49
360.075	6.44
360.439	6.42
360.803	6.46
361.167	6.43
361.531	6.39
361.895	6.31
362.259	6.27
362.623	6.27
362.987	6.2
363.351	6.17
363.714	6.1
364.078	6.08
364.442	6.02
364.806	5.97
365.169	6.01
365.533	6.04
365.896	6.01
366.26	5.96
366.623	5.9
366.987	5.85
367.35	5.93
367.714	5.94
368.077	5.85
368.44	5.88
368.803	5.88
369.167	5.83
369.53	5.84
369.893	5.9
370.256	5.87
370.619	5.85
370.982	5.76
371.345	5.75
371.708	5.79
372.071	5.74
372.434	5.61
372.797	5.58
373.159	5.53
373.522	5.5
373.885	5.49
374.247	5.52
374.61	5.57
374.973	5.49
375.335	5.42
375.698	5.4
376.06	5.36
376.423	5.34
376.785	5.37
377.147	5.37
377.51	5.3
377.872	5.27
378.234	5.29
378.596	5.32
378.958	5.24
379.321	5.19
379.683	5.16
380.045	5.23
380.407	5.22
380.769	5.2
381.13	5.15
381.492	5.11
381.854	5.06
382.216	5.01
382.578	4.98
382.939	4.94
383.301	4.9
383.663	4.86
384.024	4.82
384.386	4.75
384.747	4.7
385.109	4.68
385.47	4.61
385.832	4.56
386.193	4.53
386.554	4.53
386.916	4.49
387.277	4.5
387.638	4.46
387.999	4.4
388.36	4.38
388.721	4.38
389.082	4.33
389.443	4.31
389.804	4.28
390.165	4.23
390.526	4.25
390.887	4.25
391.248	4.24
391.609	4.2
391.969	4.19
392.33	4.17
392.691	4.17
393.051	4.18
393.412	4.16
393.772	4.11
394.133	4.1
394.493	4.1
394.854	4.04
395.214	4
395.574	4
395.935	3.96
396.295	3.93
396.655	3.91
397.015	3.86
397.376	3.86
397.736	3.82
398.096	3.79
398.456	3.78
398.816	3.75
399.176	3.72
399.535	3.7
399.895	3.68
400.255	3.64
400.615	3.57
400.975	3.57
401.334	3.56
401.694	3.53
402.054	3.52
402.413	3.52
402.773	3.51
403.132	3.52
403.492	3.53
403.851	3.52
404.211	3.52
404.57	3.52
404.929	3.52
405.288	3.54
405.648	3.49
406.007	3.47
406.366	3.45
406.725	3.48
407.084	3.5
407.443	3.48
407.802	3.49
408.161	3.5
408.52	3.48
408.879	3.49
409.238	3.51
409.596	3.48
409.955	3.47
410.314	3.47
410.673	3.43
411.031	3.4
411.39	3.41
411.748	3.42
412.107	3.45
412.465	3.42
412.824	3.41
413.182	3.42
413.54	3.44
413.899	3.44
414.257	3.41
414.615	3.38
414.974	3.39
415.332	3.36
415.69	3.35
416.048	3.33
416.406	3.3
416.764	3.28
417.122	3.29
417.48	3.28
417.838	3.27
418.195	3.29
418.553	3.29
418.911	3.28
419.269	3.27
419.626	3.25
419.984	3.27
420.342	3.26
420.699	3.26
421.057	3.24
421.414	3.23
421.772	3.23
422.129	3.23
422.486	3.23
422.844	3.24
423.201	3.23
423.558	3.25
423.915	3.26
424.273	3.25
424.63	3.25
424.987	3.24
425.344	3.24
425.701	3.22
426.058	3.21
426.415	3.2
426.772	3.2
427.128	3.19
427.485	3.18
427.842	3.17
428.199	3.16
428.555	3.15
428.912	3.16
429.269	3.18
429.625	3.15
429.982	3.14
430.338	3.12
430.695	3.14
431.051	3.12
431.407	3.11
431.764	3.13
432.12	3.13
432.476	3.13
432.832	3.13
433.189	3.13
433.545	3.13
433.901	3.13
434.257	3.11
434.613	3.12
434.969	3.12
435.325	3.13
435.681	3.13
436.036	3.12
436.392	3.12
436.748	3.09
437.104	3.11
437.459	3.11
437.815	3.11
438.171	3.11
438.526	3.1
438.882	3.1
439.237	3.1
439.593	3.1
439.948	3.1
440.304	3.1
440.659	3.11
441.014	3.13
441.369	3.12
441.725	3.13
442.08	3.13
442.435	3.11
442.79	3.11
443.145	3.12
443.5	3.12
443.855	3.11
444.21	3.11
444.565	3.11
444.92	3.11
445.275	3.11
445.629	3.09
445.984	3.1
446.339	3.09
446.693	3.08
447.048	3.07
447.403	3.05
447.757	3.03
448.112	3.03
448.466	3
448.82	3
449.175	3.01
449.529	2.99
449.883	2.98
450.238	2.95
450.592	2.96
450.946	2.94
451.3	2.95
451.654	2.95
452.008	2.95
452.362	2.94
452.716	2.92
453.07	2.95
453.424	2.94
453.778	2.94
454.132	2.93
454.486	2.93
454.839	2.95
455.193	2.95
455.547	2.96
455.9	2.97
456.254	2.99
456.607	2.97
456.961	2.98
457.314	2.99
457.668	3.01
458.021	3
458.375	3
458.728	3
459.081	3
459.434	2.97
459.787	2.99
460.141	2.99
460.494	2.99
460.847	2.98
461.2	2.97
461.553	2.99
461.906	2.99
462.259	2.98
462.611	3.01
462.964	3
463.317	3
463.67	3
464.022	3
464.375	3
464.728	3.01
465.08	3.02
465.433	3.01
465.785	3.01
466.138	3
466.49	3.01
466.843	3.04
467.195	3.02
467.547	3.01
467.899	3
468.252	3.01
468.604	3.01
468.956	3.02
469.308	3.01
469.66	3.02
470.012	3.01
470.364	3.02
470.716	3.02
471.068	3.03
471.42	3.04
471.772	3.05
472.123	3.05
472.475	3.04
472.827	3.05
473.178	3.05
473.53	3.07
473.882	3.04
474.233	3.05
474.585	3.05
474.936	3.05
475.288	3.05
475.639	3.05
475.99	3.07
476.342	3.05
476.693	3.06
477.044	3.07
477.395	3.07
477.746	3.07
478.097	3.05
478.448	3.04
478.8	3.04
479.15	3.02
479.501	3.02
479.852	3.02
480.203	3.04
480.554	3.05
480.905	3.05
481.255	3.06
481.606	3.07
481.957	3.08
482.307	3.09
482.658	3.09
483.009	3.1
483.359	3.1
483.709	3.11
484.06	3.1
484.41	3.1
484.761	3.1
485.111	3.11
485.461	3.12
485.811	3.12
486.162	3.13
486.512	3.15
486.862	3.15
487.212	3.15
487.562	3.15
487.912	3.15
488.262	3.15
488.612	3.14
488.961	3.15
489.311	3.15
489.661	3.15
490.011	3.15
490.36	3.15
490.71	3.15
491.06	3.16
491.409	3.16
491.759	3.16
492.108	3.17
492.458	3.16
492.807	3.15
493.157	3.16
493.506	3.15
493.855	3.15
494.204	3.15
494.554	3.16
494.903	3.16
495.252	3.17
495.601	3.2
495.95	3.24
496.299	3.24
496.648	3.23
496.997	3.24
497.346	3.27
497.695	3.27
498.043	3.28
498.392	3.28
498.741	3.3
499.09	3.32
499.438	3.37
499.787	3.4
500.135	3.43
500.484	3.45
500.832	3.51
501.181	3.53
501.529	3.58
501.878	3.63
502.226	3.67
502.574	3.71
502.923	3.74
503.271	3.76
503.619	3.8
503.967	3.85
504.315	3.91
504.663	3.93
505.011	4
505.359	4.06
505.707	4.13
506.055	4.18
506.403	4.23
506.751	4.27
507.098	4.32
507.446	4.4
507.794	4.45
508.141	4.48
508.489	4.53
508.837	4.56
509.184	4.59
509.531	4.65
509.879	4.71
510.226	4.77
510.574	4.83
510.921	4.88
511.268	4.92
511.616	4.97
511.963	5.06
512.31	5.12
512.657	5.19
513.004	5.25
513.351	5.31
513.698	5.38
514.045	5.42
514.392	5.49
514.739	5.53
515.086	5.6
515.432	5.69
515.779	5.75
516.126	5.83
516.473	5.9
516.819	5.97
517.166	6.04
517.512	6.09
517.859	6.16
518.205	6.23
518.552	6.29
518.898	6.35
519.245	6.4
519.591	6.45
519.937	6.5
520.283	6.57
520.629	6.68
520.976	6.75
521.322	6.84
521.668	6.93
522.014	7.01
522.36	7.11
522.706	7.2
523.052	7.31
523.398	7.45
523.743	7.58
524.089	7.7
524.435	7.81
524.781	7.93
525.126	8.06
525.472	8.15
525.817	8.26
526.163	8.33
526.509	8.42
526.854	8.51
527.199	8.59
527.545	8.67
527.89	8.74
528.235	8.83
528.581	8.93
528.926	9.02
529.271	9.12
529.616	9.21
529.961	9.3
530.306	9.4
530.651	9.48
530.996	9.6
531.341	9.72
531.686	9.83
532.031	9.96
532.376	10.06
532.721	10.2
533.065	10.33
533.41	10.51
533.755	10.65
534.099	10.82
534.444	10.98
534.788	11.14
535.133	11.31
535.477	11.47
535.822	11.65
536.166	11.86
536.51	12.06
536.855	12.28
537.199	12.5
537.543	12.75
537.887	12.99
538.231	13.21
538.576	13.44
538.92	13.69
539.264	13.92
539.608	14.17
539.951	14.39
540.295	14.6
540.639	14.79
540.983	15.02
541.327	15.22
541.671	15.43
542.014	15.64
542.358	15.83
542.701	16.02
543.045	16.23
543.389	16.43
543.732	16.65
544.075	16.89
544.419	17.13
544.762	17.35
545.105	17.62
545.449	17.9
545.792	18.17
546.135	18.43
546.478	18.73
546.821	19
547.165	19.32
547.508	19.66
547.851	20.02
548.194	20.32
548.536	20.65
548.879	20.96
549.222	21.26
549.565	21.6
549.908	21.92
550.25	22.25
550.593	22.55
550.936	22.88
551.278	23.19
551.621	23.54
551.963	23.9
552.306	24.19
552.648	24.54
552.991	24.9
553.333	25.26
553.675	25.61
554.017	25.97
554.36	26.3
554.702	26.6
555.044	26.87
555.386	27.16
555.728	27.46
556.07	27.76
556.412	28.14
556.754	28.49
557.096	28.89
557.438	29.23
557.78	29.62
558.121	29.97
558.463	30.34
558.805	30.72
559.147	31.07
559.488	31.47
559.83	31.78
560.171	32.07
560.513	32.41
560.854	32.72
561.196	33.01
561.537	33.33
561.878	33.68
562.22	34.02
562.561	34.33
562.902	34.68
563.243	35.01
563.584	35.33
563.925	35.6
564.266	35.89
564.607	36.18
564.948	36.46
565.289	36.75
565.63	37
565.971	37.22
566.312	37.48
566.653	37.73
566.993	37.98
567.334	38.26
567.675	38.5
568.015	38.75
568.356	39.02
568.696	39.24
569.037	39.48
569.377	39.79
569.718	40.12
570.058	40.39
570.398	40.66
570.739	40.95
571.079	41.24
571.419	41.48
571.759	41.75
572.099	41.92
572.439	42.14
572.779	42.39
573.119	42.63
573.459	42.86
573.799	43.12
574.139	43.29
574.479	43.5
574.819	43.73
575.158	43.99
575.498	44.21
575.838	44.48
576.177	44.69
576.517	44.85
576.856	45.03
577.196	45.18
577.535	45.35
577.875	45.55
578.214	45.77
578.553	45.98
578.893	46.18
579.232	46.46
579.571	46.71
579.91	46.88
580.25	47.05
580.589	47.25
580.928	47.44
581.267	47.7
581.606	47.92
581.945	48.13
582.283	48.28
582.622	48.47
582.961	48.65
583.3	48.86
583.639	49.08
583.977	49.27
584.316	49.5
584.654	49.7
584.993	49.8
585.332	49.94
585.67	50.16
586.008	50.35
586.347	50.54
586.685	50.7
587.024	50.85
587.362	51.1
587.7	51.28
588.038	51.42
588.376	51.58
588.715	51.72
589.053	51.95
589.391	52.09
589.729	52.3
590.067	52.49
590.404	52.66
590.742	52.74
591.08	52.87
591.418	53.02
591.756	53.18
592.093	53.32
592.431	53.46
592.769	53.57
593.106	53.68
593.444	53.81
593.781	53.94
594.119	54.15
594.456	54.2
594.793	54.27
595.131	54.38
595.468	54.52
595.805	54.66
596.143	54.68
596.48	54.82
596.817	54.79
597.154	54.87
597.491	54.97
597.828	55.04
598.165	55.16
598.502	55.27
598.839	55.49
599.176	55.61
599.512	55.77
599.849	55.86
600.186	56.02
600.523	56.14
600.859	56.26
601.196	56.32
601.532	56.44
601.869	56.54
602.205	56.67
602.542	56.75
602.878	56.83
603.215	56.92
603.551	56.91
603.887	57.07
604.223	57.15
604.56	57.22
604.896	57.36
605.232	57.45
605.568	57.57
605.904	57.55
606.24	57.75
606.576	57.78
606.912	57.86
607.248	57.88
607.583	57.92
607.919	58.01
608.255	58.18
608.591	58.26
608.926	58.37
609.262	58.44
609.597	58.5
609.933	58.54
610.268	58.67
610.604	58.81
610.939	58.85
611.275	58.91
611.61	58.94
611.945	58.96
612.281	58.97
612.616	58.99
612.951	59.03
613.286	58.99
613.621	59.14
613.956	59.19
614.291	59.27
614.626	59.35
614.961	59.39
615.296	59.34
615.631	59.41
615.966	59.52
616.3	59.53
616.635	59.54
616.97	59.6
617.304	59.59
617.639	59.68
617.973	59.85
618.308	59.88
618.642	59.95
618.977	60.02
619.311	60.16
619.646	60.24
619.98	60.36
620.314	60.45
620.648	60.49
620.983	60.56
621.317	60.67
621.651	60.73
621.985	60.79
622.319	60.93
622.653	60.97
622.987	61.01
623.321	61.07
623.655	61.23
623.988	61.33
624.322	61.34
624.656	61.47
624.99	61.49
625.323	61.52
625.657	61.57
625.99	61.64
626.324	61.65
626.657	61.66
626.991	61.66
627.324	61.7
627.658	61.7
627.991	61.78
628.324	61.83
628.657	61.84
628.991	61.87
629.324	61.9
629.657	61.96
629.99	61.99
630.323	62.05
630.656	62.03
630.989	62.11
631.322	62.22
631.655	62.14
631.987	62.06
632.32	62.11
632.653	62.17
632.986	62.23
633.318	62.3
633.651	62.36
633.984	62.38
634.316	62.44
634.649	62.46
634.981	62.57
635.313	62.64
635.646	62.74
635.978	62.81
636.31	62.88
636.643	62.86
636.975	62.83
637.307	62.88
637.639	62.99
637.971	62.89
638.303	62.92
638.635	62.95
638.967	63.09
639.299	63.22
639.631	63.21
639.963	63.23
640.295	63.28
640.626	63.36
640.958	63.5
641.29	63.44
641.621	63.46
641.953	63.36
642.285	63.4
642.616	63.38
642.948	63.4
643.279	63.32
643.61	63.46
643.942	63.46
644.273	63.55
644.604	63.39
644.936	63.54
645.267	63.54
645.598	63.58
645.929	63.6
646.26	63.56
646.591	63.61
646.922	63.65
647.253	63.7
647.584	63.71
647.915	63.66
648.245	63.77
648.576	63.89
648.907	64
649.238	63.94
649.568	63.95
649.899	63.85
650.229	63.99
650.56	63.83
650.89	64.02
651.221	64.05
651.551	64.23
651.882	64.35
652.212	64.31
652.542	64.41
652.872	64.35
653.203	64.49
653.533	64.65
653.863	64.71
654.193	64.69
654.523	64.65
654.853	64.74
655.183	64.74
655.513	64.71
655.843	64.75
656.172	64.74
656.502	64.77
656.832	64.84
657.162	64.89
657.491	64.94
657.821	64.95
658.15	64.94
658.48	65.02
658.809	65
659.139	65.14
659.468	65.29
659.798	65.36
660.127	65.22
660.456	65.14
660.785	65.21
661.115	65.17
661.444	65.23
661.773	65.19
662.102	65.26
662.431	65.28
662.76	65.26
663.089	65.4
663.418	65.53
663.747	65.65
664.076	65.67
664.404	65.8
664.733	65.84
665.062	65.75
665.39	65.87
665.719	65.9
666.048	65.94
666.376	65.85
666.705	65.96
667.033	65.98
667.362	66.06
667.69	65.97
668.018	66.1
668.347	66.17
668.675	66.32
669.003	66.24
669.331	66.32
669.659	66.23
669.987	66.18
670.315	66.19
670.643	66
670.971	65.98
671.299	66.06
671.627	66.02
671.955	66.12
672.283	65.94
672.61	65.96
672.938	65.95
673.266	65.93
673.593	65.99
673.921	65.96
674.249	66.02
674.576	66.03
674.904	66.18
675.231	66.28
675.558	66.28
675.886	66.25
676.213	66.25
676.54	66.47
676.867	66.45
677.195	66.42
677.522	66.68
677.849	66.69
678.176	66.61
678.503	66.62
678.83	66.58
679.157	66.59
679.484	66.45
679.81	66.55
680.137	66.54
680.464	66.34
680.791	66.52
681.117	66.51
681.444	66.52
681.771	66.47
682.097	66.32
682.424	66.36
682.75	66.41
683.077	66.42
683.403	66.3
683.729	66.35
684.056	66.45
684.382	66.49
684.708	66.42
685.034	66.47
685.36	66.53
685.686	66.51
686.012	66.46
686.339	66.58
686.664	66.52
686.99	66.54
687.316	66.61
687.642	66.65
687.968	66.39
688.294	66.42
688.619	66.23
688.945	66.2
689.271	66.11
689.596	65.98
689.922	65.99
690.247	66.03
690.573	66.03
690.898	65.96
691.224	65.98
691.549	66.01
691.874	65.94
692.2	65.8
692.525	65.95
692.85	66.05
693.175	66.09
693.5	66.01
693.825	65.95
694.15	66.07
694.475	65.98
694.8	66.29
695.125	66.37
695.45	66.52
695.775	66.66
696.099	66.65
696.424	66.83
696.749	66.82
697.073	66.82
697.398	66.92
697.723	66.89
698.047	66.83
698.372	66.93
698.696	67.13
699.02	67.2
699.345	67.18
699.669	67.2
699.993	67.14
700.318	67.12
700.642	67.18
700.966	67.15
701.29	67.26
701.614	67.25
701.938	67.24
702.262	67.48
702.586	67.57
702.91	67.62
703.234	67.58
703.557	67.55
703.881	67.53
704.205	67.56
704.529	67.55
704.852	67.53
705.176	67.45
705.499	67.29
705.823	67.18
706.146	67.21
706.47	67.23
706.793	67.19
707.117	67.37
707.44	67.48
707.763	67.52
708.086	67.27
708.409	67.32
708.733	67.34
709.056	67.05
709.379	66.9
709.702	67.14
710.025	67.16
710.348	66.92
710.671	67.04
710.993	66.82
711.316	66.91
711.639	67.02
711.962	67.13
712.284	67.3
712.607	67.49
712.93	67.59
713.252	67.41
713.575	67.52
713.897	67.35
714.22	67.29
714.542	67.47
714.864	67.51
715.187	67.37
715.509	67.39
715.831	67.38
716.153	67.38
716.475	67.18
716.798	67.07
717.12	67.36
717.442	67.35
717.764	67.56
718.085	67.55
718.407	67.43
718.729	67.54
719.051	67.49
719.373	67.44
719.695	67.47
720.016	67.91
720.338	67.91
720.659	68.09
720.981	67.98
721.302	67.73
721.624	67.86
721.945	68.07
722.267	68.09
722.588	67.96
722.909	67.83
723.231	67.8
723.552	67.97
723.873	67.98
724.194	68.05
724.515	67.98
724.836	68.17
725.157	68.2
725.478	67.91
725.799	68.01
726.12	67.98
726.441	67.72
726.762	67.5
727.083	67.74
727.403	67.69
727.724	68.02
728.045	68.11
728.365	68.13
728.686	68.08
729.006	68.12
729.327	68.28
729.647	68.56
729.967	68.7
730.288	68.9
730.608	68.93
730.928	68.87
731.249	68.95
731.569	69.06
731.889	69.1
732.209	69.22
732.529	69.03
732.849	69.09
733.169	69.12
733.489	69.07
733.809	68.9
734.129	69
734.448	68.72
734.768	68.61
735.088	68.64
735.408	68.42
735.727	68.36
736.047	68.48
736.366	68.27
736.686	67.97
737.005	67.81
737.325	67.79
737.644	67.9
737.963	68.09
738.283	67.78
738.602	67.81
738.921	67.91
739.24	67.84
739.56	67.57
739.879	67.5
740.198	67.66
740.517	67.49
740.836	67.55
741.155	67.65
741.473	67.89
741.792	67.91
742.111	68.07
742.43	67.97
742.748	67.68
743.067	67.96
743.386	67.97
743.704	68.06
744.023	67.94
744.341	67.77
744.66	67.6
744.978	67.61
745.297	67.96
745.615	67.8
745.933	67.95
746.252	67.88
746.57	67.91
746.888	67.86
747.206	67.99
747.524	67.94
747.842	67.78
748.16	67.9
748.478	67.98
748.796	67.99
749.114	68.26
749.432	68.54
749.749	68.21
750.067	68.42
750.385	68.21
750.703	68.45
751.02	68.39
751.338	68.21
751.655	68.32
751.973	68.08
752.29	68.18
752.608	68.08
752.925	68.56
753.242	68.86
753.56	68.96
753.877	68.64
754.194	68.53
754.511	68.65
754.828	68.33
755.145	68.25
755.462	68.05
755.779	68.29
756.096	68.62
756.413	68.87
756.73	68.88
757.047	69.14
757.364	69.02
757.68	69.54
757.997	69.41
758.314	69.48
758.63	69.51
758.947	69.53
759.264	69.63
759.58	69.23
759.896	69.23
760.213	69.02
760.529	69.25
760.846	69.28
761.162	69.48
761.478	69.52
761.794	69.38
762.11	69.61
762.426	69.1
762.743	68.79
763.059	68.79
763.375	68.79
763.69	68.63
764.006	68.84
764.322	68.71
764.638	68.8
764.954	68.78
765.27	68.67
765.585	68.58
765.901	68.58
766.216	68.62
766.532	68.46
766.848	68.62
767.163	68.83
767.478	69.14
767.794	69.09
768.109	69.03
768.424	69.17
768.74	69.22
769.055	69.34
769.37	69.43
769.685	69.45
770	69.64
770.315	69.73
770.63	69.41
770.945	69.12
771.26	69.42
771.575	69.48
771.89	69.61
772.205	69.87
772.52	70.04
772.834	70.35
773.149	70.6
773.464	70.78
773.778	70.6
774.093	70.26
774.407	70.24
774.722	70.2
775.036	70.44
775.351	70.43
775.665	70.3
775.979	70.22
776.293	70.05
776.608	69.9
776.922	70.2
777.236	70.27
777.55	70.47
777.864	70.02
778.178	69.87
778.492	69.9
778.806	69.67
779.12	69.29
779.434	69.15
779.747	69.38
780.061	69.04
780.375	69.08
780.689	69.19
781.002	69.83
781.316	69.8
781.629	69.79
781.943	69.95
782.256	70.22
782.57	70.01
782.883	70
783.196	69.91
783.51	69.84
783.823	69.6
784.136	69.71
784.449	69.8
784.762	69.74
785.075	69.5
785.388	69.31
785.701	69.28
786.014	69.45
786.327	68.83
786.64	69.03
786.953	69.12
787.266	69.15
787.578	68.33
787.891	69.05
788.204	69.24
788.516	69.16
788.829	69.33
789.141	69.55
789.454	69.64
789.766	69.85
790.079	69.35
790.391	69.79
790.703	69.42
791.016	69.66
791.328	69.97
791.64	69.85
791.952	70.2
792.264	70.63
792.576	70.5
792.888	70.73
793.2	71.14
793.512	70.88
793.824	70.41
794.136	70.72
794.448	69.79
794.76	69.69
795.071	69.72
795.383	70.14
795.695	70.26
796.006	70.11
796.318	69.83
796.629	69.55
796.941	69.12
797.252	69.53
797.564	68.78
797.875	68.67
798.186	68.45
798.497	68.18
798.809	68.19
799.12	68.89
799.431	68.56
799.742	67.9
800.053	68.28
800.364	68.97
800.675	68.48
800.986	69.35
801.297	69.19
801.608	68.61
801.918	67.4
802.229	67.21
802.54	67.52
802.851	67.9
803.161	68.65
803.472	68.86
803.782	69.28
804.093	70.26
804.403	70.02
804.714	70.56
805.024	70.88
805.334	70.76
805.645	70.61
805.955	71.62
806.265	72.4
806.575	71.9
806.885	71.21
807.195	71.3
807.505	70.89
807.815	70.45
808.125	71.07
808.435	71.76
808.745	71.74
809.055	71.28
809.365	71.5
809.674	71.69
809.984	72.4
810.294	71.95
810.603	71.76
810.913	71.41
811.222	70.82
811.532	70.16
811.841	70.57
812.151	70.16
812.46	70
812.769	69.38
813.079	69.67
813.388	70
813.697	70.42
814.006	70.91
814.315	70.91
814.624	70.33
814.933	70.3
815.242	69.4
815.551	70.02
815.86	68.63
816.169	68.08
816.478	67.75
816.786	68.05
817.095	68.06
817.404	68.75
817.712	68.68
818.021	69.64
818.33	69.01
818.638	68.87
818.947	68.89
819.255	68.56
819.563	68.54
819.872	68.38
820.18	68.41
820.488	67.91
820.796	67.87
821.105	68.37
821.413	68.65
821.721	69.02
822.029	68.95
822.337	69.33
822.645	69.68
822.953	69.53
823.26	69.4
823.568	69.64
823.876	69.57
824.184	69.6
824.491	69.56
824.799	69.68
825.107	69.65
825.414	69.46
825.722	69.53
826.029	69.57
826.337	69.51
826.644	69.43
826.951	69.68
827.259	69.75
827.566	69.61
827.873	69.51
828.18	69.26
828.488	69.5
828.795	69.51
829.102	69.28
829.409	69.51
829.716	69.58
830.023	69.04
830.329	69.16
830.636	69.38
830.943	69.08
831.25	69.27
831.557	69.09
831.863	69.27
832.17	69.33
832.476	69.55
832.783	70.1
833.089	70.53
833.396	70.26
833.702	70.64
834.009	70.93
834.315	71.05
834.621	71.4
834.928	71.19
835.234	71.24
835.54	71.28
835.846	71.33
836.152	71.52
836.458	71.91
836.764	71.48
837.07	71.07
837.376	71.37
837.682	70.73
837.988	71.31
838.293	71.24
838.599	71.23
838.905	71.09
839.211	71.78
839.516	71.36
839.822	71.51
840.127	71.06
840.433	70.16
840.738	70.13
841.044	69.78
841.349	70.55
841.654	69.47
841.959	69.05
842.265	68.64
842.57	68.46
842.875	68.59
843.18	69.32
843.485	70.48
843.79	71.26
844.095	72.31
844.4	72.32
844.705	72.64
845.01	73.53
845.315	73.44
845.619	72.38
845.924	72.57
846.229	72.35
846.533	73.15
846.838	73.76
847.142	73.28
847.447	74.15
847.751	72.7
848.056	73.96
848.36	74.85
848.664	75.79
848.969	75.62
849.273	73.66
849.577	73.06
849.881	72.63
850.185	71.14
850.489	68.61
850.794	67.36
851.097	67.69
851.401	67.86
851.705	67.86
852.009	67.21
852.313	66.55
852.617	69.95
852.92	69.51
853.224	69.8
853.528	69.99
853.831	73.41
854.135	71.31
854.438	71.17
854.742	69.82
855.045	68.52
855.349	68.2
855.652	68.86
855.955	70.65
856.259	69.57
856.562	70.57
856.865	71.09
857.168	72.59
857.471	74.06
857.774	75
858.077	75.72
858.38	75.67
858.683	77.51
858.986	74.1
859.289	75.86
859.592	75.05
859.894	77.8
860.197	73.22
860.5	75.54
860.802	76.53
861.105	76.24
861.407	75.22
861.71	73.88
862.012	73.18
862.315	71.57
862.617	71.75
862.919	71.86
863.222	72.06
863.524	71.06
863.826	69.93
864.128	69.7
864.43	68.76
864.732	69.25
865.034	70
865.336	70.67
865.638	70.85
865.94	72.76
866.242	71.45
866.544	74.48
866.846	74.53
867.147	74.37
867.449	76.44
867.751	76.24
868.052	78.24
868.354	80.71
868.655	82.12
868.957	86.41
869.258	84.26
869.56	89.86
869.861	92.43
870.162	90.95
870.463	88.99
870.765	87.55
871.066	86.21
871.367	83.2
871.668	86.88
871.969	85.05
872.27	85.1
872.571	82.39
872.872	82.78
873.173	81
873.473	80.68
873.774	81.56
874.075	83.09
874.376	84.31
874.676	85.37
874.977	85.04
875.277	79.26
875.578	79.15
875.878	75.88
876.179	74.89
876.479	75.5
876.78	75.14
877.08	77.27
877.38	79.33
877.68	81.82
877.981	77.99
878.281	79.59
878.581	78.05
