Data from BA28304_Reflection_00010.txt Node
Date: Mon Nov 18 15:36:16 EST 2019
User: vgr7
Spectrometer: USB2G7710
Scans to average: 3
Trigger mode: 4
Integration Time (sec): 2.000000E-2
Electric dark correction enabled: true
Boxcar width: 10
XAxis mode: Wavelengths
Number of Pixels in Spectrum: 2048
>>>>>Begin Spectral Data<<<<<
177.721	12.76
178.105	31.2
178.488	26.89
178.871	-177.23
179.254	-175.66
179.636	-21.41
180.019	-312.15
180.402	129.03
180.785	851.88
181.168	2412.5
181.55	-2958.82
181.933	245.25
182.316	180.61
182.698	188.63
183.081	267.54
183.463	4658.14
183.846	-671.33
184.228	-299.07
184.611	1918.18
184.993	606.33
185.376	-105.61
185.758	-96.99
186.14	-29.87
186.522	-1.36
186.904	-363.05
187.287	-298.41
187.669	-73.56
188.051	-187.25
188.433	-99.08
188.815	23.16
189.197	61.25
189.579	46.38
189.961	83.66
190.342	40.25
190.724	50.14
191.106	64.87
191.488	79.09
191.869	86.96
192.251	66.41
192.633	64.38
193.014	63.49
193.396	59.51
193.777	64.36
194.159	83.54
194.54	68.33
194.922	58.74
195.303	60.47
195.684	73.83
196.065	97.61
196.447	120.81
196.828	119.37
197.209	133.52
197.59	168.53
197.971	193.47
198.352	201.2
198.733	240.57
199.114	239.28
199.495	197.58
199.876	236.48
200.257	342.33
200.638	285.85
201.018	238.78
201.399	193.99
201.78	210.1
202.16	194.69
202.541	283.26
202.922	674.51
203.302	1205.06
203.683	444.92
204.063	-229900
204.444	438.33
204.824	207.11
205.204	59.31
205.585	104.8
205.965	92.93
206.345	102.93
206.725	50.8
207.106	-37.52
207.486	279.37
207.866	-478.03
208.246	-74.59
208.626	-184.8
209.006	-111.86
209.386	-225.18
209.766	-228.15
210.145	-86.28
210.525	-13.17
210.905	28.48
211.285	19.26
211.664	18.76
212.044	20.41
212.424	1.65
212.803	6.38
213.183	37.91
213.562	18.35
213.942	20.43
214.321	48.44
214.701	82.11
215.08	87.61
215.459	95.34
215.838	86.75
216.218	105.84
216.597	132.01
216.976	134.83
217.355	118.48
217.734	107.63
218.113	113.24
218.492	123.89
218.871	77.65
219.25	109.47
219.629	128.12
220.008	77.72
220.387	107.44
220.766	85.44
221.144	61.58
221.523	44.01
221.902	30.77
222.28	17.54
222.659	17.42
223.037	22.36
223.416	10.37
223.794	11.28
224.173	14.68
224.551	21.98
224.929	16.87
225.308	20.42
225.686	25.24
226.064	15.4
226.442	13.47
226.821	15.23
227.199	10.95
227.577	8
227.955	7.82
228.333	4.3
228.711	3.51
229.089	7.82
229.467	5.07
229.845	6.83
230.222	11.18
230.6	9.59
230.978	6.49
231.356	8.94
231.733	6.61
232.111	6.94
232.488	8.52
232.866	7.37
233.243	6.03
233.621	2.88
233.998	5.19
234.376	2.21
234.753	4.68
235.13	6.36
235.508	8.88
235.885	7.95
236.262	6.34
236.639	5.88
237.016	3.86
237.393	5.76
237.77	6.97
238.147	5.58
238.524	5.89
238.901	5.37
239.278	5.68
239.655	6.4
240.032	5.54
240.409	4.66
240.785	5.51
241.162	5.67
241.539	6.55
241.915	6.81
242.292	6.96
242.668	6.6
243.045	6.27
243.421	5.91
243.798	6
244.174	6.11
244.551	6.29
244.927	6.4
245.303	6.56
245.679	6.31
246.056	6.26
246.432	6.32
246.808	6.55
247.184	6.19
247.56	6.1
247.936	6.09
248.312	6.09
248.688	5.95
249.064	5.92
249.44	5.62
249.815	5.58
250.191	5.68
250.567	5.65
250.943	5.63
251.318	5.71
251.694	5.72
252.069	5.73
252.445	5.84
252.82	5.71
253.196	5.49
253.571	5.47
253.947	5.52
254.322	5.72
254.697	5.67
255.073	5.38
255.448	5.34
255.823	5.44
256.198	5.42
256.573	5.34
256.948	5.21
257.323	5.31
257.698	5.27
258.073	5.07
258.448	4.96
258.823	4.81
259.198	4.66
259.573	4.65
259.948	4.42
260.322	4.42
260.697	4.42
261.072	4.23
261.446	4.34
261.821	4.33
262.195	4.28
262.57	4.2
262.944	4.3
263.319	4.24
263.693	4.31
264.067	4.38
264.442	4.44
264.816	4.41
265.19	4.2
265.564	4.24
265.938	4.19
266.313	4.16
266.687	4.43
267.061	4.53
267.435	4.58
267.809	4.76
268.183	4.66
268.556	4.58
268.93	4.69
269.304	4.55
269.678	4.73
270.051	4.73
270.425	4.7
270.799	4.77
271.172	4.82
271.546	4.53
271.919	4.53
272.293	4.43
272.666	4.64
273.04	4.74
273.413	4.57
273.787	4.73
274.16	4.7
274.533	4.55
274.906	4.56
275.279	4.64
275.653	4.67
276.026	4.59
276.399	4.56
276.772	4.61
277.145	4.47
277.518	4.38
277.891	4.29
278.263	4.18
278.636	4.17
279.009	4.07
279.382	4.22
279.755	4.11
280.127	4.29
280.5	4.2
280.872	4.38
281.245	4.38
281.617	4.49
281.99	4.7
282.362	4.74
282.735	4.58
283.107	4.36
283.479	4.44
283.852	4.59
284.224	4.76
284.596	4.7
284.968	4.77
285.34	4.81
285.713	4.73
286.085	4.91
286.457	5
286.829	5.06
287.201	4.96
287.572	4.87
287.944	4.68
288.316	4.57
288.688	4.45
289.06	4.39
289.431	4.2
289.803	4.06
290.175	4.09
290.546	4.25
290.918	4.34
291.289	4.27
291.661	4.21
292.032	4
292.403	4.11
292.775	4.29
293.146	4.16
293.517	4.17
293.889	4.17
294.26	4.07
294.631	3.96
295.002	4.1
295.373	4.17
295.744	4.21
296.115	4.23
296.486	4.06
296.857	4.17
297.228	4.27
297.599	4.35
297.97	4.32
298.34	4.29
298.711	4.39
299.082	4.5
299.452	4.5
299.823	4.7
300.194	4.59
300.564	4.4
300.935	4.45
301.305	4.5
301.676	4.47
302.046	4.45
302.416	4.71
302.787	4.68
303.157	4.69
303.527	4.71
303.897	4.79
304.267	5.14
304.637	5.3
305.008	5.39
305.378	5.47
305.748	5.48
306.117	5.45
306.487	5.35
306.857	5.37
307.227	5.48
307.597	5.35
307.967	5.32
308.336	5.3
308.706	5.2
309.076	5.28
309.445	5.33
309.815	5.44
310.184	5.23
310.554	5.28
310.923	5.29
311.293	5.43
311.662	5.43
312.031	5.33
312.401	5.12
312.77	5.13
313.139	5.06
313.508	5.09
313.877	5.08
314.246	5.15
314.616	5.13
314.985	5.15
315.353	5.11
315.722	5.34
316.091	5.41
316.46	5.56
316.829	5.46
317.198	5.52
317.567	5.56
317.935	5.65
318.304	5.72
318.672	5.78
319.041	5.82
319.41	5.79
319.778	5.71
320.147	5.84
320.515	5.64
320.883	5.53
321.252	5.59
321.62	5.71
321.988	5.57
322.357	5.46
322.725	5.36
323.093	5.44
323.461	5.33
323.829	5.33
324.197	5.28
324.565	5.31
324.933	5.31
325.301	5.28
325.669	5.3
326.037	5.27
326.405	5.42
326.772	5.38
327.14	5.43
327.508	5.51
327.875	5.48
328.243	5.61
328.61	5.79
328.978	5.84
329.346	5.81
329.713	5.88
330.08	5.94
330.448	5.97
330.815	6.02
331.182	6.19
331.55	6.31
331.917	6.35
332.284	6.48
332.651	6.47
333.018	6.5
333.385	6.4
333.752	6.32
334.119	6.15
334.486	6.04
334.853	5.92
335.22	5.95
335.587	5.92
335.954	5.91
336.32	5.79
336.687	5.8
337.054	5.82
337.42	5.84
337.787	5.89
338.153	6
338.52	5.95
338.886	5.78
339.253	5.65
339.619	5.68
339.986	5.61
340.352	5.65
340.718	5.63
341.084	5.79
341.451	5.92
341.817	5.97
342.183	6.01
342.549	6.02
342.915	6.1
343.281	6.17
343.647	6.11
344.013	6.12
344.379	5.96
344.745	5.97
345.11	5.99
345.476	6
345.842	5.97
346.208	6.06
346.573	6.15
346.939	6.15
347.304	6.15
347.67	6.19
348.035	6.16
348.401	6.18
348.766	6.13
349.132	6.11
349.497	6.18
349.862	6.3
350.228	6.3
350.593	6.3
350.958	6.24
351.323	6.35
351.688	6.42
352.053	6.47
352.418	6.54
352.783	6.64
353.148	6.6
353.513	6.66
353.878	6.63
354.243	6.66
354.608	6.72
354.972	6.71
355.337	6.67
355.702	6.75
356.066	6.78
356.431	6.76
356.795	6.74
357.16	6.63
357.524	6.57
357.889	6.64
358.253	6.61
358.618	6.67
358.982	6.57
359.346	6.48
359.71	6.49
360.075	6.39
360.439	6.31
360.803	6.33
361.167	6.27
361.531	6.22
361.895	6.16
362.259	6.13
362.623	6.12
362.987	6.11
363.351	5.99
363.714	5.95
364.078	5.91
364.442	5.9
364.806	5.93
365.169	5.88
365.533	5.87
365.896	5.81
366.26	5.82
366.623	5.83
366.987	5.78
367.35	5.75
367.714	5.79
368.077	5.72
368.44	5.7
368.803	5.62
369.167	5.6
369.53	5.53
369.893	5.59
370.256	5.53
370.619	5.56
370.982	5.49
371.345	5.47
371.708	5.46
372.071	5.4
372.434	5.27
372.797	5.23
373.159	5.15
373.522	5.16
373.885	5.11
374.247	5.1
374.61	5.11
374.973	5.1
375.335	5.05
375.698	5.05
376.06	4.96
376.423	4.98
376.785	5
377.147	5.02
377.51	4.95
377.872	4.95
378.234	4.9
378.596	4.92
378.958	4.85
379.321	4.83
379.683	4.86
380.045	4.91
380.407	4.9
380.769	4.89
381.13	4.84
381.492	4.76
381.854	4.76
382.216	4.77
382.578	4.78
382.939	4.74
383.301	4.67
383.663	4.68
384.024	4.63
384.386	4.64
384.747	4.64
385.109	4.62
385.47	4.54
385.832	4.5
386.193	4.51
386.554	4.52
386.916	4.5
387.277	4.47
387.638	4.47
387.999	4.44
388.36	4.4
388.721	4.39
389.082	4.4
389.443	4.36
389.804	4.31
390.165	4.27
390.526	4.29
390.887	4.26
391.248	4.25
391.609	4.23
391.969	4.17
392.33	4.14
392.691	4.14
393.051	4.16
393.412	4.17
393.772	4.14
394.133	4.1
394.493	4.1
394.854	4.05
395.214	4.01
395.574	4.03
395.935	3.97
396.295	3.97
396.655	3.9
397.015	3.87
397.376	3.87
397.736	3.85
398.096	3.84
398.456	3.86
398.816	3.85
399.176	3.82
399.535	3.79
399.895	3.79
400.255	3.77
400.615	3.75
400.975	3.73
401.334	3.71
401.694	3.7
402.054	3.68
402.413	3.7
402.773	3.65
403.132	3.61
403.492	3.66
403.851	3.62
404.211	3.65
404.57	3.64
404.929	3.65
405.288	3.63
405.648	3.57
406.007	3.54
406.366	3.53
406.725	3.55
407.084	3.57
407.443	3.53
407.802	3.54
408.161	3.54
408.52	3.52
408.879	3.51
409.238	3.51
409.596	3.51
409.955	3.48
410.314	3.52
410.673	3.51
411.031	3.46
411.39	3.49
411.748	3.46
412.107	3.47
412.465	3.43
412.824	3.43
413.182	3.45
413.54	3.46
413.899	3.45
414.257	3.44
414.615	3.41
414.974	3.41
415.332	3.4
415.69	3.37
416.048	3.34
416.406	3.34
416.764	3.33
417.122	3.32
417.48	3.31
417.838	3.32
418.195	3.31
418.553	3.32
418.911	3.3
419.269	3.32
419.626	3.32
419.984	3.31
420.342	3.31
420.699	3.31
421.057	3.32
421.414	3.3
421.772	3.29
422.129	3.31
422.486	3.3
422.844	3.29
423.201	3.29
423.558	3.29
423.915	3.29
424.273	3.3
424.63	3.29
424.987	3.29
425.344	3.27
425.701	3.28
426.058	3.29
426.415	3.29
426.772	3.29
427.128	3.27
427.485	3.27
427.842	3.27
428.199	3.27
428.555	3.24
428.912	3.26
429.269	3.28
429.625	3.25
429.982	3.25
430.338	3.24
430.695	3.26
431.051	3.26
431.407	3.28
431.764	3.25
432.12	3.26
432.476	3.26
432.832	3.26
433.189	3.25
433.545	3.24
433.901	3.24
434.257	3.22
434.613	3.23
434.969	3.24
435.325	3.24
435.681	3.25
436.036	3.26
436.392	3.25
436.748	3.23
437.104	3.25
437.459	3.23
437.815	3.23
438.171	3.22
438.526	3.23
438.882	3.21
439.237	3.23
439.593	3.23
439.948	3.22
440.304	3.23
440.659	3.24
441.014	3.23
441.369	3.22
441.725	3.21
442.08	3.22
442.435	3.21
442.79	3.19
443.145	3.19
443.5	3.19
443.855	3.19
444.21	3.19
444.565	3.18
444.92	3.19
445.275	3.19
445.629	3.2
445.984	3.2
446.339	3.2
446.693	3.18
447.048	3.17
447.403	3.16
447.757	3.14
448.112	3.13
448.466	3.13
448.82	3.14
449.175	3.14
449.529	3.14
449.883	3.14
450.238	3.15
450.592	3.14
450.946	3.13
451.3	3.13
451.654	3.13
452.008	3.13
452.362	3.12
452.716	3.12
453.07	3.13
453.424	3.13
453.778	3.12
454.132	3.13
454.486	3.13
454.839	3.13
455.193	3.14
455.547	3.13
455.9	3.14
456.254	3.14
456.607	3.14
456.961	3.16
457.314	3.14
457.668	3.13
458.021	3.12
458.375	3.12
458.728	3.12
459.081	3.12
459.434	3.13
459.787	3.13
460.141	3.13
460.494	3.11
460.847	3.1
461.2	3.1
461.553	3.09
461.906	3.1
462.259	3.1
462.611	3.1
462.964	3.12
463.317	3.12
463.67	3.13
464.022	3.13
464.375	3.12
464.728	3.14
465.08	3.15
465.433	3.17
465.785	3.17
466.138	3.16
466.49	3.16
466.843	3.16
467.195	3.16
467.547	3.17
467.899	3.19
468.252	3.19
468.604	3.21
468.956	3.22
469.308	3.23
469.66	3.23
470.012	3.24
470.364	3.22
470.716	3.22
471.068	3.21
471.42	3.2
471.772	3.19
472.123	3.19
472.475	3.2
472.827	3.23
473.178	3.23
473.53	3.24
473.882	3.25
474.233	3.26
474.585	3.25
474.936	3.25
475.288	3.25
475.639	3.25
475.99	3.25
476.342	3.23
476.693	3.24
477.044	3.24
477.395	3.24
477.746	3.24
478.097	3.22
478.448	3.22
478.8	3.22
479.15	3.23
479.501	3.22
479.852	3.21
480.203	3.2
480.554	3.19
480.905	3.2
481.255	3.19
481.606	3.19
481.957	3.19
482.307	3.2
482.658	3.19
483.009	3.18
483.359	3.19
483.709	3.19
484.06	3.19
484.41	3.19
484.761	3.2
485.111	3.19
485.461	3.2
485.811	3.2
486.162	3.2
486.512	3.2
486.862	3.2
487.212	3.21
487.562	3.21
487.912	3.22
488.262	3.22
488.612	3.22
488.961	3.23
489.311	3.24
489.661	3.24
490.011	3.25
490.36	3.26
490.71	3.27
491.06	3.28
491.409	3.28
491.759	3.29
492.108	3.29
492.458	3.3
492.807	3.3
493.157	3.32
493.506	3.33
493.855	3.33
494.204	3.34
494.554	3.33
494.903	3.32
495.252	3.33
495.601	3.34
495.95	3.36
496.299	3.36
496.648	3.37
496.997	3.37
497.346	3.38
497.695	3.4
498.043	3.4
498.392	3.41
498.741	3.44
499.09	3.44
499.438	3.48
499.787	3.51
500.135	3.52
500.484	3.55
500.832	3.56
501.181	3.58
501.529	3.6
501.878	3.65
502.226	3.69
502.574	3.72
502.923	3.72
503.271	3.73
503.619	3.75
503.967	3.75
504.315	3.78
504.663	3.81
505.011	3.83
505.359	3.84
505.707	3.86
506.055	3.88
506.403	3.91
506.751	3.92
507.098	3.96
507.446	3.99
507.794	4
508.141	4.03
508.489	4.05
508.837	4.07
509.184	4.09
509.531	4.1
509.879	4.16
510.226	4.2
510.574	4.23
510.921	4.27
511.268	4.31
511.616	4.33
511.963	4.35
512.31	4.37
512.657	4.4
513.004	4.43
513.351	4.46
513.698	4.5
514.045	4.54
514.392	4.57
514.739	4.61
515.086	4.65
515.432	4.69
515.779	4.72
516.126	4.77
516.473	4.8
516.819	4.83
517.166	4.84
517.512	4.87
517.859	4.9
518.205	4.91
518.552	4.95
518.898	4.99
519.245	5.03
519.591	5.07
519.937	5.11
520.283	5.16
520.629	5.2
520.976	5.26
521.322	5.3
521.668	5.33
522.014	5.38
522.36	5.44
522.706	5.49
523.052	5.58
523.398	5.66
523.743	5.73
524.089	5.83
524.435	5.91
524.781	5.98
525.126	6.06
525.472	6.13
525.817	6.19
526.163	6.27
526.509	6.34
526.854	6.41
527.199	6.46
527.545	6.51
527.89	6.58
528.235	6.64
528.581	6.7
528.926	6.77
529.271	6.84
529.616	6.91
529.961	6.99
530.306	7.07
530.651	7.13
530.996	7.21
531.341	7.29
531.686	7.39
532.031	7.48
532.376	7.57
532.721	7.67
533.065	7.79
533.41	7.9
533.755	8.01
534.099	8.11
534.444	8.24
534.788	8.38
535.133	8.5
535.477	8.63
535.822	8.78
536.166	8.95
536.51	9.12
536.855	9.29
537.199	9.5
537.543	9.69
537.887	9.89
538.231	10.11
538.576	10.33
538.92	10.55
539.264	10.77
539.608	10.97
539.951	11.18
540.295	11.34
540.639	11.51
540.983	11.69
541.327	11.88
541.671	12.06
542.014	12.25
542.358	12.42
542.701	12.61
543.045	12.79
543.389	12.98
543.732	13.16
544.075	13.38
544.419	13.57
544.762	13.79
545.105	14.01
545.449	14.24
545.792	14.5
546.135	14.76
546.478	15.06
546.821	15.36
547.165	15.64
547.508	16
547.851	16.34
548.194	16.63
548.536	16.94
548.879	17.3
549.222	17.6
549.565	17.94
549.908	18.32
550.25	18.68
550.593	19.05
550.936	19.44
551.278	19.78
551.621	20.12
551.963	20.48
552.306	20.85
552.648	21.21
552.991	21.55
553.333	21.88
553.675	22.19
554.017	22.55
554.36	22.89
554.702	23.21
555.044	23.51
555.386	23.88
555.728	24.26
556.07	24.56
556.412	24.94
556.754	25.32
557.096	25.66
557.438	26.03
557.78	26.35
558.121	26.75
558.463	27.15
558.805	27.55
559.147	27.86
559.488	28.21
559.83	28.57
560.171	28.93
560.513	29.25
560.854	29.57
561.196	29.93
561.537	30.3
561.878	30.67
562.22	31.06
562.561	31.43
562.902	31.76
563.243	32.15
563.584	32.48
563.925	32.79
564.266	33.08
564.607	33.33
564.948	33.61
565.289	33.89
565.63	34.19
565.971	34.49
566.312	34.88
566.653	35.24
566.993	35.51
567.334	35.78
567.675	36.12
568.015	36.43
568.356	36.7
568.696	36.99
569.037	37.28
569.377	37.55
569.718	37.82
570.058	38.1
570.398	38.37
570.739	38.64
571.079	38.91
571.419	39.18
571.759	39.46
572.099	39.74
572.439	40.01
572.779	40.21
573.119	40.46
573.459	40.72
573.799	40.89
574.139	41.1
574.479	41.37
574.819	41.57
575.158	41.76
575.498	41.97
575.838	42.18
576.177	42.35
576.517	42.57
576.856	42.82
577.196	43.03
577.535	43.27
577.875	43.51
578.214	43.74
578.553	44
578.893	44.29
579.232	44.51
579.571	44.77
579.91	45.06
580.25	45.23
580.589	45.38
580.928	45.6
581.267	45.87
581.606	46.05
581.945	46.25
582.283	46.5
582.622	46.71
582.961	46.89
583.3	47.22
583.639	47.4
583.977	47.6
584.316	47.85
584.654	48.01
584.993	48.18
585.332	48.36
585.67	48.56
586.008	48.7
586.347	48.94
586.685	49.11
587.024	49.27
587.362	49.54
587.7	49.69
588.038	49.9
588.376	50.04
588.715	50.18
589.053	50.37
589.391	50.5
589.729	50.75
590.067	50.9
590.404	50.98
590.742	51.17
591.08	51.35
591.418	51.53
591.756	51.75
592.093	51.91
592.431	52.07
592.769	52.24
593.106	52.36
593.444	52.47
593.781	52.48
594.119	52.63
594.456	52.73
594.793	52.84
595.131	52.95
595.468	53.09
595.805	53.25
596.143	53.4
596.48	53.54
596.817	53.54
597.154	53.66
597.491	53.7
597.828	53.74
598.165	53.83
598.502	53.87
598.839	53.94
599.176	54.03
599.512	54.23
599.849	54.34
600.186	54.55
600.523	54.69
600.859	54.94
601.196	54.99
601.532	55.12
601.869	55.22
602.205	55.36
602.542	55.49
602.878	55.56
603.215	55.63
603.551	55.77
603.887	55.91
604.223	55.98
604.56	56.16
604.896	56.29
605.232	56.42
605.568	56.51
605.904	56.6
606.24	56.68
606.576	56.77
606.912	56.81
607.248	56.89
607.583	56.95
607.919	57.04
608.255	57.14
608.591	57.18
608.926	57.27
609.262	57.3
609.597	57.34
609.933	57.4
610.268	57.46
610.604	57.49
610.939	57.56
611.275	57.66
611.61	57.75
611.945	57.8
612.281	57.83
612.616	57.9
612.951	57.97
613.286	58.13
613.621	58.14
613.956	58.26
614.291	58.31
614.626	58.36
614.961	58.39
615.296	58.56
615.631	58.65
615.966	58.75
616.3	58.83
616.635	58.86
616.97	58.96
617.304	59.01
617.639	59.09
617.973	59.12
618.308	59.13
618.642	59.21
618.977	59.29
619.311	59.31
619.646	59.46
619.98	59.51
620.314	59.48
620.648	59.55
620.983	59.62
621.317	59.66
621.651	59.78
621.985	59.85
622.319	59.88
622.653	60.02
622.987	60.15
623.321	60.28
623.655	60.44
623.988	60.56
624.322	60.71
624.656	60.7
624.99	60.86
625.323	60.92
625.657	60.9
625.99	60.94
626.324	60.96
626.657	61.02
626.991	61.1
627.324	61.27
627.658	61.35
627.991	61.42
628.324	61.43
628.657	61.44
628.991	61.48
629.324	61.49
629.657	61.53
629.99	61.57
630.323	61.6
630.656	61.67
630.989	61.72
631.322	61.75
631.655	61.89
631.987	61.9
632.32	62
632.653	62.12
632.986	62.28
633.318	62.37
633.651	62.38
633.984	62.46
634.316	62.45
634.649	62.5
634.981	62.45
635.313	62.52
635.646	62.67
635.978	62.77
636.31	62.87
636.643	62.89
636.975	62.93
637.307	62.95
637.639	62.94
637.971	62.92
638.303	62.95
638.635	62.91
638.967	62.99
639.299	62.99
639.631	62.92
639.963	62.79
640.295	62.9
640.626	62.9
640.958	62.82
641.29	62.89
641.621	62.8
641.953	62.93
642.285	63.05
642.616	63.01
642.948	63.02
643.279	63
643.61	63.07
643.942	63.12
644.273	63.14
644.604	63.15
644.936	63.15
645.267	63.15
645.598	63.37
645.929	63.3
646.26	63.32
646.591	63.45
646.922	63.58
647.253	63.6
647.584	63.69
647.915	63.88
648.245	63.92
648.576	64.07
648.907	64.08
649.238	64.13
649.568	64.09
649.899	64.06
650.229	64.17
650.56	64.17
650.89	64.26
651.221	64.36
651.551	64.41
651.882	64.59
652.212	64.61
652.542	64.41
652.872	64.5
653.203	64.52
653.533	64.42
653.863	64.5
654.193	64.48
654.523	64.37
654.853	64.37
655.183	64.46
655.513	64.46
655.843	64.5
656.172	64.47
656.502	64.63
656.832	64.69
657.162	64.76
657.491	64.82
657.821	64.7
658.15	64.69
658.48	64.71
658.809	64.57
659.139	64.62
659.468	64.81
659.798	64.8
660.127	64.93
660.456	65.02
660.785	65
661.115	65.08
661.444	65.22
661.773	65.12
662.102	64.98
662.431	64.98
662.76	64.97
663.089	65.06
663.418	65.02
663.747	65.01
664.076	65.01
664.404	65
664.733	65.12
665.062	65.06
665.39	65.01
665.719	65.16
666.048	65.18
666.376	65.19
666.705	65.27
667.033	65.25
667.362	65.34
667.69	65.36
668.018	65.31
668.347	65.29
668.675	65.28
669.003	65.43
669.331	65.45
669.659	65.41
669.987	65.46
670.315	65.53
670.643	65.6
670.971	65.47
671.299	65.46
671.627	65.43
671.955	65.49
672.283	65.71
672.61	65.82
672.938	65.89
673.266	65.99
673.593	65.93
673.921	66.08
674.249	66.11
674.576	66.01
674.904	66.08
675.231	66.24
675.558	66.44
675.886	66.53
676.213	66.57
676.54	66.7
676.867	66.54
677.195	66.59
677.522	66.56
677.849	66.59
678.176	66.59
678.503	66.68
678.83	66.69
679.157	66.62
679.484	66.47
679.81	66.43
680.137	66.32
680.464	66.34
680.791	66.22
681.117	66.29
681.444	66.39
681.771	66.45
682.097	66.28
682.424	66.15
682.75	66.03
683.077	65.94
683.403	65.89
683.729	65.97
684.056	66.03
684.382	66.01
684.708	66.05
685.034	66.04
685.36	66
685.686	66
686.012	66.04
686.339	66.22
686.664	66.13
686.99	66.06
687.316	66.1
687.642	66.24
687.968	66.15
688.294	66.22
688.619	66.29
688.945	66.37
689.271	66.45
689.596	66.6
689.922	66.87
690.247	67.01
690.573	67
690.898	66.92
691.224	67.08
691.549	67.25
691.874	67.22
692.2	67.14
692.525	67.3
692.85	67.21
693.175	67.19
693.5	67.44
693.825	67.51
694.15	67.61
694.475	67.42
694.8	67.57
695.125	67.6
695.45	67.46
695.775	67.64
696.099	67.71
696.424	67.55
696.749	67.44
697.073	67.46
697.398	67.68
697.723	67.68
698.047	67.57
698.372	67.46
698.696	67.64
699.02	67.71
699.345	67.75
699.669	67.72
699.993	67.72
700.318	67.73
700.642	67.89
700.966	67.85
701.29	68.05
701.614	67.97
701.938	67.82
702.262	67.97
702.586	67.73
702.91	67.8
703.234	67.91
703.557	67.87
703.881	67.84
704.205	67.54
704.529	67.52
704.852	67.59
705.176	67.58
705.499	67.61
705.823	67.65
706.146	67.45
706.47	67.59
706.793	67.87
707.117	67.87
707.44	67.77
707.763	67.85
708.086	67.82
708.409	67.89
708.733	68.18
709.056	68.18
709.379	68.43
709.702	68.31
710.025	68.33
710.348	68.43
710.671	68.36
710.993	68.49
711.316	68.57
711.639	68.66
711.962	68.75
712.284	68.65
712.607	68.61
712.93	68.75
713.252	68.96
713.575	68.52
713.897	68.46
714.22	68.69
714.542	68.69
714.864	68.65
715.187	68.65
715.509	68.56
715.831	68.43
716.153	68.43
716.475	68.44
716.798	68.51
717.12	68.54
717.442	68.7
717.764	68.68
718.085	68.88
718.407	68.8
718.729	69.1
719.051	69.26
719.373	69.47
719.695	69.36
720.016	69.25
720.338	69.6
720.659	69.53
720.981	69.41
721.302	69.38
721.624	69.2
721.945	69.33
722.267	69.32
722.588	69.44
722.909	69.35
723.231	69.3
723.552	69.18
723.873	69.39
724.194	69.3
724.515	69.39
724.836	69.13
725.157	69.35
725.478	69.14
725.799	68.97
726.12	68.96
726.441	69.05
726.762	69.14
727.083	68.93
727.403	69.13
727.724	69.17
728.045	69.09
728.365	69.16
728.686	69.12
729.006	69.25
729.327	69.27
729.647	69.2
729.967	69.2
730.288	69.41
730.608	69.28
730.928	69.18
731.249	69.06
731.569	69
731.889	68.82
732.209	68.66
732.529	68.52
732.849	68.45
733.169	68.61
733.489	68.52
733.809	68.87
734.129	68.65
734.448	68.47
734.768	68.55
735.088	68.72
735.408	68.5
735.727	68.51
736.047	68.49
736.366	68.62
736.686	68.72
737.005	68.66
737.325	68.79
737.644	69.08
737.963	69.22
738.283	69.36
738.602	69.39
738.921	69.48
739.24	69.55
739.56	69.61
739.879	69.7
740.198	69.89
740.517	69.61
740.836	69.74
741.155	69.58
741.473	69.32
741.792	69.22
742.111	69.12
742.43	69.08
742.748	69.04
743.067	69.04
743.386	69.3
743.704	69.36
744.023	69.13
744.341	69.02
744.66	69.08
744.978	69.09
745.297	69.04
745.615	69.23
745.933	69.33
746.252	69.02
746.57	68.7
746.888	68.5
747.206	68.47
747.524	68.45
747.842	68.34
748.16	68.52
748.478	68.73
748.796	69.07
749.114	68.94
749.432	68.74
749.749	68.55
750.067	68.22
750.385	68.2
750.703	68.72
751.02	68.67
751.338	68.63
751.655	68.54
751.973	68.76
752.29	68.64
752.608	68.78
752.925	69.02
753.242	69.22
753.56	69.32
753.877	69.27
754.194	69.33
754.511	69.51
754.828	69.9
755.145	69.66
755.462	69.62
755.779	70.02
756.096	70.42
756.413	70.47
756.73	70.8
757.047	70.69
757.364	70.41
757.68	70.67
757.997	70.59
758.314	70.72
758.63	70.89
758.947	71.3
759.264	71.37
759.58	71.49
759.896	71.48
760.213	71.39
760.529	71.35
760.846	70.9
761.162	70.95
761.478	70.68
761.794	70.86
762.11	70.78
762.426	70.36
762.743	70.42
763.059	70.51
763.375	70.3
763.69	70.37
764.006	70.46
764.322	70.57
764.638	70.66
764.954	70.58
765.27	70.4
765.585	70.06
765.901	70.07
766.216	69.81
766.532	69.79
766.848	69.76
767.163	69.91
767.478	70.41
767.794	70.54
768.109	70.36
768.424	70.09
768.74	70.2
769.055	70.52
769.37	70.33
769.685	70.19
770	70.62
770.315	70.68
770.63	70.9
770.945	70.63
771.26	70.46
771.575	70.8
771.89	70.97
772.205	71.32
772.52	71.06
772.834	71.57
773.149	71.37
773.464	71.23
773.778	71.21
774.093	70.93
774.407	71.06
774.722	71.62
775.036	71.77
775.351	71.82
775.665	72.16
775.979	72.25
776.293	72.59
776.608	72.14
776.922	71.7
777.236	71.18
777.55	71.3
777.864	72.12
778.178	72.06
778.492	72.11
778.806	71.85
779.12	72.07
779.434	71.67
779.747	72.02
780.061	72.12
780.375	72.42
780.689	72.86
781.002	72.78
781.316	72.35
781.629	72.36
781.943	72.5
782.256	72.37
782.57	71.98
782.883	71.81
783.196	72.27
783.51	72.71
783.823	72.63
784.136	72
784.449	71.4
784.762	71.1
785.075	70.96
785.388	71.09
785.701	71.05
786.014	71.21
786.327	70.52
786.64	70.91
786.953	70.93
787.266	70.83
787.578	70.82
787.891	71.1
788.204	71.04
788.516	71.09
788.829	71.23
789.141	71.45
789.454	71.49
789.766	71.22
790.079	70.71
790.391	70.96
790.703	71.18
791.016	71.09
791.328	71.16
791.64	70.97
791.952	71.32
792.264	71.25
792.576	71.69
792.888	72.15
793.2	71.71
793.512	71.29
793.824	70.62
794.136	70.86
794.448	70.78
794.76	70.78
795.071	70.53
795.383	69.55
795.695	69.25
796.006	68.66
796.318	68.71
796.629	69.09
796.941	69.42
797.252	69.24
797.564	68.91
797.875	69.02
798.186	69.1
798.497	68.3
798.809	68.27
799.12	67.8
799.431	67.92
799.742	68.21
800.053	68.44
800.364	68.58
800.675	68.41
800.986	68.86
801.297	69.18
801.608	69.41
801.918	70.31
802.229	70.62
802.54	71.27
802.851	70.72
803.161	70.59
803.472	70.2
803.782	69.71
804.093	70.13
804.403	70.18
804.714	70.27
805.024	70.4
805.334	70.61
805.645	70.27
805.955	70.44
806.265	70.79
806.575	70.64
806.885	70.95
807.195	70.64
807.505	70.12
807.815	70.55
808.125	70.61
808.435	70.91
808.745	70.73
809.055	70.88
809.365	71.26
809.674	71.63
809.984	71.49
810.294	72.21
810.603	72.75
810.913	72.93
811.222	73.76
811.532	74.6
811.841	74.81
812.151	75.4
812.46	74.87
812.769	74.54
813.079	73.89
813.388	74.23
813.697	74.37
814.006	74.24
814.315	73
814.624	73.18
814.933	72.26
815.242	73.06
815.551	72.58
815.86	72.92
816.169	72.39
816.478	72.19
816.786	72.51
817.095	72.38
817.404	71.51
817.712	70.85
818.021	70.47
818.33	70.28
818.638	70.09
818.947	70.47
819.255	70.42
819.563	70.9
819.872	70.68
820.18	71.01
820.488	71.5
820.796	71.87
821.105	71.44
821.413	71.73
821.721	71.78
822.029	71.73
822.337	71.66
822.645	71.83
822.953	71.92
823.26	71.92
823.568	71.83
823.876	72.03
824.184	71.96
824.491	72.03
824.799	72.18
825.107	72.26
825.414	72.34
825.722	72.41
826.029	72.46
826.337	72.81
826.644	72.78
826.951	72.59
827.259	72.57
827.566	72.83
827.873	72.65
828.18	72.78
828.488	73.02
828.795	73.04
829.102	72.82
829.409	73.14
829.716	73.08
830.023	73.34
830.329	73.26
830.636	73.54
830.943	73.66
831.25	73.52
831.557	73.36
831.863	73.4
832.17	73.07
832.476	73.22
832.783	72.69
833.089	72.61
833.396	72.69
833.702	72.71
834.009	72.91
834.315	73.07
834.621	72.75
834.928	72.7
835.234	72.96
835.54	73.57
835.846	72.77
836.152	72.58
836.458	72.44
836.764	72.69
837.07	72.06
837.376	71.58
837.682	71.2
837.988	71.39
838.293	70.83
838.599	71.27
838.905	71.75
839.211	71.84
839.516	71.82
839.822	71.69
840.127	71.8
840.433	71.1
840.738	71.02
841.044	70.97
841.349	71.21
841.654	71.4
841.959	71.67
842.265	72.74
842.57	73.61
842.875	73.34
843.18	73.48
843.485	74.08
843.79	73.95
844.095	74.52
844.4	75.37
844.705	76.14
845.01	76.81
845.315	74.98
845.619	75.07
845.924	74.97
846.229	76.14
846.533	76.34
846.838	76.91
847.142	77.23
847.447	76.83
847.751	75.62
848.056	74.74
848.36	73.92
848.664	74.95
848.969	73.84
849.273	72.39
849.577	70.78
849.881	72.38
850.185	72.51
850.489	73.71
850.794	73.9
851.097	75.32
851.401	75.62
851.705	76.11
852.009	77.06
852.313	76.91
852.617	74.13
852.92	74.69
853.224	74.85
853.528	76
853.831	77.51
854.135	79.38
854.438	80.52
854.742	79.85
855.045	79.58
855.349	79.92
855.652	81.62
855.955	82.96
856.259	80.3
856.562	84.02
856.865	84.21
857.168	83.95
857.471	81.42
857.774	78.35
858.077	77.11
858.38	75.35
858.683	74.75
858.986	76.66
859.289	75.85
859.592	74.95
859.894	73.17
860.197	72.96
860.5	73.31
860.802	73.46
861.105	75.07
861.407	72.86
861.71	73.53
862.012	73.77
862.315	72.54
862.617	74.42
862.919	69.95
863.222	68.51
863.524	69.2
863.826	68.67
864.128	70.98
864.43	73.28
864.732	74.49
865.034	76.85
865.336	76.16
865.638	73.59
865.94	75.84
866.242	76.25
866.544	74.31
866.846	72.59
867.147	68.53
867.449	66.52
867.751	68.38
868.052	67.94
868.354	67.25
868.655	71.02
868.957	71.62
869.258	72.86
869.56	71.9
869.861	70.32
870.162	72.29
870.463	72.64
870.765	72.54
871.066	75.29
871.367	74.55
871.668	73.68
871.969	75.57
872.27	74.65
872.571	74.02
872.872	77.15
873.173	80.7
873.473	85.21
873.774	86.82
874.075	87.93
874.376	88.63
874.676	88.5
874.977	84.84
875.277	82.78
875.578	83.86
875.878	85.41
876.179	86.34
876.479	85.86
876.78	85.13
877.08	84.3
877.38	81.4
877.68	81.91
877.981	85.25
878.281	87.15
878.581	87.32
