Data from BA35141_Reflection_00001.txt Node
Date: Tue Nov 19 11:54:29 EST 2019
User: vgr7
Spectrometer: USB2G7710
Scans to average: 3
Trigger mode: 4
Integration Time (sec): 2.000000E-2
Electric dark correction enabled: true
Boxcar width: 10
XAxis mode: Wavelengths
Number of Pixels in Spectrum: 2048
>>>>>Begin Spectral Data<<<<<
177.721	-150.92
178.105	183.33
178.488	10.74
178.871	-4.39
179.254	-5.8
179.636	-43.55
180.019	-124.64
180.402	50
180.785	-14.41
181.168	70.72
181.55	210.56
181.933	138.34
182.316	220.23
182.698	129.01
183.081	151.09
183.463	299.75
183.846	266.67
184.228	278.94
184.611	342.32
184.993	415.87
185.376	302.64
185.758	407.81
186.14	457.97
186.522	1057.36
186.904	-975.76
187.287	-966.14
187.669	-2826.67
188.051	2023.42
188.433	768.58
188.815	493.25
189.197	4214.04
189.579	-3193.65
189.961	-1001.09
190.342	-423.6
190.724	-426
191.106	-2387.65
191.488	-611.47
191.869	-369.7
192.251	-264.43
192.633	-171.02
193.014	-136.66
193.396	-162.9
193.777	-123.12
194.159	-101.68
194.54	-131.12
194.922	-118.91
195.303	-93.22
195.684	-82.51
196.065	-77.49
196.447	-84.61
196.828	-67.52
197.209	-53.48
197.59	-47.91
197.971	-50.57
198.352	-68.42
198.733	-83.68
199.114	-79.31
199.495	-92.02
199.876	-98.85
200.257	-109.01
200.638	-127.91
201.018	-134.44
201.399	-97.9
201.78	-106.37
202.16	-125.74
202.541	-109.08
202.922	-121.12
203.302	-247.98
203.683	-261.79
204.063	-748.72
204.444	-489.35
204.824	-385.86
205.204	-302.59
205.585	-469.72
205.965	-618.29
206.345	-230.64
206.725	-170.16
207.106	-139.32
207.486	-142.22
207.866	-135.89
208.246	-102.73
208.626	-155.36
209.006	-195.36
209.386	-234.77
209.766	-222.75
210.145	-208.39
210.525	-240.18
210.905	-235.85
211.285	-173.56
211.664	-155.09
212.044	-138.23
212.424	-123.14
212.803	-111.44
213.183	-111.11
213.562	-100.36
213.942	-102.91
214.321	-86.5
214.701	-103.7
215.08	-165.71
215.459	-116.62
215.838	-141.12
216.218	-222.02
216.597	-120.39
216.976	-108.19
217.355	-104.32
217.734	-115.07
218.113	-83.47
218.492	-104.04
218.871	-104.56
219.25	-88.24
219.629	-103.79
220.008	-84.18
220.387	-78.68
220.766	-80.58
221.144	-83.88
221.523	-81.97
221.902	-73.9
222.28	-57.06
222.659	-44.68
223.037	-38.31
223.416	-45.92
223.794	-40.07
224.173	-41.76
224.551	-41.05
224.929	-38.86
225.308	-28.02
225.686	-20.99
226.064	-18
226.442	-5.06
226.821	0.83
227.199	-2.51
227.577	-3.77
227.955	-0.34
228.333	-3.83
228.711	3.83
229.089	4.16
229.467	1.42
229.845	1.49
230.222	0.86
230.6	-0.3
230.978	2.27
231.356	2.1
231.733	3.8
232.111	1.9
232.488	-0.65
232.866	1
233.243	-1.61
233.621	-2.04
233.998	-1.34
234.376	-2.28
234.753	-2.13
235.13	-2.34
235.508	-2.2
235.885	-4.04
236.262	-3.35
236.639	-3.37
237.016	-3.9
237.393	-2.52
237.77	-1.57
238.147	-1.49
238.524	-1.21
238.901	-1.52
239.278	-0.96
239.655	-0.33
240.032	0.3
240.409	1.31
240.785	0.82
241.162	1.54
241.539	1.91
241.915	2.13
242.292	2.39
242.668	1.45
243.045	2.44
243.421	3.27
243.798	3.44
244.174	3.39
244.551	3.17
244.927	3.28
245.303	3.29
245.679	3.26
246.056	3.28
246.432	3.58
246.808	3.57
247.184	3.72
247.56	3.73
247.936	4.08
248.312	4.14
248.688	4.3
249.064	4.19
249.44	4.21
249.815	3.91
250.191	3.72
250.567	4.12
250.943	3.85
251.318	3.75
251.694	3.86
252.069	3.91
252.445	3.74
252.82	3.88
253.196	4.01
253.571	4.23
253.947	4.33
254.322	4.14
254.697	4.08
255.073	3.77
255.448	3.7
255.823	3.49
256.198	3.39
256.573	3.67
256.948	3.71
257.323	3.79
257.698	4.04
258.073	4.02
258.448	4.13
258.823	3.98
259.198	3.82
259.573	3.74
259.948	3.74
260.322	3.74
260.697	3.77
261.072	3.55
261.446	3.32
261.821	3.22
262.195	3.18
262.57	3.47
262.944	3.63
263.319	3.62
263.693	3.64
264.067	3.58
264.442	3.29
264.816	3.23
265.19	3.29
265.564	3.16
265.938	3.13
266.313	2.95
266.687	2.86
267.061	2.75
267.435	2.93
267.809	3.07
268.183	3.39
268.556	3.24
268.93	3.41
269.304	3.64
269.678	3.89
270.051	3.99
270.425	3.83
270.799	3.57
271.172	3.44
271.546	3.51
271.919	3.57
272.293	3.91
272.666	4
273.04	3.78
273.413	3.8
273.787	3.83
274.16	3.65
274.533	3.83
274.906	4.09
275.279	3.92
275.653	3.89
276.026	3.61
276.399	3.63
276.772	3.71
277.145	3.76
277.518	3.71
277.891	3.64
278.263	3.64
278.636	4.05
279.009	4.13
279.382	3.92
279.755	3.84
280.127	3.71
280.5	3.66
280.872	3.82
281.245	3.88
281.617	3.92
281.99	3.93
282.362	3.87
282.735	3.78
283.107	3.81
283.479	3.79
283.852	3.96
284.224	4.01
284.596	3.97
284.968	3.87
285.34	3.8
285.713	3.79
286.085	3.76
286.457	3.77
286.829	3.82
287.201	3.92
287.572	4.02
287.944	3.96
288.316	4
288.688	3.95
289.06	3.98
289.431	4.06
289.803	4.25
290.175	4.23
290.546	4.14
290.918	4.16
291.289	4.06
291.661	4
292.032	3.96
292.403	3.87
292.775	4.05
293.146	4.05
293.517	4.14
293.889	4.25
294.26	4.15
294.631	4.25
295.002	4.32
295.373	4.34
295.744	4.39
296.115	4.45
296.486	4.43
296.857	4.38
297.228	4.2
297.599	4.18
297.97	4.37
298.34	4.48
298.711	4.5
299.082	4.52
299.452	4.51
299.823	4.61
300.194	4.79
300.564	4.61
300.935	4.51
301.305	4.54
301.676	4.37
302.046	4.35
302.416	4.21
302.787	4.1
303.157	4.04
303.527	3.98
303.897	3.95
304.267	4.04
304.637	4.08
305.008	4.26
305.378	4.21
305.748	4.16
306.117	4.07
306.487	4.03
306.857	4.09
307.227	4.18
307.597	4.23
307.967	4
308.336	3.98
308.706	4.1
309.076	3.99
309.445	4.14
309.815	4.09
310.184	4
310.554	4
310.923	3.96
311.293	4.02
311.662	3.96
312.031	3.92
312.401	3.85
312.77	3.89
313.139	3.92
313.508	3.84
313.877	3.79
314.246	3.92
314.616	3.94
314.985	3.8
315.353	3.66
315.722	3.74
316.091	3.65
316.46	3.6
316.829	3.52
317.198	3.44
317.567	3.55
317.935	3.74
318.304	3.75
318.672	3.81
319.041	3.8
319.41	3.82
319.778	3.88
320.147	3.82
320.515	3.81
320.883	3.78
321.252	3.74
321.62	3.83
321.988	3.66
322.357	3.72
322.725	3.89
323.093	3.88
323.461	3.96
323.829	4.03
324.197	4.1
324.565	4.28
324.933	4.27
325.301	4.16
325.669	4.15
326.037	4.2
326.405	4.12
326.772	4.04
327.14	4.01
327.508	4.02
327.875	4.27
328.243	4.21
328.61	4.18
328.978	4.23
329.346	4.21
329.713	4.5
330.08	4.55
330.448	4.43
330.815	4.29
331.182	4.23
331.55	4.3
331.917	4.27
332.284	4.06
332.651	4.17
333.018	4.22
333.385	4.13
333.752	4.13
334.119	4.19
334.486	4.29
334.853	4.3
335.22	4.17
335.587	3.95
335.954	3.88
336.32	3.86
336.687	3.99
337.054	3.95
337.42	3.69
337.787	3.57
338.153	3.55
338.52	3.63
338.886	3.66
339.253	3.62
339.619	3.52
339.986	3.48
340.352	3.45
340.718	3.51
341.084	3.64
341.451	3.69
341.817	3.74
342.183	3.67
342.549	3.72
342.915	3.88
343.281	3.83
343.647	3.89
344.013	3.88
344.379	3.71
344.745	3.73
345.11	3.82
345.476	3.91
345.842	3.99
346.208	4.04
346.573	3.99
346.939	4.11
347.304	4.2
347.67	4.29
348.035	4.22
348.401	4.21
348.766	4.21
349.132	4.27
349.497	4.26
349.862	4.25
350.228	4.21
350.593	4.12
350.958	4.26
351.323	4.3
351.688	4.36
352.053	4.43
352.418	4.45
352.783	4.45
353.148	4.41
353.513	4.41
353.878	4.36
354.243	4.25
354.608	4.25
354.972	4.28
355.337	4.38
355.702	4.43
356.066	4.47
356.431	4.47
356.795	4.41
357.16	4.41
357.524	4.45
357.889	4.47
358.253	4.5
358.618	4.44
358.982	4.42
359.346	4.41
359.71	4.48
360.075	4.51
360.439	4.43
360.803	4.45
361.167	4.42
361.531	4.49
361.895	4.63
362.259	4.65
362.623	4.65
362.987	4.59
363.351	4.54
363.714	4.5
364.078	4.44
364.442	4.37
364.806	4.41
365.169	4.39
365.533	4.39
365.896	4.37
366.26	4.38
366.623	4.38
366.987	4.45
367.35	4.5
367.714	4.51
368.077	4.61
368.44	4.64
368.803	4.55
369.167	4.46
369.53	4.42
369.893	4.36
370.256	4.38
370.619	4.36
370.982	4.35
371.345	4.39
371.708	4.43
372.071	4.44
372.434	4.43
372.797	4.59
373.159	4.54
373.522	4.51
373.885	4.55
374.247	4.47
374.61	4.45
374.973	4.39
375.335	4.44
375.698	4.34
376.06	4.28
376.423	4.35
376.785	4.44
377.147	4.4
377.51	4.41
377.872	4.35
378.234	4.38
378.596	4.42
378.958	4.43
379.321	4.45
379.683	4.51
380.045	4.46
380.407	4.33
380.769	4.35
381.13	4.39
381.492	4.4
381.854	4.5
382.216	4.53
382.578	4.51
382.939	4.43
383.301	4.48
383.663	4.54
384.024	4.53
384.386	4.51
384.747	4.5
385.109	4.47
385.47	4.5
385.832	4.47
386.193	4.44
386.554	4.37
386.916	4.38
387.277	4.36
387.638	4.42
387.999	4.45
388.36	4.46
388.721	4.54
389.082	4.51
389.443	4.5
389.804	4.51
390.165	4.52
390.526	4.54
390.887	4.57
391.248	4.62
391.609	4.69
391.969	4.69
392.33	4.73
392.691	4.72
393.051	4.75
393.412	4.76
393.772	4.8
394.133	4.79
394.493	4.77
394.854	4.75
395.214	4.75
395.574	4.75
395.935	4.76
396.295	4.69
396.655	4.72
397.015	4.69
397.376	4.67
397.736	4.67
398.096	4.71
398.456	4.68
398.816	4.67
399.176	4.6
399.535	4.59
399.895	4.59
400.255	4.61
400.615	4.59
400.975	4.6
401.334	4.55
401.694	4.59
402.054	4.59
402.413	4.63
402.773	4.61
403.132	4.61
403.492	4.58
403.851	4.57
404.211	4.57
404.57	4.61
404.929	4.63
405.288	4.6
405.648	4.57
406.007	4.59
406.366	4.56
406.725	4.58
407.084	4.6
407.443	4.61
407.802	4.61
408.161	4.64
408.52	4.64
408.879	4.69
409.238	4.71
409.596	4.72
409.955	4.71
410.314	4.68
410.673	4.67
411.031	4.67
411.39	4.72
411.748	4.74
412.107	4.69
412.465	4.65
412.824	4.65
413.182	4.65
413.54	4.65
413.899	4.65
414.257	4.66
414.615	4.66
414.974	4.68
415.332	4.72
415.69	4.7
416.048	4.7
416.406	4.69
416.764	4.66
417.122	4.64
417.48	4.64
417.838	4.66
418.195	4.67
418.553	4.69
418.911	4.68
419.269	4.67
419.626	4.7
419.984	4.7
420.342	4.72
420.699	4.71
421.057	4.7
421.414	4.7
421.772	4.7
422.129	4.7
422.486	4.69
422.844	4.67
423.201	4.68
423.558	4.69
423.915	4.68
424.273	4.71
424.63	4.75
424.987	4.75
425.344	4.75
425.701	4.74
426.058	4.73
426.415	4.74
426.772	4.73
427.128	4.72
427.485	4.72
427.842	4.72
428.199	4.74
428.555	4.77
428.912	4.76
429.269	4.76
429.625	4.77
429.982	4.79
430.338	4.81
430.695	4.8
431.051	4.8
431.407	4.81
431.764	4.8
432.12	4.81
432.476	4.81
432.832	4.81
433.189	4.81
433.545	4.79
433.901	4.76
434.257	4.77
434.613	4.77
434.969	4.77
435.325	4.77
435.681	4.76
436.036	4.73
436.392	4.75
436.748	4.76
437.104	4.77
437.459	4.75
437.815	4.71
438.171	4.7
438.526	4.69
438.882	4.69
439.237	4.68
439.593	4.68
439.948	4.66
440.304	4.68
440.659	4.68
441.014	4.68
441.369	4.69
441.725	4.69
442.08	4.69
442.435	4.71
442.79	4.72
443.145	4.75
443.5	4.74
443.855	4.73
444.21	4.74
444.565	4.72
444.92	4.73
445.275	4.73
445.629	4.73
445.984	4.74
446.339	4.72
446.693	4.74
447.048	4.73
447.403	4.73
447.757	4.72
448.112	4.73
448.466	4.73
448.82	4.75
449.175	4.73
449.529	4.74
449.883	4.72
450.238	4.72
450.592	4.7
450.946	4.7
451.3	4.7
451.654	4.68
452.008	4.69
452.362	4.69
452.716	4.7
453.07	4.7
453.424	4.68
453.778	4.7
454.132	4.7
454.486	4.69
454.839	4.72
455.193	4.72
455.547	4.74
455.9	4.75
456.254	4.74
456.607	4.76
456.961	4.77
457.314	4.78
457.668	4.77
458.021	4.78
458.375	4.77
458.728	4.79
459.081	4.8
459.434	4.79
459.787	4.79
460.141	4.8
460.494	4.82
460.847	4.83
461.2	4.82
461.553	4.82
461.906	4.82
462.259	4.8
462.611	4.79
462.964	4.77
463.317	4.76
463.67	4.78
464.022	4.76
464.375	4.76
464.728	4.73
465.08	4.75
465.433	4.75
465.785	4.76
466.138	4.76
466.49	4.74
466.843	4.75
467.195	4.75
467.547	4.74
467.899	4.73
468.252	4.72
468.604	4.73
468.956	4.74
469.308	4.75
469.66	4.77
470.012	4.78
470.364	4.79
470.716	4.8
471.068	4.77
471.42	4.8
471.772	4.79
472.123	4.8
472.475	4.82
472.827	4.8
473.178	4.8
473.53	4.78
473.882	4.81
474.233	4.83
474.585	4.83
474.936	4.84
475.288	4.85
475.639	4.86
475.99	4.84
476.342	4.87
476.693	4.86
477.044	4.84
477.395	4.82
477.746	4.81
478.097	4.82
478.448	4.82
478.8	4.81
479.15	4.81
479.501	4.81
479.852	4.8
480.203	4.8
480.554	4.79
480.905	4.81
481.255	4.81
481.606	4.82
481.957	4.83
482.307	4.83
482.658	4.83
483.009	4.83
483.359	4.84
483.709	4.83
484.06	4.85
484.41	4.86
484.761	4.88
485.111	4.89
485.461	4.89
485.811	4.9
486.162	4.91
486.512	4.92
486.862	4.92
487.212	4.92
487.562	4.93
487.912	4.94
488.262	4.94
488.612	4.93
488.961	4.93
489.311	4.94
489.661	4.95
490.011	4.93
490.36	4.94
490.71	4.95
491.06	4.96
491.409	4.94
491.759	4.94
492.108	4.94
492.458	4.93
492.807	4.93
493.157	4.93
493.506	4.94
493.855	4.92
494.204	4.92
494.554	4.93
494.903	4.93
495.252	4.92
495.601	4.92
495.95	4.93
496.299	4.94
496.648	4.94
496.997	4.94
497.346	4.96
497.695	4.98
498.043	4.97
498.392	4.96
498.741	4.96
499.09	4.96
499.438	4.96
499.787	4.96
500.135	4.97
500.484	4.95
500.832	4.94
501.181	4.94
501.529	4.93
501.878	4.93
502.226	4.95
502.574	4.96
502.923	4.96
503.271	4.97
503.619	4.94
503.967	4.93
504.315	4.95
504.663	4.93
505.011	4.9
505.359	4.91
505.707	4.91
506.055	4.95
506.403	4.95
506.751	4.96
507.098	4.98
507.446	4.97
507.794	5.01
508.141	5.01
508.489	5.04
508.837	5.06
509.184	5.08
509.531	5.1
509.879	5.08
510.226	5.08
510.574	5.08
510.921	5.1
511.268	5.12
511.616	5.11
511.963	5.13
512.31	5.14
512.657	5.14
513.004	5.13
513.351	5.1
513.698	5.12
514.045	5.09
514.392	5.1
514.739	5.12
515.086	5.13
515.432	5.12
515.779	5.12
516.126	5.12
516.473	5.1
516.819	5.09
517.166	5.08
517.512	5.09
517.859	5.1
518.205	5.08
518.552	5.09
518.898	5.09
519.245	5.08
519.591	5.09
519.937	5.11
520.283	5.13
520.629	5.13
520.976	5.12
521.322	5.15
521.668	5.13
522.014	5.15
522.36	5.14
522.706	5.16
523.052	5.17
523.398	5.18
523.743	5.21
524.089	5.23
524.435	5.25
524.781	5.24
525.126	5.25
525.472	5.26
525.817	5.27
526.163	5.29
526.509	5.3
526.854	5.31
527.199	5.31
527.545	5.3
527.89	5.31
528.235	5.31
528.581	5.3
528.926	5.31
529.271	5.3
529.616	5.3
529.961	5.3
530.306	5.3
530.651	5.28
530.996	5.28
531.341	5.28
531.686	5.28
532.031	5.3
532.376	5.31
532.721	5.31
533.065	5.33
533.41	5.32
533.755	5.3
534.099	5.29
534.444	5.28
534.788	5.29
535.133	5.29
535.477	5.3
535.822	5.31
536.166	5.31
536.51	5.31
536.855	5.32
537.199	5.32
537.543	5.32
537.887	5.35
538.231	5.35
538.576	5.34
538.92	5.34
539.264	5.32
539.608	5.31
539.951	5.29
540.295	5.3
540.639	5.3
540.983	5.31
541.327	5.33
541.671	5.33
542.014	5.35
542.358	5.36
542.701	5.35
543.045	5.36
543.389	5.38
543.732	5.39
544.075	5.4
544.419	5.41
544.762	5.41
545.105	5.43
545.449	5.43
545.792	5.44
546.135	5.43
546.478	5.45
546.821	5.48
547.165	5.51
547.508	5.49
547.851	5.5
548.194	5.49
548.536	5.5
548.879	5.52
549.222	5.51
549.565	5.49
549.908	5.5
550.25	5.5
550.593	5.51
550.936	5.51
551.278	5.47
551.621	5.45
551.963	5.46
552.306	5.43
552.648	5.44
552.991	5.42
553.333	5.41
553.675	5.4
554.017	5.38
554.36	5.36
554.702	5.34
555.044	5.33
555.386	5.33
555.728	5.34
556.07	5.3
556.412	5.31
556.754	5.28
557.096	5.3
557.438	5.29
557.78	5.28
558.121	5.29
558.463	5.29
558.805	5.31
559.147	5.32
559.488	5.31
559.83	5.3
560.171	5.32
560.513	5.36
560.854	5.35
561.196	5.37
561.537	5.4
561.878	5.43
562.22	5.45
562.561	5.45
562.902	5.43
563.243	5.44
563.584	5.46
563.925	5.49
564.266	5.46
564.607	5.5
564.948	5.48
565.289	5.47
565.63	5.47
565.971	5.47
566.312	5.48
566.653	5.5
566.993	5.47
567.334	5.47
567.675	5.44
568.015	5.45
568.356	5.46
568.696	5.47
569.037	5.43
569.377	5.41
569.718	5.41
570.058	5.42
570.398	5.43
570.739	5.41
571.079	5.38
571.419	5.38
571.759	5.34
572.099	5.33
572.439	5.35
572.779	5.36
573.119	5.35
573.459	5.32
573.799	5.3
574.139	5.34
574.479	5.33
574.819	5.37
575.158	5.35
575.498	5.32
575.838	5.3
576.177	5.34
576.517	5.36
576.856	5.36
577.196	5.37
577.535	5.39
577.875	5.37
578.214	5.39
578.553	5.43
578.893	5.48
579.232	5.52
579.571	5.53
579.91	5.56
580.25	5.59
580.589	5.59
580.928	5.57
581.267	5.59
581.606	5.57
581.945	5.55
582.283	5.57
582.622	5.59
582.961	5.6
583.3	5.59
583.639	5.55
583.977	5.55
584.316	5.56
584.654	5.54
584.993	5.56
585.332	5.56
585.67	5.56
586.008	5.52
586.347	5.52
586.685	5.47
587.024	5.43
587.362	5.44
587.7	5.47
588.038	5.54
588.376	5.51
588.715	5.51
589.053	5.57
589.391	5.56
589.729	5.6
590.067	5.57
590.404	5.56
590.742	5.59
591.08	5.6
591.418	5.59
591.756	5.6
592.093	5.61
592.431	5.61
592.769	5.64
593.106	5.59
593.444	5.59
593.781	5.63
594.119	5.62
594.456	5.58
594.793	5.55
595.131	5.56
595.468	5.59
595.805	5.59
596.143	5.58
596.48	5.58
596.817	5.55
597.154	5.58
597.491	5.57
597.828	5.55
598.165	5.54
598.502	5.51
598.839	5.49
599.176	5.53
599.512	5.54
599.849	5.49
600.186	5.55
600.523	5.55
600.859	5.56
601.196	5.6
601.532	5.59
601.869	5.65
602.205	5.59
602.542	5.57
602.878	5.63
603.215	5.63
603.551	5.64
603.887	5.65
604.223	5.65
604.56	5.66
604.896	5.72
605.232	5.74
605.568	5.76
605.904	5.75
606.24	5.72
606.576	5.73
606.912	5.73
607.248	5.73
607.583	5.72
607.919	5.71
608.255	5.7
608.591	5.71
608.926	5.69
609.262	5.72
609.597	5.75
609.933	5.72
610.268	5.72
610.604	5.68
610.939	5.7
611.275	5.7
611.61	5.68
611.945	5.63
612.281	5.65
612.616	5.69
612.951	5.72
613.286	5.69
613.621	5.68
613.956	5.68
614.291	5.69
614.626	5.7
614.961	5.67
615.296	5.7
615.631	5.73
615.966	5.81
616.3	5.8
616.635	5.73
616.97	5.74
617.304	5.75
617.639	5.79
617.973	5.72
618.308	5.75
618.642	5.77
618.977	5.8
619.311	5.77
619.646	5.77
619.98	5.77
620.314	5.79
620.648	5.78
620.983	5.77
621.317	5.74
621.651	5.72
621.985	5.79
622.319	5.76
622.653	5.75
622.987	5.71
623.321	5.7
623.655	5.76
623.988	5.77
624.322	5.77
624.656	5.76
624.99	5.77
625.323	5.77
625.657	5.75
625.99	5.78
626.324	5.79
626.657	5.75
626.991	5.76
627.324	5.78
627.658	5.79
627.991	5.88
628.324	5.87
628.657	5.92
628.991	5.86
629.324	5.85
629.657	5.83
629.99	5.83
630.323	5.88
630.656	5.87
630.989	5.84
631.322	5.83
631.655	5.89
631.987	5.89
632.32	5.89
632.653	5.92
632.986	5.88
633.318	5.86
633.651	5.88
633.984	5.88
634.316	5.91
634.649	5.93
634.981	5.83
635.313	5.84
635.646	5.79
635.978	5.86
636.31	5.85
636.643	5.87
636.975	5.82
637.307	5.81
637.639	5.88
637.971	5.88
638.303	5.88
638.635	5.87
638.967	5.87
639.299	5.84
639.631	5.82
639.963	5.85
640.295	5.81
640.626	5.79
640.958	5.77
641.29	5.72
641.621	5.67
641.953	5.71
642.285	5.75
642.616	5.79
642.948	5.74
643.279	5.74
643.61	5.81
643.942	5.95
644.273	6
644.604	5.91
644.936	5.95
645.267	5.95
645.598	5.94
645.929	5.89
646.26	5.92
646.591	5.9
646.922	5.9
647.253	5.91
647.584	5.93
647.915	5.94
648.245	5.95
648.576	5.97
648.907	6
649.238	6.04
649.568	6.01
649.899	5.97
650.229	6.04
650.56	5.97
650.89	5.9
651.221	5.81
651.551	5.85
651.882	5.8
652.212	5.78
652.542	5.79
652.872	5.89
653.203	5.91
653.533	5.97
653.863	5.98
654.193	5.97
654.523	6.02
654.853	6.08
655.183	6.12
655.513	6.19
655.843	6.14
656.172	6.16
656.502	6.11
656.832	6.13
657.162	6.1
657.491	6.14
657.821	6.15
658.15	6.16
658.48	6.16
658.809	6.18
659.139	6.21
659.468	6.16
659.798	6.14
660.127	6.13
660.456	6.11
660.785	6.15
661.115	6.19
661.444	6.17
661.773	6.2
662.102	6.13
662.431	6.13
662.76	6.16
663.089	6.13
663.418	6.23
663.747	6.29
664.076	6.32
664.404	6.36
664.733	6.29
665.062	6.25
665.39	6.18
665.719	6.27
666.048	6.23
666.376	6.31
666.705	6.34
667.033	6.4
667.362	6.33
667.69	6.2
668.018	6.33
668.347	6.28
668.675	6.18
669.003	6.19
669.331	6.12
669.659	6.08
669.987	6.06
670.315	6.04
670.643	6.05
670.971	6.03
671.299	5.95
671.627	5.95
671.955	5.96
672.283	6.04
672.61	5.98
672.938	6.12
673.266	6.17
673.593	6.14
673.921	6.03
674.249	6.12
674.576	6.2
674.904	6.08
675.231	6.12
675.558	6.22
675.886	6.28
676.213	6.28
676.54	6.38
676.867	6.31
677.195	6.42
677.522	6.4
677.849	6.46
678.176	6.51
678.503	6.52
678.83	6.62
679.157	6.6
679.484	6.67
679.81	6.62
680.137	6.59
680.464	6.59
680.791	6.73
681.117	6.74
681.444	6.77
681.771	6.83
682.097	6.84
682.424	6.8
682.75	6.77
683.077	6.78
683.403	6.81
683.729	6.81
684.056	6.67
684.382	6.71
684.708	6.63
685.034	6.65
685.36	6.71
685.686	6.63
686.012	6.71
686.339	6.54
686.664	6.54
686.99	6.44
687.316	6.44
687.642	6.3
687.968	6.2
688.294	6.24
688.619	6.19
688.945	6.15
689.271	6.1
689.596	6.17
689.922	6.2
690.247	6.15
690.573	6.21
690.898	6.3
691.224	6.33
691.549	6.39
691.874	6.35
692.2	6.34
692.525	6.36
692.85	6.31
693.175	6.52
693.5	6.36
693.825	6.46
694.15	6.53
694.475	6.56
694.8	6.64
695.125	6.54
695.45	6.49
695.775	6.55
696.099	6.7
696.424	6.71
696.749	6.69
697.073	6.61
697.398	6.64
697.723	6.59
698.047	6.58
698.372	6.52
698.696	6.49
699.02	6.44
699.345	6.45
699.669	6.45
699.993	6.33
700.318	6.39
700.642	6.38
700.966	6.41
701.29	6.41
701.614	6.4
701.938	6.41
702.262	6.42
702.586	6.41
702.91	6.31
703.234	6.21
703.557	6.15
703.881	6.19
704.205	6.17
704.529	6.17
704.852	6.17
705.176	6.22
705.499	6.11
705.823	6.15
706.146	6.18
706.47	6.2
706.793	6.21
707.117	6.23
707.44	6.14
707.763	6.05
708.086	6.12
708.409	6.01
708.733	5.9
709.056	5.9
709.379	5.94
709.702	6.02
710.025	6.23
710.348	6.27
710.671	6.29
710.993	6.34
711.316	6.37
711.639	6.25
711.962	6.28
712.284	6.53
712.607	6.4
712.93	6.34
713.252	6.33
713.575	6.41
713.897	6.52
714.22	6.57
714.542	6.56
714.864	6.52
715.187	6.6
715.509	6.51
715.831	6.54
716.153	6.54
716.475	6.44
716.798	6.33
717.12	6.38
717.442	6.27
717.764	6.12
718.085	6.17
718.407	6.34
718.729	6.14
719.051	5.97
719.373	6.1
719.695	6.11
720.016	6.13
720.338	6.13
720.659	6.15
720.981	6.14
721.302	6.31
721.624	6.18
721.945	6.24
722.267	6.57
722.588	6.57
722.909	6.56
723.231	6.62
723.552	6.67
723.873	6.61
724.194	6.61
724.515	6.77
724.836	6.74
725.157	6.82
725.478	7.1
725.799	7.23
726.12	7.21
726.441	7.15
726.762	6.93
727.083	6.89
727.403	6.82
727.724	6.8
728.045	6.78
728.365	6.82
728.686	6.8
729.006	6.58
729.327	6.73
729.647	6.75
729.967	6.73
730.288	6.76
730.608	6.85
730.928	7.01
731.249	6.99
731.569	6.84
731.889	6.73
732.209	6.8
732.529	6.99
732.849	7.15
733.169	7.22
733.489	7.23
733.809	7.33
734.129	7.39
734.448	7.36
734.768	7.07
735.088	7.1
735.408	7.12
735.727	7.34
736.047	7.42
736.366	7.4
736.686	7.32
737.005	7.28
737.325	7.2
737.644	7.11
737.963	7.01
738.283	7.03
738.602	6.96
738.921	6.78
739.24	6.73
739.56	6.65
739.879	6.68
740.198	6.84
740.517	6.7
740.836	6.54
741.155	6.53
741.473	6.88
741.792	6.86
742.111	6.74
742.43	6.91
742.748	6.76
743.067	6.73
743.386	6.53
743.704	6.49
744.023	6.51
744.341	6.78
744.66	6.83
744.978	6.84
745.297	6.82
745.615	6.77
745.933	6.61
746.252	6.63
746.57	6.78
746.888	6.87
747.206	6.7
747.524	6.87
747.842	6.88
748.16	6.82
748.478	6.87
748.796	7.09
749.114	6.7
749.432	6.9
749.749	6.9
750.067	7.38
750.385	7.28
750.703	7.39
751.02	7.14
751.338	7.41
751.655	7.53
751.973	7.54
752.29	7.65
752.608	7.42
752.925	7.38
753.242	7.3
753.56	7.09
753.877	7.07
754.194	6.94
754.511	7.18
754.828	6.99
755.145	6.97
755.462	6.65
755.779	6.92
756.096	6.86
756.413	6.94
756.73	6.67
757.047	6.65
757.364	6.67
757.68	6.59
757.997	6.43
758.314	6.49
758.63	6.57
758.947	6.62
759.264	6.74
759.58	6.75
759.896	6.79
760.213	6.83
760.529	7.11
760.846	7.31
761.162	7.17
761.478	7.17
761.794	7.25
762.11	7.35
762.426	7.07
762.743	7.02
763.059	7.09
763.375	7.27
763.69	7.36
764.006	7.29
764.322	7.53
764.638	7.54
764.954	7.54
765.27	7.58
765.585	7.53
765.901	7.52
766.216	7.32
766.532	7.28
766.848	7.31
767.163	7.44
767.478	7.3
767.794	7.3
768.109	7.55
768.424	7.58
768.74	7.61
769.055	7.78
769.37	7.61
769.685	7.46
770	7.14
770.315	7.06
770.63	6.98
770.945	6.99
771.26	6.96
771.575	7.15
771.89	7.09
772.205	7.19
772.52	6.94
772.834	7.08
773.149	7.23
773.464	7.13
773.778	6.77
774.093	6.8
774.407	6.87
774.722	6.6
775.036	6.9
775.351	6.67
775.665	6.61
775.979	6.8
776.293	6.88
776.608	7.11
776.922	7.24
777.236	7.31
777.55	7.02
777.864	7.3
778.178	6.49
778.492	6.34
778.806	6.51
779.12	7.04
779.434	7.03
779.747	7.05
780.061	7.05
780.375	7.78
780.689	7.67
781.002	7.75
781.316	7.82
781.629	7.39
781.943	7.64
782.256	7.54
782.57	7.51
782.883	7.48
783.196	7.46
783.51	7.66
783.823	7.82
784.136	8.14
784.449	7.62
784.762	8.26
785.075	8.59
785.388	8.16
785.701	7.81
786.014	7.96
786.327	7.55
786.64	7.85
786.953	7.22
787.266	7.87
787.578	7.64
787.891	7.69
788.204	7.94
788.516	7.72
788.829	7.8
789.141	8.35
789.454	8.97
789.766	9.29
790.079	8.95
790.391	8.6
790.703	8.14
791.016	8.07
791.328	8.04
791.64	7.67
791.952	7.75
792.264	7.9
792.576	8.28
792.888	8.14
793.2	7.9
793.512	8.31
793.824	7.83
794.136	7.81
794.448	8.4
794.76	8.28
795.071	8.06
795.383	8.22
795.695	7.9
796.006	7.27
796.318	6.85
796.629	6.76
796.941	7.17
797.252	7.09
797.564	7.35
797.875	7.33
798.186	7.79
798.497	7.71
798.809	7.92
799.12	7.44
799.431	7.47
799.742	7.6
800.053	7.36
800.364	7.37
800.675	7
800.986	6.57
801.297	6.35
801.608	6.7
801.918	6.67
802.229	6.7
802.54	6.7
802.851	6.55
803.161	6.67
803.472	6.3
803.782	6.97
804.093	6.93
804.403	7.36
804.714	6.95
805.024	6.51
805.334	5.83
805.645	5.65
805.955	5.97
806.265	6.27
806.575	6.37
806.885	6.14
807.195	6.48
807.505	5.9
807.815	5.62
808.125	5.68
808.435	5.34
808.745	4.8
809.055	4.66
809.365	4.94
809.674	5.08
809.984	4.96
810.294	4.8
810.603	4.42
810.913	3.44
811.222	3.01
811.532	3.43
811.841	4.25
812.151	5
812.46	4.8
812.769	4.26
813.079	3.49
813.388	3.26
813.697	2.57
814.006	2.45
814.315	3.16
814.624	3.46
814.933	4.31
815.242	3.89
815.551	4.6
815.86	4.57
816.169	4.23
816.478	4.61
816.786	4.37
817.095	4.76
817.404	5.34
817.712	6.16
818.021	6.04
818.33	5.73
818.638	5.8
818.947	6.26
819.255	6.6
819.563	6.99
819.872	7.47
820.18	8.27
820.488	8.66
820.796	8.92
821.105	9.45
821.413	9.56
821.721	9.95
822.029	9.79
822.337	9.75
822.645	9.95
822.953	10.14
823.26	10.18
823.568	10.23
823.876	10.25
824.184	10.14
824.491	10.37
824.799	10.43
825.107	10.65
825.414	10.6
825.722	10.66
826.029	10.69
826.337	10.8
826.644	10.79
826.951	10.67
827.259	10.7
827.566	10.44
827.873	10.35
828.18	10.12
828.488	10.18
828.795	10.35
829.102	10.04
829.409	9.75
829.716	10.13
830.023	10.19
830.329	10.2
830.636	10.42
830.943	10.2
831.25	10.32
831.557	9.89
831.863	10.22
832.17	10.36
832.476	10.69
832.783	10.48
833.089	10.64
833.396	11.08
833.702	10.9
834.009	11.39
834.315	11.62
834.621	11.69
834.928	11.56
835.234	11.56
835.54	11.58
835.846	11.62
836.152	10.71
836.458	10.98
836.764	11.18
837.07	10.85
837.376	10.6
837.682	10.33
837.988	10.36
838.293	10.31
838.599	10.16
838.905	9.84
839.211	10.37
839.516	10.04
839.822	9.9
840.127	9.37
840.433	8.3
840.738	8.25
841.044	8.57
841.349	8.07
841.654	6.7
841.959	7.2
842.265	7.45
842.57	7.5
842.875	6.27
843.18	5.11
843.485	5.07
843.79	4.6
844.095	5.01
844.4	4.81
844.705	3.76
845.01	4.52
845.315	3.56
845.619	2.35
845.924	1.05
846.229	0.8
846.533	1.75
846.838	2.09
847.142	0.34
847.447	-0.71
847.751	-0.4
848.056	0.55
848.36	1.01
848.664	0.19
848.969	0.78
849.273	0.93
849.577	2.07
849.881	3.49
850.185	4.97
850.489	5.22
850.794	5.15
851.097	6.89
851.401	4
851.705	4.5
852.009	5.74
852.313	4.28
852.617	3.82
852.92	4.96
853.224	4.82
853.528	4.41
853.831	4.98
854.135	4.81
854.438	5.22
854.742	2.87
855.045	2.16
855.349	1.64
855.652	3.36
855.955	5.07
856.259	3.61
856.562	2.78
856.865	0.72
857.168	0.4
857.471	-1.04
857.774	0.51
858.077	0.88
858.38	0.64
858.683	3.58
858.986	2.05
859.289	-0.68
859.592	-0.55
859.894	3.21
860.197	1.16
860.5	2.69
860.802	2.12
861.105	2.33
861.407	1.23
861.71	-0.3
862.012	-2
862.315	-4.11
862.617	-3.55
862.919	-1.13
863.222	-0.27
863.524	-0.74
863.826	-3.6
864.128	-2.72
864.43	-2.7
864.732	-3.88
865.034	-4.48
865.336	-4.3
865.638	-3.91
865.94	-4.9
866.242	-7.26
866.544	-3.58
866.846	-3.01
867.147	-1.89
867.449	-0.41
867.751	-0.1
868.052	1.83
868.354	1.72
868.655	1.72
868.957	0.03
869.258	-1.59
869.56	0.31
869.861	1.48
870.162	6.31
870.463	4.12
870.765	3.36
871.066	3.05
871.367	2.14
871.668	4.79
871.969	6.01
872.27	6.28
872.571	6.08
872.872	3.98
873.173	3.83
873.473	2.94
873.774	2.78
874.075	4.25
874.376	3.88
874.676	6.47
874.977	8.11
875.277	8.66
875.578	5.8
875.878	4.22
876.179	3.22
876.479	1.84
876.78	3.08
877.08	4.37
877.38	5.81
877.68	8.51
877.981	7.34
878.281	6
878.581	6.57
