Data from BA35141_Reflection_00012.txt Node
Date: Tue Nov 19 11:54:52 EST 2019
User: vgr7
Spectrometer: USB2G7710
Scans to average: 3
Trigger mode: 4
Integration Time (sec): 2.000000E-2
Electric dark correction enabled: true
Boxcar width: 10
XAxis mode: Wavelengths
Number of Pixels in Spectrum: 2048
>>>>>Begin Spectral Data<<<<<
177.721	-41.03
178.105	-191.67
178.488	-98.26
178.871	-54.39
179.254	28.99
179.636	-28.95
180.019	-168.12
180.402	500
180.785	12.61
181.168	-44.14
181.55	-17.16
181.933	49.14
182.316	-8.62
182.698	-8.64
183.081	25.46
183.463	124.17
183.846	63.46
184.228	76.48
184.611	179.2
184.993	263.49
185.376	180.34
185.758	209.61
186.14	205.8
186.522	499.22
186.904	-393.94
187.287	-251.85
187.669	-1026.67
188.051	834.23
188.433	308.81
188.815	153.38
189.197	1319.3
189.579	-1146.03
189.961	-361.75
190.342	-255.46
190.724	-298.35
191.106	-1461.73
191.488	-321.15
191.869	-187.88
192.251	-106.54
192.633	-49.44
193.014	-29.05
193.396	-44.79
193.777	-41.92
194.159	-64.48
194.54	-81.22
194.922	-94.63
195.303	-80.83
195.684	-66.67
196.065	-51.78
196.447	-49.62
196.828	-45.81
197.209	-46.07
197.59	-35.01
197.971	-31.91
198.352	-34.25
198.733	-19.88
199.114	-20.13
199.495	-30.22
199.876	-38.74
200.257	-52.75
200.638	-65.27
201.018	-75.33
201.399	-79.57
201.78	-76.59
202.16	-62.45
202.541	-50.55
202.922	-28.4
203.302	-47.14
203.683	-56.91
204.063	-379.49
204.444	-138.83
204.824	-58.59
205.204	-65.14
205.585	-71.02
205.965	-34.22
206.345	-36.46
206.725	-35.26
207.106	-18.87
207.486	-10.79
207.866	-20.71
208.246	21.18
208.626	15.37
209.006	-1.12
209.386	10.18
209.766	-1.57
210.145	12.87
210.525	14.61
210.905	20.95
211.285	33.1
211.664	28.07
212.044	39.72
212.424	27.87
212.803	-0.57
213.183	2.87
213.562	-16.49
213.942	-24.02
214.321	-25.08
214.701	-60.34
215.08	-98.62
215.459	-90.68
215.838	-86.14
216.218	-190.35
216.597	-120.39
216.976	-94.35
217.355	-51.97
217.734	-65.57
218.113	-64.9
218.492	-65.14
218.871	-43.51
219.25	-48.57
219.629	-69.9
220.008	-57.91
220.387	-67.87
220.766	-55.54
221.144	-68.58
221.523	-85.96
221.902	-91.65
222.28	-55.26
222.659	-33.99
223.037	-15.84
223.416	-14.13
223.794	-8.38
224.173	-10.29
224.551	-13.6
224.929	-16.04
225.308	-16.08
225.686	-7.9
226.064	-13.43
226.442	-13.64
226.821	-25.34
227.199	-16.58
227.577	-7.91
227.955	-7.93
228.333	-5.78
228.711	-2.76
229.089	-3.53
229.467	1.02
229.845	2.25
230.222	-0.25
230.6	-2.72
230.978	-2.64
231.356	-0.47
231.733	0.04
232.111	-0.2
232.488	-0.08
232.866	2.88
233.243	0.96
233.621	-0.56
233.998	1.97
234.376	4.28
234.753	7.35
235.13	4.45
235.508	3.26
235.885	5.22
236.262	4.99
236.639	3.92
237.016	4.76
237.393	4.49
237.77	4.32
238.147	4.58
238.524	5.54
238.901	4.79
239.278	3.8
239.655	3.96
240.032	4.55
240.409	3.85
240.785	3.59
241.162	4.51
241.539	4.5
241.915	3.98
242.292	3.59
242.668	2.83
243.045	3.4
243.421	3.59
243.798	3.61
244.174	3.67
244.551	3.83
244.927	3.76
245.303	3.62
245.679	3.85
246.056	3.64
246.432	3.64
246.808	3.77
247.184	3.97
247.56	3.84
247.936	3.76
248.312	4.09
248.688	4
249.064	3.87
249.44	3.89
249.815	4.2
250.191	4.24
250.567	4.78
250.943	5.02
251.318	4.95
251.694	4.7
252.069	4.76
252.445	4.92
252.82	5.2
253.196	5.38
253.571	5.36
253.947	5.7
254.322	5.49
254.697	5.64
255.073	5.64
255.448	5.42
255.823	5.53
256.198	5.4
256.573	5.22
256.948	5.05
257.323	4.92
257.698	4.51
258.073	4.4
258.448	4.09
258.823	3.71
259.198	3.52
259.573	3.55
259.948	3.69
260.322	3.49
260.697	3.59
261.072	3.55
261.446	3.59
261.821	3.65
262.195	3.87
262.57	3.69
262.944	3.81
263.319	3.91
263.693	3.69
264.067	3.65
264.442	3.88
264.816	3.88
265.19	3.93
265.564	4.06
265.938	4.14
266.313	3.98
266.687	3.99
267.061	4.21
267.435	4.43
267.809	4.22
268.183	4.2
268.556	4.06
268.93	4.15
269.304	4.03
269.678	3.83
270.051	3.67
270.425	3.65
270.799	3.3
271.172	3.26
271.546	3.53
271.919	3.57
272.293	3.41
272.666	3.39
273.04	3.22
273.413	3.31
273.787	3.11
274.16	3.27
274.533	3.31
274.906	3.33
275.279	3
275.653	3.11
276.026	3.29
276.399	3.29
276.772	3.27
277.145	3.31
277.518	3.29
277.891	3.34
278.263	3.51
278.636	3.57
279.009	3.67
279.382	3.35
279.755	3.35
280.127	3.26
280.5	3.38
280.872	3.54
281.245	3.66
281.617	3.7
281.99	3.63
282.362	3.61
282.735	3.58
283.107	3.89
283.479	3.83
283.852	3.8
284.224	3.87
284.596	3.84
284.968	3.77
285.34	3.83
285.713	3.76
286.085	3.54
286.457	3.52
286.829	3.4
287.201	3.46
287.572	3.42
287.944	3.58
288.316	3.72
288.688	3.75
289.06	3.67
289.431	3.9
289.803	3.95
290.175	3.78
290.546	3.75
290.918	3.63
291.289	3.42
291.661	3.53
292.032	3.49
292.403	3.46
292.775	3.72
293.146	3.84
293.517	3.92
293.889	4
294.26	4.22
294.631	4.38
295.002	4.48
295.373	4.53
295.744	4.43
296.115	4.29
296.486	4.34
296.857	4.28
297.228	4.18
297.599	4.15
297.97	4.47
298.34	4.57
298.711	4.67
299.082	4.83
299.452	4.71
299.823	4.76
300.194	4.82
300.564	4.54
300.935	4.47
301.305	4.41
301.676	4.4
302.046	4.22
302.416	4.08
302.787	4.03
303.157	4.15
303.527	4.29
303.897	4.13
304.267	4.04
304.637	4
305.008	3.97
305.378	4.13
305.748	4.05
306.117	3.95
306.487	3.91
306.857	3.9
307.227	4.22
307.597	4.14
307.967	4.12
308.336	4.17
308.706	4.17
309.076	4.23
309.445	4.43
309.815	4.56
310.184	4.75
310.554	4.69
310.923	4.6
311.293	4.48
311.662	4.77
312.031	4.86
312.401	4.92
312.77	5.01
313.139	4.97
313.508	4.92
313.877	5
314.246	5.02
314.616	5.22
314.985	4.97
315.353	5.05
315.722	5.13
316.091	5.22
316.46	5.27
316.829	5.31
317.198	5.12
317.567	5.25
317.935	5.25
318.304	5.4
318.672	5.47
319.041	5.64
319.41	5.42
319.778	5.41
320.147	5.56
320.515	5.48
320.883	5.38
321.252	5.55
321.62	5.6
321.988	5.56
322.357	5.31
322.725	5.5
323.093	5.49
323.461	5.52
323.829	5.57
324.197	5.63
324.565	5.65
324.933	5.81
325.301	5.6
325.669	5.54
326.037	5.61
326.405	5.53
326.772	5.46
327.14	5.59
327.508	5.55
327.875	5.49
328.243	5.56
328.61	5.54
328.978	5.47
329.346	5.43
329.713	5.56
330.08	5.76
330.448	5.67
330.815	5.64
331.182	5.74
331.55	5.76
331.917	5.83
332.284	5.86
332.651	5.89
333.018	5.91
333.385	6.15
333.752	6.12
334.119	6.28
334.486	6.42
334.853	6.35
335.22	6.33
335.587	6.38
335.954	6.51
336.32	6.56
336.687	6.64
337.054	6.63
337.42	6.64
337.787	6.68
338.153	6.68
338.52	6.73
338.886	6.72
339.253	6.58
339.619	6.54
339.986	6.63
340.352	6.63
340.718	6.72
341.084	6.72
341.451	6.77
341.817	6.68
342.183	6.57
342.549	6.66
342.915	6.72
343.281	6.8
343.647	6.85
344.013	7.05
344.379	6.94
344.745	7.1
345.11	7.06
345.476	7.03
345.842	7.05
346.208	7.08
346.573	7.03
346.939	7.27
347.304	7.35
347.67	7.22
348.035	7.19
348.401	7.2
348.766	7.05
349.132	7.06
349.497	7.14
349.862	7.22
350.228	7.2
350.593	7.21
350.958	7.19
351.323	7.19
351.688	7.17
352.053	7.32
352.418	7.28
352.783	7.31
353.148	7.31
353.513	7.28
353.878	7.3
354.243	7.2
354.608	7.17
354.972	7.17
355.337	7.21
355.702	7.18
356.066	7.19
356.431	7.21
356.795	7.23
357.16	7.13
357.524	7.15
357.889	7.16
358.253	7.16
358.618	7.08
358.982	6.98
359.346	6.88
359.71	6.76
360.075	6.78
360.439	6.74
360.803	6.79
361.167	6.77
361.531	6.79
361.895	6.89
362.259	6.91
362.623	6.91
362.987	6.9
363.351	6.93
363.714	6.98
364.078	6.95
364.442	6.91
364.806	6.97
365.169	6.95
365.533	6.95
365.896	6.94
366.26	6.93
366.623	6.98
366.987	6.97
367.35	7.08
367.714	7.01
368.077	7
368.44	7
368.803	6.94
369.167	6.81
369.53	6.73
369.893	6.66
370.256	6.6
370.619	6.55
370.982	6.4
371.345	6.28
371.708	6.27
372.071	6.21
372.434	6.1
372.797	6.03
373.159	5.95
373.522	5.86
373.885	5.85
374.247	5.74
374.61	5.75
374.973	5.62
375.335	5.54
375.698	5.53
376.06	5.47
376.423	5.53
376.785	5.51
377.147	5.52
377.51	5.44
377.872	5.35
378.234	5.36
378.596	5.43
378.958	5.39
379.321	5.34
379.683	5.33
380.045	5.32
380.407	5.26
380.769	5.19
381.13	5.17
381.492	5.14
381.854	5.18
382.216	5.14
382.578	5.14
382.939	5.14
383.301	5.12
383.663	5.09
384.024	5.03
384.386	5.03
384.747	4.96
385.109	4.95
385.47	4.95
385.832	4.88
386.193	4.81
386.554	4.71
386.916	4.71
387.277	4.68
387.638	4.7
387.999	4.71
388.36	4.69
388.721	4.72
389.082	4.71
389.443	4.69
389.804	4.67
390.165	4.64
390.526	4.64
390.887	4.62
391.248	4.58
391.609	4.58
391.969	4.56
392.33	4.52
392.691	4.47
393.051	4.49
393.412	4.47
393.772	4.44
394.133	4.48
394.493	4.45
394.854	4.44
395.214	4.4
395.574	4.32
395.935	4.34
396.295	4.31
396.655	4.28
397.015	4.25
397.376	4.23
397.736	4.2
398.096	4.17
398.456	4.1
398.816	4.05
399.176	3.96
399.535	3.91
399.895	3.9
400.255	3.89
400.615	3.84
400.975	3.83
401.334	3.87
401.694	3.88
402.054	3.84
402.413	3.8
402.773	3.79
403.132	3.8
403.492	3.78
403.851	3.74
404.211	3.75
404.57	3.75
404.929	3.72
405.288	3.74
405.648	3.7
406.007	3.72
406.366	3.7
406.725	3.71
407.084	3.75
407.443	3.74
407.802	3.75
408.161	3.73
408.52	3.76
408.879	3.72
409.238	3.69
409.596	3.68
409.955	3.7
410.314	3.69
410.673	3.74
411.031	3.72
411.39	3.73
411.748	3.73
412.107	3.66
412.465	3.63
412.824	3.56
413.182	3.6
413.54	3.59
413.899	3.57
414.257	3.56
414.615	3.49
414.974	3.48
415.332	3.48
415.69	3.47
416.048	3.44
416.406	3.42
416.764	3.42
417.122	3.41
417.48	3.4
417.838	3.37
418.195	3.33
418.553	3.31
418.911	3.3
419.269	3.26
419.626	3.25
419.984	3.25
420.342	3.26
420.699	3.24
421.057	3.22
421.414	3.23
421.772	3.23
422.129	3.24
422.486	3.23
422.844	3.21
423.201	3.21
423.558	3.2
423.915	3.2
424.273	3.18
424.63	3.18
424.987	3.16
425.344	3.15
425.701	3.15
426.058	3.13
426.415	3.1
426.772	3.1
427.128	3.11
427.485	3.11
427.842	3.1
428.199	3.09
428.555	3.1
428.912	3.09
429.269	3.09
429.625	3.11
429.982	3.09
430.338	3.11
430.695	3.09
431.051	3.09
431.407	3.07
431.764	3.07
432.12	3.06
432.476	3.09
432.832	3.08
433.189	3.07
433.545	3.09
433.901	3.1
434.257	3.13
434.613	3.11
434.969	3.09
435.325	3.09
435.681	3.08
436.036	3.06
436.392	3.07
436.748	3.06
437.104	3.05
437.459	3.05
437.815	3.04
438.171	3.04
438.526	3.03
438.882	3.04
439.237	3.05
439.593	3.05
439.948	3.03
440.304	3.02
440.659	3.02
441.014	3.02
441.369	3.01
441.725	2.99
442.08	3.01
442.435	3.02
442.79	3.01
443.145	3.01
443.5	3.01
443.855	2.99
444.21	2.99
444.565	2.98
444.92	3.01
445.275	2.99
445.629	2.98
445.984	2.98
446.339	2.98
446.693	2.95
447.048	2.92
447.403	2.93
447.757	2.91
448.112	2.92
448.466	2.93
448.82	2.92
449.175	2.92
449.529	2.9
449.883	2.88
450.238	2.89
450.592	2.89
450.946	2.86
451.3	2.85
451.654	2.84
452.008	2.82
452.362	2.79
452.716	2.79
453.07	2.79
453.424	2.79
453.778	2.8
454.132	2.81
454.486	2.84
454.839	2.83
455.193	2.87
455.547	2.86
455.9	2.87
456.254	2.86
456.607	2.86
456.961	2.88
457.314	2.88
457.668	2.89
458.021	2.88
458.375	2.92
458.728	2.92
459.081	2.94
459.434	2.93
459.787	2.93
460.141	2.92
460.494	2.93
460.847	2.93
461.2	2.91
461.553	2.92
461.906	2.93
462.259	2.93
462.611	2.92
462.964	2.93
463.317	2.92
463.67	2.94
464.022	2.94
464.375	2.95
464.728	2.96
465.08	2.95
465.433	2.99
465.785	2.99
466.138	3.01
466.49	3
466.843	3
467.195	3.04
467.547	3.06
467.899	3.09
468.252	3.08
468.604	3.1
468.956	3.11
469.308	3.12
469.66	3.12
470.012	3.12
470.364	3.11
470.716	3.14
471.068	3.13
471.42	3.14
471.772	3.14
472.123	3.14
472.475	3.18
472.827	3.17
473.178	3.16
473.53	3.16
473.882	3.17
474.233	3.17
474.585	3.16
474.936	3.13
475.288	3.1
475.639	3.11
475.99	3.12
476.342	3.11
476.693	3.08
477.044	3.07
477.395	3.1
477.746	3.07
478.097	3.05
478.448	3.05
478.8	3.05
479.15	3.04
479.501	3.01
479.852	2.99
480.203	2.97
480.554	2.97
480.905	2.97
481.255	2.97
481.606	2.99
481.957	3
482.307	3.01
482.658	3.03
483.009	3.03
483.359	3.02
483.709	3.04
484.06	3.05
484.41	3.06
484.761	3.05
485.111	3.06
485.461	3.07
485.811	3.08
486.162	3.07
486.512	3.08
486.862	3.1
487.212	3.11
487.562	3.11
487.912	3.12
488.262	3.13
488.612	3.14
488.961	3.14
489.311	3.15
489.661	3.16
490.011	3.17
490.36	3.18
490.71	3.2
491.06	3.2
491.409	3.22
491.759	3.23
492.108	3.23
492.458	3.25
492.807	3.26
493.157	3.27
493.506	3.29
493.855	3.31
494.204	3.32
494.554	3.32
494.903	3.35
495.252	3.37
495.601	3.39
495.95	3.42
496.299	3.43
496.648	3.44
496.997	3.47
497.346	3.49
497.695	3.52
498.043	3.55
498.392	3.56
498.741	3.57
499.09	3.61
499.438	3.65
499.787	3.68
500.135	3.72
500.484	3.75
500.832	3.8
501.181	3.82
501.529	3.88
501.878	3.93
502.226	4
502.574	4.03
502.923	4.09
503.271	4.11
503.619	4.16
503.967	4.2
504.315	4.25
504.663	4.26
505.011	4.31
505.359	4.34
505.707	4.4
506.055	4.46
506.403	4.48
506.751	4.53
507.098	4.57
507.446	4.61
507.794	4.66
508.141	4.7
508.489	4.73
508.837	4.76
509.184	4.81
509.531	4.84
509.879	4.9
510.226	4.91
510.574	4.98
510.921	5.01
511.268	5.08
511.616	5.14
511.963	5.22
512.31	5.25
512.657	5.33
513.004	5.36
513.351	5.41
513.698	5.47
514.045	5.53
514.392	5.61
514.739	5.67
515.086	5.76
515.432	5.85
515.779	5.96
516.126	6.05
516.473	6.12
516.819	6.17
517.166	6.25
517.512	6.35
517.859	6.45
518.205	6.51
518.552	6.59
518.898	6.63
519.245	6.72
519.591	6.81
519.937	6.88
520.283	6.98
520.629	7.08
520.976	7.18
521.322	7.28
521.668	7.4
522.014	7.52
522.36	7.6
522.706	7.71
523.052	7.85
523.398	7.99
523.743	8.15
524.089	8.35
524.435	8.49
524.781	8.64
525.126	8.77
525.472	8.91
525.817	9.01
526.163	9.15
526.509	9.25
526.854	9.37
527.199	9.49
527.545	9.58
527.89	9.68
528.235	9.79
528.581	9.93
528.926	10.05
529.271	10.16
529.616	10.3
529.961	10.4
530.306	10.52
530.651	10.64
530.996	10.77
531.341	10.89
531.686	11.03
532.031	11.17
532.376	11.33
532.721	11.49
533.065	11.68
533.41	11.84
533.755	11.99
534.099	12.15
534.444	12.35
534.788	12.54
535.133	12.73
535.477	12.93
535.822	13.11
536.166	13.33
536.51	13.58
536.855	13.83
537.199	14.11
537.543	14.37
537.887	14.65
538.231	14.92
538.576	15.22
538.92	15.51
539.264	15.76
539.608	15.99
539.951	16.24
540.295	16.47
540.639	16.7
540.983	16.95
541.327	17.17
541.671	17.35
542.014	17.59
542.358	17.79
542.701	17.99
543.045	18.18
543.389	18.37
543.732	18.57
544.075	18.77
544.419	18.98
544.762	19.2
545.105	19.47
545.449	19.69
545.792	19.93
546.135	20.18
546.478	20.47
546.821	20.79
547.165	21.08
547.508	21.37
547.851	21.65
548.194	21.94
548.536	22.26
548.879	22.6
549.222	22.85
549.565	23.15
549.908	23.47
550.25	23.77
550.593	24.08
550.936	24.37
551.278	24.7
551.621	24.97
551.963	25.29
552.306	25.57
552.648	25.92
552.991	26.19
553.333	26.48
553.675	26.73
554.017	26.89
554.36	27.14
554.702	27.41
555.044	27.68
555.386	27.98
555.728	28.21
556.07	28.46
556.412	28.76
556.754	29.04
557.096	29.28
557.438	29.56
557.78	29.82
558.121	30.08
558.463	30.32
558.805	30.67
559.147	30.91
559.488	31.13
559.83	31.44
560.171	31.7
560.513	31.94
560.854	32.23
561.196	32.56
561.537	32.84
561.878	33.1
562.22	33.31
562.561	33.53
562.902	33.79
563.243	34.04
563.584	34.26
563.925	34.5
564.266	34.69
564.607	34.91
564.948	35.14
565.289	35.35
565.63	35.55
565.971	35.72
566.312	35.88
566.653	36.07
566.993	36.21
567.334	36.43
567.675	36.65
568.015	36.85
568.356	37.03
568.696	37.23
569.037	37.33
569.377	37.57
569.718	37.75
570.058	37.95
570.398	38.12
570.739	38.29
571.079	38.46
571.419	38.65
571.759	38.79
572.099	38.98
572.439	39.14
572.779	39.34
573.119	39.52
573.459	39.73
573.799	39.9
574.139	40.02
574.479	40.13
574.819	40.26
575.158	40.34
575.498	40.49
575.838	40.61
576.177	40.84
576.517	40.97
576.856	41.15
577.196	41.25
577.535	41.39
577.875	41.57
578.214	41.68
578.553	41.9
578.893	42.08
579.232	42.18
579.571	42.33
579.91	42.42
580.25	42.52
580.589	42.63
580.928	42.7
581.267	42.85
581.606	43.04
581.945	43.2
582.283	43.38
582.622	43.43
582.961	43.57
583.3	43.65
583.639	43.78
583.977	43.8
584.316	43.95
584.654	44.06
584.993	44.19
585.332	44.34
585.67	44.34
586.008	44.44
586.347	44.59
586.685	44.67
587.024	44.76
587.362	44.88
587.7	44.98
588.038	45.1
588.376	45.23
588.715	45.25
589.053	45.28
589.391	45.34
589.729	45.53
590.067	45.61
590.404	45.69
590.742	45.7
591.08	45.81
591.418	45.95
591.756	46.05
592.093	46.06
592.431	46.14
592.769	46.3
593.106	46.4
593.444	46.39
593.781	46.49
594.119	46.57
594.456	46.62
594.793	46.63
595.131	46.71
595.468	46.77
595.805	46.79
596.143	46.87
596.48	46.97
596.817	46.94
597.154	47.02
597.491	47.09
597.828	47.22
598.165	47.31
598.502	47.29
598.839	47.31
599.176	47.43
599.512	47.48
599.849	47.45
600.186	47.46
600.523	47.62
600.859	47.69
601.196	47.85
601.532	47.89
601.869	47.98
602.205	48.08
602.542	48.14
602.878	48.27
603.215	48.31
603.551	48.36
603.887	48.47
604.223	48.49
604.56	48.52
604.896	48.56
605.232	48.63
605.568	48.61
605.904	48.72
606.24	48.72
606.576	48.77
606.912	48.93
607.248	48.99
607.583	48.99
607.919	49.05
608.255	49.02
608.591	49.08
608.926	49.14
609.262	49.13
609.597	49.21
609.933	49.28
610.268	49.29
610.604	49.26
610.939	49.29
611.275	49.31
611.61	49.3
611.945	49.3
612.281	49.35
612.616	49.44
612.951	49.47
613.286	49.56
613.621	49.68
613.956	49.67
614.291	49.75
614.626	49.77
614.961	49.78
615.296	49.89
615.631	49.91
615.966	49.98
616.3	50.01
616.635	50.07
616.97	50.05
617.304	50.1
617.639	50.1
617.973	50.1
618.308	50.16
618.642	50.18
618.977	50.23
619.311	50.17
619.646	50.23
619.98	50.21
620.314	50.15
620.648	50.04
620.983	50.05
621.317	50.13
621.651	50.17
621.985	50.21
622.319	50.14
622.653	50.21
622.987	50.17
623.321	50.19
623.655	50.22
623.988	50.3
624.322	50.39
624.656	50.53
624.99	50.54
625.323	50.55
625.657	50.65
625.99	50.73
626.324	50.8
626.657	50.86
626.991	50.82
627.324	50.8
627.658	50.76
627.991	50.93
628.324	50.85
628.657	50.9
628.991	50.95
629.324	51.02
629.657	51.01
629.99	51.15
630.323	51.24
630.656	51.2
630.989	51.21
631.322	51.21
631.655	51.22
631.987	51.28
632.32	51.37
632.653	51.42
632.986	51.39
633.318	51.39
633.651	51.32
633.984	51.4
634.316	51.6
634.649	51.8
634.981	51.65
635.313	51.74
635.646	51.81
635.978	51.79
636.31	51.78
636.643	51.79
636.975	51.7
637.307	51.72
637.639	51.81
637.971	51.72
638.303	51.62
638.635	51.62
638.967	51.62
639.299	51.63
639.631	51.62
639.963	51.68
640.295	51.71
640.626	51.88
640.958	51.94
641.29	51.97
641.621	51.83
641.953	51.76
642.285	51.79
642.616	51.68
642.948	51.67
643.279	51.85
643.61	51.86
643.942	52.07
644.273	52.03
644.604	52.01
644.936	52.02
645.267	52.2
645.598	52.21
645.929	52.17
646.26	52.1
646.591	52.09
646.922	52.08
647.253	52.01
647.584	51.96
647.915	51.92
648.245	51.91
648.576	51.99
648.907	52.13
649.238	52.18
649.568	52.27
649.899	52.29
650.229	52.32
650.56	52.33
650.89	52.11
651.221	52.12
651.551	52.08
651.882	52.13
652.212	52.08
652.542	52.12
652.872	52.17
653.203	52.29
653.533	52.28
653.863	52.22
654.193	52.35
654.523	52.34
654.853	52.42
655.183	52.29
655.513	52.28
655.843	52.35
656.172	52.32
656.502	52.35
656.832	52.42
657.162	52.32
657.491	52.3
657.821	52.39
658.15	52.37
658.48	52.39
658.809	52.51
659.139	52.49
659.468	52.49
659.798	52.5
660.127	52.42
660.456	52.48
660.785	52.59
661.115	52.54
661.444	52.51
661.773	52.52
662.102	52.7
662.431	52.75
662.76	52.75
663.089	52.86
663.418	52.87
663.747	52.86
664.076	52.86
664.404	52.99
664.733	53.2
665.062	53.27
665.39	53.37
665.719	53.27
666.048	53.31
666.376	53.29
666.705	53.43
667.033	53.38
667.362	53.38
667.69	53.31
668.018	53.45
668.347	53.44
668.675	53.49
669.003	53.34
669.331	53.37
669.659	53.3
669.987	53.14
670.315	53.08
670.643	53.12
670.971	53.08
671.299	53.06
671.627	53.04
671.955	53.03
672.283	52.99
672.61	53.04
672.938	53.12
673.266	53.21
673.593	53.05
673.921	53.05
674.249	53.08
674.576	53.1
674.904	53.04
675.231	53.03
675.558	53.01
675.886	53.01
676.213	53
676.54	53.05
676.867	53.15
677.195	53.27
677.522	53.36
677.849	53.54
678.176	53.59
678.503	53.49
678.83	53.52
679.157	53.44
679.484	53.51
679.81	53.57
680.137	53.62
680.464	53.76
680.791	53.87
681.117	53.9
681.444	53.97
681.771	53.94
682.097	54.03
682.424	54.03
682.75	54.22
683.077	54.21
683.403	54.14
683.729	53.97
684.056	53.84
684.382	53.8
684.708	53.79
685.034	53.82
685.36	53.85
685.686	53.87
686.012	54
686.339	53.9
686.664	53.77
686.99	53.74
687.316	53.61
687.642	53.68
687.968	53.63
688.294	53.59
688.619	53.66
688.945	53.8
689.271	53.85
689.596	53.64
689.922	53.63
690.247	53.7
690.573	53.86
690.898	53.82
691.224	53.82
691.549	53.79
691.874	53.78
692.2	53.68
692.525	53.58
692.85	53.49
693.175	53.62
693.5	53.57
693.825	53.64
694.15	53.59
694.475	53.39
694.8	53.35
695.125	53.25
695.45	53.13
695.775	53.03
696.099	53.07
696.424	53.07
696.749	53.09
697.073	53.11
697.398	53.06
697.723	53.05
698.047	53.05
698.372	52.99
698.696	52.97
699.02	53.03
699.345	53.23
699.669	53.26
699.993	53.17
700.318	53.23
700.642	53.03
700.966	53.1
701.29	53.21
701.614	53.16
701.938	53.23
702.262	53.44
702.586	53.33
702.91	53.27
703.234	53.36
703.557	53.37
703.881	53.34
704.205	53.38
704.529	53.31
704.852	53.14
705.176	53.13
705.499	52.96
705.823	52.92
706.146	52.73
706.47	52.68
706.793	52.91
707.117	53.11
707.44	53.12
707.763	53.12
708.086	53.01
708.409	53.4
708.733	53.56
709.056	53.42
709.379	53.54
709.702	53.56
710.025	53.62
710.348	53.78
710.671	53.72
710.993	53.63
711.316	53.94
711.639	54.2
711.962	54.28
712.284	54.31
712.607	54.18
712.93	54.08
713.252	54.22
713.575	53.95
713.897	53.69
714.22	53.83
714.542	54.02
714.864	54.18
715.187	53.9
715.509	53.96
715.831	53.92
716.153	53.66
716.475	53.7
716.798	53.56
717.12	53.68
717.442	53.82
717.764	54.1
718.085	54.17
718.407	54
718.729	53.99
719.051	54.09
719.373	54.32
719.695	54.5
720.016	54.68
720.338	54.84
720.659	55.1
720.981	54.9
721.302	55.08
721.624	55.19
721.945	55.42
722.267	55.52
722.588	55.42
722.909	55.97
723.231	55.79
723.552	55.91
723.873	55.73
724.194	55.65
724.515	55.27
724.836	54.99
725.157	55.04
725.478	55.04
725.799	55.26
726.12	55.13
726.441	54.91
726.762	54.81
727.083	54.72
727.403	54.71
727.724	54.85
728.045	54.67
728.365	54.52
728.686	54.48
729.006	54.06
729.327	54.19
729.647	53.97
729.967	54.05
730.288	54.15
730.608	54.16
730.928	54.27
731.249	54.67
731.569	54.68
731.889	54.83
732.209	54.77
732.529	54.68
732.849	54.6
733.169	54.8
733.489	54.54
733.809	54.86
734.129	54.87
734.448	54.82
734.768	54.66
735.088	54.48
735.408	54.14
735.727	54.44
736.047	54.25
736.366	54.25
736.686	54.31
737.005	54.29
737.325	54.24
737.644	54.29
737.963	54.12
738.283	54.04
738.602	53.6
738.921	53.47
739.24	53.55
739.56	53.93
739.879	53.94
740.198	54.06
740.517	53.8
740.836	53.88
741.155	53.93
741.473	54.06
741.792	54.28
742.111	54.64
742.43	54.46
742.748	54.66
743.067	54.97
743.386	54.92
743.704	54.81
744.023	54.75
744.341	54.65
744.66	54.66
744.978	54.77
745.297	55.08
745.615	55.4
745.933	55.19
746.252	55.42
746.57	55.46
746.888	55.32
747.206	55.29
747.524	54.96
747.842	55.03
748.16	54.84
748.478	54.93
748.796	54.82
749.114	55.08
749.432	55.14
749.749	54.96
750.067	54.8
750.385	54.59
750.703	54.69
751.02	54.63
751.338	54.49
751.655	54.54
751.973	54.67
752.29	54.09
752.608	53.9
752.925	53.42
753.242	53.23
753.56	53.48
753.877	53.43
754.194	53.57
754.511	53.75
754.828	53.83
755.145	53.43
755.462	53.22
755.779	53.1
756.096	53.24
756.413	53.36
756.73	53.65
757.047	53.88
757.364	53.64
757.68	53.66
757.997	53.86
758.314	54.06
758.63	53.85
758.947	53.81
759.264	54.49
759.58	54.45
759.896	54.64
760.213	54.51
760.529	54.88
760.846	54.99
761.162	54.84
761.478	54.86
761.794	55.16
762.11	55.41
762.426	55.48
762.743	55.37
763.059	55.44
763.375	55.43
763.69	55.32
764.006	55.72
764.322	55.91
764.638	55.9
764.954	55.92
765.27	56.03
765.585	56.22
765.901	55.97
766.216	55.85
766.532	55.9
766.848	56.14
767.163	55.9
767.478	56.14
767.794	56.13
768.109	56.3
768.424	56.3
768.74	56.29
769.055	56.55
769.37	56.59
769.685	56.64
770	56.85
770.315	56.9
770.63	56.5
770.945	56.6
771.26	56.69
771.575	56.52
771.89	56.42
772.205	56.6
772.52	56.44
772.834	56.41
773.149	56.44
773.464	55.96
773.778	56.11
774.093	55.82
774.407	55.91
774.722	55.6
775.036	55.52
775.351	55.76
775.665	55.3
775.979	55.6
776.293	55.29
776.608	54.97
776.922	55.36
777.236	55.59
777.55	55.07
777.864	54.97
778.178	54.82
778.492	54.85
778.806	55.24
779.12	55.38
779.434	55.74
779.747	56.09
780.061	56.41
780.375	56.04
780.689	55.8
781.002	56.22
781.316	56.12
781.629	56.84
781.943	56.31
782.256	56.09
782.57	56.23
782.883	55.91
783.196	56.39
783.51	55.97
783.823	56.07
784.136	56.24
784.449	56.28
784.762	56.29
785.075	56.44
785.388	55.98
785.701	56.18
786.014	56.06
786.327	55.78
786.64	56.22
786.953	57.05
787.266	57.09
787.578	56.45
787.891	57.18
788.204	56.59
788.516	56.45
788.829	56.35
789.141	56.07
789.454	56.5
789.766	55.95
790.079	56.24
790.391	56.31
790.703	55.89
791.016	55.65
791.328	55.73
791.64	55.46
791.952	55.76
792.264	55.42
792.576	55.69
792.888	55.42
793.2	55.58
793.512	55.36
793.824	55.64
794.136	56.06
794.448	55.91
794.76	55.95
795.071	56.75
795.383	56.77
795.695	56.44
796.006	56.61
796.318	56.65
796.629	56.34
796.941	56.28
797.252	56.78
797.564	56.84
797.875	57.19
798.186	57.91
798.497	57.58
798.809	57.29
799.12	56.89
799.431	57.06
799.742	56.25
800.053	56.3
800.364	56.17
800.675	56.04
800.986	55.39
801.297	55.25
801.608	54.55
801.918	54.93
802.229	54.9
802.54	54.54
802.851	54.71
803.161	54.94
803.472	54.85
803.782	54.81
804.093	54.37
804.403	54.64
804.714	54.28
805.024	54.72
805.334	55.28
805.645	55.83
805.955	55.99
806.265	56.76
806.575	56.76
806.885	56.58
807.195	56.65
807.505	56.66
807.815	56.56
808.125	56.61
808.435	56.33
808.745	56.85
809.055	57.66
809.365	57.35
809.674	57.05
809.984	56.98
810.294	57.18
810.603	57.76
810.913	57.07
811.222	56.86
811.532	56.68
811.841	57.27
812.151	56.41
812.46	56.16
812.769	56.02
813.079	56
813.388	55.8
813.697	55.74
814.006	56.03
814.315	55.78
814.624	55.88
814.933	56.26
815.242	56.21
815.551	55.81
815.86	57.17
816.169	57.26
816.478	56.65
816.786	56.15
817.095	56.7
817.404	57.23
817.712	57.16
818.021	57.31
818.33	56.96
818.638	57.4
818.947	57.38
819.255	57.33
819.563	57.21
819.872	57.29
820.18	57.57
820.488	58.16
820.796	58.41
821.105	58.71
821.413	58.77
821.721	58.68
822.029	58.69
822.337	58.4
822.645	58.46
822.953	58.48
823.26	58.66
823.568	58.6
823.876	58.41
824.184	58.39
824.491	58.36
824.799	58.15
825.107	58.35
825.414	58.41
825.722	58.31
826.029	58.28
826.337	58.37
826.644	58.35
826.951	58.18
827.259	58.01
827.566	57.8
827.873	57.52
828.18	57.51
828.488	57.36
828.795	57.17
829.102	56.9
829.409	56.85
829.716	56.58
830.023	56.81
830.329	57.04
830.636	57.07
830.943	56.99
831.25	57.77
831.557	57.26
831.863	57.37
832.17	57.4
832.476	57.71
832.783	57.48
833.089	57.5
833.396	57.22
833.702	57.33
834.009	57.78
834.315	57.88
834.621	57.62
834.928	57.84
835.234	58.2
835.54	58.68
835.846	58.89
836.152	59.01
836.458	58.49
836.764	58.44
837.07	58.08
837.376	58.23
837.682	57.39
837.988	57.8
838.293	57.44
838.599	57.26
838.905	56.83
839.211	57.15
839.516	58.22
839.822	57.7
840.127	57.42
840.433	57.85
840.738	57.57
841.044	58.11
841.349	57.03
841.654	56.48
841.959	56.51
842.265	57.21
842.57	56.91
842.875	57.24
843.18	56.74
843.485	57.62
843.79	57.22
844.095	57.46
844.4	56.33
844.705	56.56
845.01	57.84
845.315	57.08
845.619	57.01
845.924	53.44
846.229	54.98
846.533	56.94
846.838	54.79
847.142	56.6
847.447	56.09
847.751	57.82
848.056	58.16
848.36	56.83
848.664	55.72
848.969	55.73
849.273	53.31
849.577	55.34
849.881	56.2
850.185	57.44
850.489	56.76
850.794	58.69
851.097	60.49
851.401	60.27
851.705	58.36
852.009	59.9
852.313	59.78
852.617	57.21
852.92	56.38
853.224	59.49
853.528	58.9
853.831	59.2
854.135	56.77
854.438	56.52
854.742	57.32
855.045	56.38
855.349	57.5
855.652	58.44
855.955	57.33
856.259	55.65
856.562	54.61
856.865	55.27
857.168	53.79
857.471	54
857.774	53.86
858.077	55.68
858.38	55.8
858.683	57.22
858.986	59.68
859.289	58.38
859.592	54.67
859.894	54.65
860.197	54.14
860.5	57.56
860.802	57.22
861.105	54.71
861.407	56.91
861.71	55.11
862.012	56.65
862.315	57.12
862.617	58.99
862.919	58.11
863.222	56.82
863.524	58.18
863.826	57.59
864.128	56.8
864.43	56.66
864.732	54.81
865.034	56.61
865.336	53.29
865.638	53.82
865.94	54.4
866.242	54.6
866.544	58.2
866.846	54.4
867.147	53.39
867.449	57.1
867.751	56.76
868.052	57.48
868.354	54.37
868.655	54.5
868.957	54.91
869.258	54.29
869.56	56.76
869.861	56.86
870.162	53.25
870.463	52.74
870.765	54.04
871.066	56.38
871.367	53.25
871.668	58.32
871.969	57.74
872.27	56.76
872.571	58.15
872.872	55.08
873.173	58.57
873.473	62.32
873.774	61.94
874.075	60.94
874.376	61.25
874.676	65.59
874.977	63.38
875.277	61.67
875.578	63.15
875.878	62.73
876.179	62.42
876.479	65.37
876.78	66.55
877.08	67.79
877.38	65.26
877.68	67.61
877.981	64.26
878.281	65.37
878.581	69.16
