Data from BA35141_Reflection_00015.txt Node
Date: Tue Nov 19 11:54:59 EST 2019
User: vgr7
Spectrometer: USB2G7710
Scans to average: 3
Trigger mode: 4
Integration Time (sec): 2.000000E-2
Electric dark correction enabled: true
Boxcar width: 10
XAxis mode: Wavelengths
Number of Pixels in Spectrum: 2048
>>>>>Begin Spectral Data<<<<<
177.721	-101.47
178.105	683.33
178.488	117.38
178.871	98.25
179.254	15.94
179.636	11.19
180.019	-22.15
180.402	1800
180.785	-71.17
181.168	60.59
181.55	106.6
181.933	126.6
182.316	93.37
182.698	37.92
183.081	78.22
183.463	127.99
183.846	76.83
184.228	97.96
184.611	76.36
184.993	163.49
185.376	147.96
185.758	106.01
186.14	114.49
186.522	-47.29
186.904	124.24
187.287	-5.82
187.669	273.33
188.051	9.91
188.433	50.19
188.815	-45.97
189.197	29.82
189.579	-26.98
189.961	187.43
190.342	111.8
190.724	66.9
191.106	445.68
191.488	103.58
191.869	-2.56
192.251	-18.02
192.633	-29.69
193.014	-22.48
193.396	-22.48
193.777	-17.56
194.159	4.45
194.54	-32.36
194.922	-33.92
195.303	-33.92
195.684	-37.35
196.065	-22.69
196.447	-17.99
196.828	-27.29
197.209	-21.96
197.59	-10.98
197.971	-9.4
198.352	-11.26
198.733	-39.82
199.114	-43.65
199.495	-35.76
199.876	-41.47
200.257	-50.03
200.638	-78.84
201.018	-102.52
201.399	-70.4
201.78	-85.28
202.16	-109.28
202.541	-97.63
202.922	-106.77
203.302	-204.04
203.683	-278.86
204.063	-941.03
204.444	-659.45
204.824	-382.83
205.204	-282.04
205.585	-420.7
205.965	-613.86
206.345	-258.14
206.725	-141.26
207.106	-109.69
207.486	-118.41
207.866	-98.37
208.246	-100.12
208.626	-118.77
209.006	-115.03
209.386	-138.23
209.766	-122.75
210.145	-103.18
210.525	-142.92
210.905	-122.56
211.285	-74.98
211.664	-55.09
212.044	-56.03
212.424	-57.77
212.803	-69.86
213.183	-62.72
213.562	-64.87
213.942	-61.34
214.321	-50.99
214.701	-107.77
215.08	-167.31
215.459	-135.35
215.838	-156.59
216.218	-160.94
216.597	-92.92
216.976	-68.4
217.355	-64.37
217.734	-83.72
218.113	-71.53
218.492	-59.42
218.871	-57.19
219.25	-64.23
219.629	-59
220.008	-32.58
220.387	-16.52
220.766	-7.96
221.144	5.04
221.523	2.86
221.902	21.76
222.28	19.52
222.659	59.6
223.037	60.41
223.416	58.06
223.794	45.72
224.173	45.26
224.551	40.84
224.929	31.81
225.308	31.23
225.686	30.97
226.064	28.77
226.442	32.23
226.821	26.06
227.199	18.03
227.577	10.49
227.955	13.59
228.333	7.61
228.711	7.83
229.089	4.8
229.467	1.62
229.845	-0.21
230.222	4.37
230.6	-1.51
230.978	-0.51
231.356	-5.78
231.733	-2.31
232.111	-6.07
232.488	-3.68
232.866	-1.81
233.243	-2.77
233.621	-2.16
233.998	-3.83
234.376	-5.33
234.753	-3.56
235.13	-2.88
235.508	-1.88
235.885	-2.13
236.262	0.24
236.639	-0.18
237.016	-1.69
237.393	1.31
237.77	1.45
238.147	0.73
238.524	2.04
238.901	2.71
239.278	2.09
239.655	0.29
240.032	1.49
240.409	1.02
240.785	1.17
241.162	2.37
241.539	1.74
241.915	3.12
242.292	3.86
242.668	4.08
243.045	4.34
243.421	4.69
243.798	4.11
244.174	3.73
244.551	3.51
244.927	3.88
245.303	3.47
245.679	3.52
246.056	3.48
246.432	3.31
246.808	3.16
247.184	3.35
247.56	3.31
247.936	3.58
248.312	3.64
248.688	3.43
249.064	3.12
249.44	3.07
249.815	2.74
250.191	2.53
250.567	2.29
250.943	2.44
251.318	2.02
251.694	2.02
252.069	2.18
252.445	2.29
252.82	2.42
253.196	2.75
253.571	2.31
253.947	2.45
254.322	2.76
254.697	2.72
255.073	2.89
255.448	3.19
255.823	2.78
256.198	2.34
256.573	2.44
256.948	2.57
257.323	2.62
257.698	2.81
258.073	2.66
258.448	2.66
258.823	2.38
259.198	2.53
259.573	2.5
259.948	2.51
260.322	2.45
260.697	2.28
261.072	2.2
261.446	2.32
261.821	2.17
262.195	1.97
262.57	2.22
262.944	2.29
263.319	2.34
263.693	2.17
264.067	2.21
264.442	2.13
264.816	2.03
265.19	2.13
265.564	2
265.938	2.05
266.313	1.97
266.687	2.2
267.061	1.99
267.435	2.25
267.809	2.22
268.183	2.31
268.556	2.37
268.93	2.42
269.304	2.38
269.678	2.54
270.051	2.78
270.425	2.76
270.799	2.49
271.172	2.52
271.546	2.82
271.919	3.01
272.293	3.07
272.666	3.19
273.04	3.06
273.413	2.99
273.787	3
274.16	3.14
274.533	3.07
274.906	3.25
275.279	3.14
275.653	3.23
276.026	3.28
276.399	3.32
276.772	3.23
277.145	3.28
277.518	3.02
277.891	2.84
278.263	2.69
278.636	2.95
279.009	2.96
279.382	2.86
279.755	2.89
280.127	2.94
280.5	2.89
280.872	3.09
281.245	3.28
281.617	3.52
281.99	3.46
282.362	3.34
282.735	3.27
283.107	3.22
283.479	3.26
283.852	3.29
284.224	3.12
284.596	3.12
284.968	2.98
285.34	3.15
285.713	3.16
286.085	3.08
286.457	3.09
286.829	2.98
287.201	2.93
287.572	2.84
287.944	2.99
288.316	3.05
288.688	3.04
289.06	3.01
289.431	2.95
289.803	2.95
290.175	2.89
290.546	2.88
290.918	2.83
291.289	2.62
291.661	2.68
292.032	2.96
292.403	2.98
292.775	3.17
293.146	3.24
293.517	3.4
293.889	3.41
294.26	3.33
294.631	3.45
295.002	3.53
295.373	3.46
295.744	3.34
296.115	3.44
296.486	3.36
296.857	3.29
297.228	3.16
297.599	3.22
297.97	3.35
298.34	3.39
298.711	3.52
299.082	3.54
299.452	3.35
299.823	3.31
300.194	3.4
300.564	3.29
300.935	3.38
301.305	3.19
301.676	3.21
302.046	3.35
302.416	3.21
302.787	3.22
303.157	3.3
303.527	3.33
303.897	3.25
304.267	3.37
304.637	3.4
305.008	3.52
305.378	3.54
305.748	3.42
306.117	3.43
306.487	3.57
306.857	3.72
307.227	3.91
307.597	3.85
307.967	3.78
308.336	3.93
308.706	3.73
309.076	3.85
309.445	3.94
309.815	3.91
310.184	3.9
310.554	3.88
310.923	4.01
311.293	3.99
311.662	3.94
312.031	4.04
312.401	4.16
312.77	4.09
313.139	4.14
313.508	4.28
313.877	4.32
314.246	4.2
314.616	4.21
314.985	4.21
315.353	4.29
315.722	4.44
316.091	4.49
316.46	4.73
316.829	4.8
317.198	4.91
317.567	5.04
317.935	5.11
318.304	5.21
318.672	5.22
319.041	5.31
319.41	5.31
319.778	5.18
320.147	5.18
320.515	5.33
320.883	5.16
321.252	5.14
321.62	5.16
321.988	5.11
322.357	5.27
322.725	5.23
323.093	5.11
323.461	5
323.829	4.91
324.197	4.82
324.565	4.86
324.933	4.85
325.301	4.67
325.669	4.75
326.037	4.6
326.405	4.61
326.772	4.62
327.14	4.65
327.508	4.69
327.875	4.48
328.243	4.41
328.61	4.45
328.978	4.59
329.346	4.59
329.713	4.69
330.08	4.66
330.448	4.71
330.815	4.81
331.182	4.83
331.55	4.93
331.917	4.87
332.284	4.79
332.651	4.69
333.018	4.72
333.385	4.78
333.752	4.94
334.119	4.99
334.486	5.04
334.853	5.06
335.22	5.05
335.587	5.12
335.954	5.04
336.32	5.11
336.687	5.13
337.054	5.22
337.42	5.15
337.787	5.03
338.153	5.04
338.52	5.05
338.886	5.06
339.253	5.05
339.619	5.12
339.986	5.12
340.352	5.26
340.718	5.33
341.084	5.28
341.451	5.25
341.817	5.2
342.183	5.16
342.549	5.08
342.915	5.14
343.281	5.24
343.647	5.25
344.013	5.17
344.379	5.14
344.745	5.13
345.11	5.13
345.476	5.24
345.842	5.21
346.208	5.31
346.573	5.18
346.939	5.17
347.304	5.19
347.67	5.23
348.035	5.07
348.401	5.06
348.766	5.09
349.132	5.15
349.497	5.22
349.862	5.2
350.228	5.35
350.593	5.33
350.958	5.35
351.323	5.36
351.688	5.38
352.053	5.31
352.418	5.25
352.783	5.23
353.148	5.11
353.513	5.11
353.878	5.02
354.243	5.15
354.608	5.15
354.972	5.01
355.337	4.98
355.702	5.12
356.066	5.14
356.431	5.1
356.795	5.02
357.16	4.97
357.524	5.02
357.889	4.97
358.253	4.95
358.618	4.89
358.982	4.88
359.346	4.94
359.71	4.88
360.075	4.86
360.439	4.97
360.803	5.04
361.167	4.99
361.531	5.01
361.895	4.95
362.259	4.96
362.623	5.01
362.987	4.97
363.351	4.91
363.714	4.91
364.078	4.95
364.442	4.95
364.806	4.99
365.169	4.98
365.533	4.93
365.896	4.91
366.26	4.92
366.623	4.94
366.987	4.93
367.35	4.98
367.714	4.94
368.077	4.9
368.44	4.87
368.803	4.83
369.167	4.75
369.53	4.78
369.893	4.8
370.256	4.79
370.619	4.81
370.982	4.77
371.345	4.75
371.708	4.71
372.071	4.69
372.434	4.61
372.797	4.53
373.159	4.51
373.522	4.49
373.885	4.47
374.247	4.46
374.61	4.42
374.973	4.32
375.335	4.36
375.698	4.3
376.06	4.24
376.423	4.26
376.785	4.21
377.147	4.2
377.51	4.15
377.872	4.13
378.234	4.11
378.596	4.13
378.958	4.14
379.321	4.09
379.683	4.07
380.045	4.06
380.407	4.04
380.769	4.03
381.13	4.06
381.492	4.03
381.854	4
382.216	4
382.578	4.07
382.939	4.05
383.301	4.03
383.663	4.05
384.024	4.03
384.386	4.04
384.747	3.98
385.109	3.97
385.47	3.91
385.832	3.91
386.193	3.85
386.554	3.79
386.916	3.76
387.277	3.73
387.638	3.71
387.999	3.7
388.36	3.68
388.721	3.67
389.082	3.63
389.443	3.67
389.804	3.64
390.165	3.65
390.526	3.62
390.887	3.59
391.248	3.57
391.609	3.59
391.969	3.59
392.33	3.61
392.691	3.6
393.051	3.66
393.412	3.64
393.772	3.59
394.133	3.57
394.493	3.54
394.854	3.54
395.214	3.51
395.574	3.49
395.935	3.5
396.295	3.47
396.655	3.44
397.015	3.41
397.376	3.39
397.736	3.3
398.096	3.32
398.456	3.32
398.816	3.31
399.176	3.24
399.535	3.24
399.895	3.2
400.255	3.2
400.615	3.17
400.975	3.14
401.334	3.14
401.694	3.13
402.054	3.16
402.413	3.15
402.773	3.16
403.132	3.19
403.492	3.19
403.851	3.17
404.211	3.19
404.57	3.21
404.929	3.18
405.288	3.23
405.648	3.16
406.007	3.13
406.366	3.1
406.725	3.11
407.084	3.08
407.443	3.1
407.802	3.08
408.161	3.03
408.52	3.07
408.879	3.07
409.238	3.07
409.596	3.02
409.955	3.02
410.314	3.01
410.673	3.01
411.031	2.99
411.39	3.03
411.748	3
412.107	2.96
412.465	2.97
412.824	2.92
413.182	2.9
413.54	2.93
413.899	2.91
414.257	2.91
414.615	2.93
414.974	2.91
415.332	2.89
415.69	2.9
416.048	2.88
416.406	2.87
416.764	2.85
417.122	2.86
417.48	2.86
417.838	2.85
418.195	2.82
418.553	2.8
418.911	2.76
419.269	2.74
419.626	2.73
419.984	2.72
420.342	2.72
420.699	2.74
421.057	2.73
421.414	2.75
421.772	2.75
422.129	2.73
422.486	2.72
422.844	2.71
423.201	2.71
423.558	2.7
423.915	2.71
424.273	2.7
424.63	2.7
424.987	2.68
425.344	2.68
425.701	2.68
426.058	2.67
426.415	2.67
426.772	2.66
427.128	2.67
427.485	2.65
427.842	2.65
428.199	2.65
428.555	2.66
428.912	2.62
429.269	2.62
429.625	2.61
429.982	2.63
430.338	2.6
430.695	2.59
431.051	2.6
431.407	2.6
431.764	2.6
432.12	2.61
432.476	2.62
432.832	2.61
433.189	2.61
433.545	2.61
433.901	2.62
434.257	2.64
434.613	2.64
434.969	2.64
435.325	2.65
435.681	2.63
436.036	2.63
436.392	2.66
436.748	2.66
437.104	2.65
437.459	2.64
437.815	2.65
438.171	2.64
438.526	2.63
438.882	2.65
439.237	2.64
439.593	2.65
439.948	2.63
440.304	2.64
440.659	2.63
441.014	2.63
441.369	2.64
441.725	2.63
442.08	2.62
442.435	2.61
442.79	2.6
443.145	2.6
443.5	2.59
443.855	2.56
444.21	2.57
444.565	2.58
444.92	2.57
445.275	2.57
445.629	2.56
445.984	2.56
446.339	2.54
446.693	2.54
447.048	2.53
447.403	2.52
447.757	2.51
448.112	2.5
448.466	2.5
448.82	2.48
449.175	2.48
449.529	2.49
449.883	2.49
450.238	2.49
450.592	2.49
450.946	2.5
451.3	2.5
451.654	2.47
452.008	2.47
452.362	2.47
452.716	2.47
453.07	2.47
453.424	2.47
453.778	2.46
454.132	2.44
454.486	2.44
454.839	2.45
455.193	2.46
455.547	2.48
455.9	2.51
456.254	2.53
456.607	2.53
456.961	2.54
457.314	2.55
457.668	2.54
458.021	2.53
458.375	2.54
458.728	2.54
459.081	2.56
459.434	2.56
459.787	2.56
460.141	2.56
460.494	2.59
460.847	2.6
461.2	2.61
461.553	2.62
461.906	2.64
462.259	2.65
462.611	2.65
462.964	2.65
463.317	2.63
463.67	2.63
464.022	2.63
464.375	2.62
464.728	2.64
465.08	2.64
465.433	2.65
465.785	2.65
466.138	2.65
466.49	2.65
466.843	2.66
467.195	2.67
467.547	2.67
467.899	2.66
468.252	2.67
468.604	2.68
468.956	2.68
469.308	2.67
469.66	2.65
470.012	2.66
470.364	2.63
470.716	2.64
471.068	2.65
471.42	2.64
471.772	2.66
472.123	2.64
472.475	2.65
472.827	2.66
473.178	2.66
473.53	2.67
473.882	2.69
474.233	2.66
474.585	2.67
474.936	2.68
475.288	2.66
475.639	2.64
475.99	2.63
476.342	2.63
476.693	2.62
477.044	2.62
477.395	2.6
477.746	2.6
478.097	2.61
478.448	2.6
478.8	2.59
479.15	2.58
479.501	2.59
479.852	2.57
480.203	2.59
480.554	2.58
480.905	2.57
481.255	2.56
481.606	2.58
481.957	2.59
482.307	2.6
482.658	2.61
483.009	2.61
483.359	2.62
483.709	2.64
484.06	2.65
484.41	2.66
484.761	2.67
485.111	2.67
485.461	2.67
485.811	2.67
486.162	2.69
486.512	2.67
486.862	2.68
487.212	2.69
487.562	2.69
487.912	2.69
488.262	2.69
488.612	2.71
488.961	2.71
489.311	2.71
489.661	2.72
490.011	2.71
490.36	2.71
490.71	2.71
491.06	2.71
491.409	2.72
491.759	2.72
492.108	2.72
492.458	2.73
492.807	2.73
493.157	2.74
493.506	2.75
493.855	2.77
494.204	2.77
494.554	2.78
494.903	2.79
495.252	2.8
495.601	2.83
495.95	2.83
496.299	2.85
496.648	2.87
496.997	2.87
497.346	2.93
497.695	2.95
498.043	2.98
498.392	2.98
498.741	2.99
499.09	3.02
499.438	3.04
499.787	3.07
500.135	3.08
500.484	3.09
500.832	3.11
501.181	3.13
501.529	3.18
501.878	3.2
502.226	3.23
502.574	3.26
502.923	3.28
503.271	3.3
503.619	3.32
503.967	3.31
504.315	3.33
504.663	3.35
505.011	3.36
505.359	3.4
505.707	3.42
506.055	3.44
506.403	3.44
506.751	3.46
507.098	3.5
507.446	3.54
507.794	3.57
508.141	3.59
508.489	3.64
508.837	3.64
509.184	3.66
509.531	3.68
509.879	3.68
510.226	3.71
510.574	3.73
510.921	3.76
511.268	3.78
511.616	3.8
511.963	3.83
512.31	3.86
512.657	3.89
513.004	3.93
513.351	3.95
513.698	4
514.045	4.04
514.392	4.07
514.739	4.1
515.086	4.17
515.432	4.22
515.779	4.25
516.126	4.34
516.473	4.39
516.819	4.44
517.166	4.5
517.512	4.52
517.859	4.56
518.205	4.61
518.552	4.66
518.898	4.74
519.245	4.78
519.591	4.83
519.937	4.86
520.283	4.91
520.629	4.99
520.976	5.06
521.322	5.12
521.668	5.18
522.014	5.24
522.36	5.3
522.706	5.38
523.052	5.46
523.398	5.48
523.743	5.57
524.089	5.66
524.435	5.72
524.781	5.81
525.126	5.89
525.472	5.98
525.817	6.06
526.163	6.1
526.509	6.17
526.854	6.24
527.199	6.3
527.545	6.36
527.89	6.4
528.235	6.45
528.581	6.52
528.926	6.59
529.271	6.64
529.616	6.7
529.961	6.76
530.306	6.83
530.651	6.92
530.996	7.01
531.341	7.1
531.686	7.19
532.031	7.29
532.376	7.39
532.721	7.48
533.065	7.57
533.41	7.67
533.755	7.76
534.099	7.87
534.444	7.99
534.788	8.09
535.133	8.21
535.477	8.32
535.822	8.44
536.166	8.57
536.51	8.72
536.855	8.89
537.199	9.03
537.543	9.19
537.887	9.34
538.231	9.49
538.576	9.66
538.92	9.85
539.264	10.01
539.608	10.15
539.951	10.28
540.295	10.45
540.639	10.59
540.983	10.73
541.327	10.87
541.671	11.01
542.014	11.17
542.358	11.33
542.701	11.47
543.045	11.61
543.389	11.77
543.732	11.91
544.075	12.08
544.419	12.25
544.762	12.42
545.105	12.61
545.449	12.82
545.792	13
546.135	13.18
546.478	13.4
546.821	13.64
547.165	13.88
547.508	14.11
547.851	14.37
548.194	14.61
548.536	14.84
548.879	15.09
549.222	15.34
549.565	15.56
549.908	15.84
550.25	16.1
550.593	16.38
550.936	16.65
551.278	16.9
551.621	17.14
551.963	17.42
552.306	17.7
552.648	17.97
552.991	18.25
553.333	18.53
553.675	18.77
554.017	18.95
554.36	19.19
554.702	19.41
555.044	19.7
555.386	19.94
555.728	20.23
556.07	20.52
556.412	20.79
556.754	21.1
557.096	21.37
557.438	21.67
557.78	21.93
558.121	22.22
558.463	22.49
558.805	22.78
559.147	23.11
559.488	23.34
559.83	23.61
560.171	23.85
560.513	24.18
560.854	24.43
561.196	24.74
561.537	25.02
561.878	25.33
562.22	25.58
562.561	25.9
562.902	26.16
563.243	26.36
563.584	26.64
563.925	26.85
564.266	27.06
564.607	27.25
564.948	27.49
565.289	27.74
565.63	27.98
565.971	28.22
566.312	28.32
566.653	28.61
566.993	28.88
567.334	29.13
567.675	29.35
568.015	29.59
568.356	29.86
568.696	30.05
569.037	30.23
569.377	30.43
569.718	30.64
570.058	30.86
570.398	31.1
570.739	31.27
571.079	31.45
571.419	31.65
571.759	31.87
572.099	32.07
572.439	32.22
572.779	32.41
573.119	32.57
573.459	32.78
573.799	32.93
574.139	33.07
574.479	33.24
574.819	33.36
575.158	33.5
575.498	33.69
575.838	33.88
576.177	34.09
576.517	34.28
576.856	34.42
577.196	34.58
577.535	34.76
577.875	34.93
578.214	35.18
578.553	35.49
578.893	35.69
579.232	35.89
579.571	36.14
579.91	36.3
580.25	36.59
580.589	36.82
580.928	36.99
581.267	37.18
581.606	37.39
581.945	37.6
582.283	37.82
582.622	37.95
582.961	38.21
583.3	38.32
583.639	38.44
583.977	38.59
584.316	38.76
584.654	38.93
584.993	39.13
585.332	39.25
585.67	39.33
586.008	39.43
586.347	39.63
586.685	39.69
587.024	39.85
587.362	39.88
587.7	40.02
588.038	40.21
588.376	40.33
588.715	40.5
589.053	40.61
589.391	40.74
589.729	40.87
590.067	40.93
590.404	41.11
590.742	41.26
591.08	41.45
591.418	41.53
591.756	41.65
592.093	41.74
592.431	41.8
592.769	41.87
593.106	42.03
593.444	42.1
593.781	42.2
594.119	42.25
594.456	42.33
594.793	42.33
595.131	42.36
595.468	42.45
595.805	42.49
596.143	42.55
596.48	42.61
596.817	42.63
597.154	42.77
597.491	42.81
597.828	42.91
598.165	42.95
598.502	43.03
598.839	43.1
599.176	43.17
599.512	43.27
599.849	43.36
600.186	43.37
600.523	43.46
600.859	43.55
601.196	43.68
601.532	43.74
601.869	43.92
602.205	43.96
602.542	44
602.878	44.07
603.215	44.12
603.551	44.21
603.887	44.3
604.223	44.25
604.56	44.33
604.896	44.43
605.232	44.45
605.568	44.47
605.904	44.51
606.24	44.57
606.576	44.67
606.912	44.72
607.248	44.8
607.583	44.81
607.919	44.89
608.255	44.98
608.591	45.13
608.926	45.15
609.262	45.22
609.597	45.31
609.933	45.41
610.268	45.51
610.604	45.48
610.939	45.59
611.275	45.71
611.61	45.74
611.945	45.69
612.281	45.77
612.616	45.92
612.951	46.02
613.286	46.13
613.621	46.15
613.956	46.21
614.291	46.34
614.626	46.44
614.961	46.53
615.296	46.62
615.631	46.64
615.966	46.77
616.3	46.9
616.635	46.99
616.97	47.02
617.304	47.11
617.639	47.21
617.973	47.2
618.308	47.26
618.642	47.3
618.977	47.39
619.311	47.52
619.646	47.57
619.98	47.61
620.314	47.56
620.648	47.51
620.983	47.59
621.317	47.69
621.651	47.74
621.985	47.79
622.319	47.74
622.653	47.85
622.987	47.8
623.321	47.8
623.655	47.84
623.988	47.79
624.322	47.78
624.656	47.83
624.99	47.93
625.323	47.93
625.657	48.02
625.99	48.07
626.324	48.11
626.657	48.14
626.991	48.16
627.324	48.16
627.658	48.3
627.991	48.36
628.324	48.4
628.657	48.47
628.991	48.5
629.324	48.51
629.657	48.53
629.99	48.66
630.323	48.71
630.656	48.71
630.989	48.85
631.322	48.84
631.655	48.98
631.987	48.95
632.32	49.13
632.653	49.13
632.986	49.16
633.318	49.17
633.651	49.12
633.984	49.23
634.316	49.41
634.649	49.39
634.981	49.41
635.313	49.37
635.646	49.33
635.978	49.34
636.31	49.45
636.643	49.45
636.975	49.35
637.307	49.47
637.639	49.5
637.971	49.44
638.303	49.5
638.635	49.36
638.967	49.42
639.299	49.38
639.631	49.41
639.963	49.46
640.295	49.56
640.626	49.69
640.958	49.71
641.29	49.71
641.621	49.81
641.953	49.8
642.285	49.83
642.616	49.87
642.948	49.88
643.279	49.92
643.61	49.98
643.942	50.15
644.273	50.09
644.604	50.24
644.936	50.33
645.267	50.43
645.598	50.55
645.929	50.45
646.26	50.36
646.591	50.54
646.922	50.61
647.253	50.57
647.584	50.5
647.915	50.45
648.245	50.46
648.576	50.38
648.907	50.39
649.238	50.41
649.568	50.37
649.899	50.44
650.229	50.52
650.56	50.45
650.89	50.46
651.221	50.4
651.551	50.29
651.882	50.24
652.212	50.1
652.542	50.13
652.872	50.19
653.203	50.33
653.533	50.15
653.863	50.01
654.193	49.92
654.523	49.99
654.853	49.93
655.183	49.82
655.513	49.87
655.843	49.81
656.172	49.88
656.502	49.95
656.832	50.03
657.162	50.02
657.491	50.01
657.821	50.13
658.15	50.14
658.48	50.16
658.809	50.16
659.139	50.21
659.468	50.12
659.798	50.23
660.127	50.11
660.456	50.12
660.785	50.23
661.115	50.36
661.444	50.43
661.773	50.61
662.102	50.73
662.431	50.87
662.76	51.01
663.089	51.04
663.418	51.13
663.747	51
664.076	50.92
664.404	51.06
664.733	50.98
665.062	51.06
665.39	51.25
665.719	51.37
666.048	51.49
666.376	51.57
666.705	51.6
667.033	51.77
667.362	51.88
667.69	51.77
668.018	51.79
668.347	51.61
668.675	51.55
669.003	51.43
669.331	51.34
669.659	51.31
669.987	51.24
670.315	51.25
670.643	51.34
670.971	51.42
671.299	51.39
671.627	51.45
671.955	51.52
672.283	51.35
672.61	51.32
672.938	51.3
673.266	51.3
673.593	51.21
673.921	51.09
674.249	50.96
674.576	51.04
674.904	50.94
675.231	51.04
675.558	50.99
675.886	51.1
676.213	51.08
676.54	51.21
676.867	51.2
677.195	51.16
677.522	51.17
677.849	51.38
678.176	51.41
678.503	51.35
678.83	51.34
679.157	51.28
679.484	51.24
679.81	51.22
680.137	51.33
680.464	51.42
680.791	51.52
681.117	51.67
681.444	51.79
681.771	51.98
682.097	52.06
682.424	52.07
682.75	52.02
683.077	52.07
683.403	52.01
683.729	51.95
684.056	51.84
684.382	51.92
684.708	51.76
685.034	51.74
685.36	51.78
685.686	51.73
686.012	51.82
686.339	51.84
686.664	51.74
686.99	51.69
687.316	51.68
687.642	51.58
687.968	51.42
688.294	51.37
688.619	51.24
688.945	51.14
689.271	51.13
689.596	51.18
689.922	51.09
690.247	51.09
690.573	51.16
690.898	51.33
691.224	51.11
691.549	50.96
691.874	50.97
692.2	50.73
692.525	50.64
692.85	50.61
693.175	50.59
693.5	50.6
693.825	50.68
694.15	50.56
694.475	50.37
694.8	50.37
695.125	50.21
695.45	50.07
695.775	50.18
696.099	50.18
696.424	50.24
696.749	50.36
697.073	50.37
697.398	50.32
697.723	50.27
698.047	50.36
698.372	50.56
698.696	50.44
699.02	50.61
699.345	50.76
699.669	50.64
699.993	50.53
700.318	50.66
700.642	50.48
700.966	50.59
701.29	50.72
701.614	50.88
701.938	50.99
702.262	51.23
702.586	51.09
702.91	51.09
703.234	51.06
703.557	50.99
703.881	50.87
704.205	51.1
704.529	51.15
704.852	51.28
705.176	51.24
705.499	51.26
705.823	51.4
706.146	51.31
706.47	51.34
706.793	51.64
707.117	51.78
707.44	51.71
707.763	51.66
708.086	51.61
708.409	51.57
708.733	51.37
709.056	51.17
709.379	51.25
709.702	51.24
710.025	51.43
710.348	51.39
710.671	51.65
710.993	51.38
711.316	51.58
711.639	51.42
711.962	51.31
712.284	51.43
712.607	51.29
712.93	51.3
713.252	51.31
713.575	51.13
713.897	50.91
714.22	51.09
714.542	51.17
714.864	51.34
715.187	51.31
715.509	51.48
715.831	51.54
716.153	51.56
716.475	51.63
716.798	51.59
717.12	51.68
717.442	51.63
717.764	51.81
718.085	51.64
718.407	51.8
718.729	51.85
719.051	51.8
719.373	51.88
719.695	51.98
720.016	52.16
720.338	52.22
720.659	52.47
720.981	52.52
721.302	52.58
721.624	52.71
721.945	52.7
722.267	52.77
722.588	52.61
722.909	52.71
723.231	52.93
723.552	52.78
723.873	52.65
724.194	52.55
724.515	52.49
724.836	52.37
725.157	52.08
725.478	52.17
725.799	52.38
726.12	52.14
726.441	51.86
726.762	51.75
727.083	51.9
727.403	51.81
727.724	51.82
728.045	51.61
728.365	51.31
728.686	51.46
729.006	51.22
729.327	51.32
729.647	51.01
729.967	50.93
730.288	50.9
730.608	50.93
730.928	50.83
731.249	50.85
731.569	50.97
731.889	51.08
732.209	50.96
732.529	50.77
732.849	50.96
733.169	51.2
733.489	51.15
733.809	51.01
734.129	51.12
734.448	51.09
734.768	51.13
735.088	51.05
735.408	50.74
735.727	50.77
736.047	50.63
736.366	50.86
736.686	50.58
737.005	50.67
737.325	50.68
737.644	50.77
737.963	50.69
738.283	50.67
738.602	50.29
738.921	50.61
739.24	50.72
739.56	50.79
739.879	50.89
740.198	51.29
740.517	51.44
740.836	51.07
741.155	50.78
741.473	50.98
741.792	50.93
742.111	51.46
742.43	51.6
742.748	51.87
743.067	52
743.386	52.34
743.704	52.58
744.023	52.62
744.341	52.5
744.66	52.68
744.978	52.42
745.297	52.58
745.615	52.31
745.933	52.27
746.252	52.19
746.57	51.9
746.888	51.67
747.206	51.53
747.524	51.86
747.842	52.05
748.16	52.04
748.478	52.41
748.796	52.04
749.114	52.3
749.432	52.5
749.749	52.46
750.067	52.18
750.385	52.09
750.703	52.06
751.02	52.14
751.338	52.11
751.655	52.11
751.973	52.35
752.29	52.19
752.608	52.3
752.925	52.22
753.242	52.34
753.56	52.89
753.877	52.58
754.194	52.41
754.511	52.26
754.828	52.29
755.145	52.23
755.462	52.17
755.779	51.98
756.096	51.69
756.413	51.82
756.73	52.05
757.047	51.67
757.364	51.45
757.68	51.39
757.997	51.17
758.314	51.8
758.63	51.89
758.947	51.6
759.264	51.4
759.58	51.34
759.896	51.43
760.213	50.7
760.529	51.37
760.846	51.16
761.162	51.28
761.478	51.08
761.794	50.84
762.11	50.76
762.426	50.71
762.743	50.93
763.059	51
763.375	50.99
763.69	51
764.006	51.21
764.322	51.41
764.638	51.55
764.954	51.04
765.27	50.86
765.585	50.98
765.901	51.03
766.216	50.88
766.532	50.68
766.848	50.98
767.163	50.61
767.478	50.88
767.794	50.79
768.109	50.57
768.424	50.74
768.74	50.86
769.055	51.14
769.37	51.03
769.685	50.97
770	50.97
770.315	51.12
770.63	51.49
770.945	51.46
771.26	51.72
771.575	52.14
771.89	52.4
772.205	52.64
772.52	52.49
772.834	52.71
773.149	52.96
773.464	52.81
773.778	52.66
774.093	52.62
774.407	52.96
774.722	53.49
775.036	53.82
775.351	53.96
775.665	53.77
775.979	53.6
776.293	52.91
776.608	52.88
776.922	52.96
777.236	52.4
777.55	52.44
777.864	51.77
778.178	51.57
778.492	51.77
778.806	51.73
779.12	52.05
779.434	51.69
779.747	51.98
780.061	51.94
780.375	52.3
780.689	52.35
781.002	52.42
781.316	51.99
781.629	51.69
781.943	51.63
782.256	51.06
782.57	51.75
782.883	52.17
783.196	52.14
783.51	52.13
783.823	52.41
784.136	51.91
784.449	52.34
784.762	52.59
785.075	52.3
785.388	52.15
785.701	51.95
786.014	52.39
786.327	52.21
786.64	52.56
786.953	52.57
787.266	52.52
787.578	52.11
787.891	52.41
788.204	52.47
788.516	52.47
788.829	53.21
789.141	53.11
789.454	53.35
789.766	53.83
790.079	53.76
790.391	53.3
790.703	53.01
791.016	52.79
791.328	52.25
791.64	52.18
791.952	52.54
792.264	52.1
792.576	52.07
792.888	51.88
793.2	51.97
793.512	51.59
793.824	51.65
794.136	52.43
794.448	51.98
794.76	52.02
795.071	52.08
795.383	51.8
795.695	51.28
796.006	50.68
796.318	50.26
796.629	50.44
796.941	50.86
797.252	51.62
797.564	51.92
797.875	52.48
798.186	52.12
798.497	51.94
798.809	52.4
799.12	52.28
799.431	52.16
799.742	51.08
800.053	51.37
800.364	51.11
800.675	50.78
800.986	50.69
801.297	50.51
801.608	49.87
801.918	49.47
802.229	49.28
802.54	49.46
802.851	49.14
803.161	49
803.472	48.43
803.782	48.5
804.093	48.13
804.403	48.34
804.714	48.91
805.024	48.49
805.334	48.16
805.645	47.98
805.955	48.07
806.265	48.47
806.575	48.62
806.885	49.13
807.195	49.23
807.505	49.66
807.815	50.34
808.125	50.76
808.435	50.93
808.745	51.02
809.055	52.06
809.365	52.16
809.674	52.26
809.984	52.78
810.294	52.79
810.603	52.43
810.913	52
811.222	51.34
811.532	52.06
811.841	53.22
812.151	53.77
812.46	53.58
812.769	53.35
813.079	53.5
813.388	52.96
813.697	52.26
814.006	51.89
814.315	50.93
814.624	51.39
814.933	51.54
815.242	51.5
815.551	51.38
815.86	51.74
816.169	51.84
816.478	51.63
816.786	50.74
817.095	50.86
817.404	50.86
817.712	50.93
818.021	50.78
818.33	49.41
818.638	49.83
818.947	49.8
819.255	50.45
819.563	50.7
819.872	50.8
820.18	51.16
820.488	51.54
820.796	51.51
821.105	51.42
821.413	51.33
821.721	51.23
822.029	51.01
822.337	51.01
822.645	51.01
822.953	50.9
823.26	51.37
823.568	51.52
823.876	51.52
824.184	51.41
824.491	51.47
824.799	51.64
825.107	51.49
825.414	51.54
825.722	51.34
826.029	51.23
826.337	51.17
826.644	51.03
826.951	50.89
827.259	51.23
827.566	51.23
827.873	51.07
828.18	51.1
828.488	51.01
828.795	50.82
829.102	50.64
829.409	50.86
829.716	50.44
830.023	50.66
830.329	50.76
830.636	50.98
830.943	50.83
831.25	51.1
831.557	51.14
831.863	50.87
832.17	51.08
832.476	51.01
832.783	50.96
833.089	51.17
833.396	51.08
833.702	50.95
834.009	50.95
834.315	51.34
834.621	51.8
834.928	52.07
835.234	52.54
835.54	52.56
835.846	52.66
836.152	52.34
836.458	52.14
836.764	52.33
837.07	52.15
837.376	52.24
837.682	52.34
837.988	52.85
838.293	53.11
838.599	53.16
838.905	53.1
839.211	53.49
839.516	52.99
839.822	53.21
840.127	51.23
840.433	51.72
840.738	51.36
841.044	50.24
841.349	50.1
841.654	50.06
841.959	50.44
842.265	50.08
842.57	50.22
842.875	49.06
843.18	48.3
843.485	48.8
843.79	48.1
844.095	48.28
844.4	47.24
844.705	49.14
845.01	50.57
845.315	50.57
845.619	51.75
845.924	52.58
846.229	54.36
846.533	56.86
846.838	55.91
847.142	56.83
847.447	57.29
847.751	57.74
848.056	54.62
848.36	54.77
848.664	55.81
848.969	55.47
849.273	54.61
849.577	53.67
849.881	54.47
850.185	57.15
850.489	54.45
850.794	54.07
851.097	51.62
851.401	50.15
851.705	49.12
852.009	46.9
852.313	46.95
852.617	41.83
852.92	43.1
853.224	41.36
853.528	43.8
853.831	44.09
854.135	43.05
854.438	42.66
854.742	42.81
855.045	42.42
855.349	42.97
855.652	43.13
855.955	45.14
856.259	44.57
856.562	42.36
856.865	44.09
857.168	43.79
857.471	43.79
857.774	43.9
858.077	44.46
858.38	45.11
858.683	46.02
858.986	49.25
859.289	49.95
859.592	51.67
859.894	49.65
860.197	50.25
860.5	50.6
860.802	52.3
861.105	50.63
861.407	50.39
861.71	49.33
862.012	52.19
862.315	50.96
862.617	53.06
862.919	51.78
863.222	50.06
863.524	50.57
863.826	50.34
864.128	49.71
864.43	51.93
864.732	50.83
865.034	50.59
865.336	49.98
865.638	50
865.94	47.53
866.242	45.59
866.544	46.65
866.846	47.14
867.147	48.71
867.449	51.75
867.751	54.18
868.052	55.28
868.354	55.4
868.655	56.67
868.957	55.48
869.258	57.65
869.56	56.17
869.861	54.81
870.162	54.08
870.463	54.02
870.765	54.4
871.066	54.55
871.367	54.1
871.668	56.12
871.969	53.24
872.27	56.37
872.571	59.59
872.872	55.99
873.173	59.77
873.473	58
873.774	57.23
874.075	55.47
874.376	54.52
874.676	54.17
874.977	50.51
875.277	50.02
875.578	49.68
875.878	52.95
876.179	55.58
876.479	57.75
876.78	58.3
877.08	56.59
877.38	57.63
877.68	57.86
877.981	55.91
878.281	57.48
878.581	57.29
