Data from BA35141_Reflection_00010.txt Node
Date: Tue Nov 19 11:54:47 EST 2019
User: vgr7
Spectrometer: USB2G7710
Scans to average: 3
Trigger mode: 4
Integration Time (sec): 2.000000E-2
Electric dark correction enabled: true
Boxcar width: 10
XAxis mode: Wavelengths
Number of Pixels in Spectrum: 2048
>>>>>Begin Spectral Data<<<<<
177.721	34.07
178.105	-275
178.488	43.13
178.871	-57.89
179.254	-82.61
179.636	34.31
180.019	-30.43
180.402	-1300
180.785	-94.59
181.168	140.54
181.55	159.41
181.933	118.78
182.316	129.85
182.698	87.85
183.081	130.15
183.463	252.67
183.846	212.3
184.228	228.83
184.611	312.77
184.993	385.71
185.376	287.05
185.758	370.27
186.14	413.04
186.522	867.44
186.904	-936.36
187.287	-884.13
187.669	-1420
188.051	1154.05
188.433	525.29
188.815	289.54
189.197	2152.63
189.579	-1947.62
189.961	-703.28
190.342	-422.12
190.724	-474.47
191.106	-2307.41
191.488	-491.4
191.869	-235.66
192.251	-191.87
192.633	-152.28
193.014	-133.6
193.396	-138.85
193.777	-118.1
194.159	-107.88
194.54	-112.06
194.922	-129.58
195.303	-105.31
195.684	-112.36
196.065	-97.56
196.447	-76.31
196.828	-76.25
197.209	-74.29
197.59	-71.16
197.971	-60.26
198.352	-62.94
198.733	-77.03
199.114	-76.02
199.495	-101.27
199.876	-142.26
200.257	-134.12
200.638	-140.08
201.018	-169.5
201.399	-132.18
201.78	-170.47
202.16	-170.89
202.541	-184.99
202.922	-151.66
203.302	-264.02
203.683	-324.39
204.063	-853.85
204.444	-704.12
204.824	-390.91
205.204	-237.9
205.585	-331.37
205.965	-422.12
206.345	-145.95
206.725	-69.16
207.106	-72.08
207.486	-77.14
207.866	-64.05
208.246	-43.11
208.626	-81.82
209.006	-79.86
209.386	-95.97
209.766	-69.41
210.145	-56.18
210.525	-45.21
210.905	-45.02
211.285	-37.77
211.664	-9.47
212.044	-39.26
212.424	-39.96
212.803	-36.46
213.183	-44.09
213.562	-29.03
213.942	-47.12
214.321	-47.79
214.701	-86.99
215.08	-101.28
215.459	-84.44
215.838	-119.93
216.218	-252.94
216.597	-193.04
216.976	-190.66
217.355	-147.93
217.734	-167.33
218.113	-133.42
218.492	-115.1
218.871	-104.21
219.25	-104.59
219.629	-144.55
220.008	-87.62
220.387	-78.38
220.766	-71.95
221.144	-96.94
221.523	-121.56
221.902	-93.29
222.28	-72.97
222.659	-63.99
223.037	-47.67
223.416	-21.85
223.794	-6.01
224.173	1.67
224.551	14
224.929	10.45
225.308	1.11
225.686	-6.24
226.064	-3.42
226.442	-7.59
226.821	-4.67
227.199	-9.74
227.577	-6.79
227.955	-6.84
228.333	-12.52
228.711	-15.87
229.089	-14.15
229.467	-16.61
229.845	-19.65
230.222	-22
230.6	-22.36
230.978	-20.55
231.356	-19.41
231.733	-19.64
232.111	-19.1
232.488	-20.21
232.866	-17.73
233.243	-16.23
233.621	-12.59
233.998	-14.08
234.376	-11.74
234.753	-11.58
235.13	-9.31
235.508	-10.34
235.885	-10.64
236.262	-8.16
236.639	-5.89
237.016	-6.69
237.393	-2.82
237.77	-0.52
238.147	-1.07
238.524	0.41
238.901	-0.15
239.278	-0.63
239.655	0.07
240.032	-0.13
240.409	1.32
240.785	1.3
241.162	2.5
241.539	2.27
241.915	2.52
242.292	2.1
242.668	2.18
243.045	2.35
243.421	3.13
243.798	3.06
244.174	2.92
244.551	2.58
244.927	2.7
245.303	2.32
245.679	2.03
246.056	2.4
246.432	2.38
246.808	2.87
247.184	3.03
247.56	2.42
247.936	2.55
248.312	2.27
248.688	2.52
249.064	2.38
249.44	2.37
249.815	2.42
250.191	2.49
250.567	2.57
250.943	2.54
251.318	2.45
251.694	2.18
252.069	2.28
252.445	2.43
252.82	2.66
253.196	2.84
253.571	3.02
253.947	2.75
254.322	2.47
254.697	2.25
255.073	1.95
255.448	2.75
255.823	2.58
256.198	2.33
256.573	2.26
256.948	2.02
257.323	2.02
257.698	2.12
258.073	1.99
258.448	2.08
258.823	2.06
259.198	1.93
259.573	2.01
259.948	2.04
260.322	2.09
260.697	1.97
261.072	1.99
261.446	1.96
261.821	1.95
262.195	1.91
262.57	2
262.944	2.12
263.319	1.85
263.693	2.09
264.067	2.18
264.442	2.29
264.816	2.34
265.19	2.41
265.564	2.2
265.938	2.25
266.313	1.86
266.687	1.74
267.061	1.77
267.435	2.05
267.809	1.96
268.183	1.78
268.556	1.97
268.93	1.89
269.304	1.85
269.678	1.96
270.051	2.1
270.425	1.91
270.799	1.63
271.172	1.68
271.546	1.81
271.919	1.75
272.293	1.77
272.666	1.9
273.04	1.88
273.413	1.93
273.787	1.93
274.16	2.07
274.533	2.13
274.906	2.23
275.279	2.23
275.653	2.45
276.026	2.52
276.399	2.49
276.772	2.52
277.145	2.52
277.518	2.61
277.891	2.65
278.263	2.7
278.636	2.87
279.009	2.97
279.382	2.71
279.755	2.86
280.127	2.76
280.5	2.61
280.872	2.5
281.245	2.55
281.617	2.65
281.99	2.62
282.362	2.56
282.735	2.36
283.107	2.28
283.479	2.22
283.852	2.23
284.224	2.23
284.596	2.21
284.968	2.14
285.34	2.12
285.713	2.18
286.085	2.1
286.457	2.1
286.829	2.11
287.201	2.19
287.572	2.19
287.944	2.28
288.316	2.38
288.688	2.42
289.06	2.35
289.431	2.39
289.803	2.56
290.175	2.67
290.546	2.63
290.918	2.51
291.289	2.39
291.661	2.47
292.032	2.37
292.403	2.52
292.775	2.73
293.146	2.82
293.517	2.74
293.889	2.81
294.26	2.79
294.631	2.75
295.002	2.79
295.373	2.75
295.744	2.63
296.115	2.66
296.486	2.71
296.857	2.81
297.228	2.78
297.599	2.72
297.97	2.81
298.34	2.95
298.711	3.09
299.082	3.18
299.452	3.18
299.823	3.27
300.194	3.46
300.564	3.32
300.935	3.26
301.305	3.38
301.676	3.4
302.046	3.51
302.416	3.55
302.787	3.63
303.157	3.68
303.527	3.88
303.897	3.89
304.267	4
304.637	4.06
305.008	4.12
305.378	4.15
305.748	4.07
306.117	4.1
306.487	4.05
306.857	4.27
307.227	4.43
307.597	4.49
307.967	4.28
308.336	4.33
308.706	4.47
309.076	4.37
309.445	4.4
309.815	4.33
310.184	4.48
310.554	4.48
310.923	4.36
311.293	4.33
311.662	4.36
312.031	4.23
312.401	4.05
312.77	4.1
313.139	4.08
313.508	4.09
313.877	4.04
314.246	4.03
314.616	3.88
314.985	3.82
315.353	3.83
315.722	4
316.091	4.11
316.46	3.96
316.829	4.04
317.198	4.12
317.567	4.2
317.935	4.27
318.304	4.18
318.672	4.38
319.041	4.44
319.41	4.35
319.778	4.34
320.147	4.6
320.515	4.64
320.883	4.77
321.252	4.82
321.62	5.05
321.988	5.2
322.357	5.39
322.725	5.41
323.093	5.63
323.461	5.49
323.829	5.59
324.197	5.53
324.565	5.64
324.933	5.62
325.301	5.64
325.669	5.4
326.037	5.54
326.405	5.65
326.772	5.64
327.14	5.79
327.508	5.99
327.875	5.86
328.243	5.88
328.61	5.92
328.978	5.88
329.346	5.92
329.713	6.06
330.08	6.01
330.448	6.08
330.815	5.96
331.182	6.05
331.55	5.97
331.917	6.22
332.284	6.24
332.651	6.25
333.018	6.21
333.385	6.26
333.752	6.19
334.119	6.15
334.486	6.15
334.853	6.15
335.22	6.2
335.587	6.2
335.954	6.2
336.32	6.21
336.687	6.21
337.054	6.19
337.42	6.09
337.787	5.98
338.153	5.89
338.52	5.87
338.886	5.86
339.253	5.71
339.619	5.75
339.986	5.75
340.352	5.83
340.718	5.99
341.084	6.15
341.451	6.22
341.817	6.3
342.183	6.39
342.549	6.41
342.915	6.35
343.281	6.53
343.647	6.7
344.013	6.77
344.379	6.83
344.745	6.91
345.11	6.96
345.476	7.09
345.842	7.11
346.208	7.15
346.573	7.18
346.939	7.44
347.304	7.45
347.67	7.57
348.035	7.54
348.401	7.57
348.766	7.61
349.132	7.7
349.497	7.65
349.862	7.58
350.228	7.57
350.593	7.6
350.958	7.65
351.323	7.61
351.688	7.51
352.053	7.52
352.418	7.34
352.783	7.38
353.148	7.36
353.513	7.43
353.878	7.34
354.243	7.3
354.608	7.22
354.972	7.14
355.337	7.01
355.702	6.99
356.066	6.99
356.431	6.9
356.795	6.84
357.16	6.92
357.524	6.97
357.889	6.97
358.253	6.9
358.618	6.77
358.982	6.71
359.346	6.75
359.71	6.8
360.075	6.88
360.439	6.88
360.803	6.89
361.167	6.84
361.531	6.94
361.895	6.95
362.259	6.97
362.623	6.96
362.987	6.99
363.351	6.96
363.714	6.92
364.078	6.95
364.442	6.94
364.806	6.8
365.169	6.77
365.533	6.78
365.896	6.79
366.26	6.79
366.623	6.79
366.987	6.71
367.35	6.69
367.714	6.61
368.077	6.56
368.44	6.54
368.803	6.43
369.167	6.29
369.53	6.31
369.893	6.29
370.256	6.22
370.619	6.13
370.982	6.11
371.345	6.06
371.708	6.03
372.071	6.03
372.434	6.1
372.797	6.04
373.159	5.96
373.522	5.98
373.885	5.99
374.247	5.92
374.61	5.87
374.973	5.83
375.335	5.83
375.698	5.79
376.06	5.69
376.423	5.74
376.785	5.76
377.147	5.7
377.51	5.6
377.872	5.6
378.234	5.62
378.596	5.58
378.958	5.64
379.321	5.63
379.683	5.53
380.045	5.45
380.407	5.35
380.769	5.34
381.13	5.29
381.492	5.24
381.854	5.25
382.216	5.28
382.578	5.24
382.939	5.18
383.301	5.14
383.663	5.1
384.024	5.08
384.386	5.02
384.747	4.92
385.109	4.9
385.47	4.9
385.832	4.83
386.193	4.8
386.554	4.68
386.916	4.65
387.277	4.65
387.638	4.65
387.999	4.72
388.36	4.66
388.721	4.57
389.082	4.57
389.443	4.52
389.804	4.48
390.165	4.44
390.526	4.42
390.887	4.41
391.248	4.39
391.609	4.36
391.969	4.4
392.33	4.41
392.691	4.41
393.051	4.36
393.412	4.35
393.772	4.42
394.133	4.43
394.493	4.36
394.854	4.31
395.214	4.26
395.574	4.21
395.935	4.21
396.295	4.21
396.655	4.16
397.015	4.13
397.376	4.14
397.736	4.1
398.096	4.06
398.456	4.06
398.816	4.07
399.176	3.99
399.535	3.9
399.895	3.91
400.255	3.89
400.615	3.89
400.975	3.87
401.334	3.83
401.694	3.79
402.054	3.79
402.413	3.77
402.773	3.8
403.132	3.77
403.492	3.79
403.851	3.8
404.211	3.81
404.57	3.8
404.929	3.74
405.288	3.72
405.648	3.72
406.007	3.7
406.366	3.63
406.725	3.66
407.084	3.67
407.443	3.65
407.802	3.6
408.161	3.58
408.52	3.58
408.879	3.53
409.238	3.52
409.596	3.48
409.955	3.48
410.314	3.45
410.673	3.45
411.031	3.41
411.39	3.38
411.748	3.38
412.107	3.35
412.465	3.37
412.824	3.37
413.182	3.37
413.54	3.36
413.899	3.37
414.257	3.35
414.615	3.33
414.974	3.29
415.332	3.32
415.69	3.31
416.048	3.27
416.406	3.25
416.764	3.24
417.122	3.25
417.48	3.25
417.838	3.22
418.195	3.2
418.553	3.19
418.911	3.19
419.269	3.17
419.626	3.17
419.984	3.17
420.342	3.15
420.699	3.12
421.057	3.11
421.414	3.11
421.772	3.11
422.129	3.1
422.486	3.1
422.844	3.07
423.201	3.07
423.558	3.06
423.915	3.06
424.273	3.07
424.63	3.07
424.987	3.07
425.344	3.07
425.701	3.07
426.058	3.08
426.415	3.04
426.772	3.03
427.128	3.02
427.485	3.01
427.842	3
428.199	3.01
428.555	3
428.912	2.96
429.269	2.95
429.625	2.95
429.982	2.93
430.338	2.94
430.695	2.92
431.051	2.91
431.407	2.89
431.764	2.86
432.12	2.86
432.476	2.82
432.832	2.82
433.189	2.8
433.545	2.79
433.901	2.79
434.257	2.79
434.613	2.77
434.969	2.74
435.325	2.76
435.681	2.77
436.036	2.77
436.392	2.78
436.748	2.79
437.104	2.78
437.459	2.77
437.815	2.78
438.171	2.78
438.526	2.79
438.882	2.81
439.237	2.82
439.593	2.84
439.948	2.84
440.304	2.85
440.659	2.85
441.014	2.85
441.369	2.87
441.725	2.88
442.08	2.9
442.435	2.91
442.79	2.88
443.145	2.87
443.5	2.87
443.855	2.86
444.21	2.85
444.565	2.85
444.92	2.86
445.275	2.83
445.629	2.85
445.984	2.86
446.339	2.84
446.693	2.82
447.048	2.79
447.403	2.78
447.757	2.76
448.112	2.76
448.466	2.75
448.82	2.74
449.175	2.73
449.529	2.7
449.883	2.68
450.238	2.69
450.592	2.7
450.946	2.69
451.3	2.71
451.654	2.68
452.008	2.69
452.362	2.67
452.716	2.67
453.07	2.66
453.424	2.63
453.778	2.63
454.132	2.63
454.486	2.63
454.839	2.65
455.193	2.67
455.547	2.68
455.9	2.68
456.254	2.68
456.607	2.68
456.961	2.7
457.314	2.72
457.668	2.72
458.021	2.71
458.375	2.73
458.728	2.72
459.081	2.76
459.434	2.74
459.787	2.75
460.141	2.78
460.494	2.79
460.847	2.81
461.2	2.83
461.553	2.84
461.906	2.84
462.259	2.84
462.611	2.85
462.964	2.86
463.317	2.88
463.67	2.88
464.022	2.9
464.375	2.91
464.728	2.9
465.08	2.89
465.433	2.9
465.785	2.91
466.138	2.9
466.49	2.9
466.843	2.93
467.195	2.94
467.547	2.91
467.899	2.89
468.252	2.9
468.604	2.89
468.956	2.9
469.308	2.91
469.66	2.93
470.012	2.93
470.364	2.88
470.716	2.88
471.068	2.89
471.42	2.88
471.772	2.87
472.123	2.89
472.475	2.92
472.827	2.92
473.178	2.93
473.53	2.94
473.882	2.93
474.233	2.91
474.585	2.88
474.936	2.91
475.288	2.91
475.639	2.92
475.99	2.88
476.342	2.86
476.693	2.88
477.044	2.86
477.395	2.85
477.746	2.85
478.097	2.84
478.448	2.83
478.8	2.83
479.15	2.82
479.501	2.8
479.852	2.78
480.203	2.78
480.554	2.79
480.905	2.81
481.255	2.81
481.606	2.82
481.957	2.84
482.307	2.84
482.658	2.85
483.009	2.85
483.359	2.86
483.709	2.88
484.06	2.87
484.41	2.89
484.761	2.9
485.111	2.91
485.461	2.91
485.811	2.92
486.162	2.92
486.512	2.93
486.862	2.94
487.212	2.97
487.562	2.97
487.912	2.98
488.262	2.98
488.612	2.98
488.961	3
489.311	2.99
489.661	3
490.011	3.01
490.36	3.02
490.71	3.03
491.06	3.04
491.409	3.06
491.759	3.06
492.108	3.05
492.458	3.07
492.807	3.08
493.157	3.1
493.506	3.13
493.855	3.14
494.204	3.17
494.554	3.18
494.903	3.2
495.252	3.2
495.601	3.23
495.95	3.27
496.299	3.28
496.648	3.31
496.997	3.36
497.346	3.39
497.695	3.42
498.043	3.45
498.392	3.47
498.741	3.5
499.09	3.54
499.438	3.59
499.787	3.64
500.135	3.69
500.484	3.73
500.832	3.73
501.181	3.77
501.529	3.82
501.878	3.85
502.226	3.91
502.574	3.96
502.923	4.01
503.271	4.05
503.619	4.09
503.967	4.14
504.315	4.17
504.663	4.19
505.011	4.25
505.359	4.3
505.707	4.35
506.055	4.39
506.403	4.42
506.751	4.47
507.098	4.51
507.446	4.55
507.794	4.62
508.141	4.69
508.489	4.76
508.837	4.8
509.184	4.87
509.531	4.92
509.879	4.98
510.226	5.03
510.574	5.07
510.921	5.15
511.268	5.2
511.616	5.26
511.963	5.32
512.31	5.39
512.657	5.47
513.004	5.52
513.351	5.59
513.698	5.71
514.045	5.78
514.392	5.86
514.739	5.96
515.086	6.04
515.432	6.13
515.779	6.18
516.126	6.27
516.473	6.34
516.819	6.42
517.166	6.51
517.512	6.59
517.859	6.71
518.205	6.75
518.552	6.82
518.898	6.88
519.245	6.99
519.591	7.05
519.937	7.15
520.283	7.26
520.629	7.34
520.976	7.44
521.322	7.56
521.668	7.68
522.014	7.8
522.36	7.93
522.706	8.07
523.052	8.24
523.398	8.4
523.743	8.56
524.089	8.74
524.435	8.89
524.781	9.07
525.126	9.2
525.472	9.37
525.817	9.51
526.163	9.65
526.509	9.76
526.854	9.9
527.199	10
527.545	10.11
527.89	10.24
528.235	10.35
528.581	10.46
528.926	10.57
529.271	10.7
529.616	10.82
529.961	10.94
530.306	11.06
530.651	11.2
530.996	11.34
531.341	11.5
531.686	11.65
532.031	11.81
532.376	11.98
532.721	12.14
533.065	12.33
533.41	12.5
533.755	12.71
534.099	12.89
534.444	13.09
534.788	13.29
535.133	13.45
535.477	13.65
535.822	13.88
536.166	14.11
536.51	14.36
536.855	14.61
537.199	14.87
537.543	15.15
537.887	15.45
538.231	15.73
538.576	16.02
538.92	16.3
539.264	16.54
539.608	16.82
539.951	17.07
540.295	17.3
540.639	17.54
540.983	17.75
541.327	17.95
541.671	18.18
542.014	18.4
542.358	18.64
542.701	18.86
543.045	19.08
543.389	19.32
543.732	19.54
544.075	19.8
544.419	20.08
544.762	20.33
545.105	20.55
545.449	20.8
545.792	21.07
546.135	21.34
546.478	21.64
546.821	21.93
547.165	22.27
547.508	22.56
547.851	22.88
548.194	23.21
548.536	23.55
548.879	23.86
549.222	24.18
549.565	24.52
549.908	24.87
550.25	25.17
550.593	25.44
550.936	25.75
551.278	26.03
551.621	26.3
551.963	26.65
552.306	26.99
552.648	27.33
552.991	27.61
553.333	27.9
553.675	28.24
554.017	28.47
554.36	28.71
554.702	28.99
555.044	29.29
555.386	29.54
555.728	29.79
556.07	30.07
556.412	30.38
556.754	30.62
557.096	30.87
557.438	31.16
557.78	31.44
558.121	31.7
558.463	32.02
558.805	32.28
559.147	32.52
559.488	32.68
559.83	32.93
560.171	33.19
560.513	33.48
560.854	33.76
561.196	34.04
561.537	34.39
561.878	34.69
562.22	34.91
562.561	35.16
562.902	35.39
563.243	35.57
563.584	35.82
563.925	36.13
564.266	36.37
564.607	36.58
564.948	36.79
565.289	37.07
565.63	37.24
565.971	37.49
566.312	37.65
566.653	37.9
566.993	38.16
567.334	38.37
567.675	38.64
568.015	38.82
568.356	39.03
568.696	39.19
569.037	39.35
569.377	39.57
569.718	39.77
570.058	40.02
570.398	40.26
570.739	40.44
571.079	40.59
571.419	40.74
571.759	40.93
572.099	41.08
572.439	41.19
572.779	41.35
573.119	41.49
573.459	41.65
573.799	41.77
574.139	41.88
574.479	42.01
574.819	42.11
575.158	42.28
575.498	42.4
575.838	42.51
576.177	42.66
576.517	42.8
576.856	42.95
577.196	43.04
577.535	43.2
577.875	43.32
578.214	43.44
578.553	43.64
578.893	43.81
579.232	43.99
579.571	44.18
579.91	44.32
580.25	44.46
580.589	44.63
580.928	44.8
581.267	44.91
581.606	45.06
581.945	45.18
582.283	45.28
582.622	45.44
582.961	45.7
583.3	45.79
583.639	45.92
583.977	46.01
584.316	46.14
584.654	46.25
584.993	46.4
585.332	46.49
585.67	46.57
586.008	46.62
586.347	46.75
586.685	46.77
587.024	46.86
587.362	46.94
587.7	47
588.038	47.11
588.376	47.22
588.715	47.23
589.053	47.31
589.391	47.38
589.729	47.46
590.067	47.5
590.404	47.64
590.742	47.73
591.08	47.86
591.418	47.98
591.756	48.04
592.093	48.07
592.431	48.11
592.769	48.19
593.106	48.25
593.444	48.29
593.781	48.4
594.119	48.51
594.456	48.56
594.793	48.64
595.131	48.72
595.468	48.76
595.805	48.92
596.143	48.93
596.48	49.04
596.817	49.05
597.154	49.06
597.491	49.07
597.828	49.1
598.165	49.15
598.502	49.16
598.839	49.21
599.176	49.3
599.512	49.37
599.849	49.43
600.186	49.47
600.523	49.63
600.859	49.72
601.196	49.74
601.532	49.85
601.869	49.89
602.205	49.92
602.542	50.01
602.878	50.05
603.215	50.06
603.551	50.12
603.887	50.2
604.223	50.24
604.56	50.3
604.896	50.37
605.232	50.34
605.568	50.34
605.904	50.39
606.24	50.45
606.576	50.51
606.912	50.61
607.248	50.68
607.583	50.63
607.919	50.69
608.255	50.72
608.591	50.78
608.926	50.84
609.262	50.94
609.597	50.98
609.933	51.08
610.268	51.14
610.604	51.11
610.939	51.14
611.275	51.16
611.61	51.21
611.945	51.17
612.281	51.23
612.616	51.32
612.951	51.38
613.286	51.4
613.621	51.44
613.956	51.41
614.291	51.44
614.626	51.49
614.961	51.47
615.296	51.54
615.631	51.5
615.966	51.5
616.3	51.49
616.635	51.53
616.97	51.59
617.304	51.6
617.639	51.66
617.973	51.66
618.308	51.74
618.642	51.67
618.977	51.76
619.311	51.91
619.646	51.94
619.98	51.98
620.314	51.99
620.648	51.97
620.983	52.01
621.317	52.1
621.651	52.08
621.985	52.19
622.319	52.23
622.653	52.33
622.987	52.41
623.321	52.42
623.655	52.53
623.988	52.5
624.322	52.63
624.656	52.67
624.99	52.69
625.323	52.6
625.657	52.71
625.99	52.79
626.324	52.84
626.657	52.88
626.991	52.85
627.324	52.83
627.658	52.8
627.991	52.94
628.324	52.92
628.657	53.01
628.991	52.98
629.324	53.01
629.657	52.91
629.99	52.98
630.323	53.04
630.656	52.97
630.989	52.93
631.322	52.89
631.655	52.88
631.987	52.86
632.32	53.06
632.653	53.11
632.986	53.16
633.318	53.12
633.651	53.12
633.984	53.19
634.316	53.29
634.649	53.37
634.981	53.24
635.313	53.31
635.646	53.39
635.978	53.37
636.31	53.47
636.643	53.62
636.975	53.52
637.307	53.52
637.639	53.62
637.971	53.55
638.303	53.53
638.635	53.57
638.967	53.7
639.299	53.56
639.631	53.47
639.963	53.37
640.295	53.37
640.626	53.42
640.958	53.46
641.29	53.44
641.621	53.49
641.953	53.5
642.285	53.42
642.616	53.3
642.948	53.3
643.279	53.24
643.61	53.24
643.942	53.39
644.273	53.43
644.604	53.34
644.936	53.52
645.267	53.58
645.598	53.6
645.929	53.5
646.26	53.66
646.591	53.85
646.922	53.9
647.253	53.89
647.584	53.9
647.915	53.79
648.245	53.75
648.576	53.74
648.907	53.78
649.238	53.88
649.568	53.89
649.899	53.95
650.229	54.04
650.56	54.06
650.89	53.99
651.221	54.06
651.551	54.08
651.882	54.04
652.212	53.98
652.542	54.03
652.872	54.11
653.203	54.02
653.533	53.98
653.863	54.04
654.193	54.01
654.523	54.01
654.853	54.14
655.183	54.12
655.513	54.16
655.843	54.12
656.172	54.17
656.502	54.26
656.832	54.31
657.162	54.27
657.491	54.22
657.821	54.32
658.15	54.2
658.48	54.26
658.809	54.21
659.139	54.29
659.468	54.21
659.798	54.23
660.127	54.24
660.456	54.2
660.785	54.18
661.115	54.2
661.444	54.22
661.773	54.17
662.102	54.29
662.431	54.37
662.76	54.52
663.089	54.48
663.418	54.55
663.747	54.49
664.076	54.47
664.404	54.58
664.733	54.61
665.062	54.69
665.39	54.69
665.719	54.81
666.048	54.82
666.376	54.9
666.705	54.96
667.033	55
667.362	55.02
667.69	54.91
668.018	54.94
668.347	54.92
668.675	54.99
669.003	54.89
669.331	54.75
669.659	54.71
669.987	54.7
670.315	54.58
670.643	54.59
670.971	54.54
671.299	54.55
671.627	54.49
671.955	54.42
672.283	54.36
672.61	54.3
672.938	54.4
673.266	54.4
673.593	54.27
673.921	54.27
674.249	54.24
674.576	54.31
674.904	54.29
675.231	54.2
675.558	54.26
675.886	54.34
676.213	54.44
676.54	54.41
676.867	54.29
677.195	54.33
677.522	54.51
677.849	54.74
678.176	54.64
678.503	54.71
678.83	54.83
679.157	54.92
679.484	54.94
679.81	54.94
680.137	55.09
680.464	55.39
680.791	55.48
681.117	55.51
681.444	55.63
681.771	55.77
682.097	55.9
682.424	55.88
682.75	55.96
683.077	55.91
683.403	55.92
683.729	56.07
684.056	56.11
684.382	55.95
684.708	55.81
685.034	55.97
685.36	55.81
685.686	55.78
686.012	55.74
686.339	55.7
686.664	55.68
686.99	55.49
687.316	55.34
687.642	55.22
687.968	55.17
688.294	55
688.619	54.97
688.945	54.85
689.271	54.73
689.596	54.54
689.922	54.49
690.247	54.6
690.573	54.48
690.898	54.54
691.224	54.69
691.549	54.73
691.874	54.83
692.2	54.86
692.525	54.7
692.85	54.62
693.175	54.64
693.5	54.61
693.825	54.65
694.15	54.57
694.475	54.65
694.8	54.72
695.125	54.8
695.45	54.56
695.775	54.7
696.099	54.76
696.424	54.99
696.749	55.1
697.073	54.93
697.398	55.05
697.723	54.9
698.047	54.75
698.372	54.82
698.696	54.59
699.02	54.71
699.345	54.77
699.669	54.77
699.993	54.76
700.318	54.85
700.642	54.84
700.966	54.93
701.29	54.99
701.614	54.96
701.938	54.87
702.262	55.01
702.586	54.85
702.91	54.67
703.234	54.47
703.557	54.44
703.881	54.51
704.205	54.53
704.529	54.59
704.852	54.59
705.176	54.37
705.499	54.49
705.823	54.41
706.146	54.46
706.47	54.45
706.793	54.61
707.117	54.41
707.44	54.49
707.763	54.38
708.086	54.21
708.409	54.25
708.733	54.33
709.056	54.47
709.379	54.74
709.702	54.83
710.025	54.98
710.348	54.94
710.671	55.11
710.993	54.84
711.316	55.09
711.639	55.2
711.962	55.46
712.284	55.39
712.607	55.27
712.93	55.31
713.252	55.64
713.575	55.57
713.897	55.7
714.22	55.53
714.542	55.6
714.864	55.66
715.187	55.62
715.509	55.78
715.831	55.77
716.153	55.5
716.475	55.68
716.798	55.46
717.12	55.47
717.442	55.4
717.764	55.78
718.085	55.54
718.407	55.6
718.729	55.48
719.051	55.81
719.373	56.12
719.695	56.33
720.016	56.26
720.338	56.48
720.659	56.29
720.981	56.19
721.302	56.37
721.624	56.24
721.945	56.27
722.267	56.15
722.588	56.13
722.909	56.42
723.231	56.47
723.552	56.55
723.873	56.6
724.194	56.48
724.515	56.24
724.836	56.28
725.157	56.1
725.478	56.08
725.799	55.87
726.12	55.79
726.441	55.5
726.762	55.12
727.083	54.94
727.403	55.23
727.724	55.58
728.045	55.57
728.365	55.82
728.686	55.92
729.006	55.64
729.327	55.75
729.647	55.78
729.967	55.73
730.288	55.85
730.608	56
730.928	56.16
731.249	56.22
731.569	56.05
731.889	56.18
732.209	56.15
732.529	56.07
732.849	55.92
733.169	56.17
733.489	56.21
733.809	56.2
734.129	56.19
734.448	56.02
734.768	55.7
735.088	55.41
735.408	55.48
735.727	55.78
736.047	55.46
736.366	55.25
736.686	55.35
737.005	55.43
737.325	55.2
737.644	55.12
737.963	55.03
738.283	55.22
738.602	55.08
738.921	55.1
739.24	55.06
739.56	55.06
739.879	55
740.198	55.12
740.517	55.38
740.836	55.14
741.155	55.11
741.473	55.27
741.792	55.49
742.111	55.38
742.43	55.38
742.748	55.69
743.067	55.69
743.386	55.49
743.704	55.36
744.023	55.34
744.341	55.24
744.66	55.28
744.978	55.14
745.297	55.41
745.615	55.45
745.933	55.78
746.252	55.9
746.57	55.97
746.888	56.36
747.206	56.16
747.524	56.17
747.842	56.35
748.16	56.13
748.478	56.31
748.796	56.25
749.114	56.45
749.432	56.69
749.749	56.87
750.067	57.04
750.385	57.13
750.703	57.21
751.02	57.01
751.338	57.04
751.655	56.96
751.973	56.74
752.29	56.4
752.608	56.27
752.925	56.43
753.242	56.26
753.56	56.27
753.877	56
754.194	55.89
754.511	56.04
754.828	56.24
755.145	55.86
755.462	55.76
755.779	55.68
756.096	55.31
756.413	55.27
756.73	55.32
757.047	55.26
757.364	55.37
757.68	55.77
757.997	55.77
758.314	56.23
758.63	56.2
758.947	56.34
759.264	56.17
759.58	55.75
759.896	56.2
760.213	55.9
760.529	56.1
760.846	56.44
761.162	56.29
761.478	56.41
761.794	56.55
762.11	56.73
762.426	56.58
762.743	56.53
763.059	56.71
763.375	56.61
763.69	56.55
764.006	56.58
764.322	56.32
764.638	56.48
764.954	56.38
765.27	56.15
765.585	56.28
765.901	56.34
766.216	56.74
766.532	56.44
766.848	56.3
767.163	56.31
767.478	56.41
767.794	56.36
768.109	56.24
768.424	56.06
768.74	56.17
769.055	56.5
769.37	56.54
769.685	56.56
770	56.52
770.315	56.67
770.63	56.77
770.945	57.17
771.26	57.03
771.575	56.8
771.89	57.25
772.205	57.25
772.52	56.94
772.834	56.58
773.149	56.38
773.464	56.4
773.778	56.08
774.093	55.51
774.407	55.64
774.722	55.71
775.036	56.02
775.351	55.66
775.665	55.23
775.979	55.1
776.293	54.86
776.608	54.86
776.922	55.11
777.236	55.01
777.55	54.67
777.864	54.46
778.178	54.9
778.492	54.81
778.806	54.64
779.12	54.93
779.434	54.94
779.747	55.13
780.061	55.25
780.375	55.73
780.689	55.96
781.002	55.94
781.316	55.81
781.629	56.08
781.943	56.24
782.256	55.48
782.57	56.07
782.883	56.17
783.196	56.4
783.51	55.9
783.823	55.82
784.136	55.64
784.449	55.64
784.762	55.73
785.075	56.36
785.388	56.2
785.701	56.84
786.014	57.28
786.327	57.26
786.64	57.61
786.953	57.28
787.266	57.57
787.578	57.23
787.891	57.32
788.204	56.89
788.516	56.8
788.829	57.59
789.141	57.4
789.454	56.97
789.766	56.72
790.079	56.68
790.391	56.41
790.703	56.2
791.016	56
791.328	55.12
791.64	54.46
791.952	54.35
792.264	53.33
792.576	52.73
792.888	52.45
793.2	52.59
793.512	52.54
793.824	52.05
794.136	52.5
794.448	52.3
794.76	51.96
795.071	51.88
795.383	52.21
795.695	52.17
796.006	52.23
796.318	52.54
796.629	52.81
796.941	53.09
797.252	53.33
797.564	53.82
797.875	54.06
798.186	54.29
798.497	54.2
798.809	54.62
799.12	54.26
799.431	54.36
799.742	53.61
800.053	53.88
800.364	54.19
800.675	54.45
800.986	54.84
801.297	55.56
801.608	55.73
801.918	55.31
802.229	54.75
802.54	54.71
802.851	54.77
803.161	55.06
803.472	54.64
803.782	55.35
804.093	54.97
804.403	55.24
804.714	55.85
805.024	56.14
805.334	56.22
805.645	56.99
805.955	57.43
806.265	58.22
806.575	58.34
806.885	57.82
807.195	56.83
807.505	56.61
807.815	56.34
808.125	56.04
808.435	56.22
808.745	56.86
809.055	57.49
809.365	57.24
809.674	57.24
809.984	57.72
810.294	57.5
810.603	57.15
810.913	57.14
811.222	56.55
811.532	56.95
811.841	56.96
812.151	56.62
812.46	55.91
812.769	55.57
813.079	55.48
813.388	55.55
813.697	55.28
814.006	55.03
814.315	55.46
814.624	56.1
814.933	56.41
815.242	56.35
815.551	55.95
815.86	56.44
816.169	56.06
816.478	55.47
816.786	54.98
817.095	55.55
817.404	55.85
817.712	55.45
818.021	55.47
818.33	55.33
818.638	56.15
818.947	56.76
819.255	56.55
819.563	56.67
819.872	57.15
820.18	57.93
820.488	58.38
820.796	58.53
821.105	58.39
821.413	58.33
821.721	58.47
822.029	58.86
822.337	58.73
822.645	58.74
822.953	58.97
823.26	59.53
823.568	59.69
823.876	59.53
824.184	59.67
824.491	59.7
824.799	59.88
825.107	59.95
825.414	60.17
825.722	60.27
826.029	60.41
826.337	60.44
826.644	60.22
826.951	60.28
827.259	60.36
827.566	60.49
827.873	60.34
828.18	60.42
828.488	60.06
828.795	59.99
829.102	60.15
829.409	60.03
829.716	59.56
830.023	59.51
830.329	59.45
830.636	59.49
830.943	59.52
831.25	59.45
831.557	59.34
831.863	58.78
832.17	58.81
832.476	59.23
832.783	59.11
833.089	59.24
833.396	58.71
833.702	58.42
834.009	58.21
834.315	58.57
834.621	57.71
834.928	57.85
835.234	58.21
835.54	58.24
835.846	58.04
836.152	57.43
836.458	56.88
836.764	57.36
837.07	57.27
837.376	57.14
837.682	56.33
837.988	56.36
838.293	56.94
838.599	56.86
838.905	56.29
839.211	56.53
839.516	57.08
839.822	57.29
840.127	56.84
840.433	57.55
840.738	57.34
841.044	58.89
841.349	58.9
841.654	59.73
841.959	60.25
842.265	60.86
842.57	61.86
842.875	62.89
843.18	62.46
843.485	61.69
843.79	60.71
844.095	61.53
844.4	59.71
844.705	56.93
845.01	57.99
845.315	55.08
845.619	54.95
845.924	52.27
846.229	53.61
846.533	53.89
846.838	52.11
847.142	52.07
847.447	50.85
847.751	51.12
848.056	49.47
848.36	47.14
848.664	47.38
848.969	46.43
849.273	45.19
849.577	47.08
849.881	47.66
850.185	48.85
850.489	49.75
850.794	51.93
851.097	54.42
851.401	52.21
851.705	55.28
852.009	54.37
852.313	54.84
852.617	51.83
852.92	53.16
853.224	53.96
853.528	55.38
853.831	52.99
854.135	52.71
854.438	50.66
854.742	51.15
855.045	50.59
855.349	51.14
855.652	51.9
855.955	52.24
856.259	51.62
856.562	50.39
856.865	48.94
857.168	47.64
857.471	48.05
857.774	49.67
858.077	48.23
858.38	48.1
858.683	50.59
858.986	51.87
859.289	49.47
859.592	51.19
859.894	50.6
860.197	51.86
860.5	49.49
860.802	51.18
861.105	52.23
861.407	51.36
861.71	51.69
862.012	53.58
862.315	49.01
862.617	48.03
862.919	49.77
863.222	47.84
863.524	45.36
863.826	44.86
864.128	45.72
864.43	47.68
864.732	49.04
865.034	47.23
865.336	47.12
865.638	49.27
865.94	47.46
866.242	47.91
866.544	51.2
866.846	54.66
867.147	53.43
867.449	54.52
867.751	56.35
868.052	55.44
868.354	53.04
868.655	55.45
868.957	58.84
869.258	57.8
869.56	60.98
869.861	64.36
870.162	62.26
870.463	60.69
870.765	61.93
871.066	61.53
871.367	61.12
871.668	61.73
871.969	60.62
872.27	60.71
872.571	61.08
872.872	56.42
873.173	57.54
873.473	57.07
873.774	57.99
874.075	59.02
874.376	57.18
874.676	59.31
874.977	60.72
875.277	57.43
875.578	58.12
875.878	58.68
876.179	58.11
876.479	60.61
876.78	61.22
877.08	59.47
877.38	59.33
877.68	62.36
877.981	62.54
878.281	62.43
878.581	64.11
