Data from BA35141_Reflection_00002.txt Node
Date: Tue Nov 19 11:54:31 EST 2019
User: vgr7
Spectrometer: USB2G7710
Scans to average: 3
Trigger mode: 4
Integration Time (sec): 2.000000E-2
Electric dark correction enabled: true
Boxcar width: 10
XAxis mode: Wavelengths
Number of Pixels in Spectrum: 2048
>>>>>Begin Spectral Data<<<<<
177.721	186.08
178.105	-1733.33
178.488	-80.88
178.871	-56.14
179.254	-2.9
179.636	13.63
180.019	-103.93
180.402	300
180.785	-12.61
181.168	109.01
181.55	197.36
181.933	136.78
182.316	129.02
182.698	103.37
183.081	84.09
183.463	144.53
183.846	109.8
184.228	37.63
184.611	-14.66
184.993	-25.4
185.376	-23.5
185.758	26.43
186.14	89.86
186.522	96.12
186.904	12.12
187.287	7.41
187.669	186.67
188.051	41.44
188.433	-28.35
188.815	-38.34
189.197	-435.09
189.579	441.27
189.961	348.63
190.342	136.87
190.724	23.17
191.106	-116.05
191.488	37.28
191.869	45.22
192.251	33.81
192.633	-5.88
193.014	11.2
193.396	-28.17
193.777	-22.58
194.159	4.08
194.54	27.58
194.922	18.69
195.303	40.12
195.684	21.02
196.065	12.27
196.447	14.09
196.828	14.64
197.209	24.8
197.59	31.03
197.971	15.66
198.352	25.32
198.733	44.44
199.114	31.97
199.495	33.7
199.876	32.91
200.257	11.37
200.638	2.23
201.018	-10.72
201.399	27.02
201.78	21.01
202.16	-21.1
202.541	-39.53
202.922	-40.91
203.302	-104.32
203.683	-89.43
204.063	-205.13
204.444	-114.78
204.824	-62.63
205.204	-31.66
205.585	-49.24
205.965	-66.67
206.345	-28.91
206.725	1.86
207.106	10.45
207.486	29.84
207.866	32.23
208.246	53.17
208.626	64.89
209.006	78.82
209.386	74.54
209.766	55.69
210.145	67.82
210.525	64.84
210.905	97.48
211.285	71.89
211.664	58.25
212.044	44.23
212.424	52.42
212.803	36.39
213.183	48.75
213.562	50.9
213.942	72.64
214.321	60.01
214.701	8.31
215.08	30.24
215.459	16.91
215.838	-5.96
216.218	-44.04
216.597	-16.61
216.976	-41.29
217.355	-12.49
217.734	-28.16
218.113	-24.23
218.492	-9.46
218.871	-7.02
219.25	-4.04
219.629	-6.13
220.008	-1
220.387	-6.01
220.766	8.46
221.144	-1.02
221.523	-3.46
221.902	-2.24
222.28	22.82
222.659	61.08
223.037	45.69
223.416	27.37
223.794	20.4
224.173	11.67
224.551	16.9
224.929	19.37
225.308	5.51
225.686	10.83
226.064	8.87
226.442	8.36
226.821	2.28
227.199	0.49
227.577	6.77
227.955	8.44
228.333	3.64
228.711	2.1
229.089	1.31
229.467	1.55
229.845	0.1
230.222	2.09
230.6	1.54
230.978	2.05
231.356	0.6
231.733	3.9
232.111	6.52
232.488	5.5
232.866	6.19
233.243	9.02
233.621	8.39
233.998	5.6
234.376	5.94
234.753	4.56
235.13	4.97
235.508	2.91
235.885	3.47
236.262	5.25
236.639	5.81
237.016	5.17
237.393	6.33
237.77	6.29
238.147	4.35
238.524	3.5
238.901	3.59
239.278	4.14
239.655	4.46
240.032	2.89
240.409	2.07
240.785	2.46
241.162	2.07
241.539	2.35
241.915	2.72
242.292	2.89
242.668	3.41
243.045	3.42
243.421	3.84
243.798	3.84
244.174	3.48
244.551	3.51
244.927	3.67
245.303	3.47
245.679	3.43
246.056	3.53
246.432	3.42
246.808	3.49
247.184	3.67
247.56	3.44
247.936	3.99
248.312	4.26
248.688	4.15
249.064	4.15
249.44	4.09
249.815	4.26
250.191	4.17
250.567	4.24
250.943	4.26
251.318	3.93
251.694	3.81
252.069	3.86
252.445	3.68
252.82	3.48
253.196	3.56
253.571	3.53
253.947	3.49
254.322	3.61
254.697	3.67
255.073	3.41
255.448	3.25
255.823	2.93
256.198	3.17
256.573	3.21
256.948	3.28
257.323	3.5
257.698	3.69
258.073	3.58
258.448	3.79
258.823	3.72
259.198	3.71
259.573	3.73
259.948	3.98
260.322	4.05
260.697	4.15
261.072	4.21
261.446	4.2
261.821	4.04
262.195	4
262.57	3.92
262.944	3.92
263.319	4.06
263.693	4.21
264.067	3.99
264.442	4
264.816	4.22
265.19	4.08
265.564	3.88
265.938	4.08
266.313	3.71
266.687	3.63
267.061	3.78
267.435	3.79
267.809	3.42
268.183	3.31
268.556	3.29
268.93	3.34
269.304	3.41
269.678	3.55
270.051	3.85
270.425	3.88
270.799	3.94
271.172	3.9
271.546	3.76
271.919	3.79
272.293	3.77
272.666	3.71
273.04	3.77
273.413	3.88
273.787	3.71
274.16	3.73
274.533	3.97
274.906	3.96
275.279	3.85
275.653	3.93
276.026	4.17
276.399	4.09
276.772	3.82
277.145	3.82
277.518	3.68
277.891	3.53
278.263	3.72
278.636	3.8
279.009	3.84
279.382	4.02
279.755	4.2
280.127	4.08
280.5	4.03
280.872	3.89
281.245	3.9
281.617	4.1
281.99	4.12
282.362	3.97
282.735	4.03
283.107	4.02
283.479	4.19
283.852	4.09
284.224	4.26
284.596	4.27
284.968	4.05
285.34	4.16
285.713	4.09
286.085	3.85
286.457	3.69
286.829	3.7
287.201	3.56
287.572	3.54
287.944	3.71
288.316	3.64
288.688	3.77
289.06	3.74
289.431	3.74
289.803	3.74
290.175	3.83
290.546	3.6
290.918	3.71
291.289	3.51
291.661	3.55
292.032	3.53
292.403	3.75
292.775	3.85
293.146	3.93
293.517	3.89
293.889	3.94
294.26	3.97
294.631	3.92
295.002	4.02
295.373	3.93
295.744	3.77
296.115	3.75
296.486	3.77
296.857	3.88
297.228	3.77
297.599	3.67
297.97	3.71
298.34	3.81
298.711	3.81
299.082	3.88
299.452	3.68
299.823	3.48
300.194	3.48
300.564	3.47
300.935	3.54
301.305	3.6
301.676	3.62
302.046	3.6
302.416	3.62
302.787	3.59
303.157	3.51
303.527	3.76
303.897	3.79
304.267	3.7
304.637	3.55
305.008	3.67
305.378	3.78
305.748	3.51
306.117	3.65
306.487	3.69
306.857	3.76
307.227	4.11
307.597	4.28
307.967	4.01
308.336	3.98
308.706	3.84
309.076	3.96
309.445	4.05
309.815	4.12
310.184	4.04
310.554	3.99
310.923	3.85
311.293	3.76
311.662	3.69
312.031	3.64
312.401	3.65
312.77	3.49
313.139	3.54
313.508	3.71
313.877	3.61
314.246	3.54
314.616	3.6
314.985	3.37
315.353	3.38
315.722	3.68
316.091	3.86
316.46	3.86
316.829	3.75
317.198	3.67
317.567	3.96
317.935	3.97
318.304	4.15
318.672	4.49
319.041	4.56
319.41	4.56
319.778	4.85
320.147	4.8
320.515	5.01
320.883	4.87
321.252	4.85
321.62	4.91
321.988	4.88
322.357	4.77
322.725	4.98
323.093	4.94
323.461	4.86
323.829	4.77
324.197	4.75
324.565	4.72
324.933	4.69
325.301	4.37
325.669	4.44
326.037	4.39
326.405	4.35
326.772	4.47
327.14	4.57
327.508	4.3
327.875	4.32
328.243	4.23
328.61	4.34
328.978	4.35
329.346	4.16
329.713	4.21
330.08	4.22
330.448	4.21
330.815	4.24
331.182	4.23
331.55	4.12
331.917	4.12
332.284	4.02
332.651	4.02
333.018	3.99
333.385	3.97
333.752	3.9
334.119	3.91
334.486	3.74
334.853	3.76
335.22	3.79
335.587	3.65
335.954	3.66
336.32	3.5
336.687	3.49
337.054	3.68
337.42	3.72
337.787	3.61
338.153	3.47
338.52	3.47
338.886	3.32
339.253	3.42
339.619	3.46
339.986	3.47
340.352	3.42
340.718	3.55
341.084	3.59
341.451	3.66
341.817	3.66
342.183	3.66
342.549	3.65
342.915	3.75
343.281	3.88
343.647	3.97
344.013	4.11
344.379	4.05
344.745	4.09
345.11	3.97
345.476	4.12
345.842	4.14
346.208	4.17
346.573	4.24
346.939	4.23
347.304	4.24
347.67	4.26
348.035	4.28
348.401	4.3
348.766	4.31
349.132	4.35
349.497	4.32
349.862	4.35
350.228	4.34
350.593	4.29
350.958	4.33
351.323	4.14
351.688	4.15
352.053	4.08
352.418	4.03
352.783	4.07
353.148	4.05
353.513	4.11
353.878	4
354.243	3.97
354.608	4.04
354.972	3.93
355.337	4.01
355.702	4
356.066	3.94
356.431	3.91
356.795	3.89
357.16	3.85
357.524	3.86
357.889	3.92
358.253	3.94
358.618	3.96
358.982	4.09
359.346	4.15
359.71	4.26
360.075	4.24
360.439	4.24
360.803	4.27
361.167	4.17
361.531	4.17
361.895	4.21
362.259	4.26
362.623	4.29
362.987	4.19
363.351	4.17
363.714	4.16
364.078	4.17
364.442	4.14
364.806	4.19
365.169	4.21
365.533	4.21
365.896	4.2
366.26	4.1
366.623	4.12
366.987	4.06
367.35	4.02
367.714	3.99
368.077	4.03
368.44	3.92
368.803	4.01
369.167	4.07
369.53	3.95
369.893	3.85
370.256	3.82
370.619	3.92
370.982	3.94
371.345	3.98
371.708	3.93
372.071	3.92
372.434	3.93
372.797	3.84
373.159	3.76
373.522	3.79
373.885	3.89
374.247	3.87
374.61	3.85
374.973	3.85
375.335	3.93
375.698	3.87
376.06	3.9
376.423	3.92
376.785	3.91
377.147	3.98
377.51	3.93
377.872	3.97
378.234	3.96
378.596	3.98
378.958	4.03
379.321	4.07
379.683	4.08
380.045	4.07
380.407	4.06
380.769	4.09
381.13	4.04
381.492	4
381.854	3.96
382.216	3.98
382.578	3.98
382.939	3.95
383.301	3.96
383.663	3.98
384.024	3.94
384.386	3.93
384.747	3.93
385.109	3.98
385.47	4.04
385.832	4
386.193	4.04
386.554	3.98
386.916	4
387.277	3.96
387.638	3.97
387.999	3.93
388.36	3.94
388.721	3.98
389.082	4.02
389.443	3.98
389.804	3.93
390.165	3.93
390.526	3.91
390.887	3.93
391.248	3.92
391.609	3.92
391.969	3.92
392.33	3.91
392.691	3.89
393.051	3.85
393.412	3.88
393.772	3.87
394.133	3.88
394.493	3.83
394.854	3.84
395.214	3.82
395.574	3.86
395.935	3.86
396.295	3.89
396.655	3.83
397.015	3.87
397.376	3.93
397.736	3.94
398.096	3.94
398.456	3.88
398.816	3.88
399.176	3.88
399.535	3.93
399.895	3.93
400.255	4
400.615	3.98
400.975	3.98
401.334	3.99
401.694	4.01
402.054	4.05
402.413	4.06
402.773	4.1
403.132	4.08
403.492	4.11
403.851	4.08
404.211	4.1
404.57	4.09
404.929	4.08
405.288	4.1
405.648	4.13
406.007	4.18
406.366	4.2
406.725	4.17
407.084	4.13
407.443	4.15
407.802	4.08
408.161	4.12
408.52	4.13
408.879	4.13
409.238	4.15
409.596	4.17
409.955	4.17
410.314	4.17
410.673	4.2
411.031	4.2
411.39	4.18
411.748	4.18
412.107	4.17
412.465	4.15
412.824	4.15
413.182	4.13
413.54	4.16
413.899	4.15
414.257	4.18
414.615	4.19
414.974	4.18
415.332	4.19
415.69	4.19
416.048	4.15
416.406	4.14
416.764	4.09
417.122	4.06
417.48	4.05
417.838	4.03
418.195	4.02
418.553	4.01
418.911	4.01
419.269	4.01
419.626	4.03
419.984	4.03
420.342	4.03
420.699	4.02
421.057	3.99
421.414	3.99
421.772	3.98
422.129	3.96
422.486	3.96
422.844	3.96
423.201	3.94
423.558	3.95
423.915	3.95
424.273	3.97
424.63	3.98
424.987	4
425.344	4.01
425.701	4.02
426.058	4.03
426.415	4.05
426.772	4.04
427.128	4.04
427.485	4.05
427.842	4.06
428.199	4.08
428.555	4.11
428.912	4.11
429.269	4.11
429.625	4.11
429.982	4.11
430.338	4.1
430.695	4.11
431.051	4.12
431.407	4.12
431.764	4.11
432.12	4.11
432.476	4.08
432.832	4.08
433.189	4.09
433.545	4.05
433.901	4.05
434.257	4.07
434.613	4.06
434.969	4.03
435.325	4.02
435.681	4.02
436.036	4.02
436.392	4.01
436.748	4.02
437.104	4.02
437.459	4.02
437.815	4.02
438.171	4.03
438.526	4.03
438.882	4.02
439.237	4.03
439.593	4.03
439.948	4.03
440.304	4.03
440.659	4.04
441.014	4.04
441.369	4.03
441.725	4.02
442.08	4.02
442.435	4.05
442.79	4.05
443.145	4.04
443.5	4.04
443.855	4.05
444.21	4.06
444.565	4.06
444.92	4.08
445.275	4.08
445.629	4.08
445.984	4.08
446.339	4.08
446.693	4.09
447.048	4.07
447.403	4.06
447.757	4.06
448.112	4.04
448.466	4.05
448.82	4.07
449.175	4.06
449.529	4.06
449.883	4.06
450.238	4.04
450.592	4.05
450.946	4.04
451.3	4.04
451.654	4.03
452.008	4.04
452.362	4.01
452.716	4.04
453.07	4.04
453.424	4.02
453.778	4.01
454.132	3.99
454.486	3.99
454.839	4.01
455.193	4.04
455.547	4.04
455.9	4.05
456.254	4.02
456.607	4.03
456.961	4.05
457.314	4.03
457.668	4.06
458.021	4.05
458.375	4.06
458.728	4.04
459.081	4.04
459.434	4.03
459.787	4.07
460.141	4.06
460.494	4.06
460.847	4.08
461.2	4.1
461.553	4.11
461.906	4.11
462.259	4.11
462.611	4.1
462.964	4.11
463.317	4.1
463.67	4.13
464.022	4.13
464.375	4.14
464.728	4.15
465.08	4.15
465.433	4.16
465.785	4.17
466.138	4.21
466.49	4.22
466.843	4.24
467.195	4.23
467.547	4.2
467.899	4.21
468.252	4.22
468.604	4.21
468.956	4.2
469.308	4.19
469.66	4.2
470.012	4.18
470.364	4.17
470.716	4.19
471.068	4.18
471.42	4.18
471.772	4.18
472.123	4.19
472.475	4.18
472.827	4.21
473.178	4.19
473.53	4.18
473.882	4.16
474.233	4.13
474.585	4.14
474.936	4.17
475.288	4.15
475.639	4.16
475.99	4.15
476.342	4.15
476.693	4.18
477.044	4.19
477.395	4.22
477.746	4.21
478.097	4.22
478.448	4.22
478.8	4.22
479.15	4.2
479.501	4.2
479.852	4.17
480.203	4.15
480.554	4.16
480.905	4.17
481.255	4.18
481.606	4.2
481.957	4.18
482.307	4.18
482.658	4.17
483.009	4.17
483.359	4.18
483.709	4.19
484.06	4.19
484.41	4.19
484.761	4.19
485.111	4.19
485.461	4.17
485.811	4.16
486.162	4.16
486.512	4.16
486.862	4.16
487.212	4.18
487.562	4.18
487.912	4.17
488.262	4.17
488.612	4.16
488.961	4.16
489.311	4.16
489.661	4.16
490.011	4.16
490.36	4.17
490.71	4.17
491.06	4.17
491.409	4.18
491.759	4.18
492.108	4.17
492.458	4.18
492.807	4.18
493.157	4.2
493.506	4.21
493.855	4.22
494.204	4.22
494.554	4.22
494.903	4.22
495.252	4.25
495.601	4.26
495.95	4.27
496.299	4.3
496.648	4.31
496.997	4.33
497.346	4.36
497.695	4.38
498.043	4.39
498.392	4.37
498.741	4.35
499.09	4.36
499.438	4.4
499.787	4.39
500.135	4.41
500.484	4.4
500.832	4.41
501.181	4.42
501.529	4.46
501.878	4.46
502.226	4.47
502.574	4.46
502.923	4.46
503.271	4.45
503.619	4.44
503.967	4.42
504.315	4.41
504.663	4.39
505.011	4.37
505.359	4.37
505.707	4.39
506.055	4.4
506.403	4.41
506.751	4.39
507.098	4.39
507.446	4.38
507.794	4.4
508.141	4.39
508.489	4.39
508.837	4.38
509.184	4.39
509.531	4.4
509.879	4.42
510.226	4.41
510.574	4.43
510.921	4.41
511.268	4.44
511.616	4.45
511.963	4.48
512.31	4.5
512.657	4.5
513.004	4.5
513.351	4.48
513.698	4.47
514.045	4.48
514.392	4.5
514.739	4.51
515.086	4.5
515.432	4.54
515.779	4.53
516.126	4.53
516.473	4.54
516.819	4.54
517.166	4.53
517.512	4.52
517.859	4.55
518.205	4.53
518.552	4.55
518.898	4.56
519.245	4.54
519.591	4.54
519.937	4.54
520.283	4.54
520.629	4.57
520.976	4.57
521.322	4.56
521.668	4.54
522.014	4.54
522.36	4.53
522.706	4.5
523.052	4.51
523.398	4.49
523.743	4.47
524.089	4.45
524.435	4.45
524.781	4.47
525.126	4.45
525.472	4.47
525.817	4.43
526.163	4.41
526.509	4.4
526.854	4.41
527.199	4.41
527.545	4.41
527.89	4.4
528.235	4.41
528.581	4.42
528.926	4.42
529.271	4.43
529.616	4.44
529.961	4.44
530.306	4.44
530.651	4.45
530.996	4.46
531.341	4.48
531.686	4.49
532.031	4.49
532.376	4.51
532.721	4.51
533.065	4.54
533.41	4.57
533.755	4.58
534.099	4.57
534.444	4.58
534.788	4.58
535.133	4.61
535.477	4.61
535.822	4.6
536.166	4.61
536.51	4.61
536.855	4.6
537.199	4.61
537.543	4.61
537.887	4.63
538.231	4.63
538.576	4.63
538.92	4.63
539.264	4.63
539.608	4.62
539.951	4.61
540.295	4.6
540.639	4.58
540.983	4.59
541.327	4.61
541.671	4.61
542.014	4.6
542.358	4.59
542.701	4.6
543.045	4.61
543.389	4.61
543.732	4.61
544.075	4.62
544.419	4.61
544.762	4.64
545.105	4.63
545.449	4.62
545.792	4.62
546.135	4.63
546.478	4.64
546.821	4.66
547.165	4.68
547.508	4.69
547.851	4.71
548.194	4.71
548.536	4.71
548.879	4.72
549.222	4.74
549.565	4.78
549.908	4.77
550.25	4.78
550.593	4.81
550.936	4.83
551.278	4.81
551.621	4.83
551.963	4.83
552.306	4.86
552.648	4.87
552.991	4.88
553.333	4.89
553.675	4.9
554.017	4.88
554.36	4.91
554.702	4.92
555.044	4.94
555.386	4.96
555.728	4.98
556.07	4.97
556.412	4.97
556.754	4.94
557.096	4.96
557.438	4.95
557.78	4.94
558.121	4.93
558.463	4.96
558.805	5
559.147	5
559.488	4.94
559.83	4.97
560.171	4.96
560.513	4.91
560.854	4.9
561.196	4.93
561.537	4.89
561.878	4.89
562.22	4.87
562.561	4.85
562.902	4.82
563.243	4.84
563.584	4.85
563.925	4.89
564.266	4.85
564.607	4.85
564.948	4.86
565.289	4.88
565.63	4.89
565.971	4.86
566.312	4.85
566.653	4.86
566.993	4.85
567.334	4.88
567.675	4.91
568.015	4.92
568.356	4.9
568.696	4.93
569.037	4.91
569.377	4.9
569.718	4.93
570.058	4.96
570.398	4.94
570.739	4.92
571.079	4.9
571.419	4.92
571.759	4.91
572.099	4.91
572.439	4.9
572.779	4.93
573.119	4.93
573.459	4.92
573.799	4.91
574.139	4.92
574.479	4.9
574.819	4.92
575.158	4.92
575.498	4.91
575.838	4.85
576.177	4.86
576.517	4.86
576.856	4.85
577.196	4.84
577.535	4.86
577.875	4.89
578.214	4.91
578.553	4.9
578.893	4.92
579.232	4.94
579.571	4.97
579.91	4.91
580.25	4.91
580.589	4.94
580.928	4.96
581.267	4.95
581.606	4.94
581.945	4.92
582.283	4.95
582.622	4.93
582.961	4.98
583.3	4.99
583.639	5
583.977	4.99
584.316	4.99
584.654	4.97
584.993	4.99
585.332	5
585.67	5.02
586.008	5.03
586.347	5.02
586.685	5.01
587.024	5.01
587.362	5.02
587.7	5.04
588.038	5.05
588.376	5.07
588.715	5.1
589.053	5.06
589.391	5.05
589.729	5.1
590.067	5.1
590.404	5.18
590.742	5.19
591.08	5.21
591.418	5.24
591.756	5.26
592.093	5.23
592.431	5.2
592.769	5.16
593.106	5.12
593.444	5.14
593.781	5.15
594.119	5.16
594.456	5.17
594.793	5.12
595.131	5.14
595.468	5.13
595.805	5.13
596.143	5.17
596.48	5.15
596.817	5.14
597.154	5.13
597.491	5.11
597.828	5.11
598.165	5.14
598.502	5.07
598.839	5.01
599.176	5.05
599.512	5.05
599.849	5.08
600.186	5.08
600.523	5.04
600.859	5.04
601.196	5.03
601.532	5.04
601.869	5.07
602.205	5.03
602.542	5.05
602.878	5.04
603.215	5.05
603.551	5.08
603.887	5.06
604.223	5.06
604.56	5.01
604.896	5.06
605.232	5.03
605.568	5.06
605.904	5.08
606.24	5.09
606.576	5.14
606.912	5.11
607.248	5.19
607.583	5.24
607.919	5.25
608.255	5.26
608.591	5.28
608.926	5.28
609.262	5.3
609.597	5.33
609.933	5.31
610.268	5.3
610.604	5.24
610.939	5.28
611.275	5.32
611.61	5.34
611.945	5.31
612.281	5.36
612.616	5.39
612.951	5.44
613.286	5.44
613.621	5.43
613.956	5.47
614.291	5.41
614.626	5.38
614.961	5.4
615.296	5.42
615.631	5.46
615.966	5.46
616.3	5.48
616.635	5.45
616.97	5.43
617.304	5.43
617.639	5.51
617.973	5.49
618.308	5.51
618.642	5.45
618.977	5.44
619.311	5.44
619.646	5.41
619.98	5.38
620.314	5.32
620.648	5.22
620.983	5.2
621.317	5.2
621.651	5.26
621.985	5.22
622.319	5.2
622.653	5.17
622.987	5.17
623.321	5.19
623.655	5.22
623.988	5.26
624.322	5.23
624.656	5.26
624.99	5.27
625.323	5.24
625.657	5.32
625.99	5.36
626.324	5.34
626.657	5.33
626.991	5.34
627.324	5.35
627.658	5.48
627.991	5.56
628.324	5.56
628.657	5.5
628.991	5.49
629.324	5.48
629.657	5.43
629.99	5.4
630.323	5.39
630.656	5.38
630.989	5.42
631.322	5.46
631.655	5.43
631.987	5.41
632.32	5.44
632.653	5.39
632.986	5.34
633.318	5.33
633.651	5.33
633.984	5.32
634.316	5.33
634.649	5.22
634.981	5.18
635.313	5.3
635.646	5.33
635.978	5.38
636.31	5.41
636.643	5.46
636.975	5.52
637.307	5.53
637.639	5.51
637.971	5.44
638.303	5.44
638.635	5.44
638.967	5.48
639.299	5.45
639.631	5.52
639.963	5.56
640.295	5.58
640.626	5.59
640.958	5.56
641.29	5.58
641.621	5.62
641.953	5.62
642.285	5.53
642.616	5.51
642.948	5.47
643.279	5.46
643.61	5.4
643.942	5.42
644.273	5.4
644.604	5.41
644.936	5.42
645.267	5.42
645.598	5.45
645.929	5.43
646.26	5.52
646.591	5.53
646.922	5.48
647.253	5.44
647.584	5.46
647.915	5.52
648.245	5.52
648.576	5.5
648.907	5.47
649.238	5.51
649.568	5.53
649.899	5.56
650.229	5.63
650.56	5.67
650.89	5.67
651.221	5.64
651.551	5.73
651.882	5.77
652.212	5.75
652.542	5.8
652.872	5.81
653.203	5.78
653.533	5.76
653.863	5.75
654.193	5.72
654.523	5.71
654.853	5.77
655.183	5.8
655.513	5.86
655.843	5.92
656.172	5.98
656.502	5.98
656.832	5.99
657.162	5.85
657.491	5.85
657.821	5.84
658.15	5.87
658.48	5.81
658.809	5.82
659.139	5.83
659.468	5.73
659.798	5.76
660.127	5.73
660.456	5.71
660.785	5.81
661.115	5.89
661.444	5.9
661.773	5.84
662.102	5.79
662.431	5.76
662.76	5.71
663.089	5.71
663.418	5.7
663.747	5.75
664.076	5.78
664.404	5.9
664.733	5.97
665.062	6.01
665.39	6.03
665.719	6.03
666.048	6.06
666.376	6.15
666.705	6.1
667.033	6.04
667.362	6.05
667.69	6.04
668.018	6.09
668.347	6.09
668.675	6.12
669.003	6.14
669.331	6.19
669.659	6.24
669.987	6.2
670.315	6.15
670.643	6.05
670.971	6.16
671.299	6.08
671.627	6.11
671.955	6.13
672.283	6.07
672.61	6.01
672.938	6.06
673.266	6.05
673.593	6.05
673.921	6.1
674.249	6.19
674.576	6.14
674.904	6.06
675.231	6.06
675.558	5.97
675.886	5.96
676.213	5.93
676.54	6.01
676.867	5.97
677.195	6.08
677.522	6.15
677.849	6.08
678.176	6.12
678.503	5.96
678.83	5.95
679.157	5.93
679.484	5.96
679.81	5.93
680.137	5.94
680.464	6.01
680.791	6.12
681.117	6.06
681.444	6.11
681.771	6.12
682.097	6.13
682.424	6.21
682.75	6.32
683.077	6.34
683.403	6.19
683.729	6.2
684.056	6.24
684.382	6.22
684.708	6.22
685.034	6.21
685.36	6.3
685.686	6.29
686.012	6.37
686.339	6.35
686.664	6.41
686.99	6.34
687.316	6.23
687.642	6.12
687.968	6.28
688.294	6.27
688.619	6.25
688.945	6.21
689.271	6.14
689.596	5.98
689.922	6.03
690.247	6.12
690.573	6.06
690.898	5.97
691.224	5.93
691.549	6.05
691.874	6.08
692.2	6.06
692.525	6.02
692.85	5.93
693.175	5.92
693.5	5.81
693.825	5.87
694.15	5.9
694.475	5.93
694.8	5.73
695.125	5.69
695.45	5.67
695.775	5.64
696.099	5.78
696.424	5.92
696.749	5.92
697.073	5.83
697.398	5.82
697.723	5.83
698.047	5.85
698.372	5.74
698.696	5.67
699.02	5.66
699.345	5.66
699.669	5.69
699.993	5.77
700.318	5.83
700.642	5.83
700.966	5.91
701.29	5.9
701.614	5.97
701.938	5.92
702.262	5.96
702.586	6.16
702.91	6.09
703.234	6.06
703.557	6.09
703.881	6.24
704.205	6.4
704.529	6.38
704.852	6.44
705.176	6.57
705.499	6.61
705.823	6.63
706.146	6.75
706.47	6.79
706.793	6.73
707.117	6.69
707.44	6.65
707.763	6.59
708.086	6.49
708.409	6.5
708.733	6.54
709.056	6.62
709.379	6.59
709.702	6.49
710.025	6.53
710.348	6.42
710.671	6.5
710.993	6.27
711.316	6.45
711.639	6.41
711.962	6.54
712.284	6.59
712.607	6.52
712.93	6.39
713.252	6.35
713.575	6.43
713.897	6.46
714.22	6.53
714.542	6.57
714.864	6.59
715.187	6.45
715.509	6.48
715.831	6.56
716.153	6.37
716.475	6.49
716.798	6.45
717.12	6.41
717.442	6.18
717.764	6.35
718.085	6.3
718.407	6.36
718.729	6.25
719.051	6.21
719.373	6.26
719.695	6.3
720.016	6.43
720.338	6.42
720.659	6.49
720.981	6.35
721.302	6.46
721.624	6.53
721.945	6.69
722.267	6.82
722.588	6.54
722.909	6.55
723.231	6.5
723.552	6.47
723.873	6.73
724.194	6.77
724.515	6.62
724.836	6.53
725.157	6.43
725.478	6.31
725.799	6.29
726.12	6.38
726.441	6.5
726.762	6.43
727.083	6.35
727.403	6.18
727.724	6.45
728.045	6.22
728.365	6.22
728.686	6.23
729.006	6.12
729.327	6.34
729.647	6.5
729.967	6.59
730.288	6.72
730.608	6.55
730.928	6.81
731.249	7.01
731.569	6.94
731.889	6.98
732.209	7.23
732.529	7.16
732.849	7.19
733.169	7.18
733.489	7.17
733.809	7.17
734.129	7.28
734.448	7.01
734.768	7.09
735.088	7.07
735.408	7.11
735.727	7.12
736.047	7.06
736.366	7.1
736.686	7.06
737.005	7.03
737.325	7.02
737.644	6.74
737.963	6.49
738.283	6.66
738.602	6.74
738.921	6.32
739.24	6.28
739.56	6.2
739.879	6.1
740.198	6.11
740.517	6.15
740.836	6.36
741.155	6.64
741.473	6.81
741.792	6.91
742.111	7
742.43	7.14
742.748	7.21
743.067	7.32
743.386	7.1
743.704	7.01
744.023	7.08
744.341	7.24
744.66	7.48
744.978	7.42
745.297	7.13
745.615	7.27
745.933	7.44
746.252	7.3
746.57	7.46
746.888	7.76
747.206	7.81
747.524	7.62
747.842	7.37
748.16	7.41
748.478	7.49
748.796	7.55
749.114	7.4
749.432	7.41
749.749	7.19
750.067	7.49
750.385	7.59
750.703	7.47
751.02	7.48
751.338	7.39
751.655	7.36
751.973	7.53
752.29	7.68
752.608	7.56
752.925	7.72
753.242	7.8
753.56	7.43
753.877	7.34
754.194	7.35
754.511	7.3
754.828	7.07
755.145	7.13
755.462	6.87
755.779	7.04
756.096	7.05
756.413	7.43
756.73	7.48
757.047	7.32
757.364	7.26
757.68	6.91
757.997	7.04
758.314	7.53
758.63	7.58
758.947	7.7
759.264	7.96
759.58	7.98
759.896	8.15
760.213	8.45
760.529	8.55
760.846	8.28
761.162	8.35
761.478	8.32
761.794	8.38
762.11	8.2
762.426	8.2
762.743	8.25
763.059	8.18
763.375	7.98
763.69	8.09
764.006	8.38
764.322	8.61
764.638	8.66
764.954	8.34
765.27	8.4
765.585	8.28
765.901	8.17
766.216	8.03
766.532	7.68
766.848	7.58
767.163	7.38
767.478	7.53
767.794	7.77
768.109	7.72
768.424	7.45
768.74	7.57
769.055	7.48
769.37	7.09
769.685	6.87
770	6.98
770.315	6.92
770.63	6.81
770.945	6.82
771.26	6.57
771.575	6.38
771.89	6.09
772.205	6.26
772.52	6.59
772.834	6.82
773.149	7.14
773.464	7.04
773.778	7.33
774.093	7.44
774.407	7.3
774.722	7.43
775.036	7.77
775.351	8.04
775.665	7.99
775.979	8.4
776.293	8.38
776.608	8.54
776.922	8.47
777.236	8.47
777.55	8.33
777.864	8.84
778.178	9.28
778.492	9.52
778.806	9.48
779.12	9.22
779.434	9.46
779.747	9.46
780.061	9.64
780.375	9.67
780.689	9.61
781.002	9.47
781.316	9.42
781.629	9.22
781.943	9
782.256	8.63
782.57	8.23
782.883	8.17
783.196	8.06
783.51	8.87
783.823	8.52
784.136	8.15
784.449	7.63
784.762	7.46
785.075	7.56
785.388	7.7
785.701	7.39
786.014	7.19
786.327	7.3
786.64	7.43
786.953	7.41
787.266	7.93
787.578	8.04
787.891	8.14
788.204	7.99
788.516	8.2
788.829	8.62
789.141	9.26
789.454	9.03
789.766	9
790.079	7.93
790.391	8.36
790.703	8.42
791.016	8.83
791.328	9.02
791.64	9.05
791.952	8.79
792.264	8.45
792.576	8.48
792.888	7.97
793.2	7.73
793.512	7.5
793.824	6.92
794.136	6.42
794.448	6.25
794.76	6.51
795.071	6.18
795.383	6.24
795.695	6.06
796.006	6.48
796.318	6.57
796.629	6.82
796.941	6.32
797.252	6.57
797.564	6.55
797.875	5.75
798.186	5.44
798.497	5.16
798.809	5.31
799.12	4.87
799.431	5.03
799.742	4.82
800.053	5.34
800.364	5.74
800.675	5.92
800.986	5.88
801.297	5.81
801.608	6
801.918	5.6
802.229	5.47
802.54	5.36
802.851	5.73
803.161	5.95
803.472	6.53
803.782	7.25
804.093	6.57
804.403	7.27
804.714	7.67
805.024	8.1
805.334	8.52
805.645	9.17
805.955	9.69
806.265	10.2
806.575	9.86
806.885	9.87
807.195	10.39
807.505	10.83
807.815	10.97
808.125	11.17
808.435	11.7
808.745	11.8
809.055	11.97
809.365	11.55
809.674	10.88
809.984	10.84
810.294	10.16
810.603	9.87
810.913	10.14
811.222	10.37
811.532	10.81
811.841	11.34
812.151	10.44
812.46	10
812.769	9.96
813.079	10.31
813.388	9.83
813.697	9.62
814.006	10.01
814.315	9.9
814.624	9.77
814.933	8.89
815.242	8.25
815.551	7.6
815.86	8.03
816.169	8.9
816.478	9.02
816.786	9.24
817.095	10.15
817.404	9.61
817.712	9.44
818.021	8.86
818.33	8.24
818.638	9.17
818.947	9.19
819.255	9.26
819.563	9.04
819.872	9.33
820.18	9.25
820.488	9.14
820.796	9.28
821.105	9.38
821.413	9.48
821.721	9.54
822.029	9.78
822.337	9.59
822.645	9.68
822.953	9.56
823.26	9.49
823.568	9.56
823.876	9.63
824.184	9.4
824.491	9.45
824.799	9.62
825.107	9.44
825.414	9.45
825.722	9.23
826.029	9.21
826.337	9.15
826.644	9.26
826.951	9.23
827.259	9.21
827.566	9.11
827.873	9.12
828.18	9.09
828.488	9.01
828.795	8.8
829.102	8.34
829.409	8.23
829.716	8.39
830.023	8.31
830.329	8.21
830.636	8.41
830.943	8.35
831.25	8.38
831.557	8.57
831.863	8.61
832.17	9.01
832.476	9.27
832.783	9.35
833.089	9.12
833.396	9.45
833.702	9.57
834.009	9.79
834.315	10.64
834.621	11.14
834.928	10.79
835.234	11.62
835.54	12.13
835.846	12.4
836.152	12.5
836.458	11.97
836.764	12.42
837.07	12.56
837.376	12.45
837.682	12.25
837.988	12.52
838.293	13.06
838.599	12.91
838.905	13.5
839.211	13.83
839.516	13.64
839.822	13.39
840.127	12.95
840.433	12.93
840.738	12.17
841.044	11.92
841.349	13.32
841.654	11.99
841.959	11.63
842.265	11.71
842.57	12.16
842.875	12.77
843.18	11.92
843.485	12.44
843.79	12.7
844.095	12.56
844.4	13.42
844.705	12.7
845.01	14
845.315	12.97
845.619	11.87
845.924	13.2
846.229	12.82
846.533	12.48
846.838	11.9
847.142	11.55
847.447	12.42
847.751	10.8
848.056	11.63
848.36	12.43
848.664	12.21
848.969	10.69
849.273	10.52
849.577	10.42
849.881	9.93
850.185	8.22
850.489	9.17
850.794	8.8
851.097	9.63
851.401	8.11
851.705	8.65
852.009	11.36
852.313	10.32
852.617	11.23
852.92	13.24
853.224	13.52
853.528	13.95
853.831	14.02
854.135	14.8
854.438	15.9
854.742	13.95
855.045	14.47
855.349	13.45
855.652	13.91
855.955	14.98
856.259	16.89
856.562	18.64
856.865	18.63
857.168	18.2
857.471	18.2
857.774	16.88
858.077	15.91
858.38	12.92
858.683	14.73
858.986	13.28
859.289	10.41
859.592	11.31
859.894	10.83
860.197	9.64
860.5	10.86
860.802	11.2
861.105	13.72
861.407	12.89
861.71	12.76
862.012	12.37
862.315	12.05
862.617	11.19
862.919	12.03
863.222	10.96
863.524	8.76
863.826	7.93
864.128	9.78
864.43	12.11
864.732	15.32
865.034	13.33
865.336	12.26
865.638	13.66
865.94	14.36
866.242	12.99
866.544	12.54
866.846	12.48
867.147	10.59
867.449	10.38
867.751	11.61
868.052	12.3
868.354	12.51
868.655	12.08
868.957	10.4
869.258	10.77
869.56	12.7
869.861	12.39
870.162	13.46
870.463	13.27
870.765	11.77
871.066	8.49
871.367	8.82
871.668	11.34
871.969	10.21
872.27	9.49
872.571	11.69
872.872	10.55
873.173	8.72
873.473	8.88
873.774	9.16
874.075	5.46
874.376	4.52
874.676	5.46
874.977	4.41
875.277	7.41
875.578	6.15
875.878	4.57
876.179	6.2
876.479	4.07
876.78	3.39
877.08	2.1
877.38	2.95
877.68	3.73
877.981	2.3
878.281	5.23
878.581	4.08
