Data from BA35141_Reflection_00011.txt Node
Date: Tue Nov 19 11:54:49 EST 2019
User: vgr7
Spectrometer: USB2G7710
Scans to average: 3
Trigger mode: 4
Integration Time (sec): 2.000000E-2
Electric dark correction enabled: true
Boxcar width: 10
XAxis mode: Wavelengths
Number of Pixels in Spectrum: 2048
>>>>>Begin Spectral Data<<<<<
177.721	-95.97
178.105	558.33
178.488	77.09
178.871	14.04
179.254	55.07
179.636	7.54
180.019	-62.53
180.402	550
180.785	-9.01
181.168	145.05
181.55	161.06
181.933	77.31
182.316	70.98
182.698	56.14
183.081	60.64
183.463	47.84
183.846	63.46
184.228	107.16
184.611	101.18
184.993	244.44
185.376	151.56
185.758	236.64
186.14	205.8
186.522	429.46
186.904	-430.3
187.287	-378.84
187.669	-1026.67
188.051	672.07
188.433	262.84
188.815	127.23
189.197	582.46
189.579	-241.27
189.961	-165.03
190.342	-158.11
190.724	-64.3
191.106	-609.88
191.488	-224.37
191.869	-110.96
192.251	-53.91
192.633	-37.28
193.014	-10.67
193.396	2.45
193.777	23.05
194.159	18.67
194.54	14.41
194.922	13.54
195.303	16.52
195.684	18.91
196.065	14.52
196.447	13.64
196.828	-3.66
197.209	12.03
197.59	17.74
197.971	6.51
198.352	15.68
198.733	23.18
199.114	25.39
199.495	22.08
199.876	14.09
200.257	18.03
200.638	14.06
201.018	16.86
201.399	5.97
201.78	5.29
202.16	-9.28
202.541	-2.21
202.922	2.5
203.302	32.36
203.683	-8.13
204.063	-25.64
204.444	26.12
204.824	74.75
205.204	49.01
205.585	53.16
205.965	125.07
206.345	31.5
206.725	13.99
207.106	28.94
207.486	15.87
207.866	7.21
208.246	0.23
208.626	-6.8
209.006	-1.12
209.386	-1.34
209.766	-20.39
210.145	-13.16
210.525	-42.92
210.905	-66.67
211.285	-73.79
211.664	-49.82
212.044	-45.39
212.424	-45.79
212.803	-56.01
213.183	-68.1
213.562	-70.25
213.942	-60.27
214.321	-61.55
214.701	-103.7
215.08	-130.56
215.459	-61.86
215.838	-86.14
216.218	-86.27
216.597	-65.45
216.976	-94.35
217.355	-60.24
217.734	-55.67
218.113	-14.5
218.492	-14.8
218.871	2.81
219.25	-8.91
219.629	-16.63
220.008	-22.26
220.387	-12.01
220.766	1.22
221.144	13.64
221.523	5.85
221.902	14.86
222.28	16.82
222.659	44.44
223.037	49.97
223.416	34.88
223.794	35.34
224.173	22.16
224.551	21.16
224.929	22.59
225.308	14.61
225.686	11.34
226.064	1.01
226.442	7.48
226.821	7.06
227.199	9.87
227.577	6.6
227.955	6.75
228.333	2.01
228.711	2.42
229.089	-3.11
229.467	-3
229.845	-4.19
230.222	2.71
230.6	0.39
230.978	-1.33
231.356	-0.79
231.733	1.92
232.111	5.21
232.488	2.81
232.866	4.49
233.243	4.82
233.621	6.09
233.998	6.94
234.376	4.73
234.753	4.92
235.13	5.55
235.508	6.61
235.885	7.43
236.262	8.86
236.639	6.29
237.016	8.47
237.393	7.58
237.77	7.42
238.147	4.71
238.524	4.07
238.901	3.33
239.278	1.83
239.655	1.86
240.032	1.71
240.409	2.7
240.785	2.13
241.162	2.48
241.539	2.53
241.915	2.89
242.292	3.89
242.668	4.16
243.045	4.16
243.421	4.39
243.798	4.17
244.174	4.06
244.551	4.27
244.927	3.45
245.303	3.52
245.679	3.51
246.056	3.7
246.432	3.58
246.808	3.82
247.184	4.11
247.56	3.95
247.936	3.79
248.312	3.87
248.688	4.03
249.064	4.11
249.44	3.95
249.815	3.99
250.191	3.96
250.567	3.83
250.943	3.63
251.318	3.48
251.694	3.24
252.069	3.24
252.445	3.25
252.82	4.07
253.196	3.97
253.571	4.23
253.947	4.08
254.322	4.31
254.697	3.87
255.073	3.88
255.448	3.77
255.823	3.71
256.198	3.45
256.573	3.48
256.948	3.5
257.323	3.49
257.698	3.17
258.073	2.92
258.448	2.87
258.823	3.07
259.198	2.98
259.573	3.04
259.948	2.9
260.322	2.8
260.697	2.68
261.072	2.72
261.446	2.54
261.821	2.38
262.195	2.21
262.57	2.3
262.944	2.31
263.319	2.45
263.693	2.62
264.067	2.76
264.442	2.54
264.816	2.41
265.19	2.4
265.564	2.38
265.938	2.44
266.313	2.54
266.687	2.34
267.061	2.31
267.435	2.5
267.809	2.41
268.183	2.41
268.556	2.46
268.93	2.57
269.304	2.55
269.678	2.84
270.051	2.96
270.425	2.95
270.799	2.62
271.172	2.63
271.546	2.64
271.919	2.55
272.293	2.85
272.666	2.79
273.04	2.84
273.413	3.05
273.787	3.04
274.16	2.97
274.533	3.2
274.906	3.07
275.279	2.92
275.653	2.94
276.026	3.06
276.399	2.86
276.772	2.84
277.145	2.72
277.518	2.52
277.891	2.53
278.263	2.6
278.636	2.89
279.009	2.95
279.382	2.8
279.755	2.75
280.127	2.48
280.5	2.61
280.872	2.68
281.245	2.55
281.617	2.63
281.99	2.51
282.362	2.23
282.735	2.38
283.107	2.48
283.479	2.63
283.852	2.62
284.224	2.68
284.596	2.53
284.968	2.62
285.34	2.7
285.713	2.79
286.085	2.67
286.457	2.65
286.829	2.61
287.201	2.74
287.572	2.76
287.944	2.93
288.316	2.99
288.688	2.96
289.06	3.03
289.431	2.9
289.803	3.02
290.175	3.12
290.546	3.19
290.918	3.28
291.289	3.15
291.661	3.2
292.032	3.3
292.403	3.47
292.775	3.37
293.146	3.41
293.517	3.29
293.889	3.39
294.26	3.3
294.631	3.34
295.002	3.25
295.373	3.3
295.744	3.24
296.115	3.19
296.486	3.14
296.857	3.21
297.228	3.18
297.599	3.09
297.97	3.1
298.34	3.08
298.711	3.09
299.082	3.11
299.452	3.06
299.823	3.06
300.194	3.06
300.564	3.18
300.935	3.32
301.305	3.4
301.676	3.38
302.046	3.43
302.416	3.47
302.787	3.41
303.157	3.33
303.527	3.38
303.897	3.39
304.267	3.45
304.637	3.33
305.008	3.49
305.378	3.63
305.748	3.69
306.117	3.67
306.487	3.6
306.857	3.78
307.227	3.96
307.597	4.03
307.967	4.12
308.336	4.17
308.706	4.18
309.076	4.27
309.445	4.43
309.815	4.6
310.184	4.48
310.554	4.61
310.923	4.65
311.293	4.75
311.662	4.7
312.031	4.76
312.401	4.88
312.77	4.81
313.139	4.81
313.508	4.81
313.877	4.77
314.246	4.84
314.616	4.93
314.985	4.96
315.353	4.93
315.722	4.94
316.091	5.02
316.46	5.17
316.829	5.22
317.198	5.29
317.567	5.34
317.935	5.52
318.304	5.82
318.672	5.91
319.041	5.9
319.41	6.05
319.778	6.13
320.147	6.18
320.515	6.32
320.883	6.63
321.252	6.77
321.62	7.06
321.988	7.12
322.357	6.98
322.725	6.84
323.093	6.79
323.461	6.81
323.829	6.85
324.197	6.64
324.565	6.54
324.933	6.41
325.301	6.15
325.669	6.23
326.037	6.09
326.405	6.28
326.772	6.22
327.14	6.15
327.508	5.96
327.875	6.04
328.243	6.08
328.61	5.91
328.978	6.03
329.346	6.06
329.713	6.03
330.08	6.26
330.448	6.36
330.815	6.45
331.182	6.38
331.55	6.38
331.917	6.45
332.284	6.53
332.651	6.71
333.018	6.81
333.385	6.82
333.752	6.9
334.119	6.75
334.486	6.98
334.853	7
335.22	7.19
335.587	7.07
335.954	7.02
336.32	7.07
336.687	7.12
337.054	6.97
337.42	7.01
337.787	6.85
338.153	6.81
338.52	6.94
338.886	6.95
339.253	6.83
339.619	6.91
339.986	6.86
340.352	6.92
340.718	7.13
341.084	7.07
341.451	7.02
341.817	7.09
342.183	7.02
342.549	6.99
342.915	7.05
343.281	7.07
343.647	7.08
344.013	7.02
344.379	6.88
344.745	7.05
345.11	7.17
345.476	7.41
345.842	7.45
346.208	7.33
346.573	7.41
346.939	7.5
347.304	7.48
347.67	7.52
348.035	7.4
348.401	7.26
348.766	7.38
349.132	7.54
349.497	7.57
349.862	7.56
350.228	7.64
350.593	7.62
350.958	7.71
351.323	7.69
351.688	7.77
352.053	7.79
352.418	7.68
352.783	7.6
353.148	7.43
353.513	7.42
353.878	7.48
354.243	7.43
354.608	7.52
354.972	7.48
355.337	7.62
355.702	7.79
356.066	7.71
356.431	7.61
356.795	7.49
357.16	7.43
357.524	7.4
357.889	7.42
358.253	7.43
358.618	7.31
358.982	7.4
359.346	7.4
359.71	7.49
360.075	7.5
360.439	7.51
360.803	7.47
361.167	7.45
361.531	7.44
361.895	7.5
362.259	7.48
362.623	7.56
362.987	7.54
363.351	7.39
363.714	7.47
364.078	7.5
364.442	7.54
364.806	7.54
365.169	7.57
365.533	7.54
365.896	7.56
366.26	7.61
366.623	7.57
366.987	7.56
367.35	7.49
367.714	7.47
368.077	7.39
368.44	7.39
368.803	7.3
369.167	7.25
369.53	7.17
369.893	7.16
370.256	6.93
370.619	6.89
370.982	6.75
371.345	6.68
371.708	6.65
372.071	6.47
372.434	6.38
372.797	6.36
373.159	6.3
373.522	6.21
373.885	6.24
374.247	6.22
374.61	6.14
374.973	6.07
375.335	6.05
375.698	6.03
376.06	6
376.423	5.99
376.785	5.98
377.147	5.9
377.51	5.8
377.872	5.84
378.234	5.81
378.596	5.9
378.958	5.93
379.321	5.88
379.683	5.96
380.045	6
380.407	5.9
380.769	5.92
381.13	5.89
381.492	5.8
381.854	5.8
382.216	5.76
382.578	5.72
382.939	5.66
383.301	5.59
383.663	5.57
384.024	5.62
384.386	5.54
384.747	5.54
385.109	5.53
385.47	5.46
385.832	5.44
386.193	5.37
386.554	5.28
386.916	5.25
387.277	5.19
387.638	5.14
387.999	5.16
388.36	5.08
388.721	5.05
389.082	5.07
389.443	4.95
389.804	4.94
390.165	4.96
390.526	4.9
390.887	4.86
391.248	4.86
391.609	4.79
391.969	4.79
392.33	4.75
392.691	4.72
393.051	4.69
393.412	4.61
393.772	4.6
394.133	4.59
394.493	4.51
394.854	4.48
395.214	4.48
395.574	4.43
395.935	4.43
396.295	4.42
396.655	4.36
397.015	4.37
397.376	4.34
397.736	4.27
398.096	4.26
398.456	4.24
398.816	4.18
399.176	4.15
399.535	4.1
399.895	4.07
400.255	4.06
400.615	4.07
400.975	4.02
401.334	3.98
401.694	3.99
402.054	4.03
402.413	3.98
402.773	3.96
403.132	3.97
403.492	3.95
403.851	3.9
404.211	3.87
404.57	3.85
404.929	3.81
405.288	3.79
405.648	3.78
406.007	3.77
406.366	3.76
406.725	3.77
407.084	3.79
407.443	3.79
407.802	3.78
408.161	3.79
408.52	3.81
408.879	3.8
409.238	3.78
409.596	3.74
409.955	3.72
410.314	3.71
410.673	3.64
411.031	3.64
411.39	3.66
411.748	3.67
412.107	3.64
412.465	3.63
412.824	3.6
413.182	3.57
413.54	3.56
413.899	3.53
414.257	3.51
414.615	3.48
414.974	3.45
415.332	3.43
415.69	3.39
416.048	3.39
416.406	3.33
416.764	3.29
417.122	3.28
417.48	3.28
417.838	3.26
418.195	3.25
418.553	3.22
418.911	3.2
419.269	3.17
419.626	3.15
419.984	3.14
420.342	3.13
420.699	3.12
421.057	3.11
421.414	3.11
421.772	3.11
422.129	3.09
422.486	3.08
422.844	3.08
423.201	3.06
423.558	3.05
423.915	3.07
424.273	3.05
424.63	3.06
424.987	3.05
425.344	3.05
425.701	3.05
426.058	3.05
426.415	3.05
426.772	3.05
427.128	3.06
427.485	3.06
427.842	3.06
428.199	3.04
428.555	3.03
428.912	3
429.269	2.99
429.625	2.97
429.982	2.97
430.338	2.95
430.695	2.98
431.051	2.98
431.407	3
431.764	3
432.12	2.98
432.476	2.98
432.832	2.96
433.189	2.97
433.545	2.97
433.901	2.96
434.257	2.95
434.613	2.93
434.969	2.93
435.325	2.95
435.681	2.96
436.036	2.97
436.392	2.98
436.748	2.98
437.104	3
437.459	3
437.815	2.99
438.171	2.99
438.526	2.98
438.882	2.97
439.237	2.99
439.593	2.97
439.948	2.97
440.304	2.97
440.659	2.95
441.014	2.95
441.369	2.94
441.725	2.95
442.08	2.94
442.435	2.94
442.79	2.93
443.145	2.93
443.5	2.92
443.855	2.92
444.21	2.91
444.565	2.9
444.92	2.9
445.275	2.9
445.629	2.88
445.984	2.87
446.339	2.87
446.693	2.85
447.048	2.83
447.403	2.83
447.757	2.8
448.112	2.79
448.466	2.79
448.82	2.77
449.175	2.77
449.529	2.79
449.883	2.78
450.238	2.76
450.592	2.75
450.946	2.73
451.3	2.74
451.654	2.72
452.008	2.72
452.362	2.71
452.716	2.7
453.07	2.69
453.424	2.67
453.778	2.66
454.132	2.64
454.486	2.67
454.839	2.68
455.193	2.7
455.547	2.72
455.9	2.73
456.254	2.74
456.607	2.73
456.961	2.72
457.314	2.71
457.668	2.73
458.021	2.74
458.375	2.74
458.728	2.74
459.081	2.75
459.434	2.76
459.787	2.75
460.141	2.76
460.494	2.77
460.847	2.79
461.2	2.8
461.553	2.81
461.906	2.82
462.259	2.82
462.611	2.83
462.964	2.82
463.317	2.8
463.67	2.81
464.022	2.84
464.375	2.84
464.728	2.84
465.08	2.84
465.433	2.86
465.785	2.87
466.138	2.89
466.49	2.91
466.843	2.92
467.195	2.95
467.547	2.97
467.899	2.98
468.252	3
468.604	3
468.956	3.01
469.308	3.02
469.66	3.03
470.012	3.03
470.364	3.05
470.716	3.09
471.068	3.09
471.42	3.13
471.772	3.17
472.123	3.2
472.475	3.22
472.827	3.21
473.178	3.19
473.53	3.2
473.882	3.2
474.233	3.2
474.585	3.18
474.936	3.18
475.288	3.18
475.639	3.18
475.99	3.19
476.342	3.19
476.693	3.19
477.044	3.18
477.395	3.17
477.746	3.16
478.097	3.15
478.448	3.13
478.8	3.1
479.15	3.07
479.501	3.06
479.852	3.03
480.203	3.02
480.554	3.02
480.905	3.02
481.255	3.02
481.606	3.02
481.957	3.02
482.307	3
482.658	2.99
483.009	2.99
483.359	3
483.709	3
484.06	3
484.41	3
484.761	3.02
485.111	3.02
485.461	3.02
485.811	3.03
486.162	3.03
486.512	3.04
486.862	3.05
487.212	3.06
487.562	3.07
487.912	3.08
488.262	3.08
488.612	3.08
488.961	3.09
489.311	3.09
489.661	3.11
490.011	3.13
490.36	3.13
490.71	3.14
491.06	3.15
491.409	3.16
491.759	3.16
492.108	3.17
492.458	3.18
492.807	3.19
493.157	3.2
493.506	3.21
493.855	3.21
494.204	3.22
494.554	3.26
494.903	3.28
495.252	3.31
495.601	3.33
495.95	3.36
496.299	3.38
496.648	3.41
496.997	3.44
497.346	3.46
497.695	3.49
498.043	3.53
498.392	3.53
498.741	3.57
499.09	3.63
499.438	3.67
499.787	3.7
500.135	3.77
500.484	3.82
500.832	3.89
501.181	3.95
501.529	4
501.878	4.02
502.226	4.06
502.574	4.1
502.923	4.15
503.271	4.17
503.619	4.23
503.967	4.25
504.315	4.3
504.663	4.34
505.011	4.38
505.359	4.43
505.707	4.5
506.055	4.54
506.403	4.57
506.751	4.63
507.098	4.68
507.446	4.7
507.794	4.75
508.141	4.79
508.489	4.83
508.837	4.89
509.184	4.95
509.531	5
509.879	5.06
510.226	5.12
510.574	5.19
510.921	5.26
511.268	5.36
511.616	5.43
511.963	5.5
512.31	5.57
512.657	5.65
513.004	5.72
513.351	5.79
513.698	5.88
514.045	5.96
514.392	6.04
514.739	6.15
515.086	6.25
515.432	6.36
515.779	6.46
516.126	6.55
516.473	6.64
516.819	6.72
517.166	6.81
517.512	6.89
517.859	6.98
518.205	7.04
518.552	7.12
518.898	7.2
519.245	7.3
519.591	7.42
519.937	7.5
520.283	7.62
520.629	7.73
520.976	7.83
521.322	7.95
521.668	8.08
522.014	8.21
522.36	8.31
522.706	8.42
523.052	8.57
523.398	8.72
523.743	8.89
524.089	9.08
524.435	9.24
524.781	9.42
525.126	9.58
525.472	9.75
525.817	9.9
526.163	10.05
526.509	10.17
526.854	10.25
527.199	10.37
527.545	10.48
527.89	10.6
528.235	10.74
528.581	10.85
528.926	10.97
529.271	11.08
529.616	11.22
529.961	11.35
530.306	11.5
530.651	11.65
530.996	11.8
531.341	11.95
531.686	12.12
532.031	12.29
532.376	12.46
532.721	12.63
533.065	12.82
533.41	12.99
533.755	13.19
534.099	13.42
534.444	13.64
534.788	13.83
535.133	14.01
535.477	14.21
535.822	14.43
536.166	14.67
536.51	14.92
536.855	15.19
537.199	15.49
537.543	15.76
537.887	16.06
538.231	16.32
538.576	16.62
538.92	16.89
539.264	17.17
539.608	17.43
539.951	17.69
540.295	17.91
540.639	18.16
540.983	18.38
541.327	18.6
541.671	18.8
542.014	19.03
542.358	19.28
542.701	19.48
543.045	19.69
543.389	19.91
543.732	20.11
544.075	20.36
544.419	20.6
544.762	20.83
545.105	21.07
545.449	21.34
545.792	21.6
546.135	21.89
546.478	22.14
546.821	22.45
547.165	22.73
547.508	23.01
547.851	23.31
548.194	23.62
548.536	23.94
548.879	24.28
549.222	24.54
549.565	24.87
549.908	25.16
550.25	25.49
550.593	25.8
550.936	26.17
551.278	26.44
551.621	26.73
551.963	27.05
552.306	27.36
552.648	27.7
552.991	28
553.333	28.3
553.675	28.63
554.017	28.87
554.36	29.14
554.702	29.44
555.044	29.7
555.386	29.98
555.728	30.24
556.07	30.5
556.412	30.82
556.754	31.02
557.096	31.3
557.438	31.61
557.78	31.92
558.121	32.2
558.463	32.45
558.805	32.7
559.147	32.93
559.488	33.21
559.83	33.43
560.171	33.71
560.513	34.03
560.854	34.34
561.196	34.63
561.537	34.92
561.878	35.18
562.22	35.4
562.561	35.65
562.902	35.85
563.243	36.07
563.584	36.36
563.925	36.64
564.266	36.91
564.607	37.12
564.948	37.31
565.289	37.56
565.63	37.79
565.971	38.01
566.312	38.18
566.653	38.33
566.993	38.55
567.334	38.74
567.675	38.87
568.015	38.99
568.356	39.15
568.696	39.34
569.037	39.5
569.377	39.71
569.718	39.92
570.058	40.1
570.398	40.31
570.739	40.46
571.079	40.59
571.419	40.77
571.759	40.94
572.099	41.06
572.439	41.15
572.779	41.34
573.119	41.46
573.459	41.6
573.799	41.71
574.139	41.83
574.479	41.97
574.819	42.09
575.158	42.21
575.498	42.39
575.838	42.49
576.177	42.67
576.517	42.8
576.856	42.89
577.196	43.04
577.535	43.11
577.875	43.22
578.214	43.37
578.553	43.52
578.893	43.62
579.232	43.78
579.571	43.95
579.91	44.11
580.25	44.29
580.589	44.48
580.928	44.7
581.267	44.77
581.606	44.93
581.945	45.16
582.283	45.34
582.622	45.44
582.961	45.65
583.3	45.65
583.639	45.74
583.977	45.86
584.316	45.88
584.654	46.06
584.993	46.2
585.332	46.36
585.67	46.38
586.008	46.49
586.347	46.64
586.685	46.73
587.024	46.73
587.362	46.8
587.7	46.92
588.038	46.93
588.376	47.09
588.715	47.07
589.053	47.09
589.391	47.11
589.729	47.22
590.067	47.27
590.404	47.42
590.742	47.54
591.08	47.63
591.418	47.82
591.756	47.86
592.093	47.87
592.431	47.84
592.769	47.89
593.106	47.95
593.444	47.99
593.781	48.08
594.119	48.15
594.456	48.21
594.793	48.21
595.131	48.35
595.468	48.35
595.805	48.46
596.143	48.51
596.48	48.61
596.817	48.64
597.154	48.71
597.491	48.75
597.828	48.81
598.165	48.87
598.502	48.85
598.839	48.95
599.176	49.05
599.512	49.13
599.849	49.21
600.186	49.22
600.523	49.34
600.859	49.37
601.196	49.49
601.532	49.54
601.869	49.65
602.205	49.66
602.542	49.74
602.878	49.81
603.215	49.82
603.551	49.82
603.887	49.91
604.223	49.89
604.56	49.93
604.896	50
605.232	50.08
605.568	50.17
605.904	50.21
606.24	50.22
606.576	50.3
606.912	50.38
607.248	50.44
607.583	50.44
607.919	50.53
608.255	50.51
608.591	50.55
608.926	50.57
609.262	50.67
609.597	50.71
609.933	50.72
610.268	50.74
610.604	50.78
610.939	50.81
611.275	50.84
611.61	50.85
611.945	50.9
612.281	50.87
612.616	50.85
612.951	50.92
613.286	50.95
613.621	51.03
613.956	51.02
614.291	51.07
614.626	51.15
614.961	51.18
615.296	51.22
615.631	51.3
615.966	51.34
616.3	51.36
616.635	51.42
616.97	51.48
617.304	51.57
617.639	51.6
617.973	51.56
618.308	51.63
618.642	51.64
618.977	51.61
619.311	51.64
619.646	51.75
619.98	51.66
620.314	51.67
620.648	51.56
620.983	51.63
621.317	51.72
621.651	51.63
621.985	51.68
622.319	51.7
622.653	51.74
622.987	51.7
623.321	51.7
623.655	51.74
623.988	51.76
624.322	51.79
624.656	51.87
624.99	51.95
625.323	52
625.657	52.11
625.99	52.14
626.324	52.24
626.657	52.2
626.991	52.33
627.324	52.33
627.658	52.38
627.991	52.47
628.324	52.36
628.657	52.41
628.991	52.36
629.324	52.35
629.657	52.3
629.99	52.41
630.323	52.45
630.656	52.44
630.989	52.48
631.322	52.48
631.655	52.5
631.987	52.44
632.32	52.45
632.653	52.44
632.986	52.4
633.318	52.34
633.651	52.38
633.984	52.37
634.316	52.49
634.649	52.63
634.981	52.64
635.313	52.84
635.646	52.95
635.978	53.02
636.31	53.16
636.643	53.21
636.975	53.12
637.307	53.19
637.639	53.25
637.971	53.24
638.303	53.3
638.635	53.39
638.967	53.4
639.299	53.42
639.631	53.46
639.963	53.59
640.295	53.72
640.626	53.82
640.958	53.92
641.29	53.9
641.621	53.88
641.953	53.89
642.285	53.8
642.616	53.65
642.948	53.65
643.279	53.65
643.61	53.75
643.942	53.87
644.273	53.83
644.604	53.84
644.936	53.91
645.267	53.85
645.598	53.7
645.929	53.81
646.26	53.81
646.591	53.94
646.922	54.02
647.253	54
647.584	53.96
647.915	53.88
648.245	53.88
648.576	53.8
648.907	53.82
649.238	53.95
649.568	53.93
649.899	53.94
650.229	53.96
650.56	53.9
650.89	53.95
651.221	53.86
651.551	53.8
651.882	53.79
652.212	53.86
652.542	53.98
652.872	53.87
653.203	53.89
653.533	53.83
653.863	53.74
654.193	53.69
654.523	53.71
654.853	53.69
655.183	53.61
655.513	53.69
655.843	53.71
656.172	53.64
656.502	53.78
656.832	53.75
657.162	53.75
657.491	53.77
657.821	53.75
658.15	53.82
658.48	53.97
658.809	54.04
659.139	54.02
659.468	53.86
659.798	53.9
660.127	53.85
660.456	53.78
660.785	53.95
661.115	53.91
661.444	53.95
661.773	54.05
662.102	54.31
662.431	54.35
662.76	54.38
663.089	54.45
663.418	54.57
663.747	54.52
664.076	54.39
664.404	54.53
664.733	54.56
665.062	54.62
665.39	54.53
665.719	54.65
666.048	54.59
666.376	54.7
666.705	54.77
667.033	55
667.362	55.08
667.69	54.97
668.018	55.17
668.347	55.18
668.675	55.17
669.003	54.98
669.331	55.02
669.659	54.96
669.987	54.94
670.315	54.7
670.643	54.84
670.971	55.03
671.299	54.95
671.627	55.05
671.955	54.98
672.283	54.91
672.61	54.73
672.938	54.79
673.266	54.83
673.593	54.66
673.921	54.51
674.249	54.55
674.576	54.49
674.904	54.35
675.231	54.39
675.558	54.31
675.886	54.38
676.213	54.32
676.54	54.29
676.867	54.16
677.195	54.3
677.522	54.39
677.849	54.5
678.176	54.42
678.503	54.3
678.83	54.35
679.157	54.32
679.484	54.37
679.81	54.43
680.137	54.49
680.464	54.75
680.791	54.81
681.117	54.77
681.444	54.86
681.771	54.9
682.097	54.86
682.424	54.89
682.75	54.87
683.077	54.96
683.403	54.96
683.729	54.95
684.056	54.86
684.382	54.82
684.708	54.67
685.034	54.69
685.36	54.74
685.686	54.72
686.012	54.87
686.339	54.7
686.664	54.61
686.99	54.53
687.316	54.55
687.642	54.44
687.968	54.27
688.294	54.19
688.619	54.22
688.945	54.26
689.271	54.32
689.596	54.28
689.922	54.23
690.247	54.29
690.573	54.41
690.898	54.53
691.224	54.54
691.549	54.67
691.874	54.8
692.2	54.65
692.525	54.55
692.85	54.4
693.175	54.6
693.5	54.63
693.825	54.79
694.15	54.64
694.475	54.6
694.8	54.82
695.125	54.74
695.45	54.71
695.775	54.63
696.099	54.56
696.424	54.61
696.749	54.66
697.073	54.43
697.398	54.36
697.723	54.39
698.047	54.42
698.372	54.31
698.696	54.18
699.02	54.39
699.345	54.6
699.669	54.68
699.993	54.66
700.318	54.61
700.642	54.54
700.966	54.55
701.29	54.78
701.614	54.82
701.938	55.02
702.262	55.05
702.586	55.09
702.91	55.1
703.234	55.15
703.557	55.12
703.881	55.42
704.205	55.69
704.529	55.49
704.852	55.44
705.176	55.57
705.499	55.51
705.823	55.34
706.146	55.27
706.47	55.21
706.793	55.23
707.117	55.5
707.44	55.39
707.763	55.34
708.086	55.16
708.409	55.02
708.733	54.79
709.056	54.8
709.379	54.72
709.702	54.81
710.025	54.8
710.348	54.69
710.671	54.64
710.993	54.56
711.316	54.81
711.639	54.77
711.962	54.7
712.284	54.93
712.607	55.08
712.93	54.99
713.252	55.07
713.575	54.82
713.897	54.8
714.22	54.88
714.542	54.96
714.864	54.93
715.187	55.04
715.509	55.18
715.831	55.12
716.153	55.08
716.475	55.15
716.798	55.02
717.12	54.99
717.442	55.12
717.764	55.04
718.085	54.83
718.407	54.93
718.729	55.04
719.051	55.12
719.373	55.15
719.695	55.16
720.016	55.4
720.338	55.62
720.659	55.42
720.981	55.23
721.302	55.31
721.624	55.39
721.945	55.54
722.267	55.37
722.588	55.3
722.909	55.61
723.231	55.47
723.552	55.46
723.873	55.79
724.194	55.65
724.515	55.52
724.836	55.61
725.157	55.62
725.478	55.79
725.799	55.47
726.12	55.28
726.441	55.21
726.762	55.09
727.083	55.18
727.403	55.27
727.724	55.39
728.045	55.2
728.365	55.09
728.686	55.02
729.006	55.03
729.327	55.32
729.647	55.01
729.967	54.9
730.288	55.14
730.608	54.91
730.928	55.01
731.249	55.31
731.569	55.45
731.889	55.48
732.209	55.24
732.529	55.37
732.849	55.46
733.169	55.74
733.489	55.5
733.809	55.53
734.129	55.68
734.448	55.87
734.768	55.87
735.088	55.98
735.408	55.79
735.727	55.97
736.047	55.76
736.366	55.97
736.686	56.21
737.005	56.3
737.325	56.36
737.644	56.31
737.963	56.34
738.283	56.29
738.602	56.27
738.921	56.12
739.24	56.32
739.56	56.49
739.879	56.26
740.198	56.58
740.517	56.59
740.836	56.37
741.155	56.19
741.473	56.59
741.792	56.48
742.111	56.42
742.43	56.43
742.748	56.58
743.067	56.77
743.386	56.91
743.704	56.78
744.023	56.88
744.341	56.6
744.66	56.36
744.978	56.71
745.297	56.6
745.615	56.94
745.933	56.79
746.252	56.94
746.57	57.06
746.888	57.02
747.206	57.05
747.524	56.97
747.842	57.13
748.16	56.86
748.478	57.12
748.796	57.29
749.114	57.57
749.432	57.57
749.749	57.06
750.067	56.76
750.385	56.45
750.703	56.32
751.02	56.76
751.338	57.06
751.655	56.71
751.973	56.87
752.29	56.52
752.608	56.24
752.925	55.76
753.242	56.08
753.56	55.95
753.877	55.91
754.194	56.46
754.511	56.48
754.828	56.5
755.145	56.28
755.462	56.1
755.779	55.8
756.096	56
756.413	56.35
756.73	56.3
757.047	56.24
757.364	56.37
757.68	56.4
757.997	56.32
758.314	56.28
758.63	56.19
758.947	56.31
759.264	56.76
759.58	57.02
759.896	56.92
760.213	56.73
760.529	56.89
760.846	56.37
761.162	56.17
761.478	56.23
761.794	56.3
762.11	56.34
762.426	56.22
762.743	56.18
763.059	56.24
763.375	56.36
763.69	56.28
764.006	56.32
764.322	56.23
764.638	56.39
764.954	56.51
765.27	56.67
765.585	56.62
765.901	56.66
766.216	56.32
766.532	56.25
766.848	56.7
767.163	56.31
767.478	56.54
767.794	56.77
768.109	56.77
768.424	56.78
768.74	57.31
769.055	57.55
769.37	57.55
769.685	57.62
770	57.8
770.315	58.22
770.63	57.85
770.945	57.97
771.26	57.61
771.575	57.45
771.89	56.83
772.205	57.21
772.52	57.19
772.834	57.64
773.149	57.62
773.464	56.98
773.778	57.42
774.093	57.54
774.407	57.55
774.722	57.5
775.036	57.73
775.351	57.58
775.665	57.63
775.979	57.44
776.293	57.1
776.608	56.64
776.922	56.46
777.236	56.74
777.55	56.93
777.864	56.77
778.178	56.73
778.492	57.3
778.806	57.18
779.12	57.13
779.434	56.66
779.747	56.98
780.061	57.54
780.375	57.88
780.689	57.49
781.002	57.37
781.316	57.16
781.629	57.29
781.943	56.84
782.256	56.3
782.57	56.44
782.883	56.67
783.196	56.81
783.51	57.16
783.823	57.52
784.136	56.97
784.449	57.15
784.762	57.54
785.075	57.35
785.388	57.15
785.701	57.14
786.014	57.58
786.327	57.04
786.64	57.08
786.953	56.58
787.266	56.53
787.578	56.37
787.891	56.37
788.204	56.29
788.516	56.71
788.829	56.94
789.141	57.57
789.454	57.65
789.766	57.79
790.079	58.05
790.391	57.87
790.703	57.92
791.016	57.69
791.328	57
791.64	56.65
791.952	57.04
792.264	56.49
792.576	56.63
792.888	56.32
793.2	56.04
793.512	56.14
793.824	56.15
794.136	56.62
794.448	56.81
794.76	56.37
795.071	56.47
795.383	56.63
795.695	55.63
796.006	55.28
796.318	55.6
796.629	55.48
796.941	55.51
797.252	55.19
797.564	55.25
797.875	55.35
798.186	55.39
798.497	54.87
798.809	55.25
799.12	54.65
799.431	55.18
799.742	54.68
800.053	54.62
800.364	54.87
800.675	54.84
800.986	54.69
801.297	54.95
801.608	54.09
801.918	54.11
802.229	54.59
802.54	54.54
802.851	54.19
803.161	54.47
803.472	54.37
803.782	54.81
804.093	55.17
804.403	55.34
804.714	55.63
805.024	55.91
805.334	56.21
805.645	56.6
805.955	56.21
806.265	56.82
806.575	57.66
806.885	57.87
807.195	57.1
807.505	57.57
807.815	57.59
808.125	58.28
808.435	58.69
808.745	58.84
809.055	58.96
809.365	59.33
809.674	58.62
809.984	58.01
810.294	58.78
810.603	58.88
810.913	58.46
811.222	58.64
811.532	58.23
811.841	58.31
812.151	58.44
812.46	58.59
812.769	58.46
813.079	57.94
813.388	57
813.697	57.37
814.006	56.64
814.315	56.87
814.624	56.76
814.933	56.26
815.242	55.46
815.551	55.74
815.86	55.75
816.169	56.99
816.478	57.18
816.786	56.41
817.095	56.19
817.404	56.85
817.712	56.3
818.021	57.31
818.33	56.39
818.638	56.62
818.947	56.71
819.255	56.76
819.563	56.27
819.872	57.25
820.18	57.19
820.488	57.49
820.796	57.3
821.105	57.33
821.413	57.44
821.721	57.5
822.029	57.46
822.337	57.52
822.645	57.41
822.953	57.48
823.26	57.68
823.568	57.57
823.876	57.65
824.184	57.61
824.491	57.5
824.799	57.57
825.107	57.59
825.414	57.71
825.722	57.71
826.029	57.78
826.337	57.47
826.644	57.56
826.951	57.39
827.259	57.43
827.566	57.44
827.873	57.32
828.18	57.27
828.488	57.48
828.795	57.12
829.102	56.74
829.409	56.58
829.716	56.49
830.023	56.66
830.329	56.55
830.636	56.72
830.943	56.65
831.25	57.07
831.557	57.22
831.863	57.08
832.17	57.18
832.476	57.44
832.783	57.52
833.089	57.46
833.396	57.47
833.702	57.54
834.009	57.39
834.315	57.44
834.621	57.14
834.928	56.8
835.234	57.01
835.54	57.3
835.846	57.72
836.152	57.28
836.458	57.01
836.764	57.03
837.07	57.45
837.376	57.73
837.682	57.39
837.988	57.53
838.293	57.77
838.599	57.2
838.905	57.49
839.211	57.73
839.516	58.49
839.822	58.91
840.127	57.42
840.433	58.71
840.738	58.22
841.044	59.47
841.349	59.07
841.654	59.62
841.959	60.42
842.265	60.35
842.57	61.14
842.875	61.73
843.18	61.26
843.485	60.24
843.79	60.02
844.095	60
844.4	58.18
844.705	58.46
845.01	61.45
845.315	59.49
845.619	59.99
845.924	58.1
846.229	58.33
846.533	61.77
846.838	58.84
847.142	58.96
847.447	58.96
847.751	59.79
848.056	58.33
848.36	57.32
848.664	57.26
848.969	54.01
849.273	53.31
849.577	53.75
849.881	54.37
850.185	53.31
850.489	53.98
850.794	54.73
851.097	54.57
851.401	53.14
851.705	54.86
852.009	55.13
852.313	54.41
852.617	53.73
852.92	52.37
853.224	52.2
853.528	54.16
853.831	52.18
854.135	51.32
854.438	52.59
854.742	54.32
855.045	54.78
855.349	56.06
855.652	56.59
855.955	56.31
856.259	56.05
856.562	57.45
856.865	56.7
857.168	56.88
857.471	54.82
857.774	51.85
858.077	51.03
858.38	50.71
858.683	53.38
858.986	53.9
859.289	55.88
859.592	57.36
859.894	59.14
860.197	60.23
860.5	62.55
860.802	62.67
861.105	59.53
861.407	57.12
861.71	58.16
862.012	57.27
862.315	58.38
862.617	61.36
862.919	59.83
863.222	59.18
863.524	58.61
863.826	58.88
864.128	61.16
864.43	63.69
864.732	62.55
865.034	62.52
865.336	62.93
865.638	62.79
865.94	60.29
866.242	56.77
866.544	59.73
866.846	58.86
867.147	59.27
867.449	62.35
867.751	65.71
868.052	67.17
868.354	69.87
868.655	69.12
868.957	68.4
869.258	67.97
869.56	66.51
869.861	66.49
870.162	64.1
870.463	62.98
870.765	62.84
871.066	65.38
871.367	64.5
871.668	69.7
871.969	68.3
872.27	71.33
872.571	72.61
872.872	70.13
873.173	70.05
873.473	70.96
873.774	69.37
874.075	67.96
874.376	63.17
874.676	65.04
874.977	65
875.277	60.06
875.578	62.88
875.878	65.68
876.179	67.63
876.479	71.73
876.78	73.24
877.08	72.41
877.38	69.56
877.68	70.68
877.981	62.8
878.281	64.44
878.581	64.66
