Data from BA35141_Reflection_00013.txt Node
Date: Tue Nov 19 11:54:54 EST 2019
User: vgr7
Spectrometer: USB2G7710
Scans to average: 3
Trigger mode: 4
Integration Time (sec): 2.000000E-2
Electric dark correction enabled: true
Boxcar width: 10
XAxis mode: Wavelengths
Number of Pixels in Spectrum: 2048
>>>>>Begin Spectral Data<<<<<
177.721	473.63
178.105	-2025
178.488	-293.36
178.871	-147.37
179.254	-108.7
179.636	-27.74
180.019	-36.65
180.402	200
180.785	-35.14
181.168	66.22
181.55	100
181.933	71.83
182.316	119.9
182.698	87.85
183.081	125.13
183.463	168.7
183.846	142.78
184.228	142.94
184.611	199.29
184.993	347.62
185.376	294.24
185.758	424.32
186.14	378.26
186.522	1100
186.904	-845.45
187.287	-630.16
187.669	-1100
188.051	748.65
188.433	352.87
188.815	165.36
189.197	942.11
189.579	-233.33
189.961	-80.33
190.342	-15.04
190.724	-112.77
191.106	-937.04
191.488	-276.34
191.869	-130.77
192.251	-96.17
192.633	-76.29
193.014	-49.61
193.396	-49.61
193.777	-32.25
194.159	-46.61
194.54	-35.14
194.922	-56.73
195.303	-53.98
195.684	-64.82
196.065	-65.09
196.447	-45.36
196.828	-59.64
197.209	-60.69
197.59	-71.16
197.971	-69.05
198.352	-72.14
198.733	-86.6
199.114	-79.06
199.495	-79.08
199.876	-102.19
200.257	-88.75
200.638	-87.89
201.018	-110.4
201.399	-81.26
201.78	-88.59
202.16	-79.75
202.541	-101.02
202.922	-81.02
203.302	-146.86
203.683	-148.78
204.063	-392.31
204.444	-343.3
204.824	-178.79
205.204	-123.74
205.585	-194.12
205.965	-183.19
206.345	-77.99
206.725	-34.9
207.106	-22.37
207.486	-50.48
207.866	-48.34
208.246	-60.56
208.626	-72.95
209.006	-63.07
209.386	-84.44
209.766	-71.76
210.145	-60.52
210.525	-67.12
210.905	-38.97
211.285	-37.77
211.664	-22.11
212.044	-19.92
212.424	0.55
212.803	-8.74
213.183	1.08
213.562	22.58
213.942	36.03
214.321	27.06
214.701	29.54
215.08	23.32
215.459	51.01
215.838	65.64
216.218	95.48
216.597	85.35
216.976	58.48
217.355	83.47
217.734	93.4
218.113	44.3
218.492	42.79
218.871	45.26
219.25	51.98
219.629	46.73
220.008	51.22
220.387	31.53
220.766	53.26
221.144	42.64
221.523	16.17
221.902	-0.59
222.28	9.91
222.659	18
223.037	16.53
223.416	20.53
223.794	27.87
224.173	24.29
224.551	24.06
224.929	23.62
225.308	5.37
225.686	3.77
226.064	11.79
226.442	13.53
226.821	7.17
227.199	4.33
227.577	-0.05
227.955	3.8
228.333	5.5
228.711	2.03
229.089	2.52
229.467	5.51
229.845	1.93
230.222	2.77
230.6	2.18
230.978	2.97
231.356	1.19
231.733	-0.22
232.111	-0.45
232.488	-0.89
232.866	0.51
233.243	1
233.621	1.7
233.998	2.25
234.376	1.83
234.753	3.2
235.13	3.83
235.508	5.81
235.885	4.04
236.262	1.92
236.639	1.77
237.016	0.37
237.393	1.09
237.77	2.58
238.147	2.17
238.524	1.63
238.901	0.98
239.278	2.16
239.655	2.35
240.032	2.26
240.409	2.63
240.785	2.76
241.162	2.86
241.539	2.33
241.915	2.14
242.292	1.86
242.668	2.01
243.045	2.65
243.421	2.85
243.798	2.67
244.174	2.72
244.551	2.91
244.927	3.04
245.303	2.68
245.679	2.68
246.056	2.67
246.432	2.76
246.808	3.07
247.184	2.98
247.56	2.81
247.936	2.84
248.312	2.7
248.688	2.49
249.064	2.59
249.44	2.56
249.815	2.45
250.191	2.75
250.567	2.73
250.943	2.6
251.318	2.58
251.694	2.65
252.069	2.95
252.445	3.16
252.82	3.63
253.196	3.75
253.571	3.66
253.947	3.77
254.322	3.82
254.697	3.91
255.073	3.81
255.448	3.81
255.823	3.59
256.198	3.34
256.573	3.51
256.948	3.51
257.323	3.69
257.698	3.45
258.073	3.22
258.448	3.17
258.823	2.8
259.198	2.83
259.573	2.91
259.948	2.75
260.322	2.48
260.697	2.27
261.072	2.49
261.446	2.47
261.821	2.33
262.195	2.13
262.57	2.04
262.944	1.85
263.319	2.1
263.693	2.18
264.067	2.26
264.442	2.02
264.816	1.9
265.19	1.87
265.564	1.95
265.938	1.77
266.313	1.69
266.687	1.93
267.061	1.68
267.435	1.53
267.809	1.43
268.183	1.85
268.556	1.91
268.93	1.77
269.304	1.79
269.678	1.92
270.051	1.99
270.425	1.98
270.799	1.96
271.172	1.77
271.546	1.68
271.919	1.81
272.293	1.93
272.666	1.95
273.04	1.89
273.413	2.06
273.787	2.07
274.16	2.04
274.533	2.09
274.906	2.25
275.279	2.18
275.653	2.34
276.026	2.1
276.399	1.97
276.772	1.92
277.145	1.81
277.518	1.75
277.891	1.82
278.263	1.92
278.636	2.08
279.009	2
279.382	2.14
279.755	2.13
280.127	2.25
280.5	2.28
280.872	2.48
281.245	2.35
281.617	2.4
281.99	2.25
282.362	2.3
282.735	2.27
283.107	2.34
283.479	2.21
283.852	2.18
284.224	2.31
284.596	2.3
284.968	2.3
285.34	2.32
285.713	2.45
286.085	2.28
286.457	2.24
286.829	2.24
287.201	2.14
287.572	2.17
287.944	2.06
288.316	2.09
288.688	1.93
289.06	1.92
289.431	2.02
289.803	2.33
290.175	2.32
290.546	2.28
290.918	2.16
291.289	2.28
291.661	2.32
292.032	2.16
292.403	2.16
292.775	2.4
293.146	2.48
293.517	2.39
293.889	2.48
294.26	2.5
294.631	2.56
295.002	2.75
295.373	2.72
295.744	2.79
296.115	2.87
296.486	2.95
296.857	3.08
297.228	3
297.599	2.85
297.97	2.82
298.34	2.87
298.711	3.09
299.082	3.08
299.452	3.06
299.823	3.2
300.194	3.33
300.564	3.17
300.935	3.14
301.305	3.14
301.676	3.19
302.046	3.22
302.416	3.28
302.787	3.07
303.157	2.9
303.527	2.95
303.897	2.85
304.267	2.81
304.637	2.72
305.008	2.72
305.378	2.79
305.748	2.67
306.117	2.67
306.487	2.66
306.857	2.61
307.227	2.74
307.597	2.74
307.967	2.78
308.336	2.78
308.706	2.82
309.076	2.83
309.445	2.88
309.815	2.91
310.184	2.85
310.554	2.9
310.923	2.99
311.293	2.98
311.662	3.02
312.031	3.01
312.401	3.08
312.77	3.14
313.139	3.18
313.508	3.21
313.877	3.25
314.246	3.21
314.616	3.31
314.985	3.33
315.353	3.36
315.722	3.47
316.091	3.57
316.46	3.61
316.829	3.66
317.198	3.58
317.567	3.67
317.935	3.67
318.304	3.91
318.672	4.04
319.041	4.02
319.41	4.05
319.778	4.08
320.147	4.06
320.515	3.97
320.883	3.94
321.252	4.03
321.62	3.95
321.988	4.06
322.357	4.07
322.725	3.95
323.093	4.07
323.461	3.88
323.829	3.97
324.197	4
324.565	4.11
324.933	4.1
325.301	3.96
325.669	4.01
326.037	3.92
326.405	3.92
326.772	3.97
327.14	3.89
327.508	3.95
327.875	4.08
328.243	4.25
328.61	4.17
328.978	4.14
329.346	4.29
329.713	4.35
330.08	4.44
330.448	4.49
330.815	4.42
331.182	4.53
331.55	4.43
331.917	4.36
332.284	4.24
332.651	4.28
333.018	4.27
333.385	4.26
333.752	4.16
334.119	4.01
334.486	3.97
334.853	4.08
335.22	4.02
335.587	3.85
335.954	3.75
336.32	3.83
336.687	4
337.054	3.98
337.42	3.95
337.787	3.8
338.153	4.02
338.52	4.14
338.886	4.22
339.253	4.25
339.619	4.24
339.986	4.35
340.352	4.48
340.718	4.54
341.084	4.55
341.451	4.71
341.817	4.8
342.183	4.82
342.549	4.85
342.915	4.92
343.281	5.06
343.647	5.13
344.013	5.12
344.379	5.05
344.745	5.08
345.11	5.01
345.476	5.04
345.842	4.87
346.208	4.78
346.573	4.71
346.939	4.86
347.304	5.02
347.67	4.95
348.035	4.87
348.401	4.85
348.766	4.84
349.132	4.89
349.497	4.86
349.862	4.86
350.228	4.8
350.593	4.69
350.958	4.6
351.323	4.53
351.688	4.56
352.053	4.51
352.418	4.46
352.783	4.45
353.148	4.53
353.513	4.52
353.878	4.54
354.243	4.43
354.608	4.39
354.972	4.21
355.337	4.22
355.702	4.29
356.066	4.35
356.431	4.37
356.795	4.36
357.16	4.38
357.524	4.37
357.889	4.36
358.253	4.36
358.618	4.38
358.982	4.34
359.346	4.33
359.71	4.4
360.075	4.49
360.439	4.5
360.803	4.54
361.167	4.55
361.531	4.56
361.895	4.67
362.259	4.64
362.623	4.66
362.987	4.67
363.351	4.63
363.714	4.61
364.078	4.63
364.442	4.6
364.806	4.61
365.169	4.67
365.533	4.78
365.896	4.79
366.26	4.69
366.623	4.72
366.987	4.73
367.35	4.74
367.714	4.69
368.077	4.63
368.44	4.52
368.803	4.49
369.167	4.41
369.53	4.31
369.893	4.34
370.256	4.32
370.619	4.28
370.982	4.27
371.345	4.2
371.708	4.2
372.071	4.18
372.434	4.14
372.797	4.04
373.159	3.95
373.522	4.02
373.885	4.08
374.247	4.07
374.61	4.05
374.973	3.95
375.335	3.95
375.698	3.88
376.06	3.87
376.423	3.82
376.785	3.86
377.147	3.89
377.51	3.81
377.872	3.82
378.234	3.82
378.596	3.76
378.958	3.85
379.321	3.72
379.683	3.73
380.045	3.77
380.407	3.78
380.769	3.78
381.13	3.68
381.492	3.63
381.854	3.61
382.216	3.62
382.578	3.64
382.939	3.59
383.301	3.62
383.663	3.64
384.024	3.65
384.386	3.64
384.747	3.6
385.109	3.59
385.47	3.53
385.832	3.48
386.193	3.46
386.554	3.36
386.916	3.43
387.277	3.34
387.638	3.29
387.999	3.31
388.36	3.24
388.721	3.28
389.082	3.32
389.443	3.33
389.804	3.31
390.165	3.29
390.526	3.26
390.887	3.24
391.248	3.21
391.609	3.23
391.969	3.22
392.33	3.2
392.691	3.17
393.051	3.2
393.412	3.22
393.772	3.22
394.133	3.2
394.493	3.18
394.854	3.25
395.214	3.25
395.574	3.2
395.935	3.23
396.295	3.23
396.655	3.22
397.015	3.18
397.376	3.14
397.736	3.1
398.096	3.08
398.456	3.11
398.816	3.14
399.176	3.08
399.535	3.07
399.895	3.03
400.255	3.04
400.615	3.01
400.975	2.96
401.334	2.96
401.694	2.99
402.054	2.97
402.413	2.93
402.773	2.93
403.132	2.92
403.492	2.9
403.851	2.88
404.211	2.85
404.57	2.87
404.929	2.86
405.288	2.89
405.648	2.88
406.007	2.84
406.366	2.83
406.725	2.83
407.084	2.83
407.443	2.84
407.802	2.81
408.161	2.81
408.52	2.86
408.879	2.87
409.238	2.84
409.596	2.84
409.955	2.82
410.314	2.81
410.673	2.81
411.031	2.81
411.39	2.78
411.748	2.76
412.107	2.74
412.465	2.76
412.824	2.76
413.182	2.76
413.54	2.79
413.899	2.74
414.257	2.74
414.615	2.72
414.974	2.74
415.332	2.74
415.69	2.73
416.048	2.7
416.406	2.67
416.764	2.67
417.122	2.66
417.48	2.67
417.838	2.64
418.195	2.63
418.553	2.62
418.911	2.62
419.269	2.63
419.626	2.63
419.984	2.64
420.342	2.63
420.699	2.62
421.057	2.6
421.414	2.6
421.772	2.59
422.129	2.57
422.486	2.56
422.844	2.55
423.201	2.55
423.558	2.55
423.915	2.54
424.273	2.53
424.63	2.53
424.987	2.51
425.344	2.51
425.701	2.52
426.058	2.52
426.415	2.52
426.772	2.5
427.128	2.49
427.485	2.46
427.842	2.45
428.199	2.46
428.555	2.45
428.912	2.43
429.269	2.43
429.625	2.46
429.982	2.48
430.338	2.5
430.695	2.5
431.051	2.49
431.407	2.52
431.764	2.54
432.12	2.53
432.476	2.51
432.832	2.54
433.189	2.53
433.545	2.54
433.901	2.54
434.257	2.55
434.613	2.56
434.969	2.56
435.325	2.55
435.681	2.54
436.036	2.54
436.392	2.54
436.748	2.54
437.104	2.52
437.459	2.5
437.815	2.5
438.171	2.52
438.526	2.52
438.882	2.49
439.237	2.49
439.593	2.48
439.948	2.49
440.304	2.49
440.659	2.49
441.014	2.47
441.369	2.49
441.725	2.48
442.08	2.48
442.435	2.46
442.79	2.46
443.145	2.45
443.5	2.45
443.855	2.46
444.21	2.46
444.565	2.46
444.92	2.45
445.275	2.45
445.629	2.43
445.984	2.42
446.339	2.41
446.693	2.42
447.048	2.41
447.403	2.41
447.757	2.38
448.112	2.39
448.466	2.39
448.82	2.37
449.175	2.37
449.529	2.37
449.883	2.37
450.238	2.37
450.592	2.37
450.946	2.37
451.3	2.36
451.654	2.35
452.008	2.36
452.362	2.37
452.716	2.36
453.07	2.36
453.424	2.37
453.778	2.37
454.132	2.34
454.486	2.37
454.839	2.36
455.193	2.39
455.547	2.36
455.9	2.36
456.254	2.36
456.607	2.35
456.961	2.35
457.314	2.35
457.668	2.36
458.021	2.36
458.375	2.37
458.728	2.38
459.081	2.39
459.434	2.37
459.787	2.37
460.141	2.38
460.494	2.37
460.847	2.37
461.2	2.38
461.553	2.4
461.906	2.42
462.259	2.43
462.611	2.42
462.964	2.43
463.317	2.45
463.67	2.46
464.022	2.47
464.375	2.47
464.728	2.5
465.08	2.5
465.433	2.52
465.785	2.52
466.138	2.5
466.49	2.52
466.843	2.53
467.195	2.53
467.547	2.51
467.899	2.52
468.252	2.53
468.604	2.51
468.956	2.52
469.308	2.49
469.66	2.47
470.012	2.48
470.364	2.47
470.716	2.47
471.068	2.48
471.42	2.47
471.772	2.47
472.123	2.45
472.475	2.47
472.827	2.46
473.178	2.47
473.53	2.48
473.882	2.45
474.233	2.45
474.585	2.44
474.936	2.46
475.288	2.45
475.639	2.46
475.99	2.48
476.342	2.48
476.693	2.51
477.044	2.5
477.395	2.5
477.746	2.5
478.097	2.48
478.448	2.47
478.8	2.47
479.15	2.47
479.501	2.47
479.852	2.46
480.203	2.46
480.554	2.45
480.905	2.45
481.255	2.46
481.606	2.46
481.957	2.48
482.307	2.48
482.658	2.48
483.009	2.48
483.359	2.47
483.709	2.48
484.06	2.48
484.41	2.49
484.761	2.49
485.111	2.5
485.461	2.51
485.811	2.51
486.162	2.52
486.512	2.52
486.862	2.53
487.212	2.54
487.562	2.54
487.912	2.55
488.262	2.55
488.612	2.56
488.961	2.57
489.311	2.58
489.661	2.59
490.011	2.58
490.36	2.58
490.71	2.59
491.06	2.58
491.409	2.58
491.759	2.58
492.108	2.6
492.458	2.59
492.807	2.58
493.157	2.59
493.506	2.59
493.855	2.6
494.204	2.61
494.554	2.6
494.903	2.62
495.252	2.64
495.601	2.66
495.95	2.67
496.299	2.67
496.648	2.68
496.997	2.69
497.346	2.73
497.695	2.75
498.043	2.77
498.392	2.79
498.741	2.8
499.09	2.84
499.438	2.85
499.787	2.89
500.135	2.94
500.484	2.95
500.832	2.97
501.181	3
501.529	3.03
501.878	3.07
502.226	3.09
502.574	3.1
502.923	3.1
503.271	3.1
503.619	3.13
503.967	3.12
504.315	3.13
504.663	3.16
505.011	3.17
505.359	3.18
505.707	3.18
506.055	3.2
506.403	3.19
506.751	3.23
507.098	3.26
507.446	3.26
507.794	3.28
508.141	3.32
508.489	3.33
508.837	3.33
509.184	3.33
509.531	3.33
509.879	3.36
510.226	3.41
510.574	3.44
510.921	3.45
511.268	3.5
511.616	3.54
511.963	3.57
512.31	3.63
512.657	3.64
513.004	3.67
513.351	3.7
513.698	3.72
514.045	3.73
514.392	3.73
514.739	3.77
515.086	3.83
515.432	3.87
515.779	3.91
516.126	3.97
516.473	4.01
516.819	4.07
517.166	4.13
517.512	4.16
517.859	4.21
518.205	4.24
518.552	4.29
518.898	4.29
519.245	4.34
519.591	4.35
519.937	4.4
520.283	4.49
520.629	4.53
520.976	4.58
521.322	4.63
521.668	4.69
522.014	4.72
522.36	4.76
522.706	4.8
523.052	4.86
523.398	4.9
523.743	4.97
524.089	5.03
524.435	5.07
524.781	5.13
525.126	5.19
525.472	5.26
525.817	5.3
526.163	5.36
526.509	5.4
526.854	5.45
527.199	5.49
527.545	5.5
527.89	5.55
528.235	5.6
528.581	5.66
528.926	5.72
529.271	5.78
529.616	5.83
529.961	5.88
530.306	5.93
530.651	6
530.996	6.06
531.341	6.13
531.686	6.2
532.031	6.27
532.376	6.36
532.721	6.44
533.065	6.52
533.41	6.6
533.755	6.69
534.099	6.79
534.444	6.9
534.788	7
535.133	7.11
535.477	7.2
535.822	7.3
536.166	7.41
536.51	7.54
536.855	7.69
537.199	7.82
537.543	7.96
537.887	8.1
538.231	8.26
538.576	8.42
538.92	8.58
539.264	8.7
539.608	8.81
539.951	8.94
540.295	9.07
540.639	9.19
540.983	9.32
541.327	9.45
541.671	9.57
542.014	9.72
542.358	9.85
542.701	9.99
543.045	10.13
543.389	10.26
543.732	10.4
544.075	10.53
544.419	10.67
544.762	10.83
545.105	10.98
545.449	11.17
545.792	11.31
546.135	11.49
546.478	11.71
546.821	11.94
547.165	12.15
547.508	12.36
547.851	12.59
548.194	12.81
548.536	13.05
548.879	13.24
549.222	13.44
549.565	13.67
549.908	13.9
550.25	14.13
550.593	14.34
550.936	14.58
551.278	14.81
551.621	15.07
551.963	15.34
552.306	15.6
552.648	15.82
552.991	16.1
553.333	16.36
553.675	16.58
554.017	16.8
554.36	17.03
554.702	17.27
555.044	17.52
555.386	17.77
555.728	18.01
556.07	18.34
556.412	18.6
556.754	18.85
557.096	19.12
557.438	19.37
557.78	19.68
558.121	19.95
558.463	20.26
558.805	20.56
559.147	20.81
559.488	21.03
559.83	21.32
560.171	21.58
560.513	21.83
560.854	22.1
561.196	22.42
561.537	22.7
561.878	22.96
562.22	23.18
562.561	23.41
562.902	23.68
563.243	23.91
563.584	24.19
563.925	24.48
564.266	24.7
564.607	24.96
564.948	25.21
565.289	25.51
565.63	25.71
565.971	25.97
566.312	26.17
566.653	26.42
566.993	26.64
567.334	26.85
567.675	27.11
568.015	27.35
568.356	27.53
568.696	27.74
569.037	27.98
569.377	28.27
569.718	28.52
570.058	28.73
570.398	28.94
570.739	29.16
571.079	29.33
571.419	29.58
571.759	29.75
572.099	29.97
572.439	30.12
572.779	30.32
573.119	30.56
573.459	30.76
573.799	30.93
574.139	31.11
574.479	31.31
574.819	31.53
575.158	31.68
575.498	31.93
575.838	32.14
576.177	32.35
576.517	32.56
576.856	32.76
577.196	32.97
577.535	33.11
577.875	33.31
578.214	33.52
578.553	33.77
578.893	33.99
579.232	34.12
579.571	34.31
579.91	34.53
580.25	34.68
580.589	34.86
580.928	35.08
581.267	35.29
581.606	35.5
581.945	35.61
582.283	35.81
582.622	35.89
582.961	36.13
583.3	36.31
583.639	36.41
583.977	36.61
584.316	36.78
584.654	37.07
584.993	37.21
585.332	37.38
585.67	37.5
586.008	37.68
586.347	37.88
586.685	38.09
587.024	38.18
587.362	38.31
587.7	38.52
588.038	38.58
588.376	38.69
588.715	38.81
589.053	38.92
589.391	39.07
589.729	39.29
590.067	39.37
590.404	39.47
590.742	39.65
591.08	39.73
591.418	39.82
591.756	39.93
592.093	40.01
592.431	40.08
592.769	40.16
593.106	40.23
593.444	40.33
593.781	40.37
594.119	40.49
594.456	40.53
594.793	40.51
595.131	40.72
595.468	40.81
595.805	40.87
596.143	40.98
596.48	41.09
596.817	41.11
597.154	41.25
597.491	41.31
597.828	41.43
598.165	41.57
598.502	41.58
598.839	41.59
599.176	41.7
599.512	41.78
599.849	41.88
600.186	41.94
600.523	42.08
600.859	42.18
601.196	42.24
601.532	42.36
601.869	42.47
602.205	42.51
602.542	42.6
602.878	42.7
603.215	42.74
603.551	42.75
603.887	42.82
604.223	42.77
604.56	42.85
604.896	42.87
605.232	42.87
605.568	42.98
605.904	43.04
606.24	43.1
606.576	43.17
606.912	43.23
607.248	43.32
607.583	43.33
607.919	43.47
608.255	43.57
608.591	43.69
608.926	43.83
609.262	43.89
609.597	43.95
609.933	44.02
610.268	44.13
610.604	44.2
610.939	44.26
611.275	44.42
611.61	44.47
611.945	44.45
612.281	44.56
612.616	44.73
612.951	44.86
613.286	45.03
613.621	45.19
613.956	45.32
614.291	45.51
614.626	45.58
614.961	45.57
615.296	45.67
615.631	45.72
615.966	45.72
616.3	45.76
616.635	45.83
616.97	45.9
617.304	45.94
617.639	46.03
617.973	46.11
618.308	46.12
618.642	46.19
618.977	46.25
619.311	46.29
619.646	46.28
619.98	46.34
620.314	46.36
620.648	46.32
620.983	46.34
621.317	46.33
621.651	46.42
621.985	46.5
622.319	46.48
622.653	46.48
622.987	46.47
623.321	46.52
623.655	46.53
623.988	46.55
624.322	46.58
624.656	46.54
624.99	46.51
625.323	46.56
625.657	46.66
625.99	46.77
626.324	46.76
626.657	46.76
626.991	46.77
627.324	46.75
627.658	46.83
627.991	46.87
628.324	46.92
628.657	46.93
628.991	46.99
629.324	47.01
629.657	47.06
629.99	47.19
630.323	47.31
630.656	47.39
630.989	47.42
631.322	47.5
631.655	47.7
631.987	47.72
632.32	47.78
632.653	47.68
632.986	47.67
633.318	47.7
633.651	47.77
633.984	47.78
634.316	47.95
634.649	48.01
634.981	48.07
635.313	48.11
635.646	48.15
635.978	48.19
636.31	48.36
636.643	48.49
636.975	48.46
637.307	48.45
637.639	48.53
637.971	48.51
638.303	48.61
638.635	48.59
638.967	48.77
639.299	48.84
639.631	48.99
639.963	49.12
640.295	49.23
640.626	49.28
640.958	49.44
641.29	49.38
641.621	49.41
641.953	49.33
642.285	49.37
642.616	49.42
642.948	49.36
643.279	49.25
643.61	49.26
643.942	49.44
644.273	49.48
644.604	49.5
644.936	49.58
645.267	49.52
645.598	49.55
645.929	49.4
646.26	49.39
646.591	49.4
646.922	49.36
647.253	49.3
647.584	49.34
647.915	49.27
648.245	49.26
648.576	49.17
648.907	49.21
649.238	49.26
649.568	49.23
649.899	49.38
650.229	49.43
650.56	49.43
650.89	49.36
651.221	49.29
651.551	49.37
651.882	49.27
652.212	49.27
652.542	49.28
652.872	49.32
653.203	49.22
653.533	49.18
653.863	49.27
654.193	49.25
654.523	49.23
654.853	49.2
655.183	49.13
655.513	49.2
655.843	49.16
656.172	49.11
656.502	49.03
656.832	49.03
657.162	49.15
657.491	49.1
657.821	49.03
658.15	48.99
658.48	48.92
658.809	49.01
659.139	49.1
659.468	49.08
659.798	49.25
660.127	49.36
660.456	49.48
660.785	49.46
661.115	49.57
661.444	49.47
661.773	49.65
662.102	49.81
662.431	49.93
662.76	50.04
663.089	50.17
663.418	50.41
663.747	50.39
664.076	50.3
664.404	50.4
664.733	50.5
665.062	50.68
665.39	50.7
665.719	50.8
666.048	50.77
666.376	50.77
666.705	50.64
667.033	50.56
667.362	50.52
667.69	50.47
668.018	50.59
668.347	50.63
668.675	50.55
669.003	50.47
669.331	50.43
669.659	50.46
669.987	50.41
670.315	50.28
670.643	50.22
670.971	50.37
671.299	50.42
671.627	50.48
671.955	50.44
672.283	50.35
672.61	50.32
672.938	50.35
673.266	50.44
673.593	50.36
673.921	50.39
674.249	50.35
674.576	50.37
674.904	50.28
675.231	50.36
675.558	50.29
675.886	50.33
676.213	50.21
676.54	50.1
676.867	49.92
677.195	49.93
677.522	50.1
677.849	49.99
678.176	49.96
678.503	49.92
678.83	49.93
679.157	49.96
679.484	49.96
679.81	49.85
680.137	49.98
680.464	50.22
680.791	50.39
681.117	50.35
681.444	50.37
681.771	50.33
682.097	50.52
682.424	50.58
682.75	50.55
683.077	50.56
683.403	50.59
683.729	50.69
684.056	50.65
684.382	50.4
684.708	50.36
685.034	50.32
685.36	50.31
685.686	50.36
686.012	50.32
686.339	50.2
686.664	50.24
686.99	49.95
687.316	49.73
687.642	49.48
687.968	49.44
688.294	49.44
688.619	49.41
688.945	49.2
689.271	49.16
689.596	49.13
689.922	49.12
690.247	49.14
690.573	49.22
690.898	49.37
691.224	49.58
691.549	49.65
691.874	49.67
692.2	49.63
692.525	49.52
692.85	49.61
693.175	49.73
693.5	49.68
693.825	49.85
694.15	49.66
694.475	49.68
694.8	49.74
695.125	49.7
695.45	49.57
695.775	49.59
696.099	49.49
696.424	49.5
696.749	49.59
697.073	49.48
697.398	49.33
697.723	49.16
698.047	49.13
698.372	49.01
698.696	48.97
699.02	48.82
699.345	48.86
699.669	48.96
699.993	48.87
700.318	48.83
700.642	48.84
700.966	48.88
701.29	48.99
701.614	48.97
701.938	48.97
702.262	49.09
702.586	49.08
702.91	49.08
703.234	49.04
703.557	49.12
703.881	49.19
704.205	49.43
704.529	49.6
704.852	49.7
705.176	49.81
705.499	49.94
705.823	50.16
706.146	50.15
706.47	49.97
706.793	50.08
707.117	50.27
707.44	50.24
707.763	50.39
708.086	50.2
708.409	50.18
708.733	50.23
709.056	50.3
709.379	50.32
709.702	50.44
710.025	50.65
710.348	50.51
710.671	50.57
710.993	50.42
711.316	50.38
711.639	50.4
711.962	50.45
712.284	50.34
712.607	50.25
712.93	50.11
713.252	50.09
713.575	50
713.897	49.92
714.22	49.93
714.542	49.9
714.864	50.04
715.187	50.22
715.509	50.1
715.831	49.93
716.153	49.79
716.475	49.81
716.798	49.52
717.12	49.53
717.442	49.57
717.764	49.56
718.085	49.5
718.407	49.29
718.729	49.44
719.051	49.72
719.373	49.88
719.695	49.98
720.016	50.13
720.338	50.24
720.659	50.3
720.981	50.13
721.302	50.4
721.624	50.37
721.945	50.4
722.267	50.47
722.588	50.49
722.909	50.71
723.231	50.69
723.552	50.68
723.873	50.74
724.194	50.54
724.515	50.53
724.836	50.51
725.157	50.43
725.478	50.53
725.799	50.28
726.12	49.93
726.441	49.79
726.762	49.84
727.083	49.63
727.403	49.65
727.724	49.82
728.045	49.65
728.365	49.64
728.686	49.53
729.006	49.33
729.327	49.48
729.647	49.41
729.967	49.51
730.288	49.74
730.608	49.6
730.928	49.86
731.249	50.05
731.569	50.17
731.889	50.29
732.209	50.05
732.529	50.1
732.849	50.53
733.169	50.99
733.489	50.67
733.809	51.12
734.129	51.3
734.448	51.3
734.768	51.38
735.088	51.22
735.408	51.05
735.727	51.29
736.047	51.19
736.366	51.34
736.686	51.13
737.005	50.97
737.325	51.12
737.644	50.97
737.963	51.01
738.283	51.05
738.602	50.84
738.921	51.15
739.24	51.01
739.56	50.98
739.879	50.78
740.198	51.24
740.517	50.98
740.836	50.57
741.155	50.45
741.473	50.31
741.792	50.28
742.111	50.64
742.43	50.6
742.748	50.97
743.067	50.91
743.386	51.06
743.704	51.11
744.023	51.16
744.341	51.28
744.66	51.01
744.978	51.05
745.297	51.42
745.615	51.21
745.933	51.56
746.252	51.73
746.57	51.87
746.888	51.64
747.206	51.81
747.524	52.07
747.842	51.97
748.16	52.06
748.478	52.65
748.796	52.6
749.114	52.96
749.432	52.84
749.749	52.83
750.067	52.85
750.385	52.81
750.703	52.8
751.02	53.09
751.338	53.2
751.655	53.07
751.973	52.57
752.29	52.18
752.608	51.88
752.925	51.57
753.242	51.43
753.56	51.66
753.877	51.27
754.194	51.32
754.511	51.41
754.828	51.41
755.145	51.16
755.462	50.92
755.779	50.88
756.096	50.55
756.413	50.75
756.73	50.72
757.047	50.81
757.364	50.75
757.68	50.61
757.997	50.4
758.314	50.26
758.63	50.51
758.947	50.73
759.264	50.9
759.58	50.88
759.896	50.77
760.213	50.59
760.529	50.62
760.846	50.38
761.162	50.43
761.478	50.29
761.794	50.22
762.11	50.09
762.426	49.61
762.743	49.7
763.059	49.56
763.375	49.42
763.69	49.45
764.006	49.48
764.322	49.33
764.638	49.5
764.954	49.68
765.27	49.68
765.585	49.85
765.901	49.77
766.216	49.63
766.532	49.55
766.848	49.66
767.163	49.8
767.478	49.93
767.794	50.05
768.109	50.43
768.424	50.29
768.74	50.55
769.055	51.23
769.37	51.1
769.685	51.12
770	51.24
770.315	51
770.63	51.01
770.945	51.09
771.26	51.46
771.575	51.51
771.89	52.04
772.205	52.08
772.52	52.38
772.834	52.53
773.149	53.01
773.464	52.56
773.778	52.51
774.093	52.47
774.407	52.39
774.722	51.92
775.036	52.17
775.351	51.95
775.665	51.6
775.979	52
776.293	51.81
776.608	51.92
776.922	52.51
777.236	52.75
777.55	52.8
777.864	52.32
778.178	52.12
778.492	51.68
778.806	51.64
779.12	51.12
779.434	51.11
779.747	50.96
780.061	51.19
780.375	51.31
780.689	51.28
781.002	51.22
781.316	51.14
781.629	51.76
781.943	51.7
782.256	51.62
782.57	51.57
782.883	51.65
783.196	51.4
783.51	51.09
783.823	50.73
784.136	50.61
784.449	50.82
784.762	50.76
785.075	50.68
785.388	50.62
785.701	50.45
786.014	50.38
786.327	50.47
786.64	51.16
786.953	51.17
787.266	51.12
787.578	50.64
787.891	50.68
788.204	50.28
788.516	50.5
788.829	49.96
789.141	50.57
789.454	50.76
789.766	51.03
790.079	51.29
790.391	50.99
790.703	51.04
791.016	51.12
791.328	51.22
791.64	51.33
791.952	50.97
792.264	51.19
792.576	51.06
792.888	50.96
793.2	50.68
793.512	50.16
793.824	50.62
794.136	51.43
794.448	52.2
794.76	51.72
795.071	51.88
795.383	52.36
795.695	52.03
796.006	51.85
796.318	52.11
796.629	51.95
796.941	52.37
797.252	52.42
797.564	52.05
797.875	51.93
798.186	51.72
798.497	51.92
798.809	52.19
799.12	52.31
799.431	51.99
799.742	51.65
800.053	51.75
800.364	51.35
800.675	51.21
800.986	50.63
801.297	50.24
801.608	50.42
801.918	50.44
802.229	49.78
802.54	50.17
802.851	49.9
803.161	49.78
803.472	49.69
803.782	49.86
804.093	49.88
804.403	50.09
804.714	50.89
805.024	50.6
805.334	49.89
805.645	50.04
805.955	50.15
806.265	50.57
806.575	51.35
806.885	50.74
807.195	51.13
807.505	50.5
807.815	50.89
808.125	50.16
808.435	49.76
808.745	50.18
809.055	49.96
809.365	50.22
809.674	50.32
809.984	50.4
810.294	49.82
810.603	49.04
810.913	49.14
811.222	48.64
811.532	48.43
811.841	49.24
812.151	48.98
812.46	49.3
812.769	48.57
813.079	48.62
813.388	48.19
813.697	47.23
814.006	47.29
814.315	47.99
814.624	48.59
814.933	49.68
815.242	49.24
815.551	48.93
815.86	49.63
816.169	49.19
816.478	48.49
816.786	48.88
817.095	50.26
817.404	49.76
817.712	49.06
818.021	49.57
818.33	49.11
818.638	49.23
818.947	48.59
819.255	48.97
819.563	48.96
819.872	49.65
820.18	50.11
820.488	50.38
820.796	49.96
821.105	50.26
821.413	50.02
821.721	50
822.029	50.1
822.337	49.69
822.645	49.95
822.953	50.09
823.26	50.08
823.568	49.75
823.876	49.72
824.184	49.81
824.491	49.62
824.799	49.68
825.107	49.68
825.414	49.84
825.722	49.8
826.029	49.72
826.337	49.52
826.644	49.32
826.951	49.29
827.259	49.35
827.566	48.89
827.873	48.9
828.18	49.09
828.488	49.06
828.795	48.93
829.102	48.55
829.409	48.09
829.716	48.03
830.023	48.47
830.329	48.76
830.636	48.79
830.943	49.23
831.25	49.52
831.557	49.8
831.863	49.68
832.17	49.44
832.476	49.52
832.783	50.19
833.089	50.51
833.396	50.36
833.702	50.27
834.009	50.55
834.315	50.47
834.621	49.96
834.928	49.48
835.234	50.02
835.54	50.05
835.846	50.8
836.152	50.69
836.458	50.6
836.764	51.08
837.07	50.98
837.376	50.63
837.682	49.65
837.988	49.89
838.293	50.58
838.599	50.46
838.905	50.47
839.211	50.04
839.516	49.52
839.822	50.42
840.127	50.76
840.433	50.99
840.738	51.25
841.044	52.42
841.349	53.51
841.654	53.36
841.959	54.23
842.265	53.88
842.57	53
842.875	52.78
843.18	50.84
843.485	50.19
843.79	49.85
844.095	49.74
844.4	47.9
844.705	48.39
845.01	49.91
845.315	49.77
845.619	49.89
845.924	50.54
846.229	51.39
846.533	51.69
846.838	50.01
847.142	49.08
847.447	48.14
847.751	48.01
848.056	47.49
848.36	45.66
848.664	46.35
848.969	48.16
849.273	46.75
849.577	48.49
849.881	50.03
850.185	51.28
850.489	55.31
850.794	57.59
851.097	56.89
851.401	54.71
851.705	54.7
852.009	57.15
852.313	55.84
852.617	53.38
852.92	53.74
853.224	56.26
853.528	56.37
853.831	55.53
854.135	56.22
854.438	57.15
854.742	58.56
855.045	58.22
855.349	59.18
855.652	59.71
855.955	60.24
856.259	59.75
856.562	58.29
856.865	57.97
857.168	55.89
857.471	55.27
857.774	56.31
858.077	55.51
858.38	52.57
858.683	54.83
858.986	54.55
859.289	53.63
859.592	52.22
859.894	52.64
860.197	52.28
860.5	51.15
860.802	50.14
861.105	48.46
861.407	48.04
861.71	45.81
862.012	48.6
862.315	47.96
862.617	47.81
862.919	48.49
863.222	45.05
863.524	43.65
863.826	43.14
864.128	43.75
864.43	44.16
864.732	43.45
865.034	41.32
865.336	40.7
865.638	42.05
865.94	42.45
866.242	42.48
866.544	46.8
866.846	46.17
867.147	46.25
867.449	48.61
867.751	52.54
868.052	53.59
868.354	51.22
868.655	49.74
868.957	51.75
869.258	51.08
869.56	54.7
869.861	58.58
870.162	56.59
870.463	54.64
870.765	52.89
871.066	55.93
871.367	54.51
871.668	55.52
871.969	54.95
872.27	57.06
872.571	58.72
872.872	53.57
873.173	54.34
873.473	54
873.774	55.99
874.075	51.45
874.376	49.49
874.676	49.96
874.977	51.5
875.277	51
875.578	52.52
875.878	51.37
876.179	50.04
876.479	51.4
876.78	53.38
877.08	56.43
877.38	54.63
877.68	57.9
877.981	58.04
878.281	57.33
878.581	54.92
