Data from BA35141_Reflection_00003.txt Node
Date: Tue Nov 19 11:54:33 EST 2019
User: vgr7
Spectrometer: USB2G7710
Scans to average: 3
Trigger mode: 4
Integration Time (sec): 2.000000E-2
Electric dark correction enabled: true
Boxcar width: 10
XAxis mode: Wavelengths
Number of Pixels in Spectrum: 2048
>>>>>Begin Spectral Data<<<<<
177.721	-216.85
178.105	808.33
178.488	96.05
178.871	35.09
179.254	55.07
179.636	44.04
180.019	-12.84
180.402	1150
180.785	115.32
181.168	-101.58
181.55	-17.16
181.933	35.05
182.316	31.18
182.698	48.04
183.081	35.51
183.463	131.81
183.846	47.42
184.228	33.54
184.611	-5.2
184.993	-22.22
185.376	36.45
185.758	47.45
186.14	75.36
186.522	-128.68
186.904	133.33
187.287	97.35
187.669	453.33
188.051	-111.71
188.433	-47.51
188.815	-10.02
189.197	-101.75
189.579	663.49
189.961	293.99
190.342	195.87
190.724	191.02
191.106	723.46
191.488	259.5
191.869	154.78
192.251	94.42
192.633	56.94
193.014	65.44
193.396	91.69
193.777	92.65
194.159	95.26
194.54	41.44
194.922	26.78
195.303	2.36
195.684	-4.86
196.065	-5.77
196.447	0.18
196.828	1.45
197.209	-2.8
197.59	-8.05
197.971	-2.27
198.352	-0.09
198.733	-13.5
199.114	-9.51
199.495	-4.86
199.876	-7.77
200.257	-7.38
200.638	-13.08
201.018	-30.42
201.399	-30.69
201.78	-39.37
202.16	-57.38
202.541	-40.37
202.922	-32.82
203.302	-22.04
203.683	-52.03
204.063	-148.72
204.444	-118.21
204.824	-64.65
205.204	-56.01
205.585	-71.02
205.965	-69.62
206.345	-49.41
206.725	-13.85
207.106	-16.95
207.486	-33.65
207.866	-11.98
208.246	-5
208.626	-31.19
209.006	-22.7
209.386	-27.28
209.766	-32.16
210.145	-13.16
210.525	-45.66
210.905	-60.62
211.285	-33.41
211.664	-18.25
212.044	-16.38
212.424	-5.28
212.803	-13.36
213.183	-1.43
213.562	7.17
213.942	-0.57
214.321	-2.05
214.701	-33.24
215.08	-15.55
215.459	21.71
215.838	-3.67
216.218	-18.4
216.597	33.46
216.976	16.38
217.355	-5.14
217.734	-2.86
218.113	4.07
218.492	24.1
218.871	40.7
219.25	28.67
219.629	-2.1
220.008	7.75
220.387	-6.61
220.766	-27.16
221.144	-30.34
221.523	-52.03
221.902	-58.12
222.28	-37.24
222.659	-12.6
223.037	-28.68
223.416	-27.37
223.794	-16.03
224.173	-26.02
224.551	-19.09
224.929	-11.65
225.308	-16.94
225.686	-12.52
226.064	-21.04
226.442	-15.62
226.821	-16.61
227.199	-13.21
227.577	-6.36
227.955	-5.91
228.333	-12.11
228.711	-5.12
229.089	-6.95
229.467	-2.6
229.845	-2.68
230.222	-2.83
230.6	-3.76
230.978	-0.68
231.356	-0.15
231.733	-0.58
232.111	1.9
232.488	-0.37
232.866	1
233.243	4.05
233.621	4.86
233.998	8.84
234.376	8.81
234.753	8.45
235.13	8.62
235.508	9.76
235.885	8.44
236.262	9.83
236.639	9.39
237.016	8.82
237.393	8.89
237.77	8.6
238.147	7.14
238.524	7.02
238.901	6.26
239.278	4.93
239.655	4.34
240.032	4.37
240.409	4.75
240.785	4.13
241.162	4.73
241.539	4.36
241.915	4.11
242.292	5.09
242.668	5.05
243.045	5.38
243.421	5.65
243.798	6.28
244.174	6.71
244.551	6.47
244.927	6.26
245.303	5.79
245.679	5.76
246.056	5.8
246.432	5.93
246.808	6.02
247.184	6.22
247.56	6.07
247.936	6.14
248.312	6.12
248.688	6.37
249.064	6.09
249.44	6
249.815	5.87
250.191	5.58
250.567	5.57
250.943	5.67
251.318	5.31
251.694	4.73
252.069	4.64
252.445	4.77
252.82	5.17
253.196	5.18
253.571	5.39
253.947	5.63
254.322	5.53
254.697	5.64
255.073	5.5
255.448	5.85
255.823	5.56
256.198	5.64
256.573	5.61
256.948	5.65
257.323	5.81
257.698	5.75
258.073	5.6
258.448	5.78
258.823	5.69
259.198	5.87
259.573	6.01
259.948	6.02
260.322	5.92
260.697	5.89
261.072	6.07
261.446	5.99
261.821	5.86
262.195	5.83
262.57	5.96
262.944	6.05
263.319	6.15
263.693	6.21
264.067	6.19
264.442	5.97
264.816	5.86
265.19	5.78
265.564	5.85
265.938	5.87
266.313	5.68
266.687	5.51
267.061	5.22
267.435	5.1
267.809	4.99
268.183	4.96
268.556	4.84
268.93	4.82
269.304	4.85
269.678	5.02
270.051	4.93
270.425	4.81
270.799	4.75
271.172	4.59
271.546	4.68
271.919	4.61
272.293	4.77
272.666	4.81
273.04	4.78
273.413	4.66
273.787	4.67
274.16	4.62
274.533	4.61
274.906	4.91
275.279	5.06
275.653	5.15
276.026	5.07
276.399	5.35
276.772	5.22
277.145	5
277.518	4.83
277.891	4.87
278.263	5.05
278.636	5.1
279.009	5.2
279.382	5.13
279.755	5.28
280.127	5.31
280.5	5.38
280.872	5.57
281.245	5.82
281.617	5.8
281.99	5.82
282.362	5.87
282.735	5.58
283.107	5.35
283.479	5.23
283.852	5.31
284.224	5.3
284.596	5.4
284.968	5.41
285.34	5.51
285.713	5.65
286.085	5.41
286.457	5.3
286.829	5.25
287.201	5.24
287.572	5.26
287.944	5.2
288.316	5.13
288.688	5.12
289.06	5.01
289.431	5.09
289.803	5.19
290.175	5.18
290.546	5.23
290.918	5.43
291.289	5.39
291.661	5.39
292.032	5.17
292.403	5.06
292.775	5.32
293.146	5.3
293.517	5.22
293.889	5.24
294.26	5.28
294.631	5.51
295.002	5.57
295.373	5.52
295.744	5.52
296.115	5.54
296.486	5.45
296.857	5.36
297.228	5.27
297.599	5.18
297.97	5.21
298.34	5.34
298.711	5.31
299.082	5.22
299.452	5.17
299.823	5.16
300.194	5.27
300.564	5.23
300.935	5.24
301.305	5.27
301.676	5.18
302.046	5.27
302.416	4.91
302.787	4.93
303.157	4.92
303.527	4.84
303.897	4.9
304.267	4.88
304.637	4.93
305.008	5.01
305.378	5.09
305.748	5.1
306.117	4.88
306.487	4.91
306.857	5.03
307.227	5.07
307.597	5.08
307.967	4.94
308.336	4.72
308.706	4.85
309.076	4.76
309.445	4.89
309.815	4.79
310.184	4.85
310.554	4.75
310.923	4.7
311.293	4.71
311.662	4.59
312.031	4.43
312.401	4.47
312.77	4.48
313.139	4.44
313.508	4.4
313.877	4.63
314.246	4.57
314.616	4.49
314.985	4.55
315.353	4.64
315.722	5.01
316.091	5.1
316.46	4.96
316.829	4.92
317.198	4.86
317.567	5.08
317.935	5
318.304	4.98
318.672	5.01
319.041	5.07
319.41	5.14
319.778	5.27
320.147	5.25
320.515	5.4
320.883	5.51
321.252	5.47
321.62	5.27
321.988	5.23
322.357	5.24
322.725	5.15
323.093	5.21
323.461	4.99
323.829	5.05
324.197	5.17
324.565	5.29
324.933	5.4
325.301	5.09
325.669	5.1
326.037	5.17
326.405	5.19
326.772	5.09
327.14	5.18
327.508	5.31
327.875	5.33
328.243	5.12
328.61	5
328.978	4.89
329.346	4.86
329.713	5
330.08	5.15
330.448	5.19
330.815	5.06
331.182	5.05
331.55	5
331.917	4.92
332.284	4.87
332.651	4.74
333.018	4.92
333.385	5.13
333.752	5.11
334.119	5.14
334.486	5.38
334.853	5.33
335.22	5.31
335.587	5.29
335.954	5.23
336.32	5.26
336.687	5.28
337.054	5.1
337.42	4.97
337.787	4.95
338.153	4.96
338.52	5.03
338.886	4.91
339.253	4.88
339.619	4.81
339.986	4.7
340.352	4.82
340.718	4.76
341.084	4.67
341.451	4.71
341.817	4.75
342.183	4.58
342.549	4.7
342.915	4.66
343.281	4.75
343.647	4.89
344.013	4.88
344.379	4.94
344.745	5.13
345.11	5.17
345.476	5.2
345.842	5.16
346.208	5.03
346.573	5.17
346.939	5.2
347.304	5.27
347.67	5.4
348.035	5.43
348.401	5.53
348.766	5.55
349.132	5.53
349.497	5.42
349.862	5.49
350.228	5.39
350.593	5.39
350.958	5.37
351.323	5.3
351.688	5.3
352.053	5.25
352.418	5.27
352.783	5.27
353.148	5.29
353.513	5.35
353.878	5.25
354.243	5.16
354.608	5.19
354.972	5.13
355.337	5.06
355.702	5.03
356.066	5.01
356.431	4.96
356.795	4.97
357.16	4.98
357.524	4.9
357.889	4.92
358.253	4.92
358.618	4.86
358.982	4.88
359.346	4.96
359.71	4.98
360.075	5.01
360.439	5.04
360.803	5.05
361.167	4.99
361.531	5.15
361.895	5.11
362.259	5.1
362.623	5.16
362.987	5.18
363.351	5.2
363.714	5.19
364.078	5.22
364.442	5.22
364.806	5.2
365.169	5.27
365.533	5.25
365.896	5.28
366.26	5.33
366.623	5.35
366.987	5.37
367.35	5.38
367.714	5.3
368.077	5.26
368.44	5.32
368.803	5.3
369.167	5.22
369.53	5.27
369.893	5.28
370.256	5.21
370.619	5.17
370.982	5.05
371.345	5.12
371.708	5.09
372.071	5.07
372.434	5.07
372.797	5.12
373.159	5.1
373.522	5.09
373.885	5.09
374.247	5.07
374.61	5
374.973	4.98
375.335	5
375.698	4.97
376.06	4.91
376.423	4.98
376.785	4.98
377.147	4.97
377.51	4.97
377.872	4.97
378.234	5.04
378.596	5.14
378.958	5.11
379.321	5.13
379.683	5.16
380.045	5.17
380.407	5.1
380.769	5.16
381.13	5.12
381.492	5.1
381.854	5.07
382.216	5.11
382.578	5.14
382.939	5.17
383.301	5.22
383.663	5.2
384.024	5.16
384.386	5.17
384.747	5.15
385.109	5.12
385.47	5.16
385.832	5.14
386.193	5.12
386.554	5.09
386.916	5.05
387.277	5.02
387.638	5.06
387.999	5.08
388.36	5.04
388.721	5.04
389.082	5.06
389.443	5.06
389.804	5.09
390.165	5.13
390.526	5.13
390.887	5.1
391.248	5.12
391.609	5.12
391.969	5.14
392.33	5.13
392.691	5.13
393.051	5.11
393.412	5.12
393.772	5.13
394.133	5.15
394.493	5.16
394.854	5.2
395.214	5.2
395.574	5.16
395.935	5.21
396.295	5.23
396.655	5.22
397.015	5.25
397.376	5.18
397.736	5.13
398.096	5.12
398.456	5.16
398.816	5.11
399.176	5.11
399.535	5.08
399.895	5.11
400.255	5.13
400.615	5.11
400.975	5.1
401.334	5.11
401.694	5.08
402.054	5.08
402.413	5.07
402.773	5.04
403.132	5.07
403.492	5.05
403.851	5.02
404.211	5
404.57	5
404.929	5.01
405.288	5.03
405.648	5.04
406.007	5
406.366	5.01
406.725	5.04
407.084	5.06
407.443	5.03
407.802	5.02
408.161	5.07
408.52	5.07
408.879	5.05
409.238	5.08
409.596	5.12
409.955	5.1
410.314	5.12
410.673	5.1
411.031	5.12
411.39	5.15
411.748	5.17
412.107	5.17
412.465	5.18
412.824	5.18
413.182	5.19
413.54	5.21
413.899	5.21
414.257	5.2
414.615	5.2
414.974	5.25
415.332	5.24
415.69	5.21
416.048	5.2
416.406	5.2
416.764	5.19
417.122	5.16
417.48	5.15
417.838	5.15
418.195	5.15
418.553	5.13
418.911	5.11
419.269	5.1
419.626	5.09
419.984	5.1
420.342	5.08
420.699	5.06
421.057	5.07
421.414	5.09
421.772	5.08
422.129	5.08
422.486	5.04
422.844	5.04
423.201	5.04
423.558	5.05
423.915	5.05
424.273	5.07
424.63	5.07
424.987	5.08
425.344	5.08
425.701	5.06
426.058	5.06
426.415	5.07
426.772	5.07
427.128	5.08
427.485	5.07
427.842	5.07
428.199	5.05
428.555	5.05
428.912	5.03
429.269	5.03
429.625	5.03
429.982	5.05
430.338	5.08
430.695	5.09
431.051	5.06
431.407	5.03
431.764	5.03
432.12	5.05
432.476	5.06
432.832	5.06
433.189	5.07
433.545	5.05
433.901	5.06
434.257	5.07
434.613	5.07
434.969	5.06
435.325	5.09
435.681	5.11
436.036	5.1
436.392	5.1
436.748	5.11
437.104	5.11
437.459	5.1
437.815	5.1
438.171	5.09
438.526	5.1
438.882	5.12
439.237	5.1
439.593	5.09
439.948	5.09
440.304	5.06
440.659	5.06
441.014	5.07
441.369	5.08
441.725	5.07
442.08	5.07
442.435	5.09
442.79	5.07
443.145	5.06
443.5	5.07
443.855	5.07
444.21	5.07
444.565	5.06
444.92	5.05
445.275	5.05
445.629	5.04
445.984	5.05
446.339	5.05
446.693	5.03
447.048	5.03
447.403	5.02
447.757	5.01
448.112	5.02
448.466	5.04
448.82	5.05
449.175	5.04
449.529	5.04
449.883	5.03
450.238	5.03
450.592	5.03
450.946	5.03
451.3	5.05
451.654	5.02
452.008	5.03
452.362	5.03
452.716	5.02
453.07	5.03
453.424	5.02
453.778	5.03
454.132	5.05
454.486	5.06
454.839	5.07
455.193	5.09
455.547	5.1
455.9	5.1
456.254	5.07
456.607	5.09
456.961	5.09
457.314	5.1
457.668	5.08
458.021	5.07
458.375	5.08
458.728	5.08
459.081	5.09
459.434	5.07
459.787	5.07
460.141	5.08
460.494	5.08
460.847	5.08
461.2	5.07
461.553	5.07
461.906	5.07
462.259	5.07
462.611	5.05
462.964	5.05
463.317	5.06
463.67	5.08
464.022	5.07
464.375	5.08
464.728	5.07
465.08	5.09
465.433	5.1
465.785	5.09
466.138	5.11
466.49	5.14
466.843	5.16
467.195	5.19
467.547	5.18
467.899	5.2
468.252	5.2
468.604	5.21
468.956	5.23
469.308	5.21
469.66	5.22
470.012	5.25
470.364	5.26
470.716	5.25
471.068	5.26
471.42	5.24
471.772	5.26
472.123	5.27
472.475	5.32
472.827	5.31
473.178	5.3
473.53	5.28
473.882	5.25
474.233	5.25
474.585	5.23
474.936	5.25
475.288	5.24
475.639	5.27
475.99	5.25
476.342	5.23
476.693	5.25
477.044	5.26
477.395	5.26
477.746	5.24
478.097	5.24
478.448	5.23
478.8	5.23
479.15	5.21
479.501	5.2
479.852	5.18
480.203	5.18
480.554	5.19
480.905	5.19
481.255	5.22
481.606	5.23
481.957	5.25
482.307	5.26
482.658	5.25
483.009	5.26
483.359	5.25
483.709	5.25
484.06	5.26
484.41	5.26
484.761	5.27
485.111	5.28
485.461	5.28
485.811	5.29
486.162	5.3
486.512	5.3
486.862	5.3
487.212	5.3
487.562	5.3
487.912	5.31
488.262	5.32
488.612	5.32
488.961	5.31
489.311	5.29
489.661	5.28
490.011	5.29
490.36	5.28
490.71	5.3
491.06	5.31
491.409	5.31
491.759	5.31
492.108	5.29
492.458	5.28
492.807	5.28
493.157	5.27
493.506	5.27
493.855	5.26
494.204	5.28
494.554	5.3
494.903	5.3
495.252	5.3
495.601	5.3
495.95	5.3
496.299	5.31
496.648	5.33
496.997	5.33
497.346	5.35
497.695	5.35
498.043	5.35
498.392	5.34
498.741	5.33
499.09	5.32
499.438	5.35
499.787	5.35
500.135	5.37
500.484	5.38
500.832	5.37
501.181	5.38
501.529	5.37
501.878	5.34
502.226	5.35
502.574	5.37
502.923	5.35
503.271	5.35
503.619	5.35
503.967	5.32
504.315	5.33
504.663	5.34
505.011	5.36
505.359	5.38
505.707	5.38
506.055	5.39
506.403	5.39
506.751	5.38
507.098	5.39
507.446	5.39
507.794	5.36
508.141	5.38
508.489	5.38
508.837	5.36
509.184	5.38
509.531	5.37
509.879	5.37
510.226	5.38
510.574	5.4
510.921	5.39
511.268	5.4
511.616	5.41
511.963	5.4
512.31	5.39
512.657	5.38
513.004	5.37
513.351	5.38
513.698	5.38
514.045	5.37
514.392	5.35
514.739	5.36
515.086	5.38
515.432	5.39
515.779	5.38
516.126	5.43
516.473	5.42
516.819	5.43
517.166	5.42
517.512	5.43
517.859	5.43
518.205	5.42
518.552	5.44
518.898	5.44
519.245	5.45
519.591	5.44
519.937	5.42
520.283	5.43
520.629	5.42
520.976	5.43
521.322	5.45
521.668	5.49
522.014	5.47
522.36	5.45
522.706	5.43
523.052	5.43
523.398	5.41
523.743	5.43
524.089	5.44
524.435	5.44
524.781	5.44
525.126	5.44
525.472	5.45
525.817	5.46
526.163	5.45
526.509	5.44
526.854	5.46
527.199	5.48
527.545	5.48
527.89	5.47
528.235	5.47
528.581	5.48
528.926	5.48
529.271	5.5
529.616	5.52
529.961	5.52
530.306	5.53
530.651	5.53
530.996	5.53
531.341	5.53
531.686	5.54
532.031	5.55
532.376	5.56
532.721	5.56
533.065	5.56
533.41	5.57
533.755	5.58
534.099	5.57
534.444	5.57
534.788	5.59
535.133	5.61
535.477	5.61
535.822	5.6
536.166	5.62
536.51	5.63
536.855	5.62
537.199	5.63
537.543	5.65
537.887	5.66
538.231	5.66
538.576	5.66
538.92	5.69
539.264	5.69
539.608	5.68
539.951	5.69
540.295	5.7
540.639	5.7
540.983	5.71
541.327	5.73
541.671	5.72
542.014	5.74
542.358	5.74
542.701	5.76
543.045	5.77
543.389	5.76
543.732	5.74
544.075	5.74
544.419	5.74
544.762	5.73
545.105	5.74
545.449	5.76
545.792	5.77
546.135	5.75
546.478	5.77
546.821	5.76
547.165	5.76
547.508	5.74
547.851	5.72
548.194	5.71
548.536	5.69
548.879	5.71
549.222	5.69
549.565	5.67
549.908	5.66
550.25	5.67
550.593	5.69
550.936	5.69
551.278	5.7
551.621	5.7
551.963	5.7
552.306	5.71
552.648	5.68
552.991	5.67
553.333	5.66
553.675	5.66
554.017	5.69
554.36	5.71
554.702	5.74
555.044	5.76
555.386	5.76
555.728	5.78
556.07	5.76
556.412	5.73
556.754	5.7
557.096	5.69
557.438	5.67
557.78	5.64
558.121	5.65
558.463	5.65
558.805	5.67
559.147	5.68
559.488	5.67
559.83	5.7
560.171	5.74
560.513	5.79
560.854	5.75
561.196	5.73
561.537	5.72
561.878	5.74
562.22	5.75
562.561	5.79
562.902	5.8
563.243	5.82
563.584	5.87
563.925	5.92
564.266	5.92
564.607	5.92
564.948	5.92
565.289	5.93
565.63	5.93
565.971	5.94
566.312	5.91
566.653	5.91
566.993	5.87
567.334	5.87
567.675	5.85
568.015	5.9
568.356	5.93
568.696	5.95
569.037	5.94
569.377	5.93
569.718	5.92
570.058	5.89
570.398	5.9
570.739	5.85
571.079	5.83
571.419	5.86
571.759	5.87
572.099	5.89
572.439	5.88
572.779	5.9
573.119	5.9
573.459	5.9
573.799	5.92
574.139	5.93
574.479	5.9
574.819	5.91
575.158	5.91
575.498	5.91
575.838	5.92
576.177	5.89
576.517	5.89
576.856	5.9
577.196	5.88
577.535	5.9
577.875	5.92
578.214	5.93
578.553	5.95
578.893	5.92
579.232	5.91
579.571	5.92
579.91	5.89
580.25	5.9
580.589	5.92
580.928	5.9
581.267	5.93
581.606	5.95
581.945	5.93
582.283	5.93
582.622	5.92
582.961	5.91
583.3	5.97
583.639	5.99
583.977	5.93
584.316	5.97
584.654	5.97
584.993	5.98
585.332	5.97
585.67	5.97
586.008	5.98
586.347	5.99
586.685	5.99
587.024	6.01
587.362	6
587.7	6.04
588.038	6.06
588.376	6.04
588.715	6.04
589.053	6.07
589.391	6.07
589.729	6.05
590.067	6.01
590.404	5.99
590.742	5.96
591.08	6
591.418	6.03
591.756	5.96
592.093	5.99
592.431	6
592.769	6.01
593.106	6.01
593.444	6.05
593.781	6.05
594.119	6.04
594.456	6.05
594.793	6.01
595.131	6.04
595.468	6.06
595.805	6.07
596.143	6.05
596.48	6.09
596.817	6.1
597.154	6.13
597.491	6.16
597.828	6.19
598.165	6.18
598.502	6.15
598.839	6.2
599.176	6.17
599.512	6.23
599.849	6.19
600.186	6.16
600.523	6.18
600.859	6.15
601.196	6.16
601.532	6.16
601.869	6.2
602.205	6.17
602.542	6.15
602.878	6.15
603.215	6.18
603.551	6.11
603.887	6.12
604.223	6.11
604.56	6.07
604.896	6.08
605.232	6.1
605.568	6.09
605.904	6.05
606.24	6.08
606.576	6.06
606.912	6.11
607.248	6.12
607.583	6.08
607.919	6.11
608.255	6.14
608.591	6.15
608.926	6.09
609.262	6.06
609.597	6.03
609.933	6.02
610.268	6
610.604	5.98
610.939	6
611.275	5.98
611.61	5.98
611.945	5.94
612.281	5.98
612.616	6.04
612.951	6.1
613.286	6.11
613.621	6.12
613.956	6.1
614.291	6.16
614.626	6.18
614.961	6.14
615.296	6.15
615.631	6.17
615.966	6.25
616.3	6.28
616.635	6.3
616.97	6.28
617.304	6.29
617.639	6.34
617.973	6.3
618.308	6.39
618.642	6.41
618.977	6.41
619.311	6.39
619.646	6.41
619.98	6.44
620.314	6.36
620.648	6.34
620.983	6.34
621.317	6.3
621.651	6.31
621.985	6.38
622.319	6.32
622.653	6.28
622.987	6.21
623.321	6.24
623.655	6.29
623.988	6.3
624.322	6.27
624.656	6.23
624.99	6.24
625.323	6.17
625.657	6.18
625.99	6.26
626.324	6.23
626.657	6.13
626.991	6.06
627.324	6.05
627.658	6.03
627.991	6.03
628.324	6.01
628.657	5.99
628.991	5.95
629.324	5.99
629.657	5.99
629.99	6.05
630.323	6.02
630.656	5.99
630.989	6.02
631.322	6.05
631.655	6.09
631.987	6.12
632.32	6.17
632.653	6.08
632.986	6.03
633.318	6.11
633.651	6.19
633.984	6.2
634.316	6.21
634.649	6.27
634.981	6.21
635.313	6.23
635.646	6.22
635.978	6.23
636.31	6.25
636.643	6.23
636.975	6.19
637.307	6.24
637.639	6.28
637.971	6.23
638.303	6.22
638.635	6.24
638.967	6.23
639.299	6.16
639.631	6.22
639.963	6.21
640.295	6.19
640.626	6.22
640.958	6.27
641.29	6.36
641.621	6.33
641.953	6.34
642.285	6.39
642.616	6.44
642.948	6.44
643.279	6.37
643.61	6.43
643.942	6.48
644.273	6.46
644.604	6.41
644.936	6.47
645.267	6.46
645.598	6.46
645.929	6.44
646.26	6.46
646.591	6.55
646.922	6.61
647.253	6.47
647.584	6.43
647.915	6.36
648.245	6.31
648.576	6.27
648.907	6.35
649.238	6.31
649.568	6.32
649.899	6.34
650.229	6.43
650.56	6.46
650.89	6.48
651.221	6.48
651.551	6.48
651.882	6.45
652.212	6.51
652.542	6.51
652.872	6.49
653.203	6.55
653.533	6.57
653.863	6.59
654.193	6.68
654.523	6.63
654.853	6.74
655.183	6.71
655.513	6.73
655.843	6.73
656.172	6.76
656.502	6.71
656.832	6.65
657.162	6.58
657.491	6.53
657.821	6.5
658.15	6.51
658.48	6.55
658.809	6.55
659.139	6.46
659.468	6.48
659.798	6.55
660.127	6.55
660.456	6.44
660.785	6.37
661.115	6.33
661.444	6.39
661.773	6.36
662.102	6.4
662.431	6.46
662.76	6.48
663.089	6.45
663.418	6.43
663.747	6.46
664.076	6.49
664.404	6.53
664.733	6.49
665.062	6.56
665.39	6.41
665.719	6.39
666.048	6.44
666.376	6.44
666.705	6.42
667.033	6.41
667.362	6.53
667.69	6.61
668.018	6.69
668.347	6.66
668.675	6.67
669.003	6.65
669.331	6.67
669.659	6.59
669.987	6.57
670.315	6.64
670.643	6.63
670.971	6.68
671.299	6.66
671.627	6.72
671.955	6.64
672.283	6.7
672.61	6.68
672.938	6.82
673.266	6.79
673.593	6.74
673.921	6.77
674.249	6.66
674.576	6.66
674.904	6.59
675.231	6.62
675.558	6.7
675.886	6.68
676.213	6.64
676.54	6.67
676.867	6.73
677.195	6.76
677.522	6.83
677.849	6.83
678.176	6.76
678.503	6.66
678.83	6.63
679.157	6.78
679.484	6.85
679.81	6.77
680.137	6.87
680.464	6.94
680.791	6.88
681.117	6.95
681.444	6.91
681.771	6.92
682.097	6.98
682.424	6.87
682.75	6.98
683.077	6.97
683.403	7.02
683.729	6.94
684.056	6.95
684.382	6.89
684.708	6.96
685.034	7.01
685.36	7.1
685.686	7.18
686.012	7.16
686.339	7.03
686.664	7.06
686.99	6.91
687.316	6.92
687.642	6.93
687.968	6.96
688.294	6.95
688.619	7
688.945	6.8
689.271	6.8
689.596	6.67
689.922	6.72
690.247	6.66
690.573	6.7
690.898	6.79
691.224	6.8
691.549	6.82
691.874	6.83
692.2	6.83
692.525	6.74
692.85	6.77
693.175	6.95
693.5	6.92
693.825	6.98
694.15	6.87
694.475	6.85
694.8	6.74
695.125	6.69
695.45	6.64
695.775	6.7
696.099	6.84
696.424	6.9
696.749	6.94
697.073	6.95
697.398	6.97
697.723	6.92
698.047	7.02
698.372	6.97
698.696	7.04
699.02	7.08
699.345	7.2
699.669	7.22
699.993	7.22
700.318	7.23
700.642	7.32
700.966	7.4
701.29	7.6
701.614	7.69
701.938	7.8
702.262	7.79
702.586	7.96
702.91	7.87
703.234	7.79
703.557	7.75
703.881	7.8
704.205	7.81
704.529	7.71
704.852	7.63
705.176	7.6
705.499	7.6
705.823	7.58
706.146	7.42
706.47	7.37
706.793	7.28
707.117	7.17
707.44	7.16
707.763	7.05
708.086	6.92
708.409	6.88
708.733	6.73
709.056	6.88
709.379	6.8
709.702	6.86
710.025	7.09
710.348	7.16
710.671	7.09
710.993	7.11
711.316	7.28
711.639	7.25
711.962	7.31
712.284	7.33
712.607	7.27
712.93	7.24
713.252	7.26
713.575	7.16
713.897	7.2
714.22	7.16
714.542	7.34
714.864	7.19
715.187	7.16
715.509	7.15
715.831	6.95
716.153	6.94
716.475	6.95
716.798	6.78
717.12	6.69
717.442	6.76
717.764	6.72
718.085	6.68
718.407	6.74
718.729	6.66
719.051	6.59
719.373	6.62
719.695	6.73
720.016	6.55
720.338	6.76
720.659	6.79
720.981	6.67
721.302	6.59
721.624	6.66
721.945	6.82
722.267	6.95
722.588	7.05
722.909	7.08
723.231	7.14
723.552	7.13
723.873	7.05
724.194	7.1
724.515	7.21
724.836	7.02
725.157	6.91
725.478	7.01
725.799	7.02
726.12	7.09
726.441	7.08
726.762	7.43
727.083	7.57
727.403	7.59
727.724	7.75
728.045	7.88
728.365	7.77
728.686	7.6
729.006	7.54
729.327	7.73
729.647	7.68
729.967	7.46
730.288	7.55
730.608	7.61
730.928	7.54
731.249	7.55
731.569	7.73
731.889	7.7
732.209	7.68
732.529	7.71
732.849	7.75
733.169	7.63
733.489	7.29
733.809	7.22
734.129	7.22
734.448	7.12
734.768	6.85
735.088	6.96
735.408	6.91
735.727	6.96
736.047	6.91
736.366	6.81
736.686	7.03
737.005	7.11
737.325	7.27
737.644	7.2
737.963	7.06
738.283	6.99
738.602	7.15
738.921	7.19
739.24	7.26
739.56	7.26
739.879	7.22
740.198	7.38
740.517	7.21
740.836	7.07
741.155	7.13
741.473	7.4
741.792	7.49
742.111	7.83
742.43	7.77
742.748	7.76
743.067	7.94
743.386	7.78
743.704	7.87
744.023	7.96
744.341	8.22
744.66	8.24
744.978	8.05
745.297	7.93
745.615	7.73
745.933	7.66
746.252	7.65
746.57	7.9
746.888	8.04
747.206	8.11
747.524	8.22
747.842	8.12
748.16	8.11
748.478	8.19
748.796	8.16
749.114	8.36
749.432	8.48
749.749	8.48
750.067	8.61
750.385	8.31
750.703	8.12
751.02	7.8
751.338	7.84
751.655	8.19
751.973	8.21
752.29	8.16
752.608	7.81
752.925	7.71
753.242	7.69
753.56	7.37
753.877	7.6
754.194	7.6
754.511	7.68
754.828	7.54
755.145	7.5
755.462	7.15
755.779	7.24
756.096	7.31
756.413	7.1
756.73	7.26
757.047	7.47
757.364	7.49
757.68	7.81
757.997	8.15
758.314	8.18
758.63	8.36
758.947	8.81
759.264	9.24
759.58	9.27
759.896	9.46
760.213	9.56
760.529	9.48
760.846	9.6
761.162	9.6
761.478	9.46
761.794	9.55
762.11	9.7
762.426	9.52
762.743	9.34
763.059	9.49
763.375	9.52
763.69	9.61
764.006	9.57
764.322	9.44
764.638	9.41
764.954	9.31
765.27	9.29
765.585	9.2
765.901	8.99
766.216	8.9
766.532	8.82
766.848	8.95
767.163	8.94
767.478	8.91
767.794	9.04
768.109	9.37
768.424	9.3
768.74	9.2
769.055	9.35
769.37	9.34
769.685	9.51
770	9.38
770.315	9.07
770.63	9.24
770.945	9.66
771.26	9.56
771.575	9.65
771.89	9.32
772.205	9.45
772.52	9.83
772.834	10.2
773.149	10.26
773.464	9.88
773.778	10
774.093	9.98
774.407	9.74
774.722	9.22
775.036	9.26
775.351	9.57
775.665	9.7
775.979	10.05
776.293	9.78
776.608	9.47
776.922	9.3
777.236	9.01
777.55	8.28
777.864	8.23
778.178	8.18
778.492	8.79
778.806	8.4
779.12	8.26
779.434	8.11
779.747	8.13
780.061	8.54
780.375	8.64
780.689	9.12
781.002	9.46
781.316	9.93
781.629	9.77
781.943	9.6
782.256	9.56
782.57	8.97
782.883	9.37
783.196	9.49
783.51	9.96
783.823	10.56
784.136	10.98
784.449	10.98
784.762	11.68
785.075	11.62
785.388	11.88
785.701	11.68
786.014	11.86
786.327	12.14
786.64	12.05
786.953	11.69
787.266	11.24
787.578	10.94
787.891	11.03
788.204	10.71
788.516	10.82
788.829	10.7
789.141	10.83
789.454	10.04
789.766	10.66
790.079	10.46
790.391	10.16
790.703	10.05
791.016	9.73
791.328	9.31
791.64	9.3
791.952	9.75
792.264	10.04
792.576	10.22
792.888	9.49
793.2	9.53
793.512	10.05
793.824	10.45
794.136	10.62
794.448	10.47
794.76	11.15
795.071	11.38
795.383	11.46
795.695	11.75
796.006	11.99
796.318	11.83
796.629	12.06
796.941	12.37
797.252	12.36
797.564	12.58
797.875	12.55
798.186	12.39
798.497	11.54
798.809	11.33
799.12	11.16
799.431	12
799.742	12.45
800.053	12.12
800.364	11.85
800.675	11.79
800.986	11.74
801.297	11.52
801.608	11.35
801.918	11.28
802.229	11.1
802.54	11.65
802.851	11.31
803.161	11.06
803.472	10.66
803.782	11.44
804.093	11.74
804.403	11.55
804.714	11.54
805.024	11.73
805.334	11.67
805.645	11.51
805.955	11.16
806.265	10.74
806.575	10.51
806.885	10.69
807.195	10.48
807.505	10.87
807.815	10.78
808.125	10.63
808.435	11.05
808.745	11.13
809.055	11.47
809.365	11.77
809.674	11.52
809.984	11.31
810.294	10.57
810.603	10.1
810.913	9.8
811.222	10.15
811.532	10.85
811.841	11.57
812.151	11.86
812.46	11.94
812.769	12.38
813.079	12.35
813.388	12.42
813.697	12.65
814.006	12.21
814.315	12.39
814.624	12.93
814.933	12.74
815.242	12.43
815.551	11.76
815.86	12.32
816.169	12.65
816.478	12.78
816.786	12.83
817.095	12.65
817.404	12.82
817.712	12.43
818.021	12.48
818.33	11.89
818.638	11.46
818.947	11.32
819.255	11.32
819.563	11.45
819.872	11.09
820.18	11.24
820.488	11.11
820.796	11.17
821.105	11.26
821.413	11.01
821.721	11.04
822.029	10.94
822.337	10.55
822.645	10.67
822.953	10.8
823.26	11.06
823.568	11.3
823.876	11.19
824.184	11.04
824.491	10.89
824.799	10.92
825.107	11.08
825.414	11.06
825.722	10.79
826.029	10.72
826.337	10.92
826.644	10.96
826.951	11.14
827.259	11.38
827.566	11.06
827.873	11.25
828.18	11.54
828.488	11.73
828.795	12.04
829.102	12.12
829.409	11.83
829.716	11.67
830.023	11.38
830.329	11.57
830.636	12.07
830.943	12.05
831.25	12.41
831.557	12.11
831.863	11.99
832.17	12.25
832.476	12.98
832.783	12.7
833.089	12.26
833.396	12.07
833.702	11.57
834.009	11.73
834.315	11.49
834.621	10.96
834.928	10.82
835.234	11.03
835.54	10.56
835.846	10.94
836.152	10.84
836.458	10.71
836.764	11.13
837.07	11.04
837.376	10.7
837.682	10.18
837.988	10.25
838.293	10.81
838.599	10.8
838.905	10.27
839.211	10.12
839.516	10.24
839.822	10.68
840.127	10.55
840.433	11.27
840.738	12.06
841.044	11.72
841.349	12.23
841.654	10.76
841.959	12.17
842.265	13.05
842.57	13.14
842.875	13.67
843.18	13.4
843.485	12.52
843.79	12.66
844.095	13.9
844.4	13.61
844.705	14.2
845.01	15.45
845.315	14.82
845.619	15.86
845.924	17.14
846.229	16.96
846.533	17.26
846.838	16.2
847.142	15.89
847.447	17.8
847.751	17.47
848.056	18.82
848.36	19.12
848.664	17.11
848.969	14.95
849.273	16.71
849.577	16.89
849.881	17.72
850.185	19.77
850.489	19.31
850.794	21.55
851.097	20.05
851.401	18.26
851.705	17.14
852.009	15.26
852.313	14.43
852.617	14.46
852.92	15.09
853.224	17.1
853.528	14.87
853.831	14.93
854.135	13.76
854.438	14.06
854.742	12.48
855.045	12.6
855.349	12.35
855.652	10.14
855.955	9.99
856.259	11.13
856.562	11.49
856.865	10.16
857.168	10.09
857.471	10.29
857.774	9.77
858.077	10.58
858.38	11.83
858.683	13.26
858.986	13.83
859.289	13.67
859.592	11.65
859.894	13.62
860.197	12.73
860.5	15.16
860.802	15.74
861.105	16.79
861.407	17.37
861.71	19.19
862.012	18.72
862.315	17.42
862.617	17.15
862.919	16.47
863.222	17.76
863.524	15.76
863.826	13.48
864.128	15.38
864.43	15.77
864.732	14.18
865.034	13.25
865.336	11.97
865.638	11.62
865.94	13.63
866.242	12.92
866.544	15.77
866.846	15.75
867.147	16.83
867.449	15.56
867.751	15.34
868.052	14.99
868.354	16.31
868.655	16.34
868.957	16.95
869.258	15.8
869.56	13.78
869.861	14.72
870.162	16.92
870.463	16.92
870.765	16.45
871.066	15.96
871.367	15.34
871.668	14.1
871.969	12.96
872.27	12
872.571	14.23
872.872	12.54
873.173	11.04
873.473	7.4
873.774	8.21
874.075	7.33
874.376	7.72
874.676	8.12
874.977	9.19
875.277	5.71
875.578	7.4
875.878	7.93
876.179	7.05
876.479	6.29
876.78	4.81
877.08	5.83
877.38	7.38
877.68	7.68
877.981	9.08
878.281	11.1
878.581	8.65
