Data from BA44024_Reflection_00002.txt Node
Date: Tue Nov 19 11:48:34 EST 2019
User: vgr7
Spectrometer: USB2G7710
Scans to average: 3
Trigger mode: 4
Integration Time (sec): 2.000000E-2
Electric dark correction enabled: true
Boxcar width: 10
XAxis mode: Wavelengths
Number of Pixels in Spectrum: 2048
>>>>>Begin Spectral Data<<<<<
177.721	47.57
178.105	-9.15
178.488	28.33
178.871	32.91
179.254	38.46
179.636	54.82
180.019	63.83
180.402	54.55
180.785	-91.78
181.168	-37.52
181.55	-6.59
181.933	-1.36
182.316	8.63
182.698	9.99
183.081	60.5
183.463	92.05
183.846	123.86
184.228	73.98
184.611	-161.15
184.993	-39.5
185.376	-25.76
185.758	-9.41
186.14	-49.47
186.522	35.02
186.904	32.93
187.287	15.7
187.669	19.24
188.051	6.65
188.433	-17.31
188.815	-14.73
189.197	-11.05
189.579	-28.11
189.961	-55.72
190.342	-33.56
190.724	-42.19
191.106	-36.91
191.488	-26.14
191.869	-25.73
192.251	-25.49
192.633	-3.37
193.014	-5.84
193.396	-33.9
193.777	-34.28
194.159	-43.27
194.54	-53.66
194.922	-56.55
195.303	-41.98
195.684	-55.92
196.065	-44.8
196.447	-39.64
196.828	-35.64
197.209	-59.5
197.59	-34.09
197.971	-13.39
198.352	-17.48
198.733	-35.34
199.114	-37.93
199.495	-27.3
199.876	-29.67
200.257	-39.82
200.638	-60.39
201.018	-53.74
201.399	-23.86
201.78	-11.72
202.16	-13.57
202.541	-20.13
202.922	-37.22
203.302	-61.29
203.683	-65.63
204.063	-67.06
204.444	-60.88
204.824	-63.81
205.204	-48.47
205.585	-43.68
205.965	-41.8
206.345	-76.22
206.725	-48.18
207.106	-35.36
207.486	-51.44
207.866	-47.2
208.246	-23.36
208.626	-31.96
209.006	-29.16
209.386	-31.88
209.766	-48.7
210.145	-31.45
210.525	-31.27
210.905	-21.9
211.285	-12.57
211.664	2.5
212.044	-9.31
212.424	-6.17
212.803	-14.44
213.183	-10.76
213.562	-12.77
213.942	-13.87
214.321	4.36
214.701	-4.23
215.08	-19.4
215.459	-15.24
215.838	-22.02
216.218	-34.98
216.597	-23.65
216.976	-34.59
217.355	-35.18
217.734	-35.23
218.113	-26.35
218.492	-28.37
218.871	-18.63
219.25	-15.25
219.629	-24.64
220.008	-5.98
220.387	-6.54
220.766	-1.14
221.144	-3.32
221.523	-3.52
221.902	-6.69
222.28	-8.84
222.659	7.67
223.037	8.97
223.416	5.05
223.794	7.71
224.173	4.66
224.551	5.36
224.929	9.21
225.308	7.88
225.686	0.89
226.064	-11.61
226.442	-7.9
226.821	-8.58
227.199	-8.8
227.577	-5.67
227.955	-11.62
228.333	-16.5
228.711	-14.65
229.089	-13.8
229.467	-13.13
229.845	-9.69
230.222	-6.04
230.6	-11.24
230.978	-9.04
231.356	-7.39
231.733	-5.59
232.111	-2.1
232.488	-0.11
232.866	0.63
233.243	1.12
233.621	4.39
233.998	8.48
234.376	9.68
234.753	7.47
235.13	6.18
235.508	3.58
235.885	4.14
236.262	5.64
236.639	4.56
237.016	5.14
237.393	4.99
237.77	4.9
238.147	4.61
238.524	5.48
238.901	5.19
239.278	4.42
239.655	4.29
240.032	3.8
240.409	3.37
240.785	2.99
241.162	3.04
241.539	3.11
241.915	3.01
242.292	3.43
242.668	4.56
243.045	5.41
243.421	6.4
243.798	6.21
244.174	6.13
244.551	6.2
244.927	6.39
245.303	6.32
245.679	6.12
246.056	6.14
246.432	6.36
246.808	6.46
247.184	6.62
247.56	6.37
247.936	6.57
248.312	6.76
248.688	7.11
249.064	7.28
249.44	6.96
249.815	7.03
250.191	6.84
250.567	6.39
250.943	6.23
251.318	5.91
251.694	5.79
252.069	5.99
252.445	6.22
252.82	6.39
253.196	6.55
253.571	6.95
253.947	6.74
254.322	6.5
254.697	6.3
255.073	5.87
255.448	6.08
255.823	5.84
256.198	5.63
256.573	5.53
256.948	5.19
257.323	5.55
257.698	5.39
258.073	5.13
258.448	5.43
258.823	5.2
259.198	5.34
259.573	5.4
259.948	5.23
260.322	4.98
260.697	4.81
261.072	4.73
261.446	4.51
261.821	4.4
262.195	4.18
262.57	4.33
262.944	4.62
263.319	4.58
263.693	4.48
264.067	4.37
264.442	4.22
264.816	4.13
265.19	4.07
265.564	3.96
265.938	4.11
266.313	3.96
266.687	4.01
267.061	3.82
267.435	3.99
267.809	4.03
268.183	4.29
268.556	4.18
268.93	4.19
269.304	4.34
269.678	4.53
270.051	4.55
270.425	4.47
270.799	4.15
271.172	4.24
271.546	4.43
271.919	4.65
272.293	4.51
272.666	4.54
273.04	4.55
273.413	4.53
273.787	4.4
274.16	4.31
274.533	4.45
274.906	4.67
275.279	4.55
275.653	4.61
276.026	4.42
276.399	4.49
276.772	4.67
277.145	4.52
277.518	4.42
277.891	4.53
278.263	4.48
278.636	4.61
279.009	4.48
279.382	4.34
279.755	4.29
280.127	4.53
280.5	4.62
280.872	4.62
281.245	4.58
281.617	4.75
281.99	4.77
282.362	4.67
282.735	4.38
283.107	4.4
283.479	4.6
283.852	4.62
284.224	4.68
284.596	4.55
284.968	4.59
285.34	4.59
285.713	4.72
286.085	4.59
286.457	4.61
286.829	4.66
287.201	4.66
287.572	4.61
287.944	4.68
288.316	4.73
288.688	4.61
289.06	4.72
289.431	4.82
289.803	4.88
290.175	4.83
290.546	4.9
290.918	4.86
291.289	4.53
291.661	4.75
292.032	4.65
292.403	4.84
292.775	4.77
293.146	4.79
293.517	4.73
293.889	4.88
294.26	4.82
294.631	4.81
295.002	4.9
295.373	4.87
295.744	4.83
296.115	4.75
296.486	4.84
296.857	4.87
297.228	4.74
297.599	4.62
297.97	4.86
298.34	4.96
298.711	5.11
299.082	5.21
299.452	5.11
299.823	5.21
300.194	5.21
300.564	5.12
300.935	5.19
301.305	5.16
301.676	5.21
302.046	5.34
302.416	5.42
302.787	5.44
303.157	5.42
303.527	5.47
303.897	5.54
304.267	5.74
304.637	5.86
305.008	5.9
305.378	5.93
305.748	5.64
306.117	5.54
306.487	5.48
306.857	5.48
307.227	5.55
307.597	5.45
307.967	5.44
308.336	5.7
308.706	5.66
309.076	5.74
309.445	5.76
309.815	5.58
310.184	5.55
310.554	5.39
310.923	5.4
311.293	5.38
311.662	5.26
312.031	5.01
312.401	4.78
312.77	4.77
313.139	4.87
313.508	4.91
313.877	5.01
314.246	4.99
314.616	5.07
314.985	4.89
315.353	4.84
315.722	4.81
316.091	4.87
316.46	4.79
316.829	4.63
317.198	4.63
317.567	4.87
317.935	4.9
318.304	5.06
318.672	5.23
319.041	5.16
319.41	5.33
319.778	5.41
320.147	5.52
320.515	5.58
320.883	5.73
321.252	5.73
321.62	5.61
321.988	5.7
322.357	5.61
322.725	5.76
323.093	5.88
323.461	5.74
323.829	5.72
324.197	5.84
324.565	6
324.933	5.95
325.301	5.75
325.669	5.7
326.037	5.64
326.405	5.44
326.772	5.36
327.14	5.42
327.508	5.4
327.875	5.34
328.243	5.13
328.61	4.9
328.978	4.9
329.346	4.96
329.713	4.96
330.08	5.02
330.448	4.92
330.815	4.94
331.182	4.77
331.55	4.6
331.917	4.43
332.284	4.34
332.651	4.48
333.018	4.63
333.385	4.54
333.752	4.5
334.119	4.71
334.486	4.89
334.853	4.82
335.22	4.81
335.587	4.82
335.954	4.93
336.32	5.01
336.687	5.04
337.054	4.98
337.42	4.98
337.787	4.97
338.153	5.14
338.52	5.19
338.886	5.34
339.253	5.35
339.619	5.43
339.986	5.49
340.352	5.4
340.718	5.35
341.084	5.41
341.451	5.44
341.817	5.39
342.183	5.32
342.549	5.4
342.915	5.54
343.281	5.48
343.647	5.62
344.013	5.63
344.379	5.65
344.745	5.58
345.11	5.57
345.476	5.5
345.842	5.36
346.208	5.32
346.573	5.38
346.939	5.38
347.304	5.42
347.67	5.3
348.035	5.27
348.401	5.35
348.766	5.39
349.132	5.45
349.497	5.36
349.862	5.27
350.228	5.26
350.593	5.16
350.958	5.33
351.323	5.13
351.688	5.14
352.053	5.14
352.418	5.19
352.783	5.2
353.148	5.24
353.513	5.21
353.878	5.25
354.243	5.2
354.608	5.25
354.972	5.27
355.337	5.42
355.702	5.48
356.066	5.49
356.431	5.46
356.795	5.4
357.16	5.43
357.524	5.47
357.889	5.4
358.253	5.36
358.618	5.28
358.982	5.36
359.346	5.33
359.71	5.4
360.075	5.44
360.439	5.39
360.803	5.48
361.167	5.53
361.531	5.45
361.895	5.41
362.259	5.38
362.623	5.39
362.987	5.3
363.351	5.29
363.714	5.22
364.078	5.23
364.442	5.23
364.806	5.25
365.169	5.23
365.533	5.24
365.896	5.32
366.26	5.34
366.623	5.34
366.987	5.45
367.35	5.4
367.714	5.32
368.077	5.33
368.44	5.25
368.803	5.18
369.167	5.14
369.53	5.09
369.893	5.09
370.256	5.03
370.619	4.95
370.982	4.91
371.345	4.93
371.708	4.93
372.071	4.91
372.434	4.89
372.797	4.97
373.159	4.94
373.522	4.94
373.885	4.91
374.247	4.93
374.61	4.85
374.973	4.81
375.335	4.84
375.698	4.87
376.06	4.89
376.423	4.84
376.785	4.91
377.147	4.98
377.51	4.98
377.872	5.04
378.234	5.08
378.596	5.03
378.958	5
379.321	4.96
379.683	5.01
380.045	5.01
380.407	4.96
380.769	5
381.13	4.98
381.492	4.93
381.854	4.88
382.216	4.84
382.578	4.87
382.939	4.88
383.301	4.8
383.663	4.8
384.024	4.84
384.386	4.85
384.747	4.84
385.109	4.83
385.47	4.85
385.832	4.89
386.193	4.93
386.554	4.88
386.916	4.93
387.277	4.89
387.638	4.92
387.999	4.93
388.36	4.91
388.721	4.86
389.082	4.91
389.443	4.94
389.804	4.98
390.165	4.98
390.526	4.98
390.887	5
391.248	4.96
391.609	4.97
391.969	4.95
392.33	4.93
392.691	4.95
393.051	4.91
393.412	4.85
393.772	4.84
394.133	4.87
394.493	4.84
394.854	4.86
395.214	4.82
395.574	4.79
395.935	4.79
396.295	4.77
396.655	4.79
397.015	4.8
397.376	4.78
397.736	4.74
398.096	4.72
398.456	4.73
398.816	4.73
399.176	4.71
399.535	4.66
399.895	4.68
400.255	4.66
400.615	4.66
400.975	4.68
401.334	4.69
401.694	4.71
402.054	4.73
402.413	4.7
402.773	4.7
403.132	4.66
403.492	4.67
403.851	4.72
404.211	4.7
404.57	4.68
404.929	4.7
405.288	4.67
405.648	4.66
406.007	4.66
406.366	4.67
406.725	4.72
407.084	4.77
407.443	4.77
407.802	4.76
408.161	4.75
408.52	4.77
408.879	4.79
409.238	4.76
409.596	4.74
409.955	4.74
410.314	4.72
410.673	4.78
411.031	4.72
411.39	4.7
411.748	4.73
412.107	4.73
412.465	4.7
412.824	4.74
413.182	4.75
413.54	4.75
413.899	4.76
414.257	4.71
414.615	4.68
414.974	4.68
415.332	4.7
415.69	4.72
416.048	4.73
416.406	4.71
416.764	4.72
417.122	4.68
417.48	4.68
417.838	4.69
418.195	4.67
418.553	4.67
418.911	4.66
419.269	4.63
419.626	4.63
419.984	4.63
420.342	4.62
420.699	4.61
421.057	4.6
421.414	4.59
421.772	4.6
422.129	4.61
422.486	4.59
422.844	4.57
423.201	4.57
423.558	4.56
423.915	4.55
424.273	4.52
424.63	4.55
424.987	4.57
425.344	4.59
425.701	4.59
426.058	4.61
426.415	4.6
426.772	4.6
427.128	4.62
427.485	4.63
427.842	4.62
428.199	4.63
428.555	4.65
428.912	4.66
429.269	4.65
429.625	4.65
429.982	4.65
430.338	4.68
430.695	4.65
431.051	4.64
431.407	4.65
431.764	4.67
432.12	4.69
432.476	4.67
432.832	4.66
433.189	4.67
433.545	4.64
433.901	4.62
434.257	4.61
434.613	4.58
434.969	4.57
435.325	4.6
435.681	4.56
436.036	4.53
436.392	4.55
436.748	4.54
437.104	4.54
437.459	4.54
437.815	4.52
438.171	4.53
438.526	4.51
438.882	4.5
439.237	4.5
439.593	4.46
439.948	4.45
440.304	4.43
440.659	4.41
441.014	4.42
441.369	4.45
441.725	4.47
442.08	4.48
442.435	4.48
442.79	4.47
443.145	4.48
443.5	4.49
443.855	4.47
444.21	4.48
444.565	4.48
444.92	4.48
445.275	4.49
445.629	4.47
445.984	4.48
446.339	4.49
446.693	4.5
447.048	4.51
447.403	4.5
447.757	4.49
448.112	4.51
448.466	4.51
448.82	4.5
449.175	4.48
449.529	4.47
449.883	4.46
450.238	4.45
450.592	4.45
450.946	4.44
451.3	4.44
451.654	4.42
452.008	4.42
452.362	4.41
452.716	4.43
453.07	4.45
453.424	4.44
453.778	4.42
454.132	4.38
454.486	4.38
454.839	4.39
455.193	4.4
455.547	4.4
455.9	4.39
456.254	4.39
456.607	4.39
456.961	4.41
457.314	4.41
457.668	4.42
458.021	4.42
458.375	4.43
458.728	4.41
459.081	4.43
459.434	4.41
459.787	4.43
460.141	4.41
460.494	4.43
460.847	4.43
461.2	4.44
461.553	4.48
461.906	4.51
462.259	4.51
462.611	4.52
462.964	4.52
463.317	4.5
463.67	4.51
464.022	4.54
464.375	4.55
464.728	4.56
465.08	4.54
465.433	4.56
465.785	4.55
466.138	4.58
466.49	4.58
466.843	4.61
467.195	4.6
467.547	4.59
467.899	4.59
468.252	4.6
468.604	4.61
468.956	4.61
469.308	4.58
469.66	4.59
470.012	4.58
470.364	4.59
470.716	4.61
471.068	4.63
471.42	4.61
471.772	4.6
472.123	4.6
472.475	4.61
472.827	4.6
473.178	4.62
473.53	4.6
473.882	4.61
474.233	4.61
474.585	4.62
474.936	4.67
475.288	4.66
475.639	4.65
475.99	4.65
476.342	4.64
476.693	4.65
477.044	4.64
477.395	4.66
477.746	4.66
478.097	4.67
478.448	4.66
478.8	4.65
479.15	4.66
479.501	4.64
479.852	4.65
480.203	4.66
480.554	4.66
480.905	4.66
481.255	4.66
481.606	4.65
481.957	4.65
482.307	4.64
482.658	4.66
483.009	4.66
483.359	4.65
483.709	4.66
484.06	4.66
484.41	4.67
484.761	4.68
485.111	4.69
485.461	4.69
485.811	4.7
486.162	4.7
486.512	4.7
486.862	4.7
487.212	4.71
487.562	4.72
487.912	4.71
488.262	4.72
488.612	4.73
488.961	4.73
489.311	4.74
489.661	4.74
490.011	4.72
490.36	4.72
490.71	4.72
491.06	4.72
491.409	4.71
491.759	4.72
492.108	4.71
492.458	4.7
492.807	4.69
493.157	4.68
493.506	4.69
493.855	4.7
494.204	4.71
494.554	4.71
494.903	4.7
495.252	4.72
495.601	4.74
495.95	4.74
496.299	4.73
496.648	4.74
496.997	4.74
497.346	4.78
497.695	4.79
498.043	4.83
498.392	4.84
498.741	4.85
499.09	4.86
499.438	4.85
499.787	4.86
500.135	4.89
500.484	4.91
500.832	4.91
501.181	4.9
501.529	4.93
501.878	4.94
502.226	4.96
502.574	4.94
502.923	4.93
503.271	4.94
503.619	4.97
503.967	4.96
504.315	4.95
504.663	4.94
505.011	4.96
505.359	4.95
505.707	4.97
506.055	4.97
506.403	4.95
506.751	4.97
507.098	5.02
507.446	5.01
507.794	5.01
508.141	5
508.489	5.02
508.837	5
509.184	5.02
509.531	5.01
509.879	5.04
510.226	5.05
510.574	5.05
510.921	5.04
511.268	5.07
511.616	5.09
511.963	5.11
512.31	5.11
512.657	5.13
513.004	5.13
513.351	5.16
513.698	5.17
514.045	5.17
514.392	5.16
514.739	5.18
515.086	5.17
515.432	5.18
515.779	5.2
516.126	5.22
516.473	5.2
516.819	5.21
517.166	5.21
517.512	5.22
517.859	5.25
518.205	5.25
518.552	5.25
518.898	5.24
519.245	5.23
519.591	5.23
519.937	5.22
520.283	5.22
520.629	5.21
520.976	5.21
521.322	5.22
521.668	5.22
522.014	5.23
522.36	5.25
522.706	5.26
523.052	5.26
523.398	5.27
523.743	5.29
524.089	5.31
524.435	5.3
524.781	5.31
525.126	5.3
525.472	5.32
525.817	5.31
526.163	5.32
526.509	5.33
526.854	5.34
527.199	5.36
527.545	5.35
527.89	5.36
528.235	5.37
528.581	5.37
528.926	5.37
529.271	5.37
529.616	5.38
529.961	5.38
530.306	5.39
530.651	5.39
530.996	5.4
531.341	5.4
531.686	5.41
532.031	5.41
532.376	5.41
532.721	5.41
533.065	5.42
533.41	5.43
533.755	5.44
534.099	5.43
534.444	5.43
534.788	5.44
535.133	5.44
535.477	5.46
535.822	5.45
536.166	5.46
536.51	5.47
536.855	5.47
537.199	5.46
537.543	5.48
537.887	5.49
538.231	5.49
538.576	5.47
538.92	5.46
539.264	5.47
539.608	5.48
539.951	5.48
540.295	5.48
540.639	5.48
540.983	5.49
541.327	5.5
541.671	5.5
542.014	5.5
542.358	5.51
542.701	5.51
543.045	5.53
543.389	5.52
543.732	5.51
544.075	5.52
544.419	5.52
544.762	5.51
545.105	5.51
545.449	5.5
545.792	5.53
546.135	5.55
546.478	5.54
546.821	5.54
547.165	5.52
547.508	5.54
547.851	5.52
548.194	5.53
548.536	5.51
548.879	5.5
549.222	5.49
549.565	5.45
549.908	5.43
550.25	5.42
550.593	5.39
550.936	5.42
551.278	5.4
551.621	5.41
551.963	5.39
552.306	5.39
552.648	5.38
552.991	5.33
553.333	5.32
553.675	5.35
554.017	5.37
554.36	5.38
554.702	5.39
555.044	5.4
555.386	5.4
555.728	5.41
556.07	5.41
556.412	5.43
556.754	5.42
557.096	5.45
557.438	5.46
557.78	5.49
558.121	5.49
558.463	5.49
558.805	5.5
559.147	5.51
559.488	5.48
559.83	5.5
560.171	5.54
560.513	5.53
560.854	5.53
561.196	5.54
561.537	5.57
561.878	5.56
562.22	5.58
562.561	5.58
562.902	5.59
563.243	5.63
563.584	5.65
563.925	5.69
564.266	5.65
564.607	5.65
564.948	5.7
565.289	5.7
565.63	5.69
565.971	5.69
566.312	5.69
566.653	5.72
566.993	5.75
567.334	5.72
567.675	5.74
568.015	5.71
568.356	5.72
568.696	5.67
569.037	5.67
569.377	5.66
569.718	5.67
570.058	5.65
570.398	5.65
570.739	5.63
571.079	5.63
571.419	5.66
571.759	5.64
572.099	5.58
572.439	5.59
572.779	5.62
573.119	5.61
573.459	5.6
573.799	5.59
574.139	5.57
574.479	5.6
574.819	5.61
575.158	5.67
575.498	5.67
575.838	5.67
576.177	5.65
576.517	5.64
576.856	5.62
577.196	5.63
577.535	5.6
577.875	5.57
578.214	5.59
578.553	5.59
578.893	5.58
579.232	5.6
579.571	5.6
579.91	5.58
580.25	5.59
580.589	5.62
580.928	5.62
581.267	5.65
581.606	5.64
581.945	5.63
582.283	5.6
582.622	5.64
582.961	5.63
583.3	5.67
583.639	5.68
583.977	5.69
584.316	5.71
584.654	5.72
584.993	5.71
585.332	5.71
585.67	5.73
586.008	5.72
586.347	5.73
586.685	5.7
587.024	5.68
587.362	5.66
587.7	5.69
588.038	5.71
588.376	5.69
588.715	5.69
589.053	5.68
589.391	5.66
589.729	5.61
590.067	5.65
590.404	5.67
590.742	5.69
591.08	5.68
591.418	5.66
591.756	5.69
592.093	5.72
592.431	5.73
592.769	5.7
593.106	5.72
593.444	5.73
593.781	5.76
594.119	5.76
594.456	5.78
594.793	5.74
595.131	5.74
595.468	5.78
595.805	5.78
596.143	5.8
596.48	5.79
596.817	5.79
597.154	5.78
597.491	5.72
597.828	5.75
598.165	5.77
598.502	5.75
598.839	5.76
599.176	5.77
599.512	5.76
599.849	5.83
600.186	5.86
600.523	5.85
600.859	5.88
601.196	5.94
601.532	5.92
601.869	5.9
602.205	5.85
602.542	5.82
602.878	5.82
603.215	5.81
603.551	5.82
603.887	5.86
604.223	5.87
604.56	5.91
604.896	5.91
605.232	5.91
605.568	5.94
605.904	5.93
606.24	5.94
606.576	5.93
606.912	5.89
607.248	5.86
607.583	5.87
607.919	5.85
608.255	5.83
608.591	5.84
608.926	5.86
609.262	5.89
609.597	5.89
609.933	5.88
610.268	5.89
610.604	5.86
610.939	5.86
611.275	5.87
611.61	5.88
611.945	5.82
612.281	5.86
612.616	5.83
612.951	5.87
613.286	5.83
613.621	5.85
613.956	5.86
614.291	5.83
614.626	5.87
614.961	5.87
615.296	5.89
615.631	5.88
615.966	5.88
616.3	5.94
616.635	5.91
616.97	5.92
617.304	5.92
617.639	5.95
617.973	5.91
618.308	5.92
618.642	5.88
618.977	5.88
619.311	5.8
619.646	5.82
619.98	5.77
620.314	5.83
620.648	5.8
620.983	5.77
621.317	5.85
621.651	5.83
621.985	5.8
622.319	5.74
622.653	5.76
622.987	5.79
623.321	5.77
623.655	5.74
623.988	5.81
624.322	5.83
624.656	5.86
624.99	5.88
625.323	5.91
625.657	5.95
625.99	6.04
626.324	6.08
626.657	6.04
626.991	6.09
627.324	6.09
627.658	6.09
627.991	6.11
628.324	6.06
628.657	6.07
628.991	6.08
629.324	6.09
629.657	6.09
629.99	6.12
630.323	6.14
630.656	6.18
630.989	6.08
631.322	6.09
631.655	6.06
631.987	6.06
632.32	6.03
632.653	6.03
632.986	5.97
633.318	5.96
633.651	5.99
633.984	5.96
634.316	5.88
634.649	5.89
634.981	5.89
635.313	5.9
635.646	5.91
635.978	5.95
636.31	5.96
636.643	5.92
636.975	5.84
637.307	5.85
637.639	5.87
637.971	5.9
638.303	5.9
638.635	5.95
638.967	5.97
639.299	5.96
639.631	5.91
639.963	5.92
640.295	5.93
640.626	5.94
640.958	5.92
641.29	5.96
641.621	5.94
641.953	5.93
642.285	5.91
642.616	5.94
642.948	5.93
643.279	5.88
643.61	5.95
643.942	6.05
644.273	6.06
644.604	6.04
644.936	6.03
645.267	5.97
645.598	5.92
645.929	5.88
646.26	5.91
646.591	5.96
646.922	6.03
647.253	6.05
647.584	6.11
647.915	6.13
648.245	6.17
648.576	6.19
648.907	6.26
649.238	6.25
649.568	6.28
649.899	6.2
650.229	6.3
650.56	6.35
650.89	6.31
651.221	6.25
651.551	6.32
651.882	6.29
652.212	6.35
652.542	6.41
652.872	6.42
653.203	6.45
653.533	6.48
653.863	6.43
654.193	6.39
654.523	6.4
654.853	6.46
655.183	6.42
655.513	6.48
655.843	6.45
656.172	6.49
656.502	6.37
656.832	6.4
657.162	6.38
657.491	6.37
657.821	6.34
658.15	6.4
658.48	6.4
658.809	6.41
659.139	6.39
659.468	6.36
659.798	6.4
660.127	6.38
660.456	6.39
660.785	6.37
661.115	6.41
661.444	6.36
661.773	6.35
662.102	6.31
662.431	6.37
662.76	6.36
663.089	6.43
663.418	6.61
663.747	6.54
664.076	6.54
664.404	6.57
664.733	6.61
665.062	6.64
665.39	6.6
665.719	6.65
666.048	6.68
666.376	6.7
666.705	6.66
667.033	6.71
667.362	6.65
667.69	6.69
668.018	6.67
668.347	6.6
668.675	6.59
669.003	6.69
669.331	6.59
669.659	6.59
669.987	6.52
670.315	6.42
670.643	6.49
670.971	6.49
671.299	6.44
671.627	6.49
671.955	6.46
672.283	6.46
672.61	6.46
672.938	6.48
673.266	6.53
673.593	6.59
673.921	6.5
674.249	6.5
674.576	6.5
674.904	6.49
675.231	6.64
675.558	6.65
675.886	6.66
676.213	6.63
676.54	6.69
676.867	6.67
677.195	6.66
677.522	6.73
677.849	6.79
678.176	6.88
678.503	6.79
678.83	6.77
679.157	6.78
679.484	6.84
679.81	6.8
680.137	6.81
680.464	6.82
680.791	6.84
681.117	6.87
681.444	6.79
681.771	6.84
682.097	6.78
682.424	6.7
682.75	6.71
683.077	6.7
683.403	6.68
683.729	6.71
684.056	6.72
684.382	6.68
684.708	6.68
685.034	6.57
685.36	6.63
685.686	6.64
686.012	6.67
686.339	6.66
686.664	6.64
686.99	6.54
687.316	6.54
687.642	6.61
687.968	6.61
688.294	6.65
688.619	6.66
688.945	6.66
689.271	6.72
689.596	6.67
689.922	6.71
690.247	6.62
690.573	6.69
690.898	6.77
691.224	6.75
691.549	6.67
691.874	6.68
692.2	6.62
692.525	6.61
692.85	6.58
693.175	6.6
693.5	6.6
693.825	6.68
694.15	6.59
694.475	6.51
694.8	6.48
695.125	6.56
695.45	6.39
695.775	6.41
696.099	6.44
696.424	6.52
696.749	6.57
697.073	6.6
697.398	6.59
697.723	6.62
698.047	6.7
698.372	6.77
698.696	6.77
699.02	6.78
699.345	6.77
699.669	6.86
699.993	6.81
700.318	6.84
700.642	6.79
700.966	6.85
701.29	6.98
701.614	7.04
701.938	6.95
702.262	6.99
702.586	7.01
702.91	7.06
703.234	7.01
703.557	7.03
703.881	6.94
704.205	6.82
704.529	6.7
704.852	6.75
705.176	6.81
705.499	6.89
705.823	6.81
706.146	6.79
706.47	6.78
706.793	6.88
707.117	6.96
707.44	6.97
707.763	6.99
708.086	6.86
708.409	6.87
708.733	6.92
709.056	7.09
709.379	7.12
709.702	7.02
710.025	7.24
710.348	7.3
710.671	7.59
710.993	7.52
711.316	7.52
711.639	7.39
711.962	7.32
712.284	7.19
712.607	7.31
712.93	7.42
713.252	7.29
713.575	7.26
713.897	7.29
714.22	7.31
714.542	7.25
714.864	7.23
715.187	7.2
715.509	7.21
715.831	7.17
716.153	7.21
716.475	7.44
716.798	7.34
717.12	7.34
717.442	7.18
717.764	7.34
718.085	7.38
718.407	7.55
718.729	7.53
719.051	7.52
719.373	7.43
719.695	7.34
720.016	7.51
720.338	7.45
720.659	7.6
720.981	7.6
721.302	7.71
721.624	7.83
721.945	7.92
722.267	7.95
722.588	7.88
722.909	7.7
723.231	7.48
723.552	7.43
723.873	7.36
724.194	7.35
724.515	7.46
724.836	7.34
725.157	7.29
725.478	7.25
725.799	7.31
726.12	7.49
726.441	7.45
726.762	7.35
727.083	7.41
727.403	7.34
727.724	7.23
728.045	7.09
728.365	6.9
728.686	6.75
729.006	6.72
729.327	6.87
729.647	7.09
729.967	7.17
730.288	7.15
730.608	7.2
730.928	7.24
731.249	7.25
731.569	7.36
731.889	7.28
732.209	7.4
732.529	7.65
732.849	7.61
733.169	7.82
733.489	7.74
733.809	7.7
734.129	7.52
734.448	7.62
734.768	7.76
735.088	7.74
735.408	7.85
735.727	7.93
736.047	7.65
736.366	7.58
736.686	7.52
737.005	7.78
737.325	7.79
737.644	7.62
737.963	7.58
738.283	7.46
738.602	7.59
738.921	7.54
739.24	7.43
739.56	7.44
739.879	7.3
740.198	7.54
740.517	7.55
740.836	7.6
741.155	7.8
741.473	7.88
741.792	8.18
742.111	8.29
742.43	8.42
742.748	8.73
743.067	8.73
743.386	8.62
743.704	8.44
744.023	8.54
744.341	8.91
744.66	8.81
744.978	8.84
745.297	8.9
745.615	8.9
745.933	8.93
746.252	8.99
746.57	9.01
746.888	8.93
747.206	8.95
747.524	9.11
747.842	8.84
748.16	8.72
748.478	8.74
748.796	8.81
749.114	8.79
749.432	8.67
749.749	8.75
750.067	8.89
750.385	8.69
750.703	8.51
751.02	8.41
751.338	8.52
751.655	8.29
751.973	7.94
752.29	7.82
752.608	7.57
752.925	7.58
753.242	7.73
753.56	7.74
753.877	7.91
754.194	7.89
754.511	7.95
754.828	7.97
755.145	7.97
755.462	7.81
755.779	7.77
756.096	7.82
756.413	7.73
756.73	7.89
757.047	8.01
757.364	8.22
757.68	8.09
757.997	8.02
758.314	8.63
758.63	8.86
758.947	9.28
759.264	9.46
759.58	9.65
759.896	9.54
760.213	9.49
760.529	9.23
760.846	9.02
761.162	9.2
761.478	9.16
761.794	9.17
762.11	9.19
762.426	9.12
762.743	9.28
763.059	9.35
763.375	9.29
763.69	9.61
764.006	9.45
764.322	9.5
764.638	9.64
764.954	9.45
765.27	9.58
765.585	9.47
765.901	9.36
766.216	9.33
766.532	9.16
766.848	9.04
767.163	9.16
767.478	9.24
767.794	8.99
768.109	9.01
768.424	8.86
768.74	8.82
769.055	8.85
769.37	8.64
769.685	8.51
770	8.4
770.315	8.06
770.63	8.1
770.945	8.04
771.26	7.67
771.575	7.75
771.89	7.45
772.205	7.26
772.52	7.17
772.834	7.07
773.149	7.33
773.464	7.02
773.778	7.12
774.093	7.29
774.407	7.75
774.722	7.72
775.036	8.06
775.351	7.98
775.665	8.08
775.979	8.38
776.293	8.47
776.608	8.45
776.922	8.33
777.236	8.42
777.55	8.41
777.864	8.9
778.178	9.12
778.492	9.25
778.806	9.57
779.12	9.81
779.434	9.52
779.747	9.51
780.061	10.22
780.375	10.21
780.689	10.11
781.002	9.8
781.316	9.72
781.629	9.42
781.943	9.62
782.256	9.34
782.57	9.21
782.883	9.27
783.196	9.45
783.51	9.52
783.823	9.1
784.136	9.09
784.449	8.83
784.762	8.93
785.075	8.67
785.388	9.13
785.701	9.03
786.014	8.94
786.327	8.96
786.64	8.67
786.953	8.43
787.266	8.27
787.578	7.96
787.891	8.25
788.204	8.5
788.516	8.26
788.829	8.85
789.141	8.99
789.454	8.8
789.766	8.88
790.079	8.98
790.391	9.29
790.703	9.66
791.016	9.7
791.328	9.48
791.64	9.78
791.952	8.8
792.264	8.89
792.576	9.27
792.888	9.28
793.2	9.59
793.512	10.07
793.824	10.39
794.136	10.63
794.448	10.8
794.76	10.45
795.071	10.79
795.383	10.42
795.695	10.25
796.006	10.46
796.318	10.73
796.629	10.84
796.941	10.76
797.252	10.38
797.564	10.44
797.875	10.49
798.186	10.82
798.497	11.22
798.809	11.22
799.12	10.48
799.431	10.2
799.742	10.17
800.053	9.63
800.364	9.85
800.675	10.51
800.986	10.17
801.297	10.25
801.608	10
801.918	10.69
802.229	10.91
802.54	11.11
802.851	10.59
803.161	10.24
803.472	10.8
803.782	11.1
804.093	10.58
804.403	10.5
804.714	9.82
805.024	9.81
805.334	9.45
805.645	10.57
805.955	10.93
806.265	11.72
806.575	12.13
806.885	11.75
807.195	11.37
807.505	11.65
807.815	11.9
808.125	11.9
808.435	11.1
808.745	11.31
809.055	10.67
809.365	10.9
809.674	10.65
809.984	10.13
810.294	9.92
810.603	10.63
810.913	10.12
811.222	10.2
811.532	10.06
811.841	10.78
812.151	10.23
812.46	9.72
812.769	9.15
813.079	8.65
813.388	9.03
813.697	8.81
814.006	8.42
814.315	8.28
814.624	8.62
814.933	8.31
815.242	7.34
815.551	8.23
815.86	8.22
816.169	8.78
816.478	9.27
816.786	8.84
817.095	8.47
817.404	8.43
817.712	9.02
818.021	9.27
818.33	9.48
818.638	9.69
818.947	10.34
819.255	10.18
819.563	10.51
819.872	10.39
820.18	10.3
820.488	10.53
820.796	10.84
821.105	10.84
821.413	11.07
821.721	11.13
822.029	10.87
822.337	10.89
822.645	10.86
822.953	10.83
823.26	10.96
823.568	11.02
823.876	11.09
824.184	11.05
824.491	10.99
824.799	11.04
825.107	11.24
825.414	11.16
825.722	11.16
826.029	11.11
826.337	11.07
826.644	11.27
826.951	11.11
827.259	11.13
827.566	11.13
827.873	10.97
828.18	11.09
828.488	11.21
828.795	11.36
829.102	11.37
829.409	11.16
829.716	11.15
830.023	11.39
830.329	11.43
830.636	11.13
830.943	11.02
831.25	10.87
831.557	10.55
831.863	10.67
832.17	10.67
832.476	10.67
832.783	11.02
833.089	11.03
833.396	11.43
833.702	11.09
834.009	11.02
834.315	11.07
834.621	11.15
834.928	11.55
835.234	11.07
835.54	10.83
835.846	11
836.152	11.03
836.458	10.58
836.764	10.73
837.07	11.14
837.376	11.26
837.682	11.44
837.988	11.31
838.293	11.21
838.599	11.25
838.905	11.93
839.211	11.11
839.516	10.22
839.822	9.58
840.127	9.56
840.433	9.77
840.738	10.47
841.044	10.52
841.349	9.7
841.654	10
841.959	10.73
842.265	10.59
842.57	10.69
842.875	10.87
843.18	10.01
843.485	9.13
843.79	9.02
844.095	7.85
844.4	7.62
844.705	7.69
845.01	8.59
845.315	8.24
845.619	9.55
845.924	9.54
846.229	10.56
846.533	9.51
846.838	9.24
847.142	8.94
847.447	8.26
847.751	8.77
848.056	9.1
848.36	9.81
848.664	10.08
848.969	9.9
849.273	9.21
849.577	11.81
849.881	13.35
850.185	12.86
850.489	11.79
850.794	12.53
851.097	12.44
851.401	9.37
851.705	7.61
852.009	7.4
852.313	6.94
852.617	6.8
852.92	8.72
853.224	10.04
853.528	9.06
853.831	8.4
854.135	9.14
854.438	9.65
854.742	9.31
855.045	8.64
855.349	9.18
855.652	11.27
855.955	8.97
856.259	8.97
856.562	10.16
856.865	13.55
857.168	13.56
857.471	14.31
857.774	14.52
858.077	14.04
858.38	16.67
858.683	18.51
858.986	19.2
859.289	17.26
859.592	14.7
859.894	13.57
860.197	12.86
860.5	12.59
860.802	11.82
861.105	9.81
861.407	10.99
861.71	11.88
862.012	9.81
862.315	12.1
862.617	12.06
862.919	12.9
863.222	12.19
863.524	11.41
863.826	11.13
864.128	12.91
864.43	13.9
864.732	11.96
865.034	13.92
865.336	13.26
865.638	14.62
865.94	15.78
866.242	16.8
866.544	18.23
866.846	17.9
867.147	20.42
867.449	21.12
867.751	18.01
868.052	16.87
868.354	19.03
868.655	17.27
868.957	16.31
869.258	13.97
869.56	12.81
869.861	12.14
870.162	10.14
870.463	10.75
870.765	10.79
871.066	10.43
871.367	6.19
871.668	6.22
871.969	5.54
872.27	4.81
872.571	3.24
872.872	3.72
873.173	2.63
873.473	-2.3
873.774	-1.79
874.075	1.91
874.376	0.47
874.676	0.08
874.977	2.65
875.277	4.27
875.578	8.22
875.878	8.15
876.179	8.92
876.479	10.96
876.78	9.65
877.08	10.06
877.38	9.01
877.68	11.79
877.981	11.35
878.281	12.2
878.581	13.17
