Data from BA44024_Reflection_00011.txt Node
Date: Tue Nov 19 11:48:54 EST 2019
User: vgr7
Spectrometer: USB2G7710
Scans to average: 3
Trigger mode: 4
Integration Time (sec): 2.000000E-2
Electric dark correction enabled: true
Boxcar width: 10
XAxis mode: Wavelengths
Number of Pixels in Spectrum: 2048
>>>>>Begin Spectral Data<<<<<
177.721	39.09
178.105	-2.11
178.488	13.77
178.871	15.19
179.254	4.62
179.636	2.5
180.019	-64.56
180.402	127.27
180.785	78.08
181.168	31.24
181.55	42.5
181.933	71.57
182.316	58.09
182.698	71.46
183.081	91.02
183.463	113.92
183.846	167.25
184.228	360.22
184.611	-517.83
184.993	-113.45
185.376	-212.37
185.758	-243.54
186.14	-300
186.522	-229.64
186.904	-181.44
187.287	-191.89
187.669	-114.51
188.051	-133.76
188.433	-156.77
188.815	-164.99
189.197	-120.32
189.579	-99.22
189.961	-105.64
190.342	-86.98
190.724	-125.19
191.106	-116.03
191.488	-101.39
191.869	-98.91
192.251	-95.89
192.633	-110.89
193.014	-118.59
193.396	-116.75
193.777	-121.99
194.159	-125.32
194.54	-119.98
194.922	-126.45
195.303	-118.02
195.684	-159.67
196.065	-173.27
196.447	-174.33
196.828	-143.42
197.209	-156.94
197.59	-146.52
197.971	-116.31
198.352	-116.54
198.733	-120.07
199.114	-127.25
199.495	-106.71
199.876	-116.43
200.257	-120.99
200.638	-126.41
201.018	-141.4
201.399	-142.48
201.78	-112.92
202.16	-108.35
202.541	-107.62
202.922	-111.11
203.302	-127.25
203.683	-122.43
204.063	-122.43
204.444	-111.8
204.824	-112.06
205.204	-115.36
205.585	-111.99
205.965	-123.58
206.345	-154.42
206.725	-105.61
207.106	-101.45
207.486	-129.24
207.866	-125.25
208.246	-116.12
208.626	-130.81
209.006	-128.52
209.386	-135.21
209.766	-161.71
210.145	-169.1
210.525	-158.82
210.905	-137.18
211.285	-122.42
211.664	-108.83
212.044	-108.86
212.424	-101.31
212.803	-120.58
213.183	-136.61
213.562	-120.83
213.942	-137.04
214.321	-120.21
214.701	-147.85
215.08	-149.7
215.459	-128.39
215.838	-133.67
216.218	-141.03
216.597	-113.84
216.976	-111.89
217.355	-105.2
217.734	-110.62
218.113	-101.89
218.492	-106.32
218.871	-109.54
219.25	-115.67
219.629	-113.32
220.008	-95.81
220.387	-105.56
220.766	-92.76
221.144	-82.79
221.523	-89.59
221.902	-79.28
222.28	-72.1
222.659	-51.91
223.037	-46.81
223.416	-47.59
223.794	-39.7
224.173	-42.59
224.551	-44.2
224.929	-46.25
225.308	-39.3
225.686	-37.15
226.064	-39.51
226.442	-34.87
226.821	-32.48
227.199	-29.28
227.577	-26.5
227.955	-28.81
228.333	-26.25
228.711	-25.69
229.089	-24.37
229.467	-23.76
229.845	-22.61
230.222	-19.4
230.6	-23.3
230.978	-22.1
231.356	-21.99
231.733	-20.27
232.111	-19.45
232.488	-18.08
232.866	-16.15
233.243	-16.48
233.621	-9.95
233.998	-9.45
234.376	-8.84
234.753	-10.73
235.13	-10.76
235.508	-10.78
235.885	-9.5
236.262	-9.5
236.639	-9.05
237.016	-8.88
237.393	-5.58
237.77	-3.59
238.147	-3.25
238.524	-1.68
238.901	-2.34
239.278	-1.56
239.655	-1.36
240.032	-0.37
240.409	-0.15
240.785	0.35
241.162	1.11
241.539	-0.3
241.915	0.63
242.292	1.08
242.668	1.69
243.045	2.67
243.421	3.03
243.798	2.97
244.174	3.17
244.551	2.94
244.927	3.13
245.303	3.1
245.679	3.1
246.056	3.19
246.432	3.16
246.808	3.51
247.184	3.63
247.56	3.41
247.936	3.35
248.312	3.22
248.688	3.24
249.064	3.13
249.44	3.38
249.815	3.19
250.191	3.18
250.567	3.15
250.943	2.9
251.318	2.44
251.694	2.42
252.069	2.38
252.445	2.75
252.82	2.88
253.196	2.67
253.571	2.48
253.947	2.05
254.322	2.05
254.697	1.84
255.073	1.48
255.448	2.06
255.823	2.37
256.198	2.65
256.573	2.53
256.948	2.52
257.323	2.56
257.698	2.41
258.073	2.35
258.448	2.56
258.823	2.32
259.198	2.64
259.573	2.25
259.948	2.49
260.322	2.33
260.697	2.14
261.072	2.12
261.446	2.07
261.821	1.88
262.195	1.65
262.57	1.65
262.944	1.86
263.319	1.76
263.693	1.41
264.067	1.36
264.442	1.43
264.816	1.26
265.19	1.18
265.564	1.38
265.938	1.26
266.313	0.9
266.687	0.99
267.061	0.91
267.435	1.34
267.809	1.18
268.183	1.18
268.556	1.22
268.93	1.34
269.304	1.46
269.678	1.83
270.051	1.99
270.425	2.11
270.799	1.87
271.172	1.89
271.546	2.18
271.919	2.13
272.293	1.97
272.666	2.23
273.04	2.33
273.413	2.28
273.787	2.25
274.16	2.31
274.533	2.35
274.906	2.59
275.279	2.63
275.653	2.7
276.026	2.86
276.399	2.79
276.772	2.75
277.145	2.73
277.518	2.57
277.891	2.57
278.263	2.46
278.636	2.86
279.009	2.9
279.382	2.84
279.755	2.78
280.127	2.98
280.5	2.79
280.872	2.67
281.245	2.73
281.617	2.82
281.99	3.01
282.362	3.15
282.735	3.05
283.107	3
283.479	2.99
283.852	3.02
284.224	3.3
284.596	3.45
284.968	3.46
285.34	3.46
285.713	3.59
286.085	3.6
286.457	3.51
286.829	3.47
287.201	3.37
287.572	3.5
287.944	3.51
288.316	3.62
288.688	3.72
289.06	3.81
289.431	3.86
289.803	3.74
290.175	3.79
290.546	3.72
290.918	3.81
291.289	3.81
291.661	3.84
292.032	3.66
292.403	3.46
292.775	3.58
293.146	3.66
293.517	3.66
293.889	3.63
294.26	3.68
294.631	3.68
295.002	3.79
295.373	3.66
295.744	3.64
296.115	3.65
296.486	3.64
296.857	3.5
297.228	3.38
297.599	3.27
297.97	3.28
298.34	3.35
298.711	3.24
299.082	3.3
299.452	3.26
299.823	3.35
300.194	3.53
300.564	3.38
300.935	3.4
301.305	3.23
301.676	3.25
302.046	3.05
302.416	3.09
302.787	3.16
303.157	3.28
303.527	3.34
303.897	3.33
304.267	3.23
304.637	3.27
305.008	3.36
305.378	3.55
305.748	3.52
306.117	3.56
306.487	3.66
306.857	3.69
307.227	3.82
307.597	3.65
307.967	3.68
308.336	3.78
308.706	3.72
309.076	3.84
309.445	3.9
309.815	3.93
310.184	3.79
310.554	3.66
310.923	3.61
311.293	3.49
311.662	3.46
312.031	3.53
312.401	3.56
312.77	3.61
313.139	3.59
313.508	3.48
313.877	3.5
314.246	3.51
314.616	3.38
314.985	3.21
315.353	3.37
315.722	3.4
316.091	3.43
316.46	3.56
316.829	3.7
317.198	3.63
317.567	3.93
317.935	4.09
318.304	4.3
318.672	4.37
319.041	4.54
319.41	4.72
319.778	4.67
320.147	4.7
320.515	4.87
320.883	4.96
321.252	5.12
321.62	5.01
321.988	5.16
322.357	5.31
322.725	5.48
323.093	5.48
323.461	5.47
323.829	5.56
324.197	5.57
324.565	5.48
324.933	5.51
325.301	5.36
325.669	5.34
326.037	5.48
326.405	5.49
326.772	5.37
327.14	5.25
327.508	5.31
327.875	5.2
328.243	5.13
328.61	5.14
328.978	5.13
329.346	5.27
329.713	5.1
330.08	5.14
330.448	5.13
330.815	5.09
331.182	4.9
331.55	4.75
331.917	4.79
332.284	4.87
332.651	4.97
333.018	4.9
333.385	5
333.752	4.9
334.119	4.96
334.486	5.01
334.853	4.85
335.22	4.84
335.587	5.04
335.954	5.06
336.32	5.03
336.687	5.05
337.054	5
337.42	5.11
337.787	5.16
338.153	5.16
338.52	5.28
338.886	5.4
339.253	5.43
339.619	5.45
339.986	5.34
340.352	5.29
340.718	5.38
341.084	5.33
341.451	5.33
341.817	5.27
342.183	5.27
342.549	5.48
342.915	5.55
343.281	5.61
343.647	5.62
344.013	5.65
344.379	5.65
344.745	5.66
345.11	5.61
345.476	5.61
345.842	5.55
346.208	5.55
346.573	5.62
346.939	5.6
347.304	5.67
347.67	5.8
348.035	5.79
348.401	5.82
348.766	5.81
349.132	5.84
349.497	5.84
349.862	5.82
350.228	5.82
350.593	5.75
350.958	5.73
351.323	5.71
351.688	5.71
352.053	5.78
352.418	5.74
352.783	5.75
353.148	5.7
353.513	5.75
353.878	5.78
354.243	5.67
354.608	5.69
354.972	5.63
355.337	5.62
355.702	5.68
356.066	5.63
356.431	5.59
356.795	5.54
357.16	5.58
357.524	5.58
357.889	5.63
358.253	5.6
358.618	5.46
358.982	5.5
359.346	5.45
359.71	5.38
360.075	5.45
360.439	5.48
360.803	5.47
361.167	5.46
361.531	5.35
361.895	5.28
362.259	5.39
362.623	5.35
362.987	5.36
363.351	5.27
363.714	5.22
364.078	5.2
364.442	5.18
364.806	5.11
365.169	5.06
365.533	4.95
365.896	4.95
366.26	5
366.623	4.89
366.987	4.93
367.35	4.93
367.714	4.88
368.077	4.89
368.44	4.88
368.803	4.81
369.167	4.85
369.53	4.92
369.893	4.74
370.256	4.69
370.619	4.59
370.982	4.62
371.345	4.61
371.708	4.62
372.071	4.56
372.434	4.55
372.797	4.6
373.159	4.52
373.522	4.57
373.885	4.59
374.247	4.58
374.61	4.56
374.973	4.49
375.335	4.45
375.698	4.35
376.06	4.3
376.423	4.25
376.785	4.26
377.147	4.24
377.51	4.24
377.872	4.25
378.234	4.24
378.596	4.2
378.958	4.22
379.321	4.21
379.683	4.28
380.045	4.24
380.407	4.22
380.769	4.22
381.13	4.12
381.492	4.02
381.854	4.03
382.216	4
382.578	3.98
382.939	3.94
383.301	3.98
383.663	3.98
384.024	3.98
384.386	3.95
384.747	3.93
385.109	3.98
385.47	3.97
385.832	3.93
386.193	3.89
386.554	3.77
386.916	3.78
387.277	3.74
387.638	3.77
387.999	3.77
388.36	3.76
388.721	3.81
389.082	3.89
389.443	3.88
389.804	3.88
390.165	3.89
390.526	3.87
390.887	3.79
391.248	3.76
391.609	3.75
391.969	3.73
392.33	3.7
392.691	3.67
393.051	3.66
393.412	3.66
393.772	3.67
394.133	3.71
394.493	3.7
394.854	3.68
395.214	3.68
395.574	3.68
395.935	3.67
396.295	3.64
396.655	3.55
397.015	3.49
397.376	3.42
397.736	3.38
398.096	3.37
398.456	3.35
398.816	3.36
399.176	3.31
399.535	3.28
399.895	3.24
400.255	3.2
400.615	3.17
400.975	3.22
401.334	3.19
401.694	3.16
402.054	3.16
402.413	3.12
402.773	3.07
403.132	3.01
403.492	3.01
403.851	2.96
404.211	2.97
404.57	3
404.929	3
405.288	2.99
405.648	2.96
406.007	3
406.366	2.99
406.725	3.02
407.084	3
407.443	3.03
407.802	3.03
408.161	3.03
408.52	3
408.879	3.02
409.238	3.03
409.596	2.98
409.955	2.98
410.314	3.01
410.673	3.02
411.031	3.02
411.39	3.02
411.748	3.04
412.107	3.01
412.465	3.02
412.824	2.99
413.182	3.01
413.54	3.03
413.899	3
414.257	3.01
414.615	2.99
414.974	3
415.332	2.99
415.69	2.98
416.048	2.97
416.406	2.95
416.764	2.96
417.122	2.97
417.48	2.95
417.838	2.93
418.195	2.93
418.553	2.93
418.911	2.92
419.269	2.9
419.626	2.91
419.984	2.91
420.342	2.93
420.699	2.92
421.057	2.87
421.414	2.88
421.772	2.89
422.129	2.89
422.486	2.88
422.844	2.87
423.201	2.87
423.558	2.85
423.915	2.85
424.273	2.84
424.63	2.83
424.987	2.85
425.344	2.85
425.701	2.86
426.058	2.85
426.415	2.86
426.772	2.88
427.128	2.89
427.485	2.88
427.842	2.85
428.199	2.85
428.555	2.89
428.912	2.89
429.269	2.85
429.625	2.85
429.982	2.85
430.338	2.85
430.695	2.83
431.051	2.85
431.407	2.86
431.764	2.85
432.12	2.87
432.476	2.87
432.832	2.85
433.189	2.82
433.545	2.83
433.901	2.82
434.257	2.8
434.613	2.79
434.969	2.78
435.325	2.79
435.681	2.8
436.036	2.8
436.392	2.79
436.748	2.79
437.104	2.8
437.459	2.78
437.815	2.81
438.171	2.84
438.526	2.82
438.882	2.81
439.237	2.81
439.593	2.79
439.948	2.79
440.304	2.8
440.659	2.81
441.014	2.8
441.369	2.8
441.725	2.83
442.08	2.81
442.435	2.82
442.79	2.81
443.145	2.81
443.5	2.82
443.855	2.8
444.21	2.8
444.565	2.81
444.92	2.81
445.275	2.8
445.629	2.8
445.984	2.81
446.339	2.8
446.693	2.79
447.048	2.77
447.403	2.77
447.757	2.76
448.112	2.77
448.466	2.76
448.82	2.74
449.175	2.73
449.529	2.73
449.883	2.71
450.238	2.71
450.592	2.7
450.946	2.68
451.3	2.69
451.654	2.68
452.008	2.69
452.362	2.68
452.716	2.67
453.07	2.67
453.424	2.65
453.778	2.66
454.132	2.68
454.486	2.7
454.839	2.71
455.193	2.73
455.547	2.73
455.9	2.75
456.254	2.76
456.607	2.74
456.961	2.75
457.314	2.75
457.668	2.74
458.021	2.75
458.375	2.75
458.728	2.77
459.081	2.77
459.434	2.77
459.787	2.8
460.141	2.79
460.494	2.78
460.847	2.79
461.2	2.8
461.553	2.8
461.906	2.82
462.259	2.79
462.611	2.8
462.964	2.79
463.317	2.79
463.67	2.81
464.022	2.84
464.375	2.85
464.728	2.84
465.08	2.86
465.433	2.86
465.785	2.87
466.138	2.87
466.49	2.88
466.843	2.88
467.195	2.87
467.547	2.85
467.899	2.87
468.252	2.89
468.604	2.88
468.956	2.86
469.308	2.86
469.66	2.87
470.012	2.84
470.364	2.84
470.716	2.85
471.068	2.86
471.42	2.85
471.772	2.86
472.123	2.88
472.475	2.89
472.827	2.88
473.178	2.87
473.53	2.89
473.882	2.87
474.233	2.87
474.585	2.86
474.936	2.87
475.288	2.85
475.639	2.86
475.99	2.84
476.342	2.87
476.693	2.87
477.044	2.87
477.395	2.88
477.746	2.87
478.097	2.85
478.448	2.82
478.8	2.84
479.15	2.82
479.501	2.81
479.852	2.81
480.203	2.82
480.554	2.83
480.905	2.83
481.255	2.84
481.606	2.85
481.957	2.85
482.307	2.86
482.658	2.87
483.009	2.87
483.359	2.87
483.709	2.88
484.06	2.88
484.41	2.88
484.761	2.89
485.111	2.91
485.461	2.92
485.811	2.93
486.162	2.93
486.512	2.94
486.862	2.95
487.212	2.95
487.562	2.95
487.912	2.95
488.262	2.96
488.612	2.96
488.961	2.96
489.311	2.97
489.661	2.97
490.011	2.98
490.36	2.97
490.71	2.98
491.06	2.97
491.409	2.97
491.759	2.96
492.108	2.96
492.458	2.95
492.807	2.95
493.157	2.96
493.506	2.95
493.855	2.95
494.204	2.95
494.554	2.94
494.903	2.95
495.252	2.95
495.601	2.97
495.95	2.98
496.299	2.97
496.648	2.98
496.997	3
497.346	3.01
497.695	3
498.043	3.03
498.392	3.04
498.741	3.05
499.09	3.07
499.438	3.09
499.787	3.11
500.135	3.12
500.484	3.14
500.832	3.16
501.181	3.18
501.529	3.21
501.878	3.25
502.226	3.24
502.574	3.28
502.923	3.28
503.271	3.29
503.619	3.32
503.967	3.33
504.315	3.33
504.663	3.36
505.011	3.43
505.359	3.42
505.707	3.47
506.055	3.5
506.403	3.54
506.751	3.56
507.098	3.58
507.446	3.6
507.794	3.64
508.141	3.67
508.489	3.7
508.837	3.73
509.184	3.78
509.531	3.81
509.879	3.83
510.226	3.85
510.574	3.88
510.921	3.91
511.268	3.95
511.616	4
511.963	4.02
512.31	4.03
512.657	4.09
513.004	4.09
513.351	4.14
513.698	4.18
514.045	4.25
514.392	4.31
514.739	4.36
515.086	4.4
515.432	4.47
515.779	4.53
516.126	4.58
516.473	4.62
516.819	4.67
517.166	4.73
517.512	4.77
517.859	4.83
518.205	4.85
518.552	4.89
518.898	4.92
519.245	4.98
519.591	5.04
519.937	5.08
520.283	5.16
520.629	5.19
520.976	5.24
521.322	5.29
521.668	5.33
522.014	5.4
522.36	5.45
522.706	5.51
523.052	5.6
523.398	5.67
523.743	5.75
524.089	5.88
524.435	5.97
524.781	6.08
525.126	6.16
525.472	6.25
525.817	6.34
526.163	6.43
526.509	6.49
526.854	6.56
527.199	6.62
527.545	6.68
527.89	6.74
528.235	6.81
528.581	6.86
528.926	6.95
529.271	7.01
529.616	7.07
529.961	7.13
530.306	7.2
530.651	7.27
530.996	7.34
531.341	7.4
531.686	7.49
532.031	7.57
532.376	7.66
532.721	7.74
533.065	7.83
533.41	7.94
533.755	8.05
534.099	8.16
534.444	8.26
534.788	8.38
535.133	8.49
535.477	8.61
535.822	8.74
536.166	8.84
536.51	8.99
536.855	9.13
537.199	9.28
537.543	9.44
537.887	9.61
538.231	9.79
538.576	9.96
538.92	10.11
539.264	10.25
539.608	10.39
539.951	10.53
540.295	10.67
540.639	10.77
540.983	10.9
541.327	11.02
541.671	11.17
542.014	11.32
542.358	11.43
542.701	11.54
543.045	11.67
543.389	11.81
543.732	11.94
544.075	12.09
544.419	12.25
544.762	12.39
545.105	12.55
545.449	12.72
545.792	12.9
546.135	13.06
546.478	13.25
546.821	13.44
547.165	13.64
547.508	13.82
547.851	14.05
548.194	14.24
548.536	14.42
548.879	14.61
549.222	14.79
549.565	15.02
549.908	15.27
550.25	15.5
550.593	15.72
550.936	15.97
551.278	16.18
551.621	16.41
551.963	16.67
552.306	16.89
552.648	17.1
552.991	17.29
553.333	17.51
553.675	17.77
554.017	18.02
554.36	18.25
554.702	18.49
555.044	18.74
555.386	19.02
555.728	19.29
556.07	19.53
556.412	19.83
556.754	20.08
557.096	20.33
557.438	20.59
557.78	20.85
558.121	21.1
558.463	21.41
558.805	21.68
559.147	21.91
559.488	22.19
559.83	22.46
560.171	22.74
560.513	23.01
560.854	23.32
561.196	23.61
561.537	23.88
561.878	24.17
562.22	24.44
562.561	24.73
562.902	25
563.243	25.27
563.584	25.49
563.925	25.75
564.266	26
564.607	26.31
564.948	26.57
565.289	26.89
565.63	27.11
565.971	27.35
566.312	27.64
566.653	27.87
566.993	28.11
567.334	28.4
567.675	28.64
568.015	28.86
568.356	29.12
568.696	29.37
569.037	29.62
569.377	29.85
569.718	30.07
570.058	30.33
570.398	30.62
570.739	30.9
571.079	31.15
571.419	31.42
571.759	31.61
572.099	31.88
572.439	32.09
572.779	32.33
573.119	32.57
573.459	32.75
573.799	33.01
574.139	33.26
574.479	33.47
574.819	33.76
575.158	34.02
575.498	34.23
575.838	34.51
576.177	34.78
576.517	35.03
576.856	35.25
577.196	35.48
577.535	35.73
577.875	35.92
578.214	36.12
578.553	36.35
578.893	36.61
579.232	36.81
579.571	37.1
579.91	37.36
580.25	37.64
580.589	37.91
580.928	38.13
581.267	38.35
581.606	38.56
581.945	38.76
582.283	39.04
582.622	39.26
582.961	39.47
583.3	39.68
583.639	39.89
583.977	40.11
584.316	40.37
584.654	40.57
584.993	40.83
585.332	41.1
585.67	41.33
586.008	41.57
586.347	41.81
586.685	41.99
587.024	42.13
587.362	42.23
587.7	42.39
588.038	42.53
588.376	42.71
588.715	42.82
589.053	42.98
589.391	43.04
589.729	43.23
590.067	43.38
590.404	43.52
590.742	43.74
591.08	43.97
591.418	44.15
591.756	44.34
592.093	44.49
592.431	44.77
592.769	44.96
593.106	45.1
593.444	45.29
593.781	45.36
594.119	45.44
594.456	45.64
594.793	45.83
595.131	46.02
595.468	46.17
595.805	46.38
596.143	46.51
596.48	46.64
596.817	46.78
597.154	46.94
597.491	47.04
597.828	47.1
598.165	47.2
598.502	47.3
598.839	47.4
599.176	47.56
599.512	47.62
599.849	47.66
600.186	47.81
600.523	47.85
600.859	48.1
601.196	48.36
601.532	48.5
601.869	48.64
602.205	48.71
602.542	48.87
602.878	49.05
603.215	49.21
603.551	49.34
603.887	49.47
604.223	49.54
604.56	49.65
604.896	49.78
605.232	49.89
605.568	49.94
605.904	50
606.24	50.1
606.576	50.2
606.912	50.36
607.248	50.45
607.583	50.52
607.919	50.57
608.255	50.61
608.591	50.72
608.926	50.76
609.262	50.89
609.597	50.96
609.933	50.99
610.268	51.03
610.604	51.12
610.939	51.13
611.275	51.19
611.61	51.31
611.945	51.44
612.281	51.43
612.616	51.54
612.951	51.64
613.286	51.66
613.621	51.68
613.956	51.71
614.291	51.78
614.626	51.88
614.961	51.94
615.296	52.04
615.631	52.14
615.966	52.25
616.3	52.36
616.635	52.43
616.97	52.48
617.304	52.49
617.639	52.51
617.973	52.58
618.308	52.65
618.642	52.63
618.977	52.64
619.311	52.77
619.646	52.78
619.98	52.82
620.314	52.83
620.648	52.98
620.983	53.09
621.317	53.22
621.651	53.35
621.985	53.42
622.319	53.45
622.653	53.53
622.987	53.6
623.321	53.58
623.655	53.71
623.988	53.8
624.322	53.98
624.656	54.01
624.99	54.15
625.323	54.13
625.657	54.14
625.99	54.18
626.324	54.26
626.657	54.29
626.991	54.38
627.324	54.42
627.658	54.31
627.991	54.38
628.324	54.42
628.657	54.44
628.991	54.47
629.324	54.47
629.657	54.52
629.99	54.53
630.323	54.56
630.656	54.5
630.989	54.56
631.322	54.54
631.655	54.59
631.987	54.55
632.32	54.66
632.653	54.8
632.986	54.82
633.318	54.86
633.651	54.98
633.984	55.02
634.316	55.13
634.649	55.21
634.981	55.18
635.313	55.18
635.646	55.27
635.978	55.25
636.31	55.38
636.643	55.32
636.975	55.41
637.307	55.47
637.639	55.53
637.971	55.52
638.303	55.61
638.635	55.65
638.967	55.73
639.299	55.66
639.631	55.69
639.963	55.72
640.295	55.64
640.626	55.69
640.958	55.6
641.29	55.57
641.621	55.61
641.953	55.66
642.285	55.62
642.616	55.59
642.948	55.67
643.279	55.65
643.61	55.64
643.942	55.59
644.273	55.67
644.604	55.64
644.936	55.74
645.267	55.68
645.598	55.67
645.929	55.59
646.26	55.68
646.591	55.76
646.922	55.83
647.253	55.85
647.584	55.9
647.915	55.96
648.245	56.11
648.576	56.22
648.907	56.3
649.238	56.35
649.568	56.38
649.899	56.29
650.229	56.38
650.56	56.53
650.89	56.56
651.221	56.52
651.551	56.68
651.882	56.7
652.212	56.61
652.542	56.75
652.872	56.86
653.203	56.97
653.533	56.97
653.863	56.98
654.193	57.13
654.523	57.16
654.853	57.35
655.183	57.33
655.513	57.23
655.843	57.1
656.172	57.17
656.502	57.28
656.832	57.44
657.162	57.52
657.491	57.54
657.821	57.6
658.15	57.6
658.48	57.62
658.809	57.62
659.139	57.72
659.468	57.77
659.798	57.69
660.127	57.63
660.456	57.66
660.785	57.66
661.115	57.64
661.444	57.65
661.773	57.48
662.102	57.54
662.431	57.54
662.76	57.61
663.089	57.66
663.418	57.61
663.747	57.58
664.076	57.51
664.404	57.45
664.733	57.51
665.062	57.62
665.39	57.46
665.719	57.39
666.048	57.48
666.376	57.36
666.705	57.51
667.033	57.45
667.362	57.45
667.69	57.52
668.018	57.55
668.347	57.6
668.675	57.61
669.003	57.59
669.331	57.74
669.659	57.77
669.987	57.63
670.315	57.63
670.643	57.59
670.971	57.6
671.299	57.56
671.627	57.55
671.955	57.55
672.283	57.53
672.61	57.59
672.938	57.54
673.266	57.58
673.593	57.63
673.921	57.84
674.249	57.71
674.576	57.67
674.904	57.64
675.231	57.55
675.558	57.6
675.886	57.64
676.213	57.6
676.54	57.68
676.867	57.79
677.195	57.93
677.522	58.07
677.849	58.18
678.176	58.27
678.503	58.21
678.83	58.19
679.157	58.36
679.484	58.29
679.81	58.19
680.137	58.18
680.464	58.23
680.791	58.13
681.117	58.21
681.444	58.27
681.771	58.32
682.097	58.34
682.424	58.4
682.75	58.52
683.077	58.58
683.403	58.64
683.729	58.64
684.056	58.49
684.382	58.41
684.708	58.33
685.034	58.38
685.36	58.42
685.686	58.54
686.012	58.53
686.339	58.66
686.664	58.78
686.99	58.78
687.316	58.49
687.642	58.39
687.968	58.42
688.294	58.28
688.619	58.4
688.945	58.41
689.271	58.32
689.596	58.29
689.922	58.3
690.247	58.19
690.573	58.09
690.898	58.19
691.224	58.33
691.549	58.4
691.874	58.39
692.2	58.23
692.525	58.22
692.85	58.2
693.175	58.04
693.5	58.08
693.825	58.05
694.15	58.44
694.475	58.54
694.8	58.66
695.125	58.86
695.45	58.8
695.775	58.89
696.099	59.12
696.424	58.96
696.749	58.99
697.073	59.02
697.398	59.18
697.723	59.22
698.047	59.14
698.372	59.06
698.696	59.05
699.02	59.24
699.345	59.1
699.669	59.15
699.993	59.19
700.318	59.11
700.642	59.15
700.966	59
701.29	59.14
701.614	59.08
701.938	59.06
702.262	59
702.586	58.9
702.91	58.75
703.234	58.89
703.557	58.92
703.881	58.97
704.205	59.1
704.529	58.92
704.852	58.93
705.176	59.08
705.499	59.02
705.823	58.84
706.146	58.89
706.47	58.8
706.793	58.96
707.117	59.19
707.44	59.47
707.763	59.42
708.086	59.28
708.409	59.29
708.733	59.13
709.056	59.13
709.379	59.34
709.702	59.41
710.025	59.4
710.348	59.32
710.671	59.29
710.993	59.25
711.316	59.27
711.639	59.3
711.962	59.23
712.284	59.27
712.607	59.42
712.93	59.45
713.252	59.38
713.575	59.36
713.897	59.18
714.22	59.07
714.542	59.19
714.864	59.3
715.187	59.26
715.509	59.54
715.831	59.66
716.153	59.5
716.475	59.56
716.798	59.43
717.12	59.46
717.442	59.44
717.764	59.27
718.085	59.59
718.407	59.63
718.729	59.63
719.051	59.47
719.373	59.52
719.695	59.43
720.016	59.47
720.338	59.57
720.659	59.41
720.981	59.49
721.302	59.51
721.624	59.39
721.945	59.29
722.267	58.87
722.588	58.76
722.909	58.68
723.231	58.66
723.552	58.8
723.873	58.95
724.194	58.98
724.515	59.17
724.836	59.1
725.157	59.04
725.478	59.06
725.799	59.17
726.12	58.71
726.441	59.03
726.762	59.08
727.083	59.14
727.403	59.42
727.724	59.42
728.045	59.29
728.365	59.32
728.686	59.23
729.006	59.4
729.327	59.21
729.647	59.48
729.967	59.47
730.288	59.35
730.608	59.22
730.928	59.16
731.249	59.13
731.569	59.21
731.889	59.33
732.209	59.38
732.529	59.33
732.849	59.83
733.169	59.62
733.489	59.45
733.809	59.36
734.129	59.18
734.448	58.99
734.768	58.84
735.088	58.85
735.408	59.19
735.727	59.04
736.047	59.3
736.366	59.21
736.686	59.03
737.005	59.19
737.325	59.26
737.644	59.44
737.963	59.34
738.283	58.95
738.602	59.04
738.921	59.02
739.24	59.09
739.56	58.62
739.879	58.51
740.198	58.8
740.517	58.67
740.836	58.78
741.155	58.88
741.473	59.21
741.792	59.47
742.111	59.03
742.43	59.02
742.748	58.91
743.067	58.88
743.386	58.77
743.704	58.49
744.023	58.33
744.341	58.15
744.66	58.15
744.978	58.38
745.297	57.9
745.615	57.72
745.933	57.87
746.252	58.17
746.57	58.17
746.888	58
747.206	58.17
747.524	58.38
747.842	58.31
748.16	57.99
748.478	57.51
748.796	57.62
749.114	57.84
749.432	57.84
749.749	57.86
750.067	58.19
750.385	58.44
750.703	58.65
751.02	58.45
751.338	58.36
751.655	58.21
751.973	58.37
752.29	58.56
752.608	58.16
752.925	58.4
753.242	58.55
753.56	58.21
753.877	58.17
754.194	57.6
754.511	57.87
754.828	58.33
755.145	58.71
755.462	58.99
755.779	58.86
756.096	58.82
756.413	59.1
756.73	59.16
757.047	59.44
757.364	59.46
757.68	59.49
757.997	59.4
758.314	59.78
758.63	60
758.947	60.07
759.264	60.33
759.58	60.01
759.896	60.23
760.213	60.62
760.529	60.64
760.846	61.04
761.162	60.89
761.478	60.74
761.794	61.1
762.11	61.25
762.426	61.35
762.743	61.29
763.059	61.07
763.375	61.13
763.69	60.86
764.006	60.64
764.322	60.85
764.638	61.09
764.954	60.96
765.27	60.85
765.585	60.86
765.901	60.92
766.216	61.04
766.532	60.83
766.848	60.66
767.163	60.75
767.478	60.68
767.794	60.82
768.109	60.69
768.424	59.9
768.74	59.31
769.055	59.57
769.37	59.6
769.685	59.88
770	59.52
770.315	59.65
770.63	59.96
770.945	59.86
771.26	59.29
771.575	59.05
771.89	59.25
772.205	58.91
772.52	58.44
772.834	58.4
773.149	58.2
773.464	58.22
773.778	58.23
774.093	58.1
774.407	57.69
774.722	57.88
775.036	58.65
775.351	59.39
775.665	58.78
775.979	58.83
776.293	58.4
776.608	58.42
776.922	57.97
777.236	57.64
777.55	57.68
777.864	58.3
778.178	58.24
778.492	58.18
778.806	58.62
779.12	58.99
779.434	59.38
779.747	59.6
780.061	59.64
780.375	59.2
780.689	59.27
781.002	59.06
781.316	58.98
781.629	58.98
781.943	58.77
782.256	58.92
782.57	58.71
782.883	58.48
783.196	58.41
783.51	58.77
783.823	59.02
784.136	58.77
784.449	58.74
784.762	58.46
785.075	58.12
785.388	58.11
785.701	58.36
786.014	57.85
786.327	58.03
786.64	58.5
786.953	59.01
787.266	58.75
787.578	59.14
787.891	59.49
788.204	59.26
788.516	59.26
788.829	59.51
789.141	59.94
789.454	60.12
789.766	60.47
790.079	60.5
790.391	60.23
790.703	60.62
791.016	60.89
791.328	61
791.64	61.04
791.952	61.38
792.264	60.5
792.576	60.74
792.888	60.93
793.2	60.78
793.512	60.7
793.824	60.98
794.136	60.62
794.448	60.47
794.76	60.39
795.071	60.01
795.383	59.57
795.695	59.42
796.006	59.87
796.318	60.06
796.629	59.62
796.941	59.74
797.252	59.88
797.564	59.55
797.875	60.18
798.186	60.5
798.497	59.88
798.809	60.16
799.12	60.31
799.431	59.85
799.742	59.33
800.053	59.26
800.364	59.37
800.675	59.9
800.986	59.72
801.297	59.83
801.608	59.2
801.918	59.14
802.229	59.11
802.54	58.78
802.851	58.91
803.161	59.63
803.472	59.61
803.782	59.38
804.093	59.51
804.403	60
804.714	59.91
805.024	59.34
805.334	59.98
805.645	60.48
805.955	60.41
806.265	60.74
806.575	60.01
806.885	60.29
807.195	59.45
807.505	59.07
807.815	58.73
808.125	59.94
808.435	60.05
808.745	60.04
809.055	60.31
809.365	59.32
809.674	58.81
809.984	58.93
810.294	59.23
810.603	57.84
810.913	56.99
811.222	56.17
811.532	57.01
811.841	56.31
812.151	55.8
812.46	56.71
812.769	56.7
813.079	56.98
813.388	56.63
813.697	56.97
814.006	57.17
814.315	56.57
814.624	56.42
814.933	57.1
815.242	56.78
815.551	56.01
815.86	56.37
816.169	56.61
816.478	56.57
816.786	56.2
817.095	56.93
817.404	57.51
817.712	58.33
818.021	58.49
818.33	59.37
818.638	58.98
818.947	58.91
819.255	58.62
819.563	59.28
819.872	59.7
820.18	59.85
820.488	60.58
820.796	61.24
821.105	61.6
821.413	61.69
821.721	61.99
822.029	62.02
822.337	62.22
822.645	62.4
822.953	62.54
823.26	62.59
823.568	62.67
823.876	62.69
824.184	62.53
824.491	62.35
824.799	62.35
825.107	62.45
825.414	62.43
825.722	62.69
826.029	62.72
826.337	62.64
826.644	62.77
826.951	62.41
827.259	62.42
827.566	62.09
827.873	61.95
828.18	61.78
828.488	61.9
828.795	61.48
829.102	61.22
829.409	61.03
829.716	60.99
830.023	61.14
830.329	60.51
830.636	60.6
830.943	60.64
831.25	60.72
831.557	60.39
831.863	60.52
832.17	60.07
832.476	59.58
832.783	59.35
833.089	58.94
833.396	59.15
833.702	58.75
834.009	59.16
834.315	58.44
834.621	58.89
834.928	58.6
835.234	58.85
835.54	58.75
835.846	58.81
836.152	58.31
836.458	57.87
836.764	58.15
837.07	58.45
837.376	58.01
837.682	56.98
837.988	57.48
838.293	56.78
838.599	57.12
838.905	56.83
839.211	57.05
839.516	57.19
839.822	57.04
840.127	56.47
840.433	55.91
840.738	56.15
841.044	54.79
841.349	54.65
841.654	53.27
841.959	52.77
842.265	52.71
842.57	52.22
842.875	51.46
843.18	50.7
843.485	50.01
843.79	50.93
844.095	51.24
844.4	50.08
844.705	49.92
845.01	50.53
845.315	51.43
845.619	49.64
845.924	48.99
846.229	47.89
846.533	48.48
846.838	48.01
847.142	46.42
847.447	46.21
847.751	47.34
848.056	49.1
848.36	49.76
848.664	46.58
848.969	47.09
849.273	46.79
849.577	46.71
849.881	47.36
850.185	47.76
850.489	49.24
850.794	49.08
851.097	49.66
851.401	47.52
851.705	45.93
852.009	49.45
852.313	50.39
852.617	51.05
852.92	49.35
853.224	48.32
853.528	50.02
853.831	51.61
854.135	49.04
854.438	47.5
854.742	47.56
855.045	50.79
855.349	51.77
855.652	52.49
855.955	53.17
856.259	52.98
856.562	51.73
856.865	50.32
857.168	50.16
857.471	50.07
857.774	50.52
858.077	51.99
858.38	49.9
858.683	49.18
858.986	48.03
859.289	48.48
859.592	47.91
859.894	47.09
860.197	43.93
860.5	43.85
860.802	47.18
861.105	44.32
861.407	43.97
861.71	42.8
862.012	42.25
862.315	42.91
862.617	41.79
862.919	41.69
863.222	41.87
863.524	42.85
863.826	40.9
864.128	41.77
864.43	41.15
864.732	39.13
865.034	37.44
865.336	38.6
865.638	39.89
865.94	40.74
866.242	43.21
866.544	43.82
866.846	43.54
867.147	40.87
867.449	42.51
867.751	42.69
868.052	42.2
868.354	42.49
868.655	42.23
868.957	40.65
869.258	40.75
869.56	40.12
869.861	40.05
870.162	41.11
870.463	41.61
870.765	42.17
871.066	44.2
871.367	44
871.668	42.88
871.969	38.66
872.27	39.55
872.571	37.6
872.872	38.29
873.173	39.28
873.473	36.29
873.774	36.67
874.075	37.52
874.376	37.25
874.676	38.73
874.977	37.68
875.277	38.43
875.578	37.16
875.878	37.58
876.179	36.51
876.479	36.47
876.78	34.35
877.08	33.08
877.38	31.71
877.68	34.65
877.981	34.68
878.281	37.59
878.581	35.88
