Data from BA44024_Reflection_00012.txt Node
Date: Tue Nov 19 11:48:56 EST 2019
User: vgr7
Spectrometer: USB2G7710
Scans to average: 3
Trigger mode: 4
Integration Time (sec): 2.000000E-2
Electric dark correction enabled: true
Boxcar width: 10
XAxis mode: Wavelengths
Number of Pixels in Spectrum: 2048
>>>>>Begin Spectral Data<<<<<
177.721	62.61
178.105	64.79
178.488	-13.66
178.871	29.11
179.254	-40
179.636	19.14
180.019	-47.38
180.402	-45.45
180.785	-169.86
181.168	12.57
181.55	12.34
181.933	26.45
182.316	2.35
182.698	1.76
183.081	52.42
183.463	59.24
183.846	127.11
184.228	12.64
184.611	-56.05
184.993	-47.06
185.376	-53.14
185.758	-25.82
186.14	-96.84
186.522	-95.72
186.904	-51.5
187.287	-74.39
187.669	-38.49
188.051	-52.73
188.433	-67.76
188.815	-55.81
189.197	-36.74
189.579	-33.22
189.961	-50.03
190.342	-51.77
190.724	-76.15
191.106	-50.18
191.488	-21.57
191.869	-21.64
192.251	-40.58
192.633	-40.06
193.014	-41.05
193.396	-31.89
193.777	-38.69
194.159	-25.16
194.54	-22.73
194.922	-27.04
195.303	-24.18
195.684	-23.11
196.065	-39.09
196.447	-19.02
196.828	-14.75
197.209	-4.79
197.59	19.29
197.971	5.58
198.352	0.33
198.733	2.3
199.114	-9.89
199.495	-11.95
199.876	-9.6
200.257	2.89
200.638	4.08
201.018	11.66
201.399	2.97
201.78	7.55
202.16	4.59
202.541	-18.25
202.922	-22.76
203.302	-21.57
203.683	-29.12
204.063	-21.96
204.444	-43.03
204.824	-51.97
205.204	-41.35
205.585	-56.24
205.965	-45.06
206.345	-52.92
206.725	-31.74
207.106	-19.74
207.486	-49.09
207.866	-58.98
208.246	-56.14
208.626	-77.87
209.006	-101.93
209.386	-112.44
209.766	-107.81
210.145	-96.49
210.525	-56.35
210.905	-40.93
211.285	-41.85
211.664	-17.66
212.044	-13.57
212.424	-3.1
212.803	-12.37
213.183	-34.78
213.562	-36.94
213.942	-39.79
214.321	-34.4
214.701	-43
215.08	-40.58
215.459	-22.01
215.838	-15.28
216.218	-19.36
216.597	-15.28
216.976	-11.95
217.355	-21.89
217.734	-29.51
218.113	-27.6
218.492	-34.02
218.871	-40.54
219.25	-44.39
219.629	-49.73
220.008	-54.01
220.387	-41.17
220.766	-30.84
221.144	-25.1
221.523	-18.05
221.902	-13.28
222.28	-5.48
222.659	-4.08
223.037	-10.74
223.416	-10.11
223.794	-9.9
224.173	-7.68
224.551	0.31
224.929	-1.99
225.308	7.57
225.686	9.74
226.064	9.17
226.442	11.54
226.821	9.46
227.199	12.94
227.577	16.45
227.955	18.92
228.333	12.14
228.711	9.42
229.089	5.92
229.467	0.31
229.845	-1.28
230.222	-1.39
230.6	-2.97
230.978	-1.42
231.356	-2.63
231.733	-2.1
232.111	-4.65
232.488	-4.81
232.866	-1.94
233.243	-5.63
233.621	-3.76
233.998	-2.3
234.376	-2.1
234.753	-0.92
235.13	-3.76
235.508	-5.68
235.885	-5.47
236.262	-4.82
236.639	-4.87
237.016	-3.68
237.393	-0.32
237.77	1.58
238.147	0.41
238.524	1.65
238.901	1.46
239.278	1.37
239.655	1.67
240.032	3.02
240.409	3.03
240.785	2.31
241.162	2.4
241.539	2.12
241.915	2.26
242.292	2.39
242.668	2.6
243.045	3.26
243.421	3.66
243.798	3.68
244.174	3.86
244.551	3.94
244.927	4.03
245.303	3.58
245.679	3.74
246.056	3.73
246.432	3.68
246.808	3.6
247.184	3.86
247.56	3.88
247.936	3.57
248.312	3.41
248.688	3.54
249.064	3.77
249.44	3.6
249.815	3.58
250.191	3.75
250.567	3.73
250.943	3.85
251.318	3.53
251.694	3.37
252.069	3.29
252.445	3.15
252.82	3.38
253.196	3.35
253.571	3.28
253.947	3.59
254.322	3.54
254.697	3.7
255.073	3.29
255.448	3.18
255.823	3.28
256.198	3.37
256.573	3.29
256.948	3.41
257.323	3.72
257.698	3.89
258.073	3.72
258.448	3.71
258.823	3.33
259.198	3.26
259.573	3.37
259.948	3.4
260.322	3.47
260.697	3.73
261.072	3.87
261.446	3.74
261.821	3.64
262.195	3.65
262.57	3.69
262.944	3.84
263.319	3.74
263.693	3.64
264.067	4.05
264.442	4.14
264.816	3.91
265.19	3.72
265.564	3.49
265.938	3.38
266.313	3.49
266.687	3.59
267.061	3.94
267.435	3.92
267.809	3.85
268.183	3.93
268.556	3.6
268.93	3.75
269.304	3.77
269.678	3.87
270.051	4.04
270.425	4.1
270.799	3.95
271.172	4.15
271.546	4.46
271.919	4.17
272.293	4.17
272.666	4.41
273.04	4.33
273.413	4.19
273.787	4.15
274.16	4.14
274.533	4.27
274.906	4.14
275.279	4.21
275.653	4.26
276.026	4.22
276.399	3.99
276.772	3.9
277.145	3.85
277.518	3.71
277.891	3.63
278.263	3.61
278.636	3.79
279.009	3.71
279.382	3.58
279.755	3.79
280.127	3.6
280.5	3.38
280.872	3.51
281.245	3.49
281.617	3.46
281.99	3.26
282.362	3.26
282.735	3.18
283.107	3.19
283.479	3.3
283.852	3.17
284.224	3.39
284.596	3.4
284.968	3.32
285.34	3.5
285.713	3.52
286.085	3.38
286.457	3.36
286.829	3.42
287.201	3.42
287.572	3.28
287.944	3.39
288.316	3.45
288.688	3.45
289.06	3.56
289.431	3.6
289.803	3.85
290.175	3.92
290.546	4.01
290.918	3.83
291.289	3.56
291.661	3.76
292.032	3.68
292.403	3.73
292.775	3.98
293.146	3.97
293.517	3.89
293.889	4.01
294.26	3.94
294.631	4.01
295.002	4.01
295.373	3.93
295.744	3.98
296.115	4.07
296.486	4.08
296.857	4.08
297.228	4.11
297.599	3.9
297.97	3.85
298.34	3.86
298.711	4.14
299.082	4.2
299.452	4.08
299.823	4.01
300.194	4.12
300.564	3.97
300.935	3.99
301.305	4.12
301.676	4.06
302.046	4.09
302.416	4.02
302.787	4.02
303.157	4.25
303.527	4.24
303.897	4.15
304.267	4.15
304.637	4.26
305.008	4.33
305.378	4.47
305.748	4.43
306.117	4.6
306.487	4.47
306.857	4.59
307.227	4.86
307.597	4.96
307.967	5
308.336	5.08
308.706	5.05
309.076	5.03
309.445	5
309.815	5.1
310.184	4.96
310.554	5
310.923	4.82
311.293	4.87
311.662	4.85
312.031	4.87
312.401	4.78
312.77	4.84
313.139	4.89
313.508	4.9
313.877	4.85
314.246	4.92
314.616	4.97
314.985	4.81
315.353	4.94
315.722	4.93
316.091	4.91
316.46	4.89
316.829	4.81
317.198	4.95
317.567	5.05
317.935	5.22
318.304	5.35
318.672	5.49
319.041	5.54
319.41	5.69
319.778	5.91
320.147	5.9
320.515	5.99
320.883	6.08
321.252	6.31
321.62	6.15
321.988	6.17
322.357	6.14
322.725	6.08
323.093	6
323.461	5.98
323.829	5.89
324.197	5.92
324.565	6.03
324.933	6.02
325.301	5.91
325.669	5.88
326.037	5.91
326.405	5.91
326.772	5.97
327.14	6.02
327.508	5.83
327.875	5.94
328.243	5.91
328.61	5.85
328.978	5.67
329.346	5.79
329.713	5.92
330.08	5.96
330.448	6.09
330.815	6.12
331.182	5.83
331.55	6.07
331.917	5.95
332.284	5.97
332.651	5.96
333.018	5.96
333.385	6.14
333.752	5.94
334.119	5.92
334.486	5.85
334.853	5.86
335.22	5.83
335.587	5.8
335.954	5.71
336.32	5.7
336.687	5.73
337.054	5.7
337.42	5.61
337.787	5.55
338.153	5.37
338.52	5.31
338.886	5.53
339.253	5.36
339.619	5.44
339.986	5.47
340.352	5.38
340.718	5.48
341.084	5.4
341.451	5.5
341.817	5.53
342.183	5.57
342.549	5.69
342.915	5.76
343.281	5.78
343.647	5.87
344.013	5.86
344.379	5.97
344.745	6.08
345.11	6.01
345.476	6.14
345.842	6.2
346.208	6.18
346.573	6.17
346.939	6.19
347.304	6.21
347.67	6.18
348.035	6.24
348.401	6.3
348.766	6.34
349.132	6.31
349.497	6.3
349.862	6.25
350.228	6.2
350.593	6.27
350.958	6.33
351.323	6.26
351.688	6.22
352.053	6.13
352.418	6
352.783	5.98
353.148	5.97
353.513	6.01
353.878	5.97
354.243	5.89
354.608	5.99
354.972	5.98
355.337	6.01
355.702	6.01
356.066	5.96
356.431	5.86
356.795	5.89
357.16	5.87
357.524	5.9
357.889	5.87
358.253	5.81
358.618	5.8
358.982	5.75
359.346	5.78
359.71	5.75
360.075	5.81
360.439	5.83
360.803	5.78
361.167	5.77
361.531	5.77
361.895	5.78
362.259	5.73
362.623	5.78
362.987	5.72
363.351	5.68
363.714	5.65
364.078	5.65
364.442	5.63
364.806	5.67
365.169	5.6
365.533	5.64
365.896	5.61
366.26	5.52
366.623	5.54
366.987	5.54
367.35	5.55
367.714	5.53
368.077	5.57
368.44	5.59
368.803	5.48
369.167	5.49
369.53	5.5
369.893	5.49
370.256	5.4
370.619	5.35
370.982	5.3
371.345	5.25
371.708	5.23
372.071	5.17
372.434	5.08
372.797	5.09
373.159	5
373.522	4.95
373.885	4.95
374.247	4.9
374.61	4.83
374.973	4.75
375.335	4.74
375.698	4.63
376.06	4.54
376.423	4.56
376.785	4.56
377.147	4.49
377.51	4.41
377.872	4.39
378.234	4.47
378.596	4.51
378.958	4.51
379.321	4.53
379.683	4.57
380.045	4.55
380.407	4.5
380.769	4.48
381.13	4.47
381.492	4.46
381.854	4.48
382.216	4.51
382.578	4.59
382.939	4.47
383.301	4.51
383.663	4.54
384.024	4.54
384.386	4.49
384.747	4.51
385.109	4.51
385.47	4.5
385.832	4.37
386.193	4.32
386.554	4.27
386.916	4.21
387.277	4.16
387.638	4.13
387.999	4.14
388.36	4.1
388.721	4.12
389.082	4.14
389.443	4.12
389.804	4.1
390.165	4.07
390.526	4.12
390.887	4.06
391.248	4.01
391.609	3.99
391.969	3.97
392.33	3.93
392.691	3.92
393.051	3.91
393.412	3.92
393.772	3.92
394.133	3.89
394.493	3.85
394.854	3.82
395.214	3.86
395.574	3.83
395.935	3.85
396.295	3.79
396.655	3.74
397.015	3.71
397.376	3.68
397.736	3.64
398.096	3.6
398.456	3.59
398.816	3.6
399.176	3.57
399.535	3.53
399.895	3.52
400.255	3.51
400.615	3.49
400.975	3.49
401.334	3.49
401.694	3.5
402.054	3.52
402.413	3.53
402.773	3.5
403.132	3.46
403.492	3.45
403.851	3.47
404.211	3.45
404.57	3.46
404.929	3.42
405.288	3.43
405.648	3.42
406.007	3.42
406.366	3.41
406.725	3.4
407.084	3.41
407.443	3.43
407.802	3.43
408.161	3.45
408.52	3.42
408.879	3.41
409.238	3.42
409.596	3.4
409.955	3.38
410.314	3.38
410.673	3.4
411.031	3.35
411.39	3.34
411.748	3.33
412.107	3.32
412.465	3.33
412.824	3.29
413.182	3.29
413.54	3.29
413.899	3.27
414.257	3.29
414.615	3.3
414.974	3.29
415.332	3.27
415.69	3.25
416.048	3.24
416.406	3.22
416.764	3.22
417.122	3.22
417.48	3.21
417.838	3.16
418.195	3.16
418.553	3.16
418.911	3.16
419.269	3.17
419.626	3.15
419.984	3.15
420.342	3.16
420.699	3.15
421.057	3.14
421.414	3.15
421.772	3.15
422.129	3.14
422.486	3.13
422.844	3.1
423.201	3.12
423.558	3.13
423.915	3.12
424.273	3.11
424.63	3.1
424.987	3.11
425.344	3.15
425.701	3.14
426.058	3.16
426.415	3.14
426.772	3.13
427.128	3.14
427.485	3.13
427.842	3.12
428.199	3.13
428.555	3.13
428.912	3.12
429.269	3.1
429.625	3.11
429.982	3.12
430.338	3.16
430.695	3.14
431.051	3.12
431.407	3.13
431.764	3.13
432.12	3.14
432.476	3.13
432.832	3.11
433.189	3.1
433.545	3.1
433.901	3.11
434.257	3.11
434.613	3.1
434.969	3.11
435.325	3.14
435.681	3.12
436.036	3.15
436.392	3.14
436.748	3.15
437.104	3.16
437.459	3.15
437.815	3.13
438.171	3.15
438.526	3.15
438.882	3.16
439.237	3.15
439.593	3.14
439.948	3.15
440.304	3.13
440.659	3.12
441.014	3.1
441.369	3.11
441.725	3.07
442.08	3.06
442.435	3.06
442.79	3.04
443.145	3.07
443.5	3.04
443.855	3.04
444.21	3.03
444.565	3.01
444.92	3.01
445.275	3.01
445.629	3
445.984	2.98
446.339	2.97
446.693	2.95
447.048	2.94
447.403	2.92
447.757	2.93
448.112	2.95
448.466	2.96
448.82	2.97
449.175	2.98
449.529	2.99
449.883	2.98
450.238	2.96
450.592	2.93
450.946	2.94
451.3	2.96
451.654	2.95
452.008	2.95
452.362	2.94
452.716	2.95
453.07	2.96
453.424	2.97
453.778	2.98
454.132	3
454.486	3.01
454.839	3.01
455.193	3.04
455.547	3.03
455.9	3.03
456.254	3
456.607	3.02
456.961	3.03
457.314	3.03
457.668	3.04
458.021	3.04
458.375	3.03
458.728	3.02
459.081	3.03
459.434	3.03
459.787	3.03
460.141	3.03
460.494	3.01
460.847	3.03
461.2	3.04
461.553	3.05
461.906	3.06
462.259	3.05
462.611	3.04
462.964	3.04
463.317	3.02
463.67	3.04
464.022	3.03
464.375	3.03
464.728	3.04
465.08	3.04
465.433	3.05
465.785	3.06
466.138	3.07
466.49	3.09
466.843	3.1
467.195	3.11
467.547	3.1
467.899	3.12
468.252	3.11
468.604	3.09
468.956	3.09
469.308	3.08
469.66	3.11
470.012	3.12
470.364	3.12
470.716	3.14
471.068	3.14
471.42	3.14
471.772	3.13
472.123	3.13
472.475	3.15
472.827	3.17
473.178	3.16
473.53	3.15
473.882	3.13
474.233	3.11
474.585	3.11
474.936	3.12
475.288	3.12
475.639	3.12
475.99	3.11
476.342	3.11
476.693	3.14
477.044	3.12
477.395	3.13
477.746	3.11
478.097	3.11
478.448	3.11
478.8	3.1
479.15	3.09
479.501	3.08
479.852	3.07
480.203	3.06
480.554	3.05
480.905	3.06
481.255	3.07
481.606	3.07
481.957	3.07
482.307	3.07
482.658	3.08
483.009	3.09
483.359	3.09
483.709	3.08
484.06	3.08
484.41	3.09
484.761	3.08
485.111	3.08
485.461	3.09
485.811	3.08
486.162	3.09
486.512	3.1
486.862	3.12
487.212	3.13
487.562	3.14
487.912	3.15
488.262	3.15
488.612	3.15
488.961	3.15
489.311	3.15
489.661	3.14
490.011	3.14
490.36	3.14
490.71	3.14
491.06	3.14
491.409	3.14
491.759	3.14
492.108	3.15
492.458	3.16
492.807	3.18
493.157	3.18
493.506	3.19
493.855	3.2
494.204	3.19
494.554	3.18
494.903	3.18
495.252	3.19
495.601	3.21
495.95	3.22
496.299	3.25
496.648	3.28
496.997	3.29
497.346	3.28
497.695	3.29
498.043	3.33
498.392	3.37
498.741	3.37
499.09	3.38
499.438	3.41
499.787	3.41
500.135	3.42
500.484	3.45
500.832	3.45
501.181	3.45
501.529	3.47
501.878	3.49
502.226	3.5
502.574	3.52
502.923	3.51
503.271	3.52
503.619	3.54
503.967	3.55
504.315	3.57
504.663	3.62
505.011	3.65
505.359	3.63
505.707	3.65
506.055	3.69
506.403	3.73
506.751	3.73
507.098	3.78
507.446	3.8
507.794	3.83
508.141	3.85
508.489	3.91
508.837	3.93
509.184	3.95
509.531	3.98
509.879	4
510.226	4.04
510.574	4.08
510.921	4.13
511.268	4.18
511.616	4.25
511.963	4.28
512.31	4.31
512.657	4.37
513.004	4.4
513.351	4.46
513.698	4.5
514.045	4.55
514.392	4.6
514.739	4.66
515.086	4.7
515.432	4.76
515.779	4.77
516.126	4.84
516.473	4.89
516.819	4.94
517.166	5.01
517.512	5.07
517.859	5.11
518.205	5.13
518.552	5.16
518.898	5.17
519.245	5.24
519.591	5.28
519.937	5.32
520.283	5.39
520.629	5.44
520.976	5.48
521.322	5.58
521.668	5.63
522.014	5.7
522.36	5.76
522.706	5.85
523.052	5.94
523.398	6
523.743	6.09
524.089	6.18
524.435	6.24
524.781	6.32
525.126	6.41
525.472	6.49
525.817	6.56
526.163	6.63
526.509	6.69
526.854	6.75
527.199	6.81
527.545	6.86
527.89	6.91
528.235	6.97
528.581	7.02
528.926	7.08
529.271	7.15
529.616	7.22
529.961	7.27
530.306	7.35
530.651	7.43
530.996	7.5
531.341	7.58
531.686	7.67
532.031	7.76
532.376	7.85
532.721	7.95
533.065	8.05
533.41	8.15
533.755	8.24
534.099	8.36
534.444	8.48
534.788	8.58
535.133	8.68
535.477	8.8
535.822	8.91
536.166	9.04
536.51	9.18
536.855	9.34
537.199	9.46
537.543	9.6
537.887	9.77
538.231	9.94
538.576	10.08
538.92	10.24
539.264	10.41
539.608	10.54
539.951	10.67
540.295	10.84
540.639	10.95
540.983	11.09
541.327	11.22
541.671	11.36
542.014	11.49
542.358	11.62
542.701	11.75
543.045	11.87
543.389	12.02
543.732	12.15
544.075	12.29
544.419	12.45
544.762	12.62
545.105	12.77
545.449	12.94
545.792	13.14
546.135	13.32
546.478	13.48
546.821	13.7
547.165	13.9
547.508	14.06
547.851	14.31
548.194	14.51
548.536	14.7
548.879	14.91
549.222	15.14
549.565	15.37
549.908	15.59
550.25	15.83
550.593	16.04
550.936	16.26
551.278	16.48
551.621	16.7
551.963	16.9
552.306	17.13
552.648	17.39
552.991	17.61
553.333	17.84
553.675	18.08
554.017	18.29
554.36	18.54
554.702	18.75
555.044	18.99
555.386	19.23
555.728	19.47
556.07	19.7
556.412	19.94
556.754	20.22
557.096	20.49
557.438	20.77
557.78	21.03
558.121	21.3
558.463	21.58
558.805	21.9
559.147	22.2
559.488	22.47
559.83	22.74
560.171	23.02
560.513	23.32
560.854	23.63
561.196	23.97
561.537	24.21
561.878	24.53
562.22	24.84
562.561	25.16
562.902	25.45
563.243	25.75
563.584	26.02
563.925	26.33
564.266	26.63
564.607	26.9
564.948	27.18
565.289	27.54
565.63	27.79
565.971	28.04
566.312	28.32
566.653	28.57
566.993	28.84
567.334	29.1
567.675	29.31
568.015	29.59
568.356	29.84
568.696	30.15
569.037	30.42
569.377	30.64
569.718	30.83
570.058	31.13
570.398	31.36
570.739	31.65
571.079	31.91
571.419	32.15
571.759	32.4
572.099	32.64
572.439	32.86
572.779	33.13
573.119	33.39
573.459	33.64
573.799	33.84
574.139	34.04
574.479	34.27
574.819	34.56
575.158	34.8
575.498	35
575.838	35.27
576.177	35.48
576.517	35.73
576.856	36.01
577.196	36.22
577.535	36.52
577.875	36.74
578.214	37
578.553	37.25
578.893	37.47
579.232	37.7
579.571	37.93
579.91	38.17
580.25	38.43
580.589	38.63
580.928	38.98
581.267	39.23
581.606	39.45
581.945	39.67
582.283	39.86
582.622	40.07
582.961	40.28
583.3	40.59
583.639	40.8
583.977	41.07
584.316	41.37
584.654	41.56
584.993	41.76
585.332	41.98
585.67	42.18
586.008	42.43
586.347	42.63
586.685	42.84
587.024	43.04
587.362	43.17
587.7	43.33
588.038	43.5
588.376	43.66
588.715	43.87
589.053	44.03
589.391	44.15
589.729	44.37
590.067	44.52
590.404	44.66
590.742	44.87
591.08	45.02
591.418	45.12
591.756	45.3
592.093	45.53
592.431	45.67
592.769	45.84
593.106	46.02
593.444	46.23
593.781	46.34
594.119	46.41
594.456	46.64
594.793	46.84
595.131	47
595.468	47.17
595.805	47.3
596.143	47.44
596.48	47.61
596.817	47.71
597.154	47.79
597.491	47.84
597.828	47.95
598.165	48.08
598.502	48.28
598.839	48.43
599.176	48.52
599.512	48.68
599.849	48.79
600.186	48.9
600.523	49.04
600.859	49.18
601.196	49.39
601.532	49.43
601.869	49.55
602.205	49.58
602.542	49.68
602.878	49.81
603.215	49.92
603.551	50.04
603.887	50.2
604.223	50.29
604.56	50.45
604.896	50.59
605.232	50.68
605.568	50.72
605.904	50.81
606.24	50.92
606.576	51.03
606.912	51.17
607.248	51.27
607.583	51.27
607.919	51.36
608.255	51.4
608.591	51.59
608.926	51.72
609.262	51.9
609.597	51.99
609.933	52.09
610.268	52.17
610.604	52.27
610.939	52.3
611.275	52.43
611.61	52.51
611.945	52.5
612.281	52.59
612.616	52.69
612.951	52.79
613.286	52.86
613.621	52.91
613.956	52.97
614.291	53.01
614.626	53.15
614.961	53.27
615.296	53.41
615.631	53.45
615.966	53.41
616.3	53.38
616.635	53.49
616.97	53.5
617.304	53.6
617.639	53.56
617.973	53.69
618.308	53.73
618.642	53.79
618.977	53.91
619.311	53.96
619.646	53.96
619.98	54.08
620.314	54.07
620.648	54.12
620.983	54.26
621.317	54.36
621.651	54.37
621.985	54.48
622.319	54.55
622.653	54.6
622.987	54.71
623.321	54.81
623.655	54.91
623.988	55.05
624.322	55.08
624.656	55.11
624.99	55.07
625.323	55.12
625.657	55.07
625.99	55.06
626.324	55.06
626.657	55.16
626.991	55.18
627.324	55.28
627.658	55.27
627.991	55.21
628.324	55.27
628.657	55.42
628.991	55.41
629.324	55.4
629.657	55.34
629.99	55.46
630.323	55.49
630.656	55.47
630.989	55.46
631.322	55.47
631.655	55.57
631.987	55.61
632.32	55.66
632.653	55.84
632.986	56.01
633.318	56.07
633.651	56.12
633.984	56.13
634.316	56.17
634.649	56.23
634.981	56.32
635.313	56.38
635.646	56.39
635.978	56.39
636.31	56.54
636.643	56.65
636.975	56.58
637.307	56.6
637.639	56.67
637.971	56.71
638.303	56.85
638.635	56.87
638.967	56.83
639.299	56.89
639.631	57.03
639.963	56.91
640.295	56.85
640.626	56.86
640.958	56.85
641.29	56.83
641.621	56.85
641.953	56.8
642.285	56.83
642.616	56.88
642.948	56.98
643.279	56.84
643.61	56.76
643.942	56.84
644.273	56.89
644.604	56.87
644.936	56.84
645.267	56.77
645.598	56.75
645.929	56.73
646.26	56.66
646.591	56.69
646.922	56.86
647.253	56.92
647.584	56.98
647.915	56.9
648.245	56.97
648.576	57.08
648.907	57.21
649.238	57.16
649.568	57.21
649.899	57.1
650.229	57.14
650.56	57.32
650.89	57.3
651.221	57.38
651.551	57.48
651.882	57.6
652.212	57.63
652.542	57.87
652.872	57.98
653.203	58.15
653.533	58.02
653.863	58.03
654.193	58.17
654.523	58.19
654.853	58.38
655.183	58.49
655.513	58.33
655.843	58.29
656.172	58.3
656.502	58.23
656.832	58.34
657.162	58.54
657.491	58.61
657.821	58.62
658.15	58.58
658.48	58.58
658.809	58.47
659.139	58.49
659.468	58.46
659.798	58.51
660.127	58.59
660.456	58.61
660.785	58.5
661.115	58.45
661.444	58.39
661.773	58.33
662.102	58.26
662.431	58.25
662.76	58.31
663.089	58.33
663.418	58.46
663.747	58.46
664.076	58.36
664.404	58.38
664.733	58.41
665.062	58.46
665.39	58.48
665.719	58.7
666.048	58.7
666.376	58.63
666.705	58.77
667.033	58.6
667.362	58.58
667.69	58.69
668.018	58.78
668.347	58.85
668.675	58.84
669.003	58.91
669.331	59.14
669.659	59.19
669.987	59.25
670.315	59.33
670.643	59.28
670.971	59.31
671.299	59.15
671.627	59.3
671.955	59.26
672.283	59.12
672.61	59.02
672.938	59.02
673.266	59.05
673.593	58.98
673.921	59.15
674.249	58.98
674.576	59.05
674.904	58.94
675.231	58.97
675.558	59.06
675.886	59.11
676.213	59.07
676.54	58.97
676.867	58.98
677.195	58.95
677.522	59.16
677.849	59.24
678.176	59.27
678.503	59.18
678.83	59.25
679.157	59.49
679.484	59.48
679.81	59.48
680.137	59.6
680.464	59.65
680.791	59.48
681.117	59.72
681.444	59.68
681.771	59.76
682.097	59.78
682.424	59.81
682.75	59.81
683.077	59.85
683.403	60.04
683.729	60.09
684.056	59.91
684.382	59.92
684.708	59.83
685.034	59.97
685.36	60.04
685.686	60.08
686.012	60.01
686.339	60.16
686.664	60.23
686.99	60.02
687.316	59.9
687.642	59.96
687.968	59.97
688.294	60.03
688.619	60.08
688.945	60.05
689.271	60.2
689.596	60.24
689.922	60.22
690.247	60.15
690.573	60.18
690.898	60.22
691.224	60.22
691.549	60.27
691.874	60.31
692.2	60.22
692.525	60.32
692.85	60.17
693.175	60.02
693.5	59.99
693.825	59.93
694.15	60.21
694.475	60.34
694.8	60.08
695.125	60.07
695.45	60.24
695.775	60.36
696.099	60.26
696.424	60.28
696.749	60.31
697.073	60.35
697.398	60.5
697.723	60.68
698.047	60.67
698.372	60.59
698.696	60.55
699.02	60.53
699.345	60.55
699.669	60.69
699.993	60.58
700.318	60.51
700.642	60.67
700.966	60.54
701.29	60.68
701.614	60.94
701.938	61.05
702.262	60.85
702.586	60.63
702.91	60.56
703.234	60.43
703.557	60.29
703.881	60.25
704.205	60.13
704.529	59.95
704.852	59.85
705.176	59.96
705.499	59.99
705.823	59.98
706.146	59.87
706.47	60
706.793	60.36
707.117	60.62
707.44	60.54
707.763	60.26
708.086	59.9
708.409	59.86
708.733	59.59
709.056	59.53
709.379	59.73
709.702	59.81
710.025	59.86
710.348	59.99
710.671	60.09
710.993	59.96
711.316	59.94
711.639	60.06
711.962	60.08
712.284	59.96
712.607	60.03
712.93	60.13
713.252	59.96
713.575	59.75
713.897	59.63
714.22	59.77
714.542	60.07
714.864	60.17
715.187	60
715.509	60.23
715.831	60.4
716.153	60.27
716.475	60.26
716.798	60.34
717.12	60.34
717.442	60.08
717.764	60.06
718.085	60.39
718.407	60.32
718.729	60.25
719.051	60.1
719.373	60.06
719.695	60
720.016	60.08
720.338	60.09
720.659	60.13
720.981	59.97
721.302	60.17
721.624	60.2
721.945	60.5
722.267	60.33
722.588	60.07
722.909	60.01
723.231	59.99
723.552	59.76
723.873	59.74
724.194	60.03
724.515	60.07
724.836	59.92
725.157	59.8
725.478	59.79
725.799	60.02
726.12	60.18
726.441	60.25
726.762	60.08
727.083	60.26
727.403	60.18
727.724	60.42
728.045	60.04
728.365	60.1
728.686	59.93
729.006	60.13
729.327	60.24
729.647	60.6
729.967	60.55
730.288	60.45
730.608	60.43
730.928	60.33
731.249	60.58
731.569	60.5
731.889	60.76
732.209	60.64
732.529	60.87
732.849	60.82
733.169	60.6
733.489	60.47
733.809	60.33
734.129	60.49
734.448	60.11
734.768	60.19
735.088	60.2
735.408	60.24
735.727	60
736.047	60.05
736.366	59.94
736.686	60.19
737.005	60.77
737.325	60.87
737.644	60.89
737.963	60.69
738.283	60.59
738.602	60.5
738.921	60.69
739.24	60.54
739.56	60.44
739.879	60.4
740.198	60.61
740.517	60.75
740.836	60.68
741.155	60.98
741.473	61.19
741.792	61.19
742.111	60.99
742.43	61.08
742.748	61.08
743.067	61.09
743.386	60.75
743.704	60.15
744.023	60.07
744.341	60.11
744.66	60.24
744.978	60.31
745.297	60.04
745.615	59.91
745.933	59.89
746.252	60.11
746.57	60.27
746.888	60.28
747.206	60.35
747.524	60.37
747.842	60.36
748.16	60
748.478	59.99
748.796	60.26
749.114	60.47
749.432	60.38
749.749	60.34
750.067	60.32
750.385	60.55
750.703	60.68
751.02	60.77
751.338	60.56
751.655	60.34
751.973	60.74
752.29	60.86
752.608	60.6
752.925	60.87
753.242	61.29
753.56	61.41
753.877	61.27
754.194	61.23
754.511	61.48
754.828	61.61
755.145	61.59
755.462	61.8
755.779	61.65
756.096	61.92
756.413	61.91
756.73	61.92
757.047	62.21
757.364	62.11
757.68	62.09
757.997	62.17
758.314	62.33
758.63	62.08
758.947	62.03
759.264	62.6
759.58	61.95
759.896	61.73
760.213	61.71
760.529	61.81
760.846	61.89
761.162	61.81
761.478	61.83
761.794	61.83
762.11	61.34
762.426	60.92
762.743	60.73
763.059	61.03
763.375	61.05
763.69	60.84
764.006	60.76
764.322	60.49
764.638	60.28
764.954	60.5
765.27	60.61
765.585	60.74
765.901	60.57
766.216	60.74
766.532	60.83
766.848	60.62
767.163	60.86
767.478	60.64
767.794	60.45
768.109	60.44
768.424	60.56
768.74	60.75
769.055	61.21
769.37	61.26
769.685	61.2
770	61.39
770.315	61.07
770.63	61.32
770.945	61.62
771.26	61.87
771.575	61.61
771.89	61.67
772.205	61.09
772.52	60.64
772.834	60.46
773.149	60.02
773.464	60.17
773.778	59.64
774.093	59.48
774.407	59.99
774.722	59.93
775.036	59.64
775.351	59.8
775.665	59.61
775.979	60.08
776.293	59.42
776.608	59.62
776.922	59.8
777.236	59.89
777.55	59.68
777.864	59.63
778.178	59.22
778.492	58.87
778.806	59.57
779.12	59.77
779.434	60.39
779.747	60.76
780.061	60.85
780.375	60.94
780.689	61.51
781.002	61.05
781.316	61.25
781.629	61.58
781.943	61.32
782.256	61.69
782.57	61.3
782.883	61.42
783.196	60.69
783.51	61.08
783.823	61.01
784.136	60.89
784.449	60.71
784.762	61.25
785.075	61.39
785.388	61.24
785.701	61.49
786.014	60.89
786.327	60.53
786.64	60.51
786.953	60.37
787.266	59.99
787.578	60.38
787.891	60.4
788.204	60.78
788.516	60.9
788.829	60.81
789.141	61.05
789.454	61.36
789.766	61.97
790.079	61.91
790.391	61.64
790.703	62.12
791.016	62.88
791.328	62.49
791.64	62.59
791.952	63.03
792.264	62.72
792.576	63.59
792.888	63.98
793.2	63.99
793.512	63.89
793.824	64.61
794.136	64.4
794.448	64.29
794.76	63.32
795.071	63.79
795.383	63.5
795.695	63.08
796.006	63.16
796.318	63.46
796.629	63.21
796.941	63.42
797.252	63.34
797.564	62.58
797.875	63.08
798.186	63.27
798.497	63
798.809	63.06
799.12	62.61
799.431	61.97
799.742	61.45
800.053	62.13
800.364	61.65
800.675	60.83
800.986	61.19
801.297	61.57
801.608	61.15
801.918	61.31
802.229	61.55
802.54	61.91
802.851	61.35
803.161	61.57
803.472	61.62
803.782	61.49
804.093	61.6
804.403	61.45
804.714	61.59
805.024	61.5
805.334	61.67
805.645	61.69
805.955	62.29
806.265	62.42
806.575	61.46
806.885	61.36
807.195	62.38
807.505	62.3
807.815	62.49
808.125	63.22
808.435	63.12
808.745	63.07
809.055	63.4
809.365	63.94
809.674	63.79
809.984	63.72
810.294	64.5
810.603	63.98
810.913	63.11
811.222	62.84
811.532	62.08
811.841	62.04
812.151	62.43
812.46	61.91
812.769	62.6
813.079	62.43
813.388	62.87
813.697	62.49
814.006	62.46
814.315	61.98
814.624	61.42
814.933	62.14
815.242	62.75
815.551	61.77
815.86	61.42
816.169	61.44
816.478	61.59
816.786	61.34
817.095	61.91
817.404	63.21
817.712	62.31
818.021	62.56
818.33	62.75
818.638	62.45
818.947	62.33
819.255	61.95
819.563	62.91
819.872	63.03
820.18	62.94
820.488	63.12
820.796	63.2
821.105	63.32
821.413	63.22
821.721	62.92
822.029	62.79
822.337	62.96
822.645	63.3
822.953	63.38
823.26	63.17
823.568	63.42
823.876	63.4
824.184	63.56
824.491	63.54
824.799	63.75
825.107	63.73
825.414	64.1
825.722	64.37
826.029	64.26
826.337	64.34
826.644	64.52
826.951	64.47
827.259	64.61
827.566	64.49
827.873	64.6
828.18	64.69
828.488	64.72
828.795	64.3
829.102	64.13
829.409	63.8
829.716	63.83
830.023	63.57
830.329	63.46
830.636	63.23
830.943	63.28
831.25	62.53
831.557	62.15
831.863	61.56
832.17	61.13
832.476	60.8
832.783	60.74
833.089	60.13
833.396	59.81
833.702	59.19
834.009	58.85
834.315	58.69
834.621	59.14
834.928	59.39
835.234	59.65
835.54	59.26
835.846	59.58
836.152	59.47
836.458	59.66
836.764	59.22
837.07	59.36
837.376	59.18
837.682	59.37
837.988	59.18
838.293	59.6
838.599	59.59
838.905	60.26
839.211	59.81
839.516	60.74
839.822	60.91
840.127	61.33
840.433	62.78
840.738	62.09
841.044	61.02
841.349	61.23
841.654	61.05
841.959	61.17
842.265	62.82
842.57	63.16
842.875	63.01
843.18	63.33
843.485	63.64
843.79	64.22
844.095	65.32
844.4	66.47
844.705	65.53
845.01	65.6
845.315	64.36
845.619	63.81
845.924	62.81
846.229	60.67
846.533	61.31
846.838	61.26
847.142	61.31
847.447	62.64
847.751	62.48
848.056	64.56
848.36	66.47
848.664	63.05
848.969	63.31
849.273	62.93
849.577	61.71
849.881	61.07
850.185	62.26
850.489	59.21
850.794	58.74
851.097	57.93
851.401	58.17
851.705	58.66
852.009	59.75
852.313	58.35
852.617	62.67
852.92	63.33
853.224	60.51
853.528	63.13
853.831	62.19
854.135	62.9
854.438	59.47
854.742	57.78
855.045	55.83
855.349	56.88
855.652	56.14
855.955	58.85
856.259	59.8
856.562	56.97
856.865	58.96
857.168	57.09
857.471	59.61
857.774	58.95
858.077	58.93
858.38	56.53
858.683	57.74
858.986	57.59
859.289	56.2
859.592	56.78
859.894	55.04
860.197	54.04
860.5	54.6
860.802	57.3
861.105	57.44
861.407	59.3
861.71	59.02
862.012	57.81
862.315	56.96
862.617	57.14
862.919	58.25
863.222	57.49
863.524	59.69
863.826	56.59
864.128	55.61
864.43	56.5
864.732	56.01
865.034	55.55
865.336	54.45
865.638	56.28
865.94	56.87
866.242	56.51
866.544	58.08
866.846	56.56
867.147	53.86
867.449	54.83
867.751	54.74
868.052	55.65
868.354	57.8
868.655	59.46
868.957	59.98
869.258	60.1
869.56	60.8
869.861	60.81
870.162	62.88
870.463	63.11
870.765	61.83
871.066	63.62
871.367	62.23
871.668	62.69
871.969	61.41
872.27	60.48
872.571	62.2
872.872	61.1
873.173	61.03
873.473	60.97
873.774	56.51
874.075	59.16
874.376	57.78
874.676	58.63
874.977	57.11
875.277	56.07
875.578	58.63
875.878	58.39
876.179	57.92
876.479	56.98
876.78	58.8
877.08	58.94
877.38	59.25
877.68	63.01
877.981	62.13
878.281	60.61
878.581	61.8
