Data from BA44024_Reflection_00013.txt Node
Date: Tue Nov 19 11:48:59 EST 2019
User: vgr7
Spectrometer: USB2G7710
Scans to average: 3
Trigger mode: 4
Integration Time (sec): 2.000000E-2
Electric dark correction enabled: true
Boxcar width: 10
XAxis mode: Wavelengths
Number of Pixels in Spectrum: 2048
>>>>>Begin Spectral Data<<<<<
177.721	14.03
178.105	-9.15
178.488	-53.98
178.871	-5.06
179.254	-30.77
179.636	24.49
180.019	1.45
180.402	81.82
180.785	-169.86
181.168	-13.95
181.55	-17.11
181.933	0.49
182.316	9.89
182.698	-21.3
183.081	-22.98
183.463	-95.83
183.846	-87.64
184.228	-255.02
184.611	478.98
184.993	174.79
185.376	178.09
185.758	217.07
186.14	193.68
186.522	127.73
186.904	99.4
187.287	77.34
187.669	67.51
188.051	68.26
188.433	62.67
188.815	48.56
189.197	41.23
189.579	32.54
189.961	41.13
190.342	34.19
190.724	7.43
191.106	12.29
191.488	8.44
191.869	8.72
192.251	-2.54
192.633	-5.45
193.014	-16.2
193.396	-10.39
193.777	-7.22
194.159	-15.16
194.54	-13.02
194.922	-16.99
195.303	-12.31
195.684	-31.52
196.065	-21.12
196.447	-22.32
196.828	-45.69
197.209	-42.35
197.59	-27.13
197.971	-14.04
198.352	-8.27
198.733	2.3
199.114	-13.63
199.495	-23
199.876	-35.9
200.257	-20.06
200.638	-19.85
201.018	-15.88
201.399	-19.28
201.78	-15.8
202.16	-17.95
202.541	-13.23
202.922	-3.49
203.302	-5.68
203.683	5.25
204.063	-16.23
204.444	-4.47
204.824	20.42
205.204	14.33
205.585	9.87
205.965	-25.49
206.345	-41.67
206.725	-26.48
207.106	-18.38
207.486	1.04
207.866	13.31
208.246	6.51
208.626	7.93
209.006	26.07
209.386	24.2
209.766	-0.74
210.145	17.07
210.525	6.81
210.905	23.61
211.285	20.79
211.664	28.41
212.044	36.41
212.424	32.42
212.803	20.86
213.183	18.76
213.562	12.57
213.942	37.31
214.321	22.29
214.701	17.32
215.08	23.56
215.459	18.6
215.838	25.16
216.218	26.92
216.597	22.11
216.976	7.45
217.355	11.55
217.734	14.49
218.113	22.38
218.492	25.09
218.871	15.8
219.25	12.91
219.629	0.44
220.008	4.65
220.387	3.06
220.766	11.94
221.144	21.76
221.523	25.13
221.902	28.57
222.28	34.12
222.659	40.78
223.037	40.42
223.416	37.84
223.794	26.7
224.173	23.96
224.551	27.23
224.929	27.89
225.308	28.83
225.686	21.72
226.064	20.88
226.442	25.38
226.821	22.94
227.199	25.05
227.577	24.66
227.955	22.38
228.333	20.8
228.711	20.59
229.089	19.93
229.467	15
229.845	10.73
230.222	11.44
230.6	6.7
230.978	6.06
231.356	7.17
231.733	9.61
232.111	7.69
232.488	5.1
232.866	3.68
233.243	2.96
233.621	6.4
233.998	4.37
234.376	-0.37
234.753	0.14
235.13	-1.71
235.508	-0.03
235.885	0.43
236.262	1.8
236.639	1.01
237.016	0.85
237.393	3.57
237.77	4.83
238.147	4.55
238.524	4.74
238.901	3.87
239.278	3.5
239.655	3.36
240.032	4.58
240.409	3.8
240.785	4.76
241.162	4.02
241.539	4.28
241.915	4.18
242.292	5.04
242.668	4.54
243.045	5.1
243.421	4.86
243.798	5.08
244.174	5.01
244.551	5.18
244.927	4.87
245.303	4.56
245.679	4.35
246.056	4.08
246.432	4.64
246.808	5.33
247.184	5.26
247.56	5.38
247.936	5.4
248.312	5.65
248.688	5.49
249.064	5.63
249.44	5.56
249.815	5.61
250.191	5.29
250.567	5.33
250.943	5.45
251.318	5.49
251.694	5.08
252.069	5.08
252.445	4.92
252.82	5.22
253.196	5.28
253.571	5.58
253.947	6.01
254.322	5.24
254.697	4.53
255.073	4.42
255.448	4.11
255.823	3.98
256.198	4.14
256.573	3.91
256.948	4.01
257.323	4.01
257.698	4.05
258.073	4.09
258.448	4.37
258.823	4.11
259.198	4.35
259.573	4.45
259.948	4.46
260.322	4.37
260.697	4.27
261.072	4.33
261.446	4.21
261.821	4.2
262.195	4.35
262.57	4.39
262.944	4.46
263.319	4.63
263.693	4.45
264.067	4.41
264.442	4.38
264.816	4.25
265.19	4.41
265.564	4.38
265.938	4.47
266.313	4.1
266.687	3.89
267.061	3.72
267.435	3.98
267.809	3.81
268.183	3.95
268.556	4.01
268.93	3.93
269.304	3.87
269.678	3.82
270.051	3.97
270.425	3.85
270.799	3.84
271.172	3.79
271.546	4
271.919	3.98
272.293	4.2
272.666	4.19
273.04	4.02
273.413	3.9
273.787	3.89
274.16	3.88
274.533	4.1
274.906	3.96
275.279	3.91
275.653	4
276.026	3.84
276.399	3.83
276.772	3.99
277.145	4.1
277.518	4.08
277.891	3.81
278.263	3.98
278.636	4.05
279.009	4.21
279.382	4.16
279.755	4.32
280.127	4.13
280.5	4.2
280.872	4.23
281.245	4.4
281.617	4.54
281.99	4.78
282.362	4.81
282.735	4.87
283.107	4.77
283.479	4.88
283.852	4.91
284.224	5
284.596	4.73
284.968	4.69
285.34	4.71
285.713	4.89
286.085	4.89
286.457	4.82
286.829	4.71
287.201	4.73
287.572	4.67
287.944	4.76
288.316	4.89
288.688	5.1
289.06	5.04
289.431	5.07
289.803	5.07
290.175	4.96
290.546	4.79
290.918	4.83
291.289	4.68
291.661	4.76
292.032	4.59
292.403	4.67
292.775	4.77
293.146	4.99
293.517	4.95
293.889	4.93
294.26	5.1
294.631	5.16
295.002	5.12
295.373	5.11
295.744	5.09
296.115	5.09
296.486	4.75
296.857	4.71
297.228	4.45
297.599	4.38
297.97	4.49
298.34	4.67
298.711	4.71
299.082	4.83
299.452	4.92
299.823	5.01
300.194	5.17
300.564	5.06
300.935	4.86
301.305	4.9
301.676	4.95
302.046	4.89
302.416	4.85
302.787	4.91
303.157	5.01
303.527	5.02
303.897	4.86
304.267	4.97
304.637	4.95
305.008	5.18
305.378	5.37
305.748	5.28
306.117	5.21
306.487	5.32
306.857	5.33
307.227	5.36
307.597	5.54
307.967	5.51
308.336	5.57
308.706	5.65
309.076	5.68
309.445	5.74
309.815	5.74
310.184	5.6
310.554	5.56
310.923	5.58
311.293	5.68
311.662	5.8
312.031	5.81
312.401	5.91
312.77	5.99
313.139	6.08
313.508	6.2
313.877	6.24
314.246	6.2
314.616	6.31
314.985	6.18
315.353	6.09
315.722	6.18
316.091	6.3
316.46	6.29
316.829	6.39
317.198	6.34
317.567	6.43
317.935	6.55
318.304	6.83
318.672	6.79
319.041	6.89
319.41	6.95
319.778	7.17
320.147	7.21
320.515	7.05
320.883	6.92
321.252	7.08
321.62	7.14
321.988	7.14
322.357	7.12
322.725	7.23
323.093	7.22
323.461	7.22
323.829	7.11
324.197	7.21
324.565	7.13
324.933	7.33
325.301	7.48
325.669	7.69
326.037	7.66
326.405	7.85
326.772	7.89
327.14	7.8
327.508	7.78
327.875	7.79
328.243	7.94
328.61	7.95
328.978	7.86
329.346	8
329.713	8.2
330.08	8.23
330.448	8.27
330.815	8.38
331.182	8.42
331.55	8.58
331.917	8.54
332.284	8.65
332.651	8.54
333.018	8.47
333.385	8.5
333.752	8.44
334.119	8.4
334.486	8.31
334.853	8.36
335.22	8.34
335.587	8.36
335.954	8.41
336.32	8.44
336.687	8.39
337.054	8.35
337.42	8.19
337.787	8.02
338.153	8.13
338.52	8.11
338.886	8.09
339.253	8.02
339.619	8.11
339.986	8.08
340.352	8.14
340.718	8.11
341.084	8.06
341.451	8.14
341.817	8.21
342.183	8.2
342.549	8.21
342.915	8.31
343.281	8.4
343.647	8.37
344.013	8.24
344.379	8.35
344.745	8.43
345.11	8.67
345.476	8.82
345.842	8.74
346.208	8.78
346.573	8.73
346.939	8.77
347.304	8.74
347.67	8.73
348.035	8.62
348.401	8.6
348.766	8.57
349.132	8.49
349.497	8.42
349.862	8.44
350.228	8.59
350.593	8.52
350.958	8.54
351.323	8.5
351.688	8.49
352.053	8.47
352.418	8.42
352.783	8.18
353.148	8.27
353.513	8.23
353.878	8.17
354.243	8.05
354.608	8.11
354.972	8.1
355.337	8.12
355.702	8.14
356.066	8.11
356.431	8.12
356.795	8.13
357.16	8.1
357.524	8.15
357.889	8
358.253	8.02
358.618	7.96
358.982	7.9
359.346	8.03
359.71	7.96
360.075	7.96
360.439	8.04
360.803	8.01
361.167	8.04
361.531	8.05
361.895	8.1
362.259	8.05
362.623	8.09
362.987	8.09
363.351	8.09
363.714	8.07
364.078	8.01
364.442	7.93
364.806	7.92
365.169	7.85
365.533	7.9
365.896	7.85
366.26	7.87
366.623	7.93
366.987	7.89
367.35	7.9
367.714	7.87
368.077	7.82
368.44	7.74
368.803	7.63
369.167	7.51
369.53	7.55
369.893	7.45
370.256	7.35
370.619	7.25
370.982	7.16
371.345	7.2
371.708	7.06
372.071	7.06
372.434	6.96
372.797	6.9
373.159	6.86
373.522	6.83
373.885	6.71
374.247	6.67
374.61	6.59
374.973	6.56
375.335	6.48
375.698	6.45
376.06	6.45
376.423	6.43
376.785	6.45
377.147	6.36
377.51	6.33
377.872	6.32
378.234	6.28
378.596	6.33
378.958	6.3
379.321	6.43
379.683	6.39
380.045	6.37
380.407	6.37
380.769	6.35
381.13	6.3
381.492	6.25
381.854	6.21
382.216	6.17
382.578	6.13
382.939	6.1
383.301	6.02
383.663	5.96
384.024	5.93
384.386	5.91
384.747	5.94
385.109	5.95
385.47	5.92
385.832	5.89
386.193	5.83
386.554	5.76
386.916	5.65
387.277	5.67
387.638	5.67
387.999	5.61
388.36	5.53
388.721	5.54
389.082	5.55
389.443	5.51
389.804	5.51
390.165	5.52
390.526	5.49
390.887	5.45
391.248	5.45
391.609	5.44
391.969	5.42
392.33	5.32
392.691	5.28
393.051	5.25
393.412	5.23
393.772	5.18
394.133	5.11
394.493	5.07
394.854	5.06
395.214	5.01
395.574	4.99
395.935	4.96
396.295	4.92
396.655	4.88
397.015	4.86
397.376	4.84
397.736	4.76
398.096	4.73
398.456	4.75
398.816	4.67
399.176	4.63
399.535	4.54
399.895	4.52
400.255	4.49
400.615	4.46
400.975	4.43
401.334	4.41
401.694	4.45
402.054	4.46
402.413	4.42
402.773	4.43
403.132	4.41
403.492	4.44
403.851	4.41
404.211	4.38
404.57	4.38
404.929	4.32
405.288	4.35
405.648	4.33
406.007	4.27
406.366	4.25
406.725	4.26
407.084	4.29
407.443	4.32
407.802	4.3
408.161	4.29
408.52	4.29
408.879	4.31
409.238	4.28
409.596	4.28
409.955	4.23
410.314	4.24
410.673	4.24
411.031	4.2
411.39	4.19
411.748	4.21
412.107	4.18
412.465	4.17
412.824	4.15
413.182	4.15
413.54	4.16
413.899	4.16
414.257	4.14
414.615	4.08
414.974	4.05
415.332	4.03
415.69	4.01
416.048	3.98
416.406	3.92
416.764	3.91
417.122	3.88
417.48	3.88
417.838	3.84
418.195	3.82
418.553	3.83
418.911	3.82
419.269	3.81
419.626	3.78
419.984	3.77
420.342	3.76
420.699	3.74
421.057	3.72
421.414	3.7
421.772	3.69
422.129	3.69
422.486	3.67
422.844	3.65
423.201	3.64
423.558	3.63
423.915	3.62
424.273	3.61
424.63	3.6
424.987	3.6
425.344	3.58
425.701	3.58
426.058	3.56
426.415	3.51
426.772	3.49
427.128	3.52
427.485	3.5
427.842	3.49
428.199	3.51
428.555	3.51
428.912	3.5
429.269	3.47
429.625	3.46
429.982	3.48
430.338	3.51
430.695	3.49
431.051	3.51
431.407	3.54
431.764	3.54
432.12	3.54
432.476	3.54
432.832	3.56
433.189	3.55
433.545	3.54
433.901	3.58
434.257	3.57
434.613	3.54
434.969	3.53
435.325	3.53
435.681	3.5
436.036	3.51
436.392	3.51
436.748	3.55
437.104	3.56
437.459	3.54
437.815	3.53
438.171	3.55
438.526	3.52
438.882	3.55
439.237	3.54
439.593	3.55
439.948	3.52
440.304	3.5
440.659	3.5
441.014	3.5
441.369	3.48
441.725	3.5
442.08	3.49
442.435	3.49
442.79	3.49
443.145	3.48
443.5	3.45
443.855	3.45
444.21	3.43
444.565	3.42
444.92	3.41
445.275	3.39
445.629	3.36
445.984	3.35
446.339	3.31
446.693	3.3
447.048	3.3
447.403	3.31
447.757	3.31
448.112	3.3
448.466	3.29
448.82	3.3
449.175	3.27
449.529	3.27
449.883	3.25
450.238	3.25
450.592	3.25
450.946	3.26
451.3	3.27
451.654	3.24
452.008	3.21
452.362	3.22
452.716	3.24
453.07	3.25
453.424	3.28
453.778	3.28
454.132	3.28
454.486	3.28
454.839	3.28
455.193	3.3
455.547	3.32
455.9	3.34
456.254	3.33
456.607	3.32
456.961	3.32
457.314	3.34
457.668	3.34
458.021	3.35
458.375	3.35
458.728	3.37
459.081	3.4
459.434	3.41
459.787	3.44
460.141	3.44
460.494	3.45
460.847	3.44
461.2	3.44
461.553	3.45
461.906	3.44
462.259	3.45
462.611	3.43
462.964	3.45
463.317	3.45
463.67	3.46
464.022	3.5
464.375	3.5
464.728	3.5
465.08	3.51
465.433	3.51
465.785	3.53
466.138	3.53
466.49	3.55
466.843	3.58
467.195	3.58
467.547	3.56
467.899	3.58
468.252	3.6
468.604	3.61
468.956	3.61
469.308	3.62
469.66	3.63
470.012	3.62
470.364	3.58
470.716	3.57
471.068	3.6
471.42	3.59
471.772	3.61
472.123	3.62
472.475	3.63
472.827	3.62
473.178	3.61
473.53	3.61
473.882	3.61
474.233	3.6
474.585	3.59
474.936	3.6
475.288	3.58
475.639	3.56
475.99	3.58
476.342	3.57
476.693	3.59
477.044	3.58
477.395	3.58
477.746	3.6
478.097	3.6
478.448	3.58
478.8	3.58
479.15	3.57
479.501	3.57
479.852	3.57
480.203	3.57
480.554	3.59
480.905	3.57
481.255	3.56
481.606	3.56
481.957	3.55
482.307	3.55
482.658	3.55
483.009	3.56
483.359	3.54
483.709	3.56
484.06	3.56
484.41	3.56
484.761	3.57
485.111	3.57
485.461	3.58
485.811	3.58
486.162	3.57
486.512	3.58
486.862	3.58
487.212	3.58
487.562	3.58
487.912	3.59
488.262	3.59
488.612	3.6
488.961	3.6
489.311	3.61
489.661	3.61
490.011	3.62
490.36	3.61
490.71	3.63
491.06	3.63
491.409	3.63
491.759	3.63
492.108	3.64
492.458	3.65
492.807	3.66
493.157	3.68
493.506	3.7
493.855	3.7
494.204	3.72
494.554	3.74
494.903	3.76
495.252	3.77
495.601	3.82
495.95	3.83
496.299	3.84
496.648	3.87
496.997	3.91
497.346	3.96
497.695	4.01
498.043	4.04
498.392	4.07
498.741	4.13
499.09	4.18
499.438	4.21
499.787	4.22
500.135	4.25
500.484	4.3
500.832	4.35
501.181	4.41
501.529	4.45
501.878	4.47
502.226	4.53
502.574	4.55
502.923	4.59
503.271	4.64
503.619	4.71
503.967	4.76
504.315	4.81
504.663	4.84
505.011	4.87
505.359	4.92
505.707	4.96
506.055	4.99
506.403	5.04
506.751	5.1
507.098	5.19
507.446	5.27
507.794	5.32
508.141	5.37
508.489	5.42
508.837	5.45
509.184	5.52
509.531	5.56
509.879	5.61
510.226	5.67
510.574	5.72
510.921	5.78
511.268	5.86
511.616	5.93
511.963	5.98
512.31	6.07
512.657	6.15
513.004	6.22
513.351	6.3
513.698	6.36
514.045	6.44
514.392	6.5
514.739	6.55
515.086	6.63
515.432	6.74
515.779	6.8
516.126	6.9
516.473	6.97
516.819	7.07
517.166	7.16
517.512	7.24
517.859	7.33
518.205	7.41
518.552	7.45
518.898	7.51
519.245	7.58
519.591	7.66
519.937	7.73
520.283	7.83
520.629	7.9
520.976	8.01
521.322	8.12
521.668	8.22
522.014	8.33
522.36	8.44
522.706	8.54
523.052	8.68
523.398	8.82
523.743	8.97
524.089	9.12
524.435	9.25
524.781	9.4
525.126	9.53
525.472	9.65
525.817	9.78
526.163	9.88
526.509	9.99
526.854	10.1
527.199	10.19
527.545	10.27
527.89	10.36
528.235	10.44
528.581	10.54
528.926	10.65
529.271	10.76
529.616	10.87
529.961	11
530.306	11.1
530.651	11.22
530.996	11.34
531.341	11.47
531.686	11.61
532.031	11.74
532.376	11.89
532.721	12.04
533.065	12.2
533.41	12.36
533.755	12.51
534.099	12.69
534.444	12.85
534.788	13.02
535.133	13.22
535.477	13.41
535.822	13.61
536.166	13.8
536.51	14.03
536.855	14.26
537.199	14.47
537.543	14.73
537.887	14.97
538.231	15.25
538.576	15.47
538.92	15.69
539.264	15.94
539.608	16.19
539.951	16.43
540.295	16.62
540.639	16.8
540.983	17
541.327	17.2
541.671	17.41
542.014	17.62
542.358	17.81
542.701	18.04
543.045	18.24
543.389	18.44
543.732	18.62
544.075	18.82
544.419	19.05
544.762	19.3
545.105	19.55
545.449	19.77
545.792	20.06
546.135	20.34
546.478	20.6
546.821	20.86
547.165	21.14
547.508	21.47
547.851	21.83
548.194	22.16
548.536	22.46
548.879	22.83
549.222	23.19
549.565	23.5
549.908	23.78
550.25	24.11
550.593	24.42
550.936	24.77
551.278	25.11
551.621	25.44
551.963	25.77
552.306	26.07
552.648	26.37
552.991	26.73
553.333	27.1
553.675	27.41
554.017	27.71
554.36	27.99
554.702	28.25
555.044	28.56
555.386	28.88
555.728	29.23
556.07	29.48
556.412	29.75
556.754	30.06
557.096	30.39
557.438	30.74
557.78	31.07
558.121	31.4
558.463	31.69
558.805	32
559.147	32.24
559.488	32.53
559.83	32.86
560.171	33.09
560.513	33.31
560.854	33.55
561.196	33.9
561.537	34.2
561.878	34.54
562.22	34.75
562.561	35.01
562.902	35.21
563.243	35.45
563.584	35.74
563.925	36.05
564.266	36.31
564.607	36.52
564.948	36.79
565.289	37.11
565.63	37.3
565.971	37.53
566.312	37.83
566.653	38.09
566.993	38.36
567.334	38.65
567.675	38.85
568.015	39.18
568.356	39.38
568.696	39.6
569.037	39.76
569.377	40.05
569.718	40.25
570.058	40.46
570.398	40.69
570.739	40.93
571.079	41.12
571.419	41.34
571.759	41.51
572.099	41.65
572.439	41.79
572.779	42.02
573.119	42.18
573.459	42.33
573.799	42.51
574.139	42.65
574.479	42.85
574.819	43.07
575.158	43.21
575.498	43.36
575.838	43.56
576.177	43.79
576.517	43.93
576.856	44.03
577.196	44.28
577.535	44.51
577.875	44.69
578.214	44.88
578.553	45.07
578.893	45.28
579.232	45.56
579.571	45.78
579.91	45.96
580.25	46.22
580.589	46.46
580.928	46.58
581.267	46.69
581.606	46.83
581.945	47
582.283	47.13
582.622	47.29
582.961	47.43
583.3	47.6
583.639	47.76
583.977	48.04
584.316	48.23
584.654	48.36
584.993	48.47
585.332	48.56
585.67	48.7
586.008	48.85
586.347	48.98
586.685	49.08
587.024	49.21
587.362	49.28
587.7	49.4
588.038	49.53
588.376	49.67
588.715	49.78
589.053	49.91
589.391	50.04
589.729	50.14
590.067	50.27
590.404	50.39
590.742	50.53
591.08	50.64
591.418	50.69
591.756	50.8
592.093	51.01
592.431	51.15
592.769	51.16
593.106	51.31
593.444	51.41
593.781	51.43
594.119	51.47
594.456	51.64
594.793	51.75
595.131	51.86
595.468	51.95
595.805	52.06
596.143	52.17
596.48	52.3
596.817	52.42
597.154	52.48
597.491	52.53
597.828	52.6
598.165	52.69
598.502	52.77
598.839	52.86
599.176	52.83
599.512	52.95
599.849	53
600.186	53.05
600.523	53.09
600.859	53.28
601.196	53.47
601.532	53.45
601.869	53.55
602.205	53.63
602.542	53.64
602.878	53.64
603.215	53.75
603.551	53.77
603.887	53.83
604.223	53.88
604.56	53.98
604.896	54.08
605.232	54.19
605.568	54.28
605.904	54.34
606.24	54.39
606.576	54.43
606.912	54.68
607.248	54.76
607.583	54.8
607.919	54.85
608.255	54.78
608.591	54.95
608.926	54.99
609.262	55.04
609.597	55.23
609.933	55.32
610.268	55.35
610.604	55.47
610.939	55.55
611.275	55.62
611.61	55.68
611.945	55.71
612.281	55.73
612.616	55.87
612.951	55.93
613.286	56.01
613.621	56.12
613.956	56.01
614.291	56.04
614.626	56.17
614.961	56.3
615.296	56.49
615.631	56.47
615.966	56.47
616.3	56.63
616.635	56.64
616.97	56.73
617.304	56.76
617.639	56.82
617.973	56.89
618.308	57
618.642	56.99
618.977	57
619.311	57.02
619.646	57.01
619.98	57.1
620.314	57.11
620.648	57.19
620.983	57.41
621.317	57.46
621.651	57.5
621.985	57.47
622.319	57.54
622.653	57.55
622.987	57.53
623.321	57.56
623.655	57.58
623.988	57.68
624.322	57.74
624.656	57.75
624.99	57.71
625.323	57.66
625.657	57.73
625.99	57.77
626.324	57.78
626.657	57.74
626.991	57.72
627.324	57.71
627.658	57.71
627.991	57.62
628.324	57.63
628.657	57.7
628.991	57.7
629.324	57.72
629.657	57.78
629.99	57.9
630.323	57.93
630.656	57.99
630.989	57.91
631.322	57.88
631.655	57.87
631.987	57.88
632.32	57.96
632.653	58.06
632.986	58.14
633.318	58.16
633.651	58.2
633.984	58.25
634.316	58.29
634.649	58.28
634.981	58.31
635.313	58.35
635.646	58.41
635.978	58.42
636.31	58.42
636.643	58.47
636.975	58.51
637.307	58.45
637.639	58.46
637.971	58.49
638.303	58.6
638.635	58.67
638.967	58.82
639.299	58.92
639.631	58.83
639.963	58.74
640.295	58.77
640.626	58.83
640.958	58.77
641.29	58.8
641.621	58.91
641.953	58.96
642.285	59.02
642.616	59.04
642.948	59.11
643.279	59.18
643.61	59.07
643.942	59.01
644.273	59.11
644.604	59.1
644.936	59.19
645.267	59.16
645.598	59.17
645.929	59.08
646.26	59.06
646.591	59.13
646.922	59.36
647.253	59.37
647.584	59.37
647.915	59.39
648.245	59.59
648.576	59.5
648.907	59.64
649.238	59.62
649.568	59.5
649.899	59.42
650.229	59.35
650.56	59.46
650.89	59.52
651.221	59.46
651.551	59.52
651.882	59.61
652.212	59.6
652.542	59.62
652.872	59.7
653.203	59.63
653.533	59.67
653.863	59.48
654.193	59.51
654.523	59.58
654.853	59.58
655.183	59.42
655.513	59.41
655.843	59.28
656.172	59.31
656.502	59.37
656.832	59.37
657.162	59.51
657.491	59.49
657.821	59.53
658.15	59.51
658.48	59.53
658.809	59.34
659.139	59.34
659.468	59.41
659.798	59.4
660.127	59.41
660.456	59.38
660.785	59.52
661.115	59.61
661.444	59.49
661.773	59.49
662.102	59.56
662.431	59.63
662.76	59.74
663.089	59.76
663.418	59.75
663.747	59.87
664.076	59.75
664.404	59.84
664.733	59.83
665.062	59.77
665.39	59.84
665.719	59.97
666.048	60.02
666.376	60.02
666.705	60.07
667.033	60.08
667.362	60.02
667.69	59.98
668.018	59.91
668.347	59.98
668.675	60
669.003	59.97
669.331	60.06
669.659	59.95
669.987	60.02
670.315	60.04
670.643	60.05
670.971	60.11
671.299	59.97
671.627	60.03
671.955	60.22
672.283	60.03
672.61	60.11
672.938	60.08
673.266	59.88
673.593	59.79
673.921	59.87
674.249	59.86
674.576	59.95
674.904	60.02
675.231	59.93
675.558	59.99
675.886	60.14
676.213	60.16
676.54	60.14
676.867	60.08
677.195	60.18
677.522	60.21
677.849	60.19
678.176	60.32
678.503	60.26
678.83	60.24
679.157	60.47
679.484	60.37
679.81	60.4
680.137	60.4
680.464	60.46
680.791	60.34
681.117	60.44
681.444	60.46
681.771	60.5
682.097	60.61
682.424	60.5
682.75	60.47
683.077	60.27
683.403	60.45
683.729	60.52
684.056	60.26
684.382	60.21
684.708	60.28
685.034	60.26
685.36	60.32
685.686	60.39
686.012	60.2
686.339	60.11
686.664	60.11
686.99	60.1
687.316	59.96
687.642	60.11
687.968	60.13
688.294	60.04
688.619	60.05
688.945	60.03
689.271	60.03
689.596	59.94
689.922	60.06
690.247	60.02
690.573	59.94
690.898	60.18
691.224	60.02
691.549	59.99
691.874	60.02
692.2	59.95
692.525	59.78
692.85	59.95
693.175	60.14
693.5	60.21
693.825	60.36
694.15	60.56
694.475	60.6
694.8	60.51
695.125	60.45
695.45	60.31
695.775	60.38
696.099	60.62
696.424	60.7
696.749	60.7
697.073	60.68
697.398	60.67
697.723	60.66
698.047	60.91
698.372	60.95
698.696	60.88
699.02	61.1
699.345	61.13
699.669	61.06
699.993	60.96
700.318	60.89
700.642	60.97
700.966	60.93
701.29	60.77
701.614	60.8
701.938	60.82
702.262	60.71
702.586	60.65
702.91	60.41
703.234	60.37
703.557	60.42
703.881	60.37
704.205	60.4
704.529	60.43
704.852	60.26
705.176	60.26
705.499	60.2
705.823	59.73
706.146	59.8
706.47	59.9
706.793	60.18
707.117	60.25
707.44	60.08
707.763	59.98
708.086	60.08
708.409	60.14
708.733	60.04
709.056	59.97
709.379	60.16
709.702	60.36
710.025	60.41
710.348	60.32
710.671	60.27
710.993	60.12
711.316	60.03
711.639	59.98
711.962	59.8
712.284	59.79
712.607	59.98
712.93	59.98
713.252	59.97
713.575	59.85
713.897	59.62
714.22	59.77
714.542	59.72
714.864	59.7
715.187	59.55
715.509	59.6
715.831	59.79
716.153	59.63
716.475	59.49
716.798	59.47
717.12	59.43
717.442	59.45
717.764	59.47
718.085	59.53
718.407	59.58
718.729	59.65
719.051	59.69
719.373	59.7
719.695	59.5
720.016	59.31
720.338	59.25
720.659	59.55
720.981	59.46
721.302	59.69
721.624	59.68
721.945	59.77
722.267	59.74
722.588	59.81
722.909	59.64
723.231	59.5
723.552	59.34
723.873	59.34
724.194	59.33
724.515	59.42
724.836	59.26
725.157	59.43
725.478	59.32
725.799	59.33
726.12	59.38
726.441	59.58
726.762	59.57
727.083	59.66
727.403	59.65
727.724	59.52
728.045	59.31
728.365	59.32
728.686	59.41
729.006	59.39
729.327	59.39
729.647	59.58
729.967	59.43
730.288	59.37
730.608	59.47
730.928	59.44
731.249	59.61
731.569	59.73
731.889	59.77
732.209	59.96
732.529	60.09
732.849	60.21
733.169	60.23
733.489	60.18
733.809	60.17
734.129	60.1
734.448	60.24
734.768	60.29
735.088	60.28
735.408	60.34
735.727	60.42
736.047	60.29
736.366	60.24
736.686	60.67
737.005	61.2
737.325	61.24
737.644	61.48
737.963	61.3
738.283	61.23
738.602	61.06
738.921	60.92
739.24	60.82
739.56	60.44
739.879	60.13
740.198	60.15
740.517	60.12
740.836	59.71
741.155	59.72
741.473	59.81
741.792	59.82
742.111	59.62
742.43	59.64
742.748	59.64
743.067	59.78
743.386	59.45
743.704	59.37
744.023	59.15
744.341	59.08
744.66	59.11
744.978	59.37
745.297	59.18
745.615	59.15
745.933	59.53
746.252	59.78
746.57	59.88
746.888	59.96
747.206	60.03
747.524	60.34
747.842	60.23
748.16	60.17
748.478	60.45
748.796	60.35
749.114	60.54
749.432	60.5
749.749	60.5
750.067	60.82
750.385	60.6
750.703	60.6
751.02	60.36
751.338	60.22
751.655	60.08
751.973	60.35
752.29	60.42
752.608	59.64
752.925	59.52
753.242	59.7
753.56	59.86
753.877	59.91
754.194	59.64
754.511	59.89
754.828	59.66
755.145	59.35
755.462	59.18
755.779	58.89
756.096	59.16
756.413	59.02
756.73	58.96
757.047	59.08
757.364	59.1
757.68	59.19
757.997	59.25
758.314	59.37
758.63	59.09
758.947	58.74
759.264	59.14
759.58	59.18
759.896	59.18
760.213	58.95
760.529	58.52
760.846	59.17
761.162	59.01
761.478	59.41
761.794	59.64
762.11	59.87
762.426	59.69
762.743	59.5
763.059	59.68
763.375	59.63
763.69	59.69
764.006	59.66
764.322	59.64
764.638	59.79
764.954	59.89
765.27	60.22
765.585	60.43
765.901	60.34
766.216	60.37
766.532	60.32
766.848	60.6
767.163	61.01
767.478	60.51
767.794	60.58
768.109	60.58
768.424	60.51
768.74	60.32
769.055	60.76
769.37	60.91
769.685	60.93
770	61.34
770.315	60.87
770.63	61.04
770.945	61.07
771.26	61.04
771.575	60.68
771.89	60.75
772.205	60.74
772.52	60.71
772.834	60.81
773.149	60.82
773.464	60.59
773.778	59.99
774.093	60.27
774.407	60.19
774.722	60.1
775.036	59.64
775.351	60.14
775.665	60.33
775.979	60.35
776.293	60.22
776.608	59.69
776.922	59.77
777.236	59.6
777.55	59.54
777.864	59.45
778.178	59.22
778.492	58.98
778.806	58.81
779.12	59.03
779.434	59.16
779.747	58.97
780.061	58.86
780.375	59.32
780.689	59.01
781.002	59.06
781.316	58.87
781.629	59.53
781.943	59.33
782.256	59.12
782.57	59.32
782.883	58.92
783.196	59.25
783.51	59.22
783.823	59.35
784.136	59.34
784.449	59.56
784.762	59.77
785.075	59.39
785.388	59.55
785.701	59.23
786.014	58.47
786.327	58.2
786.64	58.31
786.953	58.73
787.266	59.25
787.578	59.35
787.891	59.58
788.204	59.43
788.516	59.39
788.829	59.11
789.141	59.3
789.454	59.83
789.766	59.74
790.079	59.93
790.391	59.49
790.703	59.38
791.016	59.59
791.328	59.9
791.64	60.06
791.952	60.44
792.264	60.59
792.576	61.01
792.888	61.29
793.2	61.23
793.512	60.8
793.824	61.17
794.136	60.62
794.448	60.3
794.76	60.16
795.071	60.43
795.383	60.73
795.695	60.45
796.006	60.3
796.318	60.16
796.629	60
796.941	61
797.252	61.1
797.564	60.77
797.875	60.98
798.186	60.74
798.497	60.59
798.809	60.88
799.12	60.94
799.431	61.06
799.742	60.35
800.053	60.63
800.364	60.06
800.675	59.91
800.986	60.06
801.297	59.54
801.608	59.6
801.918	59.96
802.229	59.98
802.54	59.92
802.851	59.8
803.161	59.59
803.472	58.88
803.782	59.17
804.093	58.82
804.403	58.29
804.714	58.63
805.024	58.54
805.334	58.52
805.645	58.96
805.955	59.38
806.265	60.42
806.575	59.75
806.885	59.35
807.195	60.13
807.505	59.14
807.815	59.76
808.125	59.43
808.435	58.5
808.745	57.84
809.055	58.22
809.365	58.05
809.674	58.64
809.984	59.29
810.294	59
810.603	58.99
810.913	59.12
811.222	59.48
811.532	59.98
811.841	59.71
812.151	59.77
812.46	59.16
812.769	59.31
813.079	60.19
813.388	60.69
813.697	59.83
814.006	60.38
814.315	59.83
814.624	59.93
814.933	60.97
815.242	61.31
815.551	61.31
815.86	61.95
816.169	60.79
816.478	60.76
816.786	60.77
817.095	61.1
817.404	61.01
817.712	60.65
818.021	60.04
818.33	59.38
818.638	59.14
818.947	59.33
819.255	59.16
819.563	59.14
819.872	59.6
820.18	60.04
820.488	60.53
820.796	60.8
821.105	61.05
821.413	60.97
821.721	60.78
822.029	60.6
822.337	60.73
822.645	61.1
822.953	61.12
823.26	61.13
823.568	61.09
823.876	61.13
824.184	60.92
824.491	60.94
824.799	61.26
825.107	61.19
825.414	61.3
825.722	61.46
826.029	61.48
826.337	61.31
826.644	61.21
826.951	61.19
827.259	61.18
827.566	60.78
827.873	60.77
828.18	60.94
828.488	61.03
828.795	60.61
829.102	60.5
829.409	60.11
829.716	59.86
830.023	59.99
830.329	59.65
830.636	60.04
830.943	59.99
831.25	59.95
831.557	59.95
831.863	59.93
832.17	59.28
832.476	59.25
832.783	59.31
833.089	59.18
833.396	59.23
833.702	58.75
834.009	58.81
834.315	58.28
834.621	58.61
834.928	58.32
835.234	58.78
835.54	58.63
835.846	59.33
836.152	59.47
836.458	59.01
836.764	58.95
837.07	58.45
837.376	57.74
837.682	56.8
837.988	57
838.293	56.95
838.599	57.13
838.905	56.67
839.211	56.42
839.516	56.95
839.822	56.92
840.127	57.04
840.433	57.89
840.738	58.06
841.044	58.1
841.349	58.11
841.654	56.57
841.959	56.25
842.265	56.12
842.57	55.73
842.875	54.98
843.18	55.51
843.485	56.73
843.79	57.69
844.095	58.24
844.4	57.79
844.705	56.78
845.01	58.07
845.315	58.38
845.619	58.73
845.924	57.84
846.229	56
846.533	57.13
846.838	56.21
847.142	54.7
847.447	55.57
847.751	56.66
848.056	57.76
848.36	59.14
848.664	55.76
848.969	58.07
849.273	59.38
849.577	58.29
849.881	57.11
850.185	58.9
850.489	60.89
850.794	60.94
851.097	59.78
851.401	56.82
851.705	57.48
852.009	59.4
852.313	58.88
852.617	61.22
852.92	60.64
853.224	59.45
853.528	61.1
853.831	59.23
854.135	57.55
854.438	58.38
854.742	59.23
855.045	60.84
855.349	57.63
855.652	58.24
855.955	57.91
856.259	57.91
856.562	56.6
856.865	56.71
857.168	55.79
857.471	58.84
857.774	61.88
858.077	61.3
858.38	58.27
858.683	59.48
858.986	57.79
859.289	57.58
859.592	59.79
859.894	61.37
860.197	58.5
860.5	58.24
860.802	56.33
861.105	53.59
861.407	54.08
861.71	54.83
862.012	55.7
862.315	55.98
862.617	55.96
862.919	57.47
863.222	54.96
863.524	57.66
863.826	55.2
864.128	54.45
864.43	53.82
864.732	55.24
865.034	54.78
865.336	54.45
865.638	54.94
865.94	55.53
866.242	56.89
866.544	61.19
866.846	62.76
867.147	63.19
867.449	64.43
867.751	65.05
868.052	66.73
868.354	66.31
868.655	67.56
868.957	69.33
869.258	68.73
869.56	69.95
869.861	68.14
870.162	69.28
870.463	68.09
870.765	67.34
871.066	65.82
871.367	62.45
871.668	64.28
871.969	65.54
872.27	64.61
872.571	61.97
872.872	59.26
873.173	60.09
873.473	62.88
873.774	61.82
874.075	60.6
874.376	58.02
874.676	56.78
874.977	56.66
875.277	54.07
875.578	52.29
875.878	52.74
876.179	51.98
876.479	52.73
876.78	53.48
877.08	55
877.38	54.75
877.68	59.82
877.981	58.77
878.281	55.27
878.581	53.75
