Data from BA44024_Reflection_00014.txt Node
Date: Tue Nov 19 11:49:01 EST 2019
User: vgr7
Spectrometer: USB2G7710
Scans to average: 3
Trigger mode: 4
Integration Time (sec): 2.000000E-2
Electric dark correction enabled: true
Boxcar width: 10
XAxis mode: Wavelengths
Number of Pixels in Spectrum: 2048
>>>>>Begin Spectral Data<<<<<
177.721	88.82
178.105	209.15
178.488	153.19
178.871	102.53
179.254	36.92
179.636	25.68
180.019	19.53
180.402	218.18
180.785	123.29
181.168	90.18
181.55	61.43
181.933	114.22
182.316	74.43
182.698	63.23
183.081	93.72
183.463	87.08
183.846	105.42
184.228	98.14
184.611	-107.01
184.993	10.08
185.376	-8.52
185.758	61.71
186.14	107.37
186.522	38.99
186.904	21.56
187.287	40.46
187.669	32.18
188.051	15.24
188.433	1.97
188.815	2.66
189.197	29.42
189.579	40.33
189.961	67.72
190.342	76.93
190.724	63.73
191.106	54.97
191.488	44.11
191.869	55.82
192.251	64.8
192.633	64.24
193.014	57.43
193.396	53.2
193.777	43.56
194.159	43.98
194.54	50.47
194.922	42.44
195.303	30.33
195.684	21.2
196.065	48.01
196.447	63.99
196.828	69.31
197.209	62.71
197.59	55.39
197.971	42.65
198.352	41.26
198.733	49.61
199.114	44.12
199.495	53.54
199.876	44.85
200.257	23.71
200.638	32.43
201.018	13.49
201.399	32.18
201.78	32.46
202.16	30.06
202.541	17.33
202.922	17.62
203.302	13.58
203.683	20.05
204.063	-1.43
204.444	-6.85
204.824	4.18
205.204	0.52
205.585	-1.59
205.965	2.35
206.345	-12.21
206.725	-10.26
207.106	6.52
207.486	-4.7
207.866	4.4
208.246	21.56
208.626	5.42
209.006	33.66
209.386	16.72
209.766	29
210.145	36.34
210.525	37.15
210.905	39.05
211.285	38.95
211.664	38
212.044	50.22
212.424	47.53
212.803	36.55
213.183	34.32
213.562	22.4
213.942	25.79
214.321	26.15
214.701	26.34
215.08	13.07
215.459	17.91
215.838	3.73
216.218	-12.03
216.597	-11.02
216.976	-17.19
217.355	-11.32
217.734	-29.22
218.113	-28.99
218.492	-24.17
218.871	-25.04
219.25	-26.28
219.629	-33.32
220.008	-27.37
220.387	-25.87
220.766	-19.49
221.144	-14.96
221.523	-6.97
221.902	-15.34
222.28	-10.46
222.659	-0.28
223.037	-1.52
223.416	-1.41
223.794	6.9
224.173	8.35
224.551	10.63
224.929	7.06
225.308	3.52
225.686	5.36
226.064	6.44
226.442	7.99
226.821	12.99
227.199	8.16
227.577	13.41
227.955	13.86
228.333	13.52
228.711	14.56
229.089	11.21
229.467	9.75
229.845	9.47
230.222	7.06
230.6	3.99
230.978	5.56
231.356	4.67
231.733	5.52
232.111	8.31
232.488	7.48
232.866	8.16
233.243	10.9
233.621	15.45
233.998	12.89
234.376	11.16
234.753	8.28
235.13	8.4
235.508	7.45
235.885	7.35
236.262	7.4
236.639	5.4
237.016	6.24
237.393	5.86
237.77	7.04
238.147	7.6
238.524	8.09
238.901	7.58
239.278	6.64
239.655	5.51
240.032	5.02
240.409	4.52
240.785	4.49
241.162	3.91
241.539	3.48
241.915	4.08
242.292	4.27
242.668	4.61
243.045	4.82
243.421	5.19
243.798	4.97
244.174	4.87
244.551	5.09
244.927	4.81
245.303	4.67
245.679	4.69
246.056	4.61
246.432	4.51
246.808	4.67
247.184	5.08
247.56	4.84
247.936	5.06
248.312	5.53
248.688	5.71
249.064	5.62
249.44	5.52
249.815	5.28
250.191	5.66
250.567	5.6
250.943	5.72
251.318	5.63
251.694	5.59
252.069	5.87
252.445	6.03
252.82	6.16
253.196	6.41
253.571	6.55
253.947	6.43
254.322	6.01
254.697	5.92
255.073	5.9
255.448	6.1
255.823	5.47
256.198	5.17
256.573	5.36
256.948	5.06
257.323	5.12
257.698	5.2
258.073	4.8
258.448	4.76
258.823	4.48
259.198	4.35
259.573	4.27
259.948	4.28
260.322	4.1
260.697	4.03
261.072	4.18
261.446	4.02
261.821	3.98
262.195	4.11
262.57	4.27
262.944	4.2
263.319	4.21
263.693	4.37
264.067	4.35
264.442	4.16
264.816	4.24
265.19	4.16
265.564	3.98
265.938	4.05
266.313	4.13
266.687	4.39
267.061	4.31
267.435	4.44
267.809	4.18
268.183	4.08
268.556	4.2
268.93	3.89
269.304	3.88
269.678	3.84
270.051	3.9
270.425	3.69
270.799	3.56
271.172	3.57
271.546	3.5
271.919	3.58
272.293	3.71
272.666	3.88
273.04	3.87
273.413	4.01
273.787	3.92
274.16	3.8
274.533	3.78
274.906	4
275.279	3.95
275.653	3.94
276.026	4.15
276.399	4.27
276.772	4.39
277.145	4.38
277.518	4.33
277.891	4.36
278.263	4.44
278.636	4.57
279.009	4.51
279.382	4.5
279.755	4.42
280.127	4.4
280.5	4.29
280.872	4.15
281.245	3.89
281.617	4.01
281.99	3.91
282.362	3.97
282.735	3.85
283.107	3.81
283.479	4.05
283.852	4.15
284.224	3.94
284.596	3.69
284.968	3.66
285.34	3.86
285.713	3.86
286.085	3.77
286.457	3.67
286.829	3.76
287.201	3.71
287.572	3.83
287.944	3.84
288.316	3.93
288.688	4.05
289.06	4.34
289.431	4.37
289.803	4.49
290.175	4.4
290.546	4.45
290.918	4.49
291.289	4.25
291.661	4.16
292.032	4.21
292.403	4.43
292.775	4.65
293.146	4.64
293.517	4.63
293.889	4.78
294.26	4.83
294.631	4.97
295.002	5.14
295.373	4.99
295.744	4.96
296.115	4.95
296.486	5.08
296.857	5.09
297.228	5.07
297.599	5.19
297.97	5.25
298.34	5.24
298.711	5.2
299.082	5.28
299.452	5.28
299.823	5.28
300.194	5.28
300.564	5.1
300.935	5.13
301.305	5.15
301.676	4.99
302.046	5.13
302.416	5.08
302.787	5.08
303.157	5.2
303.527	5.26
303.897	5.27
304.267	5.11
304.637	4.99
305.008	5.08
305.378	5
305.748	5.1
306.117	5.15
306.487	5.28
306.857	5.42
307.227	5.56
307.597	5.7
307.967	5.75
308.336	5.81
308.706	5.84
309.076	5.99
309.445	6.11
309.815	5.99
310.184	6.01
310.554	5.96
310.923	5.92
311.293	5.79
311.662	5.83
312.031	5.98
312.401	6.12
312.77	6.08
313.139	6.11
313.508	6.04
313.877	6.05
314.246	6.08
314.616	6.05
314.985	6.03
315.353	6.07
315.722	6.29
316.091	6.39
316.46	6.49
316.829	6.44
317.198	6.65
317.567	6.85
317.935	6.83
318.304	7.14
318.672	7.29
319.041	7.49
319.41	7.63
319.778	7.59
320.147	7.64
320.515	7.75
320.883	7.64
321.252	7.73
321.62	7.82
321.988	7.77
322.357	7.76
322.725	7.66
323.093	7.65
323.461	7.57
323.829	7.67
324.197	7.68
324.565	7.7
324.933	7.68
325.301	7.45
325.669	7.47
326.037	7.43
326.405	7.5
326.772	7.48
327.14	7.4
327.508	7.4
327.875	7.54
328.243	7.47
328.61	7.53
328.978	7.42
329.346	7.3
329.713	7.39
330.08	7.67
330.448	7.82
330.815	7.99
331.182	8.04
331.55	8.09
331.917	8.04
332.284	8.13
332.651	8.22
333.018	8.35
333.385	8.35
333.752	8.26
334.119	8.13
334.486	8.19
334.853	8.28
335.22	8.36
335.587	8.09
335.954	8.21
336.32	8.33
336.687	8.56
337.054	8.65
337.42	8.75
337.787	8.68
338.153	8.73
338.52	8.71
338.886	8.72
339.253	8.76
339.619	8.82
339.986	8.82
340.352	8.85
340.718	8.96
341.084	9.14
341.451	9.21
341.817	9.34
342.183	9.31
342.549	9.41
342.915	9.43
343.281	9.63
343.647	9.64
344.013	9.58
344.379	9.57
344.745	9.59
345.11	9.53
345.476	9.46
345.842	9.31
346.208	9.29
346.573	9.24
346.939	9.18
347.304	9.22
347.67	9.2
348.035	9.11
348.401	9.08
348.766	9.02
349.132	9.07
349.497	9.09
349.862	8.95
350.228	8.88
350.593	8.84
350.958	8.92
351.323	8.91
351.688	8.91
352.053	8.87
352.418	8.84
352.783	8.83
353.148	8.78
353.513	8.83
353.878	8.89
354.243	8.9
354.608	9.01
354.972	8.93
355.337	8.93
355.702	8.96
356.066	9.01
356.431	8.95
356.795	8.98
357.16	8.96
357.524	9.08
357.889	9.01
358.253	9
358.618	8.86
358.982	8.86
359.346	8.93
359.71	8.88
360.075	8.89
360.439	8.92
360.803	8.99
361.167	9
361.531	8.94
361.895	8.95
362.259	8.89
362.623	8.82
362.987	8.81
363.351	8.76
363.714	8.69
364.078	8.68
364.442	8.55
364.806	8.44
365.169	8.42
365.533	8.41
365.896	8.4
366.26	8.43
366.623	8.34
366.987	8.32
367.35	8.37
367.714	8.38
368.077	8.39
368.44	8.4
368.803	8.35
369.167	8.32
369.53	8.25
369.893	8.18
370.256	8.2
370.619	8.15
370.982	8.08
371.345	8.11
371.708	8.12
372.071	8.07
372.434	8.07
372.797	8.03
373.159	7.94
373.522	7.84
373.885	7.79
374.247	7.8
374.61	7.73
374.973	7.59
375.335	7.51
375.698	7.39
376.06	7.3
376.423	7.29
376.785	7.18
377.147	7.13
377.51	7.13
377.872	7.05
378.234	6.99
378.596	6.98
378.958	6.9
379.321	6.77
379.683	6.74
380.045	6.77
380.407	6.72
380.769	6.75
381.13	6.76
381.492	6.71
381.854	6.64
382.216	6.6
382.578	6.61
382.939	6.56
383.301	6.55
383.663	6.47
384.024	6.4
384.386	6.4
384.747	6.32
385.109	6.24
385.47	6.25
385.832	6.19
386.193	6.16
386.554	6.08
386.916	6.08
387.277	6.06
387.638	5.97
387.999	5.95
388.36	5.91
388.721	5.87
389.082	5.86
389.443	5.83
389.804	5.8
390.165	5.77
390.526	5.76
390.887	5.71
391.248	5.7
391.609	5.67
391.969	5.63
392.33	5.59
392.691	5.54
393.051	5.51
393.412	5.51
393.772	5.46
394.133	5.43
394.493	5.37
394.854	5.31
395.214	5.26
395.574	5.21
395.935	5.18
396.295	5.14
396.655	5.1
397.015	5.08
397.376	5.04
397.736	4.95
398.096	4.89
398.456	4.88
398.816	4.87
399.176	4.83
399.535	4.81
399.895	4.85
400.255	4.83
400.615	4.76
400.975	4.74
401.334	4.73
401.694	4.75
402.054	4.79
402.413	4.81
402.773	4.81
403.132	4.77
403.492	4.76
403.851	4.75
404.211	4.76
404.57	4.75
404.929	4.73
405.288	4.74
405.648	4.74
406.007	4.73
406.366	4.69
406.725	4.67
407.084	4.65
407.443	4.6
407.802	4.57
408.161	4.62
408.52	4.57
408.879	4.6
409.238	4.56
409.596	4.49
409.955	4.48
410.314	4.43
410.673	4.41
411.031	4.4
411.39	4.36
411.748	4.31
412.107	4.28
412.465	4.26
412.824	4.25
413.182	4.24
413.54	4.22
413.899	4.21
414.257	4.18
414.615	4.14
414.974	4.14
415.332	4.14
415.69	4.08
416.048	4.06
416.406	4.01
416.764	3.97
417.122	3.99
417.48	3.96
417.838	3.97
418.195	3.96
418.553	3.93
418.911	3.91
419.269	3.88
419.626	3.87
419.984	3.86
420.342	3.82
420.699	3.79
421.057	3.74
421.414	3.72
421.772	3.71
422.129	3.7
422.486	3.69
422.844	3.67
423.201	3.65
423.558	3.65
423.915	3.64
424.273	3.64
424.63	3.62
424.987	3.61
425.344	3.59
425.701	3.58
426.058	3.57
426.415	3.57
426.772	3.56
427.128	3.55
427.485	3.54
427.842	3.54
428.199	3.54
428.555	3.56
428.912	3.53
429.269	3.51
429.625	3.51
429.982	3.5
430.338	3.5
430.695	3.53
431.051	3.52
431.407	3.51
431.764	3.51
432.12	3.52
432.476	3.51
432.832	3.51
433.189	3.49
433.545	3.48
433.901	3.48
434.257	3.45
434.613	3.45
434.969	3.43
435.325	3.46
435.681	3.46
436.036	3.46
436.392	3.49
436.748	3.5
437.104	3.51
437.459	3.5
437.815	3.49
438.171	3.5
438.526	3.49
438.882	3.49
439.237	3.49
439.593	3.48
439.948	3.48
440.304	3.47
440.659	3.48
441.014	3.47
441.369	3.47
441.725	3.5
442.08	3.48
442.435	3.5
442.79	3.46
443.145	3.46
443.5	3.45
443.855	3.42
444.21	3.42
444.565	3.41
444.92	3.42
445.275	3.41
445.629	3.38
445.984	3.36
446.339	3.35
446.693	3.34
447.048	3.34
447.403	3.32
447.757	3.32
448.112	3.32
448.466	3.33
448.82	3.3
449.175	3.28
449.529	3.29
449.883	3.26
450.238	3.26
450.592	3.26
450.946	3.26
451.3	3.29
451.654	3.25
452.008	3.25
452.362	3.23
452.716	3.24
453.07	3.25
453.424	3.25
453.778	3.25
454.132	3.23
454.486	3.23
454.839	3.24
455.193	3.22
455.547	3.22
455.9	3.24
456.254	3.26
456.607	3.27
456.961	3.28
457.314	3.28
457.668	3.28
458.021	3.29
458.375	3.28
458.728	3.26
459.081	3.28
459.434	3.29
459.787	3.29
460.141	3.28
460.494	3.29
460.847	3.31
461.2	3.31
461.553	3.32
461.906	3.33
462.259	3.33
462.611	3.36
462.964	3.37
463.317	3.35
463.67	3.37
464.022	3.4
464.375	3.4
464.728	3.41
465.08	3.44
465.433	3.44
465.785	3.46
466.138	3.48
466.49	3.5
466.843	3.52
467.195	3.54
467.547	3.57
467.899	3.56
468.252	3.57
468.604	3.59
468.956	3.6
469.308	3.59
469.66	3.63
470.012	3.63
470.364	3.61
470.716	3.65
471.068	3.65
471.42	3.66
471.772	3.65
472.123	3.67
472.475	3.65
472.827	3.67
473.178	3.66
473.53	3.64
473.882	3.61
474.233	3.58
474.585	3.6
474.936	3.58
475.288	3.57
475.639	3.56
475.99	3.53
476.342	3.51
476.693	3.53
477.044	3.52
477.395	3.51
477.746	3.5
478.097	3.47
478.448	3.43
478.8	3.4
479.15	3.39
479.501	3.38
479.852	3.37
480.203	3.37
480.554	3.38
480.905	3.38
481.255	3.38
481.606	3.39
481.957	3.39
482.307	3.38
482.658	3.39
483.009	3.39
483.359	3.39
483.709	3.39
484.06	3.39
484.41	3.39
484.761	3.4
485.111	3.4
485.461	3.41
485.811	3.41
486.162	3.42
486.512	3.43
486.862	3.44
487.212	3.45
487.562	3.45
487.912	3.45
488.262	3.45
488.612	3.47
488.961	3.47
489.311	3.48
489.661	3.48
490.011	3.49
490.36	3.49
490.71	3.5
491.06	3.51
491.409	3.52
491.759	3.54
492.108	3.54
492.458	3.55
492.807	3.57
493.157	3.59
493.506	3.62
493.855	3.63
494.204	3.63
494.554	3.64
494.903	3.66
495.252	3.68
495.601	3.71
495.95	3.75
496.299	3.78
496.648	3.82
496.997	3.86
497.346	3.9
497.695	3.94
498.043	3.99
498.392	4.04
498.741	4.07
499.09	4.1
499.438	4.16
499.787	4.17
500.135	4.21
500.484	4.24
500.832	4.28
501.181	4.33
501.529	4.4
501.878	4.45
502.226	4.55
502.574	4.63
502.923	4.66
503.271	4.71
503.619	4.79
503.967	4.83
504.315	4.9
504.663	4.94
505.011	4.97
505.359	5.03
505.707	5.1
506.055	5.17
506.403	5.22
506.751	5.28
507.098	5.37
507.446	5.42
507.794	5.49
508.141	5.55
508.489	5.63
508.837	5.67
509.184	5.77
509.531	5.81
509.879	5.84
510.226	5.92
510.574	6
510.921	6.05
511.268	6.14
511.616	6.2
511.963	6.28
512.31	6.38
512.657	6.46
513.004	6.51
513.351	6.59
513.698	6.68
514.045	6.77
514.392	6.83
514.739	6.93
515.086	7.06
515.432	7.14
515.779	7.23
516.126	7.35
516.473	7.4
516.819	7.51
517.166	7.63
517.512	7.71
517.859	7.78
518.205	7.86
518.552	7.93
518.898	8
519.245	8.1
519.591	8.2
519.937	8.31
520.283	8.44
520.629	8.54
520.976	8.65
521.322	8.79
521.668	8.93
522.014	9.04
522.36	9.14
522.706	9.3
523.052	9.46
523.398	9.55
523.743	9.71
524.089	9.87
524.435	9.99
524.781	10.14
525.126	10.27
525.472	10.4
525.817	10.53
526.163	10.66
526.509	10.78
526.854	10.87
527.199	10.95
527.545	11.02
527.89	11.13
528.235	11.24
528.581	11.32
528.926	11.44
529.271	11.55
529.616	11.66
529.961	11.74
530.306	11.86
530.651	12.01
530.996	12.15
531.341	12.28
531.686	12.42
532.031	12.56
532.376	12.71
532.721	12.86
533.065	13.02
533.41	13.17
533.755	13.34
534.099	13.5
534.444	13.69
534.788	13.88
535.133	14.07
535.477	14.26
535.822	14.47
536.166	14.67
536.51	14.88
536.855	15.12
537.199	15.35
537.543	15.6
537.887	15.83
538.231	16.05
538.576	16.28
538.92	16.52
539.264	16.77
539.608	17
539.951	17.2
540.295	17.4
540.639	17.6
540.983	17.8
541.327	18.01
541.671	18.23
542.014	18.42
542.358	18.58
542.701	18.75
543.045	18.91
543.389	19.1
543.732	19.28
544.075	19.47
544.419	19.69
544.762	19.9
545.105	20.14
545.449	20.4
545.792	20.66
546.135	20.94
546.478	21.24
546.821	21.55
547.165	21.87
547.508	22.15
547.851	22.5
548.194	22.79
548.536	23.07
548.879	23.35
549.222	23.68
549.565	24.06
549.908	24.39
550.25	24.71
550.593	25.07
550.936	25.43
551.278	25.77
551.621	26.09
551.963	26.4
552.306	26.69
552.648	27.03
552.991	27.34
553.333	27.64
553.675	27.92
554.017	28.13
554.36	28.43
554.702	28.73
555.044	28.96
555.386	29.26
555.728	29.55
556.07	29.79
556.412	30.09
556.754	30.29
557.096	30.55
557.438	30.85
557.78	31.09
558.121	31.39
558.463	31.67
558.805	31.99
559.147	32.26
559.488	32.55
559.83	32.8
560.171	33.07
560.513	33.28
560.854	33.48
561.196	33.79
561.537	33.99
561.878	34.22
562.22	34.43
562.561	34.63
562.902	34.9
563.243	35.16
563.584	35.31
563.925	35.53
564.266	35.77
564.607	35.99
564.948	36.24
565.289	36.46
565.63	36.63
565.971	36.84
566.312	37.01
566.653	37.17
566.993	37.33
567.334	37.48
567.675	37.66
568.015	37.89
568.356	38.09
568.696	38.29
569.037	38.48
569.377	38.69
569.718	38.93
570.058	39.07
570.398	39.23
570.739	39.5
571.079	39.75
571.419	39.95
571.759	40.1
572.099	40.25
572.439	40.4
572.779	40.6
573.119	40.74
573.459	40.93
573.799	41.07
574.139	41.29
574.479	41.49
574.819	41.68
575.158	41.85
575.498	41.99
575.838	42.17
576.177	42.34
576.517	42.54
576.856	42.69
577.196	42.9
577.535	43.14
577.875	43.3
578.214	43.39
578.553	43.57
578.893	43.82
579.232	44.01
579.571	44.29
579.91	44.45
580.25	44.6
580.589	44.78
580.928	45.02
581.267	45.18
581.606	45.34
581.945	45.54
582.283	45.71
582.622	45.91
582.961	46.09
583.3	46.35
583.639	46.51
583.977	46.7
584.316	46.81
584.654	46.93
584.993	47.02
585.332	47.21
585.67	47.25
586.008	47.43
586.347	47.47
586.685	47.44
587.024	47.58
587.362	47.67
587.7	47.8
588.038	47.91
588.376	47.97
588.715	48.07
589.053	48.17
589.391	48.19
589.729	48.28
590.067	48.39
590.404	48.47
590.742	48.56
591.08	48.6
591.418	48.7
591.756	48.75
592.093	48.84
592.431	48.98
592.769	49.09
593.106	49.08
593.444	49.24
593.781	49.39
594.119	49.38
594.456	49.51
594.793	49.55
595.131	49.62
595.468	49.72
595.805	49.78
596.143	49.86
596.48	49.98
596.817	50.05
597.154	50.12
597.491	50.08
597.828	50.12
598.165	50.17
598.502	50.19
598.839	50.37
599.176	50.48
599.512	50.53
599.849	50.56
600.186	50.63
600.523	50.68
600.859	50.74
601.196	50.9
601.532	50.85
601.869	50.88
602.205	50.93
602.542	50.87
602.878	50.95
603.215	51.01
603.551	50.99
603.887	51.06
604.223	51.03
604.56	51.15
604.896	51.22
605.232	51.28
605.568	51.36
605.904	51.36
606.24	51.32
606.576	51.39
606.912	51.54
607.248	51.63
607.583	51.6
607.919	51.61
608.255	51.61
608.591	51.8
608.926	51.92
609.262	51.96
609.597	52.08
609.933	52.14
610.268	52.26
610.604	52.43
610.939	52.52
611.275	52.65
611.61	52.7
611.945	52.78
612.281	52.88
612.616	53.07
612.951	53.15
613.286	53.24
613.621	53.29
613.956	53.35
614.291	53.37
614.626	53.58
614.961	53.79
615.296	53.98
615.631	54.04
615.966	54.09
616.3	54.21
616.635	54.4
616.97	54.46
617.304	54.4
617.639	54.35
617.973	54.37
618.308	54.54
618.642	54.51
618.977	54.57
619.311	54.58
619.646	54.44
619.98	54.5
620.314	54.62
620.648	54.64
620.983	54.72
621.317	54.76
621.651	54.76
621.985	54.69
622.319	54.64
622.653	54.67
622.987	54.58
623.321	54.55
623.655	54.55
623.988	54.52
624.322	54.55
624.656	54.49
624.99	54.39
625.323	54.26
625.657	54.3
625.99	54.3
626.324	54.34
626.657	54.38
626.991	54.36
627.324	54.28
627.658	54.32
627.991	54.31
628.324	54.36
628.657	54.44
628.991	54.49
629.324	54.57
629.657	54.55
629.99	54.62
630.323	54.76
630.656	54.82
630.989	54.92
631.322	54.96
631.655	55.04
631.987	55.09
632.32	55.2
632.653	55.32
632.986	55.43
633.318	55.48
633.651	55.65
633.984	55.68
634.316	55.81
634.649	55.78
634.981	55.84
635.313	55.97
635.646	56.01
635.978	56.12
636.31	56.16
636.643	56.21
636.975	56.32
637.307	56.29
637.639	56.29
637.971	56.33
638.303	56.44
638.635	56.57
638.967	56.74
639.299	56.82
639.631	56.79
639.963	56.77
640.295	56.81
640.626	56.81
640.958	56.89
641.29	56.91
641.621	56.93
641.953	56.94
642.285	56.81
642.616	56.9
642.948	56.79
643.279	56.67
643.61	56.67
643.942	56.68
644.273	56.81
644.604	56.8
644.936	56.88
645.267	56.93
645.598	56.92
645.929	56.74
646.26	56.67
646.591	56.69
646.922	56.68
647.253	56.63
647.584	56.67
647.915	56.55
648.245	56.61
648.576	56.68
648.907	56.67
649.238	56.7
649.568	56.61
649.899	56.6
650.229	56.68
650.56	56.75
650.89	56.71
651.221	56.58
651.551	56.63
651.882	56.57
652.212	56.49
652.542	56.54
652.872	56.62
653.203	56.61
653.533	56.6
653.863	56.52
654.193	56.56
654.523	56.41
654.853	56.46
655.183	56.48
655.513	56.34
655.843	56.22
656.172	56.2
656.502	56.21
656.832	56.24
657.162	56.25
657.491	56.17
657.821	56.09
658.15	56.12
658.48	56.11
658.809	56.08
659.139	56.02
659.468	56
659.798	56.09
660.127	56.16
660.456	56.22
660.785	56.27
661.115	56.36
661.444	56.36
661.773	56.28
662.102	56.26
662.431	56.43
662.76	56.52
663.089	56.64
663.418	56.67
663.747	56.73
664.076	56.67
664.404	56.88
664.733	56.97
665.062	56.99
665.39	56.88
665.719	56.92
666.048	57
666.376	56.93
666.705	56.99
667.033	56.9
667.362	56.77
667.69	56.74
668.018	56.66
668.347	56.78
668.675	56.91
669.003	56.95
669.331	57
669.659	57
669.987	57.03
670.315	57.07
670.643	57.01
670.971	57.07
671.299	56.81
671.627	56.88
671.955	56.88
672.283	56.84
672.61	56.81
672.938	56.76
673.266	56.77
673.593	56.7
673.921	56.73
674.249	56.67
674.576	56.77
674.904	56.66
675.231	56.65
675.558	56.66
675.886	56.58
676.213	56.5
676.54	56.48
676.867	56.29
677.195	56.33
677.522	56.41
677.849	56.52
678.176	56.57
678.503	56.53
678.83	56.46
679.157	56.58
679.484	56.49
679.81	56.42
680.137	56.48
680.464	56.48
680.791	56.46
681.117	56.61
681.444	56.54
681.771	56.52
682.097	56.43
682.424	56.38
682.75	56.24
683.077	56.2
683.403	56.27
683.729	56.34
684.056	56.2
684.382	56.18
684.708	56.06
685.034	56.12
685.36	56.04
685.686	56.12
686.012	55.99
686.339	55.95
686.664	56.06
686.99	55.89
687.316	55.82
687.642	55.79
687.968	55.58
688.294	55.69
688.619	55.77
688.945	55.81
689.271	55.86
689.596	56.13
689.922	56.13
690.247	56.1
690.573	56.29
690.898	56.3
691.224	56.41
691.549	56.59
691.874	56.46
692.2	56.55
692.525	56.58
692.85	56.68
693.175	56.86
693.5	56.88
693.825	56.83
694.15	56.69
694.475	56.75
694.8	56.73
695.125	56.45
695.45	56.4
695.775	56.41
696.099	56.46
696.424	56.3
696.749	56.38
697.073	56.31
697.398	56.11
697.723	56.08
698.047	56.04
698.372	55.8
698.696	55.88
699.02	55.94
699.345	55.86
699.669	55.9
699.993	55.81
700.318	55.75
700.642	55.84
700.966	55.93
701.29	55.98
701.614	56.22
701.938	56.33
702.262	56.37
702.586	56.25
702.91	56.17
703.234	56.3
703.557	56.12
703.881	56.24
704.205	56.38
704.529	56.55
704.852	56.48
705.176	56.8
705.499	56.76
705.823	56.51
706.146	56.54
706.47	56.5
706.793	56.66
707.117	56.85
707.44	56.92
707.763	56.86
708.086	56.76
708.409	56.76
708.733	56.88
709.056	56.83
709.379	56.94
709.702	57.05
710.025	56.87
710.348	56.88
710.671	56.83
710.993	56.8
711.316	56.68
711.639	56.59
711.962	56.72
712.284	56.75
712.607	56.88
712.93	56.91
713.252	56.81
713.575	56.89
713.897	56.48
714.22	56.51
714.542	56.68
714.864	56.63
715.187	56.4
715.509	56.34
715.831	56.37
716.153	56.44
716.475	56.41
716.798	56.59
717.12	56.65
717.442	56.61
717.764	56.73
718.085	56.6
718.407	56.82
718.729	56.41
719.051	56.23
719.373	56.35
719.695	56.4
720.016	56.65
720.338	56.51
720.659	57.01
720.981	57.03
721.302	57.07
721.624	57.11
721.945	57.23
722.267	57.1
722.588	56.97
722.909	56.79
723.231	56.63
723.552	56.35
723.873	56.41
724.194	56.47
724.515	56.28
724.836	56.43
725.157	56.29
725.478	56.3
725.799	56.5
726.12	56.32
726.441	56.26
726.762	55.99
727.083	56.03
727.403	55.94
727.724	55.93
728.045	55.89
728.365	56.04
728.686	55.97
729.006	56.24
729.327	56.19
729.647	56.39
729.967	56.35
730.288	56.39
730.608	56.21
730.928	56.09
731.249	56.06
731.569	56.24
731.889	56.37
732.209	56.43
732.529	56.27
732.849	56.51
733.169	56.39
733.489	56.24
733.809	56.28
734.129	56.14
734.448	55.95
734.768	55.86
735.088	55.68
735.408	55.95
735.727	55.84
736.047	55.9
736.366	55.94
736.686	56.18
737.005	56.38
737.325	56.47
737.644	56.44
737.963	56.33
738.283	56.06
738.602	56.16
738.921	56.26
739.24	56.58
739.56	56.14
739.879	56.13
740.198	56.54
740.517	56.34
740.836	56.49
741.155	56.71
741.473	56.85
741.792	57.17
742.111	56.76
742.43	56.7
742.748	56.77
743.067	56.57
743.386	56.18
743.704	55.94
744.023	56.06
744.341	56.29
744.66	56.38
744.978	56.66
745.297	56.52
745.615	56.57
745.933	56.11
746.252	56.46
746.57	56.55
746.888	56.57
747.206	56.66
747.524	56.63
747.842	56.4
748.16	55.98
748.478	55.69
748.796	55.97
749.114	55.89
749.432	55.84
749.749	55.91
750.067	56.21
750.385	56.36
750.703	56.47
751.02	56.32
751.338	56.31
751.655	56.07
751.973	55.85
752.29	55.6
752.608	55.75
752.925	55.85
753.242	56.21
753.56	55.99
753.877	56.09
754.194	55.68
754.511	55.89
754.828	56.04
755.145	55.99
755.462	55.69
755.779	55.68
756.096	55.86
756.413	55.53
756.73	55.26
757.047	55.26
757.364	55
757.68	54.78
757.997	54.46
758.314	54.56
758.63	54.4
758.947	54.15
759.264	54.24
759.58	53.87
759.896	53.54
760.213	53.44
760.529	52.96
760.846	53.42
761.162	53.41
761.478	53.33
761.794	53.43
762.11	53.51
762.426	53.41
762.743	53.18
763.059	53.66
763.375	53.51
763.69	53.57
764.006	53.61
764.322	53.6
764.638	53.78
764.954	53.7
765.27	54.07
765.585	54.29
765.901	54.24
766.216	54.46
766.532	54.43
766.848	54.58
767.163	54.81
767.478	54.42
767.794	54.6
768.109	54.83
768.424	54.81
768.74	54.84
769.055	55.04
769.37	55.25
769.685	55.02
770	55.23
770.315	55.16
770.63	55.05
770.945	55.54
771.26	55.9
771.575	56.16
771.89	56.06
772.205	55.89
772.52	55.51
772.834	55.16
773.149	55.18
773.464	55.08
773.778	55.38
774.093	56.01
774.407	55.65
774.722	55.59
775.036	55.73
775.351	55.76
775.665	55.74
775.979	55.73
776.293	55.64
776.608	56.02
776.922	56.12
777.236	56.7
777.55	56.55
777.864	56.84
778.178	56.82
778.492	56.53
778.806	56.77
779.12	57.29
779.434	57.65
779.747	57.64
780.061	57.97
780.375	58.12
780.689	57.58
781.002	57.55
781.316	57.39
781.629	57.29
781.943	57.39
782.256	57.71
782.57	57.86
782.883	57.63
783.196	57.67
783.51	58.19
783.823	58.19
784.136	57.89
784.449	57.04
784.762	56.72
785.075	56.5
785.388	56.94
785.701	56.82
786.014	56.68
786.327	56.91
786.64	56.77
786.953	56.98
787.266	57.29
787.578	57.4
787.891	57.83
788.204	57.93
788.516	58.05
788.829	57.82
789.141	57.84
789.454	58.4
789.766	58.22
790.079	57.5
790.391	57.11
790.703	57.6
791.016	58.13
791.328	57.92
791.64	57.85
791.952	58.25
792.264	58.27
792.576	58.44
792.888	58
793.2	58.49
793.512	58.21
793.824	58.43
794.136	58.46
794.448	58.43
794.76	58.12
795.071	57.51
795.383	57.42
795.695	57.74
796.006	57.26
796.318	57.25
796.629	56.95
796.941	57.2
797.252	57.29
797.564	56.84
797.875	57.07
798.186	57.99
798.497	57.78
798.809	57.77
799.12	58.13
799.431	58.68
799.742	57.77
800.053	57.45
800.364	57.22
800.675	57.3
800.986	57.16
801.297	57.28
801.608	57.62
801.918	58.21
802.229	58.07
802.54	58.35
802.851	58.27
803.161	58.93
803.472	58.48
803.782	58.19
804.093	58.63
804.403	58.84
804.714	58.38
805.024	57.97
805.334	58.32
805.645	58.59
805.955	57.8
806.265	57.94
806.575	57.45
806.885	57.36
807.195	57.23
807.505	57.24
807.815	57.4
808.125	58.24
808.435	57.48
808.745	56.64
809.055	56.56
809.365	56.27
809.674	55.68
809.984	56.89
810.294	56.87
810.603	56.97
810.913	56.66
811.222	56.75
811.532	56.48
811.841	55.85
812.151	55.15
812.46	55.3
812.769	55.21
813.079	55.73
813.388	55.57
813.697	54.99
814.006	54.86
814.315	54.14
814.624	53.34
814.933	54.25
815.242	54.78
815.551	54.67
815.86	55.62
816.169	55.53
816.478	54.03
816.786	53.82
817.095	53.43
817.404	53.82
817.712	52.91
818.021	52.86
818.33	52.7
818.638	52.54
818.947	53.14
819.255	52.73
819.563	52.73
819.872	52.99
820.18	53.33
820.488	53.26
820.796	53.56
821.105	53.72
821.413	53.43
821.721	53.58
822.029	53.54
822.337	53.46
822.645	53.72
822.953	53.95
823.26	53.94
823.568	53.8
823.876	53.83
824.184	53.74
824.491	53.65
824.799	53.87
825.107	53.96
825.414	53.98
825.722	54.24
826.029	54.23
826.337	54.26
826.644	54.25
826.951	54.28
827.259	54.2
827.566	53.97
827.873	54.23
828.18	54.16
828.488	54.06
828.795	53.96
829.102	54.02
829.409	53.64
829.716	53.77
830.023	53.99
830.329	53.51
830.636	54.12
830.943	54.47
831.25	54.69
831.557	54.04
831.863	53.99
832.17	53.91
832.476	53.73
832.783	53.91
833.089	53.6
833.396	53.87
833.702	53.78
834.009	53.99
834.315	53.66
834.621	53.84
834.928	54.33
835.234	54.66
835.54	53.74
835.846	54.08
836.152	53.86
836.458	53.69
836.764	53.79
837.07	53.53
837.376	53.59
837.682	52.91
837.988	53.6
838.293	53.79
838.599	53.73
838.905	54.17
839.211	53.33
839.516	53.81
839.822	53.42
840.127	54.09
840.433	54.85
840.738	54.89
841.044	54.9
841.349	53.7
841.654	52.21
841.959	53.08
842.265	54.27
842.57	53.74
842.875	54.06
843.18	54.66
843.485	55.46
843.79	54.82
844.095	55.37
844.4	55.84
844.705	55.47
845.01	56.61
845.315	57.83
845.619	58.41
845.924	58.75
846.229	59.58
846.533	59.26
846.838	59.53
847.142	57.77
847.447	58.02
847.751	59.18
848.056	61.74
848.36	62.78
848.664	59.85
848.969	60.35
849.273	60.08
849.577	59.65
849.881	58.98
850.185	59.63
850.489	59.94
850.794	61.33
851.097	60.51
851.401	59.07
851.705	57.36
852.009	59.28
852.313	58.06
852.617	59.83
852.92	62.31
853.224	59.69
853.528	61.71
853.831	60.03
854.135	61.49
854.438	57.72
854.742	56.56
855.045	57.75
855.349	59.95
855.652	61.92
855.955	60.8
856.259	60.43
856.562	59.27
856.865	59.58
857.168	58.83
857.471	59.1
857.774	58.82
858.077	58.6
858.38	58.53
858.683	59.55
858.986	58.24
859.289	56.27
859.592	61.27
859.894	62.23
860.197	61.28
860.5	60.22
860.802	63.57
861.105	64.43
861.407	63.24
861.71	60.8
862.012	62.47
862.315	63.44
862.617	64.08
862.919	66.58
863.222	66.52
863.524	66.03
863.826	65.96
864.128	65.21
864.43	65.95
864.732	64.02
865.034	64.27
865.336	64.73
865.638	61.93
865.94	59.42
866.242	57.15
866.544	59.12
866.846	59.34
867.147	59.45
867.449	59.7
867.751	59.96
868.052	61.93
868.354	59.22
868.655	61.3
868.957	61.44
869.258	58.32
869.56	58.11
869.861	57.32
870.162	57.63
870.463	57.76
870.765	59.48
871.066	58.63
871.367	57.14
871.668	54.59
871.969	55.76
872.27	55.73
872.571	56.71
872.872	54.27
873.173	55.45
873.473	52.68
873.774	51.52
874.075	51.8
874.376	50
874.676	48.31
874.977	46.37
875.277	46.57
875.578	50.39
875.878	49.4
876.179	48.91
876.479	48.97
876.78	49.73
877.08	46.21
877.38	48.06
877.68	48.81
877.981	50.19
878.281	51.47
878.581	49.62
