Data from BA44024_Reflection_00003.txt Node
Date: Tue Nov 19 11:48:36 EST 2019
User: vgr7
Spectrometer: USB2G7710
Scans to average: 3
Trigger mode: 4
Integration Time (sec): 2.000000E-2
Electric dark correction enabled: true
Boxcar width: 10
XAxis mode: Wavelengths
Number of Pixels in Spectrum: 2048
>>>>>Begin Spectral Data<<<<<
177.721	104.63
178.105	121.13
178.488	113.44
178.871	39.24
179.254	-10.77
179.636	0.12
180.019	13.2
180.402	-18.18
180.785	58.9
181.168	61.69
181.55	49.51
181.933	62.92
182.316	47.19
182.698	67.07
183.081	29.98
183.463	82.11
183.846	106.51
184.228	144.61
184.611	-167.52
184.993	-36.13
185.376	-27.79
185.758	-44.42
186.14	-108.42
186.522	-42.63
186.904	-36.53
187.287	-61.22
187.669	-30.6
188.051	-20.99
188.433	-37.82
188.815	-44.34
189.197	-32.9
189.579	0.63
189.961	2.33
190.342	16.95
190.724	35.58
191.106	23.48
191.488	25.62
191.869	26.43
192.251	35.72
192.633	43.24
193.014	40.64
193.396	46.26
193.777	42.09
194.159	48.77
194.54	52.69
194.922	42.24
195.303	41.98
195.684	49.52
196.065	44.47
196.447	58.77
196.828	53.58
197.209	46.11
197.59	27.28
197.971	25.43
198.352	18.95
198.733	-4.9
199.114	-14.67
199.495	-22.8
199.876	-42.59
200.257	-37.7
200.638	-44.88
201.018	-44.56
201.399	-50.46
201.78	-34.29
202.16	-29.02
202.541	-40.64
202.922	-43.18
203.302	-41.55
203.683	-51.79
204.063	-58.95
204.444	-49.93
204.824	-37.82
205.204	-20.41
205.585	-21.64
205.965	-27.88
206.345	-41.4
206.725	-17.05
207.106	-18.15
207.486	-14.36
207.866	8.85
208.246	14.04
208.626	2.16
209.006	14.09
209.386	16.38
209.766	-22.68
210.145	-34.21
210.525	-33.75
210.905	-22.45
211.285	-18.47
211.664	0.96
212.044	1.26
212.424	-11.47
212.803	-20.44
213.183	-23.57
213.562	-27.31
213.942	-31.59
214.321	-21.48
214.701	-28.03
215.08	-25.86
215.459	-26
215.838	-29.62
216.218	-37.68
216.597	-21.02
216.976	-33.05
217.355	-29.47
217.734	-22.32
218.113	-16.63
218.492	-22.57
218.871	-28.76
219.25	-26.44
219.629	-29.69
220.008	-25.81
220.387	-21.84
220.766	-22
221.144	-26.61
221.523	-22.89
221.902	-20.12
222.28	-18.8
222.659	-8.24
223.037	-8.55
223.416	-5.76
223.794	-7.71
224.173	-15.8
224.551	-21.78
224.929	-25.65
225.308	-23.3
225.686	-24.41
226.064	-23.51
226.442	-14.46
226.821	-9.22
227.199	-13.44
227.577	-14.95
227.955	-15.23
228.333	-18.29
228.711	-12.47
229.089	-12.82
229.467	-13.96
229.845	-16.66
230.222	-15.45
230.6	-14.15
230.978	-10.93
231.356	-10.65
231.733	-9.03
232.111	-6.75
232.488	-5.28
232.866	-0.68
233.243	1.78
233.621	4.78
233.998	0.85
234.376	-0.99
234.753	-2.37
235.13	-0.65
235.508	1.57
235.885	1.8
236.262	2.19
236.639	1.39
237.016	1.85
237.393	3.29
237.77	4.58
238.147	5.07
238.524	3.85
238.901	2.94
239.278	2.45
239.655	2.13
240.032	2.12
240.409	1.96
240.785	1.53
241.162	0.8
241.539	0.55
241.915	0.89
242.292	0.82
242.668	1.4
243.045	1.63
243.421	1.18
243.798	1.42
244.174	1.19
244.551	1.45
244.927	1.77
245.303	1.42
245.679	1.59
246.056	1.27
246.432	1.43
246.808	1.49
247.184	1.5
247.56	1.57
247.936	1.79
248.312	1.73
248.688	1.66
249.064	1.88
249.44	1.8
249.815	2.05
250.191	2.3
250.567	2.03
250.943	1.95
251.318	1.99
251.694	1.98
252.069	2.16
252.445	1.89
252.82	1.86
253.196	1.94
253.571	1.69
253.947	2.07
254.322	2.09
254.697	2.02
255.073	1.93
255.448	1.72
255.823	1.44
256.198	1.57
256.573	1.69
256.948	1.49
257.323	1.56
257.698	1.27
258.073	0.98
258.448	1.09
258.823	1.02
259.198	1.02
259.573	0.95
259.948	1.02
260.322	1.12
260.697	1.22
261.072	1.23
261.446	1.35
261.821	1.17
262.195	1.06
262.57	1.25
262.944	1.46
263.319	1.54
263.693	1.53
264.067	1.51
264.442	1.49
264.816	1.7
265.19	1.57
265.564	1.69
265.938	1.85
266.313	1.61
266.687	1.75
267.061	1.76
267.435	1.84
267.809	1.76
268.183	1.44
268.556	1.27
268.93	1.29
269.304	1.2
269.678	1.34
270.051	1.41
270.425	1.2
270.799	0.98
271.172	1.17
271.546	1.15
271.919	1.07
272.293	1.02
272.666	1.03
273.04	1.06
273.413	1
273.787	0.89
274.16	1.13
274.533	1.24
274.906	1.24
275.279	1.29
275.653	1.26
276.026	1.46
276.399	1.4
276.772	1.35
277.145	1.25
277.518	1.1
277.891	1.11
278.263	1.19
278.636	1.26
279.009	1.12
279.382	1.25
279.755	1.32
280.127	1.35
280.5	1.35
280.872	1.41
281.245	1.39
281.617	1.49
281.99	1.57
282.362	1.48
282.735	1.61
283.107	1.44
283.479	1.53
283.852	1.6
284.224	1.64
284.596	1.68
284.968	1.72
285.34	1.7
285.713	1.71
286.085	1.72
286.457	1.71
286.829	1.82
287.201	1.76
287.572	1.84
287.944	1.93
288.316	1.96
288.688	2.02
289.06	2.11
289.431	2.12
289.803	2.1
290.175	2.05
290.546	1.95
290.918	2
291.289	1.9
291.661	1.98
292.032	2.02
292.403	2.02
292.775	2.09
293.146	2.28
293.517	2.12
293.889	2.07
294.26	2
294.631	2.01
295.002	2.05
295.373	2.06
295.744	2.03
296.115	2.02
296.486	1.98
296.857	2.01
297.228	1.99
297.599	1.8
297.97	1.78
298.34	1.8
298.711	1.82
299.082	1.93
299.452	1.86
299.823	1.9
300.194	1.97
300.564	2.05
300.935	1.95
301.305	2.01
301.676	2.01
302.046	2.1
302.416	2
302.787	1.97
303.157	1.95
303.527	1.98
303.897	1.84
304.267	1.84
304.637	1.78
305.008	1.84
305.378	2.04
305.748	2.17
306.117	2.13
306.487	2.2
306.857	2.34
307.227	2.35
307.597	2.32
307.967	2.32
308.336	2.26
308.706	2.25
309.076	2.36
309.445	2.29
309.815	2.54
310.184	2.47
310.554	2.56
310.923	2.41
311.293	2.43
311.662	2.49
312.031	2.5
312.401	2.59
312.77	2.61
313.139	2.53
313.508	2.38
313.877	2.5
314.246	2.57
314.616	2.52
314.985	2.43
315.353	2.45
315.722	2.64
316.091	2.56
316.46	2.72
316.829	2.7
317.198	2.96
317.567	2.82
317.935	2.9
318.304	2.94
318.672	3.02
319.041	2.83
319.41	2.78
319.778	2.91
320.147	2.74
320.515	2.68
320.883	2.48
321.252	2.72
321.62	2.73
321.988	2.58
322.357	2.53
322.725	2.51
323.093	2.35
323.461	2.07
323.829	2.07
324.197	2.07
324.565	2.05
324.933	1.79
325.301	1.72
325.669	1.8
326.037	1.66
326.405	1.73
326.772	1.83
327.14	1.83
327.508	1.73
327.875	1.82
328.243	1.79
328.61	1.92
328.978	1.82
329.346	1.76
329.713	1.77
330.08	1.85
330.448	1.82
330.815	2.02
331.182	1.99
331.55	1.94
331.917	1.73
332.284	1.77
332.651	1.9
333.018	1.8
333.385	1.71
333.752	1.71
334.119	1.65
334.486	1.63
334.853	1.67
335.22	1.69
335.587	1.63
335.954	1.6
336.32	1.65
336.687	1.65
337.054	1.61
337.42	1.56
337.787	1.47
338.153	1.62
338.52	1.65
338.886	1.73
339.253	1.81
339.619	1.89
339.986	1.78
340.352	1.74
340.718	1.89
341.084	1.84
341.451	1.85
341.817	1.74
342.183	1.68
342.549	1.76
342.915	1.69
343.281	1.83
343.647	1.93
344.013	2.03
344.379	2.05
344.745	2
345.11	1.96
345.476	1.94
345.842	1.89
346.208	1.86
346.573	1.84
346.939	1.8
347.304	1.82
347.67	1.87
348.035	1.78
348.401	1.73
348.766	1.86
349.132	1.89
349.497	2.09
349.862	2.14
350.228	1.99
350.593	2.06
350.958	2.08
351.323	1.93
351.688	1.91
352.053	1.9
352.418	1.99
352.783	2.06
353.148	2.04
353.513	2
353.878	1.92
354.243	1.81
354.608	1.89
354.972	1.8
355.337	1.82
355.702	1.95
356.066	1.95
356.431	1.8
356.795	1.76
357.16	1.76
357.524	1.77
357.889	1.79
358.253	1.79
358.618	1.69
358.982	1.81
359.346	1.79
359.71	1.8
360.075	1.77
360.439	1.79
360.803	1.79
361.167	1.81
361.531	1.87
361.895	1.93
362.259	1.95
362.623	2.03
362.987	2.04
363.351	1.99
363.714	1.98
364.078	2.07
364.442	2.08
364.806	2.09
365.169	2.14
365.533	2.14
365.896	2.21
366.26	2.19
366.623	2.12
366.987	2.1
367.35	2.11
367.714	2.08
368.077	2.09
368.44	2.12
368.803	2.1
369.167	2.06
369.53	2.13
369.893	2.14
370.256	2.07
370.619	2.08
370.982	2.04
371.345	2.03
371.708	2.03
372.071	2.07
372.434	2.09
372.797	2.04
373.159	2.03
373.522	1.98
373.885	2.08
374.247	2.08
374.61	2.16
374.973	2.09
375.335	2.14
375.698	2.08
376.06	2.13
376.423	2.14
376.785	2.14
377.147	2.09
377.51	2.03
377.872	2.01
378.234	2.04
378.596	2.05
378.958	2.09
379.321	2.04
379.683	1.99
380.045	1.93
380.407	1.89
380.769	1.91
381.13	1.91
381.492	1.89
381.854	1.89
382.216	1.9
382.578	1.93
382.939	1.91
383.301	1.93
383.663	1.91
384.024	1.92
384.386	1.97
384.747	1.95
385.109	1.96
385.47	2
385.832	1.94
386.193	1.94
386.554	1.92
386.916	1.96
387.277	1.96
387.638	1.98
387.999	2.01
388.36	2.07
388.721	2.06
389.082	2.03
389.443	2.04
389.804	2.05
390.165	2.08
390.526	2.04
390.887	2.02
391.248	1.99
391.609	2.01
391.969	1.99
392.33	1.99
392.691	1.98
393.051	2.01
393.412	2.03
393.772	2.05
394.133	2.04
394.493	2.01
394.854	2.03
395.214	2.02
395.574	2.02
395.935	1.96
396.295	1.96
396.655	1.98
397.015	1.95
397.376	1.92
397.736	1.91
398.096	1.96
398.456	2
398.816	2.04
399.176	2.01
399.535	2.01
399.895	2.04
400.255	2.04
400.615	2.03
400.975	2.05
401.334	2.06
401.694	2.12
402.054	2.14
402.413	2.12
402.773	2.11
403.132	2.12
403.492	2.17
403.851	2.19
404.211	2.18
404.57	2.22
404.929	2.19
405.288	2.21
405.648	2.21
406.007	2.2
406.366	2.2
406.725	2.2
407.084	2.2
407.443	2.19
407.802	2.22
408.161	2.22
408.52	2.22
408.879	2.22
409.238	2.17
409.596	2.18
409.955	2.21
410.314	2.24
410.673	2.24
411.031	2.23
411.39	2.21
411.748	2.23
412.107	2.22
412.465	2.25
412.824	2.21
413.182	2.19
413.54	2.19
413.899	2.15
414.257	2.16
414.615	2.16
414.974	2.16
415.332	2.14
415.69	2.12
416.048	2.1
416.406	2.08
416.764	2.1
417.122	2.12
417.48	2.11
417.838	2.1
418.195	2.1
418.553	2.08
418.911	2.08
419.269	2.08
419.626	2.08
419.984	2.07
420.342	2.07
420.699	2.07
421.057	2.05
421.414	2.04
421.772	2.03
422.129	2.01
422.486	2.01
422.844	1.99
423.201	2.01
423.558	2
423.915	1.99
424.273	1.99
424.63	1.99
424.987	1.99
425.344	1.99
425.701	1.98
426.058	1.99
426.415	2.01
426.772	1.99
427.128	2
427.485	2
427.842	2
428.199	2
428.555	2.01
428.912	2.03
429.269	2.04
429.625	2.06
429.982	2.07
430.338	2.1
430.695	2.1
431.051	2.13
431.407	2.13
431.764	2.09
432.12	2.08
432.476	2.08
432.832	2.07
433.189	2.1
433.545	2.08
433.901	2.06
434.257	2.07
434.613	2.06
434.969	2.06
435.325	2.06
435.681	2.06
436.036	2.09
436.392	2.08
436.748	2.08
437.104	2.08
437.459	2.08
437.815	2.07
438.171	2.07
438.526	2.06
438.882	2.06
439.237	2.07
439.593	2.07
439.948	2.06
440.304	2.07
440.659	2.06
441.014	2.06
441.369	2.05
441.725	2.04
442.08	2.05
442.435	2.04
442.79	2.04
443.145	2.04
443.5	2.04
443.855	2.02
444.21	2.03
444.565	2.02
444.92	2.02
445.275	2.02
445.629	2
445.984	2
446.339	2.01
446.693	2.03
447.048	2.03
447.403	2.03
447.757	2
448.112	2.01
448.466	2.02
448.82	2.02
449.175	2.02
449.529	2.01
449.883	2.01
450.238	2.01
450.592	2.01
450.946	2.01
451.3	2.03
451.654	2.02
452.008	2.02
452.362	2.01
452.716	2.01
453.07	2.01
453.424	1.99
453.778	2
454.132	1.98
454.486	1.97
454.839	2
455.193	2.01
455.547	2
455.9	2
456.254	2.01
456.607	2.02
456.961	2.01
457.314	2.04
457.668	2.03
458.021	2.02
458.375	2.01
458.728	2.01
459.081	2.02
459.434	2.02
459.787	2.04
460.141	2.05
460.494	2.06
460.847	2.08
461.2	2.07
461.553	2.08
461.906	2.09
462.259	2.06
462.611	2.07
462.964	2.05
463.317	2.06
463.67	2.05
464.022	2.05
464.375	2.06
464.728	2.07
465.08	2.07
465.433	2.08
465.785	2.1
466.138	2.1
466.49	2.08
466.843	2.1
467.195	2.08
467.547	2.07
467.899	2.09
468.252	2.09
468.604	2.11
468.956	2.11
469.308	2.11
469.66	2.14
470.012	2.15
470.364	2.16
470.716	2.16
471.068	2.16
471.42	2.15
471.772	2.16
472.123	2.15
472.475	2.18
472.827	2.16
473.178	2.15
473.53	2.17
473.882	2.16
474.233	2.15
474.585	2.16
474.936	2.18
475.288	2.15
475.639	2.18
475.99	2.14
476.342	2.14
476.693	2.13
477.044	2.12
477.395	2.13
477.746	2.14
478.097	2.12
478.448	2.14
478.8	2.16
479.15	2.12
479.501	2.11
479.852	2.09
480.203	2.1
480.554	2.08
480.905	2.08
481.255	2.09
481.606	2.08
481.957	2.09
482.307	2.09
482.658	2.1
483.009	2.09
483.359	2.09
483.709	2.09
484.06	2.09
484.41	2.09
484.761	2.09
485.111	2.1
485.461	2.11
485.811	2.1
486.162	2.1
486.512	2.12
486.862	2.12
487.212	2.13
487.562	2.13
487.912	2.14
488.262	2.15
488.612	2.15
488.961	2.16
489.311	2.16
489.661	2.17
490.011	2.16
490.36	2.16
490.71	2.17
491.06	2.16
491.409	2.18
491.759	2.19
492.108	2.19
492.458	2.19
492.807	2.18
493.157	2.19
493.506	2.19
493.855	2.19
494.204	2.19
494.554	2.19
494.903	2.2
495.252	2.2
495.601	2.2
495.95	2.21
496.299	2.21
496.648	2.22
496.997	2.23
497.346	2.26
497.695	2.27
498.043	2.31
498.392	2.32
498.741	2.33
499.09	2.35
499.438	2.36
499.787	2.36
500.135	2.37
500.484	2.38
500.832	2.4
501.181	2.44
501.529	2.47
501.878	2.48
502.226	2.49
502.574	2.49
502.923	2.48
503.271	2.47
503.619	2.49
503.967	2.46
504.315	2.45
504.663	2.46
505.011	2.46
505.359	2.41
505.707	2.42
506.055	2.41
506.403	2.39
506.751	2.39
507.098	2.42
507.446	2.4
507.794	2.41
508.141	2.41
508.489	2.39
508.837	2.38
509.184	2.39
509.531	2.37
509.879	2.38
510.226	2.4
510.574	2.43
510.921	2.43
511.268	2.47
511.616	2.48
511.963	2.48
512.31	2.5
512.657	2.53
513.004	2.54
513.351	2.54
513.698	2.53
514.045	2.52
514.392	2.52
514.739	2.55
515.086	2.55
515.432	2.54
515.779	2.53
516.126	2.56
516.473	2.54
516.819	2.55
517.166	2.57
517.512	2.56
517.859	2.55
518.205	2.54
518.552	2.53
518.898	2.51
519.245	2.51
519.591	2.51
519.937	2.49
520.283	2.5
520.629	2.51
520.976	2.51
521.322	2.53
521.668	2.52
522.014	2.53
522.36	2.55
522.706	2.55
523.052	2.55
523.398	2.53
523.743	2.54
524.089	2.56
524.435	2.54
524.781	2.56
525.126	2.57
525.472	2.55
525.817	2.55
526.163	2.55
526.509	2.54
526.854	2.52
527.199	2.52
527.545	2.51
527.89	2.51
528.235	2.51
528.581	2.52
528.926	2.51
529.271	2.5
529.616	2.49
529.961	2.5
530.306	2.5
530.651	2.51
530.996	2.5
531.341	2.5
531.686	2.51
532.031	2.51
532.376	2.5
532.721	2.51
533.065	2.51
533.41	2.52
533.755	2.53
534.099	2.53
534.444	2.54
534.788	2.55
535.133	2.55
535.477	2.58
535.822	2.56
536.166	2.58
536.51	2.58
536.855	2.59
537.199	2.57
537.543	2.57
537.887	2.56
538.231	2.58
538.576	2.57
538.92	2.58
539.264	2.57
539.608	2.55
539.951	2.56
540.295	2.56
540.639	2.56
540.983	2.57
541.327	2.59
541.671	2.58
542.014	2.6
542.358	2.59
542.701	2.58
543.045	2.59
543.389	2.6
543.732	2.6
544.075	2.6
544.419	2.61
544.762	2.6
545.105	2.61
545.449	2.62
545.792	2.61
546.135	2.61
546.478	2.6
546.821	2.63
547.165	2.63
547.508	2.64
547.851	2.64
548.194	2.65
548.536	2.63
548.879	2.63
549.222	2.62
549.565	2.64
549.908	2.63
550.25	2.6
550.593	2.56
550.936	2.57
551.278	2.6
551.621	2.6
551.963	2.64
552.306	2.64
552.648	2.64
552.991	2.65
553.333	2.66
553.675	2.67
554.017	2.67
554.36	2.69
554.702	2.68
555.044	2.69
555.386	2.68
555.728	2.71
556.07	2.71
556.412	2.7
556.754	2.67
557.096	2.68
557.438	2.7
557.78	2.71
558.121	2.71
558.463	2.71
558.805	2.74
559.147	2.73
559.488	2.69
559.83	2.7
560.171	2.72
560.513	2.73
560.854	2.72
561.196	2.75
561.537	2.76
561.878	2.77
562.22	2.75
562.561	2.75
562.902	2.73
563.243	2.71
563.584	2.72
563.925	2.77
564.266	2.78
564.607	2.81
564.948	2.8
565.289	2.82
565.63	2.79
565.971	2.77
566.312	2.77
566.653	2.8
566.993	2.74
567.334	2.73
567.675	2.7
568.015	2.71
568.356	2.69
568.696	2.69
569.037	2.68
569.377	2.7
569.718	2.7
570.058	2.72
570.398	2.72
570.739	2.72
571.079	2.69
571.419	2.7
571.759	2.67
572.099	2.67
572.439	2.68
572.779	2.68
573.119	2.7
573.459	2.67
573.799	2.66
574.139	2.68
574.479	2.72
574.819	2.76
575.158	2.76
575.498	2.76
575.838	2.76
576.177	2.76
576.517	2.77
576.856	2.79
577.196	2.81
577.535	2.84
577.875	2.81
578.214	2.82
578.553	2.84
578.893	2.86
579.232	2.89
579.571	2.88
579.91	2.89
580.25	2.9
580.589	2.93
580.928	2.95
581.267	2.97
581.606	2.95
581.945	2.92
582.283	2.92
582.622	2.9
582.961	2.91
583.3	2.89
583.639	2.89
583.977	2.86
584.316	2.83
584.654	2.83
584.993	2.88
585.332	2.89
585.67	2.89
586.008	2.92
586.347	2.92
586.685	2.87
587.024	2.91
587.362	2.91
587.7	2.92
588.038	2.96
588.376	2.96
588.715	2.97
589.053	3.02
589.391	3.03
589.729	3.05
590.067	3.04
590.404	3.09
590.742	3.08
591.08	3.06
591.418	3.07
591.756	3.06
592.093	3.05
592.431	3.06
592.769	3.05
593.106	3.01
593.444	3.01
593.781	3.04
594.119	3.02
594.456	3
594.793	3
595.131	2.95
595.468	2.95
595.805	2.95
596.143	2.95
596.48	2.93
596.817	2.93
597.154	2.93
597.491	2.89
597.828	2.89
598.165	2.9
598.502	2.88
598.839	2.86
599.176	2.85
599.512	2.85
599.849	2.84
600.186	2.84
600.523	2.82
600.859	2.86
601.196	2.84
601.532	2.83
601.869	2.82
602.205	2.81
602.542	2.81
602.878	2.77
603.215	2.76
603.551	2.74
603.887	2.75
604.223	2.73
604.56	2.72
604.896	2.75
605.232	2.76
605.568	2.8
605.904	2.82
606.24	2.82
606.576	2.81
606.912	2.82
607.248	2.84
607.583	2.89
607.919	2.83
608.255	2.84
608.591	2.89
608.926	2.9
609.262	2.91
609.597	2.93
609.933	2.95
610.268	3
610.604	3.03
610.939	3.06
611.275	3.07
611.61	3.15
611.945	3.09
612.281	3.08
612.616	3.09
612.951	3.1
613.286	3.13
613.621	3.14
613.956	3.14
614.291	3.13
614.626	3.08
614.961	3.15
615.296	3.19
615.631	3.15
615.966	3.13
616.3	3.22
616.635	3.19
616.97	3.21
617.304	3.15
617.639	3.15
617.973	3.11
618.308	3.12
618.642	3.09
618.977	3.13
619.311	3.2
619.646	3.21
619.98	3.22
620.314	3.18
620.648	3.23
620.983	3.23
621.317	3.27
621.651	3.28
621.985	3.27
622.319	3.21
622.653	3.18
622.987	3.18
623.321	3.17
623.655	3.21
623.988	3.22
624.322	3.21
624.656	3.23
624.99	3.25
625.323	3.23
625.657	3.24
625.99	3.23
626.324	3.21
626.657	3.15
626.991	3.12
627.324	3.09
627.658	3.05
627.991	3.07
628.324	3.01
628.657	3
628.991	3.01
629.324	3.04
629.657	3.03
629.99	3.08
630.323	3.01
630.656	2.99
630.989	2.98
631.322	2.95
631.655	2.9
631.987	2.87
632.32	2.87
632.653	2.82
632.986	2.84
633.318	2.82
633.651	2.85
633.984	2.84
634.316	2.87
634.649	2.85
634.981	2.83
635.313	2.89
635.646	2.87
635.978	2.88
636.31	2.89
636.643	2.94
636.975	2.89
637.307	2.93
637.639	2.9
637.971	2.87
638.303	2.92
638.635	2.95
638.967	2.96
639.299	2.95
639.631	3
639.963	2.97
640.295	3
640.626	3.04
640.958	3.04
641.29	3.05
641.621	3.04
641.953	2.97
642.285	2.98
642.616	3.03
642.948	3.01
643.279	2.94
643.61	2.96
643.942	3.02
644.273	3.04
644.604	3.03
644.936	3.07
645.267	3.09
645.598	3.13
645.929	3.1
646.26	3.1
646.591	3.11
646.922	3.19
647.253	3.13
647.584	3.07
647.915	3.14
648.245	3.19
648.576	3.19
648.907	3.26
649.238	3.25
649.568	3.29
649.899	3.27
650.229	3.33
650.56	3.4
650.89	3.34
651.221	3.36
651.551	3.35
651.882	3.31
652.212	3.33
652.542	3.28
652.872	3.3
653.203	3.29
653.533	3.37
653.863	3.34
654.193	3.34
654.523	3.31
654.853	3.34
655.183	3.31
655.513	3.36
655.843	3.27
656.172	3.29
656.502	3.19
656.832	3.17
657.162	3.17
657.491	3.07
657.821	3.09
658.15	3.02
658.48	3.07
658.809	3.09
659.139	3.09
659.468	3.18
659.798	3.23
660.127	3.26
660.456	3.21
660.785	3.17
661.115	3.26
661.444	3.37
661.773	3.29
662.102	3.25
662.431	3.25
662.76	3.3
663.089	3.34
663.418	3.43
663.747	3.4
664.076	3.44
664.404	3.43
664.733	3.45
665.062	3.51
665.39	3.44
665.719	3.44
666.048	3.38
666.376	3.35
666.705	3.31
667.033	3.3
667.362	3.24
667.69	3.3
668.018	3.25
668.347	3.15
668.675	3.09
669.003	3.1
669.331	3.09
669.659	3.09
669.987	3.01
670.315	3.01
670.643	3.08
670.971	3.09
671.299	3.14
671.627	3.15
671.955	3.07
672.283	3.16
672.61	3.11
672.938	3.22
673.266	3.2
673.593	3.22
673.921	3.16
674.249	3.19
674.576	3.1
674.904	3.12
675.231	3.16
675.558	3.27
675.886	3.33
676.213	3.38
676.54	3.34
676.867	3.33
677.195	3.35
677.522	3.39
677.849	3.4
678.176	3.45
678.503	3.41
678.83	3.43
679.157	3.46
679.484	3.54
679.81	3.43
680.137	3.5
680.464	3.49
680.791	3.57
681.117	3.58
681.444	3.55
681.771	3.51
682.097	3.49
682.424	3.48
682.75	3.53
683.077	3.44
683.403	3.43
683.729	3.42
684.056	3.32
684.382	3.3
684.708	3.32
685.034	3.28
685.36	3.34
685.686	3.34
686.012	3.37
686.339	3.22
686.664	3.29
686.99	3.23
687.316	3.19
687.642	3.14
687.968	3.22
688.294	3.27
688.619	3.24
688.945	3.28
689.271	3.38
689.596	3.27
689.922	3.28
690.247	3.4
690.573	3.45
690.898	3.49
691.224	3.46
691.549	3.47
691.874	3.5
692.2	3.46
692.525	3.5
692.85	3.4
693.175	3.49
693.5	3.43
693.825	3.43
694.15	3.4
694.475	3.52
694.8	3.46
695.125	3.52
695.45	3.53
695.775	3.53
696.099	3.45
696.424	3.44
696.749	3.55
697.073	3.48
697.398	3.41
697.723	3.53
698.047	3.56
698.372	3.5
698.696	3.51
699.02	3.54
699.345	3.56
699.669	3.54
699.993	3.58
700.318	3.69
700.642	3.71
700.966	3.75
701.29	3.75
701.614	3.81
701.938	3.73
702.262	3.74
702.586	3.8
702.91	3.81
703.234	3.7
703.557	3.66
703.881	3.73
704.205	3.84
704.529	3.7
704.852	3.65
705.176	3.7
705.499	3.64
705.823	3.57
706.146	3.52
706.47	3.65
706.793	3.55
707.117	3.58
707.44	3.56
707.763	3.57
708.086	3.52
708.409	3.37
708.733	3.38
709.056	3.4
709.379	3.43
709.702	3.36
710.025	3.69
710.348	3.67
710.671	3.56
710.993	3.39
711.316	3.39
711.639	3.44
711.962	3.54
712.284	3.6
712.607	3.74
712.93	3.69
713.252	3.55
713.575	3.6
713.897	3.45
714.22	3.37
714.542	3.39
714.864	3.36
715.187	3.38
715.509	3.49
715.831	3.5
716.153	3.43
716.475	3.39
716.798	3.24
717.12	3.22
717.442	3.31
717.764	3.36
718.085	3.36
718.407	3.23
718.729	3.15
719.051	3.14
719.373	3.11
719.695	3.13
720.016	3.25
720.338	3.46
720.659	3.55
720.981	3.76
721.302	3.86
721.624	3.74
721.945	3.7
722.267	3.72
722.588	3.88
722.909	3.83
723.231	4.11
723.552	4.05
723.873	4.06
724.194	4.08
724.515	4.25
724.836	4.22
725.157	4.4
725.478	4.27
725.799	4.14
726.12	3.94
726.441	4.06
726.762	4.17
727.083	4.14
727.403	4.14
727.724	3.95
728.045	3.83
728.365	4.04
728.686	4.14
729.006	3.92
729.327	3.85
729.647	3.83
729.967	3.63
730.288	3.71
730.608	3.82
730.928	3.84
731.249	3.88
731.569	4.05
731.889	3.91
732.209	3.81
732.529	3.92
732.849	4.04
733.169	3.93
733.489	3.76
733.809	3.49
734.129	3.46
734.448	3.57
734.768	3.5
735.088	3.33
735.408	3.2
735.727	3.54
736.047	3.68
736.366	3.81
736.686	3.99
737.005	4.03
737.325	3.88
737.644	3.96
737.963	4.05
738.283	3.91
738.602	4.02
738.921	4.4
739.24	4.32
739.56	4.48
739.879	4.54
740.198	4.7
740.517	4.94
740.836	4.96
741.155	4.91
741.473	5.06
741.792	4.95
742.111	5.05
742.43	4.95
742.748	4.94
743.067	4.99
743.386	4.73
743.704	4.58
744.023	4.6
744.341	4.6
744.66	4.4
744.978	4.45
745.297	4.51
745.615	4.21
745.933	4.22
746.252	4.28
746.57	4.34
746.888	4.39
747.206	4.5
747.524	4.49
747.842	4.32
748.16	4.33
748.478	4.61
748.796	4.69
749.114	4.81
749.432	4.56
749.749	4.38
750.067	4.48
750.385	4.65
750.703	4.77
751.02	4.76
751.338	4.86
751.655	4.82
751.973	4.91
752.29	4.91
752.608	4.91
752.925	4.61
753.242	4.64
753.56	4.38
753.877	4
754.194	4.16
754.511	4.41
754.828	4.24
755.145	4.24
755.462	4.23
755.779	4.06
756.096	4.22
756.413	4.3
756.73	4.46
757.047	4.33
757.364	4.26
757.68	3.97
757.997	3.9
758.314	4.16
758.63	3.98
758.947	4.06
759.264	3.92
759.58	3.73
759.896	3.79
760.213	3.89
760.529	4.06
760.846	3.96
761.162	3.87
761.478	3.95
761.794	4.01
762.11	4.02
762.426	3.92
762.743	4.01
763.059	4.1
763.375	4.02
763.69	4.1
764.006	4.1
764.322	4.15
764.638	4.2
764.954	4.13
765.27	4.18
765.585	4.22
765.901	4.13
766.216	4.41
766.532	4.28
766.848	4.28
767.163	4.31
767.478	4.36
767.794	4.3
768.109	4.36
768.424	4.33
768.74	4.3
769.055	4.57
769.37	4.34
769.685	4.2
770	4.31
770.315	4.24
770.63	4.13
770.945	4.27
771.26	4.31
771.575	4.41
771.89	4.15
772.205	3.9
772.52	4.3
772.834	4.22
773.149	4.35
773.464	4.24
773.778	4.12
774.093	4.03
774.407	4.46
774.722	4.13
775.036	4.47
775.351	4.53
775.665	4.16
775.979	4.29
776.293	4.39
776.608	4.3
776.922	4.37
777.236	4.5
777.55	4.5
777.864	4.4
778.178	4.02
778.492	4.16
778.806	4.23
779.12	4.16
779.434	4.05
779.747	4.08
780.061	4.11
780.375	4.42
780.689	4.64
781.002	4.26
781.316	4.42
781.629	3.78
781.943	3.87
782.256	4.11
782.57	3.84
782.883	4.1
783.196	3.81
783.51	3.99
783.823	4.02
784.136	4.14
784.449	4.39
784.762	4.69
785.075	4.61
785.388	4.85
785.701	4.95
786.014	5
786.327	4.98
786.64	4.69
786.953	4.56
787.266	4.24
787.578	4.1
787.891	4.27
788.204	4.36
788.516	4.24
788.829	4.37
789.141	4.45
789.454	4.12
789.766	4.4
790.079	4.09
790.391	4.23
790.703	3.98
791.016	3.87
791.328	3.7
791.64	4.29
791.952	4.2
792.264	3.85
792.576	3.92
792.888	3.93
793.2	4.28
793.512	4.45
793.824	4.76
794.136	5.15
794.448	5.28
794.76	5.68
795.071	5.67
795.383	5.51
795.695	5.67
796.006	5.64
796.318	5.74
796.629	5.95
796.941	6.04
797.252	5.79
797.564	5.88
797.875	5.9
798.186	5.84
798.497	5.84
798.809	5.99
799.12	6.25
799.431	6.16
799.742	6.22
800.053	5.84
800.364	5.58
800.675	5.54
800.986	5.72
801.297	5.18
801.608	4.93
801.918	5.04
802.229	5.27
802.54	5.42
802.851	5.2
803.161	5
803.472	5.31
803.782	6.08
804.093	5.97
804.403	6.04
804.714	6.09
805.024	5.76
805.334	5.35
805.645	4.75
805.955	4.93
806.265	5.37
806.575	5.65
806.885	5.3
807.195	5.51
807.505	5.08
807.815	5.24
808.125	5.57
808.435	5.48
808.745	4.73
809.055	4.77
809.365	4.94
809.674	5.55
809.984	4.45
810.294	3.68
810.603	3.45
810.913	2.9
811.222	2.06
811.532	2.88
811.841	4
812.151	3.84
812.46	4
812.769	3.49
813.079	3.7
813.388	4.19
813.697	3.79
814.006	3.83
814.315	2.99
814.624	2.5
814.933	2.73
815.242	3.13
815.551	2.98
815.86	2.83
816.169	2.04
816.478	2.88
816.786	2.68
817.095	2.12
817.404	2.3
817.712	2.3
818.021	2.62
818.33	2.44
818.638	2.86
818.947	2.89
819.255	3.02
819.563	3.11
819.872	3.07
820.18	3.1
820.488	3.24
820.796	4.05
821.105	4.49
821.413	4.45
821.721	4.46
822.029	4.38
822.337	4.54
822.645	4.69
822.953	4.66
823.26	4.81
823.568	4.87
823.876	4.88
824.184	4.96
824.491	4.83
824.799	4.8
825.107	4.93
825.414	4.91
825.722	4.93
826.029	4.85
826.337	4.97
826.644	5.34
826.951	5.37
827.259	5.21
827.566	5.02
827.873	4.9
828.18	4.8
828.488	4.78
828.795	5.08
829.102	4.93
829.409	4.75
829.716	4.77
830.023	5.25
830.329	5.51
830.636	5.79
830.943	5.7
831.25	5.99
831.557	5.79
831.863	6.12
832.17	6.14
832.476	5.97
832.783	5.97
833.089	5.35
833.396	5.46
833.702	5.7
834.009	5.85
834.315	5.93
834.621	6.4
834.928	6.71
835.234	5.68
835.54	5.78
835.846	6.19
836.152	6.12
836.458	5.62
836.764	5.54
837.07	5.24
837.376	5.36
837.682	5.33
837.988	5.35
838.293	5.22
838.599	4.98
838.905	5.42
839.211	5.71
839.516	5.6
839.822	6.22
840.127	5.66
840.433	5.23
840.738	4.89
841.044	4.35
841.349	3.68
841.654	3.89
841.959	3.79
842.265	2.97
842.57	3.13
842.875	2.61
843.18	1.18
843.485	1.08
843.79	0.89
844.095	0.95
844.4	0.55
844.705	0.81
845.01	1.49
845.315	1.03
845.619	0.08
845.924	0.55
846.229	-0.73
846.533	-1.25
846.838	-0.9
847.142	-0.74
847.447	0.57
847.751	1.31
848.056	1.79
848.36	3.37
848.664	3.51
848.969	2.86
849.273	4.16
849.577	5.9
849.881	6.04
850.185	4.55
850.489	3.31
850.794	6.22
851.097	5.82
851.401	3.92
851.705	3.15
852.009	3.27
852.313	1.77
852.617	1.13
852.92	3.83
853.224	4.34
853.528	5.5
853.831	5.38
854.135	4.84
854.438	3.98
854.742	2.88
855.045	2.64
855.349	2.9
855.652	3.02
855.955	4.38
856.259	6.83
856.562	9.16
856.865	9.93
857.168	7.54
857.471	7.26
857.774	8.99
858.077	8.65
858.38	11.18
858.683	13.6
858.986	13.69
859.289	12.27
859.592	13.42
859.894	12.71
860.197	10.28
860.5	11.76
860.802	12.53
861.105	12.44
861.407	14.41
861.71	14.67
862.012	13.57
862.315	12.62
862.617	9.24
862.919	9.1
863.222	7.25
863.524	6.48
863.826	5.51
864.128	4.68
864.43	8.28
864.732	4.34
865.034	3.47
865.336	3.94
865.638	2.43
865.94	1.54
866.242	1.16
866.544	1.02
866.846	-0.19
867.147	1.3
867.449	0.12
867.751	-2.09
868.052	-4.78
868.354	-4.25
868.655	-3.35
868.957	-1.86
869.258	-4.8
869.56	-4.51
869.861	-5.1
870.162	-5.7
870.463	-5.8
870.765	-11.1
871.066	-9.46
871.367	-10.95
871.668	-11.58
871.969	-11.28
872.27	-11.79
872.571	-11.21
872.872	-6.48
873.173	-5.94
873.473	-7.65
873.774	-5.5
874.075	-2.73
874.376	-1.04
874.676	-2.53
874.977	-1.93
875.277	-1.6
875.578	1.8
875.878	2.22
876.179	3.9
876.479	4.7
876.78	5.69
877.08	9.28
877.38	9.71
877.68	10.98
877.981	12.21
878.281	14.21
878.581	15
