Data from BA44024_Reflection_00001.txt Node
Date: Tue Nov 19 11:48:32 EST 2019
User: vgr7
Spectrometer: USB2G7710
Scans to average: 3
Trigger mode: 4
Integration Time (sec): 2.000000E-2
Electric dark correction enabled: true
Boxcar width: 10
XAxis mode: Wavelengths
Number of Pixels in Spectrum: 2048
>>>>>Begin Spectral Data<<<<<
177.721	-19.12
178.105	-26.76
178.488	-19.26
178.871	149.37
179.254	40
179.636	39.36
180.019	129.84
180.402	109.09
180.785	-142.47
181.168	-3.14
181.55	30.58
181.933	49.94
182.316	35.88
182.698	48.96
183.081	48.83
183.463	97.02
183.846	64.21
184.228	94.42
184.611	-253.5
184.993	-18.49
185.376	36.11
185.758	24.51
186.14	40
186.522	26.31
186.904	98.2
187.287	66.81
187.669	42.27
188.051	65.27
188.433	66.78
188.815	41.15
189.197	38.87
189.579	37.9
189.961	32.45
190.342	39.53
190.724	62.57
191.106	53.93
191.488	47.15
191.869	35.19
192.251	46.87
192.633	50.85
193.014	46.85
193.396	34.84
193.777	37.68
194.159	40.65
194.54	44.8
194.922	41.61
195.303	42.64
195.684	65.51
196.065	48.56
196.447	41.45
196.828	48.17
197.209	43.66
197.59	48.17
197.971	44.4
198.352	51.49
198.733	43.85
199.114	49.52
199.495	49.04
199.876	53.62
200.257	47.09
200.638	46.17
201.018	46.99
201.399	53.55
201.78	53.87
202.16	44.26
202.541	37.84
202.922	35.98
203.302	47.28
203.683	34.84
204.063	39.14
204.444	46.45
204.824	50.58
205.204	54.04
205.585	50.42
205.965	53.68
206.345	65.45
206.725	53.31
207.106	62.65
207.486	69.45
207.866	97.64
208.246	99.27
208.626	94.73
209.006	88.6
209.386	105.1
209.766	94.42
210.145	98.97
210.525	89.78
210.905	74.35
211.285	62.55
211.664	62.57
212.044	71.35
212.424	66.31
212.803	56.39
213.183	66.36
213.562	64.05
213.942	64.78
214.321	42.73
214.701	39.06
215.08	30.42
215.459	34.92
215.838	21.71
216.218	13.81
216.597	8.99
216.976	15.46
217.355	13.83
217.734	8.04
218.113	8.78
218.492	9.16
218.871	19.08
219.25	-0.26
219.629	-0.82
220.008	-3.29
220.387	-8.07
220.766	0.58
221.144	-3.18
221.523	-5.87
221.902	-0.36
222.28	1.74
222.659	11.35
223.037	7.7
223.416	2.35
223.794	-1.15
224.173	-2.19
224.551	4.13
224.929	-3.58
225.308	-7.82
225.686	-4.15
226.064	-8
226.442	-6.74
226.821	-8.98
227.199	-2.45
227.577	-6.96
227.955	-3.75
228.333	-7.36
228.711	-3.8
229.089	-5.26
229.467	-2.68
229.845	-5.51
230.222	0.43
230.6	0.67
230.978	-1.81
231.356	-1.86
231.733	0.32
232.111	1.43
232.488	0.19
232.866	5.07
233.243	8.04
233.621	6.08
233.998	6.52
234.376	8.85
234.753	8.57
235.13	7.24
235.508	8.49
235.885	7.79
236.262	9.07
236.639	6.84
237.016	8.56
237.393	8.45
237.77	9.65
238.147	8.14
238.524	8.13
238.901	8.04
239.278	8.13
239.655	7.32
240.032	7.1
240.409	6.62
240.785	5.96
241.162	5.95
241.539	6.16
241.915	6.2
242.292	5.76
242.668	6.25
243.045	6.48
243.421	6.63
243.798	6.59
244.174	6.71
244.551	6.99
244.927	6.59
245.303	6.17
245.679	5.98
246.056	5.76
246.432	5.63
246.808	5.85
247.184	5.88
247.56	5.91
247.936	5.98
248.312	6.07
248.688	5.93
249.064	5.6
249.44	5.6
249.815	5.52
250.191	5.59
250.567	5.45
250.943	5.68
251.318	5.59
251.694	5.54
252.069	5.51
252.445	5.21
252.82	5.27
253.196	5.43
253.571	5.6
253.947	5.59
254.322	5.29
254.697	5.45
255.073	5.21
255.448	5.06
255.823	4.97
256.198	5.01
256.573	5.16
256.948	5.34
257.323	5.53
257.698	5.67
258.073	5.5
258.448	5.37
258.823	5.01
259.198	4.98
259.573	4.9
259.948	4.92
260.322	4.86
260.697	4.86
261.072	4.84
261.446	4.77
261.821	4.88
262.195	4.97
262.57	4.9
262.944	4.94
263.319	4.99
263.693	5.2
264.067	5.16
264.442	5.23
264.816	5.16
265.19	5
265.564	4.75
265.938	4.72
266.313	4.83
266.687	4.94
267.061	4.88
267.435	5.11
267.809	5.13
268.183	5.04
268.556	5.03
268.93	5.03
269.304	4.95
269.678	4.98
270.051	5.01
270.425	5.05
270.799	4.96
271.172	5.13
271.546	4.99
271.919	5.04
272.293	5.06
272.666	5.16
273.04	5.2
273.413	5.2
273.787	5.18
274.16	5.07
274.533	5.18
274.906	5.12
275.279	4.87
275.653	4.87
276.026	5.1
276.399	5.24
276.772	5.37
277.145	5.52
277.518	5.29
277.891	5.29
278.263	5.41
278.636	5.5
279.009	5.59
279.382	5.68
279.755	5.66
280.127	5.55
280.5	5.47
280.872	5.38
281.245	5.46
281.617	5.66
281.99	5.66
282.362	5.53
282.735	5.62
283.107	5.54
283.479	5.66
283.852	5.61
284.224	5.36
284.596	5.19
284.968	5.05
285.34	5.27
285.713	5.19
286.085	5.06
286.457	5.08
286.829	4.95
287.201	4.94
287.572	5.01
287.944	4.9
288.316	4.98
288.688	5.19
289.06	5.2
289.431	5.19
289.803	5.3
290.175	5.39
290.546	5.43
290.918	5.5
291.289	5.37
291.661	5.4
292.032	5.51
292.403	5.72
292.775	5.96
293.146	5.86
293.517	6.01
293.889	5.98
294.26	6.03
294.631	6.1
295.002	6.06
295.373	5.97
295.744	6
296.115	5.82
296.486	5.73
296.857	5.81
297.228	5.79
297.599	5.74
297.97	5.71
298.34	5.75
298.711	5.83
299.082	5.95
299.452	5.82
299.823	5.75
300.194	5.71
300.564	5.5
300.935	5.55
301.305	5.5
301.676	5.47
302.046	5.33
302.416	5.19
302.787	5.23
303.157	5.44
303.527	5.55
303.897	5.56
304.267	5.59
304.637	5.65
305.008	5.53
305.378	5.47
305.748	5.47
306.117	5.41
306.487	5.38
306.857	5.25
307.227	5.47
307.597	5.58
307.967	5.64
308.336	5.66
308.706	5.62
309.076	5.66
309.445	5.83
309.815	5.87
310.184	5.96
310.554	5.86
310.923	5.64
311.293	5.62
311.662	5.77
312.031	5.54
312.401	5.55
312.77	5.67
313.139	5.81
313.508	5.85
313.877	5.94
314.246	5.91
314.616	5.87
314.985	5.74
315.353	5.76
315.722	5.65
316.091	5.74
316.46	5.86
316.829	5.85
317.198	5.74
317.567	5.93
317.935	5.89
318.304	6.03
318.672	6.18
319.041	6.19
319.41	6.11
319.778	6.28
320.147	6.33
320.515	6.21
320.883	6.09
321.252	6.05
321.62	5.97
321.988	6.32
322.357	6.39
322.725	6.49
323.093	6.27
323.461	6.4
323.829	6.32
324.197	6.23
324.565	6.32
324.933	6.35
325.301	6.26
325.669	6.14
326.037	6.11
326.405	6.07
326.772	6.01
327.14	5.89
327.508	5.85
327.875	5.67
328.243	5.71
328.61	5.7
328.978	5.61
329.346	5.64
329.713	5.31
330.08	5.38
330.448	5.28
330.815	5.38
331.182	5.17
331.55	5.25
331.917	5.2
332.284	5.07
332.651	5.09
333.018	5.01
333.385	5.06
333.752	5
334.119	5.03
334.486	5.09
334.853	5.14
335.22	5.2
335.587	5.14
335.954	5.07
336.32	5.09
336.687	5.27
337.054	5.21
337.42	5.28
337.787	5.09
338.153	5.22
338.52	5.26
338.886	5.35
339.253	5.31
339.619	5.36
339.986	5.28
340.352	5.27
340.718	5.35
341.084	5.46
341.451	5.52
341.817	5.48
342.183	5.4
342.549	5.43
342.915	5.52
343.281	5.63
343.647	5.66
344.013	5.66
344.379	5.67
344.745	5.68
345.11	5.73
345.476	5.84
345.842	5.72
346.208	5.75
346.573	5.79
346.939	5.81
347.304	5.77
347.67	5.86
348.035	5.72
348.401	5.66
348.766	5.56
349.132	5.54
349.497	5.57
349.862	5.61
350.228	5.71
350.593	5.59
350.958	5.65
351.323	5.63
351.688	5.61
352.053	5.49
352.418	5.53
352.783	5.53
353.148	5.51
353.513	5.58
353.878	5.55
354.243	5.54
354.608	5.53
354.972	5.66
355.337	5.65
355.702	5.76
356.066	5.79
356.431	5.77
356.795	5.75
357.16	5.76
357.524	5.76
357.889	5.72
358.253	5.69
358.618	5.58
358.982	5.57
359.346	5.58
359.71	5.63
360.075	5.59
360.439	5.6
360.803	5.63
361.167	5.58
361.531	5.53
361.895	5.49
362.259	5.54
362.623	5.52
362.987	5.52
363.351	5.52
363.714	5.55
364.078	5.52
364.442	5.45
364.806	5.41
365.169	5.4
365.533	5.44
365.896	5.5
366.26	5.51
366.623	5.52
366.987	5.56
367.35	5.53
367.714	5.53
368.077	5.49
368.44	5.5
368.803	5.45
369.167	5.45
369.53	5.55
369.893	5.45
370.256	5.34
370.619	5.34
370.982	5.21
371.345	5.17
371.708	5.25
372.071	5.34
372.434	5.3
372.797	5.31
373.159	5.27
373.522	5.25
373.885	5.29
374.247	5.32
374.61	5.3
374.973	5.35
375.335	5.3
375.698	5.28
376.06	5.2
376.423	5.32
376.785	5.37
377.147	5.23
377.51	5.22
377.872	5.26
378.234	5.23
378.596	5.34
378.958	5.25
379.321	5.18
379.683	5.18
380.045	5.26
380.407	5.3
380.769	5.25
381.13	5.24
381.492	5.2
381.854	5.19
382.216	5.18
382.578	5.16
382.939	5.18
383.301	5.15
383.663	5.17
384.024	5.09
384.386	5.07
384.747	4.99
385.109	4.99
385.47	5
385.832	5.03
386.193	5.03
386.554	5.05
386.916	5.09
387.277	5.06
387.638	5.02
387.999	4.99
388.36	5.01
388.721	5.02
389.082	5.04
389.443	5.05
389.804	5.07
390.165	5.09
390.526	5.12
390.887	5.12
391.248	5.1
391.609	5.13
391.969	5.09
392.33	5.15
392.691	5.18
393.051	5.18
393.412	5.15
393.772	5.11
394.133	5.17
394.493	5.15
394.854	5.16
395.214	5.15
395.574	5.16
395.935	5.16
396.295	5.17
396.655	5.13
397.015	5.1
397.376	5.12
397.736	5.05
398.096	5.02
398.456	5.03
398.816	5.04
399.176	5.01
399.535	5.02
399.895	4.99
400.255	5.01
400.615	4.98
400.975	4.98
401.334	4.97
401.694	4.96
402.054	4.97
402.413	4.96
402.773	4.98
403.132	4.93
403.492	4.93
403.851	4.93
404.211	4.95
404.57	4.98
404.929	4.92
405.288	4.91
405.648	4.93
406.007	4.95
406.366	4.97
406.725	4.98
407.084	4.97
407.443	5
407.802	5
408.161	5.02
408.52	5.01
408.879	5
409.238	4.97
409.596	4.96
409.955	4.94
410.314	4.93
410.673	4.96
411.031	4.89
411.39	4.89
411.748	4.88
412.107	4.86
412.465	4.85
412.824	4.86
413.182	4.83
413.54	4.82
413.899	4.78
414.257	4.8
414.615	4.79
414.974	4.8
415.332	4.79
415.69	4.78
416.048	4.78
416.406	4.78
416.764	4.79
417.122	4.78
417.48	4.8
417.838	4.77
418.195	4.77
418.553	4.8
418.911	4.78
419.269	4.8
419.626	4.78
419.984	4.78
420.342	4.79
420.699	4.76
421.057	4.75
421.414	4.75
421.772	4.75
422.129	4.76
422.486	4.73
422.844	4.71
423.201	4.71
423.558	4.7
423.915	4.7
424.273	4.69
424.63	4.68
424.987	4.68
425.344	4.68
425.701	4.67
426.058	4.68
426.415	4.67
426.772	4.65
427.128	4.65
427.485	4.65
427.842	4.65
428.199	4.66
428.555	4.68
428.912	4.69
429.269	4.68
429.625	4.67
429.982	4.69
430.338	4.69
430.695	4.7
431.051	4.72
431.407	4.69
431.764	4.72
432.12	4.73
432.476	4.72
432.832	4.72
433.189	4.71
433.545	4.7
433.901	4.7
434.257	4.69
434.613	4.69
434.969	4.71
435.325	4.71
435.681	4.71
436.036	4.7
436.392	4.7
436.748	4.68
437.104	4.69
437.459	4.71
437.815	4.72
438.171	4.69
438.526	4.67
438.882	4.67
439.237	4.64
439.593	4.65
439.948	4.65
440.304	4.63
440.659	4.64
441.014	4.63
441.369	4.63
441.725	4.64
442.08	4.64
442.435	4.63
442.79	4.62
443.145	4.62
443.5	4.62
443.855	4.61
444.21	4.62
444.565	4.6
444.92	4.59
445.275	4.59
445.629	4.58
445.984	4.6
446.339	4.61
446.693	4.62
447.048	4.61
447.403	4.6
447.757	4.63
448.112	4.62
448.466	4.62
448.82	4.61
449.175	4.63
449.529	4.63
449.883	4.63
450.238	4.63
450.592	4.61
450.946	4.6
451.3	4.59
451.654	4.58
452.008	4.59
452.362	4.59
452.716	4.58
453.07	4.58
453.424	4.58
453.778	4.56
454.132	4.54
454.486	4.54
454.839	4.53
455.193	4.52
455.547	4.51
455.9	4.52
456.254	4.54
456.607	4.51
456.961	4.52
457.314	4.49
457.668	4.51
458.021	4.54
458.375	4.56
458.728	4.55
459.081	4.57
459.434	4.57
459.787	4.58
460.141	4.59
460.494	4.6
460.847	4.61
461.2	4.62
461.553	4.65
461.906	4.67
462.259	4.66
462.611	4.67
462.964	4.69
463.317	4.71
463.67	4.72
464.022	4.75
464.375	4.73
464.728	4.77
465.08	4.78
465.433	4.77
465.785	4.77
466.138	4.79
466.49	4.78
466.843	4.8
467.195	4.79
467.547	4.77
467.899	4.78
468.252	4.79
468.604	4.8
468.956	4.8
469.308	4.8
469.66	4.83
470.012	4.85
470.364	4.83
470.716	4.82
471.068	4.82
471.42	4.83
471.772	4.83
472.123	4.84
472.475	4.83
472.827	4.83
473.178	4.85
473.53	4.84
473.882	4.83
474.233	4.83
474.585	4.83
474.936	4.83
475.288	4.85
475.639	4.82
475.99	4.81
476.342	4.79
476.693	4.78
477.044	4.79
477.395	4.77
477.746	4.76
478.097	4.75
478.448	4.76
478.8	4.75
479.15	4.76
479.501	4.73
479.852	4.73
480.203	4.74
480.554	4.73
480.905	4.73
481.255	4.74
481.606	4.73
481.957	4.75
482.307	4.76
482.658	4.75
483.009	4.76
483.359	4.77
483.709	4.77
484.06	4.77
484.41	4.77
484.761	4.78
485.111	4.78
485.461	4.78
485.811	4.78
486.162	4.79
486.512	4.79
486.862	4.79
487.212	4.8
487.562	4.79
487.912	4.79
488.262	4.79
488.612	4.8
488.961	4.82
489.311	4.81
489.661	4.81
490.011	4.82
490.36	4.82
490.71	4.82
491.06	4.83
491.409	4.83
491.759	4.83
492.108	4.82
492.458	4.83
492.807	4.84
493.157	4.84
493.506	4.83
493.855	4.84
494.204	4.85
494.554	4.85
494.903	4.88
495.252	4.88
495.601	4.89
495.95	4.89
496.299	4.89
496.648	4.9
496.997	4.91
497.346	4.91
497.695	4.91
498.043	4.95
498.392	4.97
498.741	4.98
499.09	4.99
499.438	5.01
499.787	5.01
500.135	5.01
500.484	5.02
500.832	5.05
501.181	5.05
501.529	5.06
501.878	5.09
502.226	5.09
502.574	5.1
502.923	5.12
503.271	5.12
503.619	5.11
503.967	5.09
504.315	5.09
504.663	5.11
505.011	5.14
505.359	5.09
505.707	5.09
506.055	5.11
506.403	5.11
506.751	5.1
507.098	5.11
507.446	5.12
507.794	5.12
508.141	5.12
508.489	5.14
508.837	5.12
509.184	5.12
509.531	5.14
509.879	5.12
510.226	5.1
510.574	5.11
510.921	5.13
511.268	5.16
511.616	5.17
511.963	5.18
512.31	5.15
512.657	5.19
513.004	5.17
513.351	5.17
513.698	5.2
514.045	5.2
514.392	5.19
514.739	5.21
515.086	5.22
515.432	5.25
515.779	5.23
516.126	5.27
516.473	5.27
516.819	5.27
517.166	5.3
517.512	5.3
517.859	5.31
518.205	5.32
518.552	5.3
518.898	5.3
519.245	5.31
519.591	5.33
519.937	5.32
520.283	5.34
520.629	5.33
520.976	5.34
521.322	5.35
521.668	5.36
522.014	5.35
522.36	5.35
522.706	5.34
523.052	5.37
523.398	5.37
523.743	5.38
524.089	5.38
524.435	5.4
524.781	5.42
525.126	5.42
525.472	5.43
525.817	5.45
526.163	5.47
526.509	5.47
526.854	5.47
527.199	5.48
527.545	5.48
527.89	5.5
528.235	5.5
528.581	5.49
528.926	5.49
529.271	5.5
529.616	5.5
529.961	5.51
530.306	5.49
530.651	5.49
530.996	5.5
531.341	5.51
531.686	5.51
532.031	5.5
532.376	5.52
532.721	5.51
533.065	5.52
533.41	5.5
533.755	5.5
534.099	5.51
534.444	5.5
534.788	5.5
535.133	5.5
535.477	5.5
535.822	5.51
536.166	5.51
536.51	5.48
536.855	5.48
537.199	5.47
537.543	5.5
537.887	5.52
538.231	5.51
538.576	5.5
538.92	5.5
539.264	5.49
539.608	5.49
539.951	5.5
540.295	5.49
540.639	5.49
540.983	5.5
541.327	5.5
541.671	5.51
542.014	5.53
542.358	5.55
542.701	5.56
543.045	5.58
543.389	5.59
543.732	5.6
544.075	5.62
544.419	5.65
544.762	5.62
545.105	5.62
545.449	5.64
545.792	5.65
546.135	5.66
546.478	5.68
546.821	5.69
547.165	5.68
547.508	5.69
547.851	5.7
548.194	5.69
548.536	5.69
548.879	5.71
549.222	5.7
549.565	5.67
549.908	5.66
550.25	5.63
550.593	5.67
550.936	5.69
551.278	5.68
551.621	5.66
551.963	5.69
552.306	5.68
552.648	5.7
552.991	5.7
553.333	5.7
553.675	5.73
554.017	5.71
554.36	5.71
554.702	5.69
555.044	5.69
555.386	5.68
555.728	5.69
556.07	5.67
556.412	5.67
556.754	5.66
557.096	5.65
557.438	5.66
557.78	5.64
558.121	5.66
558.463	5.67
558.805	5.69
559.147	5.68
559.488	5.67
559.83	5.64
560.171	5.62
560.513	5.58
560.854	5.57
561.196	5.6
561.537	5.65
561.878	5.7
562.22	5.7
562.561	5.76
562.902	5.72
563.243	5.72
563.584	5.75
563.925	5.78
564.266	5.79
564.607	5.8
564.948	5.8
565.289	5.81
565.63	5.8
565.971	5.78
566.312	5.74
566.653	5.74
566.993	5.76
567.334	5.79
567.675	5.82
568.015	5.82
568.356	5.79
568.696	5.76
569.037	5.73
569.377	5.74
569.718	5.7
570.058	5.71
570.398	5.7
570.739	5.66
571.079	5.65
571.419	5.66
571.759	5.63
572.099	5.62
572.439	5.6
572.779	5.59
573.119	5.59
573.459	5.64
573.799	5.62
574.139	5.62
574.479	5.61
574.819	5.61
575.158	5.64
575.498	5.67
575.838	5.68
576.177	5.69
576.517	5.71
576.856	5.77
577.196	5.78
577.535	5.81
577.875	5.81
578.214	5.81
578.553	5.82
578.893	5.86
579.232	5.86
579.571	5.92
579.91	5.87
580.25	5.89
580.589	5.91
580.928	5.94
581.267	5.92
581.606	5.95
581.945	5.96
582.283	5.96
582.622	5.91
582.961	5.9
583.3	5.89
583.639	5.87
583.977	5.83
584.316	5.86
584.654	5.83
584.993	5.85
585.332	5.89
585.67	5.87
586.008	5.84
586.347	5.85
586.685	5.8
587.024	5.83
587.362	5.83
587.7	5.77
588.038	5.78
588.376	5.78
588.715	5.78
589.053	5.77
589.391	5.74
589.729	5.77
590.067	5.77
590.404	5.78
590.742	5.79
591.08	5.75
591.418	5.75
591.756	5.78
592.093	5.79
592.431	5.77
592.769	5.78
593.106	5.82
593.444	5.83
593.781	5.84
594.119	5.86
594.456	5.86
594.793	5.89
595.131	5.94
595.468	5.96
595.805	5.95
596.143	5.97
596.48	6
596.817	5.99
597.154	6.01
597.491	5.99
597.828	5.98
598.165	5.99
598.502	5.97
598.839	5.97
599.176	5.99
599.512	5.95
599.849	5.89
600.186	5.85
600.523	5.88
600.859	5.89
601.196	5.92
601.532	5.94
601.869	5.94
602.205	5.89
602.542	5.87
602.878	5.87
603.215	5.82
603.551	5.79
603.887	5.83
604.223	5.79
604.56	5.83
604.896	5.84
605.232	5.86
605.568	5.89
605.904	5.88
606.24	5.83
606.576	5.89
606.912	5.94
607.248	5.96
607.583	5.93
607.919	5.92
608.255	5.9
608.591	5.86
608.926	5.84
609.262	5.86
609.597	5.87
609.933	5.84
610.268	5.92
610.604	5.92
610.939	5.9
611.275	5.93
611.61	5.9
611.945	5.88
612.281	5.88
612.616	5.89
612.951	5.89
613.286	5.93
613.621	5.93
613.956	5.89
614.291	5.89
614.626	5.89
614.961	5.9
615.296	5.89
615.631	5.93
615.966	5.94
616.3	5.96
616.635	5.97
616.97	6.02
617.304	5.93
617.639	6
617.973	5.95
618.308	5.94
618.642	5.96
618.977	6.01
619.311	6.01
619.646	5.96
619.98	6.02
620.314	6.04
620.648	5.99
620.983	6
621.317	6.01
621.651	6.03
621.985	6.06
622.319	6.08
622.653	6.06
622.987	6.09
623.321	6.1
623.655	6.15
623.988	6.15
624.322	6.23
624.656	6.22
624.99	6.26
625.323	6.25
625.657	6.3
625.99	6.24
626.324	6.2
626.657	6.21
626.991	6.23
627.324	6.18
627.658	6.21
627.991	6.3
628.324	6.27
628.657	6.27
628.991	6.28
629.324	6.25
629.657	6.28
629.99	6.3
630.323	6.25
630.656	6.25
630.989	6.2
631.322	6.14
631.655	6.13
631.987	6.06
632.32	6.1
632.653	6.05
632.986	6.14
633.318	6.2
633.651	6.18
633.984	6.15
634.316	6.22
634.649	6.25
634.981	6.16
635.313	6.22
635.646	6.26
635.978	6.27
636.31	6.24
636.643	6.22
636.975	6.25
637.307	6.34
637.639	6.29
637.971	6.3
638.303	6.34
638.635	6.41
638.967	6.46
639.299	6.45
639.631	6.46
639.963	6.36
640.295	6.34
640.626	6.35
640.958	6.28
641.29	6.24
641.621	6.2
641.953	6.23
642.285	6.19
642.616	6.17
642.948	6.19
643.279	6.23
643.61	6.27
643.942	6.26
644.273	6.16
644.604	6.15
644.936	6.19
645.267	6.16
645.598	6.13
645.929	6.13
646.26	6.13
646.591	6.18
646.922	6.33
647.253	6.28
647.584	6.3
647.915	6.34
648.245	6.4
648.576	6.42
648.907	6.38
649.238	6.37
649.568	6.38
649.899	6.37
650.229	6.36
650.56	6.3
650.89	6.3
651.221	6.35
651.551	6.46
651.882	6.49
652.212	6.54
652.542	6.58
652.872	6.67
653.203	6.69
653.533	6.7
653.863	6.62
654.193	6.64
654.523	6.6
654.853	6.62
655.183	6.6
655.513	6.6
655.843	6.7
656.172	6.74
656.502	6.7
656.832	6.7
657.162	6.7
657.491	6.76
657.821	6.73
658.15	6.7
658.48	6.68
658.809	6.67
659.139	6.67
659.468	6.58
659.798	6.55
660.127	6.56
660.456	6.57
660.785	6.62
661.115	6.66
661.444	6.72
661.773	6.7
662.102	6.68
662.431	6.62
662.76	6.63
663.089	6.66
663.418	6.72
663.747	6.73
664.076	6.72
664.404	6.7
664.733	6.68
665.062	6.73
665.39	6.61
665.719	6.54
666.048	6.56
666.376	6.56
666.705	6.54
667.033	6.52
667.362	6.4
667.69	6.41
668.018	6.47
668.347	6.46
668.675	6.54
669.003	6.56
669.331	6.65
669.659	6.62
669.987	6.63
670.315	6.61
670.643	6.57
670.971	6.64
671.299	6.65
671.627	6.68
671.955	6.74
672.283	6.76
672.61	6.88
672.938	6.82
673.266	6.88
673.593	6.98
673.921	6.92
674.249	6.94
674.576	6.97
674.904	6.9
675.231	6.92
675.558	6.89
675.886	6.93
676.213	6.93
676.54	6.96
676.867	6.93
677.195	6.98
677.522	6.99
677.849	6.92
678.176	6.96
678.503	6.97
678.83	6.83
679.157	6.81
679.484	6.79
679.81	6.81
680.137	6.84
680.464	6.79
680.791	6.82
681.117	6.88
681.444	6.77
681.771	6.79
682.097	6.83
682.424	6.8
682.75	6.75
683.077	6.7
683.403	6.65
683.729	6.59
684.056	6.52
684.382	6.51
684.708	6.55
685.034	6.53
685.36	6.52
685.686	6.67
686.012	6.76
686.339	6.73
686.664	6.77
686.99	6.63
687.316	6.59
687.642	6.67
687.968	6.64
688.294	6.65
688.619	6.73
688.945	6.7
689.271	6.7
689.596	6.76
689.922	6.87
690.247	6.94
690.573	6.94
690.898	7.05
691.224	7.1
691.549	7.17
691.874	7.18
692.2	7.16
692.525	7.02
692.85	7.09
693.175	7.22
693.5	7.08
693.825	7.26
694.15	7.28
694.475	7.16
694.8	7.23
695.125	7.23
695.45	7.15
695.775	7.15
696.099	7.19
696.424	7.12
696.749	7.13
697.073	7.07
697.398	7.09
697.723	6.97
698.047	7.05
698.372	7.06
698.696	7.05
699.02	7.06
699.345	7.14
699.669	7.11
699.993	7.06
700.318	7.25
700.642	7.15
700.966	7.2
701.29	7.36
701.614	7.4
701.938	7.44
702.262	7.52
702.586	7.53
702.91	7.54
703.234	7.69
703.557	7.68
703.881	7.83
704.205	7.93
704.529	8.01
704.852	7.93
705.176	7.82
705.499	7.84
705.823	7.82
706.146	7.74
706.47	7.69
706.793	7.77
707.117	7.67
707.44	7.76
707.763	7.71
708.086	7.61
708.409	7.62
708.733	7.5
709.056	7.51
709.379	7.61
709.702	7.66
710.025	7.6
710.348	7.5
710.671	7.4
710.993	7.34
711.316	7.44
711.639	7.48
711.962	7.64
712.284	7.69
712.607	7.78
712.93	7.85
713.252	7.88
713.575	7.9
713.897	7.83
714.22	7.86
714.542	7.89
714.864	7.76
715.187	7.68
715.509	7.9
715.831	7.98
716.153	7.91
716.475	7.87
716.798	7.82
717.12	8.03
717.442	8.02
717.764	8.16
718.085	8.19
718.407	8.21
718.729	8.09
719.051	7.95
719.373	7.89
719.695	7.83
720.016	7.76
720.338	7.67
720.659	7.87
720.981	7.78
721.302	7.94
721.624	8.17
721.945	8.18
722.267	8.14
722.588	7.92
722.909	7.83
723.231	7.77
723.552	7.82
723.873	7.65
724.194	7.83
724.515	7.71
724.836	7.65
725.157	7.69
725.478	7.96
725.799	8.09
726.12	8.14
726.441	8.31
726.762	8.5
727.083	8.59
727.403	8.53
727.724	8.58
728.045	8.3
728.365	8.3
728.686	8.21
729.006	8.11
729.327	7.96
729.647	8.02
729.967	8.11
730.288	8.09
730.608	8.2
730.928	7.96
731.249	8.03
731.569	8.02
731.889	7.9
732.209	7.71
732.529	7.65
732.849	7.77
733.169	7.62
733.489	7.38
733.809	7.31
734.129	7.31
734.448	7.47
734.768	7.51
735.088	7.41
735.408	7.45
735.727	7.37
736.047	7.75
736.366	7.72
736.686	7.64
737.005	7.72
737.325	7.67
737.644	7.7
737.963	7.73
738.283	7.65
738.602	7.78
738.921	7.7
739.24	7.8
739.56	7.78
739.879	7.9
740.198	8.11
740.517	7.99
740.836	7.86
741.155	7.69
741.473	7.82
741.792	8
742.111	8.21
742.43	8.32
742.748	8.22
743.067	8.19
743.386	8.46
743.704	8.36
744.023	8.52
744.341	8.52
744.66	8.23
744.978	8.27
745.297	8.31
745.615	8.46
745.933	8.6
746.252	8.57
746.57	8.49
746.888	8.46
747.206	8.63
747.524	8.95
747.842	9.24
748.16	9.33
748.478	9.23
748.796	9.1
749.114	9.32
749.432	9.12
749.749	9.06
750.067	8.84
750.385	8.98
750.703	8.95
751.02	9.17
751.338	9.44
751.655	9.74
751.973	9.84
752.29	9.8
752.608	9.34
752.925	9.44
753.242	9.59
753.56	9.64
753.877	9.7
754.194	9.43
754.511	9.11
754.828	9.14
755.145	9.35
755.462	9.34
755.779	9.38
756.096	9.54
756.413	9.94
756.73	10.1
757.047	9.94
757.364	9.77
757.68	9.71
757.997	9.84
758.314	9.88
758.63	9.88
758.947	9.78
759.264	10.03
759.58	10.04
759.896	9.9
760.213	9.9
760.529	9.97
760.846	10.13
761.162	9.91
761.478	9.79
761.794	9.71
762.11	9.71
762.426	9.54
762.743	9.65
763.059	9.54
763.375	9.46
763.69	9.71
764.006	9.78
764.322	10.12
764.638	10.16
764.954	10.03
765.27	10.08
765.585	10.17
765.901	10.15
766.216	10.27
766.532	10.41
766.848	10.4
767.163	10.18
767.478	10.22
767.794	10.36
768.109	10.62
768.424	10.49
768.74	10.67
769.055	10.91
769.37	10.71
769.685	10.57
770	10.63
770.315	10.5
770.63	10.65
770.945	10.3
771.26	10.07
771.575	9.77
771.89	9.62
772.205	9.53
772.52	9.74
772.834	9.38
773.149	9.54
773.464	9.9
773.778	10.06
774.093	9.6
774.407	9.85
774.722	9.74
775.036	9.89
775.351	10
775.665	9.84
775.979	10.33
776.293	10.63
776.608	10.87
776.922	10.69
777.236	10.77
777.55	10.6
777.864	10.64
778.178	10.72
778.492	10.41
778.806	10.42
779.12	10.55
779.434	10.41
779.747	10.72
780.061	10.3
780.375	10.33
780.689	10.88
781.002	10.72
781.316	10.42
781.629	10.47
781.943	10.41
782.256	10.65
782.57	10.37
782.883	10.3
783.196	10.17
783.51	10.5
783.823	10.44
784.136	10.16
784.449	9.98
784.762	10.37
785.075	10.84
785.388	11.6
785.701	11.14
786.014	11.2
786.327	10.36
786.64	10.44
786.953	10.78
787.266	10.94
787.578	11.04
787.891	11.13
788.204	11.41
788.516	11.57
788.829	11.17
789.141	11.37
789.454	11.36
789.766	11.16
790.079	10.68
790.391	10.21
790.703	10.75
791.016	11.09
791.328	11.06
791.64	10.78
791.952	10.32
792.264	10.38
792.576	11.07
792.888	11.54
793.2	11.74
793.512	11.6
793.824	11.62
794.136	11.96
794.448	12.32
794.76	12.42
795.071	11.81
795.383	11.62
795.695	11.74
796.006	11.67
796.318	11.94
796.629	12.33
796.941	12.72
797.252	12.86
797.564	12.81
797.875	12.46
798.186	12.85
798.497	12.83
798.809	13.32
799.12	12.4
799.431	11.99
799.742	12
800.053	12.3
800.364	12.08
800.675	12.08
800.986	12.22
801.297	11.79
801.608	12.15
801.918	12.51
802.229	12.29
802.54	12.45
802.851	11.99
803.161	12.02
803.472	12.12
803.782	11.54
804.093	11.82
804.403	12.6
804.714	12.84
805.024	12.51
805.334	12.4
805.645	13.26
805.955	13.64
806.265	13.84
806.575	13.47
806.885	13.66
807.195	13.57
807.505	13.47
807.815	13.67
808.125	13.51
808.435	13.48
808.745	13.7
809.055	14.28
809.365	14.81
809.674	15.23
809.984	15.15
810.294	16.2
810.603	15.39
810.913	15.03
811.222	15.04
811.532	16
811.841	16.08
812.151	15.56
812.46	15.55
812.769	14.93
813.079	14.8
813.388	14.56
813.697	14.14
814.006	13.9
814.315	13.81
814.624	14.4
814.933	15.06
815.242	14.88
815.551	14.12
815.86	13.99
816.169	13.22
816.478	13.59
816.786	12.59
817.095	13.13
817.404	12.9
817.712	12.82
818.021	12.31
818.33	11.72
818.638	11.96
818.947	11.99
819.255	12.07
819.563	11.97
819.872	11.89
820.18	11.84
820.488	12.03
820.796	12.33
821.105	12.08
821.413	11.93
821.721	11.83
822.029	11.74
822.337	11.75
822.645	11.9
822.953	11.87
823.26	11.95
823.568	11.94
823.876	12.09
824.184	11.91
824.491	11.73
824.799	11.71
825.107	11.82
825.414	11.78
825.722	11.67
826.029	11.73
826.337	11.78
826.644	11.91
826.951	11.59
827.259	11.41
827.566	11.47
827.873	11.26
828.18	11.22
828.488	11.32
828.795	11.41
829.102	11.1
829.409	10.84
829.716	10.63
830.023	10.81
830.329	10.62
830.636	10.79
830.943	10.79
831.25	10.77
831.557	10.49
831.863	10.57
832.17	11.08
832.476	11.12
832.783	10.77
833.089	10.38
833.396	10.97
833.702	10.78
834.009	10.98
834.315	11.15
834.621	11.61
834.928	11.6
835.234	11.62
835.54	12.27
835.846	12.62
836.152	12.84
836.458	12.24
836.764	12.37
837.07	12.42
837.376	12.93
837.682	13.06
837.988	12.7
838.293	12.76
838.599	12.65
838.905	12.55
839.211	12.65
839.516	13.34
839.822	13.51
840.127	13.93
840.433	14.31
840.738	14.59
841.044	13.83
841.349	13.33
841.654	12.8
841.959	12.56
842.265	12.93
842.57	13.27
842.875	14.67
843.18	14.91
843.485	14.45
843.79	14.84
844.095	15.17
844.4	16.1
844.705	18.03
845.01	17.87
845.315	18.66
845.619	19.25
845.924	18.39
846.229	17.53
846.533	17.63
846.838	16.08
847.142	16.12
847.447	18.46
847.751	21.3
848.056	21.39
848.36	23.71
848.664	22.2
848.969	23.26
849.273	21.64
849.577	20.8
849.881	20.96
850.185	19.79
850.489	20.57
850.794	19.32
851.097	17.68
851.401	16.81
851.705	16.28
852.009	16.64
852.313	16.67
852.617	17.34
852.92	18.04
853.224	19.93
853.528	21.61
853.831	20.28
854.135	18.95
854.438	21.79
854.742	19.52
855.045	20.54
855.349	19.37
855.652	21.21
855.955	22.77
856.259	24.09
856.562	25.27
856.865	24.26
857.168	24.78
857.471	25.21
857.774	27.25
858.077	26.31
858.38	28.15
858.683	28.62
858.986	28.76
859.289	28.14
859.592	28.59
859.894	27.26
860.197	25.49
860.5	26.4
860.802	21.94
861.105	20.62
861.407	20.32
861.71	18.96
862.012	15.59
862.315	14.27
862.617	13.07
862.919	14.7
863.222	17.68
863.524	19.54
863.826	17.5
864.128	18
864.43	19.86
864.732	17.61
865.034	17.22
865.336	16.77
865.638	17.73
865.94	16.58
866.242	17.6
866.544	20.41
866.846	18.9
867.147	21.21
867.449	19.81
867.751	20.14
868.052	21.37
868.354	22.35
868.655	23.62
868.957	24.3
869.258	22.02
869.56	21.99
869.861	21.59
870.162	23.17
870.463	22.06
870.765	21.85
871.066	23.46
871.367	24.87
871.668	25.57
871.969	24.17
872.27	22.99
872.571	22.74
872.872	19.85
873.173	21.08
873.473	19.98
873.774	22.63
874.075	19.71
874.376	19.1
874.676	21.14
874.977	20.06
875.277	19.68
875.578	20.28
875.878	18.57
876.179	17.96
876.479	16.96
876.78	16.28
877.08	15.1
877.38	13.76
877.68	13.32
877.981	12.94
878.281	13.15
878.581	14.55
