Data from BA44024_Reflection_00007.txt Node
Date: Tue Nov 19 11:48:46 EST 2019
User: vgr7
Spectrometer: USB2G7710
Scans to average: 3
Trigger mode: 4
Integration Time (sec): 2.000000E-2
Electric dark correction enabled: true
Boxcar width: 10
XAxis mode: Wavelengths
Number of Pixels in Spectrum: 2048
>>>>>Begin Spectral Data<<<<<
177.721	-76.95
178.105	-174.65
178.488	-197.31
178.871	-230.38
179.254	-116.92
179.636	-49.82
180.019	-103.44
180.402	-40.91
180.785	13.7
181.168	29.27
181.55	26.37
181.933	38.81
182.316	28.33
182.698	42.37
183.081	81.15
183.463	126.84
183.846	168.33
184.228	328.62
184.611	-712.1
184.993	-205.04
185.376	-262.07
185.758	-211.82
186.14	-263.16
186.522	-235.18
186.904	-189.22
187.287	-151.32
187.669	-78.86
188.051	-84.84
188.433	-85.81
188.815	-94.3
189.197	-71
189.579	-54.16
189.961	-61.96
190.342	-46.43
190.724	-64.54
191.106	-47.58
191.488	-32.45
191.869	-24.37
192.251	-18.71
192.633	-11.44
193.014	-12.52
193.396	-16.21
193.777	-16.45
194.159	-13.08
194.54	4.77
194.922	-4.86
195.303	1.76
195.684	6.62
196.065	9.36
196.447	18.36
196.828	31.15
197.209	17.53
197.59	20.32
197.971	11.69
198.352	3.6
198.733	11.76
199.114	-0.33
199.495	-2.54
199.876	-5.91
200.257	2.46
200.638	-0.35
201.018	-12.21
201.399	-15.79
201.78	-17.36
202.16	-25.89
202.541	-45.04
202.922	-42.5
203.302	-61.05
203.683	-73.99
204.063	-78.28
204.444	-84.91
204.824	-87.24
205.204	-67.67
205.585	-72.54
205.965	-68.99
206.345	-72.74
206.725	-67.69
207.106	-63.65
207.486	-74.67
207.866	-92.51
208.246	-90.14
208.626	-109.98
209.006	-127.06
209.386	-125.36
209.766	-133.09
210.145	-99.24
210.525	-77.4
210.905	-72.92
211.285	-61.37
211.664	-46.83
212.044	-54.21
212.424	-42.71
212.803	-51.59
213.183	-48.97
213.562	-46.76
213.942	-53.52
214.321	-53.3
214.701	-43.41
215.08	-33.72
215.459	-28.6
215.838	-14.59
216.218	-31.32
216.597	-10.69
216.976	-13.18
217.355	-17.89
217.734	-22.76
218.113	-14.55
218.492	-16.92
218.871	-4.17
219.25	2.7
219.629	-2.71
220.008	5.21
220.387	-2.23
220.766	5.33
221.144	-2.36
221.523	-0.06
221.902	5.84
222.28	6.23
222.659	7.07
223.037	-0.6
223.416	4.47
223.794	4.37
224.173	8.56
224.551	3.45
224.929	3.21
225.308	-0.53
225.686	-0.15
226.064	-11.51
226.442	-6.74
226.821	-8.02
227.199	-7.38
227.577	-7.42
227.955	-5.49
228.333	-4.89
228.711	-6.88
229.089	-6
229.467	-7.33
229.845	-8.26
230.222	-4.7
230.6	-7.13
230.978	-6
231.356	-6.76
231.733	-7.21
232.111	-6.88
232.488	-4.9
232.866	-1.04
233.243	-0.07
233.621	1.59
233.998	0.96
234.376	0.2
234.753	-1.84
235.13	0.48
235.508	0.88
235.885	1.32
236.262	1.74
236.639	1.65
237.016	0.64
237.393	3.22
237.77	4.24
238.147	4.63
238.524	5.39
238.901	5.31
239.278	4.05
239.655	3.95
240.032	2.74
240.409	2.77
240.785	2.43
241.162	2.85
241.539	2.42
241.915	2.96
242.292	2.88
242.668	3.42
243.045	3.34
243.421	3.47
243.798	3.29
244.174	3.12
244.551	3.36
244.927	3.99
245.303	3.69
245.679	3.61
246.056	3.28
246.432	3.18
246.808	3.23
247.184	3.44
247.56	3.49
247.936	3.83
248.312	3.99
248.688	3.76
249.064	3.68
249.44	3.56
249.815	3.91
250.191	4.01
250.567	4.19
250.943	4.06
251.318	4.09
251.694	3.78
252.069	3.8
252.445	3.65
252.82	3.62
253.196	3.53
253.571	3.5
253.947	3.55
254.322	3.29
254.697	3.25
255.073	3.08
255.448	2.89
255.823	2.88
256.198	2.7
256.573	2.58
256.948	2.87
257.323	3.11
257.698	2.81
258.073	2.89
258.448	2.64
258.823	2.72
259.198	2.85
259.573	2.78
259.948	2.91
260.322	3.02
260.697	3
261.072	2.93
261.446	2.99
261.821	2.97
262.195	2.91
262.57	2.95
262.944	3.24
263.319	3.38
263.693	3.3
264.067	3.23
264.442	3.43
264.816	3.2
265.19	3.26
265.564	3.3
265.938	3.27
266.313	3.23
266.687	3.24
267.061	3
267.435	3.29
267.809	3.08
268.183	3
268.556	2.86
268.93	2.97
269.304	2.64
269.678	2.62
270.051	2.73
270.425	2.89
270.799	2.5
271.172	2.54
271.546	2.77
271.919	2.88
272.293	2.94
272.666	2.83
273.04	2.7
273.413	2.69
273.787	2.64
274.16	2.72
274.533	2.68
274.906	2.95
275.279	2.77
275.653	3.08
276.026	3
276.399	2.93
276.772	3.22
277.145	3.38
277.518	3.34
277.891	3.36
278.263	3.22
278.636	3.49
279.009	3.47
279.382	3.35
279.755	3.2
280.127	3.2
280.5	3.3
280.872	3.3
281.245	3.34
281.617	3.3
281.99	3.37
282.362	3.31
282.735	3.06
283.107	3.28
283.479	3.03
283.852	3
284.224	3.17
284.596	2.97
284.968	3.1
285.34	3.1
285.713	3.17
286.085	3.15
286.457	3.11
286.829	2.97
287.201	2.99
287.572	3.13
287.944	3.18
288.316	3.17
288.688	3.38
289.06	3.39
289.431	3.5
289.803	3.56
290.175	3.58
290.546	3.65
290.918	3.54
291.289	3.47
291.661	3.68
292.032	3.66
292.403	3.6
292.775	3.52
293.146	3.58
293.517	3.47
293.889	3.67
294.26	3.64
294.631	3.76
295.002	3.72
295.373	3.63
295.744	3.45
296.115	3.59
296.486	3.46
296.857	3.39
297.228	3.31
297.599	3.15
297.97	3.25
298.34	3.28
298.711	3.27
299.082	3.3
299.452	3.13
299.823	3.08
300.194	3.06
300.564	2.9
300.935	3.03
301.305	3.08
301.676	2.79
302.046	2.83
302.416	2.78
302.787	2.71
303.157	2.76
303.527	2.99
303.897	2.82
304.267	2.81
304.637	2.86
305.008	2.87
305.378	2.93
305.748	2.82
306.117	2.86
306.487	2.91
306.857	3.28
307.227	3.5
307.597	3.45
307.967	3.44
308.336	3.58
308.706	3.47
309.076	3.69
309.445	3.94
309.815	3.97
310.184	4.02
310.554	4.04
310.923	4.06
311.293	4.07
311.662	4.09
312.031	4.14
312.401	4.05
312.77	3.97
313.139	3.94
313.508	4.04
313.877	3.88
314.246	3.81
314.616	3.6
314.985	3.46
315.353	3.6
315.722	3.83
316.091	3.71
316.46	3.64
316.829	3.41
317.198	3.37
317.567	3.33
317.935	3.36
318.304	3.6
318.672	3.62
319.041	3.54
319.41	3.59
319.778	3.66
320.147	3.63
320.515	3.81
320.883	3.92
321.252	3.94
321.62	4.12
321.988	4.25
322.357	4.19
322.725	4.36
323.093	4.43
323.461	4.28
323.829	4.31
324.197	4.3
324.565	4.35
324.933	4.34
325.301	4.34
325.669	4.37
326.037	4.33
326.405	4.4
326.772	4.52
327.14	4.46
327.508	4.41
327.875	4.52
328.243	4.57
328.61	4.72
328.978	4.61
329.346	4.63
329.713	4.62
330.08	4.73
330.448	4.69
330.815	4.58
331.182	4.59
331.55	4.7
331.917	4.81
332.284	4.8
332.651	4.7
333.018	4.71
333.385	4.73
333.752	4.63
334.119	4.66
334.486	4.41
334.853	4.53
335.22	4.47
335.587	4.54
335.954	4.46
336.32	4.36
336.687	4.39
337.054	4.38
337.42	4.34
337.787	4.27
338.153	4.23
338.52	4.35
338.886	4.43
339.253	4.48
339.619	4.42
339.986	4.31
340.352	4.48
340.718	4.59
341.084	4.58
341.451	4.61
341.817	4.63
342.183	4.8
342.549	4.91
342.915	4.97
343.281	4.96
343.647	4.98
344.013	5.02
344.379	5.08
344.745	5.02
345.11	5.08
345.476	5.25
345.842	5.25
346.208	5.21
346.573	5.19
346.939	5.22
347.304	5.39
347.67	5.52
348.035	5.4
348.401	5.37
348.766	5.39
349.132	5.47
349.497	5.38
349.862	5.33
350.228	5.28
350.593	5.3
350.958	5.45
351.323	5.4
351.688	5.45
352.053	5.54
352.418	5.63
352.783	5.59
353.148	5.52
353.513	5.56
353.878	5.56
354.243	5.54
354.608	5.52
354.972	5.44
355.337	5.5
355.702	5.52
356.066	5.45
356.431	5.37
356.795	5.32
357.16	5.29
357.524	5.33
357.889	5.23
358.253	5.19
358.618	5.02
358.982	5.07
359.346	4.96
359.71	4.89
360.075	4.91
360.439	4.92
360.803	4.94
361.167	4.97
361.531	4.9
361.895	4.9
362.259	4.92
362.623	4.95
362.987	4.93
363.351	4.86
363.714	4.83
364.078	4.88
364.442	4.84
364.806	4.86
365.169	4.81
365.533	4.83
365.896	4.84
366.26	4.77
366.623	4.69
366.987	4.74
367.35	4.74
367.714	4.59
368.077	4.58
368.44	4.55
368.803	4.47
369.167	4.45
369.53	4.39
369.893	4.33
370.256	4.24
370.619	4.14
370.982	4.15
371.345	4.18
371.708	4.18
372.071	4.15
372.434	4.12
372.797	4.14
373.159	4.17
373.522	4.13
373.885	4.24
374.247	4.31
374.61	4.26
374.973	4.23
375.335	4.3
375.698	4.24
376.06	4.22
376.423	4.19
376.785	4.18
377.147	4.21
377.51	4.21
377.872	4.22
378.234	4.29
378.596	4.28
378.958	4.29
379.321	4.22
379.683	4.27
380.045	4.32
380.407	4.3
380.769	4.21
381.13	4.24
381.492	4.12
381.854	4.04
382.216	4.04
382.578	4.04
382.939	4.06
383.301	4.04
383.663	3.98
384.024	4.01
384.386	4.01
384.747	3.97
385.109	3.9
385.47	3.91
385.832	3.82
386.193	3.8
386.554	3.76
386.916	3.73
387.277	3.71
387.638	3.62
387.999	3.57
388.36	3.59
388.721	3.6
389.082	3.68
389.443	3.72
389.804	3.72
390.165	3.68
390.526	3.64
390.887	3.66
391.248	3.68
391.609	3.62
391.969	3.62
392.33	3.59
392.691	3.59
393.051	3.57
393.412	3.58
393.772	3.54
394.133	3.53
394.493	3.53
394.854	3.51
395.214	3.52
395.574	3.53
395.935	3.48
396.295	3.45
396.655	3.37
397.015	3.33
397.376	3.35
397.736	3.3
398.096	3.28
398.456	3.23
398.816	3.2
399.176	3.18
399.535	3.14
399.895	3.15
400.255	3.2
400.615	3.17
400.975	3.16
401.334	3.22
401.694	3.2
402.054	3.22
402.413	3.18
402.773	3.16
403.132	3.18
403.492	3.19
403.851	3.18
404.211	3.23
404.57	3.2
404.929	3.16
405.288	3.22
405.648	3.22
406.007	3.25
406.366	3.22
406.725	3.24
407.084	3.25
407.443	3.25
407.802	3.19
408.161	3.19
408.52	3.2
408.879	3.16
409.238	3.16
409.596	3.12
409.955	3.13
410.314	3.14
410.673	3.15
411.031	3.18
411.39	3.16
411.748	3.15
412.107	3.15
412.465	3.12
412.824	3.06
413.182	3.04
413.54	3.02
413.899	3.03
414.257	3.03
414.615	3.02
414.974	3.03
415.332	3.03
415.69	3
416.048	3.03
416.406	3.01
416.764	3.02
417.122	3.05
417.48	3.05
417.838	3.04
418.195	3.01
418.553	2.99
418.911	2.97
419.269	2.93
419.626	2.96
419.984	2.96
420.342	2.97
420.699	3
421.057	2.99
421.414	2.99
421.772	2.97
422.129	2.96
422.486	2.96
422.844	2.96
423.201	2.96
423.558	2.93
423.915	2.95
424.273	2.94
424.63	2.93
424.987	2.92
425.344	2.91
425.701	2.91
426.058	2.91
426.415	2.91
426.772	2.94
427.128	2.92
427.485	2.94
427.842	2.92
428.199	2.88
428.555	2.87
428.912	2.87
429.269	2.88
429.625	2.89
429.982	2.89
430.338	2.91
430.695	2.92
431.051	2.93
431.407	2.9
431.764	2.89
432.12	2.87
432.476	2.88
432.832	2.87
433.189	2.87
433.545	2.87
433.901	2.87
434.257	2.87
434.613	2.86
434.969	2.86
435.325	2.87
435.681	2.87
436.036	2.88
436.392	2.88
436.748	2.89
437.104	2.9
437.459	2.86
437.815	2.86
438.171	2.86
438.526	2.85
438.882	2.85
439.237	2.84
439.593	2.86
439.948	2.85
440.304	2.85
440.659	2.85
441.014	2.86
441.369	2.85
441.725	2.84
442.08	2.84
442.435	2.83
442.79	2.83
443.145	2.83
443.5	2.82
443.855	2.82
444.21	2.81
444.565	2.82
444.92	2.83
445.275	2.83
445.629	2.81
445.984	2.82
446.339	2.83
446.693	2.85
447.048	2.82
447.403	2.81
447.757	2.78
448.112	2.77
448.466	2.75
448.82	2.77
449.175	2.77
449.529	2.77
449.883	2.77
450.238	2.76
450.592	2.75
450.946	2.76
451.3	2.76
451.654	2.74
452.008	2.74
452.362	2.73
452.716	2.73
453.07	2.71
453.424	2.7
453.778	2.67
454.132	2.65
454.486	2.67
454.839	2.68
455.193	2.73
455.547	2.75
455.9	2.76
456.254	2.76
456.607	2.76
456.961	2.76
457.314	2.76
457.668	2.77
458.021	2.77
458.375	2.75
458.728	2.74
459.081	2.74
459.434	2.73
459.787	2.73
460.141	2.74
460.494	2.78
460.847	2.8
461.2	2.81
461.553	2.84
461.906	2.85
462.259	2.84
462.611	2.86
462.964	2.84
463.317	2.83
463.67	2.82
464.022	2.83
464.375	2.83
464.728	2.84
465.08	2.84
465.433	2.87
465.785	2.92
466.138	2.95
466.49	2.97
466.843	2.98
467.195	2.97
467.547	2.95
467.899	2.94
468.252	2.95
468.604	2.97
468.956	2.94
469.308	2.93
469.66	2.94
470.012	2.93
470.364	2.94
470.716	2.93
471.068	2.94
471.42	2.94
471.772	2.95
472.123	2.95
472.475	2.95
472.827	2.93
473.178	2.91
473.53	2.89
473.882	2.88
474.233	2.86
474.585	2.86
474.936	2.86
475.288	2.85
475.639	2.83
475.99	2.81
476.342	2.82
476.693	2.8
477.044	2.8
477.395	2.76
477.746	2.76
478.097	2.76
478.448	2.76
478.8	2.76
479.15	2.75
479.501	2.76
479.852	2.77
480.203	2.78
480.554	2.79
480.905	2.81
481.255	2.82
481.606	2.84
481.957	2.86
482.307	2.85
482.658	2.86
483.009	2.86
483.359	2.88
483.709	2.88
484.06	2.88
484.41	2.89
484.761	2.91
485.111	2.91
485.461	2.92
485.811	2.92
486.162	2.92
486.512	2.93
486.862	2.93
487.212	2.93
487.562	2.93
487.912	2.93
488.262	2.93
488.612	2.92
488.961	2.93
489.311	2.93
489.661	2.93
490.011	2.93
490.36	2.93
490.71	2.92
491.06	2.91
491.409	2.92
491.759	2.93
492.108	2.92
492.458	2.92
492.807	2.92
493.157	2.92
493.506	2.92
493.855	2.91
494.204	2.91
494.554	2.91
494.903	2.93
495.252	2.93
495.601	2.95
495.95	2.96
496.299	2.95
496.648	2.97
496.997	2.98
497.346	2.96
497.695	3
498.043	3.02
498.392	3.04
498.741	3.07
499.09	3.06
499.438	3.1
499.787	3.12
500.135	3.13
500.484	3.15
500.832	3.16
501.181	3.19
501.529	3.23
501.878	3.24
502.226	3.24
502.574	3.26
502.923	3.26
503.271	3.3
503.619	3.35
503.967	3.35
504.315	3.39
504.663	3.42
505.011	3.43
505.359	3.45
505.707	3.46
506.055	3.48
506.403	3.52
506.751	3.54
507.098	3.58
507.446	3.59
507.794	3.61
508.141	3.64
508.489	3.69
508.837	3.7
509.184	3.74
509.531	3.78
509.879	3.82
510.226	3.86
510.574	3.85
510.921	3.86
511.268	3.89
511.616	3.93
511.963	3.97
512.31	4.02
512.657	4.06
513.004	4.1
513.351	4.13
513.698	4.15
514.045	4.17
514.392	4.21
514.739	4.28
515.086	4.35
515.432	4.4
515.779	4.42
516.126	4.5
516.473	4.56
516.819	4.58
517.166	4.62
517.512	4.65
517.859	4.71
518.205	4.75
518.552	4.79
518.898	4.82
519.245	4.88
519.591	4.9
519.937	4.93
520.283	4.97
520.629	5.03
520.976	5.1
521.322	5.17
521.668	5.2
522.014	5.27
522.36	5.32
522.706	5.38
523.052	5.48
523.398	5.53
523.743	5.6
524.089	5.72
524.435	5.8
524.781	5.91
525.126	6
525.472	6.07
525.817	6.14
526.163	6.22
526.509	6.27
526.854	6.33
527.199	6.4
527.545	6.46
527.89	6.52
528.235	6.57
528.581	6.64
528.926	6.72
529.271	6.76
529.616	6.82
529.961	6.89
530.306	6.96
530.651	7.04
530.996	7.13
531.341	7.2
531.686	7.29
532.031	7.36
532.376	7.44
532.721	7.54
533.065	7.63
533.41	7.72
533.755	7.84
534.099	7.97
534.444	8.07
534.788	8.18
535.133	8.29
535.477	8.43
535.822	8.55
536.166	8.68
536.51	8.83
536.855	9
537.199	9.15
537.543	9.32
537.887	9.49
538.231	9.65
538.576	9.85
538.92	10
539.264	10.17
539.608	10.34
539.951	10.47
540.295	10.61
540.639	10.77
540.983	10.91
541.327	11.03
541.671	11.19
542.014	11.35
542.358	11.48
542.701	11.63
543.045	11.75
543.389	11.9
543.732	12.03
544.075	12.17
544.419	12.34
544.762	12.49
545.105	12.63
545.449	12.78
545.792	12.93
546.135	13.11
546.478	13.3
546.821	13.49
547.165	13.71
547.508	13.96
547.851	14.16
548.194	14.34
548.536	14.55
548.879	14.74
549.222	14.96
549.565	15.17
549.908	15.39
550.25	15.64
550.593	15.88
550.936	16.11
551.278	16.36
551.621	16.57
551.963	16.83
552.306	17.09
552.648	17.38
552.991	17.63
553.333	17.87
553.675	18.12
554.017	18.37
554.36	18.62
554.702	18.8
555.044	19.06
555.386	19.34
555.728	19.65
556.07	19.91
556.412	20.12
556.754	20.35
557.096	20.57
557.438	20.83
557.78	21.14
558.121	21.4
558.463	21.67
558.805	21.94
559.147	22.16
559.488	22.33
559.83	22.6
560.171	22.86
560.513	23.05
560.854	23.28
561.196	23.58
561.537	23.83
561.878	24.1
562.22	24.32
562.561	24.59
562.902	24.81
563.243	25.04
563.584	25.33
563.925	25.59
564.266	25.83
564.607	26.08
564.948	26.29
565.289	26.58
565.63	26.76
565.971	26.97
566.312	27.2
566.653	27.5
566.993	27.73
567.334	27.98
567.675	28.2
568.015	28.47
568.356	28.69
568.696	28.92
569.037	29.15
569.377	29.39
569.718	29.58
570.058	29.78
570.398	30.02
570.739	30.21
571.079	30.43
571.419	30.67
571.759	30.83
572.099	31.05
572.439	31.2
572.779	31.46
573.119	31.68
573.459	31.89
573.799	32.07
574.139	32.24
574.479	32.39
574.819	32.65
575.158	32.82
575.498	32.97
575.838	33.18
576.177	33.37
576.517	33.54
576.856	33.7
577.196	33.9
577.535	34.05
577.875	34.26
578.214	34.44
578.553	34.6
578.893	34.84
579.232	35.03
579.571	35.29
579.91	35.41
580.25	35.64
580.589	35.81
580.928	35.99
581.267	36.18
581.606	36.38
581.945	36.58
582.283	36.8
582.622	36.93
582.961	37.1
583.3	37.28
583.639	37.48
583.977	37.74
584.316	37.98
584.654	38.19
584.993	38.34
585.332	38.53
585.67	38.7
586.008	38.83
586.347	38.96
586.685	39.03
587.024	39.2
587.362	39.24
587.7	39.41
588.038	39.55
588.376	39.68
588.715	39.76
589.053	39.84
589.391	39.92
589.729	40.12
590.067	40.21
590.404	40.3
590.742	40.45
591.08	40.52
591.418	40.65
591.756	40.78
592.093	40.9
592.431	41.1
592.769	41.2
593.106	41.34
593.444	41.49
593.781	41.67
594.119	41.78
594.456	42
594.793	42.11
595.131	42.2
595.468	42.27
595.805	42.43
596.143	42.53
596.48	42.63
596.817	42.71
597.154	42.86
597.491	42.93
597.828	43.03
598.165	43.14
598.502	43.22
598.839	43.34
599.176	43.43
599.512	43.54
599.849	43.69
600.186	43.81
600.523	43.95
600.859	44.02
601.196	44.22
601.532	44.2
601.869	44.29
602.205	44.37
602.542	44.52
602.878	44.61
603.215	44.76
603.551	44.81
603.887	44.93
604.223	44.94
604.56	45.09
604.896	45.18
605.232	45.22
605.568	45.28
605.904	45.36
606.24	45.46
606.576	45.56
606.912	45.64
607.248	45.76
607.583	45.74
607.919	45.83
608.255	45.79
608.591	45.97
608.926	46.02
609.262	46.07
609.597	46.17
609.933	46.3
610.268	46.32
610.604	46.42
610.939	46.43
611.275	46.51
611.61	46.63
611.945	46.62
612.281	46.67
612.616	46.8
612.951	46.79
613.286	46.87
613.621	46.89
613.956	46.97
614.291	46.95
614.626	47.03
614.961	47.03
615.296	47.18
615.631	47.16
615.966	47.25
616.3	47.42
616.635	47.48
616.97	47.41
617.304	47.51
617.639	47.61
617.973	47.63
618.308	47.77
618.642	47.69
618.977	47.8
619.311	47.96
619.646	47.96
619.98	48.03
620.314	48.1
620.648	48.14
620.983	48.1
621.317	48.22
621.651	48.26
621.985	48.3
622.319	48.3
622.653	48.3
622.987	48.28
623.321	48.34
623.655	48.41
623.988	48.51
624.322	48.55
624.656	48.48
624.99	48.57
625.323	48.56
625.657	48.63
625.99	48.67
626.324	48.7
626.657	48.71
626.991	48.69
627.324	48.6
627.658	48.53
627.991	48.64
628.324	48.69
628.657	48.74
628.991	48.75
629.324	48.77
629.657	48.92
629.99	49.05
630.323	49.04
630.656	48.98
630.989	48.95
631.322	48.93
631.655	48.99
631.987	48.93
632.32	48.96
632.653	49.04
632.986	49.05
633.318	49.13
633.651	49.15
633.984	49.27
634.316	49.35
634.649	49.39
634.981	49.4
635.313	49.35
635.646	49.39
635.978	49.51
636.31	49.52
636.643	49.51
636.975	49.52
637.307	49.45
637.639	49.53
637.971	49.58
638.303	49.5
638.635	49.65
638.967	49.78
639.299	49.71
639.631	49.71
639.963	49.72
640.295	49.6
640.626	49.67
640.958	49.62
641.29	49.6
641.621	49.69
641.953	49.71
642.285	49.79
642.616	49.8
642.948	49.79
643.279	49.74
643.61	49.59
643.942	49.61
644.273	49.79
644.604	49.85
644.936	49.91
645.267	50.05
645.598	50.05
645.929	49.83
646.26	49.95
646.591	50.01
646.922	50.17
647.253	50.2
647.584	50.14
647.915	50.2
648.245	50.35
648.576	50.41
648.907	50.42
649.238	50.53
649.568	50.57
649.899	50.54
650.229	50.74
650.56	51
650.89	51.06
651.221	51.06
651.551	51.08
651.882	51.13
652.212	51.14
652.542	51.15
652.872	51.35
653.203	51.36
653.533	51.29
653.863	51.27
654.193	51.37
654.523	51.49
654.853	51.5
655.183	51.6
655.513	51.41
655.843	51.36
656.172	51.26
656.502	51.27
656.832	51.31
657.162	51.3
657.491	51.32
657.821	51.38
658.15	51.37
658.48	51.35
658.809	51.25
659.139	51.27
659.468	51.29
659.798	51.39
660.127	51.43
660.456	51.61
660.785	51.56
661.115	51.62
661.444	51.53
661.773	51.47
662.102	51.42
662.431	51.62
662.76	51.72
663.089	51.79
663.418	51.86
663.747	51.96
664.076	51.84
664.404	51.8
664.733	51.7
665.062	51.85
665.39	51.87
665.719	52.08
666.048	52.1
666.376	52.06
666.705	52.04
667.033	51.95
667.362	51.8
667.69	51.73
668.018	51.72
668.347	51.78
668.675	51.83
669.003	51.81
669.331	51.85
669.659	51.76
669.987	51.69
670.315	51.67
670.643	51.63
670.971	51.74
671.299	51.7
671.627	51.86
671.955	51.76
672.283	51.69
672.61	51.59
672.938	51.67
673.266	51.66
673.593	51.6
673.921	51.68
674.249	51.57
674.576	51.71
674.904	51.59
675.231	51.48
675.558	51.48
675.886	51.57
676.213	51.58
676.54	51.67
676.867	51.74
677.195	51.73
677.522	51.85
677.849	52
678.176	51.99
678.503	51.89
678.83	51.94
679.157	52.05
679.484	52.05
679.81	51.95
680.137	52.08
680.464	52.15
680.791	52.03
681.117	52.17
681.444	52.21
681.771	52.37
682.097	52.56
682.424	52.6
682.75	52.66
683.077	52.54
683.403	52.68
683.729	52.73
684.056	52.79
684.382	52.69
684.708	52.65
685.034	52.75
685.36	52.83
685.686	52.96
686.012	52.82
686.339	52.85
686.664	52.93
686.99	52.81
687.316	52.79
687.642	52.87
687.968	52.9
688.294	52.84
688.619	52.92
688.945	52.85
689.271	52.93
689.596	52.8
689.922	52.99
690.247	53.01
690.573	52.99
690.898	53.09
691.224	53
691.549	53.02
691.874	53.05
692.2	53.08
692.525	53.01
692.85	53.19
693.175	53.19
693.5	53.14
693.825	53.2
694.15	53.17
694.475	53.23
694.8	53.14
695.125	53.19
695.45	53.15
695.775	53.27
696.099	53.36
696.424	53.43
696.749	53.48
697.073	53.45
697.398	53.55
697.723	53.55
698.047	53.64
698.372	53.57
698.696	53.54
699.02	53.5
699.345	53.44
699.669	53.25
699.993	53.16
700.318	53.21
700.642	53.35
700.966	53.41
701.29	53.46
701.614	53.7
701.938	53.68
702.262	53.67
702.586	53.41
702.91	53.26
703.234	53.23
703.557	53.08
703.881	53
704.205	52.94
704.529	52.87
704.852	52.85
705.176	52.89
705.499	53.05
705.823	52.92
706.146	52.81
706.47	53.19
706.793	53.49
707.117	53.61
707.44	53.49
707.763	53.26
708.086	53.21
708.409	53.22
708.733	53.22
709.056	53.19
709.379	53.61
709.702	53.67
710.025	53.75
710.348	53.77
710.671	53.69
710.993	53.72
711.316	53.62
711.639	53.75
711.962	53.74
712.284	53.57
712.607	53.76
712.93	53.9
713.252	53.76
713.575	53.61
713.897	53.45
714.22	53.44
714.542	53.76
714.864	53.66
715.187	53.56
715.509	53.77
715.831	53.87
716.153	53.82
716.475	53.9
716.798	53.82
717.12	53.77
717.442	53.88
717.764	53.83
718.085	53.94
718.407	53.91
718.729	53.85
719.051	53.73
719.373	53.54
719.695	53.6
720.016	53.55
720.338	53.36
720.659	53.46
720.981	53.37
721.302	53.28
721.624	53.49
721.945	53.42
722.267	53.29
722.588	53.31
722.909	53.15
723.231	53.07
723.552	52.92
723.873	53.1
724.194	53.28
724.515	53.22
724.836	53.47
725.157	53.53
725.478	53.52
725.799	53.6
726.12	53.79
726.441	53.66
726.762	53.73
727.083	53.92
727.403	54
727.724	53.98
728.045	53.9
728.365	53.9
728.686	53.71
729.006	53.68
729.327	53.39
729.647	53.62
729.967	53.73
730.288	53.72
730.608	53.72
730.928	53.48
731.249	53.67
731.569	53.49
731.889	53.55
732.209	53.63
732.529	53.84
732.849	53.76
733.169	53.79
733.489	53.6
733.809	53.9
734.129	53.74
734.448	53.72
734.768	53.96
735.088	54.03
735.408	54.34
735.727	54.24
736.047	54.41
736.366	54.33
736.686	54.34
737.005	54.71
737.325	54.76
737.644	54.89
737.963	54.7
738.283	54.42
738.602	54.57
738.921	54.58
739.24	54.51
739.56	54.44
739.879	54.5
740.198	54.69
740.517	54.47
740.836	54.41
741.155	54.64
741.473	54.4
741.792	54.61
742.111	54.49
742.43	54.6
742.748	54.52
743.067	54.29
743.386	53.98
743.704	53.67
744.023	53.57
744.341	53.67
744.66	53.74
744.978	54.16
745.297	53.71
745.615	53.81
745.933	53.79
746.252	53.78
746.57	53.63
746.888	53.5
747.206	53.65
747.524	53.8
747.842	53.66
748.16	53.49
748.478	53.04
748.796	53.11
749.114	52.96
749.432	53.22
749.749	53.3
750.067	53.45
750.385	53.75
750.703	53.69
751.02	53.36
751.338	53.35
751.655	52.78
751.973	53.15
752.29	53.04
752.608	52.79
752.925	53
753.242	53.31
753.56	53.55
753.877	53.23
754.194	53.4
754.511	53.35
754.828	53.66
755.145	53.53
755.462	53.43
755.779	53.5
756.096	53.35
756.413	53.18
756.73	53.18
757.047	53.19
757.364	53.36
757.68	53.45
757.997	53.34
758.314	53.88
758.63	53.53
758.947	53.3
759.264	53.68
759.58	53.63
759.896	53.67
760.213	53.28
760.529	53.1
760.846	53.11
761.162	53.18
761.478	53.29
761.794	53.58
762.11	53.24
762.426	53.01
762.743	52.96
763.059	53.27
763.375	53.26
763.69	53.3
764.006	53.3
764.322	53.35
764.638	53.29
764.954	53.59
765.27	53.67
765.585	53.91
765.901	53.78
766.216	53.83
766.532	53.81
766.848	53.93
767.163	54.42
767.478	54.42
767.794	54.52
768.109	54.61
768.424	54.59
768.74	54.82
769.055	55.52
769.37	55.64
769.685	56.08
770	56.05
770.315	55.7
770.63	55.91
770.945	55.66
771.26	55.88
771.575	55.69
771.89	55.64
772.205	55.44
772.52	55.18
772.834	54.92
773.149	54.97
773.464	55.06
773.778	54.65
774.093	54.54
774.407	54.57
774.722	54.63
775.036	54.39
775.351	54.92
775.665	54.45
775.979	54.67
776.293	54.12
776.608	54.71
776.922	54.4
777.236	54.22
777.55	54.45
777.864	54.23
778.178	53.87
778.492	53.96
778.806	54.2
779.12	54.59
779.434	55.03
779.747	54.84
780.061	54.78
780.375	55.04
780.689	54.48
781.002	54.59
781.316	54.42
781.629	54.86
781.943	54.98
782.256	55.08
782.57	54.9
782.883	54.67
783.196	54.18
783.51	54.94
783.823	54.4
784.136	54.56
784.449	54.8
784.762	55.05
785.075	54.84
785.388	55.15
785.701	54.98
786.014	54.73
786.327	54.51
786.64	54.98
786.953	55.27
787.266	55.83
787.578	55.69
787.891	55.02
788.204	55
788.516	54.31
788.829	54.26
789.141	54.76
789.454	55.11
789.766	55.3
790.079	55.12
790.391	55.3
790.703	55.45
791.016	55.66
791.328	55.31
791.64	55.42
791.952	55.24
792.264	54.98
792.576	55.13
792.888	55.54
793.2	55.48
793.512	55.14
793.824	55.5
794.136	55.28
794.448	55.65
794.76	55.4
795.071	55.32
795.383	55.22
795.695	54.61
796.006	54.28
796.318	54.43
796.629	54.41
796.941	54.98
797.252	54.88
797.564	54.59
797.875	54.47
798.186	54.49
798.497	54.36
798.809	54.8
799.12	54.94
799.431	54.37
799.742	53.66
800.053	53.41
800.364	53.27
800.675	53.48
800.986	53.47
801.297	53.48
801.608	53.54
801.918	53.4
802.229	53.11
802.54	53.5
802.851	53.58
803.161	53.62
803.472	53.29
803.782	53.2
804.093	52.93
804.403	53.45
804.714	53.5
805.024	53.47
805.334	53.49
805.645	53.25
805.955	53.7
806.265	54.35
806.575	54.04
806.885	54.19
807.195	54.05
807.505	53.81
807.815	53.9
808.125	54.19
808.435	53.92
808.745	54.16
809.055	53.78
809.365	53.08
809.674	52.48
809.984	52.37
810.294	52.41
810.603	52.6
810.913	52.09
811.222	52.07
811.532	51.81
811.841	52
812.151	51.95
812.46	51.31
812.769	51.11
813.079	51.98
813.388	51.74
813.697	51.18
814.006	51.49
814.315	51.24
814.624	51.35
814.933	51.92
815.242	52.45
815.551	52.67
815.86	53.41
816.169	54.05
816.478	54.75
816.786	54.35
817.095	54.5
817.404	54.94
817.712	55.53
818.021	55.45
818.33	54.95
818.638	54.76
818.947	54.98
819.255	54.51
819.563	54.72
819.872	54.97
820.18	55.07
820.488	55.13
820.796	55.13
821.105	55.2
821.413	55.16
821.721	54.82
822.029	54.89
822.337	54.99
822.645	55.23
822.953	55.28
823.26	55.47
823.568	55.48
823.876	55.37
824.184	55.11
824.491	55.12
824.799	55.46
825.107	55.52
825.414	55.82
825.722	55.95
826.029	55.99
826.337	55.96
826.644	56.04
826.951	56.04
827.259	56.1
827.566	56.12
827.873	56.53
828.18	56.85
828.488	56.8
828.795	56.79
829.102	56.46
829.409	56.05
829.716	56.07
830.023	56.16
830.329	56.28
830.636	56.8
830.943	56.63
831.25	56.32
831.557	55.94
831.863	55.49
832.17	55.19
832.476	54.52
832.783	53.66
833.089	53.31
833.396	53.18
833.702	53.01
834.009	52.84
834.315	52.14
834.621	52.3
834.928	52.41
835.234	52.21
835.54	52.53
835.846	52.95
836.152	52.16
836.458	51.79
836.764	51.55
837.07	51.24
837.376	51.1
837.682	50.16
837.988	50.85
838.293	50.44
838.599	50.43
838.905	50.55
839.211	51.48
839.516	52.21
839.822	52.78
840.127	52.52
840.433	52.61
840.738	52.18
841.044	50.68
841.349	49.46
841.654	47.93
841.959	47.31
842.265	46.53
842.57	47.71
842.875	47.57
843.18	47.36
843.485	47.79
843.79	48.53
844.095	49.19
844.4	48.63
844.705	49.79
845.01	50.51
845.315	50.7
845.619	49.74
845.924	48.47
846.229	46.35
846.533	46.89
846.838	45.8
847.142	44.33
847.447	46.89
847.751	48.62
848.056	50.9
848.36	51.76
848.664	51.52
848.969	49.13
849.273	48.86
849.577	49.77
849.881	50.63
850.185	50.59
850.489	50.73
850.794	50.58
851.097	48.29
851.401	47.83
851.705	48.11
852.009	49.06
852.313	48.94
852.617	50.84
852.92	51.47
853.224	52.17
853.528	55.88
853.831	55.65
854.135	56.02
854.438	53.8
854.742	52.44
855.045	52.99
855.349	55.69
855.652	55.89
855.955	54.27
856.259	52
856.562	50.21
856.865	50.28
857.168	49.76
857.471	50.62
857.774	53.42
858.077	53.73
858.38	52.39
858.683	55.35
858.986	55.97
859.289	56.13
859.592	56.31
859.894	55.57
860.197	54.56
860.5	54.16
860.802	55.49
861.105	55.06
861.407	55.56
861.71	54.96
862.012	57.75
862.315	56.7
862.617	57.08
862.919	59.96
863.222	58.79
863.524	59.62
863.826	57.31
864.128	54.38
864.43	53.56
864.732	54.79
865.034	53.56
865.336	54
865.638	51.22
865.94	51.44
866.242	48.75
866.544	47.49
866.846	46.61
867.147	46.55
867.449	47.28
867.751	47.43
868.052	46.06
868.354	42.85
868.655	45.56
868.957	45.59
869.258	45.03
869.56	48.17
869.861	46.93
870.162	47.89
870.463	51.11
870.765	48.75
871.066	47.91
871.367	46.21
871.668	43.98
871.969	44.59
872.27	42.96
872.571	45.9
872.872	45.38
873.173	43.96
873.473	42.47
873.774	43.63
874.075	45.64
874.376	45.07
874.676	44.92
874.977	43.51
875.277	42.41
875.578	42.59
875.878	40.11
876.179	39.99
876.479	40.22
876.78	36.84
877.08	39.21
877.38	38.96
877.68	38.98
877.981	39.36
878.281	40.91
878.581	41.91
