Data from BA48287_Reflection_00006.txt Node
Date: Tue Nov 19 11:43:29 EST 2019
User: vgr7
Spectrometer: USB2G7710
Scans to average: 3
Trigger mode: 4
Integration Time (sec): 2.000000E-2
Electric dark correction enabled: true
Boxcar width: 10
XAxis mode: Wavelengths
Number of Pixels in Spectrum: 2048
>>>>>Begin Spectral Data<<<<<
177.721	39.04
178.105	21.99
178.488	33.16
178.871	54.87
179.254	13.68
179.636	42.28
180.019	5.05
180.402	52.38
180.785	-19.39
181.168	40.48
181.55	184.36
181.933	120.95
182.316	151.88
182.698	-10511.11
183.081	-517.37
183.463	36933.33
183.846	1338.74
184.228	-852.74
184.611	-2342.53
184.993	-1952.38
185.376	-385.27
185.758	-293.18
186.14	-295.6
186.522	-256.8
186.904	-262.15
187.287	-256.12
187.669	-224.89
188.051	-289.58
188.433	-575.34
188.815	-813.11
189.197	-451.28
189.579	-232.15
189.961	-175.56
190.342	-135.04
190.724	-132.24
191.106	-134.61
191.488	-122.45
191.869	-102.71
192.251	-91.04
192.633	-76.54
193.014	-71.11
193.396	-69.13
193.777	-63.28
194.159	-79.98
194.54	-84.01
194.922	-70.89
195.303	-76.53
195.684	-86.65
196.065	-77.4
196.447	-67.98
196.828	-68.43
197.209	-63.31
197.59	-56.24
197.971	-58.71
198.352	-54.37
198.733	-64.14
199.114	-56.77
199.495	-55.02
199.876	-63.48
200.257	-59.53
200.638	-67.29
201.018	-68.33
201.399	-70.54
201.78	-49.86
202.16	-42.83
202.541	-36.78
202.922	-37.38
203.302	-29.11
203.683	-29.33
204.063	-44.44
204.444	-30.04
204.824	-46.72
205.204	-45.73
205.585	-51.49
205.965	-65.37
206.345	-69.5
206.725	-48.18
207.106	-60.23
207.486	-55.64
207.866	-33.93
208.246	-35.81
208.626	-32.9
209.006	-39.18
209.386	-53.28
209.766	-91.32
210.145	-83.57
210.525	-78.04
210.905	-72.22
211.285	-69.38
211.664	-47.1
212.044	-35.13
212.424	-43.78
212.803	-35.75
213.183	-32.88
213.562	-31.41
213.942	-24.96
214.321	-26.78
214.701	-31.28
215.08	-23.9
215.459	-28.34
215.838	-38.07
216.218	-40.99
216.597	-32.11
216.976	-41.74
217.355	-38.08
217.734	-26.22
218.113	-25.55
218.492	-32.35
218.871	-27.18
219.25	-32.92
219.629	-55.02
220.008	-71.65
220.387	-63.77
220.766	-57.64
221.144	-67.08
221.523	-77.3
221.902	-84.72
222.28	-89.18
222.659	-70.68
223.037	-75.33
223.416	-63.41
223.794	-58.71
224.173	-54.77
224.551	-46.48
224.929	-36.06
225.308	-32.68
225.686	-32.47
226.064	-32.74
226.442	-27.41
226.821	-25.97
227.199	-24.88
227.577	-19.14
227.955	-16.15
228.333	-20.39
228.711	-19.2
229.089	-18.38
229.467	-19.05
229.845	-17.99
230.222	-15.56
230.6	-14.88
230.978	-10.81
231.356	-9.31
231.733	-7.59
232.111	-6.07
232.488	-7.34
232.866	-5.6
233.243	-4.86
233.621	-3.32
233.998	-2.04
234.376	-3.79
234.753	-3.84
235.13	-0.42
235.508	-1.28
235.885	-1.15
236.262	0.81
236.639	2.28
237.016	3.04
237.393	4.6
237.77	5.43
238.147	5.77
238.524	5.17
238.901	4.68
239.278	4.14
239.655	3.99
240.032	4.5
240.409	5.23
240.785	4.89
241.162	4.66
241.539	4.14
241.915	3.9
242.292	4.63
242.668	4.86
243.045	4.76
243.421	5.04
243.798	5.03
244.174	4.91
244.551	4.56
244.927	4.4
245.303	4.35
245.679	4.4
246.056	4.38
246.432	4.55
246.808	4.86
247.184	5.13
247.56	4.99
247.936	4.78
248.312	4.68
248.688	4.8
249.064	4.73
249.44	4.79
249.815	4.88
250.191	4.63
250.567	4.47
250.943	4.32
251.318	4.32
251.694	4.08
252.069	4.13
252.445	4.17
252.82	4.39
253.196	4.5
253.571	4.61
253.947	4.38
254.322	4.17
254.697	3.77
255.073	3.92
255.448	3.99
255.823	4.18
256.198	4.01
256.573	3.8
256.948	4.15
257.323	4.22
257.698	4.45
258.073	4.58
258.448	4.75
258.823	4.62
259.198	4.57
259.573	4.66
259.948	4.59
260.322	4.44
260.697	4.46
261.072	4.37
261.446	4.36
261.821	4.37
262.195	4.44
262.57	4.46
262.944	4.23
263.319	4.24
263.693	3.99
264.067	4.05
264.442	3.99
264.816	4.02
265.19	3.98
265.564	3.62
265.938	3.43
266.313	3.07
266.687	3.08
267.061	2.9
267.435	2.9
267.809	2.87
268.183	2.92
268.556	2.86
268.93	2.84
269.304	2.75
269.678	2.88
270.051	2.79
270.425	2.91
270.799	2.87
271.172	2.81
271.546	3.13
271.919	3.08
272.293	3.17
272.666	3.06
273.04	3.1
273.413	3.15
273.787	3.25
274.16	3.34
274.533	3.4
274.906	3.49
275.279	3.58
275.653	3.71
276.026	3.59
276.399	3.59
276.772	3.58
277.145	3.65
277.518	3.48
277.891	3.53
278.263	3.36
278.636	3.6
279.009	3.87
279.382	3.72
279.755	3.73
280.127	3.7
280.5	3.57
280.872	3.56
281.245	3.59
281.617	3.7
281.99	3.76
282.362	3.65
282.735	3.59
283.107	3.48
283.479	3.46
283.852	3.61
284.224	3.62
284.596	3.65
284.968	3.68
285.34	3.69
285.713	3.65
286.085	3.64
286.457	3.5
286.829	3.34
287.201	3.14
287.572	3.11
287.944	3.14
288.316	3.24
288.688	3.33
289.06	3.31
289.431	3.2
289.803	3.27
290.175	3.35
290.546	3.33
290.918	3.41
291.289	3.29
291.661	3.26
292.032	3.17
292.403	3.24
292.775	3.19
293.146	3.28
293.517	3.26
293.889	3.28
294.26	3.38
294.631	3.35
295.002	3.49
295.373	3.49
295.744	3.49
296.115	3.47
296.486	3.39
296.857	3.41
297.228	3.41
297.599	3.36
297.97	3.42
298.34	3.46
298.711	3.49
299.082	3.62
299.452	3.53
299.823	3.61
300.194	3.63
300.564	3.56
300.935	3.43
301.305	3.37
301.676	3.37
302.046	3.33
302.416	3.3
302.787	3.25
303.157	3.28
303.527	3.4
303.897	3.38
304.267	3.39
304.637	3.46
305.008	3.54
305.378	3.45
305.748	3.4
306.117	3.44
306.487	3.39
306.857	3.33
307.227	3.54
307.597	3.41
307.967	3.3
308.336	3.42
308.706	3.5
309.076	3.67
309.445	3.82
309.815	3.81
310.184	3.88
310.554	3.77
310.923	3.67
311.293	3.55
311.662	3.54
312.031	3.47
312.401	3.39
312.77	3.43
313.139	3.48
313.508	3.41
313.877	3.34
314.246	3.33
314.616	3.4
314.985	3.2
315.353	3.15
315.722	3.22
316.091	3.16
316.46	3.19
316.829	2.96
317.198	2.86
317.567	2.95
317.935	2.88
318.304	3.17
318.672	3.34
319.041	3.33
319.41	3.46
319.778	3.51
320.147	3.57
320.515	3.45
320.883	3.48
321.252	3.57
321.62	3.55
321.988	3.54
322.357	3.48
322.725	3.72
323.093	3.75
323.461	3.62
323.829	3.64
324.197	3.67
324.565	3.7
324.933	3.66
325.301	3.55
325.669	3.55
326.037	3.46
326.405	3.4
326.772	3.41
327.14	3.3
327.508	3.34
327.875	3.3
328.243	3.39
328.61	3.35
328.978	3.38
329.346	3.44
329.713	3.46
330.08	3.41
330.448	3.3
330.815	3.36
331.182	3.51
331.55	3.58
331.917	3.45
332.284	3.64
332.651	3.76
333.018	3.7
333.385	3.74
333.752	3.69
334.119	3.73
334.486	3.82
334.853	3.8
335.22	3.76
335.587	3.79
335.954	3.76
336.32	3.79
336.687	3.66
337.054	3.66
337.42	3.75
337.787	3.78
338.153	3.7
338.52	3.6
338.886	3.53
339.253	3.48
339.619	3.56
339.986	3.45
340.352	3.33
340.718	3.36
341.084	3.33
341.451	3.45
341.817	3.48
342.183	3.39
342.549	3.48
342.915	3.45
343.281	3.5
343.647	3.45
344.013	3.38
344.379	3.46
344.745	3.52
345.11	3.4
345.476	3.5
345.842	3.55
346.208	3.7
346.573	3.73
346.939	3.7
347.304	3.75
347.67	3.78
348.035	3.88
348.401	3.92
348.766	3.88
349.132	3.92
349.497	3.91
349.862	3.9
350.228	3.91
350.593	3.83
350.958	3.89
351.323	3.93
351.688	4.06
352.053	4.11
352.418	4.07
352.783	4.08
353.148	4.03
353.513	4.08
353.878	4.08
354.243	3.95
354.608	3.97
354.972	3.91
355.337	3.92
355.702	3.85
356.066	3.85
356.431	3.93
356.795	3.86
357.16	3.89
357.524	3.88
357.889	3.83
358.253	3.93
358.618	3.84
358.982	3.84
359.346	3.74
359.71	3.69
360.075	3.67
360.439	3.72
360.803	3.78
361.167	3.75
361.531	3.74
361.895	3.8
362.259	3.85
362.623	3.86
362.987	3.9
363.351	3.86
363.714	3.83
364.078	3.8
364.442	3.75
364.806	3.75
365.169	3.77
365.533	3.77
365.896	3.79
366.26	3.79
366.623	3.76
366.987	3.82
367.35	3.88
367.714	3.88
368.077	3.89
368.44	3.83
368.803	3.86
369.167	3.83
369.53	3.85
369.893	3.8
370.256	3.78
370.619	3.75
370.982	3.83
371.345	3.88
371.708	3.9
372.071	3.92
372.434	3.89
372.797	3.89
373.159	3.91
373.522	3.83
373.885	3.84
374.247	3.88
374.61	3.9
374.973	3.87
375.335	3.85
375.698	3.8
376.06	3.81
376.423	3.78
376.785	3.8
377.147	3.8
377.51	3.79
377.872	3.81
378.234	3.84
378.596	3.86
378.958	3.84
379.321	3.85
379.683	3.88
380.045	3.87
380.407	3.84
380.769	3.83
381.13	3.82
381.492	3.78
381.854	3.81
382.216	3.75
382.578	3.76
382.939	3.76
383.301	3.77
383.663	3.75
384.024	3.75
384.386	3.78
384.747	3.78
385.109	3.77
385.47	3.82
385.832	3.78
386.193	3.74
386.554	3.69
386.916	3.65
387.277	3.65
387.638	3.67
387.999	3.73
388.36	3.76
388.721	3.77
389.082	3.8
389.443	3.78
389.804	3.81
390.165	3.82
390.526	3.86
390.887	3.84
391.248	3.86
391.609	3.92
391.969	3.92
392.33	3.93
392.691	3.93
393.051	3.89
393.412	3.89
393.772	3.93
394.133	3.95
394.493	3.95
394.854	3.94
395.214	3.94
395.574	3.95
395.935	3.93
396.295	3.96
396.655	3.97
397.015	3.99
397.376	3.96
397.736	3.94
398.096	3.91
398.456	3.93
398.816	3.92
399.176	3.87
399.535	3.86
399.895	3.82
400.255	3.82
400.615	3.85
400.975	3.83
401.334	3.8
401.694	3.8
402.054	3.83
402.413	3.87
402.773	3.86
403.132	3.86
403.492	3.88
403.851	3.88
404.211	3.88
404.57	3.85
404.929	3.88
405.288	3.9
405.648	3.9
406.007	3.92
406.366	3.91
406.725	3.91
407.084	3.91
407.443	3.93
407.802	3.93
408.161	3.92
408.52	3.95
408.879	3.94
409.238	3.98
409.596	3.95
409.955	3.93
410.314	3.93
410.673	3.88
411.031	3.85
411.39	3.86
411.748	3.86
412.107	3.88
412.465	3.86
412.824	3.84
413.182	3.8
413.54	3.78
413.899	3.78
414.257	3.8
414.615	3.8
414.974	3.79
415.332	3.81
415.69	3.78
416.048	3.76
416.406	3.77
416.764	3.76
417.122	3.77
417.48	3.78
417.838	3.78
418.195	3.82
418.553	3.82
418.911	3.82
419.269	3.8
419.626	3.81
419.984	3.82
420.342	3.83
420.699	3.84
421.057	3.83
421.414	3.85
421.772	3.83
422.129	3.83
422.486	3.83
422.844	3.82
423.201	3.84
423.558	3.85
423.915	3.85
424.273	3.87
424.63	3.87
424.987	3.87
425.344	3.87
425.701	3.87
426.058	3.87
426.415	3.87
426.772	3.89
427.128	3.88
427.485	3.89
427.842	3.87
428.199	3.88
428.555	3.89
428.912	3.91
429.269	3.91
429.625	3.9
429.982	3.89
430.338	3.91
430.695	3.92
431.051	3.9
431.407	3.91
431.764	3.9
432.12	3.92
432.476	3.92
432.832	3.92
433.189	3.9
433.545	3.91
433.901	3.9
434.257	3.9
434.613	3.89
434.969	3.88
435.325	3.9
435.681	3.88
436.036	3.87
436.392	3.85
436.748	3.86
437.104	3.87
437.459	3.88
437.815	3.87
438.171	3.86
438.526	3.88
438.882	3.87
439.237	3.85
439.593	3.83
439.948	3.83
440.304	3.82
440.659	3.82
441.014	3.81
441.369	3.81
441.725	3.82
442.08	3.82
442.435	3.82
442.79	3.82
443.145	3.82
443.5	3.83
443.855	3.82
444.21	3.82
444.565	3.82
444.92	3.83
445.275	3.82
445.629	3.83
445.984	3.82
446.339	3.83
446.693	3.84
447.048	3.83
447.403	3.81
447.757	3.82
448.112	3.83
448.466	3.83
448.82	3.82
449.175	3.81
449.529	3.82
449.883	3.81
450.238	3.8
450.592	3.8
450.946	3.79
451.3	3.81
451.654	3.81
452.008	3.81
452.362	3.8
452.716	3.82
453.07	3.8
453.424	3.79
453.778	3.79
454.132	3.78
454.486	3.79
454.839	3.81
455.193	3.82
455.547	3.81
455.9	3.83
456.254	3.84
456.607	3.84
456.961	3.85
457.314	3.86
457.668	3.86
458.021	3.86
458.375	3.85
458.728	3.86
459.081	3.85
459.434	3.85
459.787	3.86
460.141	3.85
460.494	3.86
460.847	3.88
461.2	3.89
461.553	3.9
461.906	3.89
462.259	3.9
462.611	3.89
462.964	3.9
463.317	3.88
463.67	3.87
464.022	3.88
464.375	3.88
464.728	3.88
465.08	3.89
465.433	3.9
465.785	3.91
466.138	3.91
466.49	3.93
466.843	3.95
467.195	3.94
467.547	3.94
467.899	3.94
468.252	3.94
468.604	3.9
468.956	3.92
469.308	3.93
469.66	3.95
470.012	3.97
470.364	3.96
470.716	3.97
471.068	3.97
471.42	3.98
471.772	3.97
472.123	3.99
472.475	3.99
472.827	3.98
473.178	3.98
473.53	3.97
473.882	3.97
474.233	3.96
474.585	3.96
474.936	3.96
475.288	3.97
475.639	3.96
475.99	3.98
476.342	3.98
476.693	3.97
477.044	3.94
477.395	3.93
477.746	3.94
478.097	3.95
478.448	3.97
478.8	3.94
479.15	3.95
479.501	3.94
479.852	3.95
480.203	3.96
480.554	3.98
480.905	3.98
481.255	3.99
481.606	3.99
481.957	4
482.307	4.01
482.658	4
483.009	4.01
483.359	4.01
483.709	4.01
484.06	4.02
484.41	4.02
484.761	4.04
485.111	4.04
485.461	4.05
485.811	4.04
486.162	4.06
486.512	4.07
486.862	4.07
487.212	4.07
487.562	4.07
487.912	4.07
488.262	4.06
488.612	4.07
488.961	4.08
489.311	4.08
489.661	4.08
490.011	4.08
490.36	4.08
490.71	4.08
491.06	4.09
491.409	4.08
491.759	4.08
492.108	4.08
492.458	4.09
492.807	4.08
493.157	4.08
493.506	4.08
493.855	4.07
494.204	4.07
494.554	4.08
494.903	4.07
495.252	4.08
495.601	4.11
495.95	4.09
496.299	4.08
496.648	4.09
496.997	4.09
497.346	4.12
497.695	4.13
498.043	4.14
498.392	4.15
498.741	4.18
499.09	4.18
499.438	4.2
499.787	4.19
500.135	4.18
500.484	4.2
500.832	4.21
501.181	4.21
501.529	4.24
501.878	4.25
502.226	4.29
502.574	4.3
502.923	4.3
503.271	4.33
503.619	4.35
503.967	4.35
504.315	4.36
504.663	4.33
505.011	4.33
505.359	4.32
505.707	4.31
506.055	4.32
506.403	4.33
506.751	4.35
507.098	4.37
507.446	4.38
507.794	4.39
508.141	4.41
508.489	4.43
508.837	4.44
509.184	4.45
509.531	4.44
509.879	4.45
510.226	4.46
510.574	4.48
510.921	4.48
511.268	4.5
511.616	4.54
511.963	4.56
512.31	4.58
512.657	4.6
513.004	4.61
513.351	4.61
513.698	4.61
514.045	4.61
514.392	4.62
514.739	4.62
515.086	4.64
515.432	4.65
515.779	4.66
516.126	4.66
516.473	4.66
516.819	4.65
517.166	4.65
517.512	4.66
517.859	4.66
518.205	4.65
518.552	4.65
518.898	4.64
519.245	4.68
519.591	4.67
519.937	4.68
520.283	4.7
520.629	4.71
520.976	4.73
521.322	4.75
521.668	4.74
522.014	4.76
522.36	4.74
522.706	4.74
523.052	4.77
523.398	4.77
523.743	4.8
524.089	4.83
524.435	4.85
524.781	4.87
525.126	4.87
525.472	4.91
525.817	4.91
526.163	4.94
526.509	4.92
526.854	4.93
527.199	4.94
527.545	4.94
527.89	4.96
528.235	4.98
528.581	4.99
528.926	5.01
529.271	5.01
529.616	5.03
529.961	5.05
530.306	5.07
530.651	5.07
530.996	5.09
531.341	5.11
531.686	5.13
532.031	5.15
532.376	5.17
532.721	5.18
533.065	5.2
533.41	5.2
533.755	5.23
534.099	5.25
534.444	5.25
534.788	5.27
535.133	5.28
535.477	5.29
535.822	5.31
536.166	5.32
536.51	5.34
536.855	5.37
537.199	5.38
537.543	5.41
537.887	5.45
538.231	5.48
538.576	5.47
538.92	5.49
539.264	5.51
539.608	5.52
539.951	5.53
540.295	5.56
540.639	5.57
540.983	5.59
541.327	5.62
541.671	5.65
542.014	5.66
542.358	5.69
542.701	5.69
543.045	5.7
543.389	5.72
543.732	5.74
544.075	5.76
544.419	5.78
544.762	5.78
545.105	5.79
545.449	5.81
545.792	5.85
546.135	5.87
546.478	5.89
546.821	5.93
547.165	5.95
547.508	5.97
547.851	5.98
548.194	5.99
548.536	5.99
548.879	6.03
549.222	6.06
549.565	6.08
549.908	6.08
550.25	6.11
550.593	6.12
550.936	6.15
551.278	6.18
551.621	6.2
551.963	6.23
552.306	6.24
552.648	6.25
552.991	6.28
553.333	6.29
553.675	6.29
554.017	6.32
554.36	6.35
554.702	6.36
555.044	6.42
555.386	6.44
555.728	6.49
556.07	6.48
556.412	6.47
556.754	6.49
557.096	6.53
557.438	6.55
557.78	6.58
558.121	6.6
558.463	6.6
558.805	6.6
559.147	6.62
559.488	6.66
559.83	6.66
560.171	6.65
560.513	6.69
560.854	6.71
561.196	6.72
561.537	6.76
561.878	6.81
562.22	6.82
562.561	6.86
562.902	6.89
563.243	6.89
563.584	6.92
563.925	6.95
564.266	6.98
564.607	6.99
564.948	7.02
565.289	7.04
565.63	7.03
565.971	7.06
566.312	7.05
566.653	7.06
566.993	7.07
567.334	7.11
567.675	7.12
568.015	7.14
568.356	7.1
568.696	7.07
569.037	7.05
569.377	7.02
569.718	7
570.058	7.01
570.398	7.04
570.739	7.04
571.079	7.01
571.419	7.01
571.759	7.01
572.099	6.97
572.439	6.97
572.779	7
573.119	7
573.459	7
573.799	7.01
574.139	7
574.479	7
574.819	7.01
575.158	7.01
575.498	7.03
575.838	7.08
576.177	7.09
576.517	7.13
576.856	7.16
577.196	7.14
577.535	7.12
577.875	7.13
578.214	7.15
578.553	7.16
578.893	7.17
579.232	7.21
579.571	7.25
579.91	7.23
580.25	7.24
580.589	7.26
580.928	7.27
581.267	7.31
581.606	7.3
581.945	7.32
582.283	7.33
582.622	7.33
582.961	7.32
583.3	7.31
583.639	7.28
583.977	7.23
584.316	7.24
584.654	7.3
584.993	7.34
585.332	7.4
585.67	7.42
586.008	7.45
586.347	7.47
586.685	7.43
587.024	7.45
587.362	7.4
587.7	7.4
588.038	7.45
588.376	7.48
588.715	7.54
589.053	7.56
589.391	7.55
589.729	7.57
590.067	7.59
590.404	7.63
590.742	7.68
591.08	7.71
591.418	7.75
591.756	7.74
592.093	7.75
592.431	7.73
592.769	7.73
593.106	7.75
593.444	7.79
593.781	7.81
594.119	7.8
594.456	7.83
594.793	7.85
595.131	7.8
595.468	7.78
595.805	7.76
596.143	7.78
596.48	7.8
596.817	7.8
597.154	7.79
597.491	7.8
597.828	7.77
598.165	7.73
598.502	7.69
598.839	7.7
599.176	7.71
599.512	7.66
599.849	7.73
600.186	7.7
600.523	7.66
600.859	7.69
601.196	7.73
601.532	7.78
601.869	7.78
602.205	7.78
602.542	7.81
602.878	7.83
603.215	7.8
603.551	7.76
603.887	7.77
604.223	7.75
604.56	7.75
604.896	7.81
605.232	7.86
605.568	7.87
605.904	7.87
606.24	7.89
606.576	7.89
606.912	7.86
607.248	7.91
607.583	7.9
607.919	7.86
608.255	7.85
608.591	7.84
608.926	7.82
609.262	7.85
609.597	7.83
609.933	7.77
610.268	7.77
610.604	7.79
610.939	7.83
611.275	7.85
611.61	7.84
611.945	7.81
612.281	7.86
612.616	7.91
612.951	7.94
613.286	7.89
613.621	7.95
613.956	7.97
614.291	7.92
614.626	7.91
614.961	7.96
615.296	7.99
615.631	8
615.966	8
616.3	8.04
616.635	8.06
616.97	8.09
617.304	8.1
617.639	8.14
617.973	8.11
618.308	8.13
618.642	8.11
618.977	8.08
619.311	8.03
619.646	8.01
619.98	8.02
620.314	8
620.648	8
620.983	7.9
621.317	7.93
621.651	7.95
621.985	7.96
622.319	7.95
622.653	7.96
622.987	7.94
623.321	7.93
623.655	7.92
623.988	7.94
624.322	7.97
624.656	7.95
624.99	7.97
625.323	7.99
625.657	8.01
625.99	8.06
626.324	8.05
626.657	8.07
626.991	8.06
627.324	8.02
627.658	8
627.991	8.07
628.324	8.05
628.657	8.09
628.991	8.11
629.324	8.13
629.657	8.14
629.99	8.17
630.323	8.17
630.656	8.17
630.989	8.16
631.322	8.13
631.655	8.13
631.987	8.1
632.32	8.05
632.653	8
632.986	7.96
633.318	8.01
633.651	7.97
633.984	7.98
634.316	8.02
634.649	8.04
634.981	8.04
635.313	8.08
635.646	8.08
635.978	8.09
636.31	8.11
636.643	8.1
636.975	8.1
637.307	8.12
637.639	8.14
637.971	8.12
638.303	8.13
638.635	8.15
638.967	8.21
639.299	8.25
639.631	8.29
639.963	8.35
640.295	8.3
640.626	8.34
640.958	8.28
641.29	8.37
641.621	8.37
641.953	8.37
642.285	8.39
642.616	8.37
642.948	8.34
643.279	8.3
643.61	8.32
643.942	8.32
644.273	8.31
644.604	8.3
644.936	8.35
645.267	8.34
645.598	8.36
645.929	8.29
646.26	8.29
646.591	8.35
646.922	8.37
647.253	8.36
647.584	8.35
647.915	8.41
648.245	8.38
648.576	8.35
648.907	8.35
649.238	8.29
649.568	8.34
649.899	8.35
650.229	8.34
650.56	8.39
650.89	8.38
651.221	8.39
651.551	8.43
651.882	8.42
652.212	8.43
652.542	8.46
652.872	8.52
653.203	8.56
653.533	8.59
653.863	8.55
654.193	8.59
654.523	8.56
654.853	8.63
655.183	8.58
655.513	8.63
655.843	8.67
656.172	8.72
656.502	8.67
656.832	8.69
657.162	8.77
657.491	8.75
657.821	8.76
658.15	8.72
658.48	8.72
658.809	8.74
659.139	8.73
659.468	8.73
659.798	8.75
660.127	8.7
660.456	8.65
660.785	8.62
661.115	8.59
661.444	8.61
661.773	8.58
662.102	8.57
662.431	8.6
662.76	8.55
663.089	8.6
663.418	8.65
663.747	8.65
664.076	8.64
664.404	8.63
664.733	8.68
665.062	8.71
665.39	8.66
665.719	8.71
666.048	8.73
666.376	8.76
666.705	8.82
667.033	8.83
667.362	8.83
667.69	8.84
668.018	8.83
668.347	8.86
668.675	8.83
669.003	8.9
669.331	8.92
669.659	8.9
669.987	8.87
670.315	8.84
670.643	8.82
670.971	8.82
671.299	8.85
671.627	8.82
671.955	8.83
672.283	8.91
672.61	8.83
672.938	8.88
673.266	8.86
673.593	8.74
673.921	8.72
674.249	8.71
674.576	8.78
674.904	8.81
675.231	8.88
675.558	8.92
675.886	8.97
676.213	8.92
676.54	8.97
676.867	8.95
677.195	9.04
677.522	9
677.849	8.91
678.176	8.93
678.503	8.86
678.83	8.89
679.157	8.84
679.484	8.92
679.81	8.86
680.137	8.86
680.464	8.95
680.791	8.93
681.117	8.93
681.444	8.83
681.771	8.93
682.097	8.83
682.424	8.85
682.75	8.87
683.077	8.89
683.403	8.96
683.729	8.97
684.056	8.88
684.382	8.99
684.708	9.11
685.034	8.99
685.36	9.05
685.686	9.05
686.012	9.03
686.339	8.99
686.664	9.07
686.99	8.96
687.316	8.89
687.642	8.97
687.968	9.07
688.294	9.18
688.619	9.14
688.945	9.17
689.271	9.22
689.596	9.25
689.922	9.24
690.247	9.13
690.573	9.04
690.898	9.08
691.224	9.01
691.549	9.03
691.874	9.18
692.2	9.1
692.525	9.13
692.85	9.2
693.175	9.22
693.5	9.16
693.825	9.31
694.15	9.33
694.475	9.32
694.8	9.23
695.125	9.28
695.45	9.23
695.775	9.26
696.099	9.3
696.424	9.28
696.749	9.43
697.073	9.51
697.398	9.68
697.723	9.67
698.047	9.6
698.372	9.53
698.696	9.52
699.02	9.66
699.345	9.69
699.669	9.73
699.993	9.72
700.318	9.79
700.642	9.74
700.966	9.74
701.29	9.82
701.614	9.88
701.938	9.91
702.262	9.95
702.586	9.98
702.91	9.9
703.234	9.8
703.557	9.66
703.881	9.79
704.205	9.76
704.529	9.74
704.852	9.81
705.176	9.87
705.499	9.92
705.823	9.91
706.146	9.94
706.47	9.92
706.793	9.93
707.117	9.96
707.44	9.98
707.763	10.07
708.086	9.98
708.409	9.94
708.733	9.78
709.056	9.82
709.379	9.83
709.702	9.87
710.025	10.01
710.348	9.94
710.671	9.83
710.993	9.72
711.316	9.78
711.639	9.87
711.962	9.89
712.284	9.73
712.607	9.64
712.93	9.62
713.252	9.63
713.575	9.63
713.897	9.57
714.22	9.57
714.542	9.57
714.864	9.64
715.187	9.61
715.509	9.72
715.831	9.63
716.153	9.53
716.475	9.57
716.798	9.53
717.12	9.54
717.442	9.45
717.764	9.51
718.085	9.47
718.407	9.49
718.729	9.53
719.051	9.56
719.373	9.61
719.695	9.67
720.016	9.79
720.338	9.79
720.659	9.78
720.981	9.68
721.302	9.77
721.624	9.69
721.945	9.85
722.267	9.84
722.588	9.86
722.909	10.12
723.231	10
723.552	10.08
723.873	10.07
724.194	10.18
724.515	10.12
724.836	10.06
725.157	10.07
725.478	10.03
725.799	10.11
726.12	10.17
726.441	10.1
726.762	10.08
727.083	10.27
727.403	10.31
727.724	10.46
728.045	10.51
728.365	10.6
728.686	10.48
729.006	10.49
729.327	10.54
729.647	10.5
729.967	10.39
730.288	10.34
730.608	10.43
730.928	10.53
731.249	10.68
731.569	10.72
731.889	10.61
732.209	10.41
732.529	10.43
732.849	10.44
733.169	10.32
733.489	9.99
733.809	9.83
734.129	9.86
734.448	9.7
734.768	9.47
735.088	9.38
735.408	9.62
735.727	9.71
736.047	9.87
736.366	9.68
736.686	9.75
737.005	9.88
737.325	9.85
737.644	9.59
737.963	9.49
738.283	9.55
738.602	9.66
738.921	9.89
739.24	9.98
739.56	9.95
739.879	10.02
740.198	10.28
740.517	10.29
740.836	10.28
741.155	10.42
741.473	10.45
741.792	10.59
742.111	10.39
742.43	10.31
742.748	10.19
743.067	10.42
743.386	10.53
743.704	10.49
744.023	10.58
744.341	10.72
744.66	10.67
744.978	10.68
745.297	10.51
745.615	10.38
745.933	10.33
746.252	10.54
746.57	10.72
746.888	10.86
747.206	10.78
747.524	10.7
747.842	10.63
748.16	10.56
748.478	10.45
748.796	10.43
749.114	10.44
749.432	10.52
749.749	10.34
750.067	10.28
750.385	10.33
750.703	10.33
751.02	10.35
751.338	10.35
751.655	10.63
751.973	10.83
752.29	10.83
752.608	10.91
752.925	10.9
753.242	10.73
753.56	10.63
753.877	10.76
754.194	11.03
754.511	10.97
754.828	11.03
755.145	11.03
755.462	11.04
755.779	11.1
756.096	11.22
756.413	11.35
756.73	11.68
757.047	11.36
757.364	11.3
757.68	11.27
757.997	11.45
758.314	11.15
758.63	11.3
758.947	11.38
759.264	11.23
759.58	11.16
759.896	11.13
760.213	11.19
760.529	11.36
760.846	11.26
761.162	11.5
761.478	11.65
761.794	11.66
762.11	11.63
762.426	11.55
762.743	11.34
763.059	11.42
763.375	11.35
763.69	11.41
764.006	11.28
764.322	11.29
764.638	11.42
764.954	11.49
765.27	11.31
765.585	11.45
765.901	11.39
766.216	11.32
766.532	11.55
766.848	11.48
767.163	11.35
767.478	11.36
767.794	11.22
768.109	11.28
768.424	11.33
768.74	11.41
769.055	11.55
769.37	11.59
769.685	11.44
770	11.42
770.315	11.5
770.63	11.54
770.945	11.7
771.26	11.58
771.575	11.6
771.89	11.37
772.205	11.18
772.52	11.4
772.834	11.39
773.149	11.07
773.464	11.36
773.778	11.32
774.093	11.45
774.407	11.85
774.722	11.92
775.036	11.85
775.351	12.01
775.665	12.05
775.979	12.27
776.293	12.22
776.608	12.28
776.922	12.31
777.236	12.53
777.55	12.46
777.864	12.34
778.178	12.06
778.492	12.58
778.806	12.79
779.12	12.44
779.434	12.51
779.747	12.71
780.061	12.62
780.375	12.83
780.689	12.97
781.002	13
781.316	12.81
781.629	12.66
781.943	12.73
782.256	12.42
782.57	11.99
782.883	11.99
783.196	11.55
783.51	11.63
783.823	11.73
784.136	11.48
784.449	11.38
784.762	11.9
785.075	11.66
785.388	11.93
785.701	12.24
786.014	12.04
786.327	12.33
786.64	12.34
786.953	12.25
787.266	12.07
787.578	11.59
787.891	11.5
788.204	11.62
788.516	11.41
788.829	11.51
789.141	11.57
789.454	11.94
789.766	12.05
790.079	11.87
790.391	11.82
790.703	12.26
791.016	12.6
791.328	12.22
791.64	12.42
791.952	12.31
792.264	12.52
792.576	12.64
792.888	12.73
793.2	12.17
793.512	12.41
793.824	12.47
794.136	12.87
794.448	13.02
794.76	13.21
795.071	12.67
795.383	12.95
795.695	13.25
796.006	13.01
796.318	13.56
796.629	14.06
796.941	14.05
797.252	13.82
797.564	13.67
797.875	13.38
798.186	13.34
798.497	13.05
798.809	12.7
799.12	12.61
799.431	12.18
799.742	12.08
800.053	11.76
800.364	11.7
800.675	11.43
800.986	11.65
801.297	11.59
801.608	11.65
801.918	11.13
802.229	11.03
802.54	11.04
802.851	10.48
803.161	10
803.472	10.24
803.782	10.35
804.093	9.71
804.403	10.34
804.714	10.78
805.024	10.71
805.334	10.82
805.645	11.06
805.955	11.29
806.265	11.99
806.575	11.95
806.885	11.71
807.195	12
807.505	11.74
807.815	12.17
808.125	12.6
808.435	12.72
808.745	13.02
809.055	12.91
809.365	12.8
809.674	12.86
809.984	12.32
810.294	11.8
810.603	12.13
810.913	11.85
811.222	11.14
811.532	10.98
811.841	11.25
812.151	11.28
812.46	11.29
812.769	10.99
813.079	11.27
813.388	11.22
813.697	11.09
814.006	11.53
814.315	11.22
814.624	11.34
814.933	12.19
815.242	11.55
815.551	11.19
815.86	12.17
816.169	12.31
816.478	13.17
816.786	13.17
817.095	13.74
817.404	13.22
817.712	13.28
818.021	13.29
818.33	13.42
818.638	13.85
818.947	13.59
819.255	14.22
819.563	14.26
819.872	14.48
820.18	14.57
820.488	14.39
820.796	14.24
821.105	14.51
821.413	14.48
821.721	14.58
822.029	14.79
822.337	14.56
822.645	14.57
822.953	14.44
823.26	14.53
823.568	14.41
823.876	14.55
824.184	14.55
824.491	14.66
824.799	14.54
825.107	14.42
825.414	14.47
825.722	14.44
826.029	14.53
826.337	14.45
826.644	14.42
826.951	14.36
827.259	14.58
827.566	14.54
827.873	14.55
828.18	14.64
828.488	14.44
828.795	14.41
829.102	14.23
829.409	14.34
829.716	14.56
830.023	14.59
830.329	14.7
830.636	14.95
830.943	14.64
831.25	15.02
831.557	14.81
831.863	14.77
832.17	14.41
832.476	14.19
832.783	14.06
833.089	13.6
833.396	13.91
833.702	13.82
834.009	13.44
834.315	13.14
834.621	12.87
834.928	13.53
835.234	13.5
835.54	13.2
835.846	13.18
836.152	12.81
836.458	13.07
836.764	13.04
837.07	13.01
837.376	13.13
837.682	12.63
837.988	12.61
838.293	12.81
838.599	12.99
838.905	13.23
839.211	13.72
839.516	14.44
839.822	14.46
840.127	13.2
840.433	13.45
840.738	13.5
841.044	14.09
841.349	13.63
841.654	13.89
841.959	15.74
842.265	15.98
842.57	15.5
842.875	14.99
843.18	14.58
843.485	14
843.79	14.84
844.095	15.45
844.4	15.19
844.705	15.41
845.01	15.68
845.315	14.92
845.619	15.02
845.924	14.77
846.229	14.61
846.533	16.26
846.838	15.13
847.142	15.75
847.447	15.19
847.751	15.48
848.056	14.44
848.36	13.4
848.664	12.39
848.969	12.93
849.273	13.23
849.577	12.93
849.881	13.95
850.185	12.52
850.489	13.25
850.794	13.9
851.097	12.81
851.401	12.07
851.705	12.06
852.009	10.54
852.313	8.68
852.617	7.63
852.92	7.93
853.224	9.57
853.528	7.32
853.831	7.81
854.135	5.52
854.438	6.71
854.742	5.62
855.045	6.95
855.349	6.32
855.652	6.92
855.955	8.03
856.259	8.62
856.562	9.8
856.865	10.49
857.168	11.6
857.471	12.95
857.774	13.23
858.077	13.07
858.38	14.52
858.683	16.05
858.986	18.32
859.289	17.96
859.592	17.88
859.894	19.74
860.197	17.9
860.5	19.39
860.802	19.79
861.105	20.36
861.407	18.86
861.71	19.95
862.012	20.99
862.315	20.62
862.617	20.32
862.919	20.35
863.222	18.93
863.524	17.7
863.826	15.42
864.128	16.36
864.43	17.07
864.732	14.93
865.034	15.19
865.336	11.93
865.638	13.47
865.94	13.81
866.242	12.81
866.544	15.43
866.846	14.58
867.147	14.52
867.449	15.5
867.751	15.26
868.052	16.58
868.354	14.46
868.655	13.82
868.957	14.98
869.258	13.33
869.56	12.12
869.861	13.57
870.162	14.44
870.463	12.54
870.765	10.65
871.066	12.58
871.367	11.58
871.668	12.51
871.969	9.93
872.27	8.51
872.571	8.79
872.872	8.43
873.173	7.89
873.473	7.4
873.774	5.99
874.075	3.95
874.376	2.1
874.676	3.73
874.977	3.86
875.277	2.15
875.578	3.31
875.878	3.26
876.179	2.77
876.479	2.27
876.78	2.45
877.08	3.5
877.38	2.17
877.68	2.94
877.981	2.62
878.281	3.76
878.581	4.35
