Data from BA48287_Reflection_00015.txt Node
Date: Tue Nov 19 11:43:50 EST 2019
User: vgr7
Spectrometer: USB2G7710
Scans to average: 3
Trigger mode: 4
Integration Time (sec): 2.000000E-2
Electric dark correction enabled: true
Boxcar width: 10
XAxis mode: Wavelengths
Number of Pixels in Spectrum: 2048
>>>>>Begin Spectral Data<<<<<
177.721	66.85
178.105	32.62
178.488	13.89
178.871	39.49
179.254	18.8
179.636	44.23
180.019	-22.84
180.402	119.05
180.785	42.42
181.168	290.48
181.55	134.98
181.933	82.7
182.316	45.92
182.698	-2844.44
183.081	-165.26
183.463	21933.33
183.846	446.85
184.228	-151.24
184.611	-239.08
184.993	76.19
185.376	12.52
185.758	-19.05
186.14	-35.22
186.522	-47.41
186.904	-28.25
187.287	-57.73
187.669	-35.56
188.051	-85.24
188.433	-199.61
188.815	-308.83
189.197	-93.82
189.579	-37.37
189.961	-35.81
190.342	-38.51
190.724	-38.35
191.106	-38.6
191.488	-31.17
191.869	-24.95
192.251	-35.92
192.633	-34.66
193.014	-39.71
193.396	-37.68
193.777	-28.56
194.159	-37.26
194.54	-33.64
194.922	-36.05
195.303	-41.55
195.684	-51.9
196.065	-47.81
196.447	-42.05
196.828	-45.75
197.209	-51.79
197.59	-57.73
197.971	-57.22
198.352	-62.82
198.733	-70.04
199.114	-77.13
199.495	-73.71
199.876	-83.49
200.257	-89.86
200.638	-92.55
201.018	-97.24
201.399	-120.48
201.78	-123.09
202.16	-122.16
202.541	-135.16
202.922	-164.76
203.302	-138.99
203.683	-150.93
204.063	-168.02
204.444	-138.36
204.824	-149.29
205.204	-130.62
205.585	-113.88
205.965	-141.39
206.345	-103.45
206.725	-88.66
207.106	-79.54
207.486	-82.41
207.866	-56.06
208.246	-52.64
208.626	-61.84
209.006	-69.17
209.386	-56.15
209.766	-67.79
210.145	-48.71
210.525	-53.23
210.905	-22.28
211.285	-27.56
211.664	-23.22
212.044	-16.21
212.424	-18.38
212.803	-11.88
213.183	-21.12
213.562	-23.41
213.942	-22.18
214.321	-25.74
214.701	-26.22
215.08	-30.26
215.459	-19.32
215.838	-31.67
216.218	-33.86
216.597	-34.83
216.976	-37.94
217.355	-46.38
217.734	-44.1
218.113	-32.81
218.492	-40.07
218.871	-43.74
219.25	-40.88
219.629	-51.14
220.008	-50.48
220.387	-52.59
220.766	-51.75
221.144	-42.48
221.523	-46.79
221.902	-51.7
222.28	-49.45
222.659	-27.36
223.037	-23.33
223.416	-26.07
223.794	-19.2
224.173	-19.08
224.551	-11.38
224.929	-10.72
225.308	-5.06
225.686	-7.58
226.064	-12.89
226.442	-5.23
226.821	-4.08
227.199	-3.78
227.577	-0.36
227.955	2.43
228.333	1.61
228.711	0.51
229.089	0.36
229.467	-0.36
229.845	3.69
230.222	4.69
230.6	1.73
230.978	4.73
231.356	5.48
231.733	3.48
232.111	4.77
232.488	4.69
232.866	7.14
233.243	8.91
233.621	11.47
233.998	9.61
234.376	8.51
234.753	7.11
235.13	7.4
235.508	7.14
235.885	6.01
236.262	5.12
236.639	6.41
237.016	4.47
237.393	5.25
237.77	4.84
238.147	3.71
238.524	3.69
238.901	2.78
239.278	2.98
239.655	3.46
240.032	3.86
240.409	4.11
240.785	3.84
241.162	3.2
241.539	2.71
241.915	3.18
242.292	3.71
242.668	3.75
243.045	4.19
243.421	4.4
243.798	4.47
244.174	4.64
244.551	4.56
244.927	4.89
245.303	4.65
245.679	4.69
246.056	4.98
246.432	5.14
246.808	5.24
247.184	5.1
247.56	4.94
247.936	4.87
248.312	4.98
248.688	5.21
249.064	5.11
249.44	5.08
249.815	5.21
250.191	5.1
250.567	5.1
250.943	5.18
251.318	5.06
251.694	4.85
252.069	4.8
252.445	4.74
252.82	4.68
253.196	4.75
253.571	4.87
253.947	4.7
254.322	4.17
254.697	4.36
255.073	4.44
255.448	4.45
255.823	4.54
256.198	4.35
256.573	4.55
256.948	4.64
257.323	4.7
257.698	4.57
258.073	4.56
258.448	4.63
258.823	4.39
259.198	4.47
259.573	4.57
259.948	4.54
260.322	4.41
260.697	4.54
261.072	4.58
261.446	4.43
261.821	4.31
262.195	4.52
262.57	4.4
262.944	4.47
263.319	4.42
263.693	4.39
264.067	4.33
264.442	4.05
264.816	4.02
265.19	3.98
265.564	3.85
265.938	3.8
266.313	3.86
266.687	3.8
267.061	3.6
267.435	3.87
267.809	3.78
268.183	3.87
268.556	3.75
268.93	3.79
269.304	3.93
269.678	4.03
270.051	4.12
270.425	4.04
270.799	3.96
271.172	4.25
271.546	4.25
271.919	4.25
272.293	4.23
272.666	4.35
273.04	4.44
273.413	4.59
273.787	4.48
274.16	4.36
274.533	4.45
274.906	4.48
275.279	4.38
275.653	4.44
276.026	4.54
276.399	4.56
276.772	4.7
277.145	4.67
277.518	4.65
277.891	4.48
278.263	4.59
278.636	4.57
279.009	4.35
279.382	4.18
279.755	4.25
280.127	4.42
280.5	4.23
280.872	4.13
281.245	4.01
281.617	3.92
281.99	4.05
282.362	4.13
282.735	4.14
283.107	3.9
283.479	3.98
283.852	3.95
284.224	4
284.596	3.85
284.968	3.81
285.34	3.93
285.713	3.96
286.085	3.81
286.457	3.7
286.829	3.75
287.201	3.84
287.572	3.71
287.944	3.7
288.316	3.89
288.688	4.02
289.06	4.11
289.431	4.28
289.803	4.28
290.175	4.07
290.546	4.15
290.918	4.3
291.289	4.19
291.661	4.14
292.032	4.13
292.403	4.03
292.775	4.05
293.146	3.85
293.517	3.94
293.889	4.02
294.26	4.16
294.631	4.2
295.002	4.2
295.373	4.27
295.744	4.12
296.115	4.01
296.486	3.93
296.857	3.99
297.228	3.88
297.599	3.79
297.97	4
298.34	4.1
298.711	4.11
299.082	4.13
299.452	4.19
299.823	4.12
300.194	4.16
300.564	4.11
300.935	4.15
301.305	4.11
301.676	4.14
302.046	4.18
302.416	4.21
302.787	4.28
303.157	4.39
303.527	4.55
303.897	4.4
304.267	4.46
304.637	4.36
305.008	4.4
305.378	4.39
305.748	4.16
306.117	3.96
306.487	3.96
306.857	3.96
307.227	3.9
307.597	3.94
307.967	3.96
308.336	3.93
308.706	4.11
309.076	4.17
309.445	4.31
309.815	4.23
310.184	4.14
310.554	4.02
310.923	3.92
311.293	3.95
311.662	4.11
312.031	4.08
312.401	4.09
312.77	4.09
313.139	4.18
313.508	4.23
313.877	4.3
314.246	4.39
314.616	4.5
314.985	4.54
315.353	4.63
315.722	4.71
316.091	4.77
316.46	4.71
316.829	4.77
317.198	4.64
317.567	4.76
317.935	4.7
318.304	4.79
318.672	4.91
319.041	4.9
319.41	4.98
319.778	5.04
320.147	5.03
320.515	5.1
320.883	5.05
321.252	4.99
321.62	4.96
321.988	4.84
322.357	4.82
322.725	4.85
323.093	4.74
323.461	4.72
323.829	4.7
324.197	4.61
324.565	4.5
324.933	4.48
325.301	4.28
325.669	4.45
326.037	4.5
326.405	4.51
326.772	4.39
327.14	4.23
327.508	4.23
327.875	4.24
328.243	4.29
328.61	4.36
328.978	4.51
329.346	4.46
329.713	4.59
330.08	4.59
330.448	4.7
330.815	4.66
331.182	4.63
331.55	4.65
331.917	4.67
332.284	4.71
332.651	4.75
333.018	4.93
333.385	4.8
333.752	4.75
334.119	4.67
334.486	4.68
334.853	4.75
335.22	4.6
335.587	4.7
335.954	4.7
336.32	4.68
336.687	4.65
337.054	4.67
337.42	4.68
337.787	4.67
338.153	4.57
338.52	4.7
338.886	4.86
339.253	4.98
339.619	5.06
339.986	4.98
340.352	4.98
340.718	4.94
341.084	5.05
341.451	5.08
341.817	5.18
342.183	5.28
342.549	5.24
342.915	5.4
343.281	5.31
343.647	5.29
344.013	5.3
344.379	5.34
344.745	5.38
345.11	5.38
345.476	5.46
345.842	5.49
346.208	5.51
346.573	5.45
346.939	5.39
347.304	5.46
347.67	5.52
348.035	5.57
348.401	5.6
348.766	5.47
349.132	5.47
349.497	5.36
349.862	5.24
350.228	5.32
350.593	5.25
350.958	5.34
351.323	5.41
351.688	5.4
352.053	5.44
352.418	5.39
352.783	5.35
353.148	5.23
353.513	5.22
353.878	5.26
354.243	5.14
354.608	5.21
354.972	5.13
355.337	5.13
355.702	5.07
356.066	5.02
356.431	5.09
356.795	5.1
357.16	5.12
357.524	5.15
357.889	5.18
358.253	5.12
358.618	5.01
358.982	4.95
359.346	4.93
359.71	4.88
360.075	4.91
360.439	4.93
360.803	4.99
361.167	4.93
361.531	4.86
361.895	4.87
362.259	4.85
362.623	4.88
362.987	4.84
363.351	4.77
363.714	4.82
364.078	4.82
364.442	4.73
364.806	4.76
365.169	4.72
365.533	4.62
365.896	4.69
366.26	4.69
366.623	4.7
366.987	4.7
367.35	4.77
367.714	4.82
368.077	4.8
368.44	4.75
368.803	4.75
369.167	4.71
369.53	4.73
369.893	4.72
370.256	4.64
370.619	4.6
370.982	4.62
371.345	4.58
371.708	4.54
372.071	4.57
372.434	4.59
372.797	4.62
373.159	4.61
373.522	4.57
373.885	4.6
374.247	4.51
374.61	4.47
374.973	4.37
375.335	4.34
375.698	4.27
376.06	4.24
376.423	4.25
376.785	4.23
377.147	4.24
377.51	4.18
377.872	4.21
378.234	4.26
378.596	4.28
378.958	4.23
379.321	4.22
379.683	4.24
380.045	4.16
380.407	4.15
380.769	4.16
381.13	4.13
381.492	4.11
381.854	4.1
382.216	4.11
382.578	4.1
382.939	4.09
383.301	4.06
383.663	4.09
384.024	4.12
384.386	4.12
384.747	4.13
385.109	4.11
385.47	4.07
385.832	4.03
386.193	3.99
386.554	3.97
386.916	3.97
387.277	3.94
387.638	3.99
387.999	3.97
388.36	3.95
388.721	3.96
389.082	3.99
389.443	4
389.804	4.03
390.165	4.02
390.526	3.99
390.887	4.03
391.248	3.99
391.609	3.96
391.969	3.95
392.33	3.94
392.691	3.95
393.051	3.96
393.412	3.94
393.772	3.97
394.133	3.99
394.493	3.97
394.854	3.9
395.214	3.86
395.574	3.84
395.935	3.81
396.295	3.8
396.655	3.75
397.015	3.75
397.376	3.7
397.736	3.67
398.096	3.64
398.456	3.59
398.816	3.58
399.176	3.53
399.535	3.56
399.895	3.51
400.255	3.49
400.615	3.48
400.975	3.48
401.334	3.44
401.694	3.42
402.054	3.46
402.413	3.53
402.773	3.55
403.132	3.54
403.492	3.56
403.851	3.55
404.211	3.56
404.57	3.52
404.929	3.51
405.288	3.53
405.648	3.56
406.007	3.57
406.366	3.55
406.725	3.56
407.084	3.51
407.443	3.51
407.802	3.5
408.161	3.5
408.52	3.51
408.879	3.55
409.238	3.55
409.596	3.54
409.955	3.5
410.314	3.48
410.673	3.5
411.031	3.47
411.39	3.48
411.748	3.47
412.107	3.47
412.465	3.47
412.824	3.47
413.182	3.46
413.54	3.45
413.899	3.45
414.257	3.44
414.615	3.43
414.974	3.44
415.332	3.44
415.69	3.42
416.048	3.42
416.406	3.38
416.764	3.37
417.122	3.36
417.48	3.35
417.838	3.33
418.195	3.32
418.553	3.31
418.911	3.3
419.269	3.29
419.626	3.29
419.984	3.3
420.342	3.28
420.699	3.27
421.057	3.27
421.414	3.27
421.772	3.27
422.129	3.27
422.486	3.28
422.844	3.28
423.201	3.28
423.558	3.27
423.915	3.28
424.273	3.29
424.63	3.28
424.987	3.29
425.344	3.29
425.701	3.28
426.058	3.3
426.415	3.31
426.772	3.31
427.128	3.32
427.485	3.33
427.842	3.35
428.199	3.34
428.555	3.34
428.912	3.34
429.269	3.33
429.625	3.33
429.982	3.32
430.338	3.32
430.695	3.3
431.051	3.32
431.407	3.32
431.764	3.3
432.12	3.3
432.476	3.28
432.832	3.27
433.189	3.28
433.545	3.26
433.901	3.25
434.257	3.25
434.613	3.23
434.969	3.23
435.325	3.23
435.681	3.24
436.036	3.24
436.392	3.23
436.748	3.23
437.104	3.24
437.459	3.22
437.815	3.22
438.171	3.21
438.526	3.21
438.882	3.21
439.237	3.21
439.593	3.21
439.948	3.22
440.304	3.21
440.659	3.21
441.014	3.2
441.369	3.21
441.725	3.22
442.08	3.21
442.435	3.2
442.79	3.17
443.145	3.16
443.5	3.15
443.855	3.15
444.21	3.16
444.565	3.16
444.92	3.15
445.275	3.15
445.629	3.14
445.984	3.13
446.339	3.12
446.693	3.14
447.048	3.11
447.403	3.12
447.757	3.13
448.112	3.13
448.466	3.14
448.82	3.12
449.175	3.12
449.529	3.11
449.883	3.11
450.238	3.13
450.592	3.13
450.946	3.13
451.3	3.13
451.654	3.12
452.008	3.12
452.362	3.12
452.716	3.12
453.07	3.13
453.424	3.13
453.778	3.12
454.132	3.11
454.486	3.12
454.839	3.11
455.193	3.11
455.547	3.12
455.9	3.11
456.254	3.11
456.607	3.13
456.961	3.14
457.314	3.13
457.668	3.13
458.021	3.12
458.375	3.14
458.728	3.15
459.081	3.16
459.434	3.16
459.787	3.18
460.141	3.19
460.494	3.19
460.847	3.18
461.2	3.19
461.553	3.2
461.906	3.21
462.259	3.2
462.611	3.19
462.964	3.19
463.317	3.2
463.67	3.2
464.022	3.19
464.375	3.2
464.728	3.23
465.08	3.22
465.433	3.24
465.785	3.25
466.138	3.25
466.49	3.25
466.843	3.25
467.195	3.26
467.547	3.23
467.899	3.26
468.252	3.27
468.604	3.27
468.956	3.27
469.308	3.27
469.66	3.3
470.012	3.32
470.364	3.32
470.716	3.32
471.068	3.33
471.42	3.35
471.772	3.34
472.123	3.32
472.475	3.3
472.827	3.3
473.178	3.29
473.53	3.27
473.882	3.26
474.233	3.26
474.585	3.25
474.936	3.26
475.288	3.25
475.639	3.27
475.99	3.24
476.342	3.25
476.693	3.25
477.044	3.25
477.395	3.21
477.746	3.22
478.097	3.21
478.448	3.2
478.8	3.19
479.15	3.2
479.501	3.21
479.852	3.22
480.203	3.24
480.554	3.23
480.905	3.24
481.255	3.24
481.606	3.25
481.957	3.25
482.307	3.25
482.658	3.26
483.009	3.26
483.359	3.27
483.709	3.27
484.06	3.28
484.41	3.28
484.761	3.3
485.111	3.3
485.461	3.3
485.811	3.3
486.162	3.3
486.512	3.3
486.862	3.31
487.212	3.31
487.562	3.3
487.912	3.31
488.262	3.31
488.612	3.32
488.961	3.32
489.311	3.33
489.661	3.33
490.011	3.32
490.36	3.32
490.71	3.31
491.06	3.32
491.409	3.3
491.759	3.3
492.108	3.3
492.458	3.3
492.807	3.3
493.157	3.32
493.506	3.32
493.855	3.34
494.204	3.36
494.554	3.37
494.903	3.38
495.252	3.39
495.601	3.4
495.95	3.41
496.299	3.44
496.648	3.45
496.997	3.48
497.346	3.51
497.695	3.53
498.043	3.54
498.392	3.56
498.741	3.6
499.09	3.63
499.438	3.64
499.787	3.66
500.135	3.67
500.484	3.68
500.832	3.7
501.181	3.72
501.529	3.74
501.878	3.76
502.226	3.79
502.574	3.8
502.923	3.82
503.271	3.83
503.619	3.83
503.967	3.82
504.315	3.85
504.663	3.87
505.011	3.88
505.359	3.91
505.707	3.92
506.055	3.96
506.403	3.98
506.751	4
507.098	4.05
507.446	4.08
507.794	4.11
508.141	4.13
508.489	4.16
508.837	4.17
509.184	4.19
509.531	4.21
509.879	4.24
510.226	4.26
510.574	4.3
510.921	4.33
511.268	4.38
511.616	4.42
511.963	4.47
512.31	4.5
512.657	4.53
513.004	4.57
513.351	4.59
513.698	4.61
514.045	4.65
514.392	4.7
514.739	4.75
515.086	4.79
515.432	4.83
515.779	4.86
516.126	4.92
516.473	4.99
516.819	5.04
517.166	5.09
517.512	5.14
517.859	5.17
518.205	5.2
518.552	5.25
518.898	5.29
519.245	5.35
519.591	5.39
519.937	5.46
520.283	5.51
520.629	5.57
520.976	5.64
521.322	5.72
521.668	5.77
522.014	5.86
522.36	5.93
522.706	6.02
523.052	6.1
523.398	6.17
523.743	6.24
524.089	6.33
524.435	6.43
524.781	6.54
525.126	6.62
525.472	6.72
525.817	6.8
526.163	6.87
526.509	6.94
526.854	7.03
527.199	7.08
527.545	7.14
527.89	7.21
528.235	7.28
528.581	7.35
528.926	7.42
529.271	7.49
529.616	7.56
529.961	7.64
530.306	7.73
530.651	7.83
530.996	7.94
531.341	8.05
531.686	8.15
532.031	8.27
532.376	8.38
532.721	8.5
533.065	8.62
533.41	8.75
533.755	8.87
534.099	8.98
534.444	9.12
534.788	9.27
535.133	9.43
535.477	9.55
535.822	9.71
536.166	9.88
536.51	10.07
536.855	10.26
537.199	10.46
537.543	10.67
537.887	10.88
538.231	11.07
538.576	11.26
538.92	11.47
539.264	11.65
539.608	11.84
539.951	12.01
540.295	12.19
540.639	12.38
540.983	12.56
541.327	12.75
541.671	12.92
542.014	13.11
542.358	13.27
542.701	13.47
543.045	13.66
543.389	13.85
543.732	14.03
544.075	14.25
544.419	14.45
544.762	14.62
545.105	14.82
545.449	15.06
545.792	15.33
546.135	15.57
546.478	15.83
546.821	16.11
547.165	16.36
547.508	16.64
547.851	16.93
548.194	17.2
548.536	17.49
548.879	17.81
549.222	18.08
549.565	18.38
549.908	18.66
550.25	18.95
550.593	19.23
550.936	19.52
551.278	19.78
551.621	20.08
551.963	20.44
552.306	20.73
552.648	21.04
552.991	21.32
553.333	21.62
553.675	21.91
554.017	22.19
554.36	22.52
554.702	22.77
555.044	23.02
555.386	23.34
555.728	23.63
556.07	23.93
556.412	24.25
556.754	24.59
557.096	24.91
557.438	25.19
557.78	25.55
558.121	25.85
558.463	26.16
558.805	26.53
559.147	26.83
559.488	27.18
559.83	27.42
560.171	27.66
560.513	27.95
560.854	28.25
561.196	28.54
561.537	28.81
561.878	29.14
562.22	29.42
562.561	29.72
562.902	30
563.243	30.3
563.584	30.56
563.925	30.79
564.266	31.07
564.607	31.32
564.948	31.55
565.289	31.81
565.63	32.04
565.971	32.24
566.312	32.49
566.653	32.67
566.993	32.95
567.334	33.2
567.675	33.48
568.015	33.73
568.356	33.98
568.696	34.22
569.037	34.45
569.377	34.69
569.718	34.92
570.058	35.09
570.398	35.34
570.739	35.56
571.079	35.81
571.419	35.99
571.759	36.22
572.099	36.4
572.439	36.6
572.779	36.8
573.119	36.99
573.459	37.16
573.799	37.36
574.139	37.5
574.479	37.68
574.819	37.81
575.158	37.98
575.498	38.14
575.838	38.34
576.177	38.52
576.517	38.69
576.856	38.87
577.196	39.09
577.535	39.14
577.875	39.34
578.214	39.51
578.553	39.71
578.893	39.91
579.232	40.14
579.571	40.34
579.91	40.49
580.25	40.68
580.589	40.85
580.928	41.06
581.267	41.23
581.606	41.47
581.945	41.65
582.283	41.81
582.622	41.88
582.961	42.08
583.3	42.26
583.639	42.5
583.977	42.68
584.316	42.83
584.654	43.05
584.993	43.11
585.332	43.25
585.67	43.45
586.008	43.61
586.347	43.71
586.685	43.78
587.024	44
587.362	44.09
587.7	44.23
588.038	44.37
588.376	44.59
588.715	44.73
589.053	44.92
589.391	45.05
589.729	45.25
590.067	45.29
590.404	45.4
590.742	45.46
591.08	45.63
591.418	45.71
591.756	45.82
592.093	45.99
592.431	46.11
592.769	46.21
593.106	46.3
593.444	46.4
593.781	46.53
594.119	46.64
594.456	46.77
594.793	46.79
595.131	46.88
595.468	46.96
595.805	47.01
596.143	47.07
596.48	47.07
596.817	47.13
597.154	47.32
597.491	47.43
597.828	47.53
598.165	47.58
598.502	47.76
598.839	47.87
599.176	47.94
599.512	48.09
599.849	48.22
600.186	48.29
600.523	48.38
600.859	48.48
601.196	48.55
601.532	48.64
601.869	48.86
602.205	48.92
602.542	48.94
602.878	49.03
603.215	49.1
603.551	49.21
603.887	49.31
604.223	49.34
604.56	49.38
604.896	49.43
605.232	49.46
605.568	49.53
605.904	49.56
606.24	49.69
606.576	49.67
606.912	49.66
607.248	49.74
607.583	49.78
607.919	49.84
608.255	49.87
608.591	49.91
608.926	49.93
609.262	50.05
609.597	50.07
609.933	50.16
610.268	50.25
610.604	50.32
610.939	50.42
611.275	50.47
611.61	50.55
611.945	50.59
612.281	50.7
612.616	50.76
612.951	50.86
613.286	50.92
613.621	50.99
613.956	51.16
614.291	51.25
614.626	51.46
614.961	51.61
615.296	51.75
615.631	51.87
615.966	51.98
616.3	51.99
616.635	52.19
616.97	52.2
617.304	52.25
617.639	52.34
617.973	52.36
618.308	52.39
618.642	52.44
618.977	52.43
619.311	52.42
619.646	52.37
619.98	52.35
620.314	52.36
620.648	52.51
620.983	52.53
621.317	52.48
621.651	52.43
621.985	52.47
622.319	52.56
622.653	52.67
622.987	52.64
623.321	52.68
623.655	52.59
623.988	52.62
624.322	52.75
624.656	52.77
624.99	52.8
625.323	52.85
625.657	52.86
625.99	52.95
626.324	52.97
626.657	52.99
626.991	53.04
627.324	53.13
627.658	53.15
627.991	53.18
628.324	53.19
628.657	53.2
628.991	53.17
629.324	53.15
629.657	53.12
629.99	53.17
630.323	53.19
630.656	53.26
630.989	53.26
631.322	53.15
631.655	53.2
631.987	53.21
632.32	53.2
632.653	53.22
632.986	53.28
633.318	53.39
633.651	53.48
633.984	53.58
634.316	53.57
634.649	53.52
634.981	53.57
635.313	53.63
635.646	53.7
635.978	53.77
636.31	53.82
636.643	53.71
636.975	53.78
637.307	53.85
637.639	53.92
637.971	53.98
638.303	54
638.635	53.98
638.967	54.04
639.299	54.08
639.631	54.22
639.963	54.24
640.295	54.19
640.626	54.24
640.958	54.16
641.29	54.11
641.621	54.12
641.953	54.04
642.285	54.16
642.616	54.25
642.948	54.35
643.279	54.29
643.61	54.41
643.942	54.48
644.273	54.55
644.604	54.62
644.936	54.72
645.267	54.81
645.598	54.88
645.929	54.77
646.26	54.83
646.591	54.85
646.922	54.92
647.253	55.04
647.584	55.09
647.915	55.19
648.245	55.29
648.576	55.3
648.907	55.5
649.238	55.45
649.568	55.4
649.899	55.3
650.229	55.33
650.56	55.32
650.89	55.31
651.221	55.31
651.551	55.27
651.882	55.19
652.212	55.18
652.542	55.21
652.872	55.44
653.203	55.47
653.533	55.37
653.863	55.21
654.193	55.22
654.523	55.13
654.853	55.16
655.183	55.1
655.513	55.19
655.843	54.97
656.172	55.09
656.502	55.06
656.832	55.11
657.162	55.16
657.491	55.19
657.821	55.17
658.15	55.17
658.48	55.28
658.809	55.38
659.139	55.42
659.468	55.43
659.798	55.41
660.127	55.47
660.456	55.43
660.785	55.55
661.115	55.51
661.444	55.59
661.773	55.55
662.102	55.62
662.431	55.66
662.76	55.84
663.089	55.88
663.418	55.93
663.747	55.96
664.076	55.91
664.404	55.94
664.733	55.88
665.062	55.91
665.39	55.84
665.719	55.82
666.048	55.7
666.376	55.71
666.705	55.7
667.033	55.72
667.362	55.78
667.69	55.98
668.018	55.93
668.347	55.9
668.675	55.92
669.003	55.93
669.331	55.87
669.659	55.86
669.987	55.86
670.315	55.92
670.643	55.8
670.971	55.99
671.299	56.02
671.627	56.19
671.955	56.28
672.283	56.21
672.61	56.16
672.938	56.32
673.266	56.24
673.593	56.31
673.921	56.23
674.249	56.22
674.576	56.02
674.904	56.1
675.231	56.07
675.558	56.07
675.886	56.06
676.213	56.08
676.54	55.99
676.867	55.89
677.195	55.96
677.522	56.09
677.849	56.13
678.176	56.11
678.503	56.03
678.83	55.93
679.157	55.93
679.484	55.85
679.81	55.87
680.137	56.02
680.464	56.01
680.791	55.99
681.117	55.96
681.444	55.89
681.771	56.01
682.097	56.22
682.424	56.2
682.75	56.21
683.077	56.18
683.403	56.25
683.729	56.25
684.056	56.17
684.382	56.24
684.708	56.03
685.034	56.06
685.36	56.08
685.686	56.14
686.012	56.27
686.339	56.35
686.664	56.35
686.99	56.31
687.316	56.3
687.642	56.4
687.968	56.52
688.294	56.65
688.619	56.54
688.945	56.49
689.271	56.54
689.596	56.66
689.922	56.64
690.247	56.74
690.573	56.9
690.898	56.99
691.224	56.86
691.549	56.94
691.874	57.1
692.2	57.09
692.525	57
692.85	57.08
693.175	57.22
693.5	57.21
693.825	57.17
694.15	57.18
694.475	57.01
694.8	57.02
695.125	56.96
695.45	56.95
695.775	56.81
696.099	56.91
696.424	56.84
696.749	56.97
697.073	56.73
697.398	56.6
697.723	56.51
698.047	56.57
698.372	56.59
698.696	56.41
699.02	56.37
699.345	56.42
699.669	56.33
699.993	56.2
700.318	56.17
700.642	56.04
700.966	56.05
701.29	56.2
701.614	56.16
701.938	56.18
702.262	56.09
702.586	56.07
702.91	55.96
703.234	55.86
703.557	55.84
703.881	56.07
704.205	56.31
704.529	56.24
704.852	56.27
705.176	56.16
705.499	56.31
705.823	56.41
706.146	56.69
706.47	56.78
706.793	57.14
707.117	57.16
707.44	57.37
707.763	57.31
708.086	57.32
708.409	57.44
708.733	57.47
709.056	57.55
709.379	57.77
709.702	57.92
710.025	58.1
710.348	58.18
710.671	58.08
710.993	57.85
711.316	57.95
711.639	58.06
711.962	58.26
712.284	58.33
712.607	58.4
712.93	58.15
713.252	57.92
713.575	57.81
713.897	57.87
714.22	57.85
714.542	57.84
714.864	57.61
715.187	57.64
715.509	57.68
715.831	57.63
716.153	57.48
716.475	57.39
716.798	57.3
717.12	57.15
717.442	57.12
717.764	57.17
718.085	57.17
718.407	57.06
718.729	57.01
719.051	56.96
719.373	56.99
719.695	56.99
720.016	57.34
720.338	57.28
720.659	57.16
720.981	57.21
721.302	57.46
721.624	57.75
721.945	57.61
722.267	57.51
722.588	57.62
722.909	57.6
723.231	57.71
723.552	57.64
723.873	57.6
724.194	57.82
724.515	57.94
724.836	57.84
725.157	58.06
725.478	58.13
725.799	57.92
726.12	57.67
726.441	57.6
726.762	57.5
727.083	57.45
727.403	57.51
727.724	57.48
728.045	57.26
728.365	57.2
728.686	57.07
729.006	57.12
729.327	57.03
729.647	56.91
729.967	56.91
730.288	56.89
730.608	56.86
730.928	56.88
731.249	56.82
731.569	56.68
731.889	56.62
732.209	56.45
732.529	56.63
732.849	56.71
733.169	56.91
733.489	56.82
733.809	56.83
734.129	57.04
734.448	56.98
734.768	56.67
735.088	56.4
735.408	56.35
735.727	56.31
736.047	56.46
736.366	56.62
736.686	56.45
737.005	56.78
737.325	56.74
737.644	56.71
737.963	56.65
738.283	56.98
738.602	56.74
738.921	56.67
739.24	56.72
739.56	56.59
739.879	56.4
740.198	56.31
740.517	56.32
740.836	56.34
741.155	56.5
741.473	56.87
741.792	57.04
742.111	57.25
742.43	57.21
742.748	56.99
743.067	57.16
743.386	57.06
743.704	57.13
744.023	57.27
744.341	57.36
744.66	57.59
744.978	57.47
745.297	57.37
745.615	57.54
745.933	57.25
746.252	57.66
746.57	57.9
746.888	58.09
747.206	58.11
747.524	57.93
747.842	57.78
748.16	57.61
748.478	57.8
748.796	57.77
749.114	57.81
749.432	57.98
749.749	57.77
750.067	57.53
750.385	57.35
750.703	57.59
751.02	57.3
751.338	57.27
751.655	57.4
751.973	57.72
752.29	57.49
752.608	57.57
752.925	57.43
753.242	57.23
753.56	57.36
753.877	57.32
754.194	57.09
754.511	56.9
754.828	57.15
755.145	57.18
755.462	57.53
755.779	57.58
756.096	57.89
756.413	58.09
756.73	58.65
757.047	58.35
757.364	58.23
757.68	58.08
757.997	57.96
758.314	57.74
758.63	57.66
758.947	58.08
759.264	58.16
759.58	57.94
759.896	57.96
760.213	57.8
760.529	57.74
760.846	57.93
761.162	58.32
761.478	58.29
761.794	58.03
762.11	57.75
762.426	57.7
762.743	57.71
763.059	57.53
763.375	57.49
763.69	57.76
764.006	57.5
764.322	57.76
764.638	57.59
764.954	57.68
765.27	57.74
765.585	57.72
765.901	57.88
766.216	57.95
766.532	57.97
766.848	58.05
767.163	58.19
767.478	58.16
767.794	57.8
768.109	58.03
768.424	58.28
768.74	58.4
769.055	58.5
769.37	58.58
769.685	58.76
770	58.61
770.315	58.52
770.63	58.68
770.945	58.78
771.26	58.93
771.575	59.28
771.89	59.21
772.205	58.89
772.52	59.06
772.834	59.12
773.149	58.95
773.464	58.89
773.778	59.09
774.093	58.93
774.407	59.18
774.722	58.79
775.036	58.61
775.351	58.34
775.665	58.21
775.979	57.82
776.293	57.63
776.608	57.82
776.922	57.77
777.236	58.24
777.55	58.08
777.864	58.56
778.178	58.15
778.492	58.15
778.806	58.44
779.12	57.87
779.434	57.63
779.747	57.61
780.061	57.49
780.375	57.09
780.689	57.48
781.002	57.21
781.316	57.09
781.629	57.4
781.943	57.64
782.256	57.79
782.57	58.02
782.883	58.05
783.196	58.18
783.51	57.99
783.823	57.3
784.136	57.15
784.449	56.41
784.762	55.99
785.075	55.71
785.388	56.18
785.701	56.54
786.014	56.69
786.327	56.89
786.64	57
786.953	56.94
787.266	56.51
787.578	56.97
787.891	56.78
788.204	56.78
788.516	56.87
788.829	56.83
789.141	56.25
789.454	56.33
789.766	56.33
790.079	56.6
790.391	56.65
790.703	56.72
791.016	57.38
791.328	58.04
791.64	58.11
791.952	57.62
792.264	57.2
792.576	57.58
792.888	57.69
793.2	57.93
793.512	57.87
793.824	57.94
794.136	58.08
794.448	58.47
794.76	58.64
795.071	58.33
795.383	59
795.695	59.38
796.006	59.26
796.318	59.42
796.629	59.14
796.941	59.24
797.252	59.44
797.564	58.99
797.875	58.71
798.186	58.57
798.497	57.86
798.809	58.2
799.12	57.9
799.431	57.73
799.742	57.47
800.053	57.64
800.364	57.85
800.675	57.66
800.986	57.82
801.297	57.57
801.608	57.91
801.918	57.29
802.229	57.57
802.54	57.63
802.851	56.83
803.161	57.05
803.472	57.34
803.782	57.01
804.093	56.8
804.403	56.87
804.714	57.87
805.024	58.79
805.334	58.62
805.645	59.23
805.955	59.15
806.265	59.3
806.575	60.15
806.885	59.7
807.195	59.56
807.505	59.22
807.815	58.95
808.125	58.73
808.435	59.3
808.745	58.63
809.055	58.24
809.365	58.27
809.674	58.37
809.984	58.1
810.294	57.96
810.603	58.01
810.913	58.1
811.222	56.86
811.532	56.02
811.841	56.29
812.151	55.93
812.46	56.23
812.769	56.47
813.079	55.4
813.388	56.05
813.697	56.29
814.006	56.29
814.315	56.33
814.624	56.08
814.933	55.11
815.242	55.78
815.551	56.17
815.86	57.21
816.169	57.01
816.478	57.05
816.786	57.51
817.095	57.3
817.404	56.69
817.712	56.85
818.021	57.64
818.33	57.43
818.638	57.48
818.947	57.73
819.255	57.48
819.563	58.01
819.872	57.92
820.18	57.83
820.488	57.58
820.796	57.72
821.105	58.29
821.413	58.39
821.721	58.27
822.029	58.31
822.337	58.36
822.645	58.36
822.953	58.26
823.26	58.17
823.568	58.43
823.876	58.47
824.184	58.63
824.491	58.58
824.799	58.76
825.107	58.61
825.414	58.45
825.722	58.56
826.029	58.46
826.337	58.31
826.644	58.26
826.951	58.61
827.259	58.74
827.566	58.49
827.873	58.56
828.18	58.81
828.488	58.65
828.795	58.43
829.102	58.49
829.409	58.77
829.716	59.04
830.023	58.84
830.329	59.12
830.636	59.19
830.943	59.29
831.25	58.92
831.557	58.92
831.863	59.1
832.17	59.33
832.476	59.09
832.783	59.37
833.089	59.36
833.396	59.05
833.702	58.48
834.009	58.4
834.315	58.32
834.621	57.73
834.928	58.37
835.234	58.41
835.54	58.2
835.846	57.82
836.152	57.25
836.458	57.04
836.764	56.94
837.07	56.59
837.376	56.28
837.682	56.32
837.988	56.84
838.293	56.91
838.599	56.69
838.905	56.72
839.211	56.97
839.516	57.09
839.822	56.98
840.127	57.27
840.433	57.59
840.738	57.68
841.044	57.67
841.349	57.42
841.654	56.25
841.959	57.01
842.265	57.46
842.57	58.43
842.875	58.55
843.18	58.92
843.485	59.38
843.79	59.92
844.095	59.63
844.4	59.49
844.705	58.95
845.01	58.48
845.315	58.84
845.619	58.56
845.924	57.61
846.229	57.54
846.533	57.63
846.838	56
847.142	55.33
847.447	54.89
847.751	54.41
848.056	56.45
848.36	55.65
848.664	56.07
848.969	53.45
849.273	53.34
849.577	53.86
849.881	54.4
850.185	53.74
850.489	54.27
850.794	54.71
851.097	55.13
851.401	53.91
851.705	54.56
852.009	54.42
852.313	56.53
852.617	56.15
852.92	56.08
853.224	59.03
853.528	61.4
853.831	63.14
854.135	64.14
854.438	63.2
854.742	62.94
855.045	61.94
855.349	63.12
855.652	62.07
855.955	61.34
856.259	60.66
856.562	60.34
856.865	60.52
857.168	57.62
857.471	56.85
857.774	56.81
858.077	56.09
858.38	55.27
858.683	55.34
858.986	55.57
859.289	54.2
859.592	54.12
859.894	50.37
860.197	49.39
860.5	49.43
860.802	50.32
861.105	51.12
861.407	51.65
861.71	53.12
862.012	54.42
862.315	53.55
862.617	52.68
862.919	52.89
863.222	53.77
863.524	54.29
863.826	53.95
864.128	55.37
864.43	56.73
864.732	55.96
865.034	55.56
865.336	55.49
865.638	56.25
865.94	54.92
866.242	56.83
866.544	56.41
866.846	56.81
867.147	56.08
867.449	55.4
867.751	57.35
868.052	57.32
868.354	59.3
868.655	57.32
868.957	56.15
869.258	55.91
869.56	55.31
869.861	55.16
870.162	54.1
870.463	52.69
870.765	51.19
871.066	51.51
871.367	52.07
871.668	53.71
871.969	54.41
872.27	54.93
872.571	55.06
872.872	54.97
873.173	52.11
873.473	53.07
873.774	53.11
874.075	51.99
874.376	51.52
874.676	48.12
874.977	50.31
875.277	52.38
875.578	52.95
875.878	52.66
876.179	53.5
876.479	55.56
876.78	56.64
877.08	56.99
877.38	58.3
877.68	57.46
877.981	55.83
878.281	56.42
878.581	55.27
