Data from BA48648_Reflection_00001.txt Node
Date: Tue Nov 19 11:44:20 EST 2019
User: vgr7
Spectrometer: USB2G7710
Scans to average: 3
Trigger mode: 4
Integration Time (sec): 2.000000E-2
Electric dark correction enabled: true
Boxcar width: 10
XAxis mode: Wavelengths
Number of Pixels in Spectrum: 2048
>>>>>Begin Spectral Data<<<<<
177.721	-124.12
178.105	-51.69
178.488	-46.8
178.871	-48.24
179.254	-42.37
179.636	129.22
180.019	-143.24
180.402	66.67
180.785	676
181.168	-250.65
181.55	-101.79
181.933	-65.14
182.316	-393.15
182.698	-139.2
183.081	290.75
183.463	113.91
183.846	155.66
184.228	103.94
184.611	81.37
184.993	75.09
185.376	75.89
185.758	58.43
186.14	51.54
186.522	47.74
186.904	43.79
187.287	44.42
187.669	30.33
188.051	34.53
188.433	28.67
188.815	22.93
189.197	22.92
189.579	24.46
189.961	24.41
190.342	15.23
190.724	1.58
191.106	8.59
191.488	1.01
191.869	17.62
192.251	20.41
192.633	25.39
193.014	26.94
193.396	25.83
193.777	35.12
194.159	37.61
194.54	36.4
194.922	35.27
195.303	34.65
195.684	37.35
196.065	42.56
196.447	49.98
196.828	41.55
197.209	31.98
197.59	33.31
197.971	34.5
198.352	44.53
198.733	47.49
199.114	37.7
199.495	38.96
199.876	34.37
200.257	35.46
200.638	38.97
201.018	36.76
201.399	35.39
201.78	35.2
202.16	34.7
202.541	35.04
202.922	30.74
203.302	29.11
203.683	24.39
204.063	18.31
204.444	22.83
204.824	32.75
205.204	41.27
205.585	33.31
205.965	32.05
206.345	35.31
206.725	38.59
207.106	45.93
207.486	46.29
207.866	40.14
208.246	30.75
208.626	24.7
209.006	28.87
209.386	29.08
209.766	25.08
210.145	29.11
210.525	29.13
210.905	36.32
211.285	36.85
211.664	41.25
212.044	43.12
212.424	34.16
212.803	25.93
213.183	33.18
213.562	47.54
213.942	50.57
214.321	44.52
214.701	43.81
215.08	37.48
215.459	36.82
215.838	42.41
216.218	53.82
216.597	63.71
216.976	63.4
217.355	60.9
217.734	74.99
218.113	69.91
218.492	78.58
218.871	75.28
219.25	77.35
219.629	84.08
220.008	86.66
220.387	112.63
220.766	113.4
221.144	102.06
221.523	76.58
221.902	63.59
222.28	61.47
222.659	62.72
223.037	64.79
223.416	63.61
223.794	61.41
224.173	55.91
224.551	47.09
224.929	38.53
225.308	36.3
225.686	29.89
226.064	23.35
226.442	19.04
226.821	19.17
227.199	15.76
227.577	13.88
227.955	14.53
228.333	8.93
228.711	9.83
229.089	7.5
229.467	8.33
229.845	10.65
230.222	11.18
230.6	7.58
230.978	8.74
231.356	6.52
231.733	6.33
232.111	6.1
232.488	6.75
232.866	9.37
233.243	10.08
233.621	11.19
233.998	12.03
234.376	11.59
234.753	8.62
235.13	8.14
235.508	8.55
235.885	7.37
236.262	8.39
236.639	6.14
237.016	3.75
237.393	4.27
237.77	3.74
238.147	3.61
238.524	5.16
238.901	4.01
239.278	4.61
239.655	4.32
240.032	4.21
240.409	4.29
240.785	3.97
241.162	4.03
241.539	3.78
241.915	3.94
242.292	4.28
242.668	4.92
243.045	5.17
243.421	5.4
243.798	5.66
244.174	5.81
244.551	6.16
244.927	6.4
245.303	6.36
245.679	6.28
246.056	6.27
246.432	6.37
246.808	6.56
247.184	6.34
247.56	6.22
247.936	6.27
248.312	6.32
248.688	5.95
249.064	6.03
249.44	5.99
249.815	6.19
250.191	6.23
250.567	6.13
250.943	6.15
251.318	6.09
251.694	5.81
252.069	5.69
252.445	5.26
252.82	5.71
253.196	5.38
253.571	5.63
253.947	5.62
254.322	5.32
254.697	5.58
255.073	5.63
255.448	6.07
255.823	6.13
256.198	5.88
256.573	6.07
256.948	5.88
257.323	5.66
257.698	5.36
258.073	5.23
258.448	5.27
258.823	5.1
259.198	5.12
259.573	5.07
259.948	5.09
260.322	5.23
260.697	5.06
261.072	5.1
261.446	5.05
261.821	5.04
262.195	4.85
262.57	4.77
262.944	4.87
263.319	4.77
263.693	4.6
264.067	4.48
264.442	4.44
264.816	4.29
265.19	4.36
265.564	4.42
265.938	4.47
266.313	4.35
266.687	4.51
267.061	4.42
267.435	4.67
267.809	4.49
268.183	4.48
268.556	4.42
268.93	4.5
269.304	4.42
269.678	4.35
270.051	4.49
270.425	4.34
270.799	4.18
271.172	4.12
271.546	4.34
271.919	4.54
272.293	4.54
272.666	4.73
273.04	4.77
273.413	4.69
273.787	4.52
274.16	4.52
274.533	4.51
274.906	4.48
275.279	4.35
275.653	4.51
276.026	4.45
276.399	4.37
276.772	4.42
277.145	4.41
277.518	4.3
277.891	4.32
278.263	4.46
278.636	4.74
279.009	4.87
279.382	4.67
279.755	4.58
280.127	4.71
280.5	4.49
280.872	4.67
281.245	4.72
281.617	4.73
281.99	4.81
282.362	4.68
282.735	4.52
283.107	4.38
283.479	4.3
283.852	4.42
284.224	4.52
284.596	4.48
284.968	4.42
285.34	4.56
285.713	4.63
286.085	4.53
286.457	4.3
286.829	4.22
287.201	4.21
287.572	4.24
287.944	4.2
288.316	4.37
288.688	4.29
289.06	4.27
289.431	4.32
289.803	4.28
290.175	4.41
290.546	4.59
290.918	4.67
291.289	4.68
291.661	4.65
292.032	4.58
292.403	4.76
292.775	5.03
293.146	5.09
293.517	5.02
293.889	5.1
294.26	5.29
294.631	5.34
295.002	5.3
295.373	5.38
295.744	5.45
296.115	5.41
296.486	5.5
296.857	5.57
297.228	5.59
297.599	5.53
297.97	5.6
298.34	5.6
298.711	5.75
299.082	5.8
299.452	5.84
299.823	5.95
300.194	5.89
300.564	5.72
300.935	5.64
301.305	5.62
301.676	5.59
302.046	5.51
302.416	5.5
302.787	5.58
303.157	5.48
303.527	5.45
303.897	5.52
304.267	5.42
304.637	5.49
305.008	5.59
305.378	5.67
305.748	5.59
306.117	5.47
306.487	5.5
306.857	5.49
307.227	5.55
307.597	5.41
307.967	5.41
308.336	5.4
308.706	5.54
309.076	5.66
309.445	5.82
309.815	5.8
310.184	5.68
310.554	5.79
310.923	5.82
311.293	5.75
311.662	5.72
312.031	5.69
312.401	5.59
312.77	5.59
313.139	5.5
313.508	5.46
313.877	5.66
314.246	5.56
314.616	5.57
314.985	5.49
315.353	5.66
315.722	5.73
316.091	5.77
316.46	5.9
316.829	5.93
317.198	5.83
317.567	6.02
317.935	6.28
318.304	6.37
318.672	6.38
319.041	6.44
319.41	6.46
319.778	6.5
320.147	6.53
320.515	6.35
320.883	6.42
321.252	6.48
321.62	6.21
321.988	6.43
322.357	6.33
322.725	6.4
323.093	6.31
323.461	6.14
323.829	6.13
324.197	6.05
324.565	6.06
324.933	6.03
325.301	5.79
325.669	5.75
326.037	5.54
326.405	5.51
326.772	5.59
327.14	5.51
327.508	5.55
327.875	5.52
328.243	5.57
328.61	5.61
328.978	5.52
329.346	5.79
329.713	5.73
330.08	5.83
330.448	5.82
330.815	5.81
331.182	5.98
331.55	5.88
331.917	5.78
332.284	5.76
332.651	5.76
333.018	6.05
333.385	5.96
333.752	6.12
334.119	6.19
334.486	6.11
334.853	6.16
335.22	6.08
335.587	6.18
335.954	6.12
336.32	6.11
336.687	6.15
337.054	6.02
337.42	5.93
337.787	5.9
338.153	5.82
338.52	5.88
338.886	5.88
339.253	5.92
339.619	5.86
339.986	5.82
340.352	5.79
340.718	5.74
341.084	5.82
341.451	5.85
341.817	5.84
342.183	5.83
342.549	5.82
342.915	5.79
343.281	5.79
343.647	5.8
344.013	5.83
344.379	5.81
344.745	5.9
345.11	5.8
345.476	5.87
345.842	5.84
346.208	5.86
346.573	5.7
346.939	5.78
347.304	5.94
347.67	5.92
348.035	5.89
348.401	5.85
348.766	5.83
349.132	5.75
349.497	5.73
349.862	5.79
350.228	5.79
350.593	5.86
350.958	5.9
351.323	5.99
351.688	5.97
352.053	5.99
352.418	5.97
352.783	6.03
353.148	5.95
353.513	5.99
353.878	5.98
354.243	6.04
354.608	6.08
354.972	5.99
355.337	6.01
355.702	6.09
356.066	6.16
356.431	6.13
356.795	6.16
357.16	6.18
357.524	6.2
357.889	6.19
358.253	6.12
358.618	6.09
358.982	6.05
359.346	6
359.71	6.07
360.075	6.04
360.439	6.07
360.803	6.13
361.167	6.16
361.531	6.14
361.895	6.12
362.259	6.08
362.623	6.1
362.987	6.12
363.351	6.07
363.714	6.05
364.078	6.07
364.442	6.1
364.806	6.15
365.169	6.14
365.533	6.2
365.896	6.28
366.26	6.25
366.623	6.25
366.987	6.3
367.35	6.23
367.714	6.28
368.077	6.25
368.44	6.24
368.803	6.19
369.167	6.17
369.53	6.19
369.893	6.16
370.256	6.14
370.619	6.09
370.982	6.1
371.345	6.07
371.708	6.1
372.071	6.06
372.434	5.92
372.797	5.94
373.159	5.92
373.522	5.9
373.885	5.95
374.247	5.95
374.61	5.96
374.973	6
375.335	6
375.698	6.04
376.06	6.06
376.423	6.07
376.785	6.16
377.147	6.23
377.51	6.27
377.872	6.25
378.234	6.33
378.596	6.37
378.958	6.36
379.321	6.31
379.683	6.35
380.045	6.39
380.407	6.37
380.769	6.37
381.13	6.38
381.492	6.38
381.854	6.37
382.216	6.36
382.578	6.37
382.939	6.35
383.301	6.34
383.663	6.31
384.024	6.39
384.386	6.28
384.747	6.22
385.109	6.27
385.47	6.35
385.832	6.32
386.193	6.29
386.554	6.24
386.916	6.29
387.277	6.25
387.638	6.29
387.999	6.29
388.36	6.3
388.721	6.3
389.082	6.26
389.443	6.3
389.804	6.3
390.165	6.31
390.526	6.32
390.887	6.29
391.248	6.3
391.609	6.28
391.969	6.34
392.33	6.31
392.691	6.27
393.051	6.24
393.412	6.24
393.772	6.24
394.133	6.3
394.493	6.25
394.854	6.26
395.214	6.24
395.574	6.25
395.935	6.24
396.295	6.23
396.655	6.23
397.015	6.23
397.376	6.26
397.736	6.23
398.096	6.25
398.456	6.27
398.816	6.27
399.176	6.24
399.535	6.23
399.895	6.24
400.255	6.24
400.615	6.24
400.975	6.23
401.334	6.26
401.694	6.28
402.054	6.27
402.413	6.26
402.773	6.25
403.132	6.23
403.492	6.21
403.851	6.22
404.211	6.25
404.57	6.25
404.929	6.26
405.288	6.26
405.648	6.24
406.007	6.24
406.366	6.25
406.725	6.25
407.084	6.27
407.443	6.28
407.802	6.29
408.161	6.27
408.52	6.3
408.879	6.28
409.238	6.28
409.596	6.32
409.955	6.35
410.314	6.35
410.673	6.34
411.031	6.31
411.39	6.33
411.748	6.33
412.107	6.33
412.465	6.31
412.824	6.29
413.182	6.29
413.54	6.32
413.899	6.32
414.257	6.32
414.615	6.3
414.974	6.29
415.332	6.3
415.69	6.32
416.048	6.32
416.406	6.31
416.764	6.29
417.122	6.27
417.48	6.29
417.838	6.29
418.195	6.31
418.553	6.34
418.911	6.33
419.269	6.33
419.626	6.36
419.984	6.37
420.342	6.37
420.699	6.36
421.057	6.34
421.414	6.34
421.772	6.34
422.129	6.33
422.486	6.33
422.844	6.33
423.201	6.32
423.558	6.32
423.915	6.33
424.273	6.34
424.63	6.35
424.987	6.33
425.344	6.34
425.701	6.33
426.058	6.35
426.415	6.36
426.772	6.35
427.128	6.32
427.485	6.3
427.842	6.33
428.199	6.34
428.555	6.35
428.912	6.34
429.269	6.34
429.625	6.35
429.982	6.36
430.338	6.38
430.695	6.36
431.051	6.36
431.407	6.34
431.764	6.34
432.12	6.35
432.476	6.38
432.832	6.36
433.189	6.35
433.545	6.34
433.901	6.34
434.257	6.35
434.613	6.35
434.969	6.37
435.325	6.36
435.681	6.35
436.036	6.35
436.392	6.35
436.748	6.36
437.104	6.35
437.459	6.35
437.815	6.34
438.171	6.37
438.526	6.37
438.882	6.38
439.237	6.39
439.593	6.4
439.948	6.38
440.304	6.41
440.659	6.42
441.014	6.4
441.369	6.4
441.725	6.4
442.08	6.39
442.435	6.4
442.79	6.41
443.145	6.41
443.5	6.4
443.855	6.4
444.21	6.42
444.565	6.43
444.92	6.44
445.275	6.45
445.629	6.44
445.984	6.43
446.339	6.44
446.693	6.43
447.048	6.42
447.403	6.43
447.757	6.41
448.112	6.4
448.466	6.4
448.82	6.38
449.175	6.38
449.529	6.38
449.883	6.37
450.238	6.37
450.592	6.38
450.946	6.4
451.3	6.41
451.654	6.4
452.008	6.4
452.362	6.4
452.716	6.41
453.07	6.4
453.424	6.42
453.778	6.41
454.132	6.42
454.486	6.45
454.839	6.44
455.193	6.46
455.547	6.47
455.9	6.5
456.254	6.54
456.607	6.54
456.961	6.54
457.314	6.52
457.668	6.51
458.021	6.52
458.375	6.51
458.728	6.52
459.081	6.52
459.434	6.53
459.787	6.53
460.141	6.52
460.494	6.54
460.847	6.53
461.2	6.53
461.553	6.53
461.906	6.54
462.259	6.52
462.611	6.52
462.964	6.52
463.317	6.52
463.67	6.51
464.022	6.51
464.375	6.52
464.728	6.53
465.08	6.54
465.433	6.54
465.785	6.55
466.138	6.55
466.49	6.55
466.843	6.55
467.195	6.54
467.547	6.54
467.899	6.52
468.252	6.52
468.604	6.54
468.956	6.54
469.308	6.53
469.66	6.55
470.012	6.54
470.364	6.55
470.716	6.54
471.068	6.55
471.42	6.54
471.772	6.54
472.123	6.55
472.475	6.56
472.827	6.55
473.178	6.54
473.53	6.53
473.882	6.51
474.233	6.52
474.585	6.52
474.936	6.5
475.288	6.49
475.639	6.48
475.99	6.46
476.342	6.45
476.693	6.43
477.044	6.43
477.395	6.44
477.746	6.43
478.097	6.43
478.448	6.41
478.8	6.42
479.15	6.44
479.501	6.45
479.852	6.49
480.203	6.5
480.554	6.51
480.905	6.52
481.255	6.55
481.606	6.56
481.957	6.58
482.307	6.62
482.658	6.64
483.009	6.65
483.359	6.68
483.709	6.69
484.06	6.71
484.41	6.72
484.761	6.73
485.111	6.74
485.461	6.76
485.811	6.78
486.162	6.79
486.512	6.8
486.862	6.82
487.212	6.81
487.562	6.82
487.912	6.83
488.262	6.85
488.612	6.86
488.961	6.85
489.311	6.86
489.661	6.85
490.011	6.86
490.36	6.86
490.71	6.85
491.06	6.85
491.409	6.86
491.759	6.86
492.108	6.86
492.458	6.85
492.807	6.86
493.157	6.86
493.506	6.86
493.855	6.85
494.204	6.85
494.554	6.86
494.903	6.86
495.252	6.86
495.601	6.85
495.95	6.83
496.299	6.87
496.648	6.87
496.997	6.87
497.346	6.87
497.695	6.88
498.043	6.91
498.392	6.91
498.741	6.92
499.09	6.94
499.438	6.95
499.787	6.97
500.135	6.96
500.484	6.94
500.832	6.95
501.181	6.97
501.529	6.96
501.878	6.98
502.226	7
502.574	7.04
502.923	7.04
503.271	7.06
503.619	7.07
503.967	7.06
504.315	7.08
504.663	7.1
505.011	7.11
505.359	7.07
505.707	7.08
506.055	7.06
506.403	7.08
506.751	7.07
507.098	7.05
507.446	7.07
507.794	7.09
508.141	7.12
508.489	7.12
508.837	7.14
509.184	7.13
509.531	7.13
509.879	7.11
510.226	7.12
510.574	7.11
510.921	7.11
511.268	7.14
511.616	7.14
511.963	7.13
512.31	7.13
512.657	7.15
513.004	7.15
513.351	7.16
513.698	7.12
514.045	7.13
514.392	7.15
514.739	7.15
515.086	7.15
515.432	7.13
515.779	7.13
516.126	7.11
516.473	7.12
516.819	7.12
517.166	7.14
517.512	7.14
517.859	7.15
518.205	7.14
518.552	7.15
518.898	7.14
519.245	7.17
519.591	7.19
519.937	7.19
520.283	7.22
520.629	7.24
520.976	7.27
521.322	7.29
521.668	7.29
522.014	7.27
522.36	7.28
522.706	7.28
523.052	7.32
523.398	7.33
523.743	7.33
524.089	7.37
524.435	7.35
524.781	7.38
525.126	7.37
525.472	7.38
525.817	7.38
526.163	7.39
526.509	7.39
526.854	7.4
527.199	7.42
527.545	7.43
527.89	7.41
528.235	7.42
528.581	7.42
528.926	7.43
529.271	7.44
529.616	7.46
529.961	7.46
530.306	7.45
530.651	7.45
530.996	7.46
531.341	7.46
531.686	7.47
532.031	7.47
532.376	7.48
532.721	7.48
533.065	7.49
533.41	7.5
533.755	7.51
534.099	7.5
534.444	7.48
534.788	7.47
535.133	7.49
535.477	7.49
535.822	7.5
536.166	7.51
536.51	7.51
536.855	7.49
537.199	7.51
537.543	7.5
537.887	7.5
538.231	7.5
538.576	7.49
538.92	7.51
539.264	7.51
539.608	7.52
539.951	7.53
540.295	7.55
540.639	7.53
540.983	7.53
541.327	7.53
541.671	7.55
542.014	7.55
542.358	7.56
542.701	7.59
543.045	7.57
543.389	7.57
543.732	7.58
544.075	7.6
544.419	7.61
544.762	7.63
545.105	7.64
545.449	7.66
545.792	7.66
546.135	7.65
546.478	7.65
546.821	7.65
547.165	7.65
547.508	7.64
547.851	7.64
548.194	7.62
548.536	7.64
548.879	7.62
549.222	7.61
549.565	7.6
549.908	7.59
550.25	7.58
550.593	7.58
550.936	7.57
551.278	7.55
551.621	7.55
551.963	7.54
552.306	7.56
552.648	7.57
552.991	7.58
553.333	7.6
553.675	7.6
554.017	7.61
554.36	7.64
554.702	7.63
555.044	7.65
555.386	7.65
555.728	7.64
556.07	7.66
556.412	7.67
556.754	7.7
557.096	7.7
557.438	7.74
557.78	7.77
558.121	7.78
558.463	7.79
558.805	7.76
559.147	7.77
559.488	7.77
559.83	7.77
560.171	7.75
560.513	7.75
560.854	7.75
561.196	7.73
561.537	7.73
561.878	7.76
562.22	7.76
562.561	7.8
562.902	7.84
563.243	7.85
563.584	7.82
563.925	7.82
564.266	7.83
564.607	7.81
564.948	7.78
565.289	7.79
565.63	7.8
565.971	7.84
566.312	7.83
566.653	7.82
566.993	7.8
567.334	7.79
567.675	7.78
568.015	7.77
568.356	7.77
568.696	7.77
569.037	7.75
569.377	7.72
569.718	7.7
570.058	7.69
570.398	7.7
570.739	7.71
571.079	7.72
571.419	7.71
571.759	7.73
572.099	7.76
572.439	7.73
572.779	7.74
573.119	7.73
573.459	7.75
573.799	7.72
574.139	7.74
574.479	7.76
574.819	7.79
575.158	7.79
575.498	7.82
575.838	7.79
576.177	7.82
576.517	7.82
576.856	7.85
577.196	7.86
577.535	7.87
577.875	7.87
578.214	7.87
578.553	7.85
578.893	7.85
579.232	7.85
579.571	7.89
579.91	7.93
580.25	7.95
580.589	7.95
580.928	7.99
581.267	7.97
581.606	8.01
581.945	7.96
582.283	7.98
582.622	7.98
582.961	8.02
583.3	8.01
583.639	8.06
583.977	8.08
584.316	8.1
584.654	8.12
584.993	8.14
585.332	8.13
585.67	8.15
586.008	8.15
586.347	8.14
586.685	8.1
587.024	8.06
587.362	8.05
587.7	8.07
588.038	8.08
588.376	8.13
588.715	8.11
589.053	8.15
589.391	8.14
589.729	8.16
590.067	8.15
590.404	8.18
590.742	8.16
591.08	8.18
591.418	8.13
591.756	8.12
592.093	8.1
592.431	8.09
592.769	8.13
593.106	8.09
593.444	8.07
593.781	8.1
594.119	8.12
594.456	8.11
594.793	8.11
595.131	8.11
595.468	8.16
595.805	8.16
596.143	8.2
596.48	8.2
596.817	8.15
597.154	8.15
597.491	8.14
597.828	8.14
598.165	8.12
598.502	8.15
598.839	8.17
599.176	8.21
599.512	8.26
599.849	8.25
600.186	8.28
600.523	8.32
600.859	8.31
601.196	8.3
601.532	8.31
601.869	8.33
602.205	8.31
602.542	8.25
602.878	8.28
603.215	8.28
603.551	8.31
603.887	8.34
604.223	8.35
604.56	8.37
604.896	8.38
605.232	8.36
605.568	8.33
605.904	8.32
606.24	8.3
606.576	8.27
606.912	8.3
607.248	8.34
607.583	8.35
607.919	8.37
608.255	8.4
608.591	8.44
608.926	8.4
609.262	8.41
609.597	8.42
609.933	8.42
610.268	8.44
610.604	8.4
610.939	8.44
611.275	8.46
611.61	8.45
611.945	8.44
612.281	8.47
612.616	8.54
612.951	8.59
613.286	8.6
613.621	8.62
613.956	8.59
614.291	8.56
614.626	8.54
614.961	8.54
615.296	8.53
615.631	8.54
615.966	8.61
616.3	8.66
616.635	8.65
616.97	8.67
617.304	8.64
617.639	8.68
617.973	8.65
618.308	8.67
618.642	8.65
618.977	8.67
619.311	8.69
619.646	8.64
619.98	8.61
620.314	8.65
620.648	8.65
620.983	8.65
621.317	8.73
621.651	8.74
621.985	8.75
622.319	8.78
622.653	8.76
622.987	8.75
623.321	8.79
623.655	8.79
623.988	8.78
624.322	8.76
624.656	8.74
624.99	8.77
625.323	8.76
625.657	8.83
625.99	8.86
626.324	8.83
626.657	8.83
626.991	8.81
627.324	8.81
627.658	8.77
627.991	8.81
628.324	8.78
628.657	8.79
628.991	8.82
629.324	8.77
629.657	8.79
629.99	8.82
630.323	8.76
630.656	8.74
630.989	8.73
631.322	8.73
631.655	8.75
631.987	8.74
632.32	8.77
632.653	8.77
632.986	8.74
633.318	8.77
633.651	8.76
633.984	8.79
634.316	8.81
634.649	8.86
634.981	8.83
635.313	8.85
635.646	8.87
635.978	8.94
636.31	9.01
636.643	9.03
636.975	8.99
637.307	9.04
637.639	9.09
637.971	9.08
638.303	9.07
638.635	9.11
638.967	9.11
639.299	9.06
639.631	9
639.963	9.01
640.295	9.05
640.626	9.06
640.958	9.1
641.29	9.05
641.621	9.05
641.953	9.06
642.285	9.03
642.616	9.03
642.948	8.96
643.279	8.94
643.61	8.93
643.942	8.97
644.273	8.96
644.604	8.96
644.936	9.01
645.267	9.06
645.598	9.03
645.929	9.07
646.26	9.07
646.591	9.12
646.922	9.15
647.253	9.08
647.584	9.12
647.915	9.14
648.245	9.12
648.576	9.11
648.907	9.14
649.238	9.1
649.568	9.02
649.899	8.97
650.229	9.02
650.56	9.1
650.89	9.1
651.221	9.13
651.551	9.2
651.882	9.2
652.212	9.19
652.542	9.26
652.872	9.2
653.203	9.31
653.533	9.31
653.863	9.31
654.193	9.28
654.523	9.2
654.853	9.19
655.183	9.25
655.513	9.21
655.843	9.22
656.172	9.23
656.502	9.29
656.832	9.28
657.162	9.22
657.491	9.12
657.821	9.11
658.15	9.09
658.48	9.06
658.809	9.08
659.139	9.09
659.468	9.08
659.798	9.18
660.127	9.14
660.456	9.11
660.785	9.13
661.115	9.19
661.444	9.23
661.773	9.22
662.102	9.2
662.431	9.29
662.76	9.3
663.089	9.29
663.418	9.38
663.747	9.39
664.076	9.42
664.404	9.5
664.733	9.46
665.062	9.45
665.39	9.43
665.719	9.38
666.048	9.34
666.376	9.28
666.705	9.31
667.033	9.26
667.362	9.27
667.69	9.27
668.018	9.3
668.347	9.36
668.675	9.35
669.003	9.41
669.331	9.42
669.659	9.47
669.987	9.56
670.315	9.48
670.643	9.51
670.971	9.48
671.299	9.43
671.627	9.51
671.955	9.51
672.283	9.52
672.61	9.51
672.938	9.61
673.266	9.61
673.593	9.51
673.921	9.55
674.249	9.6
674.576	9.59
674.904	9.57
675.231	9.62
675.558	9.71
675.886	9.7
676.213	9.6
676.54	9.58
676.867	9.55
677.195	9.6
677.522	9.63
677.849	9.76
678.176	9.82
678.503	9.85
678.83	9.92
679.157	9.95
679.484	9.96
679.81	9.95
680.137	10.03
680.464	10.09
680.791	10.09
681.117	10.12
681.444	10.12
681.771	10.11
682.097	10.07
682.424	10.03
682.75	10.06
683.077	10.1
683.403	10.05
683.729	10.08
684.056	10.05
684.382	10.08
684.708	10.08
685.034	10.04
685.36	9.94
685.686	9.94
686.012	9.84
686.339	9.94
686.664	9.93
686.99	9.83
687.316	9.81
687.642	9.88
687.968	9.94
688.294	9.93
688.619	9.99
688.945	9.99
689.271	10.01
689.596	9.99
689.922	10.03
690.247	10.09
690.573	10.18
690.898	10.21
691.224	10.2
691.549	10.09
691.874	10.14
692.2	10.1
692.525	10.17
692.85	10.33
693.175	10.39
693.5	10.45
693.825	10.48
694.15	10.41
694.475	10.28
694.8	10.14
695.125	10.26
695.45	10.19
695.775	10.19
696.099	10.25
696.424	10.29
696.749	10.31
697.073	10.33
697.398	10.32
697.723	10.34
698.047	10.42
698.372	10.47
698.696	10.51
699.02	10.69
699.345	10.63
699.669	10.59
699.993	10.52
700.318	10.49
700.642	10.52
700.966	10.62
701.29	10.72
701.614	10.8
701.938	10.77
702.262	10.82
702.586	10.86
702.91	10.86
703.234	10.83
703.557	10.83
703.881	10.89
704.205	10.82
704.529	10.9
704.852	10.81
705.176	10.86
705.499	10.81
705.823	10.65
706.146	10.72
706.47	10.74
706.793	10.7
707.117	10.69
707.44	10.65
707.763	10.6
708.086	10.48
708.409	10.44
708.733	10.35
709.056	10.41
709.379	10.43
709.702	10.36
710.025	10.33
710.348	10.36
710.671	10.33
710.993	10.37
711.316	10.31
711.639	10.39
711.962	10.4
712.284	10.36
712.607	10.51
712.93	10.5
713.252	10.51
713.575	10.55
713.897	10.6
714.22	10.67
714.542	10.75
714.864	10.77
715.187	10.72
715.509	10.75
715.831	10.81
716.153	10.84
716.475	10.85
716.798	10.94
717.12	10.99
717.442	10.97
717.764	10.97
718.085	11.02
718.407	10.99
718.729	10.82
719.051	10.87
719.373	10.79
719.695	10.75
720.016	10.74
720.338	10.8
720.659	10.81
720.981	10.82
721.302	10.87
721.624	10.95
721.945	11.02
722.267	11.09
722.588	11.01
722.909	11.02
723.231	11.03
723.552	11
723.873	10.88
724.194	10.75
724.515	10.61
724.836	10.56
725.157	10.52
725.478	10.53
725.799	10.63
726.12	10.54
726.441	10.57
726.762	10.78
727.083	10.81
727.403	10.84
727.724	10.84
728.045	10.81
728.365	10.86
728.686	10.92
729.006	10.97
729.327	11.04
729.647	10.94
729.967	10.97
730.288	10.91
730.608	11.16
730.928	11.41
731.249	11.75
731.569	11.71
731.889	11.75
732.209	11.9
732.529	11.82
732.849	11.9
733.169	11.74
733.489	11.51
733.809	11.56
734.129	11.63
734.448	11.71
734.768	11.82
735.088	11.95
735.408	11.9
735.727	11.89
736.047	12.02
736.366	12.14
736.686	12.28
737.005	12.43
737.325	12.3
737.644	11.89
737.963	11.85
738.283	11.92
738.602	11.88
738.921	11.82
739.24	11.86
739.56	12
739.879	11.99
740.198	12.09
740.517	12.03
740.836	11.96
741.155	12.01
741.473	11.83
741.792	11.69
742.111	11.81
742.43	11.86
742.748	11.65
743.067	11.69
743.386	11.54
743.704	11.52
744.023	11.67
744.341	12.12
744.66	11.73
744.978	11.77
745.297	11.95
745.615	11.92
745.933	11.94
746.252	11.79
746.57	12.26
746.888	12.38
747.206	12.23
747.524	12.15
747.842	12.08
748.16	12.31
748.478	12.3
748.796	12.48
749.114	12.41
749.432	12.64
749.749	12.41
750.067	12.36
750.385	12.31
750.703	12.22
751.02	11.96
751.338	12.02
751.655	12.18
751.973	12.37
752.29	12.42
752.608	12.49
752.925	12.74
753.242	12.63
753.56	12.42
753.877	12.58
754.194	12.66
754.511	12.66
754.828	12.47
755.145	12.6
755.462	12.39
755.779	12.43
756.096	12.18
756.413	12.43
756.73	12.55
757.047	12.44
757.364	12.42
757.68	12.55
757.997	12.69
758.314	12.72
758.63	12.43
758.947	12.46
759.264	12.5
759.58	12.34
759.896	12.42
760.213	12.34
760.529	12.27
760.846	12.13
761.162	12.08
761.478	12.17
761.794	12.08
762.11	12.11
762.426	12.21
762.743	12.32
763.059	12.4
763.375	12.46
763.69	12.47
764.006	12.39
764.322	12.57
764.638	12.72
764.954	12.54
765.27	12.67
765.585	12.64
765.901	12.59
766.216	12.73
766.532	12.57
766.848	12.73
767.163	12.63
767.478	12.69
767.794	12.93
768.109	12.85
768.424	12.87
768.74	12.7
769.055	12.87
769.37	12.83
769.685	12.93
770	12.85
770.315	13.18
770.63	13.18
770.945	13.33
771.26	13.22
771.575	13.26
771.89	13.34
772.205	13.26
772.52	13.33
772.834	13.17
773.149	13.49
773.464	13.38
773.778	13.73
774.093	14.25
774.407	14.12
774.722	14.41
775.036	14.58
775.351	15.26
775.665	14.83
775.979	14.78
776.293	14.58
776.608	14.54
776.922	14.47
777.236	14.85
777.55	14.29
777.864	14.41
778.178	14.63
778.492	14.41
778.806	14.64
779.12	14.71
779.434	14.87
779.747	14.47
780.061	14.98
780.375	14.88
780.689	14.39
781.002	14.72
781.316	14.52
781.629	14.3
781.943	13.76
782.256	13.99
782.57	13.85
782.883	13.62
783.196	13.59
783.51	13.17
783.823	12.91
784.136	13.17
784.449	13.11
784.762	13.08
785.075	13.4
785.388	13.59
785.701	13.27
786.014	13.18
786.327	13.23
786.64	13.05
786.953	12.98
787.266	13.15
787.578	12.65
787.891	12.46
788.204	12.62
788.516	12.88
788.829	12.95
789.141	13.54
789.454	13.85
789.766	14.16
790.079	14.66
790.391	14.42
790.703	14.33
791.016	14.65
791.328	14.2
791.64	14.1
791.952	13.73
792.264	13.51
792.576	13.51
792.888	14.11
793.2	14.15
793.512	14.26
793.824	14.32
794.136	14.57
794.448	15.11
794.76	15.26
795.071	15.16
795.383	15.21
795.695	15.23
796.006	15.02
796.318	14.8
796.629	14.7
796.941	15.07
797.252	15.04
797.564	14.67
797.875	14.84
798.186	14.7
798.497	14.88
798.809	15.36
799.12	15.24
799.431	14.78
799.742	14.68
800.053	14.88
800.364	14.79
800.675	14.68
800.986	14.55
801.297	14.47
801.608	14.46
801.918	14.22
802.229	14.28
802.54	14.55
802.851	14.72
803.161	14.63
803.472	14.92
803.782	15.43
804.093	15.94
804.403	16.44
804.714	16.7
805.024	16.51
805.334	16.27
805.645	16.62
805.955	17.03
806.265	16.96
806.575	16.51
806.885	16.82
807.195	16.9
807.505	16.63
807.815	16.16
808.125	16.03
808.435	16.22
808.745	15.76
809.055	15.9
809.365	15.93
809.674	15.95
809.984	15.95
810.294	15.96
810.603	15.15
810.913	14.8
811.222	14.63
811.532	14.67
811.841	15.08
812.151	14.67
812.46	14.07
812.769	13.82
813.079	14.6
813.388	14.31
813.697	14.23
814.006	14.87
814.315	15.63
814.624	15.78
814.933	16.18
815.242	15.73
815.551	15.51
815.86	16.12
816.169	16.26
816.478	16.54
816.786	16.06
817.095	16.76
817.404	16.66
817.712	16.67
818.021	17.13
818.33	16.92
818.638	16.91
818.947	16.62
819.255	16.59
819.563	16.33
819.872	16.11
820.18	15.96
820.488	15.83
820.796	15.9
821.105	16.03
821.413	15.76
821.721	15.73
822.029	15.71
822.337	15.61
822.645	15.54
822.953	15.5
823.26	15.62
823.568	15.39
823.876	15.58
824.184	15.53
824.491	15.55
824.799	15.59
825.107	15.5
825.414	15.57
825.722	15.6
826.029	15.46
826.337	15.44
826.644	15.57
826.951	15.47
827.259	15.43
827.566	15.45
827.873	15.57
828.18	15.82
828.488	16.02
828.795	15.92
829.102	16
829.409	15.76
829.716	16.03
830.023	16.15
830.329	15.99
830.636	16.23
830.943	16.47
831.25	16.48
831.557	16.69
831.863	17.06
832.17	17.27
832.476	17.75
832.783	17.99
833.089	17.82
833.396	18.03
833.702	18.24
834.009	17.85
834.315	17.87
834.621	17.85
834.928	17.48
835.234	17.6
835.54	17.62
835.846	17.8
836.152	17.14
836.458	17.39
836.764	17.37
837.07	17.21
837.376	17
837.682	16.83
837.988	16.81
838.293	16.41
838.599	16.48
838.905	16.11
839.211	16.03
839.516	15.8
839.822	15.37
840.127	14.94
840.433	15.07
840.738	15.54
841.044	14.9
841.349	15.05
841.654	14.1
841.959	14.9
842.265	14.82
842.57	15.22
842.875	15.8
843.18	15.32
843.485	15.2
843.79	14.17
844.095	14.44
844.4	14.95
844.705	15.19
845.01	15.45
845.315	15.67
845.619	16.72
845.924	18.08
846.229	19.91
846.533	19.38
846.838	18.66
847.142	17.4
847.447	18.76
847.751	18.53
848.056	19.94
848.36	18.68
848.664	18.89
848.969	17.96
849.273	16.99
849.577	17.79
849.881	19.88
850.185	21.36
850.489	22.08
850.794	23.07
851.097	23.04
851.401	21.32
851.705	21.49
852.009	20.25
852.313	18.6
852.617	17.6
852.92	19.3
853.224	20.12
853.528	19.14
853.831	18.46
854.135	19.32
854.438	17.73
854.742	17.58
855.045	16.94
855.349	17.98
855.652	18.36
855.955	18.71
856.259	17.54
856.562	18.17
856.865	18.81
857.168	17.06
857.471	17.23
857.774	18.17
858.077	18.36
858.38	17.93
858.683	18.24
858.986	18.8
859.289	17.6
859.592	19.27
859.894	20.07
860.197	18.99
860.5	19.87
860.802	21.47
861.105	21.89
861.407	23.02
861.71	23.38
862.012	23.18
862.315	23.7
862.617	21.42
862.919	21.27
863.222	21.14
863.524	22.39
863.826	22.37
864.128	22.37
864.43	24.62
864.732	25.93
865.034	26.87
865.336	25.11
865.638	24.76
865.94	25
866.242	27.13
866.544	30.28
866.846	31.36
867.147	33.79
867.449	33.45
867.751	32.58
868.052	29.93
868.354	30.62
868.655	30.01
868.957	31.29
869.258	27.83
869.56	25.91
869.861	24.51
870.162	25.12
870.463	25.61
870.765	24.28
871.066	23.77
871.367	23.19
871.668	25.1
871.969	26.9
872.27	25.43
872.571	23.24
872.872	22.25
873.173	19.31
873.473	17.25
873.774	17.43
874.075	19.45
874.376	19.44
874.676	18.8
874.977	18.46
875.277	19.12
875.578	22.43
875.878	23.5
876.179	24.62
876.479	24.17
876.78	23.76
877.08	22.68
877.38	22.39
877.68	23.26
877.981	21.82
878.281	20.44
878.581	21.95
