Data from BA48648_Reflection_00008.txt Node
Date: Tue Nov 19 11:44:37 EST 2019
User: vgr7
Spectrometer: USB2G7710
Scans to average: 3
Trigger mode: 4
Integration Time (sec): 2.000000E-2
Electric dark correction enabled: true
Boxcar width: 10
XAxis mode: Wavelengths
Number of Pixels in Spectrum: 2048
>>>>>Begin Spectral Data<<<<<
177.721	-175.88
178.105	-155.62
178.488	-106.4
178.871	-29.41
179.254	-13.56
179.636	-283.12
180.019	-2589.19
180.402	533.33
180.785	104
181.168	-107.79
181.55	43.95
181.933	122.94
182.316	52.05
182.698	128.24
183.081	-70.52
183.463	21.95
183.846	-15.96
184.228	-5.78
184.611	41.88
184.993	46.04
185.376	48.09
185.758	22.44
186.14	27.55
186.522	4.4
186.904	-8.8
187.287	-14.3
187.669	-11.09
188.051	-9.88
188.433	-19.02
188.815	-13.8
189.197	-25.75
189.579	-23.11
189.961	-29.07
190.342	-28.71
190.724	-33.16
191.106	-45.67
191.488	-49.88
191.869	-36.16
192.251	-35.51
192.633	-49.98
193.014	-56.26
193.396	-63.21
193.777	-68.5
194.159	-63.99
194.54	-55.05
194.922	-51.63
195.303	-51.88
195.684	-42.88
196.065	-54.17
196.447	-65.72
196.828	-63.92
197.209	-46.32
197.59	-43.96
197.971	-38.77
198.352	-36.07
198.733	-34.23
199.114	-35.71
199.495	-39.23
199.876	-40.04
200.257	-54.25
200.638	-48.19
201.018	-40.09
201.399	-32.38
201.78	-27.13
202.16	-27.93
202.541	-31.01
202.922	-17.44
203.302	-25.86
203.683	-19.06
204.063	-23.3
204.444	-19.99
204.824	-30.12
205.204	-21.09
205.585	-17
205.965	-22.52
206.345	-36.95
206.725	-28
207.106	-22.41
207.486	-13.15
207.866	-13.28
208.246	-2.01
208.626	-12.83
209.006	-17.94
209.386	-18.81
209.766	-24.75
210.145	-18.9
210.525	-22.05
210.905	-30.81
211.285	-18.92
211.664	-26.93
212.044	-21.77
212.424	-22.71
212.803	-26.39
213.183	-40.56
213.562	-40
213.942	-42.36
214.321	-37.04
214.701	-47.58
215.08	-46.24
215.459	-50.6
215.838	-57.64
216.218	-74.99
216.597	-65.39
216.976	-73.44
217.355	-78.99
217.734	-90.11
218.113	-89.73
218.492	-92.61
218.871	-86.21
219.25	-87.89
219.629	-99.89
220.008	-92.11
220.387	-90.53
220.766	-71.75
221.144	-51.43
221.523	-55.32
221.902	-48.08
222.28	-42.2
222.659	-35
223.037	-40.7
223.416	-43.87
223.794	-47.41
224.173	-37.92
224.551	-31.53
224.929	-29.4
225.308	-26.12
225.686	-23.7
226.064	-28.37
226.442	-20.2
226.821	-18.5
227.199	-21.97
227.577	-16.73
227.955	-15.74
228.333	-20.16
228.711	-17.42
229.089	-18.09
229.467	-17.18
229.845	-17.21
230.222	-14.31
230.6	-13.84
230.978	-12.84
231.356	-10.25
231.733	-6.07
232.111	-9.14
232.488	-9.34
232.866	-6.36
233.243	-6.56
233.621	-5.3
233.998	-4.32
234.376	-6.47
234.753	-6.34
235.13	-5.58
235.508	-4.24
235.885	-2.87
236.262	-1.51
236.639	-2.41
237.016	-2.92
237.393	-1.83
237.77	-0.58
238.147	-0.58
238.524	0.01
238.901	0.24
239.278	0.24
239.655	-0.04
240.032	0.1
240.409	0.82
240.785	0.56
241.162	0.92
241.539	1.02
241.915	1.35
242.292	2.04
242.668	2.17
243.045	2.25
243.421	2.33
243.798	2.29
244.174	2.69
244.551	2.93
244.927	3.05
245.303	3.01
245.679	3.14
246.056	2.92
246.432	2.67
246.808	3.03
247.184	2.88
247.56	2.59
247.936	2.92
248.312	2.68
248.688	2.69
249.064	2.93
249.44	2.99
249.815	3.09
250.191	2.88
250.567	2.82
250.943	3.06
251.318	2.73
251.694	2.56
252.069	2.5
252.445	2.36
252.82	2.14
253.196	2.05
253.571	2
253.947	2.1
254.322	2.48
254.697	2.21
255.073	2.32
255.448	2.67
255.823	2.59
256.198	2.69
256.573	2.76
256.948	2.64
257.323	2.7
257.698	2.47
258.073	2.71
258.448	2.74
258.823	2.68
259.198	2.91
259.573	2.81
259.948	2.92
260.322	2.8
260.697	3.03
261.072	3.19
261.446	3.07
261.821	2.99
262.195	2.94
262.57	2.98
262.944	2.89
263.319	2.8
263.693	2.8
264.067	2.77
264.442	2.7
264.816	2.6
265.19	2.33
265.564	2.38
265.938	2.12
266.313	2.09
266.687	1.9
267.061	1.85
267.435	1.97
267.809	1.49
268.183	1.66
268.556	1.36
268.93	1.27
269.304	1.43
269.678	1.65
270.051	1.57
270.425	1.68
270.799	1.63
271.172	1.74
271.546	1.86
271.919	2.01
272.293	1.89
272.666	1.96
273.04	2.08
273.413	2.04
273.787	2.14
274.16	2.1
274.533	2.14
274.906	2.15
275.279	2.19
275.653	2.54
276.026	2.57
276.399	2.61
276.772	2.56
277.145	2.61
277.518	2.43
277.891	2.47
278.263	2.58
278.636	2.75
279.009	2.58
279.382	2.52
279.755	2.41
280.127	2.65
280.5	2.72
280.872	2.78
281.245	2.87
281.617	2.73
281.99	2.86
282.362	2.99
282.735	2.84
283.107	2.86
283.479	2.77
283.852	2.82
284.224	3.05
284.596	3.1
284.968	2.92
285.34	2.97
285.713	2.98
286.085	2.82
286.457	2.84
286.829	2.99
287.201	2.89
287.572	2.89
287.944	3
288.316	2.9
288.688	2.98
289.06	2.92
289.431	3.09
289.803	3.12
290.175	3.07
290.546	3.18
290.918	3.08
291.289	3.06
291.661	3.05
292.032	2.82
292.403	2.72
292.775	2.85
293.146	2.89
293.517	2.86
293.889	3
294.26	3.01
294.631	3.01
295.002	3.11
295.373	3.15
295.744	2.93
296.115	3
296.486	3.02
296.857	3.17
297.228	3.15
297.599	3.2
297.97	3.28
298.34	3.39
298.711	3.48
299.082	3.5
299.452	3.47
299.823	3.64
300.194	3.69
300.564	3.58
300.935	3.57
301.305	3.6
301.676	3.41
302.046	3.34
302.416	3.27
302.787	3.16
303.157	3.14
303.527	3.34
303.897	3.48
304.267	3.5
304.637	3.4
305.008	3.41
305.378	3.32
305.748	3.29
306.117	3.12
306.487	3.13
306.857	3.24
307.227	3.32
307.597	3.3
307.967	3.47
308.336	3.61
308.706	3.71
309.076	3.91
309.445	4.17
309.815	4.25
310.184	4.29
310.554	4.41
310.923	4.43
311.293	4.45
311.662	4.36
312.031	4.31
312.401	4.36
312.77	4.37
313.139	4.42
313.508	4.42
313.877	4.6
314.246	4.7
314.616	4.76
314.985	4.79
315.353	4.85
315.722	4.79
316.091	4.85
316.46	4.93
316.829	4.78
317.198	4.75
317.567	4.99
317.935	4.96
318.304	4.99
318.672	5.12
319.041	5.1
319.41	5.09
319.778	5.18
320.147	5.25
320.515	5.31
320.883	5.38
321.252	5.46
321.62	5.46
321.988	5.44
322.357	5.35
322.725	5.4
323.093	5.48
323.461	5.57
323.829	5.67
324.197	5.62
324.565	5.84
324.933	5.83
325.301	5.55
325.669	5.67
326.037	5.7
326.405	5.7
326.772	5.71
327.14	5.68
327.508	5.57
327.875	5.46
328.243	5.52
328.61	5.47
328.978	5.46
329.346	5.47
329.713	5.61
330.08	5.78
330.448	5.74
330.815	5.68
331.182	5.79
331.55	5.67
331.917	5.61
332.284	5.61
332.651	5.57
333.018	5.83
333.385	5.89
333.752	5.97
334.119	5.88
334.486	5.97
334.853	6.09
335.22	6.15
335.587	6.23
335.954	6.27
336.32	6.29
336.687	6.31
337.054	6.41
337.42	6.4
337.787	6.29
338.153	6.35
338.52	6.4
338.886	6.46
339.253	6.54
339.619	6.7
339.986	6.53
340.352	6.63
340.718	6.62
341.084	6.59
341.451	6.61
341.817	6.71
342.183	6.75
342.549	6.75
342.915	6.82
343.281	6.96
343.647	6.95
344.013	7.04
344.379	7.16
344.745	7.02
345.11	6.96
345.476	7.16
345.842	7.11
346.208	7.22
346.573	7.14
346.939	7.21
347.304	7.2
347.67	7.3
348.035	7.23
348.401	7.23
348.766	7.18
349.132	7.21
349.497	7.22
349.862	7.17
350.228	7.14
350.593	7.2
350.958	7.26
351.323	7.23
351.688	7.21
352.053	7.09
352.418	7.08
352.783	7.11
353.148	7.02
353.513	7.05
353.878	7.04
354.243	6.99
354.608	7.07
354.972	7.01
355.337	7
355.702	7.05
356.066	7.17
356.431	7.27
356.795	7.25
357.16	7.24
357.524	7.28
357.889	7.32
358.253	7.26
358.618	7.1
358.982	7.18
359.346	7.19
359.71	7.18
360.075	7.19
360.439	7.23
360.803	7.19
361.167	7.18
361.531	7.14
361.895	7.18
362.259	7.11
362.623	7.15
362.987	7.15
363.351	7.12
363.714	7.07
364.078	7.07
364.442	6.99
364.806	6.99
365.169	6.91
365.533	6.94
365.896	6.95
366.26	6.96
366.623	6.9
366.987	6.82
367.35	6.82
367.714	6.87
368.077	6.81
368.44	6.86
368.803	6.84
369.167	6.74
369.53	6.74
369.893	6.66
370.256	6.55
370.619	6.54
370.982	6.47
371.345	6.38
371.708	6.3
372.071	6.33
372.434	6.24
372.797	6.24
373.159	6.07
373.522	6.05
373.885	6.01
374.247	5.92
374.61	5.89
374.973	5.92
375.335	5.85
375.698	5.77
376.06	5.64
376.423	5.62
376.785	5.64
377.147	5.53
377.51	5.46
377.872	5.4
378.234	5.36
378.596	5.37
378.958	5.35
379.321	5.35
379.683	5.3
380.045	5.32
380.407	5.23
380.769	5.22
381.13	5.13
381.492	5.07
381.854	5.08
382.216	5.09
382.578	4.99
382.939	4.91
383.301	4.91
383.663	4.89
384.024	4.84
384.386	4.8
384.747	4.82
385.109	4.87
385.47	4.9
385.832	4.85
386.193	4.73
386.554	4.69
386.916	4.65
387.277	4.6
387.638	4.57
387.999	4.6
388.36	4.59
388.721	4.56
389.082	4.57
389.443	4.54
389.804	4.52
390.165	4.55
390.526	4.52
390.887	4.49
391.248	4.48
391.609	4.47
391.969	4.45
392.33	4.43
392.691	4.4
393.051	4.38
393.412	4.39
393.772	4.41
394.133	4.42
394.493	4.36
394.854	4.34
395.214	4.29
395.574	4.25
395.935	4.23
396.295	4.23
396.655	4.17
397.015	4.14
397.376	4.12
397.736	4.06
398.096	4.04
398.456	4.01
398.816	3.98
399.176	3.94
399.535	3.89
399.895	3.85
400.255	3.82
400.615	3.83
400.975	3.78
401.334	3.77
401.694	3.7
402.054	3.69
402.413	3.7
402.773	3.7
403.132	3.69
403.492	3.69
403.851	3.7
404.211	3.71
404.57	3.73
404.929	3.71
405.288	3.68
405.648	3.68
406.007	3.69
406.366	3.67
406.725	3.69
407.084	3.68
407.443	3.67
407.802	3.65
408.161	3.62
408.52	3.62
408.879	3.6
409.238	3.61
409.596	3.65
409.955	3.62
410.314	3.62
410.673	3.59
411.031	3.58
411.39	3.56
411.748	3.54
412.107	3.49
412.465	3.45
412.824	3.44
413.182	3.41
413.54	3.42
413.899	3.39
414.257	3.36
414.615	3.33
414.974	3.35
415.332	3.35
415.69	3.31
416.048	3.31
416.406	3.28
416.764	3.26
417.122	3.21
417.48	3.22
417.838	3.21
418.195	3.21
418.553	3.21
418.911	3.2
419.269	3.18
419.626	3.17
419.984	3.19
420.342	3.18
420.699	3.16
421.057	3.16
421.414	3.17
421.772	3.17
422.129	3.17
422.486	3.15
422.844	3.13
423.201	3.14
423.558	3.13
423.915	3.16
424.273	3.17
424.63	3.18
424.987	3.16
425.344	3.14
425.701	3.12
426.058	3.1
426.415	3.08
426.772	3.08
427.128	3.08
427.485	3.06
427.842	3.05
428.199	3.07
428.555	3.05
428.912	3.03
429.269	3
429.625	2.99
429.982	2.98
430.338	2.98
430.695	2.96
431.051	2.95
431.407	2.92
431.764	2.88
432.12	2.88
432.476	2.87
432.832	2.89
433.189	2.91
433.545	2.9
433.901	2.93
434.257	2.92
434.613	2.92
434.969	2.91
435.325	2.91
435.681	2.88
436.036	2.89
436.392	2.89
436.748	2.92
437.104	2.91
437.459	2.91
437.815	2.92
438.171	2.93
438.526	2.95
438.882	2.95
439.237	2.96
439.593	2.97
439.948	2.97
440.304	2.96
440.659	2.97
441.014	2.97
441.369	2.95
441.725	2.95
442.08	2.94
442.435	2.95
442.79	2.96
443.145	2.99
443.5	2.99
443.855	2.98
444.21	2.98
444.565	3
444.92	3.01
445.275	3.01
445.629	2.99
445.984	2.96
446.339	2.96
446.693	2.96
447.048	2.96
447.403	2.95
447.757	2.95
448.112	2.94
448.466	2.95
448.82	2.95
449.175	2.95
449.529	2.96
449.883	2.95
450.238	2.94
450.592	2.92
450.946	2.9
451.3	2.9
451.654	2.89
452.008	2.88
452.362	2.87
452.716	2.87
453.07	2.87
453.424	2.88
453.778	2.88
454.132	2.85
454.486	2.87
454.839	2.86
455.193	2.87
455.547	2.88
455.9	2.88
456.254	2.88
456.607	2.88
456.961	2.87
457.314	2.89
457.668	2.88
458.021	2.89
458.375	2.88
458.728	2.87
459.081	2.88
459.434	2.88
459.787	2.88
460.141	2.87
460.494	2.89
460.847	2.87
461.2	2.87
461.553	2.9
461.906	2.9
462.259	2.9
462.611	2.91
462.964	2.92
463.317	2.91
463.67	2.92
464.022	2.93
464.375	2.92
464.728	2.91
465.08	2.92
465.433	2.96
465.785	2.98
466.138	3.01
466.49	3.02
466.843	3.02
467.195	3.02
467.547	3.03
467.899	3.03
468.252	3.07
468.604	3.06
468.956	3.06
469.308	3.04
469.66	3.07
470.012	3.07
470.364	3.07
470.716	3.06
471.068	3.05
471.42	3.07
471.772	3.11
472.123	3.11
472.475	3.11
472.827	3.09
473.178	3.09
473.53	3.07
473.882	3.08
474.233	3.07
474.585	3.08
474.936	3.08
475.288	3.08
475.639	3.07
475.99	3.07
476.342	3.07
476.693	3.07
477.044	3.05
477.395	3.03
477.746	3
478.097	3.01
478.448	3.01
478.8	3.01
479.15	3.01
479.501	3.03
479.852	3.04
480.203	3.03
480.554	3.03
480.905	3.04
481.255	3.03
481.606	3.04
481.957	3.04
482.307	3.04
482.658	3.05
483.009	3.05
483.359	3.06
483.709	3.06
484.06	3.07
484.41	3.07
484.761	3.09
485.111	3.1
485.461	3.11
485.811	3.11
486.162	3.11
486.512	3.11
486.862	3.11
487.212	3.11
487.562	3.11
487.912	3.12
488.262	3.12
488.612	3.13
488.961	3.13
489.311	3.13
489.661	3.13
490.011	3.13
490.36	3.14
490.71	3.14
491.06	3.15
491.409	3.16
491.759	3.16
492.108	3.15
492.458	3.15
492.807	3.15
493.157	3.17
493.506	3.19
493.855	3.19
494.204	3.19
494.554	3.21
494.903	3.24
495.252	3.25
495.601	3.27
495.95	3.28
496.299	3.31
496.648	3.34
496.997	3.38
497.346	3.41
497.695	3.44
498.043	3.48
498.392	3.51
498.741	3.53
499.09	3.58
499.438	3.6
499.787	3.63
500.135	3.66
500.484	3.68
500.832	3.71
501.181	3.75
501.529	3.8
501.878	3.84
502.226	3.87
502.574	3.9
502.923	3.93
503.271	3.97
503.619	4
503.967	4.02
504.315	4.06
504.663	4.08
505.011	4.11
505.359	4.15
505.707	4.19
506.055	4.23
506.403	4.24
506.751	4.29
507.098	4.35
507.446	4.38
507.794	4.42
508.141	4.49
508.489	4.53
508.837	4.56
509.184	4.6
509.531	4.64
509.879	4.71
510.226	4.76
510.574	4.82
510.921	4.87
511.268	4.91
511.616	4.97
511.963	5.03
512.31	5.08
512.657	5.16
513.004	5.2
513.351	5.27
513.698	5.36
514.045	5.44
514.392	5.51
514.739	5.6
515.086	5.7
515.432	5.74
515.779	5.81
516.126	5.91
516.473	5.97
516.819	6.05
517.166	6.12
517.512	6.18
517.859	6.25
518.205	6.32
518.552	6.4
518.898	6.47
519.245	6.56
519.591	6.63
519.937	6.7
520.283	6.8
520.629	6.87
520.976	6.96
521.322	7.05
521.668	7.16
522.014	7.27
522.36	7.36
522.706	7.5
523.052	7.63
523.398	7.73
523.743	7.89
524.089	8.05
524.435	8.18
524.781	8.33
525.126	8.45
525.472	8.58
525.817	8.67
526.163	8.76
526.509	8.86
526.854	8.96
527.199	9.05
527.545	9.13
527.89	9.21
528.235	9.3
528.581	9.39
528.926	9.47
529.271	9.57
529.616	9.67
529.961	9.76
530.306	9.87
530.651	9.99
530.996	10.08
531.341	10.2
531.686	10.32
532.031	10.45
532.376	10.58
532.721	10.73
533.065	10.89
533.41	11.04
533.755	11.19
534.099	11.35
534.444	11.51
534.788	11.68
535.133	11.87
535.477	12.04
535.822	12.24
536.166	12.44
536.51	12.66
536.855	12.87
537.199	13.11
537.543	13.35
537.887	13.59
538.231	13.83
538.576	14.06
538.92	14.3
539.264	14.52
539.608	14.74
539.951	14.9
540.295	15.1
540.639	15.3
540.983	15.52
541.327	15.68
541.671	15.86
542.014	16.05
542.358	16.24
542.701	16.42
543.045	16.6
543.389	16.79
543.732	16.96
544.075	17.14
544.419	17.32
544.762	17.51
545.105	17.73
545.449	17.99
545.792	18.2
546.135	18.42
546.478	18.67
546.821	18.94
547.165	19.23
547.508	19.47
547.851	19.73
548.194	19.94
548.536	20.26
548.879	20.52
549.222	20.8
549.565	21.03
549.908	21.3
550.25	21.6
550.593	21.89
550.936	22.18
551.278	22.47
551.621	22.76
551.963	23.05
552.306	23.33
552.648	23.57
552.991	23.88
553.333	24.21
553.675	24.5
554.017	24.79
554.36	25.06
554.702	25.34
555.044	25.66
555.386	25.95
555.728	26.25
556.07	26.58
556.412	26.9
556.754	27.26
557.096	27.55
557.438	27.81
557.78	28.14
558.121	28.46
558.463	28.78
558.805	29.15
559.147	29.41
559.488	29.72
559.83	30.01
560.171	30.24
560.513	30.52
560.854	30.78
561.196	31.03
561.537	31.33
561.878	31.62
562.22	31.9
562.561	32.18
562.902	32.46
563.243	32.7
563.584	32.98
563.925	33.21
564.266	33.45
564.607	33.73
564.948	33.97
565.289	34.21
565.63	34.49
565.971	34.7
566.312	34.99
566.653	35.23
566.993	35.46
567.334	35.77
567.675	35.98
568.015	36.21
568.356	36.46
568.696	36.72
569.037	36.95
569.377	37.14
569.718	37.43
570.058	37.65
570.398	37.91
570.739	38.07
571.079	38.31
571.419	38.6
571.759	38.81
572.099	39.01
572.439	39.23
572.779	39.42
573.119	39.67
573.459	39.93
573.799	40.11
574.139	40.31
574.479	40.47
574.819	40.67
575.158	40.84
575.498	41.07
575.838	41.28
576.177	41.49
576.517	41.75
576.856	41.88
577.196	42.09
577.535	42.33
577.875	42.57
578.214	42.8
578.553	42.96
578.893	43.18
579.232	43.44
579.571	43.66
579.91	43.85
580.25	44.01
580.589	44.09
580.928	44.21
581.267	44.39
581.606	44.55
581.945	44.76
582.283	44.96
582.622	45.15
582.961	45.3
583.3	45.45
583.639	45.57
583.977	45.85
584.316	46
584.654	46.15
584.993	46.31
585.332	46.42
585.67	46.58
586.008	46.68
586.347	46.8
586.685	46.91
587.024	47.08
587.362	47.27
587.7	47.46
588.038	47.68
588.376	47.78
588.715	47.91
589.053	48.06
589.391	48.24
589.729	48.35
590.067	48.43
590.404	48.58
590.742	48.73
591.08	48.8
591.418	48.9
591.756	48.96
592.093	49.08
592.431	49.28
592.769	49.41
593.106	49.56
593.444	49.64
593.781	49.72
594.119	49.84
594.456	49.88
594.793	49.99
595.131	50.1
595.468	50.3
595.805	50.46
596.143	50.54
596.48	50.59
596.817	50.63
597.154	50.8
597.491	50.87
597.828	50.91
598.165	51.05
598.502	51.13
598.839	51.32
599.176	51.41
599.512	51.45
599.849	51.53
600.186	51.62
600.523	51.74
600.859	51.8
601.196	51.88
601.532	51.99
601.869	52.04
602.205	52.11
602.542	52.13
602.878	52.21
603.215	52.29
603.551	52.34
603.887	52.45
604.223	52.54
604.56	52.67
604.896	52.78
605.232	52.81
605.568	52.88
605.904	52.9
606.24	53.01
606.576	53.04
606.912	53.12
607.248	53.23
607.583	53.34
607.919	53.46
608.255	53.59
608.591	53.69
608.926	53.77
609.262	53.87
609.597	53.97
609.933	54.03
610.268	54.14
610.604	54.27
610.939	54.33
611.275	54.31
611.61	54.27
611.945	54.28
612.281	54.31
612.616	54.4
612.951	54.5
613.286	54.5
613.621	54.58
613.956	54.66
614.291	54.69
614.626	54.69
614.961	54.73
615.296	54.75
615.631	54.76
615.966	54.84
616.3	54.89
616.635	54.94
616.97	54.95
617.304	54.92
617.639	54.92
617.973	54.93
618.308	55.01
618.642	55.09
618.977	55.27
619.311	55.39
619.646	55.5
619.98	55.5
620.314	55.55
620.648	55.68
620.983	55.68
621.317	55.71
621.651	55.8
621.985	55.87
622.319	55.8
622.653	55.85
622.987	55.89
623.321	55.93
623.655	56
623.988	56.14
624.322	56.29
624.656	56.35
624.99	56.44
625.323	56.45
625.657	56.54
625.99	56.47
626.324	56.52
626.657	56.46
626.991	56.5
627.324	56.63
627.658	56.6
627.991	56.71
628.324	56.71
628.657	56.78
628.991	56.84
629.324	57.01
629.657	57.13
629.99	57.19
630.323	57.24
630.656	57.2
630.989	57.19
631.322	57.21
631.655	57.27
631.987	57.3
632.32	57.35
632.653	57.5
632.986	57.54
633.318	57.56
633.651	57.62
633.984	57.6
634.316	57.49
634.649	57.55
634.981	57.57
635.313	57.65
635.646	57.65
635.978	57.74
636.31	57.65
636.643	57.59
636.975	57.62
637.307	57.59
637.639	57.66
637.971	57.63
638.303	57.57
638.635	57.58
638.967	57.62
639.299	57.67
639.631	57.54
639.963	57.51
640.295	57.5
640.626	57.41
640.958	57.5
641.29	57.54
641.621	57.45
641.953	57.48
642.285	57.49
642.616	57.46
642.948	57.51
643.279	57.58
643.61	57.72
643.942	57.68
644.273	57.63
644.604	57.59
644.936	57.61
645.267	57.68
645.598	57.77
645.929	57.79
646.26	57.78
646.591	57.72
646.922	57.89
647.253	57.93
647.584	58.01
647.915	58.16
648.245	58.17
648.576	58.31
648.907	58.27
649.238	58.28
649.568	58.36
649.899	58.32
650.229	58.36
650.56	58.33
650.89	58.37
651.221	58.55
651.551	58.69
651.882	58.76
652.212	58.77
652.542	58.75
652.872	58.79
653.203	58.81
653.533	58.93
653.863	58.86
654.193	58.89
654.523	59.05
654.853	58.95
655.183	59.13
655.513	59.18
655.843	59.14
656.172	59.06
656.502	59.09
656.832	58.99
657.162	58.97
657.491	58.8
657.821	58.83
658.15	58.74
658.48	58.78
658.809	58.81
659.139	58.86
659.468	58.88
659.798	58.79
660.127	58.87
660.456	58.87
660.785	58.87
661.115	58.82
661.444	58.71
661.773	58.69
662.102	58.66
662.431	58.67
662.76	58.75
663.089	58.82
663.418	58.82
663.747	58.88
664.076	58.99
664.404	59.18
664.733	59.15
665.062	59.24
665.39	59.1
665.719	59.05
666.048	59.08
666.376	59.03
666.705	59.08
667.033	59.07
667.362	59.15
667.69	59.25
668.018	59.37
668.347	59.5
668.675	59.55
669.003	59.58
669.331	59.56
669.659	59.56
669.987	59.67
670.315	59.85
670.643	59.88
670.971	59.74
671.299	59.81
671.627	59.81
671.955	59.77
672.283	59.93
672.61	59.9
672.938	59.86
673.266	59.92
673.593	59.91
673.921	59.84
674.249	59.72
674.576	59.67
674.904	59.72
675.231	59.85
675.558	59.9
675.886	59.77
676.213	59.79
676.54	59.99
676.867	59.98
677.195	59.88
677.522	59.91
677.849	60.14
678.176	60.11
678.503	60.29
678.83	60.29
679.157	60.22
679.484	60.29
679.81	60.38
680.137	60.5
680.464	60.62
680.791	60.78
681.117	60.96
681.444	60.98
681.771	60.92
682.097	60.74
682.424	60.71
682.75	60.85
683.077	60.85
683.403	60.64
683.729	60.58
684.056	60.49
684.382	60.57
684.708	60.44
685.034	60.45
685.36	60.39
685.686	60.43
686.012	60.41
686.339	60.46
686.664	60.46
686.99	60.32
687.316	60.28
687.642	60.24
687.968	60.14
688.294	60.28
688.619	60.28
688.945	60.36
689.271	60.26
689.596	60.18
689.922	59.98
690.247	60.05
690.573	60.11
690.898	60.19
691.224	60.08
691.549	60.12
691.874	60.17
692.2	60.12
692.525	60.25
692.85	60.48
693.175	60.64
693.5	60.63
693.825	60.66
694.15	60.7
694.475	60.61
694.8	60.6
695.125	60.38
695.45	60.48
695.775	60.45
696.099	60.69
696.424	60.85
696.749	61.07
697.073	61.14
697.398	61.24
697.723	61.05
698.047	61.03
698.372	61.11
698.696	61.11
699.02	61.08
699.345	61.12
699.669	61.04
699.993	60.96
700.318	60.87
700.642	60.9
700.966	60.91
701.29	60.97
701.614	60.97
701.938	61
702.262	60.88
702.586	60.86
702.91	60.77
703.234	60.6
703.557	60.63
703.881	60.51
704.205	60.35
704.529	60.61
704.852	60.66
705.176	60.57
705.499	60.45
705.823	60.3
706.146	60.17
706.47	60.18
706.793	60.09
707.117	60.15
707.44	59.96
707.763	59.97
708.086	59.99
708.409	60.02
708.733	60.12
709.056	60.28
709.379	60.6
709.702	60.47
710.025	60.43
710.348	60.25
710.671	60.35
710.993	60.44
711.316	60.39
711.639	60.51
711.962	60.59
712.284	60.81
712.607	60.96
712.93	60.86
713.252	60.64
713.575	60.58
713.897	60.55
714.22	60.84
714.542	60.89
714.864	60.96
715.187	61.02
715.509	60.97
715.831	60.93
716.153	60.7
716.475	61
716.798	61.08
717.12	61.27
717.442	61.22
717.764	61.05
718.085	61.07
718.407	61.07
718.729	60.83
719.051	60.7
719.373	60.78
719.695	61.01
720.016	61.26
720.338	61.25
720.659	61.32
720.981	61.29
721.302	61.28
721.624	61.12
721.945	61.08
722.267	61.29
722.588	61.25
722.909	61.13
723.231	60.69
723.552	60.76
723.873	60.61
724.194	60.66
724.515	60.98
724.836	60.94
725.157	60.99
725.478	61.19
725.799	61.12
726.12	60.88
726.441	60.85
726.762	60.97
727.083	61.02
727.403	60.96
727.724	60.87
728.045	60.91
728.365	60.88
728.686	60.89
729.006	60.73
729.327	60.93
729.647	60.99
729.967	61.13
730.288	60.93
730.608	61.06
730.928	61.12
731.249	61.1
731.569	61.29
731.889	61.31
732.209	61.41
732.529	61.35
732.849	61.66
733.169	61.59
733.489	61.6
733.809	61.68
734.129	61.69
734.448	61.54
734.768	61.46
735.088	61.7
735.408	61.66
735.727	61.75
736.047	61.61
736.366	61.68
736.686	61.8
737.005	62.05
737.325	62.07
737.644	62
737.963	61.96
738.283	61.7
738.602	61.84
738.921	61.89
739.24	62.11
739.56	62.08
739.879	61.97
740.198	61.7
740.517	61.96
740.836	61.88
741.155	62.09
741.473	62.13
741.792	61.81
742.111	61.9
742.43	61.75
742.748	61.94
743.067	62.1
743.386	62.17
743.704	62.07
744.023	62.15
744.341	62.54
744.66	62.3
744.978	62.2
745.297	61.95
745.615	61.66
745.933	61.78
746.252	61.9
746.57	62.04
746.888	62.15
747.206	61.79
747.524	61.88
747.842	61.89
748.16	61.88
748.478	62.04
748.796	62.18
749.114	62.51
749.432	62.4
749.749	62.31
750.067	62.12
750.385	62.14
750.703	61.82
751.02	61.64
751.338	61.86
751.655	62.21
751.973	62.26
752.29	62.42
752.608	62.16
752.925	61.81
753.242	61.75
753.56	61.62
753.877	61.59
754.194	61.75
754.511	61.73
754.828	61.55
755.145	61.36
755.462	61.57
755.779	61.51
756.096	61.53
756.413	61.28
756.73	61.14
757.047	61.35
757.364	61.62
757.68	61.61
757.997	61.34
758.314	61.02
758.63	61.14
758.947	61.11
759.264	61.11
759.58	61.5
759.896	61.41
760.213	61.68
760.529	61.99
760.846	61.75
761.162	61.92
761.478	62.07
761.794	62.15
762.11	61.73
762.426	61.59
762.743	61.39
763.059	61.62
763.375	61.83
763.69	61.78
764.006	61.84
764.322	61.85
764.638	62.23
764.954	62.21
765.27	62.12
765.585	62.15
765.901	62.2
766.216	62.01
766.532	62.16
766.848	62.22
767.163	62.01
767.478	62
767.794	62.1
768.109	62.1
768.424	62.26
768.74	62.21
769.055	62.52
769.37	62.6
769.685	62.63
770	62.72
770.315	62.65
770.63	62.52
770.945	62.32
771.26	61.88
771.575	62.12
771.89	62.25
772.205	61.87
772.52	61.8
772.834	61.65
773.149	61.59
773.464	61.4
773.778	61.36
774.093	61.67
774.407	61.19
774.722	61.5
775.036	61.23
775.351	61.6
775.665	61.39
775.979	61.26
776.293	61.16
776.608	61.24
776.922	60.95
777.236	61.14
777.55	60.99
777.864	60.93
778.178	60.94
778.492	60.99
778.806	60.99
779.12	61.21
779.434	61.42
779.747	61.58
780.061	61.2
780.375	61.41
780.689	61.14
781.002	61.26
781.316	60.57
781.629	60.99
781.943	61.24
782.256	60.93
782.57	61.41
782.883	61.63
783.196	61.15
783.51	61.49
783.823	61.65
784.136	61.8
784.449	62.33
784.762	62.08
785.075	61.72
785.388	62.09
785.701	61.86
786.014	61.67
786.327	61.75
786.64	61.93
786.953	61.71
787.266	62.03
787.578	62.67
787.891	63.06
788.204	62.85
788.516	62.85
788.829	63.36
789.141	63.25
789.454	63.12
789.766	63.41
790.079	63.55
790.391	63.6
790.703	63.23
791.016	62.89
791.328	63.13
791.64	63.4
791.952	63.87
792.264	63.73
792.576	63.67
792.888	63.57
793.2	64.05
793.512	63.98
793.824	64.1
794.136	63.89
794.448	64.02
794.76	63.94
795.071	63.71
795.383	62.85
795.695	62.66
796.006	62.64
796.318	62.72
796.629	62.01
796.941	61.47
797.252	61.64
797.564	61.85
797.875	61.89
798.186	61.29
798.497	60.49
798.809	60.77
799.12	61.34
799.431	60.68
799.742	60.23
800.053	60.48
800.364	60.66
800.675	60.53
800.986	60.76
801.297	61.17
801.608	60.65
801.918	60.96
802.229	60.62
802.54	60
802.851	59.95
803.161	60.64
803.472	61
803.782	60.95
804.093	61.02
804.403	60.77
804.714	61.68
805.024	61.47
805.334	60.97
805.645	61.09
805.955	61.64
806.265	61.72
806.575	61.51
806.885	61.07
807.195	60.87
807.505	60.12
807.815	59.52
808.125	60.34
808.435	61.41
808.745	61.94
809.055	62.32
809.365	62.41
809.674	62.78
809.984	62.46
810.294	62.6
810.603	62.12
810.913	62.81
811.222	62.1
811.532	62.14
811.841	62.83
812.151	61.56
812.46	62.34
812.769	62.12
813.079	62.6
813.388	62.12
813.697	62.58
814.006	62.53
814.315	62.82
814.624	63.33
814.933	62.93
815.242	62.07
815.551	62.17
815.86	62.17
816.169	61.47
816.478	61.79
816.786	62.11
817.095	62.68
817.404	62.61
817.712	63.16
818.021	63.31
818.33	63.16
818.638	64.1
818.947	63.48
819.255	63.47
819.563	64.07
819.872	64.72
820.18	64.74
820.488	64.72
820.796	64.63
821.105	64.48
821.413	64.55
821.721	64.75
822.029	64.78
822.337	64.66
822.645	64.9
822.953	64.81
823.26	64.81
823.568	64.73
823.876	64.71
824.184	64.65
824.491	64.83
824.799	64.96
825.107	64.78
825.414	64.98
825.722	65.04
826.029	64.81
826.337	64.64
826.644	64.58
826.951	64.62
827.259	64.81
827.566	64.6
827.873	64.33
828.18	64.33
828.488	64.07
828.795	64.12
829.102	64.09
829.409	63.91
829.716	64.06
830.023	63.83
830.329	63.64
830.636	63.59
830.943	63.38
831.25	62.85
831.557	63.3
831.863	63.01
832.17	63.34
832.476	63.77
832.783	63.94
833.089	63.9
833.396	64.38
833.702	64.07
834.009	64.09
834.315	63.83
834.621	63.61
834.928	63.52
835.234	63.56
835.54	63.32
835.846	63.27
836.152	62.91
836.458	63.37
836.764	63.35
837.07	63.19
837.376	63.15
837.682	63.61
837.988	63.12
838.293	63.13
838.599	62.88
838.905	61.5
839.211	61
839.516	60.54
839.822	60.17
840.127	60.11
840.433	59.74
840.738	60.22
841.044	60.6
841.349	60.32
841.654	60.1
841.959	60.2
842.265	59.95
842.57	59.95
842.875	59.39
843.18	59.25
843.485	59.48
843.79	59.57
844.095	59.21
844.4	59.82
844.705	60.69
845.01	60.99
845.315	61.67
845.619	62.64
845.924	63.14
846.229	61.95
846.533	62.4
846.838	61.55
847.142	60.02
847.447	60.47
847.751	62.67
848.056	63.67
848.36	63.06
848.664	64.88
848.969	63.51
849.273	63.57
849.577	65.33
849.881	67.53
850.185	67.61
850.489	66.44
850.794	67.06
851.097	64.23
851.401	63.03
851.705	62.02
852.009	60.85
852.313	59.01
852.617	58.44
852.92	58.81
853.224	61.22
853.528	62.46
853.831	63.07
854.135	61.58
854.438	59.63
854.742	59.57
855.045	57.74
855.349	57.64
855.652	56.79
855.955	53.41
856.259	51.26
856.562	52.12
856.865	53.76
857.168	49.59
857.471	49.92
857.774	50.66
858.077	50.98
858.38	50.79
858.683	51.91
858.986	51.01
859.289	48.18
859.592	45.93
859.894	45.2
860.197	43.09
860.5	43.43
860.802	43.14
861.105	42.51
861.407	42.79
861.71	44.23
862.012	45.51
862.315	47.57
862.617	46.73
862.919	45.04
863.222	45.12
863.524	46.16
863.826	46.38
864.128	44.89
864.43	46.63
864.732	44.8
865.034	44.96
865.336	44.41
865.638	45.28
865.94	47.89
866.242	47.42
866.544	49.24
866.846	50.92
867.147	49.02
867.449	48.35
867.751	49.33
868.052	48.35
868.354	48.13
868.655	46.21
868.957	46.14
869.258	45.08
869.56	42.9
869.861	43.24
870.162	42.47
870.463	42.59
870.765	42.47
871.066	45.69
871.367	44.45
871.668	45.68
871.969	45.35
872.27	44.39
872.571	46.71
872.872	46.05
873.173	43.79
873.473	47.49
873.774	47.9
874.075	48.57
874.376	50.98
874.676	50.18
874.977	48.99
875.277	50.36
875.578	49.48
875.878	51.18
876.179	52.02
876.479	52.3
876.78	53.31
877.08	52.37
877.38	49.96
877.68	51.69
877.981	52.86
878.281	53.74
878.581	54.12
