Data from BA48287_Reflection_00009.txt Node
Date: Tue Nov 19 11:43:36 EST 2019
User: vgr7
Spectrometer: USB2G7710
Scans to average: 3
Trigger mode: 4
Integration Time (sec): 2.000000E-2
Electric dark correction enabled: true
Boxcar width: 10
XAxis mode: Wavelengths
Number of Pixels in Spectrum: 2048
>>>>>Begin Spectral Data<<<<<
177.721	97.45
178.105	69.86
178.488	43.67
178.871	36.41
179.254	29.06
179.636	53.96
180.019	76.76
180.402	71.43
180.785	111.52
181.168	-977.38
181.55	-297.12
181.933	-97.63
182.316	-119.65
182.698	5488.89
183.081	158.69
183.463	-23066.67
183.846	-580.18
184.228	356.22
184.611	691.95
184.993	819.05
185.376	145.12
185.758	62.03
186.14	10.06
186.522	-0.48
186.904	15.82
187.287	6.61
187.669	20.44
188.051	4.54
188.433	-26.2
188.815	-120.8
189.197	-107.39
189.579	-75.38
189.961	-61.22
190.342	-46.05
190.724	-33.88
191.106	-20.88
191.488	-17.34
191.869	-4.29
192.251	-3.3
192.633	1.09
193.014	1.21
193.396	1.17
193.777	12.93
194.159	19.37
194.54	21.69
194.922	13.04
195.303	17.64
195.684	14.13
196.065	25.3
196.447	21.58
196.828	20.01
197.209	17.33
197.59	18.22
197.971	18.84
198.352	16.35
198.733	12.52
199.114	8.54
199.495	-3.03
199.876	-8.65
200.257	-10.47
200.638	-17.71
201.018	-19.47
201.399	-15.95
201.78	-13.85
202.16	-8.19
202.541	-9.38
202.922	-12.49
203.302	-8.25
203.683	-13.33
204.063	-24.93
204.444	-19.05
204.824	-22.79
205.204	-16.86
205.585	-5.96
205.965	-20.53
206.345	-18.56
206.725	-15.19
207.106	-11.19
207.486	16.8
207.866	15.86
208.246	23.09
208.626	16.3
209.006	31.28
209.386	31.37
209.766	22.97
210.145	-1.16
210.525	-14.47
210.905	-4.44
211.285	-6.66
211.664	2.65
212.044	12.17
212.424	3.26
212.803	12
213.183	13.27
213.562	18.37
213.942	24.16
214.321	35.66
214.701	28.38
215.08	19.58
215.459	16.76
215.838	15.71
216.218	10.37
216.597	10.19
216.976	2.62
217.355	15.86
217.734	13.37
218.113	28.86
218.492	21.71
218.871	21.23
219.25	17.14
219.629	3.19
220.008	-10.63
220.387	-6.63
220.766	-8.17
221.144	-14.19
221.523	-21.82
221.902	-18.67
222.28	-30.91
222.659	-9.31
223.037	-5.99
223.416	-15.41
223.794	-3.57
224.173	-1.62
224.551	3.76
224.929	1.31
225.308	-2.94
225.686	0.54
226.064	0.85
226.442	4
226.821	8.17
227.199	8.22
227.577	11.91
227.955	12.99
228.333	13.87
228.711	6.73
229.089	8.72
229.467	6.93
229.845	7.61
230.222	10.6
230.6	8.7
230.978	11.47
231.356	13.01
231.733	9.98
232.111	8.23
232.488	6.48
232.866	8.22
233.243	7.43
233.621	7.72
233.998	6.84
234.376	7.74
234.753	6.55
235.13	6.13
235.508	7.49
235.885	5.84
236.262	4.64
236.639	7.49
237.016	5.89
237.393	5.25
237.77	5.31
238.147	4.47
238.524	4.58
238.901	3.78
239.278	4.06
239.655	3.84
240.032	4.22
240.409	4.64
240.785	4.21
241.162	4.14
241.539	3.87
241.915	4.16
242.292	4.24
242.668	4.37
243.045	4.52
243.421	4.17
243.798	4.54
244.174	4.91
244.551	4.47
244.927	4.75
245.303	4.9
245.679	4.74
246.056	4.85
246.432	4.82
246.808	4.98
247.184	4.99
247.56	5.01
247.936	5.15
248.312	5.16
248.688	5.21
249.064	5.31
249.44	5.52
249.815	5.25
250.191	5.33
250.567	5.35
250.943	5.37
251.318	5.37
251.694	5.16
252.069	5.08
252.445	5.61
252.82	5.56
253.196	5.53
253.571	5.73
253.947	5.72
254.322	5.48
254.697	5.51
255.073	5.5
255.448	5.52
255.823	5.51
256.198	5.49
256.573	5.52
256.948	5.3
257.323	5.18
257.698	5.38
258.073	5.18
258.448	5.11
258.823	5.03
259.198	5.09
259.573	5.05
259.948	4.93
260.322	4.7
260.697	4.83
261.072	4.88
261.446	4.92
261.821	5.04
262.195	5.11
262.57	5.06
262.944	5.09
263.319	5.17
263.693	5.14
264.067	5.23
264.442	5.15
264.816	5.15
265.19	5.16
265.564	5.08
265.938	5.25
266.313	5.22
266.687	5.1
267.061	4.99
267.435	5.26
267.809	5.2
268.183	5.21
268.556	5.02
268.93	4.95
269.304	4.94
269.678	4.81
270.051	4.96
270.425	4.84
270.799	4.59
271.172	4.56
271.546	4.61
271.919	4.54
272.293	4.57
272.666	4.6
273.04	4.56
273.413	4.47
273.787	4.19
274.16	4.29
274.533	4.47
274.906	4.4
275.279	4.24
275.653	4.62
276.026	4.56
276.399	4.65
276.772	4.7
277.145	4.64
277.518	4.65
277.891	4.75
278.263	4.94
278.636	5.2
279.009	5.22
279.382	4.95
279.755	4.83
280.127	4.78
280.5	4.89
280.872	4.93
281.245	5.13
281.617	5.54
281.99	5.37
282.362	5.37
282.735	5.43
283.107	5.41
283.479	5.16
283.852	5.2
284.224	5.16
284.596	5.12
284.968	5.09
285.34	4.99
285.713	4.83
286.085	4.82
286.457	4.77
286.829	4.72
287.201	4.89
287.572	5.07
287.944	5.06
288.316	5.1
288.688	5.18
289.06	5.19
289.431	5.07
289.803	5.09
290.175	5.1
290.546	5.31
290.918	5.38
291.289	5.31
291.661	5.33
292.032	5.37
292.403	5.4
292.775	5.54
293.146	5.66
293.517	5.68
293.889	5.63
294.26	5.68
294.631	5.71
295.002	5.69
295.373	5.64
295.744	5.77
296.115	5.76
296.486	5.76
296.857	5.71
297.228	5.74
297.599	5.71
297.97	5.75
298.34	5.64
298.711	5.67
299.082	5.81
299.452	5.82
299.823	5.86
300.194	5.97
300.564	5.83
300.935	5.93
301.305	5.97
301.676	6.13
302.046	6.19
302.416	6.21
302.787	6.17
303.157	6.21
303.527	6.41
303.897	6.35
304.267	6.4
304.637	6.38
305.008	6.48
305.378	6.67
305.748	6.57
306.117	6.59
306.487	6.7
306.857	6.94
307.227	7.17
307.597	7.36
307.967	7.39
308.336	7.65
308.706	7.61
309.076	7.84
309.445	7.85
309.815	7.92
310.184	8.03
310.554	8.19
310.923	8.27
311.293	8.18
311.662	8.35
312.031	8.35
312.401	8.48
312.77	8.39
313.139	8.39
313.508	8.54
313.877	8.6
314.246	8.69
314.616	8.74
314.985	8.75
315.353	8.73
315.722	8.86
316.091	8.88
316.46	9.07
316.829	8.99
317.198	9.18
317.567	9.35
317.935	9.48
318.304	9.55
318.672	9.65
319.041	9.76
319.41	9.81
319.778	9.83
320.147	9.93
320.515	10.17
320.883	10.39
321.252	10.44
321.62	10.7
321.988	10.69
322.357	10.75
322.725	10.79
323.093	10.83
323.461	10.98
323.829	11.03
324.197	10.85
324.565	10.95
324.933	10.98
325.301	10.93
325.669	10.95
326.037	11.11
326.405	11.13
326.772	11.26
327.14	11.35
327.508	11.47
327.875	11.57
328.243	11.62
328.61	11.67
328.978	11.81
329.346	11.75
329.713	11.83
330.08	11.84
330.448	11.8
330.815	11.87
331.182	11.86
331.55	12.09
331.917	12.23
332.284	12.24
332.651	12.2
333.018	12.25
333.385	12.4
333.752	12.4
334.119	12.52
334.486	12.48
334.853	12.4
335.22	12.31
335.587	12.4
335.954	12.41
336.32	12.45
336.687	12.49
337.054	12.61
337.42	12.69
337.787	12.66
338.153	12.91
338.52	13.08
338.886	13.1
339.253	13.01
339.619	13.1
339.986	13.17
340.352	13.29
340.718	13.34
341.084	13.44
341.451	13.44
341.817	13.42
342.183	13.47
342.549	13.72
342.915	13.94
343.281	13.88
343.647	13.93
344.013	13.89
344.379	13.8
344.745	13.75
345.11	13.73
345.476	13.86
345.842	13.87
346.208	13.93
346.573	13.95
346.939	14
347.304	14.07
347.67	14.15
348.035	14.1
348.401	14.15
348.766	14.11
349.132	14.25
349.497	14.34
349.862	14.32
350.228	14.27
350.593	14.31
350.958	14.45
351.323	14.51
351.688	14.61
352.053	14.77
352.418	14.79
352.783	14.9
353.148	14.88
353.513	14.83
353.878	14.79
354.243	14.73
354.608	14.72
354.972	14.74
355.337	14.75
355.702	14.82
356.066	14.8
356.431	14.79
356.795	14.75
357.16	14.69
357.524	14.67
357.889	14.64
358.253	14.52
358.618	14.39
358.982	14.32
359.346	14.35
359.71	14.23
360.075	14.19
360.439	14.03
360.803	14.08
361.167	14.01
361.531	13.93
361.895	13.97
362.259	13.93
362.623	13.83
362.987	13.79
363.351	13.71
363.714	13.7
364.078	13.65
364.442	13.56
364.806	13.6
365.169	13.6
365.533	13.5
365.896	13.57
366.26	13.61
366.623	13.57
366.987	13.43
367.35	13.49
367.714	13.41
368.077	13.48
368.44	13.38
368.803	13.37
369.167	13.31
369.53	13.25
369.893	13.21
370.256	13.14
370.619	12.99
370.982	12.9
371.345	12.78
371.708	12.7
372.071	12.63
372.434	12.54
372.797	12.38
373.159	12.35
373.522	12.23
373.885	12.21
374.247	12.16
374.61	12.18
374.973	12.11
375.335	12.14
375.698	12.05
376.06	11.96
376.423	11.91
376.785	11.9
377.147	11.82
377.51	11.75
377.872	11.77
378.234	11.74
378.596	11.74
378.958	11.74
379.321	11.71
379.683	11.71
380.045	11.63
380.407	11.63
380.769	11.53
381.13	11.46
381.492	11.29
381.854	11.21
382.216	11.16
382.578	11.11
382.939	10.98
383.301	10.94
383.663	10.89
384.024	10.86
384.386	10.77
384.747	10.73
385.109	10.66
385.47	10.65
385.832	10.6
386.193	10.52
386.554	10.4
386.916	10.35
387.277	10.28
387.638	10.2
387.999	10.15
388.36	10.13
388.721	10.11
389.082	10.11
389.443	10.04
389.804	9.94
390.165	9.87
390.526	9.85
390.887	9.78
391.248	9.72
391.609	9.65
391.969	9.61
392.33	9.47
392.691	9.46
393.051	9.32
393.412	9.23
393.772	9.22
394.133	9.18
394.493	9.1
394.854	9.03
395.214	8.93
395.574	8.83
395.935	8.77
396.295	8.67
396.655	8.61
397.015	8.58
397.376	8.51
397.736	8.41
398.096	8.32
398.456	8.25
398.816	8.17
399.176	8.12
399.535	8.08
399.895	8.08
400.255	8
400.615	7.96
400.975	7.94
401.334	7.85
401.694	7.79
402.054	7.77
402.413	7.74
402.773	7.72
403.132	7.69
403.492	7.68
403.851	7.64
404.211	7.59
404.57	7.56
404.929	7.51
405.288	7.5
405.648	7.49
406.007	7.47
406.366	7.45
406.725	7.42
407.084	7.38
407.443	7.36
407.802	7.31
408.161	7.32
408.52	7.29
408.879	7.29
409.238	7.28
409.596	7.27
409.955	7.24
410.314	7.25
410.673	7.25
411.031	7.21
411.39	7.2
411.748	7.19
412.107	7.13
412.465	7.1
412.824	7.07
413.182	7.05
413.54	7.04
413.899	7.02
414.257	7.01
414.615	6.95
414.974	6.92
415.332	6.86
415.69	6.81
416.048	6.77
416.406	6.69
416.764	6.62
417.122	6.55
417.48	6.51
417.838	6.44
418.195	6.4
418.553	6.35
418.911	6.3
419.269	6.27
419.626	6.24
419.984	6.21
420.342	6.17
420.699	6.13
421.057	6.07
421.414	6.05
421.772	6
422.129	5.97
422.486	5.95
422.844	5.93
423.201	5.9
423.558	5.87
423.915	5.86
424.273	5.83
424.63	5.82
424.987	5.81
425.344	5.8
425.701	5.78
426.058	5.78
426.415	5.77
426.772	5.73
427.128	5.72
427.485	5.71
427.842	5.7
428.199	5.7
428.555	5.7
428.912	5.68
429.269	5.67
429.625	5.67
429.982	5.65
430.338	5.66
430.695	5.66
431.051	5.67
431.407	5.65
431.764	5.66
432.12	5.67
432.476	5.65
432.832	5.62
433.189	5.62
433.545	5.62
433.901	5.61
434.257	5.64
434.613	5.62
434.969	5.6
435.325	5.59
435.681	5.6
436.036	5.59
436.392	5.6
436.748	5.6
437.104	5.59
437.459	5.58
437.815	5.58
438.171	5.57
438.526	5.58
438.882	5.6
439.237	5.6
439.593	5.59
439.948	5.58
440.304	5.6
440.659	5.58
441.014	5.55
441.369	5.52
441.725	5.49
442.08	5.48
442.435	5.46
442.79	5.45
443.145	5.42
443.5	5.41
443.855	5.39
444.21	5.36
444.565	5.34
444.92	5.33
445.275	5.29
445.629	5.26
445.984	5.22
446.339	5.21
446.693	5.19
447.048	5.15
447.403	5.14
447.757	5.11
448.112	5.1
448.466	5.1
448.82	5.08
449.175	5.07
449.529	5.07
449.883	5.06
450.238	5.04
450.592	5.02
450.946	5.01
451.3	4.98
451.654	4.98
452.008	4.95
452.362	4.93
452.716	4.95
453.07	4.93
453.424	4.95
453.778	4.92
454.132	4.89
454.486	4.91
454.839	4.91
455.193	4.93
455.547	4.93
455.9	4.93
456.254	4.95
456.607	4.97
456.961	4.98
457.314	5
457.668	5.02
458.021	5.04
458.375	5.05
458.728	5.07
459.081	5.07
459.434	5.1
459.787	5.12
460.141	5.13
460.494	5.15
460.847	5.16
461.2	5.18
461.553	5.22
461.906	5.24
462.259	5.26
462.611	5.28
462.964	5.31
463.317	5.34
463.67	5.36
464.022	5.36
464.375	5.37
464.728	5.39
465.08	5.4
465.433	5.43
465.785	5.45
466.138	5.48
466.49	5.51
466.843	5.55
467.195	5.6
467.547	5.61
467.899	5.65
468.252	5.67
468.604	5.69
468.956	5.71
469.308	5.72
469.66	5.74
470.012	5.74
470.364	5.77
470.716	5.81
471.068	5.83
471.42	5.85
471.772	5.89
472.123	5.93
472.475	5.94
472.827	5.94
473.178	5.94
473.53	5.92
473.882	5.92
474.233	5.9
474.585	5.85
474.936	5.83
475.288	5.82
475.639	5.78
475.99	5.75
476.342	5.76
476.693	5.74
477.044	5.72
477.395	5.71
477.746	5.67
478.097	5.63
478.448	5.59
478.8	5.57
479.15	5.54
479.501	5.5
479.852	5.48
480.203	5.48
480.554	5.49
480.905	5.5
481.255	5.49
481.606	5.5
481.957	5.52
482.307	5.51
482.658	5.52
483.009	5.54
483.359	5.55
483.709	5.56
484.06	5.56
484.41	5.56
484.761	5.58
485.111	5.58
485.461	5.59
485.811	5.61
486.162	5.62
486.512	5.63
486.862	5.66
487.212	5.69
487.562	5.7
487.912	5.72
488.262	5.73
488.612	5.77
488.961	5.8
489.311	5.81
489.661	5.85
490.011	5.86
490.36	5.89
490.71	5.92
491.06	5.93
491.409	5.96
491.759	6
492.108	6.03
492.458	6.08
492.807	6.12
493.157	6.18
493.506	6.22
493.855	6.28
494.204	6.35
494.554	6.4
494.903	6.46
495.252	6.52
495.601	6.59
495.95	6.63
496.299	6.7
496.648	6.76
496.997	6.86
497.346	6.95
497.695	7.05
498.043	7.14
498.392	7.23
498.741	7.33
499.09	7.42
499.438	7.51
499.787	7.58
500.135	7.66
500.484	7.75
500.832	7.87
501.181	7.99
501.529	8.1
501.878	8.21
502.226	8.34
502.574	8.49
502.923	8.62
503.271	8.74
503.619	8.89
503.967	9.03
504.315	9.15
504.663	9.31
505.011	9.43
505.359	9.58
505.707	9.73
506.055	9.86
506.403	10
506.751	10.14
507.098	10.32
507.446	10.49
507.794	10.63
508.141	10.78
508.489	10.9
508.837	11.03
509.184	11.16
509.531	11.31
509.879	11.44
510.226	11.59
510.574	11.74
510.921	11.87
511.268	12.03
511.616	12.19
511.963	12.34
512.31	12.49
512.657	12.65
513.004	12.79
513.351	12.98
513.698	13.17
514.045	13.37
514.392	13.54
514.739	13.72
515.086	13.92
515.432	14.1
515.779	14.29
516.126	14.47
516.473	14.68
516.819	14.84
517.166	15.01
517.512	15.18
517.859	15.37
518.205	15.54
518.552	15.72
518.898	15.87
519.245	16
519.591	16.18
519.937	16.34
520.283	16.56
520.629	16.73
520.976	16.93
521.322	17.14
521.668	17.33
522.014	17.53
522.36	17.73
522.706	18
523.052	18.27
523.398	18.54
523.743	18.77
524.089	19.05
524.435	19.31
524.781	19.57
525.126	19.79
525.472	20.02
525.817	20.23
526.163	20.42
526.509	20.61
526.854	20.77
527.199	20.94
527.545	21.09
527.89	21.23
528.235	21.38
528.581	21.55
528.926	21.74
529.271	21.93
529.616	22.12
529.961	22.28
530.306	22.46
530.651	22.66
530.996	22.88
531.341	23.09
531.686	23.27
532.031	23.48
532.376	23.69
532.721	23.92
533.065	24.14
533.41	24.37
533.755	24.62
534.099	24.84
534.444	25.09
534.788	25.35
535.133	25.61
535.477	25.88
535.822	26.12
536.166	26.38
536.51	26.71
536.855	27.02
537.199	27.37
537.543	27.69
537.887	28.03
538.231	28.36
538.576	28.68
538.92	29.03
539.264	29.3
539.608	29.58
539.951	29.83
540.295	30.11
540.639	30.39
540.983	30.62
541.327	30.9
541.671	31.14
542.014	31.38
542.358	31.6
542.701	31.8
543.045	32.05
543.389	32.26
543.732	32.44
544.075	32.64
544.419	32.85
544.762	33.08
545.105	33.28
545.449	33.53
545.792	33.78
546.135	34.04
546.478	34.39
546.821	34.7
547.165	34.94
547.508	35.21
547.851	35.49
548.194	35.81
548.536	36.1
548.879	36.4
549.222	36.67
549.565	36.97
549.908	37.28
550.25	37.55
550.593	37.83
550.936	38.11
551.278	38.41
551.621	38.72
551.963	38.99
552.306	39.26
552.648	39.49
552.991	39.77
553.333	40.07
553.675	40.29
554.017	40.53
554.36	40.86
554.702	41.09
555.044	41.34
555.386	41.57
555.728	41.82
556.07	42.01
556.412	42.24
556.754	42.52
557.096	42.77
557.438	43.05
557.78	43.29
558.121	43.54
558.463	43.78
558.805	44.01
559.147	44.21
559.488	44.48
559.83	44.7
560.171	44.88
560.513	45.08
560.854	45.26
561.196	45.47
561.537	45.71
561.878	45.9
562.22	46.05
562.561	46.3
562.902	46.48
563.243	46.66
563.584	46.86
563.925	47.01
564.266	47.21
564.607	47.37
564.948	47.54
565.289	47.68
565.63	47.78
565.971	47.86
566.312	48.03
566.653	48.14
566.993	48.31
567.334	48.47
567.675	48.6
568.015	48.71
568.356	48.86
568.696	48.91
569.037	49.08
569.377	49.22
569.718	49.35
570.058	49.45
570.398	49.56
570.739	49.67
571.079	49.81
571.419	49.88
571.759	49.94
572.099	50.03
572.439	50.16
572.779	50.28
573.119	50.43
573.459	50.48
573.799	50.64
574.139	50.7
574.479	50.81
574.819	50.9
575.158	51.1
575.498	51.18
575.838	51.3
576.177	51.36
576.517	51.45
576.856	51.49
577.196	51.66
577.535	51.78
577.875	51.89
578.214	51.97
578.553	52.12
578.893	52.31
579.232	52.45
579.571	52.55
579.91	52.67
580.25	52.77
580.589	52.91
580.928	52.9
581.267	52.93
581.606	53
581.945	53.1
582.283	53.15
582.622	53.18
582.961	53.28
583.3	53.36
583.639	53.45
583.977	53.58
584.316	53.66
584.654	53.73
584.993	53.79
585.332	53.85
585.67	53.89
586.008	53.95
586.347	54.08
586.685	54.12
587.024	54.22
587.362	54.22
587.7	54.27
588.038	54.39
588.376	54.62
588.715	54.71
589.053	54.78
589.391	54.82
589.729	54.92
590.067	54.97
590.404	54.98
590.742	55.01
591.08	55.04
591.418	55.04
591.756	55.14
592.093	55.17
592.431	55.22
592.769	55.23
593.106	55.23
593.444	55.2
593.781	55.3
594.119	55.34
594.456	55.42
594.793	55.49
595.131	55.54
595.468	55.54
595.805	55.56
596.143	55.58
596.48	55.6
596.817	55.57
597.154	55.62
597.491	55.72
597.828	55.78
598.165	55.79
598.502	55.81
598.839	55.85
599.176	55.89
599.512	55.96
599.849	56.06
600.186	56.13
600.523	56.13
600.859	56.15
601.196	56.19
601.532	56.22
601.869	56.23
602.205	56.25
602.542	56.22
602.878	56.23
603.215	56.29
603.551	56.29
603.887	56.33
604.223	56.4
604.56	56.42
604.896	56.44
605.232	56.42
605.568	56.45
605.904	56.45
606.24	56.48
606.576	56.5
606.912	56.48
607.248	56.5
607.583	56.54
607.919	56.61
608.255	56.57
608.591	56.59
608.926	56.64
609.262	56.66
609.597	56.73
609.933	56.8
610.268	56.79
610.604	56.89
610.939	56.96
611.275	56.94
611.61	56.93
611.945	56.95
612.281	57.06
612.616	57.09
612.951	57.1
613.286	57.19
613.621	57.25
613.956	57.34
614.291	57.32
614.626	57.46
614.961	57.39
615.296	57.53
615.631	57.59
615.966	57.58
616.3	57.68
616.635	57.67
616.97	57.76
617.304	57.81
617.639	57.8
617.973	57.89
618.308	57.88
618.642	57.95
618.977	58
619.311	57.99
619.646	57.98
619.98	57.98
620.314	57.95
620.648	57.98
620.983	57.93
621.317	57.99
621.651	57.9
621.985	57.92
622.319	57.84
622.653	57.82
622.987	57.88
623.321	57.86
623.655	57.81
623.988	57.78
624.322	57.78
624.656	57.77
624.99	57.7
625.323	57.76
625.657	57.73
625.99	57.74
626.324	57.84
626.657	57.82
626.991	57.83
627.324	57.83
627.658	57.81
627.991	57.78
628.324	57.7
628.657	57.82
628.991	57.86
629.324	57.9
629.657	57.92
629.99	57.89
630.323	57.86
630.656	58.02
630.989	58.02
631.322	58.01
631.655	58.06
631.987	58.07
632.32	58.08
632.653	58.08
632.986	58.12
633.318	58.12
633.651	58.26
633.984	58.38
634.316	58.52
634.649	58.57
634.981	58.69
635.313	58.87
635.646	58.82
635.978	58.83
636.31	58.91
636.643	58.96
636.975	59
637.307	59.09
637.639	59.08
637.971	59.04
638.303	59.1
638.635	59.03
638.967	59.06
639.299	59.04
639.631	59.14
639.963	59.15
640.295	59.09
640.626	59.07
640.958	59.03
641.29	58.9
641.621	58.88
641.953	58.86
642.285	58.81
642.616	58.81
642.948	58.81
643.279	58.79
643.61	58.79
643.942	58.84
644.273	58.81
644.604	58.79
644.936	58.92
645.267	58.79
645.598	58.88
645.929	58.92
646.26	58.99
646.591	58.97
646.922	58.94
647.253	58.94
647.584	58.95
647.915	58.97
648.245	58.99
648.576	58.94
648.907	59.06
649.238	58.95
649.568	58.85
649.899	58.96
650.229	58.92
650.56	58.9
650.89	58.93
651.221	58.87
651.551	58.8
651.882	58.68
652.212	58.73
652.542	58.72
652.872	58.73
653.203	58.68
653.533	58.65
653.863	58.63
654.193	58.72
654.523	58.59
654.853	58.67
655.183	58.67
655.513	58.68
655.843	58.45
656.172	58.46
656.502	58.47
656.832	58.33
657.162	58.46
657.491	58.51
657.821	58.46
658.15	58.62
658.48	58.63
658.809	58.7
659.139	58.8
659.468	58.84
659.798	58.81
660.127	58.8
660.456	58.82
660.785	58.78
661.115	58.64
661.444	58.84
661.773	58.76
662.102	58.87
662.431	58.97
662.76	59.02
663.089	59.16
663.418	59.29
663.747	59.32
664.076	59.24
664.404	59.26
664.733	59.29
665.062	59.26
665.39	59.34
665.719	59.39
666.048	59.21
666.376	59.22
666.705	59.18
667.033	59.17
667.362	59.17
667.69	59.25
668.018	59.34
668.347	59.21
668.675	59.32
669.003	59.32
669.331	59.18
669.659	59.21
669.987	59.19
670.315	59.27
670.643	59.35
670.971	59.3
671.299	59.17
671.627	59.22
671.955	59.17
672.283	59.16
672.61	58.94
672.938	59.07
673.266	59.02
673.593	59.08
673.921	59.13
674.249	59.27
674.576	59.13
674.904	59.19
675.231	59.07
675.558	59.01
675.886	58.87
676.213	58.98
676.54	58.99
676.867	58.89
677.195	58.79
677.522	59.02
677.849	59.17
678.176	59.26
678.503	59.22
678.83	59.18
679.157	59.13
679.484	59.32
679.81	59.35
680.137	59.41
680.464	59.48
680.791	59.55
681.117	59.45
681.444	59.44
681.771	59.5
682.097	59.76
682.424	59.79
682.75	59.9
683.077	59.9
683.403	59.99
683.729	60.09
684.056	60.06
684.382	59.78
684.708	59.71
685.034	59.74
685.36	59.77
685.686	59.79
686.012	59.81
686.339	59.7
686.664	59.77
686.99	59.71
687.316	59.72
687.642	59.63
687.968	59.77
688.294	59.91
688.619	59.94
688.945	59.75
689.271	59.75
689.596	59.69
689.922	59.6
690.247	59.45
690.573	59.62
690.898	59.73
691.224	59.91
691.549	59.9
691.874	60
692.2	59.9
692.525	59.78
692.85	59.93
693.175	60.02
693.5	60.07
693.825	59.99
694.15	60.03
694.475	60.04
694.8	59.96
695.125	59.86
695.45	59.76
695.775	59.82
696.099	59.83
696.424	59.81
696.749	59.89
697.073	59.93
697.398	59.8
697.723	59.89
698.047	59.87
698.372	59.84
698.696	59.66
699.02	59.79
699.345	59.87
699.669	59.81
699.993	59.76
700.318	59.59
700.642	59.66
700.966	59.64
701.29	59.9
701.614	59.88
701.938	60.02
702.262	59.98
702.586	59.93
702.91	59.88
703.234	59.92
703.557	59.94
703.881	60.31
704.205	60.5
704.529	60.42
704.852	60.37
705.176	60.24
705.499	60.33
705.823	60.3
706.146	60.47
706.47	60.39
706.793	60.42
707.117	60.64
707.44	60.79
707.763	60.6
708.086	60.24
708.409	60.4
708.733	60.48
709.056	60.66
709.379	60.72
709.702	60.81
710.025	60.75
710.348	60.66
710.671	60.28
710.993	60.11
711.316	60.16
711.639	60.14
711.962	60.39
712.284	60.44
712.607	60.47
712.93	60.48
713.252	60.57
713.575	60.75
713.897	60.55
714.22	60.52
714.542	60.69
714.864	60.75
715.187	60.53
715.509	60.47
715.831	60.34
716.153	60.45
716.475	60.29
716.798	60.37
717.12	60.39
717.442	60.4
717.764	60.36
718.085	60.1
718.407	60.13
718.729	60.03
719.051	60
719.373	59.86
719.695	59.68
720.016	59.62
720.338	59.4
720.659	59.42
720.981	59.36
721.302	59.21
721.624	59.28
721.945	59.22
722.267	59.17
722.588	59.17
722.909	59.27
723.231	59.45
723.552	59.4
723.873	59.65
724.194	59.58
724.515	59.84
724.836	59.97
725.157	60.12
725.478	60.11
725.799	60.24
726.12	60.22
726.441	60.25
726.762	60.35
727.083	60.39
727.403	60.66
727.724	60.59
728.045	60.73
728.365	60.51
728.686	60.61
729.006	60.97
729.327	60.97
729.647	60.82
729.967	60.76
730.288	60.76
730.608	60.69
730.928	60.88
731.249	60.59
731.569	60.37
731.889	60.39
732.209	60.34
732.529	60.35
732.849	60.5
733.169	60.69
733.489	60.54
733.809	60.57
734.129	60.45
734.448	60.52
734.768	60.18
735.088	60.27
735.408	60.21
735.727	59.87
736.047	59.91
736.366	59.75
736.686	59.77
737.005	59.99
737.325	59.99
737.644	59.8
737.963	59.94
738.283	60.12
738.602	60.09
738.921	60.24
739.24	60.14
739.56	59.99
739.879	59.76
740.198	59.79
740.517	59.69
740.836	59.75
741.155	59.86
741.473	60.21
741.792	60.26
742.111	60.44
742.43	60.31
742.748	60.09
743.067	60.31
743.386	60.05
743.704	59.82
744.023	59.81
744.341	59.87
744.66	59.99
744.978	60.22
745.297	59.87
745.615	59.82
745.933	60.03
746.252	60.27
746.57	60.3
746.888	60.37
747.206	60.43
747.524	60.38
747.842	60.24
748.16	60.26
748.478	60.44
748.796	60.4
749.114	60.57
749.432	60.96
749.749	60.78
750.067	61.19
750.385	61.18
750.703	61.29
751.02	61.3
751.338	61.38
751.655	61.19
751.973	61.46
752.29	61.12
752.608	60.63
752.925	60.69
753.242	60.77
753.56	60.9
753.877	60.85
754.194	60.98
754.511	61.01
754.828	61.01
755.145	60.73
755.462	60.97
755.779	60.94
756.096	60.95
756.413	61.04
756.73	60.85
757.047	60.67
757.364	60.49
757.68	60.33
757.997	60.16
758.314	60.28
758.63	60.37
758.947	60.85
759.264	61.28
759.58	60.99
759.896	60.86
760.213	60.54
760.529	60.43
760.846	60.1
761.162	60.06
761.478	59.99
761.794	60.01
762.11	59.61
762.426	59.58
762.743	59.62
763.059	59.9
763.375	59.89
763.69	60.09
764.006	60.08
764.322	60.09
764.638	60.04
764.954	59.95
765.27	60.05
765.585	60.01
765.901	59.94
766.216	60.14
766.532	60.31
766.848	60.68
767.163	60.88
767.478	60.97
767.794	61.11
768.109	61.09
768.424	61.02
768.74	61.32
769.055	61.24
769.37	61.21
769.685	60.81
770	61.01
770.315	60.98
770.63	60.89
770.945	61.13
771.26	61.25
771.575	61.61
771.89	61.69
772.205	61.7
772.52	61.86
772.834	61.67
773.149	61.24
773.464	61.02
773.778	60.93
774.093	60.98
774.407	60.67
774.722	60.92
775.036	60.93
775.351	61.1
775.665	61.47
775.979	61.34
776.293	61.52
776.608	61.3
776.922	61.43
777.236	61.68
777.55	61.1
777.864	61.35
778.178	60.8
778.492	60.59
778.806	60.3
779.12	59.86
779.434	60.16
779.747	60.32
780.061	60.21
780.375	60.21
780.689	60.43
781.002	60.51
781.316	60.38
781.629	60.54
781.943	60.48
782.256	60.48
782.57	60.17
782.883	59.97
783.196	59.83
783.51	59.15
783.823	58.82
784.136	58.94
784.449	58.82
784.762	58.59
785.075	58.31
785.388	59.09
785.701	59.45
786.014	58.92
786.327	59.05
786.64	59.62
786.953	60
787.266	59.75
787.578	59.89
787.891	59.62
788.204	59.59
788.516	59.48
788.829	59.33
789.141	59.71
789.454	59.62
789.766	59.95
790.079	60.28
790.391	59.65
790.703	60.09
791.016	59.91
791.328	60.55
791.64	60.61
791.952	60.05
792.264	60.06
792.576	60.19
792.888	60.28
793.2	59.67
793.512	59.48
793.824	59.92
794.136	59.87
794.448	60.24
794.76	60.37
795.071	59.83
795.383	60.11
795.695	59.82
796.006	60.06
796.318	60.06
796.629	60.58
796.941	61.37
797.252	61.18
797.564	61.15
797.875	60.96
798.186	61.07
798.497	60.6
798.809	60.63
799.12	60.92
799.431	60.69
799.742	60.69
800.053	60.35
800.364	59.82
800.675	60.33
800.986	60.73
801.297	60.76
801.608	60.75
801.918	60.28
802.229	60.6
802.54	60.87
802.851	60.81
803.161	60.05
803.472	60.36
803.782	60.63
804.093	60.32
804.403	60.54
804.714	60.53
805.024	61.16
805.334	60.9
805.645	61.43
805.955	61.36
806.265	61.18
806.575	62.14
806.885	61.99
807.195	61.02
807.505	60.11
807.815	60.28
808.125	60.75
808.435	60.94
808.745	60.53
809.055	59.8
809.365	59.63
809.674	59.79
809.984	58.87
810.294	58.42
810.603	58.48
810.913	58.52
811.222	57.97
811.532	57.34
811.841	56.92
812.151	55.88
812.46	56.39
812.769	56.74
813.079	55.51
813.388	56.1
813.697	56.4
814.006	55.69
814.315	55.78
814.624	55.43
814.933	55.39
815.242	55.72
815.551	56.06
815.86	56.55
816.169	57.17
816.478	57.88
816.786	58.17
817.095	57.57
817.404	56.85
817.712	57.67
818.021	57.94
818.33	58.47
818.638	59.07
818.947	59.06
819.255	58.61
819.563	58.87
819.872	58.69
820.18	59.22
820.488	59.39
820.796	59.02
821.105	59.41
821.413	59.48
821.721	59.39
822.029	59.25
822.337	59.12
822.645	59.05
822.953	59.3
823.26	59.38
823.568	59.75
823.876	59.88
824.184	59.82
824.491	59.79
824.799	59.74
825.107	59.47
825.414	59.35
825.722	59.64
826.029	59.63
826.337	59.65
826.644	59.44
826.951	59.55
827.259	59.67
827.566	59.63
827.873	59.6
828.18	59.7
828.488	59.89
828.795	59.99
829.102	60.3
829.409	59.97
829.716	60.23
830.023	60.24
830.329	60.42
830.636	60.71
830.943	61.09
831.25	61.46
831.557	61.57
831.863	61.92
832.17	61.61
832.476	61.85
832.783	61.8
833.089	61.83
833.396	61.74
833.702	61.77
834.009	61.64
834.315	61.59
834.621	61.83
834.928	62.06
835.234	61.58
835.54	61.16
835.846	61.49
836.152	61.05
836.458	60.67
836.764	60.45
837.07	60
837.376	60.19
837.682	59.68
837.988	60.53
838.293	59.82
838.599	60.03
838.905	59.91
839.211	60.29
839.516	60.79
839.822	61.89
840.127	61.74
840.433	61.39
840.738	62.77
841.044	62.48
841.349	62.26
841.654	62.72
841.959	62.22
842.265	60.69
842.57	60.63
842.875	60.73
843.18	61.42
843.485	61.19
843.79	60.27
844.095	60.99
844.4	59.86
844.705	61.13
845.01	61.23
845.315	60.76
845.619	60.87
845.924	58.8
846.229	57.43
846.533	58.2
846.838	56.93
847.142	54.14
847.447	54.76
847.751	55.55
848.056	55.42
848.36	55.79
848.664	57.44
848.969	55.98
849.273	55.48
849.577	54.44
849.881	54.7
850.185	53.14
850.489	52.93
850.794	53.96
851.097	54.07
851.401	53.3
851.705	53.63
852.009	53.17
852.313	55.88
852.617	57.97
852.92	57.59
853.224	59.2
853.528	59.99
853.831	58.79
854.135	58.46
854.438	60.89
854.742	61.88
855.045	61.41
855.349	64.01
855.652	64.94
855.955	64.55
856.259	63.64
856.562	64.61
856.865	63.78
857.168	62.67
857.471	61.15
857.774	61.72
858.077	60.65
858.38	60.02
858.683	58.22
858.986	55.4
859.289	54.55
859.592	56.05
859.894	56.6
860.197	55.31
860.5	55.13
860.802	53.98
861.105	53.26
861.407	54.7
861.71	55.68
862.012	54.6
862.315	54.28
862.617	54.53
862.919	54.74
863.222	56.2
863.524	55.82
863.826	56.47
864.128	57.12
864.43	59.22
864.732	61.87
865.034	63.75
865.336	65.58
865.638	64.76
865.94	63.14
866.242	62.74
866.544	64.33
866.846	63.41
867.147	64.47
867.449	64.68
867.751	64.5
868.052	64.02
868.354	66.16
868.655	65.51
868.957	65.62
869.258	66.27
869.56	65.4
869.861	65.56
870.162	63.4
870.463	61.9
870.765	61.94
871.066	58.65
871.367	56.55
871.668	57.5
871.969	56.68
872.27	56.61
872.571	56.91
872.872	55.34
873.173	55.63
873.473	55.48
873.774	54.98
874.075	55.3
874.376	54.27
874.676	52.06
874.977	53.21
875.277	53.3
875.578	52.95
875.878	52.41
876.179	52.77
876.479	54.72
876.78	54.74
877.08	53.75
877.38	55
877.68	56.02
877.981	53.67
878.281	57.95
878.581	59.56
