Data from BA48287_Reflection_00002.txt Node
Date: Tue Nov 19 11:43:16 EST 2019
User: vgr7
Spectrometer: USB2G7710
Scans to average: 3
Trigger mode: 4
Integration Time (sec): 2.000000E-2
Electric dark correction enabled: true
Boxcar width: 10
XAxis mode: Wavelengths
Number of Pixels in Spectrum: 2048
>>>>>Begin Spectral Data<<<<<
177.721	43.44
178.105	7.8
178.488	4.85
178.871	-5.64
179.254	14.53
179.636	39.04
180.019	37.58
180.402	114.29
180.785	32.12
181.168	-36.9
181.55	58.85
181.933	92.71
182.316	44.81
182.698	-2122.22
183.081	-134.74
183.463	7766.67
183.846	63.96
184.228	-29.35
184.611	8.05
184.993	166.67
185.376	79.74
185.758	47.23
186.14	25.79
186.522	39.83
186.904	33.33
187.287	28.51
187.669	44.89
188.051	51.5
188.433	78.81
188.815	179.77
189.197	115.08
189.579	60.41
189.961	51.6
190.342	32.63
190.724	45.36
191.106	44.36
191.488	34.07
191.869	27.5
192.251	27.26
192.633	19.65
193.014	8.98
193.396	-2.37
193.777	3.75
194.159	-0.9
194.54	-2.95
194.922	-11.38
195.303	-3.74
195.684	3.85
196.065	2.81
196.447	-1.07
196.828	-7.08
197.209	-1.99
197.59	1.22
197.971	-1.17
198.352	-0.44
198.733	-11.77
199.114	-9.13
199.495	-6.15
199.876	-2.41
200.257	-10.32
200.638	-12.88
201.018	1.63
201.399	16.76
201.78	19.97
202.16	13.22
202.541	15.73
202.922	28.75
203.302	29.53
203.683	12.53
204.063	19.24
204.444	26.74
204.824	23.65
205.204	20.77
205.585	29.74
205.965	46.07
206.345	49.63
206.725	61.52
207.106	75.24
207.486	80.05
207.866	61.73
208.246	72.42
208.626	81.67
209.006	54.02
209.386	31.61
209.766	23.25
210.145	49.82
210.525	47.8
210.905	45.7
211.285	20.25
211.664	31.67
212.044	21.79
212.424	26.94
212.803	22.25
213.183	15.23
213.562	10.52
213.942	7.63
214.321	0.45
214.701	-14.93
215.08	-24.78
215.459	-21.38
215.838	-26.33
216.218	-37.9
216.597	-45.52
216.976	-28.86
217.355	-18.49
217.734	-15.79
218.113	-18.1
218.492	-14.11
218.871	-9.13
219.25	-7.7
219.629	-34.11
220.008	-22.87
220.387	-28.78
220.766	-13.86
221.144	-20.13
221.523	-18.82
221.902	-13.17
222.28	-9.49
222.659	19.78
223.037	24.52
223.416	24.74
223.794	31.96
224.173	33.43
224.551	37.6
224.929	33.08
225.308	26.89
225.686	26.02
226.064	20.27
226.442	17.94
226.821	16.12
227.199	17.39
227.577	16.95
227.955	14.15
228.333	16.1
228.711	14.74
229.089	14.8
229.467	14.26
229.845	14.58
230.222	15.99
230.6	13.3
230.978	13.06
231.356	12.8
231.733	12.19
232.111	10.57
232.488	12.08
232.866	12.36
233.243	12.98
233.621	13.59
233.998	15.17
234.376	14.31
234.753	13.38
235.13	14.35
235.508	13.97
235.885	12.85
236.262	10.58
236.639	9.66
237.016	10.63
237.393	10.81
237.77	10.33
238.147	9.04
238.524	7.85
238.901	6.86
239.278	5.56
239.655	5.21
240.032	5.79
240.409	5.44
240.785	4.72
241.162	4.85
241.539	5.47
241.915	5.15
242.292	5.35
242.668	5.22
243.045	5.39
243.421	5.73
243.798	5.88
244.174	5.86
244.551	5.91
244.927	5.72
245.303	5.39
245.679	5.29
246.056	5.13
246.432	5.21
246.808	5.43
247.184	5.46
247.56	5.55
247.936	5.5
248.312	5.48
248.688	5.76
249.064	5.68
249.44	5.35
249.815	5.41
250.191	5.29
250.567	5.33
250.943	5.23
251.318	5.25
251.694	5.28
252.069	5.35
252.445	5.44
252.82	5.62
253.196	5.82
253.571	5.79
253.947	6.37
254.322	6.2
254.697	6.22
255.073	6.31
255.448	6.13
255.823	6.02
256.198	5.89
256.573	5.9
256.948	5.8
257.323	5.94
257.698	5.92
258.073	5.71
258.448	5.75
258.823	5.63
259.198	5.66
259.573	5.38
259.948	5.44
260.322	5.32
260.697	5.31
261.072	5.27
261.446	5.34
261.821	5.14
262.195	5.06
262.57	4.92
262.944	4.99
263.319	5.09
263.693	4.94
264.067	5.07
264.442	4.99
264.816	4.9
265.19	4.69
265.564	4.53
265.938	4.78
266.313	4.72
266.687	4.77
267.061	4.66
267.435	4.83
267.809	4.77
268.183	4.74
268.556	4.57
268.93	4.61
269.304	4.39
269.678	4.41
270.051	4.66
270.425	4.53
270.799	4.42
271.172	4.35
271.546	4.42
271.919	4.23
272.293	4.16
272.666	4.32
273.04	4.4
273.413	4.39
273.787	4.25
274.16	4.19
274.533	4.37
274.906	4.3
275.279	4.26
275.653	4.36
276.026	4.47
276.399	4.5
276.772	4.45
277.145	4.68
277.518	4.72
277.891	4.52
278.263	4.8
278.636	4.87
279.009	4.94
279.382	4.93
279.755	5.04
280.127	5.07
280.5	5.13
280.872	5
281.245	5.03
281.617	5.18
281.99	5.26
282.362	5.11
282.735	5.08
283.107	5.16
283.479	5.11
283.852	5.1
284.224	5.14
284.596	5.14
284.968	4.96
285.34	4.93
285.713	4.96
286.085	4.83
286.457	4.89
286.829	4.92
287.201	5
287.572	4.91
287.944	5
288.316	4.88
288.688	4.93
289.06	4.96
289.431	5.01
289.803	4.95
290.175	5.02
290.546	5.18
290.918	5.2
291.289	5.09
291.661	5.12
292.032	5.06
292.403	5.11
292.775	5.32
293.146	5.43
293.517	5.52
293.889	5.55
294.26	5.57
294.631	5.62
295.002	5.53
295.373	5.54
295.744	5.45
296.115	5.55
296.486	5.61
296.857	5.5
297.228	5.43
297.599	5.43
297.97	5.49
298.34	5.43
298.711	5.44
299.082	5.56
299.452	5.45
299.823	5.49
300.194	5.47
300.564	5.36
300.935	5.31
301.305	5.33
301.676	5.26
302.046	5.18
302.416	5.09
302.787	5.13
303.157	5.09
303.527	5.11
303.897	5
304.267	5.02
304.637	5.12
305.008	5.13
305.378	5.27
305.748	5.12
306.117	4.97
306.487	5.01
306.857	4.98
307.227	5.15
307.597	5.11
307.967	5.15
308.336	5.18
308.706	5.16
309.076	5.13
309.445	5.25
309.815	5.18
310.184	5.1
310.554	5.06
310.923	5.14
311.293	5.24
311.662	5.47
312.031	5.51
312.401	5.47
312.77	5.44
313.139	5.31
313.508	5.24
313.877	5.3
314.246	5.29
314.616	5.19
314.985	5.18
315.353	5.29
315.722	5.22
316.091	5.28
316.46	5.28
316.829	5.3
317.198	5.3
317.567	5.54
317.935	5.61
318.304	5.85
318.672	5.89
319.041	5.81
319.41	5.62
319.778	5.23
320.147	5.28
320.515	5.23
320.883	5.23
321.252	5.35
321.62	5.37
321.988	5.46
322.357	5.52
322.725	5.51
323.093	5.45
323.461	5.43
323.829	5.31
324.197	5.23
324.565	5.24
324.933	5.2
325.301	5.06
325.669	5.01
326.037	4.91
326.405	4.86
326.772	4.78
327.14	4.72
327.508	5
327.875	4.99
328.243	5.16
328.61	5.31
328.978	5.23
329.346	5.19
329.713	5.09
330.08	5.2
330.448	5.22
330.815	5.29
331.182	5.25
331.55	5.34
331.917	5.34
332.284	5.24
332.651	5.15
333.018	5.05
333.385	5.05
333.752	5.01
334.119	5.03
334.486	5.11
334.853	5.18
335.22	5.15
335.587	5.14
335.954	4.98
336.32	4.83
336.687	5
337.054	5.11
337.42	5.14
337.787	5.08
338.153	5.03
338.52	4.99
338.886	5.07
339.253	5.11
339.619	5.16
339.986	5.16
340.352	5.28
340.718	5.42
341.084	5.48
341.451	5.6
341.817	5.56
342.183	5.49
342.549	5.51
342.915	5.55
343.281	5.66
343.647	5.67
344.013	5.7
344.379	5.61
344.745	5.52
345.11	5.51
345.476	5.54
345.842	5.45
346.208	5.48
346.573	5.63
346.939	5.56
347.304	5.58
347.67	5.66
348.035	5.57
348.401	5.55
348.766	5.57
349.132	5.59
349.497	5.61
349.862	5.62
350.228	5.54
350.593	5.47
350.958	5.45
351.323	5.44
351.688	5.47
352.053	5.48
352.418	5.62
352.783	5.61
353.148	5.52
353.513	5.48
353.878	5.44
354.243	5.25
354.608	5.28
354.972	5.21
355.337	5.14
355.702	5.15
356.066	5.15
356.431	5.1
356.795	4.97
357.16	4.98
357.524	5.07
357.889	5.14
358.253	5.07
358.618	5
358.982	5.01
359.346	4.95
359.71	4.96
360.075	4.87
360.439	4.89
360.803	4.91
361.167	4.95
361.531	4.89
361.895	4.97
362.259	4.98
362.623	5.04
362.987	5.04
363.351	5.06
363.714	5.03
364.078	5.07
364.442	5.06
364.806	5.13
365.169	5
365.533	4.99
365.896	5.09
366.26	5.05
366.623	4.99
366.987	5
367.35	4.95
367.714	4.97
368.077	5
368.44	5.03
368.803	5.08
369.167	5.06
369.53	5
369.893	5.05
370.256	5.07
370.619	5.12
370.982	5.12
371.345	5.18
371.708	5.18
372.071	5.1
372.434	5.05
372.797	5.11
373.159	5.07
373.522	5.05
373.885	5.07
374.247	5.11
374.61	5.17
374.973	5.21
375.335	5.2
375.698	5.14
376.06	5.15
376.423	5.09
376.785	5.17
377.147	5.17
377.51	5.08
377.872	5.05
378.234	5.02
378.596	5.04
378.958	4.99
379.321	5.01
379.683	5.12
380.045	5.11
380.407	5.1
380.769	5.14
381.13	5.17
381.492	5.22
381.854	5.25
382.216	5.27
382.578	5.26
382.939	5.25
383.301	5.31
383.663	5.24
384.024	5.22
384.386	5.17
384.747	5.14
385.109	5.16
385.47	5.15
385.832	5.13
386.193	5.12
386.554	5.06
386.916	5.04
387.277	5.04
387.638	5.05
387.999	5.08
388.36	5.08
388.721	5.06
389.082	5.09
389.443	5.09
389.804	5.06
390.165	5.05
390.526	5.03
390.887	4.96
391.248	4.98
391.609	5.01
391.969	5.01
392.33	5.03
392.691	5.03
393.051	5.05
393.412	5.09
393.772	5.07
394.133	5.1
394.493	5.09
394.854	5.06
395.214	5.06
395.574	5.05
395.935	5.05
396.295	5.04
396.655	4.98
397.015	4.95
397.376	4.94
397.736	4.95
398.096	4.96
398.456	4.98
398.816	4.99
399.176	4.99
399.535	5
399.895	5.02
400.255	5.02
400.615	5
400.975	4.94
401.334	4.95
401.694	4.95
402.054	4.95
402.413	4.95
402.773	4.96
403.132	4.95
403.492	4.94
403.851	4.89
404.211	4.9
404.57	4.91
404.929	4.91
405.288	4.9
405.648	4.95
406.007	4.94
406.366	4.94
406.725	4.95
407.084	4.92
407.443	4.88
407.802	4.87
408.161	4.88
408.52	4.91
408.879	4.9
409.238	4.89
409.596	4.89
409.955	4.87
410.314	4.84
410.673	4.82
411.031	4.79
411.39	4.83
411.748	4.86
412.107	4.84
412.465	4.81
412.824	4.83
413.182	4.84
413.54	4.85
413.899	4.84
414.257	4.85
414.615	4.88
414.974	4.91
415.332	4.92
415.69	4.9
416.048	4.88
416.406	4.88
416.764	4.89
417.122	4.87
417.48	4.89
417.838	4.88
418.195	4.88
418.553	4.88
418.911	4.88
419.269	4.88
419.626	4.88
419.984	4.9
420.342	4.89
420.699	4.85
421.057	4.83
421.414	4.84
421.772	4.82
422.129	4.79
422.486	4.8
422.844	4.77
423.201	4.77
423.558	4.76
423.915	4.77
424.273	4.76
424.63	4.77
424.987	4.77
425.344	4.76
425.701	4.77
426.058	4.78
426.415	4.76
426.772	4.75
427.128	4.74
427.485	4.72
427.842	4.7
428.199	4.72
428.555	4.74
428.912	4.74
429.269	4.74
429.625	4.75
429.982	4.75
430.338	4.77
430.695	4.77
431.051	4.8
431.407	4.8
431.764	4.8
432.12	4.81
432.476	4.8
432.832	4.82
433.189	4.83
433.545	4.81
433.901	4.82
434.257	4.84
434.613	4.84
434.969	4.83
435.325	4.84
435.681	4.86
436.036	4.85
436.392	4.83
436.748	4.84
437.104	4.83
437.459	4.83
437.815	4.81
438.171	4.82
438.526	4.82
438.882	4.82
439.237	4.8
439.593	4.79
439.948	4.8
440.304	4.78
440.659	4.77
441.014	4.78
441.369	4.79
441.725	4.79
442.08	4.8
442.435	4.8
442.79	4.79
443.145	4.79
443.5	4.79
443.855	4.8
444.21	4.8
444.565	4.8
444.92	4.78
445.275	4.79
445.629	4.79
445.984	4.79
446.339	4.78
446.693	4.79
447.048	4.78
447.403	4.77
447.757	4.78
448.112	4.76
448.466	4.75
448.82	4.74
449.175	4.73
449.529	4.72
449.883	4.72
450.238	4.72
450.592	4.7
450.946	4.7
451.3	4.69
451.654	4.66
452.008	4.66
452.362	4.68
452.716	4.67
453.07	4.67
453.424	4.66
453.778	4.65
454.132	4.65
454.486	4.67
454.839	4.69
455.193	4.68
455.547	4.69
455.9	4.71
456.254	4.71
456.607	4.72
456.961	4.74
457.314	4.73
457.668	4.76
458.021	4.76
458.375	4.75
458.728	4.74
459.081	4.75
459.434	4.75
459.787	4.76
460.141	4.77
460.494	4.78
460.847	4.77
461.2	4.77
461.553	4.76
461.906	4.77
462.259	4.76
462.611	4.75
462.964	4.77
463.317	4.75
463.67	4.75
464.022	4.75
464.375	4.75
464.728	4.75
465.08	4.74
465.433	4.73
465.785	4.77
466.138	4.78
466.49	4.8
466.843	4.82
467.195	4.81
467.547	4.8
467.899	4.8
468.252	4.8
468.604	4.81
468.956	4.82
469.308	4.81
469.66	4.83
470.012	4.86
470.364	4.84
470.716	4.88
471.068	4.9
471.42	4.91
471.772	4.9
472.123	4.9
472.475	4.91
472.827	4.91
473.178	4.9
473.53	4.91
473.882	4.9
474.233	4.89
474.585	4.9
474.936	4.89
475.288	4.89
475.639	4.91
475.99	4.91
476.342	4.91
476.693	4.91
477.044	4.88
477.395	4.88
477.746	4.88
478.097	4.86
478.448	4.86
478.8	4.84
479.15	4.86
479.501	4.86
479.852	4.86
480.203	4.88
480.554	4.88
480.905	4.87
481.255	4.87
481.606	4.9
481.957	4.91
482.307	4.93
482.658	4.94
483.009	4.94
483.359	4.95
483.709	4.95
484.06	4.96
484.41	4.97
484.761	4.97
485.111	4.98
485.461	4.97
485.811	4.97
486.162	4.98
486.512	4.98
486.862	4.99
487.212	5
487.562	5
487.912	4.99
488.262	4.99
488.612	5
488.961	4.99
489.311	4.99
489.661	4.98
490.011	4.98
490.36	4.98
490.71	4.97
491.06	4.97
491.409	4.97
491.759	4.97
492.108	4.97
492.458	4.96
492.807	4.98
493.157	5
493.506	4.99
493.855	4.98
494.204	4.99
494.554	4.98
494.903	4.99
495.252	5.01
495.601	5.03
495.95	5.04
496.299	5.04
496.648	5.03
496.997	5.02
497.346	5.03
497.695	5.04
498.043	5.07
498.392	5.09
498.741	5.08
499.09	5.08
499.438	5.09
499.787	5.1
500.135	5.11
500.484	5.11
500.832	5.13
501.181	5.15
501.529	5.16
501.878	5.16
502.226	5.16
502.574	5.17
502.923	5.17
503.271	5.16
503.619	5.17
503.967	5.15
504.315	5.17
504.663	5.17
505.011	5.19
505.359	5.18
505.707	5.17
506.055	5.19
506.403	5.2
506.751	5.22
507.098	5.24
507.446	5.22
507.794	5.2
508.141	5.21
508.489	5.22
508.837	5.2
509.184	5.2
509.531	5.21
509.879	5.2
510.226	5.2
510.574	5.23
510.921	5.25
511.268	5.3
511.616	5.31
511.963	5.32
512.31	5.33
512.657	5.33
513.004	5.32
513.351	5.32
513.698	5.33
514.045	5.33
514.392	5.31
514.739	5.34
515.086	5.37
515.432	5.38
515.779	5.37
516.126	5.4
516.473	5.42
516.819	5.43
517.166	5.46
517.512	5.46
517.859	5.49
518.205	5.49
518.552	5.49
518.898	5.5
519.245	5.5
519.591	5.5
519.937	5.51
520.283	5.54
520.629	5.53
520.976	5.54
521.322	5.53
521.668	5.54
522.014	5.54
522.36	5.52
522.706	5.54
523.052	5.57
523.398	5.54
523.743	5.53
524.089	5.54
524.435	5.52
524.781	5.54
525.126	5.54
525.472	5.54
525.817	5.55
526.163	5.56
526.509	5.56
526.854	5.57
527.199	5.58
527.545	5.56
527.89	5.57
528.235	5.58
528.581	5.59
528.926	5.6
529.271	5.6
529.616	5.62
529.961	5.6
530.306	5.6
530.651	5.6
530.996	5.61
531.341	5.6
531.686	5.62
532.031	5.62
532.376	5.61
532.721	5.62
533.065	5.62
533.41	5.61
533.755	5.62
534.099	5.61
534.444	5.61
534.788	5.62
535.133	5.62
535.477	5.63
535.822	5.64
536.166	5.64
536.51	5.65
536.855	5.65
537.199	5.67
537.543	5.69
537.887	5.71
538.231	5.72
538.576	5.74
538.92	5.73
539.264	5.75
539.608	5.77
539.951	5.77
540.295	5.77
540.639	5.78
540.983	5.79
541.327	5.8
541.671	5.8
542.014	5.81
542.358	5.83
542.701	5.82
543.045	5.83
543.389	5.83
543.732	5.83
544.075	5.82
544.419	5.82
544.762	5.83
545.105	5.82
545.449	5.82
545.792	5.82
546.135	5.82
546.478	5.81
546.821	5.8
547.165	5.79
547.508	5.79
547.851	5.8
548.194	5.77
548.536	5.75
548.879	5.75
549.222	5.75
549.565	5.7
549.908	5.7
550.25	5.68
550.593	5.69
550.936	5.71
551.278	5.73
551.621	5.71
551.963	5.73
552.306	5.73
552.648	5.74
552.991	5.74
553.333	5.75
553.675	5.77
554.017	5.77
554.36	5.78
554.702	5.79
555.044	5.81
555.386	5.85
555.728	5.88
556.07	5.89
556.412	5.89
556.754	5.93
557.096	5.92
557.438	5.95
557.78	5.92
558.121	5.93
558.463	5.92
558.805	5.94
559.147	5.89
559.488	5.9
559.83	5.9
560.171	5.91
560.513	5.94
560.854	5.95
561.196	5.96
561.537	5.96
561.878	5.97
562.22	5.96
562.561	5.96
562.902	5.94
563.243	5.93
563.584	5.95
563.925	5.96
564.266	5.95
564.607	5.97
564.948	6.01
565.289	6
565.63	6
565.971	5.98
566.312	5.99
566.653	5.98
566.993	5.99
567.334	5.98
567.675	5.94
568.015	5.92
568.356	5.91
568.696	5.9
569.037	5.9
569.377	5.9
569.718	5.87
570.058	5.89
570.398	5.89
570.739	5.88
571.079	5.87
571.419	5.86
571.759	5.84
572.099	5.82
572.439	5.82
572.779	5.82
573.119	5.82
573.459	5.83
573.799	5.83
574.139	5.79
574.479	5.8
574.819	5.81
575.158	5.81
575.498	5.8
575.838	5.8
576.177	5.78
576.517	5.79
576.856	5.8
577.196	5.82
577.535	5.8
577.875	5.78
578.214	5.8
578.553	5.81
578.893	5.81
579.232	5.84
579.571	5.84
579.91	5.85
580.25	5.88
580.589	5.88
580.928	5.93
581.267	5.98
581.606	6
581.945	6.03
582.283	6.04
582.622	6.05
582.961	6.03
583.3	6.05
583.639	6.04
583.977	6.06
584.316	6.04
584.654	6.08
584.993	6.11
585.332	6.14
585.67	6.17
586.008	6.16
586.347	6.16
586.685	6.13
587.024	6.16
587.362	6.13
587.7	6.15
588.038	6.15
588.376	6.14
588.715	6.12
589.053	6.08
589.391	6.11
589.729	6.16
590.067	6.19
590.404	6.22
590.742	6.24
591.08	6.23
591.418	6.22
591.756	6.27
592.093	6.25
592.431	6.25
592.769	6.24
593.106	6.26
593.444	6.25
593.781	6.28
594.119	6.29
594.456	6.3
594.793	6.24
595.131	6.21
595.468	6.22
595.805	6.23
596.143	6.25
596.48	6.25
596.817	6.25
597.154	6.24
597.491	6.23
597.828	6.22
598.165	6.24
598.502	6.27
598.839	6.24
599.176	6.25
599.512	6.23
599.849	6.22
600.186	6.21
600.523	6.22
600.859	6.22
601.196	6.19
601.532	6.18
601.869	6.22
602.205	6.22
602.542	6.22
602.878	6.22
603.215	6.23
603.551	6.23
603.887	6.22
604.223	6.25
604.56	6.26
604.896	6.26
605.232	6.23
605.568	6.25
605.904	6.23
606.24	6.24
606.576	6.27
606.912	6.27
607.248	6.3
607.583	6.28
607.919	6.27
608.255	6.29
608.591	6.31
608.926	6.31
609.262	6.32
609.597	6.29
609.933	6.31
610.268	6.31
610.604	6.3
610.939	6.31
611.275	6.28
611.61	6.29
611.945	6.3
612.281	6.32
612.616	6.31
612.951	6.34
613.286	6.37
613.621	6.34
613.956	6.34
614.291	6.34
614.626	6.33
614.961	6.36
615.296	6.34
615.631	6.33
615.966	6.34
616.3	6.39
616.635	6.42
616.97	6.39
617.304	6.39
617.639	6.4
617.973	6.4
618.308	6.4
618.642	6.42
618.977	6.42
619.311	6.48
619.646	6.52
619.98	6.53
620.314	6.46
620.648	6.48
620.983	6.54
621.317	6.54
621.651	6.59
621.985	6.6
622.319	6.57
622.653	6.66
622.987	6.66
623.321	6.61
623.655	6.64
623.988	6.72
624.322	6.69
624.656	6.67
624.99	6.64
625.323	6.65
625.657	6.67
625.99	6.67
626.324	6.62
626.657	6.58
626.991	6.62
627.324	6.67
627.658	6.65
627.991	6.66
628.324	6.65
628.657	6.63
628.991	6.62
629.324	6.73
629.657	6.67
629.99	6.69
630.323	6.7
630.656	6.62
630.989	6.55
631.322	6.52
631.655	6.56
631.987	6.54
632.32	6.51
632.653	6.51
632.986	6.55
633.318	6.59
633.651	6.6
633.984	6.56
634.316	6.52
634.649	6.51
634.981	6.51
635.313	6.59
635.646	6.59
635.978	6.58
636.31	6.53
636.643	6.54
636.975	6.53
637.307	6.6
637.639	6.62
637.971	6.67
638.303	6.74
638.635	6.78
638.967	6.79
639.299	6.83
639.631	6.77
639.963	6.74
640.295	6.76
640.626	6.69
640.958	6.68
641.29	6.69
641.621	6.68
641.953	6.69
642.285	6.63
642.616	6.69
642.948	6.73
643.279	6.73
643.61	6.79
643.942	6.81
644.273	6.78
644.604	6.82
644.936	6.78
645.267	6.76
645.598	6.73
645.929	6.76
646.26	6.75
646.591	6.75
646.922	6.79
647.253	6.76
647.584	6.86
647.915	6.92
648.245	6.87
648.576	6.89
648.907	6.87
649.238	6.87
649.568	6.82
649.899	6.82
650.229	6.87
650.56	6.81
650.89	6.86
651.221	6.83
651.551	6.84
651.882	6.9
652.212	6.9
652.542	6.93
652.872	6.96
653.203	7.02
653.533	7.1
653.863	7.09
654.193	7.06
654.523	7.08
654.853	7.08
655.183	7.14
655.513	7.15
655.843	7.12
656.172	7.17
656.502	7.17
656.832	7.22
657.162	7.18
657.491	7.24
657.821	7.21
658.15	7.24
658.48	7.31
658.809	7.31
659.139	7.38
659.468	7.43
659.798	7.44
660.127	7.41
660.456	7.37
660.785	7.36
661.115	7.47
661.444	7.42
661.773	7.35
662.102	7.33
662.431	7.39
662.76	7.43
663.089	7.35
663.418	7.41
663.747	7.33
664.076	7.36
664.404	7.38
664.733	7.41
665.062	7.43
665.39	7.3
665.719	7.3
666.048	7.19
666.376	7.15
666.705	7.18
667.033	7.28
667.362	7.28
667.69	7.24
668.018	7.2
668.347	7.26
668.675	7.39
669.003	7.39
669.331	7.38
669.659	7.37
669.987	7.45
670.315	7.45
670.643	7.5
670.971	7.54
671.299	7.5
671.627	7.51
671.955	7.54
672.283	7.54
672.61	7.58
672.938	7.63
673.266	7.64
673.593	7.55
673.921	7.48
674.249	7.54
674.576	7.62
674.904	7.64
675.231	7.6
675.558	7.67
675.886	7.73
676.213	7.68
676.54	7.75
676.867	7.75
677.195	7.71
677.522	7.72
677.849	7.77
678.176	7.86
678.503	7.82
678.83	7.81
679.157	7.84
679.484	7.85
679.81	7.9
680.137	7.96
680.464	7.99
680.791	7.95
681.117	7.92
681.444	7.84
681.771	7.86
682.097	7.86
682.424	7.81
682.75	7.8
683.077	7.85
683.403	7.82
683.729	7.83
684.056	7.8
684.382	7.81
684.708	7.73
685.034	7.67
685.36	7.6
685.686	7.62
686.012	7.61
686.339	7.61
686.664	7.61
686.99	7.47
687.316	7.55
687.642	7.65
687.968	7.74
688.294	7.91
688.619	7.92
688.945	7.95
689.271	8
689.596	7.98
689.922	8.01
690.247	7.98
690.573	7.98
690.898	8.11
691.224	8.13
691.549	8.14
691.874	8.26
692.2	8.42
692.525	8.28
692.85	8.31
693.175	8.36
693.5	8.27
693.825	8.37
694.15	8.34
694.475	8.32
694.8	8.18
695.125	8.1
695.45	8.05
695.775	8.11
696.099	8.1
696.424	8.16
696.749	8.16
697.073	8.15
697.398	8.15
697.723	8.11
698.047	8.15
698.372	8.18
698.696	8.09
699.02	8
699.345	8.12
699.669	8.21
699.993	8.16
700.318	8.24
700.642	8.26
700.966	8.31
701.29	8.29
701.614	8.34
701.938	8.44
702.262	8.44
702.586	8.4
702.91	8.4
703.234	8.29
703.557	8.32
703.881	8.48
704.205	8.55
704.529	8.47
704.852	8.35
705.176	8.31
705.499	8.31
705.823	8.4
706.146	8.37
706.47	8.42
706.793	8.5
707.117	8.61
707.44	8.59
707.763	8.61
708.086	8.66
708.409	8.73
708.733	8.49
709.056	8.48
709.379	8.51
709.702	8.58
710.025	8.77
710.348	8.77
710.671	8.64
710.993	8.55
711.316	8.74
711.639	8.84
711.962	8.89
712.284	8.96
712.607	8.98
712.93	8.91
713.252	8.78
713.575	8.74
713.897	8.64
714.22	8.55
714.542	8.52
714.864	8.59
715.187	8.48
715.509	8.62
715.831	8.64
716.153	8.67
716.475	8.67
716.798	8.52
717.12	8.51
717.442	8.64
717.764	8.66
718.085	8.54
718.407	8.53
718.729	8.42
719.051	8.41
719.373	8.36
719.695	8.48
720.016	8.68
720.338	8.68
720.659	8.71
720.981	8.8
721.302	8.93
721.624	9.02
721.945	9.21
722.267	9.24
722.588	9.28
722.909	9.3
723.231	9.27
723.552	9.53
723.873	9.58
724.194	9.4
724.515	9.54
724.836	9.62
725.157	9.67
725.478	9.84
725.799	9.65
726.12	9.83
726.441	9.99
726.762	9.78
727.083	9.8
727.403	9.78
727.724	9.67
728.045	9.58
728.365	9.41
728.686	9.38
729.006	9.31
729.327	9.45
729.647	9.42
729.967	9.47
730.288	9.41
730.608	9.33
730.928	9.45
731.249	9.43
731.569	9.42
731.889	9.49
732.209	9.59
732.529	9.74
732.849	9.77
733.169	9.63
733.489	9.69
733.809	9.71
734.129	9.8
734.448	9.91
734.768	9.73
735.088	9.73
735.408	9.68
735.727	9.7
736.047	9.64
736.366	9.6
736.686	9.39
737.005	9.32
737.325	9.36
737.644	9.17
737.963	9.14
738.283	9.27
738.602	9.27
738.921	9.11
739.24	9.13
739.56	9.06
739.879	8.94
740.198	9.04
740.517	8.85
740.836	8.8
741.155	8.99
741.473	9.1
741.792	9.2
742.111	9.46
742.43	9.64
742.748	9.58
743.067	9.43
743.386	9.47
743.704	9.58
744.023	9.69
744.341	9.98
744.66	9.85
744.978	9.51
745.297	9.12
745.615	9.11
745.933	9.21
746.252	9.11
746.57	9.42
746.888	9.48
747.206	9.73
747.524	9.89
747.842	9.77
748.16	9.72
748.478	9.53
748.796	9.36
749.114	9.41
749.432	9.51
749.749	9.58
750.067	9.77
750.385	9.83
750.703	9.91
751.02	9.87
751.338	9.95
751.655	10.25
751.973	10.44
752.29	10.55
752.608	10.37
752.925	10.51
753.242	10.3
753.56	10.45
753.877	10.61
754.194	10.59
754.511	10.53
754.828	10.61
755.145	10.9
755.462	10.87
755.779	10.61
756.096	10.61
756.413	10.93
756.73	10.96
757.047	10.58
757.364	10.43
757.68	10.62
757.997	10.88
758.314	10.98
758.63	10.95
758.947	10.82
759.264	11.04
759.58	10.72
759.896	10.9
760.213	10.77
760.529	10.55
760.846	10.38
761.162	10.25
761.478	10.59
761.794	10.68
762.11	10.63
762.426	10.82
762.743	10.75
763.059	10.85
763.375	10.85
763.69	11.13
764.006	11.3
764.322	11.31
764.638	11.15
764.954	11.21
765.27	11.43
765.585	11.52
765.901	11.43
766.216	11.71
766.532	11.73
766.848	11.85
767.163	11.93
767.478	12.01
767.794	12.2
768.109	11.88
768.424	11.93
768.74	11.86
769.055	11.9
769.37	12.02
769.685	11.76
770	11.99
770.315	12.04
770.63	11.94
770.945	11.88
771.26	11.97
771.575	11.79
771.89	11.7
772.205	11.7
772.52	11.57
772.834	11.57
773.149	11.44
773.464	11.17
773.778	11.13
774.093	11.08
774.407	11.01
774.722	11.13
775.036	11.03
775.351	11.42
775.665	11.48
775.979	11.48
776.293	11.86
776.608	11.58
776.922	11.69
777.236	11.53
777.55	11.37
777.864	11.46
778.178	11.52
778.492	11.3
778.806	11.61
779.12	11.9
779.434	11.8
779.747	11.94
780.061	12.2
780.375	12.18
780.689	12.38
781.002	12.61
781.316	12.61
781.629	12.53
781.943	12.6
782.256	12.5
782.57	12.73
782.883	12.52
783.196	12.65
783.51	12.66
783.823	12.66
784.136	12.52
784.449	12.06
784.762	12.33
785.075	12.31
785.388	12.15
785.701	12.14
786.014	12.33
786.327	12.12
786.64	12.13
786.953	12.61
787.266	12.98
787.578	12.93
787.891	13.02
788.204	13.24
788.516	13.53
788.829	13.3
789.141	13.53
789.454	13.69
789.766	13.7
790.079	13.78
790.391	14.1
790.703	14.48
791.016	15.06
791.328	14.85
791.64	15.15
791.952	15.27
792.264	15.31
792.576	15.3
792.888	15.75
793.2	15.6
793.512	15.27
793.824	15.11
794.136	15.53
794.448	15.57
794.76	15.5
795.071	14.92
795.383	14.94
795.695	14.78
796.006	14.41
796.318	14.17
796.629	13.66
796.941	13.69
797.252	13.67
797.564	13.8
797.875	13.39
798.186	13.63
798.497	13.22
798.809	13.4
799.12	13.63
799.431	13.46
799.742	13.53
800.053	13.39
800.364	13.38
800.675	13.59
800.986	13.59
801.297	13.76
801.608	13.71
801.918	13.39
802.229	13.4
802.54	13.56
802.851	13.88
803.161	14.69
803.472	14.6
803.782	14.39
804.093	14.07
804.403	14.67
804.714	14.62
805.024	15.22
805.334	14.58
805.645	14.65
805.955	14.7
806.265	14.6
806.575	14.93
806.885	15.14
807.195	15
807.505	15.24
807.815	14.4
808.125	14.49
808.435	15.31
808.745	15.03
809.055	15.03
809.365	14.83
809.674	14.14
809.984	13.86
810.294	13.91
810.603	13.43
810.913	13.64
811.222	13.41
811.532	13.05
811.841	13
812.151	12.71
812.46	13.16
812.769	13.15
813.079	12.94
813.388	12.58
813.697	12.48
814.006	12.08
814.315	12.93
814.624	13.1
814.933	12.97
815.242	13.15
815.551	13.22
815.86	13.71
816.169	13.63
816.478	14
816.786	13.78
817.095	13.86
817.404	13.81
817.712	14.16
818.021	13.75
818.33	14.14
818.638	14.25
818.947	14
819.255	13.97
819.563	14.04
819.872	13.85
820.18	14.03
820.488	14.2
820.796	14.01
821.105	14.09
821.413	14.09
821.721	13.99
822.029	14.02
822.337	13.98
822.645	14.03
822.953	13.85
823.26	13.92
823.568	14.1
823.876	14.08
824.184	14.01
824.491	14.08
824.799	14.14
825.107	14.03
825.414	14.12
825.722	14.21
826.029	14.38
826.337	14.44
826.644	14.27
826.951	14.21
827.259	14.23
827.566	14.2
827.873	14.34
828.18	14.42
828.488	14.46
828.795	14.37
829.102	14.39
829.409	14.55
829.716	14.61
830.023	14.54
830.329	14.47
830.636	14.4
830.943	14.76
831.25	14.79
831.557	14.88
831.863	14.53
832.17	14.32
832.476	14.29
832.783	14.13
833.089	14.15
833.396	14.44
833.702	14.46
834.009	14.34
834.315	13.86
834.621	13.86
834.928	13.83
835.234	13.92
835.54	13.96
835.846	14.21
836.152	14.34
836.458	14.58
836.764	14.94
837.07	14.82
837.376	14.62
837.682	14.51
837.988	14.89
838.293	14.52
838.599	14.58
838.905	14.14
839.211	14.25
839.516	14.12
839.822	14.13
840.127	14.72
840.433	14.73
840.738	15.56
841.044	15.62
841.349	16.48
841.654	15.89
841.959	15.83
842.265	15.61
842.57	15.91
842.875	16.05
843.18	15.67
843.485	16.52
843.79	15.64
844.095	15.92
844.4	15.48
844.705	16.37
845.01	17.17
845.315	16.76
845.619	16.5
845.924	16.73
846.229	16.4
846.533	16.17
846.838	15.86
847.142	14.34
847.447	14.47
847.751	14.12
848.056	15.49
848.36	16.72
848.664	17.61
848.969	17.31
849.273	17.25
849.577	16.87
849.881	16.93
850.185	19.42
850.489	18.46
850.794	20.08
851.097	20.42
851.401	19.43
851.705	20.18
852.009	22.01
852.313	21.92
852.617	21.9
852.92	21.71
853.224	22.98
853.528	25.26
853.831	24.71
854.135	25.09
854.438	24.97
854.742	24.82
855.045	24.42
855.349	25.34
855.652	22.71
855.955	23.4
856.259	23.42
856.562	23.36
856.865	24.84
857.168	23.9
857.471	24.27
857.774	24.7
858.077	26.59
858.38	26.79
858.683	27.79
858.986	27.14
859.289	28.44
859.592	30.75
859.894	29.28
860.197	29.24
860.5	28.57
860.802	27.15
861.105	25.72
861.407	25.7
861.71	24.38
862.012	27.12
862.315	25.95
862.617	24.23
862.919	23.52
863.222	24.02
863.524	25.35
863.826	23.78
864.128	25.36
864.43	23.04
864.732	20.88
865.034	22.05
865.336	22.66
865.638	20.6
865.94	17.25
866.242	17.33
866.544	18.51
866.846	18.02
867.147	21.35
867.449	21.85
867.751	22.44
868.052	22.72
868.354	22.72
868.655	24.19
868.957	26.03
869.258	25.83
869.56	26.99
869.861	26.31
870.162	28.7
870.463	27.12
870.765	27.65
871.066	30.1
871.367	28.03
871.668	31.33
871.969	29
872.27	30.06
872.571	30.1
872.872	28.96
873.173	27.17
873.473	24.14
873.774	24.91
874.075	24.41
874.376	24.1
874.676	22.74
874.977	22.94
875.277	23.15
875.578	23.12
875.878	21.32
876.179	20.11
876.479	19.12
876.78	19.11
877.08	19.27
877.38	17.62
877.68	18.33
877.981	13.73
878.281	17.13
878.581	16.19
