Data from BA48648_Reflection_00002.txt Node
Date: Tue Nov 19 11:44:22 EST 2019
User: vgr7
Spectrometer: USB2G7710
Scans to average: 3
Trigger mode: 4
Integration Time (sec): 2.000000E-2
Electric dark correction enabled: true
Boxcar width: 10
XAxis mode: Wavelengths
Number of Pixels in Spectrum: 2048
>>>>>Begin Spectral Data<<<<<
177.721	-1.57
178.105	35.39
178.488	80.55
178.871	28.24
179.254	-10.17
179.636	-130.52
180.019	-616.22
180.402	766.67
180.785	312
181.168	-42.86
181.55	-32.29
181.933	77.06
182.316	394.52
182.698	71.76
183.081	10.4
183.463	34.31
183.846	37.85
184.228	59.92
184.611	35.67
184.993	43.02
185.376	45.41
185.758	20.65
186.14	7.13
186.522	2.74
186.904	18.36
187.287	13.12
187.669	16.64
188.051	11.64
188.433	7.65
188.815	10.22
189.197	14.22
189.579	6.84
189.961	8.44
190.342	10.85
190.724	13.06
191.106	12.53
191.488	0.83
191.869	-8.04
192.251	-15.92
192.633	-26.34
193.014	-35.97
193.396	-33.48
193.777	-22.89
194.159	-17.29
194.54	-11.21
194.922	-36.72
195.303	-38.02
195.684	-40.1
196.065	-34.22
196.447	-28.3
196.828	-31.7
197.209	-34.11
197.59	-31.41
197.971	-37.12
198.352	-32.5
198.733	-24.74
199.114	-29.07
199.495	-24.96
199.876	-25.46
200.257	-26.97
200.638	-16.27
201.018	-22.08
201.399	-30.52
201.78	-32.06
202.16	-35.73
202.541	-45.73
202.922	-29.9
203.302	-20.28
203.683	-20.36
204.063	-27.23
204.444	-25.2
204.824	-29.42
205.204	-21.41
205.585	-17.3
205.965	-9.63
206.345	-7.34
206.725	-19.4
207.106	-19.1
207.486	-15.94
207.866	-14.33
208.246	-12.73
208.626	-21.6
209.006	-18.19
209.386	-11.67
209.766	-7.42
210.145	-4.81
210.525	-3.37
210.905	1.14
211.285	6.24
211.664	10.28
212.044	10.49
212.424	1.77
212.803	-0.39
213.183	-1.41
213.562	-0.72
213.942	-8.43
214.321	-20.34
214.701	-27.78
215.08	-27.36
215.459	-29.54
215.838	-34.24
216.218	-39.56
216.597	-26.73
216.976	-30.59
217.355	-35.65
217.734	-50.24
218.113	-43.38
218.492	-50.12
218.871	-53.25
219.25	-67.54
219.629	-79.8
220.008	-73.58
220.387	-73.26
220.766	-57.61
221.144	-54.86
221.523	-49.08
221.902	-35.37
222.28	-24.38
222.659	-5.75
223.037	-1.76
223.416	-3.87
223.794	1.51
224.173	6.65
224.551	3.1
224.929	-3.94
225.308	-5.48
225.686	-8.54
226.064	-12.16
226.442	-10.18
226.821	-5.33
227.199	-1.56
227.577	-1.33
227.955	-1.38
228.333	-6.03
228.711	-3.24
229.089	-4.15
229.467	-5.82
229.845	-8.29
230.222	-6.52
230.6	-7.12
230.978	-5.38
231.356	-3.17
231.733	-2.39
232.111	-4.04
232.488	-3.23
232.866	2.4
233.243	2.32
233.621	4.55
233.998	4.57
234.376	3.99
234.753	4.39
235.13	3
235.508	1.94
235.885	0.27
236.262	2.18
236.639	0.5
237.016	1.54
237.393	3.56
237.77	5.08
238.147	4.84
238.524	5.45
238.901	4.75
239.278	4.68
239.655	4.78
240.032	5.22
240.409	4.55
240.785	4.29
241.162	4.44
241.539	3.77
241.915	3.61
242.292	4.07
242.668	4
243.045	4.36
243.421	5.08
243.798	5.48
244.174	5.37
244.551	5.44
244.927	5.35
245.303	5.12
245.679	5.25
246.056	5.16
246.432	4.72
246.808	4.85
247.184	4.72
247.56	4.71
247.936	4.65
248.312	4.69
248.688	4.56
249.064	4.7
249.44	4.82
249.815	5.07
250.191	5.27
250.567	5.18
250.943	5.32
251.318	5.08
251.694	4.96
252.069	5.26
252.445	5.08
252.82	5.44
253.196	5.26
253.571	5.22
253.947	5.12
254.322	5.46
254.697	5.16
255.073	5.2
255.448	4.93
255.823	4.99
256.198	5.13
256.573	5.24
256.948	5.25
257.323	5.34
257.698	5.31
258.073	5.06
258.448	5.25
258.823	5.03
259.198	4.96
259.573	4.83
259.948	4.74
260.322	4.73
260.697	4.79
261.072	4.94
261.446	4.91
261.821	5.09
262.195	5.08
262.57	5.12
262.944	5.19
263.319	5.32
263.693	5.43
264.067	5.41
264.442	5.23
264.816	5.16
265.19	5.01
265.564	5.11
265.938	5.12
266.313	4.9
266.687	5.08
267.061	5.1
267.435	5.38
267.809	5.18
268.183	5.23
268.556	5.06
268.93	5.02
269.304	4.97
269.678	5.07
270.051	5.11
270.425	5.28
270.799	5.14
271.172	5.07
271.546	5.04
271.919	5.04
272.293	5.1
272.666	5.12
273.04	5.13
273.413	5.03
273.787	5.17
274.16	5.18
274.533	5.09
274.906	5.2
275.279	5.2
275.653	5.32
276.026	5.25
276.399	5.12
276.772	5.2
277.145	5.16
277.518	5.05
277.891	4.89
278.263	4.82
278.636	4.96
279.009	5.02
279.382	4.87
279.755	4.77
280.127	4.66
280.5	4.58
280.872	4.64
281.245	4.52
281.617	4.38
281.99	4.56
282.362	4.6
282.735	4.36
283.107	4.27
283.479	4.28
283.852	4.48
284.224	4.52
284.596	4.45
284.968	4.39
285.34	4.37
285.713	4.43
286.085	4.26
286.457	4.16
286.829	4.21
287.201	4.28
287.572	4.52
287.944	4.61
288.316	4.62
288.688	4.77
289.06	4.92
289.431	5.05
289.803	4.96
290.175	5.05
290.546	5.25
290.918	5.16
291.289	5.05
291.661	5.03
292.032	5.13
292.403	5.1
292.775	5.25
293.146	5.34
293.517	5.49
293.889	5.65
294.26	5.7
294.631	5.75
295.002	5.75
295.373	5.65
295.744	5.65
296.115	5.78
296.486	5.72
296.857	5.65
297.228	5.49
297.599	5.47
297.97	5.38
298.34	5.45
298.711	5.56
299.082	5.66
299.452	5.54
299.823	5.49
300.194	5.51
300.564	5.54
300.935	5.43
301.305	5.36
301.676	5.25
302.046	5.2
302.416	5.1
302.787	5.19
303.157	5.16
303.527	5.36
303.897	5.21
304.267	5.17
304.637	5.13
305.008	5.18
305.378	5.19
305.748	5.25
306.117	5.16
306.487	5.23
306.857	5.33
307.227	5.56
307.597	5.47
307.967	5.55
308.336	5.57
308.706	5.75
309.076	5.83
309.445	5.94
309.815	6.05
310.184	6.15
310.554	6.1
310.923	5.96
311.293	5.81
311.662	5.91
312.031	5.78
312.401	5.77
312.77	5.79
313.139	5.89
313.508	5.93
313.877	6.01
314.246	5.98
314.616	5.93
314.985	5.88
315.353	6.06
315.722	6.23
316.091	6.18
316.46	6.11
316.829	6.07
317.198	6.08
317.567	6.22
317.935	6.18
318.304	6.26
318.672	6.45
319.041	6.55
319.41	6.62
319.778	6.83
320.147	6.83
320.515	6.94
320.883	6.97
321.252	6.99
321.62	6.88
321.988	6.93
322.357	6.87
322.725	6.76
323.093	6.79
323.461	6.71
323.829	6.75
324.197	6.79
324.565	6.7
324.933	6.6
325.301	6.31
325.669	6.31
326.037	6.4
326.405	6.44
326.772	6.43
327.14	6.31
327.508	6.28
327.875	6.31
328.243	6.24
328.61	6.16
328.978	6
329.346	6.02
329.713	6.04
330.08	6.25
330.448	6.25
330.815	6.18
331.182	6.11
331.55	6.02
331.917	5.84
332.284	5.94
332.651	6.17
333.018	6.25
333.385	6.21
333.752	6.05
334.119	5.95
334.486	5.96
334.853	6.03
335.22	6.07
335.587	6.02
335.954	6.04
336.32	6.04
336.687	6.15
337.054	6.26
337.42	6.25
337.787	6.15
338.153	6.15
338.52	6.2
338.886	6.32
339.253	6.35
339.619	6.41
339.986	6.31
340.352	6.32
340.718	6.45
341.084	6.42
341.451	6.44
341.817	6.53
342.183	6.41
342.549	6.37
342.915	6.36
343.281	6.49
343.647	6.5
344.013	6.52
344.379	6.53
344.745	6.53
345.11	6.5
345.476	6.46
345.842	6.5
346.208	6.41
346.573	6.21
346.939	6.17
347.304	6.18
347.67	6.27
348.035	6.14
348.401	6.13
348.766	6.09
349.132	6.09
349.497	6.04
349.862	6.09
350.228	6.17
350.593	6.23
350.958	6.17
351.323	6.16
351.688	6.16
352.053	6.15
352.418	6.16
352.783	6.22
353.148	6.26
353.513	6.27
353.878	6.33
354.243	6.32
354.608	6.39
354.972	6.39
355.337	6.4
355.702	6.45
356.066	6.43
356.431	6.48
356.795	6.44
357.16	6.5
357.524	6.56
357.889	6.53
358.253	6.47
358.618	6.48
358.982	6.49
359.346	6.55
359.71	6.5
360.075	6.48
360.439	6.46
360.803	6.46
361.167	6.45
361.531	6.46
361.895	6.57
362.259	6.58
362.623	6.57
362.987	6.62
363.351	6.56
363.714	6.55
364.078	6.54
364.442	6.65
364.806	6.66
365.169	6.56
365.533	6.55
365.896	6.57
366.26	6.5
366.623	6.46
366.987	6.42
367.35	6.51
367.714	6.44
368.077	6.49
368.44	6.55
368.803	6.54
369.167	6.5
369.53	6.41
369.893	6.45
370.256	6.51
370.619	6.46
370.982	6.58
371.345	6.62
371.708	6.62
372.071	6.54
372.434	6.45
372.797	6.48
373.159	6.46
373.522	6.49
373.885	6.55
374.247	6.62
374.61	6.67
374.973	6.66
375.335	6.66
375.698	6.62
376.06	6.53
376.423	6.56
376.785	6.6
377.147	6.61
377.51	6.54
377.872	6.56
378.234	6.62
378.596	6.54
378.958	6.52
379.321	6.51
379.683	6.53
380.045	6.59
380.407	6.66
380.769	6.69
381.13	6.66
381.492	6.64
381.854	6.6
382.216	6.58
382.578	6.57
382.939	6.6
383.301	6.65
383.663	6.68
384.024	6.71
384.386	6.7
384.747	6.72
385.109	6.7
385.47	6.69
385.832	6.62
386.193	6.66
386.554	6.64
386.916	6.65
387.277	6.61
387.638	6.6
387.999	6.58
388.36	6.62
388.721	6.66
389.082	6.72
389.443	6.74
389.804	6.77
390.165	6.79
390.526	6.83
390.887	6.79
391.248	6.78
391.609	6.76
391.969	6.77
392.33	6.78
392.691	6.82
393.051	6.81
393.412	6.83
393.772	6.85
394.133	6.86
394.493	6.89
394.854	6.96
395.214	6.97
395.574	6.97
395.935	6.89
396.295	6.91
396.655	6.9
397.015	6.9
397.376	6.9
397.736	6.86
398.096	6.83
398.456	6.88
398.816	6.85
399.176	6.81
399.535	6.83
399.895	6.83
400.255	6.84
400.615	6.82
400.975	6.81
401.334	6.8
401.694	6.81
402.054	6.83
402.413	6.81
402.773	6.78
403.132	6.79
403.492	6.85
403.851	6.84
404.211	6.83
404.57	6.87
404.929	6.85
405.288	6.84
405.648	6.87
406.007	6.86
406.366	6.93
406.725	6.96
407.084	6.95
407.443	6.9
407.802	6.87
408.161	6.9
408.52	6.9
408.879	6.9
409.238	6.93
409.596	6.9
409.955	6.89
410.314	6.9
410.673	6.88
411.031	6.86
411.39	6.84
411.748	6.83
412.107	6.76
412.465	6.78
412.824	6.79
413.182	6.78
413.54	6.8
413.899	6.75
414.257	6.75
414.615	6.74
414.974	6.78
415.332	6.8
415.69	6.76
416.048	6.77
416.406	6.77
416.764	6.77
417.122	6.76
417.48	6.78
417.838	6.8
418.195	6.81
418.553	6.81
418.911	6.82
419.269	6.83
419.626	6.85
419.984	6.86
420.342	6.86
420.699	6.87
421.057	6.87
421.414	6.88
421.772	6.9
422.129	6.91
422.486	6.91
422.844	6.92
423.201	6.94
423.558	6.92
423.915	6.93
424.273	6.93
424.63	6.94
424.987	6.94
425.344	6.96
425.701	6.96
426.058	6.96
426.415	6.98
426.772	6.98
427.128	7
427.485	7
427.842	7
428.199	6.99
428.555	6.99
428.912	6.98
429.269	6.99
429.625	7
429.982	6.99
430.338	6.99
430.695	6.97
431.051	6.99
431.407	6.97
431.764	6.98
432.12	7.01
432.476	7.02
432.832	7.01
433.189	7.02
433.545	7.05
433.901	7.04
434.257	7.03
434.613	7.04
434.969	7.04
435.325	7.05
435.681	7.07
436.036	7.05
436.392	7.06
436.748	7.05
437.104	7.05
437.459	7.05
437.815	7.06
438.171	7.08
438.526	7.09
438.882	7.1
439.237	7.1
439.593	7.1
439.948	7.09
440.304	7.08
440.659	7.08
441.014	7.07
441.369	7.06
441.725	7.06
442.08	7.05
442.435	7.05
442.79	7.06
443.145	7.05
443.5	7.07
443.855	7.07
444.21	7.08
444.565	7.09
444.92	7.1
445.275	7.11
445.629	7.12
445.984	7.1
446.339	7.11
446.693	7.12
447.048	7.1
447.403	7.11
447.757	7.1
448.112	7.09
448.466	7.1
448.82	7.1
449.175	7.11
449.529	7.11
449.883	7.13
450.238	7.13
450.592	7.14
450.946	7.14
451.3	7.12
451.654	7.1
452.008	7.09
452.362	7.08
452.716	7.08
453.07	7.08
453.424	7.11
453.778	7.11
454.132	7.08
454.486	7.09
454.839	7.11
455.193	7.13
455.547	7.15
455.9	7.17
456.254	7.19
456.607	7.18
456.961	7.18
457.314	7.17
457.668	7.17
458.021	7.17
458.375	7.17
458.728	7.2
459.081	7.21
459.434	7.21
459.787	7.23
460.141	7.21
460.494	7.22
460.847	7.21
461.2	7.19
461.553	7.22
461.906	7.25
462.259	7.24
462.611	7.24
462.964	7.24
463.317	7.22
463.67	7.21
464.022	7.22
464.375	7.23
464.728	7.23
465.08	7.22
465.433	7.21
465.785	7.21
466.138	7.19
466.49	7.19
466.843	7.2
467.195	7.17
467.547	7.17
467.899	7.19
468.252	7.19
468.604	7.21
468.956	7.2
469.308	7.17
469.66	7.17
470.012	7.17
470.364	7.18
470.716	7.19
471.068	7.21
471.42	7.23
471.772	7.24
472.123	7.22
472.475	7.25
472.827	7.26
473.178	7.28
473.53	7.29
473.882	7.27
474.233	7.26
474.585	7.29
474.936	7.29
475.288	7.28
475.639	7.3
475.99	7.31
476.342	7.3
476.693	7.3
477.044	7.31
477.395	7.31
477.746	7.31
478.097	7.3
478.448	7.26
478.8	7.26
479.15	7.26
479.501	7.29
479.852	7.32
480.203	7.35
480.554	7.34
480.905	7.34
481.255	7.37
481.606	7.39
481.957	7.41
482.307	7.42
482.658	7.43
483.009	7.44
483.359	7.45
483.709	7.47
484.06	7.47
484.41	7.48
484.761	7.5
485.111	7.49
485.461	7.5
485.811	7.52
486.162	7.52
486.512	7.52
486.862	7.53
487.212	7.52
487.562	7.51
487.912	7.53
488.262	7.54
488.612	7.53
488.961	7.53
489.311	7.51
489.661	7.5
490.011	7.5
490.36	7.49
490.71	7.47
491.06	7.47
491.409	7.48
491.759	7.47
492.108	7.46
492.458	7.47
492.807	7.46
493.157	7.47
493.506	7.48
493.855	7.49
494.204	7.47
494.554	7.49
494.903	7.49
495.252	7.5
495.601	7.51
495.95	7.51
496.299	7.54
496.648	7.57
496.997	7.57
497.346	7.58
497.695	7.59
498.043	7.6
498.392	7.6
498.741	7.62
499.09	7.63
499.438	7.63
499.787	7.64
500.135	7.63
500.484	7.62
500.832	7.61
501.181	7.62
501.529	7.65
501.878	7.66
502.226	7.66
502.574	7.66
502.923	7.62
503.271	7.63
503.619	7.6
503.967	7.56
504.315	7.57
504.663	7.56
505.011	7.54
505.359	7.55
505.707	7.54
506.055	7.55
506.403	7.52
506.751	7.51
507.098	7.52
507.446	7.56
507.794	7.57
508.141	7.59
508.489	7.61
508.837	7.58
509.184	7.58
509.531	7.58
509.879	7.6
510.226	7.62
510.574	7.63
510.921	7.63
511.268	7.66
511.616	7.67
511.963	7.69
512.31	7.71
512.657	7.71
513.004	7.72
513.351	7.71
513.698	7.74
514.045	7.75
514.392	7.75
514.739	7.74
515.086	7.75
515.432	7.75
515.779	7.73
516.126	7.77
516.473	7.75
516.819	7.74
517.166	7.72
517.512	7.7
517.859	7.7
518.205	7.71
518.552	7.71
518.898	7.72
519.245	7.71
519.591	7.72
519.937	7.72
520.283	7.73
520.629	7.74
520.976	7.74
521.322	7.75
521.668	7.75
522.014	7.77
522.36	7.78
522.706	7.79
523.052	7.78
523.398	7.77
523.743	7.79
524.089	7.83
524.435	7.83
524.781	7.86
525.126	7.87
525.472	7.89
525.817	7.89
526.163	7.91
526.509	7.94
526.854	7.94
527.199	7.95
527.545	7.95
527.89	7.94
528.235	7.94
528.581	7.93
528.926	7.93
529.271	7.94
529.616	7.94
529.961	7.93
530.306	7.95
530.651	7.94
530.996	7.95
531.341	7.95
531.686	7.95
532.031	7.96
532.376	7.97
532.721	7.95
533.065	7.96
533.41	7.94
533.755	7.92
534.099	7.93
534.444	7.93
534.788	7.92
535.133	7.94
535.477	7.94
535.822	7.95
536.166	7.96
536.51	7.94
536.855	7.94
537.199	7.95
537.543	7.96
537.887	7.97
538.231	7.98
538.576	7.97
538.92	7.97
539.264	7.98
539.608	7.96
539.951	7.97
540.295	7.97
540.639	7.98
540.983	8
541.327	7.99
541.671	8
542.014	8.01
542.358	8.01
542.701	8.03
543.045	8.04
543.389	8.04
543.732	8.04
544.075	8.04
544.419	8.05
544.762	8.05
545.105	8.07
545.449	8.06
545.792	8.06
546.135	8.05
546.478	8.04
546.821	8.07
547.165	8.07
547.508	8.07
547.851	8.06
548.194	8.03
548.536	8.01
548.879	8.01
549.222	8
549.565	7.99
549.908	7.95
550.25	7.91
550.593	7.93
550.936	7.91
551.278	7.91
551.621	7.91
551.963	7.91
552.306	7.88
552.648	7.89
552.991	7.92
553.333	7.92
553.675	7.93
554.017	7.93
554.36	7.92
554.702	7.91
555.044	7.93
555.386	7.97
555.728	8.02
556.07	8.03
556.412	8.02
556.754	8.04
557.096	8.04
557.438	8.06
557.78	8.07
558.121	8.08
558.463	8.08
558.805	8.08
559.147	8.08
559.488	8.1
559.83	8.1
560.171	8.09
560.513	8.11
560.854	8.1
561.196	8.11
561.537	8.12
561.878	8.14
562.22	8.16
562.561	8.17
562.902	8.13
563.243	8.13
563.584	8.12
563.925	8.12
564.266	8.16
564.607	8.18
564.948	8.18
565.289	8.2
565.63	8.16
565.971	8.14
566.312	8.12
566.653	8.12
566.993	8.09
567.334	8.1
567.675	8.12
568.015	8.14
568.356	8.14
568.696	8.18
569.037	8.17
569.377	8.15
569.718	8.14
570.058	8.16
570.398	8.17
570.739	8.19
571.079	8.18
571.419	8.18
571.759	8.15
572.099	8.15
572.439	8.16
572.779	8.18
573.119	8.22
573.459	8.26
573.799	8.27
574.139	8.29
574.479	8.29
574.819	8.31
575.158	8.3
575.498	8.3
575.838	8.26
576.177	8.24
576.517	8.28
576.856	8.28
577.196	8.31
577.535	8.31
577.875	8.32
578.214	8.32
578.553	8.32
578.893	8.35
579.232	8.35
579.571	8.38
579.91	8.38
580.25	8.38
580.589	8.33
580.928	8.33
581.267	8.33
581.606	8.33
581.945	8.32
582.283	8.38
582.622	8.34
582.961	8.34
583.3	8.39
583.639	8.34
583.977	8.37
584.316	8.36
584.654	8.35
584.993	8.38
585.332	8.42
585.67	8.42
586.008	8.41
586.347	8.41
586.685	8.37
587.024	8.39
587.362	8.42
587.7	8.47
588.038	8.5
588.376	8.55
588.715	8.55
589.053	8.52
589.391	8.5
589.729	8.59
590.067	8.62
590.404	8.65
590.742	8.68
591.08	8.66
591.418	8.65
591.756	8.63
592.093	8.64
592.431	8.64
592.769	8.67
593.106	8.67
593.444	8.7
593.781	8.72
594.119	8.74
594.456	8.72
594.793	8.69
595.131	8.66
595.468	8.63
595.805	8.65
596.143	8.64
596.48	8.63
596.817	8.57
597.154	8.57
597.491	8.56
597.828	8.53
598.165	8.52
598.502	8.51
598.839	8.53
599.176	8.51
599.512	8.47
599.849	8.45
600.186	8.47
600.523	8.44
600.859	8.43
601.196	8.42
601.532	8.47
601.869	8.49
602.205	8.5
602.542	8.48
602.878	8.5
603.215	8.51
603.551	8.52
603.887	8.54
604.223	8.53
604.56	8.53
604.896	8.55
605.232	8.57
605.568	8.57
605.904	8.57
606.24	8.6
606.576	8.63
606.912	8.66
607.248	8.67
607.583	8.71
607.919	8.7
608.255	8.73
608.591	8.69
608.926	8.68
609.262	8.71
609.597	8.74
609.933	8.72
610.268	8.76
610.604	8.75
610.939	8.73
611.275	8.75
611.61	8.71
611.945	8.75
612.281	8.78
612.616	8.83
612.951	8.9
613.286	8.89
613.621	8.89
613.956	8.89
614.291	8.89
614.626	8.87
614.961	8.92
615.296	8.92
615.631	8.93
615.966	8.95
616.3	8.92
616.635	8.96
616.97	8.98
617.304	8.96
617.639	9.02
617.973	9.04
618.308	9.04
618.642	9.03
618.977	9.02
619.311	8.96
619.646	8.96
619.98	8.94
620.314	8.9
620.648	8.9
620.983	8.94
621.317	8.99
621.651	8.95
621.985	8.97
622.319	8.92
622.653	8.91
622.987	8.89
623.321	8.93
623.655	8.9
623.988	8.95
624.322	8.94
624.656	8.91
624.99	8.94
625.323	8.97
625.657	9
625.99	9.02
626.324	9.05
626.657	9.05
626.991	9.07
627.324	9.07
627.658	9.08
627.991	9.08
628.324	9.02
628.657	9.07
628.991	9.01
629.324	9.01
629.657	9.03
629.99	9.08
630.323	9.06
630.656	9.1
630.989	9.05
631.322	9.06
631.655	9.1
631.987	9.07
632.32	9.08
632.653	9.15
632.986	9.17
633.318	9.12
633.651	9.14
633.984	9.14
634.316	9.15
634.649	9.14
634.981	9.11
635.313	9.11
635.646	9.07
635.978	9.17
636.31	9.22
636.643	9.18
636.975	9.18
637.307	9.18
637.639	9.14
637.971	9.14
638.303	9.14
638.635	9.11
638.967	9.11
639.299	9.07
639.631	8.97
639.963	8.94
640.295	8.94
640.626	8.92
640.958	8.88
641.29	8.93
641.621	8.96
641.953	8.98
642.285	8.97
642.616	9.03
642.948	8.99
643.279	9.01
643.61	9.07
643.942	9.1
644.273	9.1
644.604	9.04
644.936	9.03
645.267	9
645.598	8.94
645.929	8.97
646.26	8.99
646.591	9.01
646.922	9.04
647.253	9.11
647.584	9.07
647.915	9.12
648.245	9.09
648.576	9.05
648.907	9.08
649.238	9.07
649.568	9.03
649.899	9.07
650.229	9.11
650.56	9.16
650.89	9.12
651.221	9.13
651.551	9.28
651.882	9.28
652.212	9.3
652.542	9.39
652.872	9.36
653.203	9.44
653.533	9.46
653.863	9.43
654.193	9.4
654.523	9.43
654.853	9.44
655.183	9.44
655.513	9.5
655.843	9.48
656.172	9.48
656.502	9.5
656.832	9.46
657.162	9.38
657.491	9.38
657.821	9.34
658.15	9.36
658.48	9.33
658.809	9.34
659.139	9.37
659.468	9.4
659.798	9.49
660.127	9.43
660.456	9.39
660.785	9.41
661.115	9.45
661.444	9.4
661.773	9.38
662.102	9.36
662.431	9.32
662.76	9.31
663.089	9.39
663.418	9.46
663.747	9.51
664.076	9.59
664.404	9.52
664.733	9.57
665.062	9.61
665.39	9.53
665.719	9.54
666.048	9.54
666.376	9.54
666.705	9.45
667.033	9.48
667.362	9.54
667.69	9.61
668.018	9.6
668.347	9.67
668.675	9.74
669.003	9.79
669.331	9.89
669.659	9.91
669.987	9.88
670.315	9.83
670.643	9.82
670.971	9.75
671.299	9.81
671.627	9.82
671.955	9.73
672.283	9.81
672.61	9.86
672.938	9.86
673.266	9.82
673.593	9.89
673.921	9.86
674.249	9.85
674.576	9.8
674.904	9.82
675.231	9.83
675.558	9.8
675.886	9.85
676.213	9.81
676.54	9.85
676.867	9.94
677.195	9.93
677.522	9.98
677.849	10.1
678.176	10.09
678.503	10.11
678.83	10.16
679.157	10.2
679.484	10.14
679.81	10.23
680.137	10.28
680.464	10.32
680.791	10.4
681.117	10.41
681.444	10.4
681.771	10.41
682.097	10.47
682.424	10.42
682.75	10.36
683.077	10.33
683.403	10.33
683.729	10.28
684.056	10.3
684.382	10.24
684.708	10.21
685.034	10.25
685.36	10.24
685.686	10.26
686.012	10.27
686.339	10.27
686.664	10.21
686.99	10.05
687.316	10.01
687.642	10.02
687.968	10.13
688.294	10.22
688.619	10.2
688.945	10.13
689.271	10.12
689.596	10.15
689.922	10.13
690.247	10.1
690.573	10.13
690.898	10.22
691.224	10.28
691.549	10.31
691.874	10.24
692.2	10.26
692.525	10.29
692.85	10.22
693.175	10.42
693.5	10.38
693.825	10.5
694.15	10.5
694.475	10.37
694.8	10.26
695.125	10.11
695.45	10.11
695.775	10.14
696.099	10.23
696.424	10.31
696.749	10.35
697.073	10.34
697.398	10.34
697.723	10.36
698.047	10.3
698.372	10.31
698.696	10.36
699.02	10.39
699.345	10.46
699.669	10.49
699.993	10.37
700.318	10.41
700.642	10.5
700.966	10.52
701.29	10.6
701.614	10.69
701.938	10.76
702.262	10.76
702.586	10.82
702.91	10.85
703.234	10.73
703.557	10.68
703.881	10.74
704.205	10.75
704.529	10.62
704.852	10.73
705.176	10.69
705.499	10.53
705.823	10.54
706.146	10.57
706.47	10.61
706.793	10.66
707.117	10.69
707.44	10.62
707.763	10.68
708.086	10.67
708.409	10.62
708.733	10.7
709.056	10.9
709.379	11
709.702	10.96
710.025	11.09
710.348	11.12
710.671	11.06
710.993	11.02
711.316	11.17
711.639	11.1
711.962	11.2
712.284	11.33
712.607	11.32
712.93	11.19
713.252	11.13
713.575	11.06
713.897	11.13
714.22	11.09
714.542	11.17
714.864	11.08
715.187	11.16
715.509	11.07
715.831	10.89
716.153	10.76
716.475	10.74
716.798	10.7
717.12	10.7
717.442	10.83
717.764	10.77
718.085	10.75
718.407	10.78
718.729	10.72
719.051	10.75
719.373	10.78
719.695	10.82
720.016	10.86
720.338	10.91
720.659	10.86
720.981	10.92
721.302	10.86
721.624	10.85
721.945	10.61
722.267	10.83
722.588	10.79
722.909	10.93
723.231	10.94
723.552	10.92
723.873	10.99
724.194	10.81
724.515	10.95
724.836	10.9
725.157	10.97
725.478	10.79
725.799	10.76
726.12	10.59
726.441	10.67
726.762	10.68
727.083	10.75
727.403	10.77
727.724	10.81
728.045	10.76
728.365	10.94
728.686	10.94
729.006	10.83
729.327	10.94
729.647	10.91
729.967	10.87
730.288	10.87
730.608	10.95
730.928	11.08
731.249	11.05
731.569	11.08
731.889	11.15
732.209	11.21
732.529	11.24
732.849	11.3
733.169	11.32
733.489	11.33
733.809	11.36
734.129	11.29
734.448	11.39
734.768	11.49
735.088	11.43
735.408	11.65
735.727	11.68
736.047	11.86
736.366	11.73
736.686	11.78
737.005	11.96
737.325	11.88
737.644	11.75
737.963	11.67
738.283	11.47
738.602	11.44
738.921	11.57
739.24	11.71
739.56	11.89
739.879	11.7
740.198	11.76
740.517	11.82
740.836	11.96
741.155	11.88
741.473	11.73
741.792	11.67
742.111	11.65
742.43	11.79
742.748	11.5
743.067	11.78
743.386	11.76
743.704	11.59
744.023	11.69
744.341	11.71
744.66	11.82
744.978	12.14
745.297	12.1
745.615	12.01
745.933	11.76
746.252	11.97
746.57	12.28
746.888	12.3
747.206	12.02
747.524	12.05
747.842	12.14
748.16	12.35
748.478	12.59
748.796	12.71
749.114	12.66
749.432	12.66
749.749	12.47
750.067	12.51
750.385	12.56
750.703	12.64
751.02	12.91
751.338	12.95
751.655	12.89
751.973	12.95
752.29	13.03
752.608	13.01
752.925	12.74
753.242	12.7
753.56	12.44
753.877	12.69
754.194	12.88
754.511	12.68
754.828	12.42
755.145	12.38
755.462	12.21
755.779	12.05
756.096	11.96
756.413	11.87
756.73	11.91
757.047	11.93
757.364	11.8
757.68	11.77
757.997	11.8
758.314	11.8
758.63	11.82
758.947	11.85
759.264	12.07
759.58	12.19
759.896	12.06
760.213	12.66
760.529	12.75
760.846	12.44
761.162	12.48
761.478	12.55
761.794	12.47
762.11	12.36
762.426	12.42
762.743	12.65
763.059	12.8
763.375	12.87
763.69	12.83
764.006	12.78
764.322	12.75
764.638	12.9
764.954	12.81
765.27	12.83
765.585	12.79
765.901	12.69
766.216	12.75
766.532	12.74
766.848	12.51
767.163	12.26
767.478	12.31
767.794	12.39
768.109	12.51
768.424	12.7
768.74	12.93
769.055	13.2
769.37	13.19
769.685	13.15
770	13.04
770.315	13.4
770.63	13.53
770.945	13.57
771.26	13.32
771.575	13.38
771.89	13.47
772.205	13.52
772.52	13.6
772.834	13.61
773.149	13.68
773.464	13.46
773.778	13.73
774.093	13.79
774.407	13.68
774.722	13.59
775.036	13.49
775.351	13.51
775.665	13.16
775.979	13.04
776.293	13.34
776.608	13.35
776.922	12.88
777.236	12.81
777.55	12.76
777.864	12.96
778.178	13.05
778.492	12.95
778.806	13.04
779.12	13.14
779.434	12.65
779.747	12.75
780.061	13.13
780.375	12.95
780.689	13.11
781.002	13.34
781.316	13.46
781.629	13.43
781.943	13.62
782.256	13.51
782.57	13.33
782.883	13.51
783.196	13.55
783.51	13.9
783.823	14.06
784.136	13.9
784.449	13.81
784.762	14.07
785.075	14.11
785.388	14.26
785.701	14.22
786.014	14.32
786.327	14.36
786.64	14.4
786.953	14.61
787.266	14.68
787.578	14.33
787.891	14.24
788.204	14.41
788.516	13.95
788.829	14.16
789.141	14.54
789.454	14.38
789.766	14.4
790.079	14.26
790.391	14.53
790.703	15.09
791.016	15.26
791.328	15.37
791.64	15.17
791.952	15.26
792.264	15.02
792.576	15.18
792.888	14.91
793.2	15.07
793.512	15.22
793.824	14.94
794.136	15.19
794.448	15.7
794.76	15.29
795.071	15.79
795.383	15.68
795.695	15.63
796.006	15.01
796.318	15.39
796.629	15.61
796.941	15.22
797.252	14.87
797.564	14.7
797.875	14.71
798.186	14.94
798.497	14.95
798.809	15.56
799.12	15.68
799.431	16.2
799.742	15.98
800.053	16.19
800.364	16.24
800.675	16.22
800.986	16.18
801.297	16.25
801.608	15.77
801.918	15.55
802.229	15.7
802.54	15.82
802.851	15.46
803.161	15.47
803.472	15.58
803.782	15.61
804.093	15.39
804.403	15.15
804.714	15.4
805.024	15.16
805.334	14.69
805.645	14.6
805.955	14.36
806.265	14.41
806.575	13.87
806.885	14.4
807.195	14.51
807.505	14.03
807.815	14.43
808.125	14.91
808.435	15.38
808.745	15.11
809.055	15.4
809.365	15.67
809.674	15.29
809.984	15.12
810.294	15.38
810.603	15.46
810.913	14.74
811.222	14.3
811.532	14.83
811.841	15.24
812.151	15.26
812.46	15.28
812.769	14.81
813.079	15.1
813.388	14.69
813.697	14.68
814.006	14.4
814.315	14.1
814.624	13.96
814.933	14
815.242	13.96
815.551	13.75
815.86	12.92
816.169	13.04
816.478	13.7
816.786	13.57
817.095	13.54
817.404	14.25
817.712	14.28
818.021	14.09
818.33	14.29
818.638	14.88
818.947	14.5
819.255	14.86
819.563	15.32
819.872	15.26
820.18	15.68
820.488	15.9
820.796	15.91
821.105	16.09
821.413	16.03
821.721	15.76
822.029	15.95
822.337	16.05
822.645	16.25
822.953	16.12
823.26	16.1
823.568	16.12
823.876	16.13
824.184	16.05
824.491	15.95
824.799	15.87
825.107	15.7
825.414	15.85
825.722	16
826.029	15.81
826.337	15.86
826.644	15.63
826.951	15.76
827.259	15.86
827.566	15.68
827.873	15.71
828.18	16.12
828.488	15.88
828.795	15.94
829.102	15.5
829.409	15.43
829.716	15.66
830.023	15.57
830.329	15.77
830.636	16.01
830.943	16.15
831.25	16.15
831.557	16.26
831.863	16.12
832.17	15.73
832.476	16.04
832.783	16.09
833.089	15.88
833.396	15.83
833.702	15.7
834.009	15.76
834.315	15.3
834.621	15.2
834.928	15.6
835.234	15.47
835.54	15.77
835.846	15.69
836.152	15.37
836.458	15.66
836.764	15.34
837.07	15.49
837.376	15.56
837.682	15.27
837.988	15.36
838.293	15.81
838.599	15.67
838.905	15.52
839.211	15.36
839.516	16.11
839.822	15.81
840.127	16.23
840.433	16.11
840.738	17.02
841.044	17.35
841.349	16.82
841.654	17.2
841.959	17.17
842.265	17.53
842.57	17.85
842.875	17.35
843.18	16.92
843.485	16.32
843.79	16.4
844.095	16.73
844.4	17.31
844.705	17.29
845.01	17.99
845.315	17.82
845.619	19.26
845.924	17.05
846.229	17.34
846.533	16.12
846.838	16.56
847.142	15.04
847.447	13.96
847.751	16.03
848.056	16.31
848.36	15.7
848.664	14.97
848.969	12.8
849.273	12.9
849.577	13.88
849.881	14.21
850.185	13.69
850.489	13.43
850.794	11.91
851.097	10.11
851.401	8.34
851.705	7.91
852.009	5.87
852.313	7.1
852.617	5.85
852.92	6.91
853.224	8.18
853.528	8.82
853.831	8.49
854.135	7.3
854.438	5.76
854.742	9.03
855.045	9.67
855.349	10.74
855.652	11.24
855.955	11.17
856.259	11.24
856.562	12.85
856.865	13.97
857.168	14.32
857.471	16.01
857.774	16.95
858.077	17.31
858.38	17.9
858.683	20.55
858.986	20.11
859.289	19.72
859.592	18.25
859.894	19.06
860.197	19.46
860.5	18.86
860.802	19.31
861.105	17.45
861.407	18.51
861.71	18.36
862.012	19.79
862.315	19.93
862.617	20.36
862.919	19.02
863.222	20.08
863.524	19.35
863.826	19.41
864.128	18.95
864.43	18.42
864.732	17.67
865.034	15.35
865.336	14.43
865.638	14.3
865.94	15.34
866.242	14.99
866.544	14.69
866.846	14.64
867.147	16.13
867.449	15.76
867.751	14.37
868.052	16.85
868.354	16.42
868.655	16.02
868.957	17.56
869.258	16.63
869.56	14.82
869.861	15.13
870.162	16.52
870.463	17.02
870.765	16.33
871.066	16.63
871.367	14.85
871.668	13.86
871.969	12.59
872.27	12.58
872.571	14.42
872.872	15
873.173	13.91
873.473	12.25
873.774	12.59
874.075	13.35
874.376	11.59
874.676	13.3
874.977	13.54
875.277	12.73
875.578	12.98
875.878	13.44
876.179	14.08
876.479	11.2
876.78	11.06
877.08	12.53
877.38	12.85
877.68	16.75
877.981	22.25
878.281	24.56
878.581	23.28
