Data from BA48648_Reflection_00011.txt Node
Date: Tue Nov 19 11:44:44 EST 2019
User: vgr7
Spectrometer: USB2G7710
Scans to average: 3
Trigger mode: 4
Integration Time (sec): 2.000000E-2
Electric dark correction enabled: true
Boxcar width: 10
XAxis mode: Wavelengths
Number of Pixels in Spectrum: 2048
>>>>>Begin Spectral Data<<<<<
177.721	-224.38
178.105	-68.54
178.488	-52.45
178.871	-37.65
179.254	-77.97
179.636	-484.42
180.019	-2210.81
180.402	100
180.785	64
181.168	158.44
181.55	173.99
181.933	526.61
182.316	490.41
182.698	75.08
183.081	-151.45
183.463	-78.52
183.846	-97.59
184.228	-67.54
184.611	-39.75
184.993	-3.02
185.376	-7.5
185.758	8.14
186.14	-17.58
186.522	-17.59
186.904	-22.18
187.287	-22.82
187.669	-18.02
188.051	-19.58
188.433	-36.13
188.815	-32.78
189.197	-29.75
189.579	-29.21
189.961	-28.77
190.342	-34.36
190.724	-41.81
191.106	-45.33
191.488	-38.07
191.869	-44.66
192.251	-46.97
192.633	-47.84
193.014	-50.33
193.396	-53.86
193.777	-65.75
194.159	-62.53
194.54	-68.7
194.922	-73.6
195.303	-72.87
195.684	-66.55
196.065	-95.65
196.447	-87.27
196.828	-90.52
197.209	-82.6
197.59	-79.1
197.971	-84.09
198.352	-85.37
198.733	-77.54
199.114	-80.42
199.495	-89.95
199.876	-95.39
200.257	-113.79
200.638	-123.18
201.018	-123.65
201.399	-113.33
201.78	-109.74
202.16	-110.06
202.541	-105.93
202.922	-88.53
203.302	-87.56
203.683	-79.81
204.063	-66.57
204.444	-59.72
204.824	-48.69
205.204	-47.3
205.585	-49.14
205.965	-46.74
206.345	-30.83
206.725	-33.94
207.106	-28.42
207.486	-24.62
207.866	-16.96
208.246	-8.07
208.626	-13.31
209.006	-13.3
209.386	-17.09
209.766	-18.45
210.145	-15.43
210.525	-23.17
210.905	-24.14
211.285	-9.97
211.664	-6.85
212.044	-8.22
212.424	-16.16
212.803	-27.49
213.183	-27.67
213.562	-16.05
213.942	-10.13
214.321	-26.77
214.701	-24.03
215.08	-33.49
215.459	-29.03
215.838	-36.87
216.218	-52.92
216.597	-45.62
216.976	-53.43
217.355	-48.68
217.734	-71.26
218.113	-61.36
218.492	-60.12
218.871	-43.11
219.25	-48.18
219.629	-66.54
220.008	-62.84
220.387	-68.63
220.766	-60.22
221.144	-63.46
221.523	-62.5
221.902	-58.19
222.28	-41.15
222.659	-41.73
223.037	-38.04
223.416	-41.29
223.794	-37.33
224.173	-25.39
224.551	-24.22
224.929	-19.65
225.308	-24.13
225.686	-20.23
226.064	-23.44
226.442	-18.2
226.821	-22.8
227.199	-22.65
227.577	-18.82
227.955	-13.21
228.333	-11.1
228.711	-10.33
229.089	-10.36
229.467	-12.67
229.845	-12.61
230.222	-12.04
230.6	-10.87
230.978	-6.22
231.356	-7.45
231.733	-7.17
232.111	-8.39
232.488	-6.84
232.866	-5.87
233.243	-3.85
233.621	-1.74
233.998	-1.59
234.376	-1.8
234.753	-1.52
235.13	-1.82
235.508	-1.06
235.885	-1.98
236.262	-3.24
236.639	-2.36
237.016	-0.4
237.393	0.66
237.77	1.2
238.147	1.39
238.524	2.11
238.901	1.12
239.278	2.42
239.655	2.77
240.032	3.36
240.409	3.43
240.785	3.68
241.162	3.88
241.539	3.75
241.915	3.81
242.292	3.8
242.668	3.66
243.045	3.75
243.421	3.63
243.798	3.92
244.174	4.36
244.551	4.65
244.927	4.61
245.303	4.83
245.679	4.88
246.056	4.77
246.432	4.54
246.808	4.77
247.184	4.69
247.56	4.56
247.936	4.5
248.312	4.52
248.688	4.1
249.064	4.15
249.44	3.96
249.815	3.74
250.191	3.78
250.567	3.75
250.943	3.9
251.318	3.88
251.694	3.73
252.069	3.55
252.445	3.27
252.82	3.25
253.196	2.81
253.571	2.3
253.947	2.19
254.322	2.19
254.697	1.77
255.073	1.98
255.448	1.82
255.823	2.15
256.198	2.22
256.573	2.74
256.948	2.62
257.323	2.92
257.698	3.1
258.073	3.12
258.448	3.25
258.823	3.1
259.198	3.27
259.573	3.25
259.948	3.37
260.322	3.39
260.697	3.38
261.072	3.6
261.446	3.77
261.821	3.89
262.195	3.97
262.57	3.98
262.944	3.94
263.319	4.06
263.693	3.93
264.067	4.04
264.442	4.01
264.816	4.07
265.19	3.91
265.564	4.06
265.938	4.08
266.313	3.89
266.687	3.82
267.061	3.7
267.435	3.73
267.809	3.46
268.183	3.4
268.556	3.4
268.93	3.17
269.304	3.06
269.678	3.02
270.051	3.05
270.425	3.23
270.799	3.15
271.172	3.08
271.546	3.06
271.919	2.8
272.293	2.78
272.666	2.66
273.04	2.67
273.413	2.46
273.787	2.39
274.16	2.48
274.533	2.61
274.906	2.62
275.279	2.49
275.653	2.59
276.026	2.7
276.399	2.74
276.772	2.84
277.145	2.83
277.518	2.77
277.891	2.76
278.263	2.73
278.636	2.94
279.009	2.97
279.382	2.87
279.755	2.94
280.127	2.89
280.5	2.91
280.872	2.94
281.245	3.04
281.617	3.21
281.99	3.3
282.362	3.41
282.735	3.33
283.107	3.34
283.479	3.35
283.852	3.44
284.224	3.43
284.596	3.39
284.968	3.22
285.34	3.19
285.713	3.2
286.085	3.09
286.457	3.05
286.829	3.09
287.201	3.19
287.572	3.19
287.944	3.34
288.316	3.41
288.688	3.55
289.06	3.58
289.431	3.5
289.803	3.58
290.175	3.62
290.546	3.69
290.918	3.79
291.289	3.79
291.661	3.66
292.032	3.7
292.403	3.65
292.775	3.92
293.146	4.02
293.517	3.99
293.889	4.05
294.26	3.99
294.631	4
295.002	4.09
295.373	4.12
295.744	4.04
296.115	3.94
296.486	3.89
296.857	3.89
297.228	3.85
297.599	3.83
297.97	3.7
298.34	3.64
298.711	3.65
299.082	3.72
299.452	3.71
299.823	3.7
300.194	3.79
300.564	3.76
300.935	3.78
301.305	3.79
301.676	3.79
302.046	3.55
302.416	3.54
302.787	3.47
303.157	3.46
303.527	3.36
303.897	3.46
304.267	3.43
304.637	3.46
305.008	3.53
305.378	3.45
305.748	3.48
306.117	3.47
306.487	3.45
306.857	3.4
307.227	3.5
307.597	3.49
307.967	3.55
308.336	3.53
308.706	3.54
309.076	3.66
309.445	3.79
309.815	4.07
310.184	4.03
310.554	4.1
310.923	4.15
311.293	4.36
311.662	4.35
312.031	4.32
312.401	4.31
312.77	4.3
313.139	4.32
313.508	4.28
313.877	4.31
314.246	4.22
314.616	4.29
314.985	4.33
315.353	4.3
315.722	4.38
316.091	4.56
316.46	4.59
316.829	4.45
317.198	4.42
317.567	4.37
317.935	4.4
318.304	4.42
318.672	4.44
319.041	4.38
319.41	4.49
319.778	4.57
320.147	4.47
320.515	4.41
320.883	4.35
321.252	4.46
321.62	4.47
321.988	4.46
322.357	4.37
322.725	4.36
323.093	4.31
323.461	4.26
323.829	4.05
324.197	4.04
324.565	4.16
324.933	4.01
325.301	3.92
325.669	3.92
326.037	3.9
326.405	3.94
326.772	3.83
327.14	3.72
327.508	3.54
327.875	3.52
328.243	3.79
328.61	3.81
328.978	3.77
329.346	3.81
329.713	3.96
330.08	3.97
330.448	3.96
330.815	3.96
331.182	3.83
331.55	3.9
331.917	3.86
332.284	3.8
332.651	3.9
333.018	4
333.385	4.1
333.752	4.13
334.119	4.17
334.486	4.33
334.853	4.4
335.22	4.49
335.587	4.54
335.954	4.37
336.32	4.39
336.687	4.51
337.054	4.47
337.42	4.42
337.787	4.49
338.153	4.5
338.52	4.62
338.886	4.78
339.253	4.77
339.619	4.86
339.986	4.82
340.352	4.92
340.718	4.94
341.084	4.91
341.451	4.79
341.817	4.75
342.183	4.64
342.549	4.63
342.915	4.7
343.281	4.83
343.647	4.82
344.013	4.79
344.379	4.64
344.745	4.66
345.11	4.68
345.476	4.7
345.842	4.7
346.208	4.68
346.573	4.53
346.939	4.6
347.304	4.58
347.67	4.62
348.035	4.61
348.401	4.53
348.766	4.58
349.132	4.7
349.497	4.71
349.862	4.75
350.228	4.81
350.593	4.74
350.958	4.78
351.323	4.79
351.688	4.88
352.053	4.96
352.418	5.04
352.783	5
353.148	4.99
353.513	4.97
353.878	4.86
354.243	4.95
354.608	4.92
354.972	4.87
355.337	4.9
355.702	4.86
356.066	4.92
356.431	4.85
356.795	4.77
357.16	4.79
357.524	4.71
357.889	4.69
358.253	4.7
358.618	4.58
358.982	4.6
359.346	4.57
359.71	4.51
360.075	4.48
360.439	4.54
360.803	4.56
361.167	4.52
361.531	4.57
361.895	4.53
362.259	4.57
362.623	4.63
362.987	4.64
363.351	4.66
363.714	4.69
364.078	4.73
364.442	4.73
364.806	4.69
365.169	4.72
365.533	4.69
365.896	4.73
366.26	4.72
366.623	4.67
366.987	4.65
367.35	4.7
367.714	4.71
368.077	4.69
368.44	4.6
368.803	4.59
369.167	4.53
369.53	4.54
369.893	4.46
370.256	4.34
370.619	4.29
370.982	4.21
371.345	4.2
371.708	4.17
372.071	4.14
372.434	4.11
372.797	4.12
373.159	4.09
373.522	4.03
373.885	4.01
374.247	4.01
374.61	3.98
374.973	3.97
375.335	3.98
375.698	3.87
376.06	3.87
376.423	3.87
376.785	3.94
377.147	3.94
377.51	3.93
377.872	4.02
378.234	4.01
378.596	4.05
378.958	4.01
379.321	3.98
379.683	4.01
380.045	4.06
380.407	4.03
380.769	4.05
381.13	4.08
381.492	4.11
381.854	4.13
382.216	4.2
382.578	4.2
382.939	4.18
383.301	4.2
383.663	4.21
384.024	4.23
384.386	4.2
384.747	4.19
385.109	4.21
385.47	4.18
385.832	4.18
386.193	4.16
386.554	4.12
386.916	4.09
387.277	4.09
387.638	4.06
387.999	4.08
388.36	4.09
388.721	4.07
389.082	4.1
389.443	4.1
389.804	4.11
390.165	4.09
390.526	4.07
390.887	4.06
391.248	4.06
391.609	4.07
391.969	4.07
392.33	4.07
392.691	4.04
393.051	4.02
393.412	4.04
393.772	4.03
394.133	4.03
394.493	4.06
394.854	4.05
395.214	4.04
395.574	4
395.935	3.96
396.295	3.98
396.655	3.92
397.015	3.93
397.376	3.86
397.736	3.83
398.096	3.81
398.456	3.81
398.816	3.84
399.176	3.81
399.535	3.79
399.895	3.77
400.255	3.79
400.615	3.79
400.975	3.75
401.334	3.76
401.694	3.78
402.054	3.76
402.413	3.75
402.773	3.76
403.132	3.8
403.492	3.82
403.851	3.78
404.211	3.78
404.57	3.76
404.929	3.75
405.288	3.78
405.648	3.8
406.007	3.81
406.366	3.76
406.725	3.74
407.084	3.76
407.443	3.75
407.802	3.73
408.161	3.7
408.52	3.7
408.879	3.71
409.238	3.7
409.596	3.69
409.955	3.67
410.314	3.67
410.673	3.66
411.031	3.65
411.39	3.67
411.748	3.68
412.107	3.67
412.465	3.68
412.824	3.63
413.182	3.61
413.54	3.62
413.899	3.63
414.257	3.64
414.615	3.61
414.974	3.62
415.332	3.62
415.69	3.62
416.048	3.62
416.406	3.59
416.764	3.59
417.122	3.59
417.48	3.59
417.838	3.6
418.195	3.58
418.553	3.56
418.911	3.53
419.269	3.53
419.626	3.53
419.984	3.54
420.342	3.54
420.699	3.53
421.057	3.54
421.414	3.54
421.772	3.54
422.129	3.54
422.486	3.54
422.844	3.53
423.201	3.54
423.558	3.54
423.915	3.55
424.273	3.55
424.63	3.54
424.987	3.55
425.344	3.54
425.701	3.54
426.058	3.55
426.415	3.56
426.772	3.55
427.128	3.55
427.485	3.54
427.842	3.55
428.199	3.56
428.555	3.54
428.912	3.53
429.269	3.52
429.625	3.52
429.982	3.52
430.338	3.55
430.695	3.52
431.051	3.53
431.407	3.52
431.764	3.52
432.12	3.52
432.476	3.54
432.832	3.55
433.189	3.56
433.545	3.55
433.901	3.55
434.257	3.55
434.613	3.54
434.969	3.54
435.325	3.55
435.681	3.56
436.036	3.57
436.392	3.56
436.748	3.56
437.104	3.57
437.459	3.58
437.815	3.58
438.171	3.6
438.526	3.59
438.882	3.58
439.237	3.58
439.593	3.57
439.948	3.56
440.304	3.55
440.659	3.53
441.014	3.52
441.369	3.52
441.725	3.52
442.08	3.53
442.435	3.53
442.79	3.52
443.145	3.5
443.5	3.48
443.855	3.49
444.21	3.49
444.565	3.49
444.92	3.49
445.275	3.48
445.629	3.45
445.984	3.44
446.339	3.46
446.693	3.46
447.048	3.46
447.403	3.46
447.757	3.46
448.112	3.47
448.466	3.49
448.82	3.5
449.175	3.49
449.529	3.49
449.883	3.49
450.238	3.49
450.592	3.49
450.946	3.5
451.3	3.5
451.654	3.49
452.008	3.48
452.362	3.48
452.716	3.48
453.07	3.49
453.424	3.5
453.778	3.48
454.132	3.47
454.486	3.47
454.839	3.46
455.193	3.47
455.547	3.47
455.9	3.46
456.254	3.46
456.607	3.48
456.961	3.46
457.314	3.45
457.668	3.47
458.021	3.49
458.375	3.5
458.728	3.48
459.081	3.49
459.434	3.5
459.787	3.51
460.141	3.5
460.494	3.51
460.847	3.51
461.2	3.51
461.553	3.53
461.906	3.52
462.259	3.52
462.611	3.51
462.964	3.5
463.317	3.51
463.67	3.52
464.022	3.51
464.375	3.54
464.728	3.54
465.08	3.53
465.433	3.52
465.785	3.52
466.138	3.55
466.49	3.55
466.843	3.56
467.195	3.56
467.547	3.56
467.899	3.56
468.252	3.56
468.604	3.56
468.956	3.57
469.308	3.58
469.66	3.6
470.012	3.61
470.364	3.6
470.716	3.6
471.068	3.61
471.42	3.61
471.772	3.6
472.123	3.61
472.475	3.6
472.827	3.6
473.178	3.59
473.53	3.59
473.882	3.59
474.233	3.57
474.585	3.55
474.936	3.56
475.288	3.54
475.639	3.55
475.99	3.56
476.342	3.55
476.693	3.57
477.044	3.56
477.395	3.55
477.746	3.56
478.097	3.57
478.448	3.55
478.8	3.56
479.15	3.56
479.501	3.58
479.852	3.6
480.203	3.6
480.554	3.61
480.905	3.62
481.255	3.63
481.606	3.65
481.957	3.66
482.307	3.67
482.658	3.69
483.009	3.68
483.359	3.69
483.709	3.69
484.06	3.69
484.41	3.7
484.761	3.7
485.111	3.69
485.461	3.69
485.811	3.69
486.162	3.69
486.512	3.69
486.862	3.7
487.212	3.7
487.562	3.7
487.912	3.69
488.262	3.7
488.612	3.7
488.961	3.7
489.311	3.7
489.661	3.69
490.011	3.68
490.36	3.69
490.71	3.68
491.06	3.67
491.409	3.67
491.759	3.67
492.108	3.67
492.458	3.69
492.807	3.68
493.157	3.69
493.506	3.69
493.855	3.69
494.204	3.68
494.554	3.69
494.903	3.69
495.252	3.71
495.601	3.7
495.95	3.7
496.299	3.69
496.648	3.72
496.997	3.72
497.346	3.74
497.695	3.75
498.043	3.77
498.392	3.79
498.741	3.81
499.09	3.82
499.438	3.84
499.787	3.84
500.135	3.84
500.484	3.86
500.832	3.87
501.181	3.9
501.529	3.92
501.878	3.93
502.226	3.95
502.574	3.96
502.923	3.97
503.271	3.98
503.619	4
503.967	3.98
504.315	4
504.663	3.98
505.011	3.99
505.359	4.01
505.707	4.01
506.055	4.03
506.403	4.06
506.751	4.09
507.098	4.13
507.446	4.16
507.794	4.17
508.141	4.19
508.489	4.19
508.837	4.2
509.184	4.22
509.531	4.24
509.879	4.26
510.226	4.3
510.574	4.33
510.921	4.36
511.268	4.4
511.616	4.43
511.963	4.47
512.31	4.51
512.657	4.53
513.004	4.55
513.351	4.57
513.698	4.59
514.045	4.6
514.392	4.63
514.739	4.66
515.086	4.71
515.432	4.76
515.779	4.79
516.126	4.86
516.473	4.89
516.819	4.91
517.166	4.94
517.512	4.96
517.859	5
518.205	5.01
518.552	5.04
518.898	5.05
519.245	5.08
519.591	5.11
519.937	5.16
520.283	5.19
520.629	5.22
520.976	5.24
521.322	5.29
521.668	5.32
522.014	5.36
522.36	5.4
522.706	5.45
523.052	5.51
523.398	5.56
523.743	5.61
524.089	5.71
524.435	5.77
524.781	5.85
525.126	5.91
525.472	5.97
525.817	6.02
526.163	6.06
526.509	6.12
526.854	6.16
527.199	6.2
527.545	6.25
527.89	6.3
528.235	6.36
528.581	6.41
528.926	6.46
529.271	6.52
529.616	6.57
529.961	6.62
530.306	6.68
530.651	6.74
530.996	6.82
531.341	6.88
531.686	6.95
532.031	7.01
532.376	7.09
532.721	7.16
533.065	7.24
533.41	7.34
533.755	7.41
534.099	7.5
534.444	7.59
534.788	7.68
535.133	7.77
535.477	7.88
535.822	7.98
536.166	8.11
536.51	8.23
536.855	8.37
537.199	8.49
537.543	8.62
537.887	8.77
538.231	8.91
538.576	9.05
538.92	9.2
539.264	9.35
539.608	9.47
539.951	9.61
540.295	9.75
540.639	9.88
540.983	10.02
541.327	10.15
541.671	10.29
542.014	10.43
542.358	10.57
542.701	10.7
543.045	10.83
543.389	10.95
543.732	11.07
544.075	11.21
544.419	11.37
544.762	11.51
545.105	11.64
545.449	11.8
545.792	11.97
546.135	12.16
546.478	12.33
546.821	12.55
547.165	12.74
547.508	12.93
547.851	13.14
548.194	13.33
548.536	13.56
548.879	13.76
549.222	13.97
549.565	14.19
549.908	14.41
550.25	14.63
550.593	14.87
550.936	15.12
551.278	15.32
551.621	15.58
551.963	15.83
552.306	16.1
552.648	16.3
552.991	16.55
553.333	16.76
553.675	16.99
554.017	17.21
554.36	17.5
554.702	17.75
555.044	17.95
555.386	18.18
555.728	18.42
556.07	18.67
556.412	18.94
556.754	19.2
557.096	19.45
557.438	19.71
557.78	19.97
558.121	20.26
558.463	20.56
558.805	20.81
559.147	21.09
559.488	21.34
559.83	21.62
560.171	21.84
560.513	22.14
560.854	22.38
561.196	22.6
561.537	22.83
561.878	23.12
562.22	23.41
562.561	23.68
562.902	23.93
563.243	24.18
563.584	24.43
563.925	24.66
564.266	24.89
564.607	25.15
564.948	25.4
565.289	25.64
565.63	25.88
565.971	26.1
566.312	26.32
566.653	26.59
566.993	26.81
567.334	27.05
567.675	27.31
568.015	27.57
568.356	27.83
568.696	28.05
569.037	28.25
569.377	28.48
569.718	28.7
570.058	28.94
570.398	29.17
570.739	29.36
571.079	29.56
571.419	29.78
571.759	29.97
572.099	30.18
572.439	30.36
572.779	30.56
573.119	30.74
573.459	30.92
573.799	31.05
574.139	31.22
574.479	31.46
574.819	31.6
575.158	31.76
575.498	31.96
575.838	32.18
576.177	32.38
576.517	32.53
576.856	32.72
577.196	32.92
577.535	33.13
577.875	33.3
578.214	33.56
578.553	33.75
578.893	34.01
579.232	34.18
579.571	34.39
579.91	34.59
580.25	34.82
580.589	35.02
580.928	35.25
581.267	35.43
581.606	35.59
581.945	35.71
582.283	35.9
582.622	36.05
582.961	36.23
583.3	36.4
583.639	36.61
583.977	36.84
584.316	36.98
584.654	37.14
584.993	37.36
585.332	37.52
585.67	37.74
586.008	37.85
586.347	38.04
586.685	38.2
587.024	38.33
587.362	38.5
587.7	38.64
588.038	38.82
588.376	39.01
588.715	39.17
589.053	39.41
589.391	39.6
589.729	39.76
590.067	39.86
590.404	40.01
590.742	40.18
591.08	40.3
591.418	40.43
591.756	40.57
592.093	40.66
592.431	40.74
592.769	40.87
593.106	41.03
593.444	41.16
593.781	41.26
594.119	41.41
594.456	41.51
594.793	41.62
595.131	41.68
595.468	41.78
595.805	41.88
596.143	41.98
596.48	42.03
596.817	42.08
597.154	42.23
597.491	42.31
597.828	42.36
598.165	42.46
598.502	42.56
598.839	42.74
599.176	42.9
599.512	43.05
599.849	43.16
600.186	43.23
600.523	43.37
600.859	43.45
601.196	43.52
601.532	43.69
601.869	43.8
602.205	43.93
602.542	44.02
602.878	44.11
603.215	44.17
603.551	44.29
603.887	44.4
604.223	44.46
604.56	44.51
604.896	44.65
605.232	44.67
605.568	44.77
605.904	44.77
606.24	44.9
606.576	44.98
606.912	45.05
607.248	45.19
607.583	45.26
607.919	45.39
608.255	45.56
608.591	45.63
608.926	45.75
609.262	45.78
609.597	45.89
609.933	45.94
610.268	46.04
610.604	46.08
610.939	46.21
611.275	46.33
611.61	46.38
611.945	46.41
612.281	46.61
612.616	46.61
612.951	46.72
613.286	46.63
613.621	46.7
613.956	46.75
614.291	46.72
614.626	46.75
614.961	46.83
615.296	46.85
615.631	46.93
615.966	46.97
616.3	47.17
616.635	47.23
616.97	47.34
617.304	47.34
617.639	47.39
617.973	47.38
618.308	47.4
618.642	47.57
618.977	47.69
619.311	47.66
619.646	47.84
619.98	47.9
620.314	48.12
620.648	48.25
620.983	48.33
621.317	48.49
621.651	48.58
621.985	48.63
622.319	48.67
622.653	48.76
622.987	48.89
623.321	48.93
623.655	49.03
623.988	49.07
624.322	49.23
624.656	49.33
624.99	49.44
625.323	49.55
625.657	49.6
625.99	49.59
626.324	49.69
626.657	49.69
626.991	49.76
627.324	49.77
627.658	49.74
627.991	49.76
628.324	49.76
628.657	49.83
628.991	49.9
629.324	49.93
629.657	49.9
629.99	49.87
630.323	49.9
630.656	49.82
630.989	49.93
631.322	49.98
631.655	50.01
631.987	49.99
632.32	49.95
632.653	50
632.986	50.1
633.318	50.14
633.651	50.19
633.984	50.11
634.316	50.07
634.649	50.09
634.981	50.18
635.313	50.29
635.646	50.26
635.978	50.25
636.31	50.31
636.643	50.38
636.975	50.42
637.307	50.44
637.639	50.54
637.971	50.51
638.303	50.51
638.635	50.51
638.967	50.59
639.299	50.62
639.631	50.58
639.963	50.59
640.295	50.6
640.626	50.71
640.958	50.77
641.29	50.89
641.621	50.93
641.953	50.95
642.285	50.97
642.616	51.12
642.948	51.27
643.279	51.17
643.61	51.23
643.942	51.29
644.273	51.23
644.604	51.28
644.936	51.39
645.267	51.4
645.598	51.46
645.929	51.46
646.26	51.51
646.591	51.58
646.922	51.62
647.253	51.64
647.584	51.58
647.915	51.71
648.245	51.7
648.576	51.79
648.907	51.86
649.238	51.83
649.568	51.82
649.899	51.73
650.229	51.87
650.56	51.88
650.89	51.91
651.221	52.09
651.551	52.17
651.882	52.25
652.212	52.22
652.542	52.25
652.872	52.29
653.203	52.33
653.533	52.39
653.863	52.43
654.193	52.48
654.523	52.65
654.853	52.72
655.183	52.8
655.513	52.97
655.843	53
656.172	53.08
656.502	53.04
656.832	53.06
657.162	53.15
657.491	53.12
657.821	53.14
658.15	53.21
658.48	53.23
658.809	53.16
659.139	53.31
659.468	53.31
659.798	53.33
660.127	53.32
660.456	53.36
660.785	53.36
661.115	53.33
661.444	53.32
661.773	53.28
662.102	53.27
662.431	53.1
662.76	53.07
663.089	53.04
663.418	53.05
663.747	53.04
664.076	53.1
664.404	53.22
664.733	53.28
665.062	53.29
665.39	53.29
665.719	53.3
666.048	53.22
666.376	53.23
666.705	53.28
667.033	53.37
667.362	53.35
667.69	53.46
668.018	53.58
668.347	53.62
668.675	53.65
669.003	53.73
669.331	53.84
669.659	53.89
669.987	53.93
670.315	54.07
670.643	54.13
670.971	53.99
671.299	53.94
671.627	53.94
671.955	53.87
672.283	53.93
672.61	54.02
672.938	54.04
673.266	54.13
673.593	54.11
673.921	54.08
674.249	54.13
674.576	54.01
674.904	54.04
675.231	54.08
675.558	54.16
675.886	54.11
676.213	54.09
676.54	54.23
676.867	54.2
677.195	54.25
677.522	54.36
677.849	54.6
678.176	54.69
678.503	54.73
678.83	54.72
679.157	54.65
679.484	54.62
679.81	54.7
680.137	54.8
680.464	54.85
680.791	54.89
681.117	54.93
681.444	55.08
681.771	54.98
682.097	54.97
682.424	54.93
682.75	54.95
683.077	55.03
683.403	54.9
683.729	54.94
684.056	54.87
684.382	54.87
684.708	54.7
685.034	54.68
685.36	54.68
685.686	54.73
686.012	54.69
686.339	54.79
686.664	54.85
686.99	54.71
687.316	54.76
687.642	54.85
687.968	54.84
688.294	54.71
688.619	54.8
688.945	54.88
689.271	54.93
689.596	54.95
689.922	54.81
690.247	54.8
690.573	54.86
690.898	54.87
691.224	54.86
691.549	54.89
691.874	54.92
692.2	54.93
692.525	55.02
692.85	55.28
693.175	55.34
693.5	55.22
693.825	55.31
694.15	55.24
694.475	55.26
694.8	55.19
695.125	55.32
695.45	55.42
695.775	55.3
696.099	55.35
696.424	55.6
696.749	55.7
697.073	55.88
697.398	55.89
697.723	55.89
698.047	55.85
698.372	55.94
698.696	56.01
699.02	55.94
699.345	55.88
699.669	55.82
699.993	55.74
700.318	55.85
700.642	55.84
700.966	55.94
701.29	55.96
701.614	56.03
701.938	55.97
702.262	55.73
702.586	55.68
702.91	55.59
703.234	55.32
703.557	55.21
703.881	55.12
704.205	55.15
704.529	55.21
704.852	55.21
705.176	55.17
705.499	55.04
705.823	55.08
706.146	55.1
706.47	55.17
706.793	55.23
707.117	55.12
707.44	55.05
707.763	54.89
708.086	54.94
708.409	54.86
708.733	54.87
709.056	55.15
709.379	55.5
709.702	55.53
710.025	55.64
710.348	55.69
710.671	55.82
710.993	55.66
711.316	55.58
711.639	55.58
711.962	55.7
712.284	55.93
712.607	56.01
712.93	55.94
713.252	55.84
713.575	55.79
713.897	55.87
714.22	56.07
714.542	56.38
714.864	56.18
715.187	56.19
715.509	56.37
715.831	56.36
716.153	56.21
716.475	56.16
716.798	56.08
717.12	56.32
717.442	56.19
717.764	56.29
718.085	56.52
718.407	56.52
718.729	56.43
719.051	56.21
719.373	56.21
719.695	56.4
720.016	56.41
720.338	56.36
720.659	56.36
720.981	56.2
721.302	55.97
721.624	56.1
721.945	56.24
722.267	55.88
722.588	56.1
722.909	55.99
723.231	56
723.552	55.87
723.873	55.7
724.194	55.8
724.515	55.9
724.836	55.62
725.157	55.77
725.478	55.73
725.799	55.97
726.12	55.83
726.441	55.87
726.762	56.11
727.083	56.18
727.403	56.08
727.724	56.13
728.045	56.18
728.365	56.42
728.686	56.37
729.006	56.53
729.327	56.4
729.647	56.18
729.967	56.31
730.288	56.4
730.608	56.56
730.928	56.47
731.249	56.54
731.569	56.64
731.889	56.94
732.209	56.91
732.529	56.68
732.849	56.82
733.169	56.95
733.489	56.89
733.809	56.84
734.129	57.05
734.448	57.13
734.768	57.12
735.088	57
735.408	57.17
735.727	57.38
736.047	57.45
736.366	57.7
736.686	57.63
737.005	57.82
737.325	57.81
737.644	57.91
737.963	57.77
738.283	58.07
738.602	57.72
738.921	57.87
739.24	57.88
739.56	57.92
739.879	57.57
740.198	57.46
740.517	57.66
740.836	57.55
741.155	57.54
741.473	57.75
741.792	57.67
742.111	57.64
742.43	57.45
742.748	57.45
743.067	57.58
743.386	57.83
743.704	57.79
744.023	57.53
744.341	57.69
744.66	57.52
744.978	57.22
745.297	57.18
745.615	56.97
745.933	57.23
746.252	57.3
746.57	57.44
746.888	57.46
747.206	57.46
747.524	57.49
747.842	57.52
748.16	57.27
748.478	57.46
748.796	57.55
749.114	57.64
749.432	57.34
749.749	57.31
750.067	57.27
750.385	57.15
750.703	57.3
751.02	56.94
751.338	57.26
751.655	57.13
751.973	57.36
752.29	57.48
752.608	57.39
752.925	57.34
753.242	57.75
753.56	57.48
753.877	57.39
754.194	57.67
754.511	57.4
754.828	57.45
755.145	57.5
755.462	57.19
755.779	57.03
756.096	56.92
756.413	56.85
756.73	56.98
757.047	57.22
757.364	57.18
757.68	57.14
757.997	56.98
758.314	57.17
758.63	57.1
758.947	57.09
759.264	57.1
759.58	57.26
759.896	56.82
760.213	57.25
760.529	57.55
760.846	57.17
761.162	57.25
761.478	57.25
761.794	57.07
762.11	56.98
762.426	57
762.743	57.16
763.059	57.36
763.375	57.28
763.69	57.31
764.006	57.41
764.322	57.55
764.638	57.68
764.954	57.57
765.27	57.55
765.585	57.69
765.901	57.56
766.216	57.51
766.532	57.52
766.848	57.73
767.163	57.2
767.478	57.3
767.794	57.56
768.109	57.62
768.424	57.77
768.74	58.06
769.055	58.45
769.37	58.42
769.685	58.28
770	57.64
770.315	57.32
770.63	57.1
770.945	57.27
771.26	56.89
771.575	57.2
771.89	57.12
772.205	56.6
772.52	56.56
772.834	56.26
773.149	56.54
773.464	55.89
773.778	56.01
774.093	55.96
774.407	55.64
774.722	55.64
775.036	55.45
775.351	55.46
775.665	55.08
775.979	55.39
776.293	55.3
776.608	56.21
776.922	56.54
777.236	56.96
777.55	56.93
777.864	56.92
778.178	56.73
778.492	56.79
778.806	57
779.12	57.21
779.434	57.16
779.747	57.01
780.061	56.96
780.375	57.05
780.689	56.7
781.002	56.57
781.316	56.72
781.629	56.57
781.943	56.75
782.256	56.74
782.57	56.24
782.883	56.26
783.196	56.12
783.51	56.22
783.823	55.63
784.136	55.51
784.449	55.94
784.762	55.85
785.075	55.79
785.388	56.17
785.701	56.26
786.014	56.38
786.327	56.38
786.64	56.56
786.953	57.18
787.266	57.74
787.578	58.01
787.891	57.52
788.204	57.73
788.516	57.71
788.829	57.3
789.141	57.81
789.454	57.73
789.766	57.7
790.079	57.55
790.391	58.08
790.703	57.62
791.016	57.36
791.328	57.19
791.64	57.09
791.952	57.26
792.264	57.13
792.576	57.25
792.888	57.09
793.2	57.25
793.512	56.95
793.824	57.12
794.136	57.48
794.448	58.15
794.76	57.95
795.071	57.88
795.383	58.2
795.695	58.36
796.006	58.21
796.318	58.52
796.629	58.19
796.941	57.39
797.252	57.62
797.564	57.87
797.875	57.82
798.186	57.97
798.497	57.78
798.809	57.72
799.12	57.33
799.431	56.9
799.742	56.77
800.053	56.45
800.364	56.65
800.675	56.3
800.986	56.29
801.297	57.02
801.608	56.48
801.918	56.79
802.229	56.34
802.54	56.64
802.851	55.91
803.161	56.42
803.472	56.6
803.782	56.73
804.093	56.97
804.403	57.12
804.714	57.31
805.024	57.16
805.334	56.49
805.645	57.42
805.955	58.09
806.265	57.92
806.575	57.81
806.885	57.44
807.195	57.4
807.505	56.78
807.815	56.43
808.125	57.17
808.435	56.84
808.745	56.82
809.055	56.81
809.365	57.59
809.674	57.57
809.984	58.18
810.294	58.42
810.603	57.29
810.913	57.8
811.222	57.58
811.532	57.12
811.841	58.41
812.151	58.31
812.46	58.99
812.769	58.75
813.079	59.36
813.388	59.13
813.697	59.83
814.006	60.24
814.315	59.98
814.624	59.95
814.933	60.14
815.242	60.09
815.551	60.09
815.86	59.65
816.169	58.79
816.478	58.75
816.786	58.76
817.095	59.54
817.404	59.53
817.712	59.18
818.021	59.43
818.33	59.53
818.638	59.31
818.947	58.92
819.255	59.14
819.563	59.3
819.872	59.6
820.18	59.51
820.488	59.36
820.796	59.46
821.105	59.41
821.413	59.48
821.721	59.63
822.029	59.63
822.337	59.63
822.645	59.96
822.953	59.89
823.26	59.98
823.568	59.85
823.876	59.91
824.184	60.01
824.491	59.92
824.799	59.81
825.107	59.76
825.414	59.84
825.722	59.89
826.029	59.89
826.337	59.99
826.644	60.02
826.951	60.09
827.259	60.1
827.566	60.05
827.873	59.95
828.18	59.94
828.488	59.61
828.795	59.59
829.102	59.37
829.409	59.3
829.716	59.24
830.023	59.23
830.329	58.96
830.636	58.81
830.943	58.84
831.25	58.64
831.557	58.46
831.863	58.53
832.17	59.02
832.476	59.2
832.783	58.58
833.089	58.06
833.396	57.97
833.702	58.16
834.009	58.46
834.315	58.42
834.621	58.35
834.928	58.11
835.234	58.07
835.54	58.13
835.846	58.03
836.152	57.75
836.458	58.18
836.764	58.06
837.07	58.11
837.376	57.87
837.682	58.02
837.988	58.51
838.293	58.55
838.599	57.79
838.905	57.08
839.211	56.97
839.516	56.59
839.822	56.42
840.127	55.11
840.433	54.26
840.738	54.64
841.044	53.87
841.349	55.21
841.654	55.09
841.959	54.98
842.265	53.99
842.57	53.49
842.875	52.13
843.18	51.97
843.485	51.35
843.79	52.6
844.095	53.18
844.4	53.01
844.705	51.18
845.01	50.89
845.315	50.46
845.619	51.06
845.924	51.89
846.229	51.89
846.533	53.7
846.838	52.67
847.142	52.04
847.447	52.6
847.751	52.04
848.056	52.62
848.36	51.27
848.664	53.12
848.969	54.12
849.273	53.8
849.577	55.87
849.881	58.97
850.185	57.76
850.489	56.05
850.794	54.44
851.097	55.99
851.401	56.21
851.705	56.15
852.009	55.44
852.313	55.29
852.617	53.33
852.92	53.15
853.224	53.38
853.528	51.4
853.831	52.02
854.135	51.77
854.438	51.5
854.742	51.94
855.045	51.4
855.349	49.47
855.652	50.62
855.955	48.17
856.259	44.71
856.562	44.68
856.865	45.9
857.168	46.76
857.471	45.75
857.774	45.59
858.077	43.22
858.38	43.57
858.683	45.14
858.986	44.23
859.289	42.12
859.592	43.85
859.894	46.08
860.197	45.47
860.5	45.95
860.802	45
861.105	44.52
861.407	46.99
861.71	47.95
862.012	47.25
862.315	47.8
862.617	48.49
862.919	49.37
863.222	48.94
863.524	47.29
863.826	47.36
864.128	46.02
864.43	48.87
864.732	47.6
865.034	45.57
865.336	48.51
865.638	49.25
865.94	48.71
866.242	47.86
866.544	48.93
866.846	48.9
867.147	51.7
867.449	51.76
867.751	48.84
868.052	49.52
868.354	50.4
868.655	50.49
868.957	50.83
869.258	50.27
869.56	48.68
869.861	49.82
870.162	49.52
870.463	50.85
870.765	50.63
871.066	50.12
871.367	48.58
871.668	49.29
871.969	49.73
872.27	50
872.571	50.49
872.872	48.65
873.173	49.22
873.473	46.73
873.774	47.56
874.075	49.68
874.376	51.05
874.676	53.83
874.977	53.13
875.277	51.45
875.578	52.41
875.878	54.5
876.179	54.94
876.479	55.23
876.78	55.01
877.08	54.87
877.38	56.54
877.68	60.22
877.981	58.88
878.281	60.04
878.581	60.38
