Data from BA48287_Reflection_00003.txt Node
Date: Tue Nov 19 11:43:18 EST 2019
User: vgr7
Spectrometer: USB2G7710
Scans to average: 3
Trigger mode: 4
Integration Time (sec): 2.000000E-2
Electric dark correction enabled: true
Boxcar width: 10
XAxis mode: Wavelengths
Number of Pixels in Spectrum: 2048
>>>>>Begin Spectral Data<<<<<
177.721	-8.95
178.105	-36.52
178.488	-43.02
178.871	-46.67
179.254	-4.27
179.636	24.77
180.019	34.93
180.402	80.95
180.785	116.97
181.168	-763.1
181.55	-118.11
181.933	-2
182.316	22.74
182.698	-4344.44
183.081	109.39
183.463	-6566.67
183.846	27.93
184.228	35.32
184.611	-221.84
184.993	-280.95
185.376	-67.59
185.758	-98.2
186.14	-135.22
186.522	-132.25
186.904	-138.42
187.287	-104.65
187.669	-108.89
188.051	-161.09
188.433	-347.01
188.815	-646.44
189.197	-372.1
189.579	-200.08
189.961	-171.02
190.342	-132.78
190.724	-130
191.106	-154.55
191.488	-152.19
191.869	-138.56
192.251	-121.97
192.633	-95.44
193.014	-81.1
193.396	-80.7
193.777	-64.55
194.159	-70.23
194.54	-62.12
194.922	-58.62
195.303	-60.84
195.684	-53.2
196.065	-45.63
196.447	-36.16
196.828	-29.5
197.209	-23.35
197.59	-26.09
197.971	-12.85
198.352	-14.78
198.733	-13.17
199.114	-9.7
199.495	-5.06
199.876	-3.86
200.257	-16.27
200.638	-27.53
201.018	-39.91
201.399	-47.89
201.78	-50.46
202.16	-43.39
202.541	-54.84
202.922	-57.15
203.302	-52.06
203.683	-70.13
204.063	-69.65
204.444	-68.5
204.824	-73.22
205.204	-70.35
205.585	-59.08
205.965	-83.89
206.345	-65.25
206.725	-41.43
207.106	-25.31
207.486	-20.21
207.866	-12.49
208.246	6.97
208.626	-4.68
209.006	11.04
209.386	12
209.766	3.64
210.145	-0.37
210.525	0.26
210.905	-12.17
211.285	-9.56
211.664	0.17
212.044	-5.33
212.424	-6.62
212.803	-7.74
213.183	-19.76
213.562	-15.85
213.942	-18.01
214.321	-44.99
214.701	-55.04
215.08	-63.66
215.459	-59.34
215.838	-78.4
216.218	-95.91
216.597	-75.08
216.976	-84.2
217.355	-87.18
217.734	-79.23
218.113	-66.06
218.492	-62.59
218.871	-46.92
219.25	-48.27
219.629	-58.26
220.008	-43.63
220.387	-34.58
220.766	-28.78
221.144	-23.41
221.523	-29.45
221.902	-21.97
222.28	8.17
222.659	21.38
223.037	14.05
223.416	3.7
223.794	7.54
224.173	7.87
224.551	3.42
224.929	4.79
225.308	-0.02
225.686	-2.25
226.064	-6.53
226.442	-3.62
226.821	-3.43
227.199	0.15
227.577	0.98
227.955	-1.4
228.333	-1.82
228.711	-2.78
229.089	-1.15
229.467	-1.78
229.845	-1.58
230.222	0.05
230.6	-2.96
230.978	-1.36
231.356	1.35
231.733	2.64
232.111	1.42
232.488	0.13
232.866	1.42
233.243	2.66
233.621	3.66
233.998	2.2
234.376	0.92
234.753	1.54
235.13	-0.33
235.508	-0.83
235.885	-0.38
236.262	-2.31
236.639	-2.4
237.016	-1.75
237.393	-1.01
237.77	0.02
238.147	-0.89
238.524	-0.1
238.901	-0.78
239.278	-0.61
239.655	-0.42
240.032	0.37
240.409	1.24
240.785	0.78
241.162	0.89
241.539	0.82
241.915	1.3
242.292	1.24
242.668	1.37
243.045	1.69
243.421	1.96
243.798	2.17
244.174	2.5
244.551	2.47
244.927	2.01
245.303	2.06
245.679	2.5
246.056	2.79
246.432	2.82
246.808	2.93
247.184	2.71
247.56	2.53
247.936	2.53
248.312	2.63
248.688	2.98
249.064	2.96
249.44	2.97
249.815	3.23
250.191	3.24
250.567	3.02
250.943	3.1
251.318	2.95
251.694	2.94
252.069	3.05
252.445	3.23
252.82	3.6
253.196	3.38
253.571	2.68
253.947	2.4
254.322	2.34
254.697	2.72
255.073	2.76
255.448	3.07
255.823	3.14
256.198	2.96
256.573	2.89
256.948	3.11
257.323	3.38
257.698	3.08
258.073	3.23
258.448	3.34
258.823	3.25
259.198	3.16
259.573	2.99
259.948	2.97
260.322	2.78
260.697	2.93
261.072	3.11
261.446	3.25
261.821	3.27
262.195	3.33
262.57	3.34
262.944	3.41
263.319	3.44
263.693	3.18
264.067	3.26
264.442	3.24
264.816	3.11
265.19	2.85
265.564	2.94
265.938	2.81
266.313	2.54
266.687	2.47
267.061	2.76
267.435	2.97
267.809	2.82
268.183	2.87
268.556	2.71
268.93	2.69
269.304	2.66
269.678	2.71
270.051	2.76
270.425	2.62
270.799	2.52
271.172	2.58
271.546	2.7
271.919	2.61
272.293	2.73
272.666	2.75
273.04	2.88
273.413	2.84
273.787	2.84
274.16	3
274.533	3.12
274.906	3.13
275.279	3.08
275.653	3.25
276.026	3.38
276.399	3.28
276.772	3.45
277.145	3.51
277.518	3.46
277.891	3.44
278.263	3.56
278.636	3.57
279.009	3.48
279.382	3.54
279.755	3.55
280.127	3.46
280.5	3.38
280.872	3.46
281.245	3.49
281.617	3.57
281.99	3.54
282.362	3.46
282.735	3.4
283.107	3.41
283.479	3.25
283.852	3.23
284.224	3.26
284.596	3.11
284.968	2.99
285.34	3.12
285.713	3
286.085	2.99
286.457	2.95
286.829	2.97
287.201	3
287.572	3.04
287.944	3.02
288.316	2.99
288.688	2.98
289.06	3.05
289.431	3.02
289.803	3.05
290.175	3.2
290.546	3.19
290.918	3.14
291.289	3.19
291.661	3.17
292.032	3.2
292.403	3.29
292.775	3.47
293.146	3.43
293.517	3.47
293.889	3.36
294.26	3.4
294.631	3.44
295.002	3.44
295.373	3.47
295.744	3.59
296.115	3.72
296.486	3.67
296.857	3.6
297.228	3.53
297.599	3.51
297.97	3.48
298.34	3.4
298.711	3.36
299.082	3.3
299.452	3.35
299.823	3.38
300.194	3.3
300.564	3.08
300.935	3.13
301.305	3.2
301.676	3.18
302.046	3.26
302.416	3.36
302.787	3.39
303.157	3.36
303.527	3.32
303.897	3.18
304.267	3.07
304.637	3.18
305.008	3.3
305.378	3.32
305.748	3.19
306.117	3.27
306.487	3.32
306.857	3.51
307.227	3.52
307.597	3.57
307.967	3.6
308.336	3.71
308.706	3.61
309.076	3.68
309.445	3.74
309.815	3.63
310.184	3.42
310.554	3.28
310.923	3.27
311.293	3.21
311.662	3.23
312.031	3.4
312.401	3.39
312.77	3.38
313.139	3.36
313.508	3.42
313.877	3.39
314.246	3.37
314.616	3.31
314.985	3.21
315.353	3.13
315.722	3.14
316.091	3.26
316.46	3.32
316.829	3.3
317.198	3.23
317.567	3.38
317.935	3.48
318.304	3.67
318.672	3.79
319.041	3.87
319.41	3.91
319.778	3.89
320.147	3.76
320.515	3.76
320.883	3.73
321.252	3.66
321.62	3.74
321.988	3.77
322.357	3.79
322.725	3.89
323.093	3.94
323.461	3.93
323.829	3.76
324.197	3.84
324.565	3.85
324.933	3.88
325.301	3.64
325.669	3.56
326.037	3.56
326.405	3.45
326.772	3.38
327.14	3.33
327.508	3.3
327.875	3.39
328.243	3.47
328.61	3.51
328.978	3.52
329.346	3.4
329.713	3.46
330.08	3.36
330.448	3.33
330.815	3.35
331.182	3.31
331.55	3.34
331.917	3.27
332.284	3.17
332.651	3.16
333.018	3.24
333.385	3.3
333.752	3.33
334.119	3.4
334.486	3.45
334.853	3.43
335.22	3.31
335.587	3.21
335.954	3.16
336.32	3.04
336.687	3.14
337.054	3.21
337.42	3.17
337.787	3.24
338.153	3.29
338.52	3.23
338.886	3.29
339.253	3.36
339.619	3.27
339.986	3.32
340.352	3.33
340.718	3.38
341.084	3.33
341.451	3.21
341.817	3.08
342.183	3.09
342.549	3.21
342.915	3.21
343.281	3.27
343.647	3.29
344.013	3.5
344.379	3.37
344.745	3.33
345.11	3.35
345.476	3.42
345.842	3.32
346.208	3.42
346.573	3.37
346.939	3.39
347.304	3.46
347.67	3.38
348.035	3.35
348.401	3.39
348.766	3.39
349.132	3.47
349.497	3.6
349.862	3.55
350.228	3.54
350.593	3.61
350.958	3.63
351.323	3.51
351.688	3.44
352.053	3.44
352.418	3.52
352.783	3.57
353.148	3.5
353.513	3.56
353.878	3.49
354.243	3.47
354.608	3.45
354.972	3.4
355.337	3.49
355.702	3.56
356.066	3.57
356.431	3.58
356.795	3.57
357.16	3.54
357.524	3.54
357.889	3.49
358.253	3.44
358.618	3.45
358.982	3.52
359.346	3.52
359.71	3.58
360.075	3.51
360.439	3.49
360.803	3.48
361.167	3.44
361.531	3.45
361.895	3.45
362.259	3.48
362.623	3.47
362.987	3.46
363.351	3.4
363.714	3.41
364.078	3.4
364.442	3.39
364.806	3.36
365.169	3.31
365.533	3.29
365.896	3.37
366.26	3.31
366.623	3.34
366.987	3.29
367.35	3.32
367.714	3.37
368.077	3.38
368.44	3.36
368.803	3.36
369.167	3.31
369.53	3.32
369.893	3.32
370.256	3.37
370.619	3.31
370.982	3.34
371.345	3.31
371.708	3.31
372.071	3.21
372.434	3.25
372.797	3.28
373.159	3.25
373.522	3.19
373.885	3.26
374.247	3.18
374.61	3.29
374.973	3.26
375.335	3.21
375.698	3.2
376.06	3.21
376.423	3.2
376.785	3.26
377.147	3.29
377.51	3.19
377.872	3.17
378.234	3.17
378.596	3.15
378.958	3.15
379.321	3.14
379.683	3.17
380.045	3.08
380.407	3.09
380.769	3.11
381.13	3.15
381.492	3.12
381.854	3.17
382.216	3.12
382.578	3.17
382.939	3.23
383.301	3.2
383.663	3.19
384.024	3.23
384.386	3.22
384.747	3.15
385.109	3.19
385.47	3.26
385.832	3.29
386.193	3.3
386.554	3.24
386.916	3.26
387.277	3.29
387.638	3.37
387.999	3.42
388.36	3.41
388.721	3.4
389.082	3.41
389.443	3.44
389.804	3.42
390.165	3.39
390.526	3.37
390.887	3.38
391.248	3.41
391.609	3.41
391.969	3.41
392.33	3.49
392.691	3.49
393.051	3.47
393.412	3.47
393.772	3.52
394.133	3.57
394.493	3.55
394.854	3.57
395.214	3.56
395.574	3.55
395.935	3.59
396.295	3.57
396.655	3.57
397.015	3.53
397.376	3.52
397.736	3.48
398.096	3.5
398.456	3.51
398.816	3.5
399.176	3.47
399.535	3.45
399.895	3.43
400.255	3.43
400.615	3.42
400.975	3.39
401.334	3.35
401.694	3.35
402.054	3.36
402.413	3.34
402.773	3.35
403.132	3.33
403.492	3.31
403.851	3.31
404.211	3.29
404.57	3.34
404.929	3.34
405.288	3.4
405.648	3.41
406.007	3.42
406.366	3.42
406.725	3.42
407.084	3.41
407.443	3.4
407.802	3.4
408.161	3.4
408.52	3.43
408.879	3.45
409.238	3.48
409.596	3.5
409.955	3.53
410.314	3.52
410.673	3.52
411.031	3.51
411.39	3.5
411.748	3.54
412.107	3.51
412.465	3.51
412.824	3.47
413.182	3.44
413.54	3.42
413.899	3.43
414.257	3.45
414.615	3.46
414.974	3.49
415.332	3.51
415.69	3.48
416.048	3.47
416.406	3.47
416.764	3.43
417.122	3.41
417.48	3.42
417.838	3.4
418.195	3.4
418.553	3.4
418.911	3.42
419.269	3.4
419.626	3.4
419.984	3.4
420.342	3.4
420.699	3.4
421.057	3.42
421.414	3.43
421.772	3.42
422.129	3.43
422.486	3.4
422.844	3.39
423.201	3.41
423.558	3.39
423.915	3.38
424.273	3.39
424.63	3.39
424.987	3.38
425.344	3.39
425.701	3.37
426.058	3.37
426.415	3.37
426.772	3.37
427.128	3.37
427.485	3.37
427.842	3.39
428.199	3.39
428.555	3.38
428.912	3.37
429.269	3.36
429.625	3.36
429.982	3.38
430.338	3.39
430.695	3.37
431.051	3.38
431.407	3.38
431.764	3.37
432.12	3.39
432.476	3.39
432.832	3.39
433.189	3.41
433.545	3.41
433.901	3.4
434.257	3.41
434.613	3.4
434.969	3.38
435.325	3.37
435.681	3.35
436.036	3.34
436.392	3.37
436.748	3.38
437.104	3.38
437.459	3.37
437.815	3.37
438.171	3.39
438.526	3.38
438.882	3.4
439.237	3.38
439.593	3.38
439.948	3.38
440.304	3.39
440.659	3.39
441.014	3.39
441.369	3.39
441.725	3.38
442.08	3.37
442.435	3.39
442.79	3.38
443.145	3.39
443.5	3.38
443.855	3.35
444.21	3.34
444.565	3.34
444.92	3.34
445.275	3.33
445.629	3.32
445.984	3.32
446.339	3.32
446.693	3.32
447.048	3.31
447.403	3.3
447.757	3.29
448.112	3.28
448.466	3.27
448.82	3.28
449.175	3.27
449.529	3.29
449.883	3.27
450.238	3.28
450.592	3.27
450.946	3.29
451.3	3.31
451.654	3.3
452.008	3.29
452.362	3.29
452.716	3.3
453.07	3.29
453.424	3.3
453.778	3.29
454.132	3.28
454.486	3.31
454.839	3.32
455.193	3.33
455.547	3.34
455.9	3.37
456.254	3.36
456.607	3.37
456.961	3.38
457.314	3.39
457.668	3.39
458.021	3.4
458.375	3.37
458.728	3.36
459.081	3.36
459.434	3.37
459.787	3.36
460.141	3.37
460.494	3.38
460.847	3.38
461.2	3.39
461.553	3.41
461.906	3.4
462.259	3.39
462.611	3.4
462.964	3.4
463.317	3.4
463.67	3.4
464.022	3.41
464.375	3.41
464.728	3.42
465.08	3.42
465.433	3.42
465.785	3.44
466.138	3.45
466.49	3.47
466.843	3.48
467.195	3.49
467.547	3.47
467.899	3.48
468.252	3.46
468.604	3.48
468.956	3.47
469.308	3.46
469.66	3.48
470.012	3.47
470.364	3.47
470.716	3.47
471.068	3.47
471.42	3.46
471.772	3.45
472.123	3.46
472.475	3.47
472.827	3.45
473.178	3.46
473.53	3.44
473.882	3.43
474.233	3.42
474.585	3.44
474.936	3.43
475.288	3.43
475.639	3.44
475.99	3.41
476.342	3.41
476.693	3.4
477.044	3.42
477.395	3.42
477.746	3.42
478.097	3.43
478.448	3.41
478.8	3.41
479.15	3.43
479.501	3.42
479.852	3.42
480.203	3.45
480.554	3.46
480.905	3.49
481.255	3.51
481.606	3.52
481.957	3.51
482.307	3.5
482.658	3.5
483.009	3.51
483.359	3.52
483.709	3.54
484.06	3.54
484.41	3.53
484.761	3.55
485.111	3.55
485.461	3.55
485.811	3.55
486.162	3.55
486.512	3.55
486.862	3.54
487.212	3.54
487.562	3.54
487.912	3.54
488.262	3.53
488.612	3.52
488.961	3.52
489.311	3.53
489.661	3.54
490.011	3.53
490.36	3.54
490.71	3.53
491.06	3.53
491.409	3.54
491.759	3.54
492.108	3.54
492.458	3.53
492.807	3.55
493.157	3.56
493.506	3.57
493.855	3.58
494.204	3.58
494.554	3.58
494.903	3.59
495.252	3.59
495.601	3.6
495.95	3.59
496.299	3.6
496.648	3.6
496.997	3.6
497.346	3.63
497.695	3.62
498.043	3.65
498.392	3.64
498.741	3.63
499.09	3.65
499.438	3.65
499.787	3.64
500.135	3.62
500.484	3.62
500.832	3.62
501.181	3.64
501.529	3.66
501.878	3.69
502.226	3.7
502.574	3.7
502.923	3.69
503.271	3.69
503.619	3.7
503.967	3.69
504.315	3.68
504.663	3.71
505.011	3.72
505.359	3.7
505.707	3.71
506.055	3.73
506.403	3.72
506.751	3.73
507.098	3.77
507.446	3.78
507.794	3.8
508.141	3.8
508.489	3.79
508.837	3.78
509.184	3.8
509.531	3.78
509.879	3.78
510.226	3.78
510.574	3.79
510.921	3.8
511.268	3.8
511.616	3.82
511.963	3.8
512.31	3.82
512.657	3.82
513.004	3.82
513.351	3.83
513.698	3.83
514.045	3.83
514.392	3.81
514.739	3.82
515.086	3.82
515.432	3.83
515.779	3.85
516.126	3.87
516.473	3.85
516.819	3.88
517.166	3.88
517.512	3.89
517.859	3.9
518.205	3.88
518.552	3.91
518.898	3.91
519.245	3.92
519.591	3.91
519.937	3.92
520.283	3.93
520.629	3.92
520.976	3.93
521.322	3.92
521.668	3.94
522.014	3.94
522.36	3.93
522.706	3.94
523.052	3.94
523.398	3.92
523.743	3.93
524.089	3.94
524.435	3.95
524.781	3.96
525.126	3.97
525.472	3.98
525.817	3.97
526.163	3.97
526.509	3.97
526.854	3.97
527.199	3.97
527.545	3.97
527.89	3.97
528.235	3.97
528.581	3.98
528.926	3.99
529.271	3.99
529.616	4
529.961	4
530.306	4
530.651	4
530.996	4.02
531.341	4.02
531.686	4.02
532.031	4.02
532.376	4.03
532.721	4.04
533.065	4.05
533.41	4.05
533.755	4.06
534.099	4.06
534.444	4.07
534.788	4.07
535.133	4.07
535.477	4.07
535.822	4.07
536.166	4.08
536.51	4.08
536.855	4.09
537.199	4.09
537.543	4.11
537.887	4.12
538.231	4.11
538.576	4.12
538.92	4.15
539.264	4.15
539.608	4.15
539.951	4.15
540.295	4.16
540.639	4.16
540.983	4.15
541.327	4.16
541.671	4.16
542.014	4.18
542.358	4.18
542.701	4.18
543.045	4.19
543.389	4.2
543.732	4.22
544.075	4.21
544.419	4.21
544.762	4.21
545.105	4.22
545.449	4.23
545.792	4.24
546.135	4.21
546.478	4.22
546.821	4.23
547.165	4.22
547.508	4.22
547.851	4.22
548.194	4.23
548.536	4.24
548.879	4.23
549.222	4.21
549.565	4.21
549.908	4.22
550.25	4.23
550.593	4.19
550.936	4.18
551.278	4.19
551.621	4.17
551.963	4.19
552.306	4.19
552.648	4.16
552.991	4.12
553.333	4.12
553.675	4.11
554.017	4.09
554.36	4.12
554.702	4.13
555.044	4.15
555.386	4.18
555.728	4.16
556.07	4.16
556.412	4.15
556.754	4.18
557.096	4.17
557.438	4.16
557.78	4.17
558.121	4.18
558.463	4.17
558.805	4.2
559.147	4.2
559.488	4.18
559.83	4.2
560.171	4.22
560.513	4.23
560.854	4.21
561.196	4.23
561.537	4.21
561.878	4.18
562.22	4.17
562.561	4.16
562.902	4.16
563.243	4.17
563.584	4.23
563.925	4.22
564.266	4.23
564.607	4.23
564.948	4.27
565.289	4.26
565.63	4.26
565.971	4.26
566.312	4.24
566.653	4.24
566.993	4.21
567.334	4.24
567.675	4.24
568.015	4.24
568.356	4.21
568.696	4.24
569.037	4.27
569.377	4.27
569.718	4.26
570.058	4.26
570.398	4.27
570.739	4.22
571.079	4.23
571.419	4.2
571.759	4.24
572.099	4.2
572.439	4.2
572.779	4.21
573.119	4.19
573.459	4.2
573.799	4.19
574.139	4.22
574.479	4.18
574.819	4.17
575.158	4.22
575.498	4.21
575.838	4.18
576.177	4.16
576.517	4.15
576.856	4.19
577.196	4.17
577.535	4.15
577.875	4.19
578.214	4.18
578.553	4.2
578.893	4.19
579.232	4.21
579.571	4.22
579.91	4.23
580.25	4.25
580.589	4.24
580.928	4.24
581.267	4.22
581.606	4.24
581.945	4.21
582.283	4.19
582.622	4.23
582.961	4.26
583.3	4.26
583.639	4.27
583.977	4.26
584.316	4.31
584.654	4.32
584.993	4.28
585.332	4.27
585.67	4.29
586.008	4.27
586.347	4.23
586.685	4.2
587.024	4.2
587.362	4.23
587.7	4.29
588.038	4.32
588.376	4.35
588.715	4.34
589.053	4.37
589.391	4.33
589.729	4.35
590.067	4.34
590.404	4.36
590.742	4.37
591.08	4.39
591.418	4.42
591.756	4.43
592.093	4.45
592.431	4.43
592.769	4.46
593.106	4.45
593.444	4.48
593.781	4.5
594.119	4.5
594.456	4.46
594.793	4.45
595.131	4.46
595.468	4.48
595.805	4.51
596.143	4.56
596.48	4.58
596.817	4.55
597.154	4.55
597.491	4.58
597.828	4.57
598.165	4.55
598.502	4.55
598.839	4.58
599.176	4.62
599.512	4.63
599.849	4.62
600.186	4.61
600.523	4.61
600.859	4.61
601.196	4.65
601.532	4.65
601.869	4.64
602.205	4.64
602.542	4.6
602.878	4.58
603.215	4.56
603.551	4.57
603.887	4.56
604.223	4.54
604.56	4.54
604.896	4.56
605.232	4.56
605.568	4.57
605.904	4.5
606.24	4.48
606.576	4.51
606.912	4.51
607.248	4.56
607.583	4.54
607.919	4.54
608.255	4.5
608.591	4.53
608.926	4.52
609.262	4.51
609.597	4.52
609.933	4.5
610.268	4.5
610.604	4.49
610.939	4.54
611.275	4.57
611.61	4.55
611.945	4.54
612.281	4.52
612.616	4.54
612.951	4.59
613.286	4.6
613.621	4.59
613.956	4.59
614.291	4.56
614.626	4.6
614.961	4.62
615.296	4.65
615.631	4.64
615.966	4.65
616.3	4.65
616.635	4.67
616.97	4.71
617.304	4.71
617.639	4.78
617.973	4.71
618.308	4.71
618.642	4.68
618.977	4.66
619.311	4.66
619.646	4.64
619.98	4.7
620.314	4.69
620.648	4.7
620.983	4.7
621.317	4.74
621.651	4.7
621.985	4.66
622.319	4.65
622.653	4.63
622.987	4.64
623.321	4.65
623.655	4.62
623.988	4.64
624.322	4.68
624.656	4.62
624.99	4.65
625.323	4.66
625.657	4.68
625.99	4.68
626.324	4.7
626.657	4.64
626.991	4.61
627.324	4.63
627.658	4.65
627.991	4.65
628.324	4.62
628.657	4.62
628.991	4.63
629.324	4.63
629.657	4.63
629.99	4.64
630.323	4.71
630.656	4.7
630.989	4.63
631.322	4.65
631.655	4.67
631.987	4.67
632.32	4.7
632.653	4.72
632.986	4.77
633.318	4.77
633.651	4.86
633.984	4.83
634.316	4.84
634.649	4.82
634.981	4.85
635.313	4.91
635.646	4.94
635.978	5.01
636.31	5.02
636.643	5.07
636.975	5
637.307	4.94
637.639	4.96
637.971	4.93
638.303	4.86
638.635	4.86
638.967	4.87
639.299	4.88
639.631	4.86
639.963	4.82
640.295	4.77
640.626	4.73
640.958	4.73
641.29	4.73
641.621	4.71
641.953	4.71
642.285	4.69
642.616	4.72
642.948	4.7
643.279	4.63
643.61	4.63
643.942	4.73
644.273	4.75
644.604	4.77
644.936	4.84
645.267	4.89
645.598	4.9
645.929	4.83
646.26	4.84
646.591	4.84
646.922	4.83
647.253	4.87
647.584	4.89
647.915	4.96
648.245	4.96
648.576	4.97
648.907	4.92
649.238	4.85
649.568	4.84
649.899	4.88
650.229	4.97
650.56	4.94
650.89	4.91
651.221	4.86
651.551	4.94
651.882	4.93
652.212	4.96
652.542	5
652.872	5.08
653.203	5.04
653.533	5.07
653.863	5.15
654.193	5.17
654.523	5.13
654.853	5.09
655.183	5.13
655.513	5.13
655.843	5.11
656.172	5.15
656.502	5.08
656.832	5
657.162	5.01
657.491	5.03
657.821	5.05
658.15	5.15
658.48	5.1
658.809	5.15
659.139	5.17
659.468	5.16
659.798	5.14
660.127	5.13
660.456	5.14
660.785	5.04
661.115	5.1
661.444	5.13
661.773	5.17
662.102	5.1
662.431	5.12
662.76	5.14
663.089	5.2
663.418	5.28
663.747	5.31
664.076	5.26
664.404	5.25
664.733	5.18
665.062	5.13
665.39	5.13
665.719	5.18
666.048	5.15
666.376	5.11
666.705	5.1
667.033	5.16
667.362	5.02
667.69	5.13
668.018	5.07
668.347	5.07
668.675	5.04
669.003	5.14
669.331	5.13
669.659	5.14
669.987	5.1
670.315	4.97
670.643	4.96
670.971	5.02
671.299	5.05
671.627	5.13
671.955	5.13
672.283	5.12
672.61	5.08
672.938	5.14
673.266	5.12
673.593	5.19
673.921	5.11
674.249	5.24
674.576	5.26
674.904	5.22
675.231	5.2
675.558	5.28
675.886	5.2
676.213	5.2
676.54	5.22
676.867	5.21
677.195	5.39
677.522	5.46
677.849	5.48
678.176	5.47
678.503	5.48
678.83	5.46
679.157	5.41
679.484	5.42
679.81	5.37
680.137	5.49
680.464	5.48
680.791	5.6
681.117	5.6
681.444	5.52
681.771	5.6
682.097	5.57
682.424	5.51
682.75	5.54
683.077	5.53
683.403	5.54
683.729	5.54
684.056	5.49
684.382	5.47
684.708	5.37
685.034	5.39
685.36	5.32
685.686	5.3
686.012	5.41
686.339	5.4
686.664	5.43
686.99	5.33
687.316	5.29
687.642	5.22
687.968	5.3
688.294	5.33
688.619	5.33
688.945	5.39
689.271	5.41
689.596	5.36
689.922	5.43
690.247	5.42
690.573	5.49
690.898	5.59
691.224	5.61
691.549	5.71
691.874	5.87
692.2	5.92
692.525	5.96
692.85	5.92
693.175	5.98
693.5	5.92
693.825	6.03
694.15	6.08
694.475	6.04
694.8	5.91
695.125	5.86
695.45	5.85
695.775	5.85
696.099	5.84
696.424	5.91
696.749	5.82
697.073	5.82
697.398	5.82
697.723	5.77
698.047	5.7
698.372	5.7
698.696	5.61
699.02	5.6
699.345	5.59
699.669	5.53
699.993	5.51
700.318	5.55
700.642	5.46
700.966	5.35
701.29	5.4
701.614	5.49
701.938	5.53
702.262	5.54
702.586	5.56
702.91	5.56
703.234	5.46
703.557	5.5
703.881	5.52
704.205	5.37
704.529	5.42
704.852	5.41
705.176	5.51
705.499	5.4
705.823	5.41
706.146	5.48
706.47	5.56
706.793	5.57
707.117	5.63
707.44	5.57
707.763	5.81
708.086	5.71
708.409	5.72
708.733	5.7
709.056	5.65
709.379	5.69
709.702	5.69
710.025	5.84
710.348	5.86
710.671	5.92
710.993	5.99
711.316	5.9
711.639	5.97
711.962	5.9
712.284	5.98
712.607	6
712.93	6.06
713.252	6.03
713.575	5.99
713.897	5.97
714.22	5.96
714.542	6.01
714.864	6.02
715.187	5.98
715.509	5.99
715.831	6.15
716.153	6.09
716.475	6.17
716.798	5.98
717.12	5.98
717.442	5.92
717.764	5.88
718.085	6.12
718.407	6.1
718.729	6.1
719.051	6.15
719.373	6.29
719.695	6.25
720.016	6.38
720.338	6.43
720.659	6.33
720.981	6.37
721.302	6.31
721.624	6.33
721.945	6.37
722.267	6.44
722.588	6.18
722.909	6.19
723.231	5.99
723.552	6.11
723.873	6.18
724.194	6.18
724.515	6.31
724.836	6.16
725.157	6.27
725.478	6.24
725.799	6.14
726.12	6.03
726.441	6.05
726.762	5.93
727.083	5.98
727.403	6
727.724	6.27
728.045	6.28
728.365	6.29
728.686	6.29
729.006	6.42
729.327	6.4
729.647	6.46
729.967	6.57
730.288	6.6
730.608	6.55
730.928	6.58
731.249	6.69
731.569	6.54
731.889	6.58
732.209	6.57
732.529	6.6
732.849	6.7
733.169	6.52
733.489	6.52
733.809	6.42
734.129	6.54
734.448	6.44
734.768	6.45
735.088	6.51
735.408	6.57
735.727	6.5
736.047	6.64
736.366	6.63
736.686	6.7
737.005	6.78
737.325	6.85
737.644	6.77
737.963	6.51
738.283	6.55
738.602	6.39
738.921	6.48
739.24	6.51
739.56	6.49
739.879	6.75
740.198	6.87
740.517	6.98
740.836	6.88
741.155	6.99
741.473	6.7
741.792	6.62
742.111	6.61
742.43	6.68
742.748	6.75
743.067	6.64
743.386	6.53
743.704	6.42
744.023	6.48
744.341	6.55
744.66	6.6
744.978	6.47
745.297	6.66
745.615	6.45
745.933	6.51
746.252	6.61
746.57	6.6
746.888	6.63
747.206	6.43
747.524	6.47
747.842	6.35
748.16	6.57
748.478	6.69
748.796	6.69
749.114	6.58
749.432	6.35
749.749	6.54
750.067	6.62
750.385	6.58
750.703	6.45
751.02	6.7
751.338	6.9
751.655	7.21
751.973	7.23
752.29	7.39
752.608	7.26
752.925	7.04
753.242	7.14
753.56	7.12
753.877	7.18
754.194	7.31
754.511	7.21
754.828	7.09
755.145	7.16
755.462	7.05
755.779	7
756.096	7.55
756.413	7.5
756.73	7.3
757.047	7.21
757.364	7.46
757.68	7.47
757.997	7.45
758.314	7.67
758.63	7.44
758.947	7.5
759.264	7.76
759.58	7.65
759.896	7.55
760.213	7.4
760.529	7.57
760.846	7.55
761.162	7.51
761.478	7.42
761.794	7.46
762.11	7.39
762.426	7.46
762.743	7.21
763.059	7.16
763.375	7.38
763.69	7.59
764.006	7.54
764.322	7.45
764.638	7.6
764.954	7.44
765.27	7.55
765.585	7.58
765.901	7.19
766.216	7.42
766.532	7.34
766.848	7.37
767.163	7.37
767.478	7.25
767.794	7.4
768.109	7.65
768.424	7.46
768.74	7.64
769.055	7.45
769.37	7.35
769.685	7.69
770	7.72
770.315	7.69
770.63	7.49
770.945	7.61
771.26	7.3
771.575	7.24
771.89	7.29
772.205	7.17
772.52	7.64
772.834	7.28
773.149	7.3
773.464	7.45
773.778	7.59
774.093	7.67
774.407	7.49
774.722	7.3
775.036	7.43
775.351	7.44
775.665	7.49
775.979	7.57
776.293	7.13
776.608	7.25
776.922	7.39
777.236	7.48
777.55	7.06
777.864	7.43
778.178	7.39
778.492	7.31
778.806	7.34
779.12	7.18
779.434	7.63
779.747	7.61
780.061	7.46
780.375	7.45
780.689	7.58
781.002	7.64
781.316	7.6
781.629	7.8
781.943	7.82
782.256	7.71
782.57	7.66
782.883	7.87
783.196	7.79
783.51	7.38
783.823	7.53
784.136	7.64
784.449	7.2
784.762	7.51
785.075	7.3
785.388	7.58
785.701	7.43
786.014	7.2
786.327	7.24
786.64	7.55
786.953	7.33
787.266	7.48
787.578	7.36
787.891	7.82
788.204	7.8
788.516	7.67
788.829	7.81
789.141	7.98
789.454	7.98
789.766	8.05
790.079	8.35
790.391	8.37
790.703	8.58
791.016	8.77
791.328	8.87
791.64	8.82
791.952	8.63
792.264	9.11
792.576	9.1
792.888	8.96
793.2	8.91
793.512	8.85
793.824	8.85
794.136	9.07
794.448	8.72
794.76	8.7
795.071	8.74
795.383	8.96
795.695	9.21
796.006	8.67
796.318	8.51
796.629	8.55
796.941	8.6
797.252	8.51
797.564	8.44
797.875	7.76
798.186	7.62
798.497	7.75
798.809	7.74
799.12	7.97
799.431	7.94
799.742	7.8
800.053	7.65
800.364	7.3
800.675	7.59
800.986	7.86
801.297	7.34
801.608	7.12
801.918	6.98
802.229	7.04
802.54	7.6
802.851	7.74
803.161	7.43
803.472	7.01
803.782	7.4
804.093	7.37
804.403	7.76
804.714	8.24
805.024	7.99
805.334	8.1
805.645	7.84
805.955	8.1
806.265	8.4
806.575	8.66
806.885	9.34
807.195	9.04
807.505	8.47
807.815	8.95
808.125	8.87
808.435	9.07
808.745	8.56
809.055	8.86
809.365	8.54
809.674	8.66
809.984	8.92
810.294	8.12
810.603	8.48
810.913	8.38
811.222	8.16
811.532	8.27
811.841	7.91
812.151	7.66
812.46	7.85
812.769	7.83
813.079	8.46
813.388	8.45
813.697	8.27
814.006	8.65
814.315	8.22
814.624	8.18
814.933	8.06
815.242	9.11
815.551	9.25
815.86	9.68
816.169	9.59
816.478	9.64
816.786	10.21
817.095	9.81
817.404	10.37
817.712	10.54
818.021	10.49
818.33	10.34
818.638	10.5
818.947	10.23
819.255	9.78
819.563	9.48
819.872	9.01
820.18	9.72
820.488	9.85
820.796	10.11
821.105	10.51
821.413	10.61
821.721	10.28
822.029	10.25
822.337	10.23
822.645	10.38
822.953	10.47
823.26	10.4
823.568	10.5
823.876	10.25
824.184	10.19
824.491	10.28
824.799	10.42
825.107	10.52
825.414	10.64
825.722	10.64
826.029	10.72
826.337	10.88
826.644	10.65
826.951	10.73
827.259	10.85
827.566	10.74
827.873	10.62
828.18	10.83
828.488	10.73
828.795	10.77
829.102	10.68
829.409	10.33
829.716	10.45
830.023	10.24
830.329	10.69
830.636	10.85
830.943	10.79
831.25	10.6
831.557	10.34
831.863	10.06
832.17	10.25
832.476	9.96
832.783	9.87
833.089	9.67
833.396	9.71
833.702	9.29
834.009	9.25
834.315	9.19
834.621	8.82
834.928	8.86
835.234	8.93
835.54	8.58
835.846	8.89
836.152	8.57
836.458	8.72
836.764	8.65
837.07	8.62
837.376	8.49
837.682	8.31
837.988	8.42
838.293	8.87
838.599	9.01
838.905	9.07
839.211	8.97
839.516	9.07
839.822	9.4
840.127	9.43
840.433	9.62
840.738	10.29
841.044	9.59
841.349	9.54
841.654	8.63
841.959	9.07
842.265	8.8
842.57	9.48
842.875	9.37
843.18	9.2
843.485	9.23
843.79	8.14
844.095	7.8
844.4	7.59
844.705	6.42
845.01	6.89
845.315	6.88
845.619	6.38
845.924	6.54
846.229	4.93
846.533	3.92
846.838	2.67
847.142	2.37
847.447	4.13
847.751	3.57
848.056	4.8
848.36	6.73
848.664	7.53
848.969	6.81
849.273	6.45
849.577	6.18
849.881	6.34
850.185	7.82
850.489	8.14
850.794	8.73
851.097	9.55
851.401	6.96
851.705	6.85
852.009	7.02
852.313	4.89
852.617	5.06
852.92	8.85
853.224	8.8
853.528	8.46
853.831	9.11
854.135	9.52
854.438	9.1
854.742	7.31
855.045	6.15
855.349	6.59
855.652	5.58
855.955	4.74
856.259	4.49
856.562	4.02
856.865	5.14
857.168	4.83
857.471	5.15
857.774	6.6
858.077	7.32
858.38	7.67
858.683	8.93
858.986	8.39
859.289	4.45
859.592	5.13
859.894	5.29
860.197	0.93
860.5	1.86
860.802	1.74
861.105	-0.01
861.407	1.93
861.71	1.72
862.012	2.25
862.315	3.14
862.617	3.77
862.919	4.54
863.222	4.79
863.524	3.69
863.826	1.97
864.128	2.8
864.43	3.94
864.732	3.77
865.034	3.78
865.336	3.91
865.638	6.48
865.94	7.09
866.242	7
866.544	11.88
866.846	10.68
867.147	13.02
867.449	14.02
867.751	14.17
868.052	13.14
868.354	13
868.655	13.92
868.957	14.3
869.258	12.46
869.56	12.78
869.861	15.4
870.162	16.81
870.463	14.84
870.765	13.95
871.066	13.99
871.367	12.05
871.668	12.03
871.969	10.96
872.27	10.29
872.571	9.06
872.872	7.6
873.173	7.62
873.473	4.34
873.774	5.15
874.075	6.8
874.376	7.32
874.676	7.94
874.977	7.94
875.277	5.55
875.578	6.15
875.878	5.17
876.179	3.27
876.479	2.91
876.78	3.7
877.08	3.02
877.38	3.31
877.68	6.71
877.981	6.99
878.281	7.74
878.581	7.91
