Data from BA48287_Reflection_00004.txt Node
Date: Tue Nov 19 11:43:21 EST 2019
User: vgr7
Spectrometer: USB2G7710
Scans to average: 3
Trigger mode: 4
Integration Time (sec): 2.000000E-2
Electric dark correction enabled: true
Boxcar width: 10
XAxis mode: Wavelengths
Number of Pixels in Spectrum: 2048
>>>>>Begin Spectral Data<<<<<
177.721	88.41
178.105	53.9
178.488	13.02
178.871	33.33
179.254	31.62
179.636	34.5
180.019	38.91
180.402	76.19
180.785	33.33
181.168	58.33
181.55	91.77
181.933	58.11
182.316	-3.75
182.698	-3011.11
183.081	-31.46
183.463	-566.67
183.846	-188.29
184.228	259.2
184.611	502.3
184.993	576.19
185.376	158.93
185.758	118.02
186.14	94.97
186.522	66.31
186.904	78.53
187.287	26.72
187.669	13.78
188.051	21.57
188.433	-23.31
188.815	-82.34
189.197	-68.93
189.579	-12.43
189.961	-11.31
190.342	-18.15
190.724	-9.29
191.106	-17.18
191.488	-18.03
191.869	-24.34
192.251	-21.86
192.633	-23.94
193.014	-22.11
193.396	-35.37
193.777	-39.99
194.159	-49.8
194.54	-43.96
194.922	-41.2
195.303	-48.28
195.684	-45.38
196.065	-48.24
196.447	-31.45
196.828	-31.02
197.209	-19.03
197.59	-26.83
197.971	-26.27
198.352	-23.24
198.733	-38.44
199.114	-30.05
199.495	-23.75
199.876	-16.91
200.257	-18.94
200.638	-21.92
201.018	-29.94
201.399	-29.31
201.78	-27.65
202.16	-29.98
202.541	-26.19
202.922	-39.58
203.302	-22.86
203.683	-33.33
204.063	-46.88
204.444	-60.65
204.824	-51
205.204	-51.67
205.585	-35.47
205.965	-48.8
206.345	-41.48
206.725	-18.94
207.106	-25.31
207.486	-40.68
207.866	-47.07
208.246	-46.33
208.626	-39.41
209.006	-38.43
209.386	-46.82
209.766	-63.59
210.145	-59.01
210.525	-64.86
210.905	-39.52
211.285	-46.73
211.664	-34.66
212.044	-28.04
212.424	-26.37
212.803	-38.97
213.183	-49.62
213.562	-45.19
213.942	-57.86
214.321	-74.12
214.701	-72.23
215.08	-76.39
215.459	-66.1
215.838	-79.68
216.218	-81.65
216.597	-83.27
216.976	-81.66
217.355	-77.5
217.734	-69.01
218.113	-55.18
218.492	-65.17
218.871	-55.84
219.25	-43.72
219.629	-51.79
220.008	-46.12
220.387	-49.48
220.766	-33.49
221.144	-27.1
221.523	-53.03
221.902	-27.26
222.28	-18.32
222.659	-8.7
223.037	-15.2
223.416	-18.52
223.794	-11.39
224.173	-16.43
224.551	-15.16
224.929	-14.21
225.308	-12.76
225.686	-15.96
226.064	-15.18
226.442	-11.93
226.821	-16.56
227.199	-15.16
227.577	-13.58
227.955	-13.42
228.333	-16.24
228.711	-17.64
229.089	-18.21
229.467	-15.72
229.845	-15.73
230.222	-14.58
230.6	-16.08
230.978	-11.2
231.356	-11.19
231.733	-10.12
232.111	-8.27
232.488	-5.89
232.866	-2.47
233.243	-2.21
233.621	-2.38
233.998	-3.32
234.376	-3.51
234.753	-2.99
235.13	-2.7
235.508	-1.9
235.885	-1.23
236.262	0.09
236.639	-1.02
237.016	0.25
237.393	2.68
237.77	3.35
238.147	3.87
238.524	5.02
238.901	4.09
239.278	4.1
239.655	3.65
240.032	3.69
240.409	2.62
240.785	3.07
241.162	3.23
241.539	3.73
241.915	3.36
242.292	4.07
242.668	4.26
243.045	4.41
243.421	4.61
243.798	4.7
244.174	5.09
244.551	5.59
244.927	5.39
245.303	4.91
245.679	4.73
246.056	4.54
246.432	4.66
246.808	4.58
247.184	4.57
247.56	4.46
247.936	4.54
248.312	5.06
248.688	4.68
249.064	4.29
249.44	4.15
249.815	4.48
250.191	4.27
250.567	4.1
250.943	4.12
251.318	3.91
251.694	3.75
252.069	3.62
252.445	3.51
252.82	3.84
253.196	3.71
253.571	3.74
253.947	4.07
254.322	3.77
254.697	4.05
255.073	4.19
255.448	4.47
255.823	4.37
256.198	4.09
256.573	3.95
256.948	4.38
257.323	4.49
257.698	4.37
258.073	4.44
258.448	4.55
258.823	4.54
259.198	4.63
259.573	4.48
259.948	4.66
260.322	4.48
260.697	4.33
261.072	4.41
261.446	4.47
261.821	4.31
262.195	4.25
262.57	4.17
262.944	4.28
263.319	4.32
263.693	4.4
264.067	4.46
264.442	4.51
264.816	4.45
265.19	4.61
265.564	4.43
265.938	4.32
266.313	4.3
266.687	4.18
267.061	4
267.435	4.21
267.809	3.94
268.183	4.12
268.556	4.04
268.93	4.19
269.304	4.02
269.678	4.01
270.051	3.99
270.425	4.02
270.799	3.74
271.172	3.74
271.546	3.74
271.919	3.83
272.293	3.89
272.666	3.93
273.04	3.88
273.413	4.01
273.787	3.93
274.16	3.93
274.533	4.06
274.906	4.17
275.279	4.16
275.653	4.21
276.026	4.19
276.399	4.24
276.772	4.24
277.145	4.33
277.518	4.2
277.891	4.41
278.263	4.39
278.636	4.56
279.009	4.47
279.382	4.38
279.755	4.21
280.127	4.24
280.5	4.24
280.872	4.41
281.245	4.39
281.617	4.47
281.99	4.39
282.362	4.38
282.735	4.55
283.107	4.44
283.479	4.46
283.852	4.5
284.224	4.53
284.596	4.38
284.968	4.49
285.34	4.64
285.713	4.58
286.085	4.58
286.457	4.5
286.829	4.54
287.201	4.41
287.572	4.47
287.944	4.51
288.316	4.59
288.688	4.53
289.06	4.67
289.431	4.85
289.803	4.93
290.175	4.93
290.546	4.84
290.918	5
291.289	4.93
291.661	4.91
292.032	5.02
292.403	5.11
292.775	5.02
293.146	5.07
293.517	5.09
293.889	5.08
294.26	5.3
294.631	5.28
295.002	5.49
295.373	5.62
295.744	5.63
296.115	5.56
296.486	5.58
296.857	5.51
297.228	5.28
297.599	5.2
297.97	5.16
298.34	5.11
298.711	5.12
299.082	5.12
299.452	5.14
299.823	5.09
300.194	5.2
300.564	5.25
300.935	5.19
301.305	5.19
301.676	5.14
302.046	4.98
302.416	5.01
302.787	4.88
303.157	4.68
303.527	4.61
303.897	4.6
304.267	4.38
304.637	4.4
305.008	4.64
305.378	4.77
305.748	4.85
306.117	4.82
306.487	4.92
306.857	4.98
307.227	5.07
307.597	5.18
307.967	5.06
308.336	5.04
308.706	5.07
309.076	5.2
309.445	5.39
309.815	5.45
310.184	5.45
310.554	5.51
310.923	5.55
311.293	5.52
311.662	5.57
312.031	5.72
312.401	5.73
312.77	5.61
313.139	5.53
313.508	5.57
313.877	5.71
314.246	5.67
314.616	5.68
314.985	5.62
315.353	5.58
315.722	5.68
316.091	5.61
316.46	5.63
316.829	5.58
317.198	5.53
317.567	5.62
317.935	5.69
318.304	5.84
318.672	5.88
319.041	6.02
319.41	5.93
319.778	5.83
320.147	5.77
320.515	5.88
320.883	5.97
321.252	5.95
321.62	5.92
321.988	5.89
322.357	5.89
322.725	5.89
323.093	5.84
323.461	5.79
323.829	5.86
324.197	5.79
324.565	5.71
324.933	5.66
325.301	5.5
325.669	5.44
326.037	5.37
326.405	5.47
326.772	5.43
327.14	5.41
327.508	5.45
327.875	5.36
328.243	5.38
328.61	5.28
328.978	5.3
329.346	5.18
329.713	5.1
330.08	5.14
330.448	5.08
330.815	5.06
331.182	4.97
331.55	5
331.917	5
332.284	4.91
332.651	4.99
333.018	5.06
333.385	5.13
333.752	5.17
334.119	5.21
334.486	5.23
334.853	5.35
335.22	5.39
335.587	5.56
335.954	5.43
336.32	5.5
336.687	5.45
337.054	5.52
337.42	5.62
337.787	5.5
338.153	5.56
338.52	5.57
338.886	5.69
339.253	5.65
339.619	5.66
339.986	5.7
340.352	5.59
340.718	5.68
341.084	5.69
341.451	5.62
341.817	5.62
342.183	5.59
342.549	5.64
342.915	5.6
343.281	5.61
343.647	5.73
344.013	5.64
344.379	5.6
344.745	5.63
345.11	5.53
345.476	5.67
345.842	5.71
346.208	5.66
346.573	5.6
346.939	5.66
347.304	5.73
347.67	5.77
348.035	5.72
348.401	5.68
348.766	5.62
349.132	5.57
349.497	5.51
349.862	5.5
350.228	5.43
350.593	5.48
350.958	5.49
351.323	5.39
351.688	5.45
352.053	5.42
352.418	5.4
352.783	5.45
353.148	5.38
353.513	5.3
353.878	5.29
354.243	5.28
354.608	5.3
354.972	5.29
355.337	5.35
355.702	5.5
356.066	5.49
356.431	5.56
356.795	5.56
357.16	5.55
357.524	5.57
357.889	5.59
358.253	5.53
358.618	5.45
358.982	5.57
359.346	5.69
359.71	5.79
360.075	5.79
360.439	5.8
360.803	5.85
361.167	5.87
361.531	5.94
361.895	5.95
362.259	5.97
362.623	6.02
362.987	6.02
363.351	5.99
363.714	6.03
364.078	5.96
364.442	6
364.806	6.01
365.169	6.01
365.533	6.05
365.896	6.07
366.26	6.15
366.623	6.02
366.987	5.95
367.35	5.93
367.714	5.92
368.077	5.89
368.44	5.87
368.803	5.9
369.167	5.89
369.53	5.91
369.893	5.82
370.256	5.74
370.619	5.72
370.982	5.69
371.345	5.67
371.708	5.71
372.071	5.68
372.434	5.68
372.797	5.73
373.159	5.63
373.522	5.61
373.885	5.53
374.247	5.62
374.61	5.66
374.973	5.64
375.335	5.69
375.698	5.69
376.06	5.67
376.423	5.66
376.785	5.65
377.147	5.62
377.51	5.58
377.872	5.6
378.234	5.61
378.596	5.62
378.958	5.62
379.321	5.56
379.683	5.56
380.045	5.55
380.407	5.56
380.769	5.62
381.13	5.63
381.492	5.67
381.854	5.68
382.216	5.62
382.578	5.63
382.939	5.59
383.301	5.59
383.663	5.56
384.024	5.6
384.386	5.61
384.747	5.61
385.109	5.66
385.47	5.67
385.832	5.59
386.193	5.58
386.554	5.51
386.916	5.61
387.277	5.61
387.638	5.64
387.999	5.62
388.36	5.58
388.721	5.61
389.082	5.61
389.443	5.58
389.804	5.58
390.165	5.61
390.526	5.61
390.887	5.63
391.248	5.65
391.609	5.64
391.969	5.65
392.33	5.68
392.691	5.68
393.051	5.7
393.412	5.76
393.772	5.78
394.133	5.82
394.493	5.78
394.854	5.79
395.214	5.75
395.574	5.71
395.935	5.72
396.295	5.7
396.655	5.69
397.015	5.7
397.376	5.72
397.736	5.65
398.096	5.63
398.456	5.59
398.816	5.61
399.176	5.53
399.535	5.52
399.895	5.5
400.255	5.54
400.615	5.51
400.975	5.48
401.334	5.46
401.694	5.5
402.054	5.47
402.413	5.49
402.773	5.53
403.132	5.53
403.492	5.53
403.851	5.54
404.211	5.5
404.57	5.5
404.929	5.49
405.288	5.54
405.648	5.55
406.007	5.6
406.366	5.62
406.725	5.61
407.084	5.6
407.443	5.6
407.802	5.57
408.161	5.61
408.52	5.63
408.879	5.66
409.238	5.63
409.596	5.67
409.955	5.62
410.314	5.59
410.673	5.6
411.031	5.58
411.39	5.56
411.748	5.59
412.107	5.56
412.465	5.56
412.824	5.55
413.182	5.57
413.54	5.54
413.899	5.51
414.257	5.55
414.615	5.51
414.974	5.52
415.332	5.5
415.69	5.44
416.048	5.42
416.406	5.39
416.764	5.39
417.122	5.39
417.48	5.41
417.838	5.39
418.195	5.38
418.553	5.38
418.911	5.39
419.269	5.39
419.626	5.4
419.984	5.4
420.342	5.39
420.699	5.37
421.057	5.38
421.414	5.38
421.772	5.38
422.129	5.38
422.486	5.37
422.844	5.37
423.201	5.38
423.558	5.39
423.915	5.39
424.273	5.38
424.63	5.37
424.987	5.36
425.344	5.37
425.701	5.35
426.058	5.35
426.415	5.33
426.772	5.33
427.128	5.32
427.485	5.3
427.842	5.29
428.199	5.3
428.555	5.27
428.912	5.27
429.269	5.26
429.625	5.28
429.982	5.29
430.338	5.28
430.695	5.28
431.051	5.26
431.407	5.26
431.764	5.25
432.12	5.22
432.476	5.24
432.832	5.25
433.189	5.24
433.545	5.25
433.901	5.27
434.257	5.27
434.613	5.29
434.969	5.3
435.325	5.28
435.681	5.28
436.036	5.29
436.392	5.29
436.748	5.3
437.104	5.29
437.459	5.28
437.815	5.28
438.171	5.27
438.526	5.28
438.882	5.29
439.237	5.3
439.593	5.32
439.948	5.33
440.304	5.31
440.659	5.33
441.014	5.33
441.369	5.33
441.725	5.35
442.08	5.32
442.435	5.31
442.79	5.32
443.145	5.33
443.5	5.31
443.855	5.29
444.21	5.27
444.565	5.26
444.92	5.26
445.275	5.24
445.629	5.24
445.984	5.23
446.339	5.22
446.693	5.21
447.048	5.19
447.403	5.18
447.757	5.18
448.112	5.18
448.466	5.17
448.82	5.15
449.175	5.12
449.529	5.13
449.883	5.13
450.238	5.12
450.592	5.1
450.946	5.09
451.3	5.11
451.654	5.1
452.008	5.1
452.362	5.08
452.716	5.09
453.07	5.07
453.424	5.07
453.778	5.07
454.132	5.06
454.486	5.06
454.839	5.05
455.193	5.06
455.547	5.04
455.9	5.06
456.254	5.09
456.607	5.11
456.961	5.12
457.314	5.12
457.668	5.11
458.021	5.13
458.375	5.14
458.728	5.13
459.081	5.15
459.434	5.18
459.787	5.21
460.141	5.22
460.494	5.25
460.847	5.26
461.2	5.27
461.553	5.3
461.906	5.32
462.259	5.32
462.611	5.32
462.964	5.32
463.317	5.32
463.67	5.32
464.022	5.32
464.375	5.32
464.728	5.32
465.08	5.34
465.433	5.34
465.785	5.36
466.138	5.36
466.49	5.37
466.843	5.36
467.195	5.35
467.547	5.35
467.899	5.36
468.252	5.36
468.604	5.34
468.956	5.34
469.308	5.34
469.66	5.38
470.012	5.39
470.364	5.43
470.716	5.46
471.068	5.45
471.42	5.46
471.772	5.47
472.123	5.47
472.475	5.47
472.827	5.45
473.178	5.46
473.53	5.46
473.882	5.45
474.233	5.45
474.585	5.45
474.936	5.44
475.288	5.43
475.639	5.43
475.99	5.44
476.342	5.45
476.693	5.43
477.044	5.38
477.395	5.37
477.746	5.35
478.097	5.35
478.448	5.35
478.8	5.36
479.15	5.35
479.501	5.37
479.852	5.38
480.203	5.4
480.554	5.41
480.905	5.41
481.255	5.42
481.606	5.45
481.957	5.46
482.307	5.45
482.658	5.47
483.009	5.48
483.359	5.48
483.709	5.49
484.06	5.49
484.41	5.51
484.761	5.52
485.111	5.53
485.461	5.53
485.811	5.54
486.162	5.55
486.512	5.56
486.862	5.56
487.212	5.56
487.562	5.56
487.912	5.57
488.262	5.57
488.612	5.58
488.961	5.58
489.311	5.59
489.661	5.6
490.011	5.61
490.36	5.6
490.71	5.62
491.06	5.62
491.409	5.62
491.759	5.62
492.108	5.61
492.458	5.61
492.807	5.62
493.157	5.64
493.506	5.65
493.855	5.65
494.204	5.67
494.554	5.7
494.903	5.72
495.252	5.72
495.601	5.74
495.95	5.74
496.299	5.76
496.648	5.77
496.997	5.76
497.346	5.79
497.695	5.81
498.043	5.81
498.392	5.83
498.741	5.86
499.09	5.89
499.438	5.91
499.787	5.94
500.135	5.93
500.484	5.93
500.832	5.94
501.181	5.97
501.529	5.99
501.878	6
502.226	6.02
502.574	6.05
502.923	6.06
503.271	6.09
503.619	6.1
503.967	6.11
504.315	6.13
504.663	6.14
505.011	6.15
505.359	6.17
505.707	6.18
506.055	6.19
506.403	6.19
506.751	6.22
507.098	6.25
507.446	6.28
507.794	6.29
508.141	6.3
508.489	6.3
508.837	6.3
509.184	6.31
509.531	6.31
509.879	6.32
510.226	6.34
510.574	6.36
510.921	6.36
511.268	6.39
511.616	6.43
511.963	6.45
512.31	6.46
512.657	6.48
513.004	6.5
513.351	6.5
513.698	6.52
514.045	6.51
514.392	6.51
514.739	6.54
515.086	6.57
515.432	6.58
515.779	6.6
516.126	6.62
516.473	6.64
516.819	6.65
517.166	6.67
517.512	6.7
517.859	6.72
518.205	6.73
518.552	6.75
518.898	6.74
519.245	6.75
519.591	6.76
519.937	6.77
520.283	6.8
520.629	6.8
520.976	6.82
521.322	6.85
521.668	6.86
522.014	6.85
522.36	6.86
522.706	6.86
523.052	6.86
523.398	6.86
523.743	6.87
524.089	6.89
524.435	6.89
524.781	6.91
525.126	6.9
525.472	6.94
525.817	6.93
526.163	6.95
526.509	6.96
526.854	6.96
527.199	6.98
527.545	6.98
527.89	6.99
528.235	6.99
528.581	7
528.926	7
529.271	7.01
529.616	7.03
529.961	7.04
530.306	7.06
530.651	7.06
530.996	7.09
531.341	7.09
531.686	7.09
532.031	7.09
532.376	7.11
532.721	7.1
533.065	7.1
533.41	7.11
533.755	7.1
534.099	7.12
534.444	7.14
534.788	7.13
535.133	7.15
535.477	7.18
535.822	7.18
536.166	7.19
536.51	7.2
536.855	7.21
537.199	7.22
537.543	7.23
537.887	7.25
538.231	7.24
538.576	7.26
538.92	7.29
539.264	7.3
539.608	7.3
539.951	7.31
540.295	7.32
540.639	7.32
540.983	7.33
541.327	7.33
541.671	7.32
542.014	7.34
542.358	7.33
542.701	7.32
543.045	7.33
543.389	7.36
543.732	7.35
544.075	7.35
544.419	7.35
544.762	7.35
545.105	7.36
545.449	7.37
545.792	7.36
546.135	7.35
546.478	7.36
546.821	7.36
547.165	7.36
547.508	7.36
547.851	7.36
548.194	7.35
548.536	7.34
548.879	7.35
549.222	7.33
549.565	7.36
549.908	7.36
550.25	7.36
550.593	7.37
550.936	7.36
551.278	7.38
551.621	7.36
551.963	7.37
552.306	7.36
552.648	7.36
552.991	7.36
553.333	7.36
553.675	7.38
554.017	7.41
554.36	7.43
554.702	7.41
555.044	7.42
555.386	7.45
555.728	7.47
556.07	7.47
556.412	7.48
556.754	7.49
557.096	7.5
557.438	7.51
557.78	7.48
558.121	7.5
558.463	7.49
558.805	7.54
559.147	7.57
559.488	7.6
559.83	7.57
560.171	7.57
560.513	7.59
560.854	7.61
561.196	7.59
561.537	7.62
561.878	7.65
562.22	7.68
562.561	7.69
562.902	7.68
563.243	7.7
563.584	7.71
563.925	7.73
564.266	7.69
564.607	7.69
564.948	7.69
565.289	7.71
565.63	7.71
565.971	7.67
566.312	7.67
566.653	7.65
566.993	7.66
567.334	7.69
567.675	7.66
568.015	7.62
568.356	7.63
568.696	7.58
569.037	7.58
569.377	7.54
569.718	7.54
570.058	7.56
570.398	7.55
570.739	7.55
571.079	7.53
571.419	7.54
571.759	7.56
572.099	7.56
572.439	7.56
572.779	7.57
573.119	7.6
573.459	7.58
573.799	7.55
574.139	7.59
574.479	7.58
574.819	7.61
575.158	7.64
575.498	7.63
575.838	7.66
576.177	7.65
576.517	7.66
576.856	7.67
577.196	7.68
577.535	7.7
577.875	7.69
578.214	7.71
578.553	7.74
578.893	7.76
579.232	7.76
579.571	7.77
579.91	7.8
580.25	7.78
580.589	7.77
580.928	7.79
581.267	7.79
581.606	7.79
581.945	7.78
582.283	7.77
582.622	7.76
582.961	7.77
583.3	7.8
583.639	7.8
583.977	7.79
584.316	7.83
584.654	7.81
584.993	7.85
585.332	7.82
585.67	7.79
586.008	7.77
586.347	7.8
586.685	7.76
587.024	7.77
587.362	7.8
587.7	7.83
588.038	7.88
588.376	7.9
588.715	7.92
589.053	7.93
589.391	7.98
589.729	8
590.067	7.97
590.404	7.95
590.742	7.95
591.08	7.96
591.418	7.94
591.756	7.95
592.093	7.94
592.431	7.98
592.769	8
593.106	8.01
593.444	8.02
593.781	8.05
594.119	8.05
594.456	8.03
594.793	8.04
595.131	8.02
595.468	8.02
595.805	7.99
596.143	7.99
596.48	7.96
596.817	7.95
597.154	7.99
597.491	8.01
597.828	8.02
598.165	8.02
598.502	8.05
598.839	8.07
599.176	8.1
599.512	8.1
599.849	8.12
600.186	8.12
600.523	8.11
600.859	8.12
601.196	8.13
601.532	8.14
601.869	8.1
602.205	8.12
602.542	8.08
602.878	8.1
603.215	8.11
603.551	8.09
603.887	8.08
604.223	8.12
604.56	8.14
604.896	8.18
605.232	8.14
605.568	8.11
605.904	8.08
606.24	8.08
606.576	8.06
606.912	8.06
607.248	8.05
607.583	8.05
607.919	8.02
608.255	8.01
608.591	8
608.926	8.05
609.262	8.04
609.597	8.08
609.933	8.07
610.268	8.09
610.604	8.1
610.939	8.17
611.275	8.15
611.61	8.16
611.945	8.16
612.281	8.23
612.616	8.24
612.951	8.3
613.286	8.29
613.621	8.32
613.956	8.35
614.291	8.4
614.626	8.39
614.961	8.48
615.296	8.52
615.631	8.53
615.966	8.57
616.3	8.59
616.635	8.59
616.97	8.61
617.304	8.63
617.639	8.69
617.973	8.66
618.308	8.66
618.642	8.61
618.977	8.58
619.311	8.55
619.646	8.59
619.98	8.61
620.314	8.57
620.648	8.63
620.983	8.61
621.317	8.57
621.651	8.59
621.985	8.6
622.319	8.56
622.653	8.57
622.987	8.55
623.321	8.52
623.655	8.54
623.988	8.53
624.322	8.51
624.656	8.47
624.99	8.47
625.323	8.48
625.657	8.5
625.99	8.54
626.324	8.6
626.657	8.54
626.991	8.49
627.324	8.5
627.658	8.45
627.991	8.43
628.324	8.47
628.657	8.47
628.991	8.42
629.324	8.41
629.657	8.41
629.99	8.39
630.323	8.42
630.656	8.4
630.989	8.41
631.322	8.4
631.655	8.42
631.987	8.41
632.32	8.41
632.653	8.43
632.986	8.43
633.318	8.41
633.651	8.48
633.984	8.53
634.316	8.55
634.649	8.58
634.981	8.6
635.313	8.65
635.646	8.68
635.978	8.74
636.31	8.77
636.643	8.77
636.975	8.8
637.307	8.78
637.639	8.83
637.971	8.87
638.303	8.85
638.635	8.84
638.967	8.84
639.299	8.82
639.631	8.82
639.963	8.79
640.295	8.82
640.626	8.82
640.958	8.81
641.29	8.85
641.621	8.83
641.953	8.84
642.285	8.71
642.616	8.68
642.948	8.68
643.279	8.68
643.61	8.76
643.942	8.75
644.273	8.79
644.604	8.75
644.936	8.74
645.267	8.8
645.598	8.85
645.929	8.9
646.26	8.93
646.591	8.93
646.922	8.96
647.253	8.82
647.584	8.8
647.915	8.81
648.245	8.82
648.576	8.82
648.907	8.81
649.238	8.91
649.568	8.95
649.899	8.93
650.229	8.97
650.56	8.89
650.89	8.93
651.221	8.98
651.551	9.03
651.882	9.05
652.212	8.98
652.542	9.03
652.872	9.06
653.203	9.06
653.533	9.09
653.863	9.11
654.193	9.2
654.523	9.21
654.853	9.27
655.183	9.28
655.513	9.28
655.843	9.21
656.172	9.23
656.502	9.16
656.832	9.16
657.162	9.15
657.491	9.23
657.821	9.17
658.15	9.2
658.48	9.18
658.809	9.14
659.139	9.17
659.468	9.13
659.798	9.14
660.127	9.1
660.456	9.09
660.785	9.06
661.115	9.07
661.444	9.11
661.773	9.12
662.102	9.17
662.431	9.21
662.76	9.31
663.089	9.31
663.418	9.39
663.747	9.38
664.076	9.37
664.404	9.34
664.733	9.4
665.062	9.31
665.39	9.39
665.719	9.47
666.048	9.43
666.376	9.43
666.705	9.46
667.033	9.49
667.362	9.47
667.69	9.49
668.018	9.4
668.347	9.39
668.675	9.4
669.003	9.37
669.331	9.4
669.659	9.36
669.987	9.32
670.315	9.28
670.643	9.24
670.971	9.23
671.299	9.2
671.627	9.19
671.955	9.17
672.283	9.07
672.61	9.09
672.938	9.12
673.266	9.12
673.593	9.06
673.921	9.02
674.249	9.05
674.576	9.14
674.904	9.21
675.231	9.13
675.558	9.11
675.886	9.08
676.213	9.06
676.54	9.11
676.867	9.17
677.195	9.23
677.522	9.34
677.849	9.37
678.176	9.43
678.503	9.36
678.83	9.43
679.157	9.5
679.484	9.46
679.81	9.53
680.137	9.62
680.464	9.66
680.791	9.72
681.117	9.79
681.444	9.72
681.771	9.77
682.097	9.89
682.424	9.91
682.75	9.93
683.077	9.93
683.403	9.94
683.729	9.95
684.056	9.95
684.382	9.95
684.708	9.98
685.034	9.96
685.36	10.03
685.686	10.16
686.012	10.08
686.339	10.1
686.664	10.16
686.99	9.97
687.316	10.04
687.642	10.09
687.968	10.08
688.294	10.12
688.619	10.17
688.945	10.12
689.271	10.05
689.596	10.03
689.922	10.05
690.247	10.1
690.573	10.15
690.898	10.14
691.224	10.13
691.549	10.11
691.874	10.14
692.2	10.24
692.525	10.07
692.85	10.17
693.175	10.18
693.5	10.11
693.825	10.29
694.15	10.09
694.475	10.11
694.8	10.12
695.125	10.14
695.45	10.07
695.775	10.09
696.099	10.21
696.424	10.24
696.749	10.32
697.073	10.29
697.398	10.25
697.723	10.24
698.047	10.29
698.372	10.4
698.696	10.53
699.02	10.45
699.345	10.5
699.669	10.49
699.993	10.45
700.318	10.53
700.642	10.54
700.966	10.74
701.29	10.72
701.614	10.72
701.938	10.76
702.262	10.77
702.586	10.84
702.91	10.78
703.234	10.76
703.557	10.64
703.881	10.74
704.205	10.77
704.529	10.74
704.852	10.63
705.176	10.58
705.499	10.38
705.823	10.29
706.146	10.31
706.47	10.29
706.793	10.43
707.117	10.36
707.44	10.3
707.763	10.21
708.086	10.17
708.409	10.1
708.733	9.9
709.056	10
709.379	10.03
709.702	10.04
710.025	10.24
710.348	10.36
710.671	10.31
710.993	10.36
711.316	10.45
711.639	10.57
711.962	10.54
712.284	10.61
712.607	10.72
712.93	10.73
713.252	10.72
713.575	10.74
713.897	10.78
714.22	10.82
714.542	10.92
714.864	10.85
715.187	10.94
715.509	11.12
715.831	11.06
716.153	10.97
716.475	11.02
716.798	10.82
717.12	10.75
717.442	10.72
717.764	10.69
718.085	10.66
718.407	10.58
718.729	10.6
719.051	10.68
719.373	10.73
719.695	10.63
720.016	10.59
720.338	10.49
720.659	10.34
720.981	10.25
721.302	10.11
721.624	10.46
721.945	10.52
722.267	10.51
722.588	10.52
722.909	10.68
723.231	10.69
723.552	10.88
723.873	10.9
724.194	10.9
724.515	10.99
724.836	11.11
725.157	11.26
725.478	11.46
725.799	11.25
726.12	11.31
726.441	11.4
726.762	11.59
727.083	11.76
727.403	11.9
727.724	11.91
728.045	11.89
728.365	11.63
728.686	11.73
729.006	11.73
729.327	11.83
729.647	11.7
729.967	11.65
730.288	11.49
730.608	11.52
730.928	11.74
731.249	11.74
731.569	11.74
731.889	11.54
732.209	11.42
732.529	11.6
732.849	11.67
733.169	11.66
733.489	11.52
733.809	11.43
734.129	11.53
734.448	11.64
734.768	11.67
735.088	11.72
735.408	11.53
735.727	11.59
736.047	11.67
736.366	11.7
736.686	11.76
737.005	11.98
737.325	12.13
737.644	11.89
737.963	11.81
738.283	11.85
738.602	11.99
738.921	11.99
739.24	11.96
739.56	11.97
739.879	12
740.198	12.18
740.517	12.28
740.836	12.15
741.155	12.15
741.473	12.23
741.792	12.17
742.111	12.31
742.43	12.48
742.748	12.35
743.067	12.54
743.386	12.39
743.704	12.29
744.023	12.15
744.341	12.09
744.66	12.06
744.978	12.03
745.297	11.72
745.615	11.76
745.933	11.72
746.252	11.83
746.57	11.93
746.888	11.96
747.206	11.83
747.524	12
747.842	11.91
748.16	11.95
748.478	12.1
748.796	12.13
749.114	11.9
749.432	12.01
749.749	11.73
750.067	11.95
750.385	11.92
750.703	11.97
751.02	12.12
751.338	12.15
751.655	11.92
751.973	12.36
752.29	12.08
752.608	12.16
752.925	11.77
753.242	11.75
753.56	11.46
753.877	11.55
754.194	11.57
754.511	11.63
754.828	11.58
755.145	11.51
755.462	11.59
755.779	11.4
756.096	11.48
756.413	11.81
756.73	11.96
757.047	12.01
757.364	12.07
757.68	11.81
757.997	11.82
758.314	12.11
758.63	12.36
758.947	12.82
759.264	12.8
759.58	12.75
759.896	12.73
760.213	13.11
760.529	13.01
760.846	13.01
761.162	13.17
761.478	13.32
761.794	13.37
762.11	13.33
762.426	13.47
762.743	13.38
763.059	13.59
763.375	13.46
763.69	13.44
764.006	13.47
764.322	13.71
764.638	13.86
764.954	13.91
765.27	13.94
765.585	13.83
765.901	13.69
766.216	13.87
766.532	13.81
766.848	13.78
767.163	13.95
767.478	13.86
767.794	13.66
768.109	13.47
768.424	13.52
768.74	13.46
769.055	13.69
769.37	13.53
769.685	12.95
770	12.78
770.315	12.91
770.63	12.74
770.945	12.83
771.26	12.66
771.575	12.52
771.89	12.22
772.205	12.07
772.52	12.28
772.834	12.36
773.149	12.52
773.464	12.6
773.778	12.55
774.093	12.62
774.407	12.74
774.722	13.14
775.036	13.09
775.351	13.46
775.665	13.4
775.979	13.56
776.293	13.68
776.608	13.77
776.922	13.59
777.236	13.74
777.55	13.36
777.864	13.76
778.178	13.51
778.492	13.52
778.806	14.12
779.12	14.36
779.434	14.28
779.747	14.42
780.061	14.44
780.375	14.49
780.689	14.64
781.002	14.59
781.316	14.4
781.629	14.2
781.943	13.88
782.256	13.48
782.57	13.47
782.883	13.69
783.196	13.86
783.51	13.87
783.823	14.3
784.136	14.43
784.449	14.03
784.762	14.2
785.075	13.85
785.388	13.53
785.701	13.26
786.014	13.28
786.327	13.43
786.64	13.5
786.953	13.67
787.266	13.82
787.578	13.91
787.891	13.71
788.204	13.83
788.516	13.79
788.829	14.38
789.141	14.83
789.454	14.78
789.766	14.93
790.079	14.95
790.391	14.72
790.703	14.97
791.016	14.85
791.328	15.01
791.64	15.16
791.952	15.32
792.264	14.91
792.576	14.9
792.888	14.5
793.2	14.26
793.512	13.55
793.824	12.84
794.136	12.15
794.448	12.53
794.76	12.68
795.071	12.85
795.383	12.85
795.695	12.6
796.006	12.35
796.318	12.15
796.629	12.28
796.941	11.94
797.252	11.5
797.564	11.61
797.875	11.51
798.186	11.66
798.497	11.1
798.809	11.55
799.12	11.48
799.431	11.46
799.742	11.56
800.053	12.03
800.364	12.64
800.675	13.57
800.986	13.64
801.297	13.94
801.608	13.73
801.918	13.14
802.229	12.7
802.54	12.9
802.851	12.67
803.161	12.52
803.472	12.73
803.782	13.35
804.093	13.3
804.403	13.34
804.714	13.7
805.024	14.33
805.334	14.6
805.645	15.14
805.955	15.73
806.265	15.63
806.575	15.58
806.885	15.3
807.195	15.11
807.505	14.77
807.815	14.86
808.125	14.7
808.435	15.08
808.745	14.94
809.055	15.1
809.365	15.6
809.674	15.94
809.984	15.61
810.294	15.63
810.603	15.26
810.913	15.49
811.222	15.12
811.532	15.17
811.841	15.54
812.151	15.15
812.46	14.88
812.769	15.11
813.079	14.99
813.388	15.03
813.697	15.35
814.006	15.77
814.315	15.42
814.624	15.65
814.933	15.28
815.242	15.63
815.551	15.65
815.86	15.7
816.169	15.52
816.478	16.32
816.786	16.24
817.095	17.13
817.404	17.02
817.712	17.24
818.021	16.94
818.33	16.54
818.638	16.83
818.947	17.08
819.255	17.16
819.563	17.29
819.872	17.16
820.18	16.84
820.488	16.8
820.796	16.93
821.105	17.08
821.413	17.39
821.721	17.53
822.029	17.52
822.337	17.39
822.645	17.41
822.953	17.31
823.26	17.25
823.568	17.12
823.876	17.05
824.184	16.98
824.491	17.02
824.799	17.09
825.107	17.01
825.414	16.87
825.722	16.81
826.029	16.89
826.337	16.86
826.644	17
826.951	16.99
827.259	16.94
827.566	16.88
827.873	16.72
828.18	16.58
828.488	16.38
828.795	16.45
829.102	16.37
829.409	16.27
829.716	16.47
830.023	16.61
830.329	16.78
830.636	16.89
830.943	16.35
831.25	16.34
831.557	16.14
831.863	16.17
832.17	16.49
832.476	16.41
832.783	16.91
833.089	16.64
833.396	16.72
833.702	16.8
834.009	16.95
834.315	16.86
834.621	16.74
834.928	17.2
835.234	17.29
835.54	17.23
835.846	17.17
836.152	17.02
836.458	17.22
836.764	17.48
837.07	17.76
837.376	18.79
837.682	18.53
837.988	19.12
838.293	19.24
838.599	19.03
838.905	18.89
839.211	18.47
839.516	19.04
839.822	19.46
840.127	19.15
840.433	18.68
840.738	18.69
841.044	18.8
841.349	18.85
841.654	18.12
841.959	17.97
842.265	18.17
842.57	18.06
842.875	17.21
843.18	17.03
843.485	16.11
843.79	15.14
844.095	14.86
844.4	14.68
844.705	15.64
845.01	16.02
845.315	15.68
845.619	16.12
845.924	15.9
846.229	15.55
846.533	16.54
846.838	16.83
847.142	16.64
847.447	17.73
847.751	16.68
848.056	18.25
848.36	19.27
848.664	19.71
848.969	21.44
849.273	21.29
849.577	19.97
849.881	20.81
850.185	20.66
850.489	19.54
850.794	20.88
851.097	21.08
851.401	18.72
851.705	19.92
852.009	19.55
852.313	17.46
852.617	17.48
852.92	15.73
853.224	15.58
853.528	15.48
853.831	14.16
854.135	14.67
854.438	13.88
854.742	13.52
855.045	13.63
855.349	10.53
855.652	11.13
855.955	12.94
856.259	12.76
856.562	15.05
856.865	18.01
857.168	17.28
857.471	15.37
857.774	17.68
858.077	16.8
858.38	16.26
858.683	19.02
858.986	17
859.289	16.65
859.592	17.44
859.894	17.23
860.197	16.07
860.5	17.06
860.802	17.44
861.105	17.6
861.407	18.59
861.71	19.13
862.012	19.98
862.315	20.34
862.617	19.3
862.919	17.85
863.222	16.96
863.524	14.55
863.826	13.2
864.128	13.14
864.43	13.33
864.732	13.69
865.034	12.94
865.336	14.6
865.638	15.2
865.94	15.31
866.242	15.56
866.544	17.77
866.846	18.88
867.147	19.61
867.449	18.16
867.751	16.35
868.052	16.29
868.354	16.72
868.655	13.72
868.957	14.3
869.258	13.04
869.56	12.97
869.861	14.82
870.162	14.15
870.463	12.26
870.765	13.19
871.066	12.48
871.367	11.12
871.668	10.7
871.969	10.96
872.27	11.78
872.571	13.32
872.872	12.59
873.173	10.95
873.473	9.91
873.774	10.95
874.075	11.59
874.376	10.61
874.676	9.73
874.977	10.48
875.277	10.33
875.578	12.56
875.878	12.37
876.179	11.83
876.479	13.44
876.78	14.08
877.08	13.06
877.38	13.72
877.68	15.51
877.981	15.26
878.281	16.31
878.581	14.91
