Data from BA48287_Reflection_00010.txt Node
Date: Tue Nov 19 11:43:39 EST 2019
User: vgr7
Spectrometer: USB2G7710
Scans to average: 3
Trigger mode: 4
Integration Time (sec): 2.000000E-2
Electric dark correction enabled: true
Boxcar width: 10
XAxis mode: Wavelengths
Number of Pixels in Spectrum: 2048
>>>>>Begin Spectral Data<<<<<
177.721	59.67
178.105	14.89
178.488	-17.34
178.871	4.62
179.254	-12.82
179.636	16.34
180.019	56.18
180.402	42.86
180.785	-16.36
181.168	278.57
181.55	100
181.933	105.46
182.316	166.23
182.698	-9566.67
183.081	-449.3
183.463	26100
183.846	370.27
184.228	-153.73
184.611	-520.69
184.993	-71.43
185.376	-16.02
185.758	-42.86
186.14	-88.68
186.522	-116.61
186.904	-72.88
187.287	-60.86
187.669	-52
188.051	-70.28
188.433	-142.77
188.815	-267.52
189.197	-166.97
189.579	-106.65
189.961	-77.86
190.342	-58.37
190.724	-43.07
191.106	-38.85
191.488	-36.93
191.869	-45.81
192.251	-49.61
192.633	-38.92
193.014	-37.01
193.396	-35.06
193.777	-30.4
194.159	-33.7
194.54	-24.69
194.922	-25.1
195.303	-34.53
195.684	-32.93
196.065	-23.59
196.447	-28.04
196.828	-9.6
197.209	-0.79
197.59	6.18
197.971	6.04
198.352	3.92
198.733	-2.78
199.114	-11.11
199.495	-6.42
199.876	5.13
200.257	4.55
200.638	5.52
201.018	7.28
201.399	9.41
201.78	20.77
202.16	15.08
202.541	11.58
202.922	7.76
203.302	6.82
203.683	-0.8
204.063	-0.81
204.444	8.95
204.824	-0.85
205.204	-3.57
205.585	10.62
205.965	23.98
206.345	40.58
206.725	47.53
207.106	59.88
207.486	59.06
207.866	55.74
208.246	69.14
208.626	50.8
209.006	46.03
209.386	39.74
209.766	51.26
210.145	54.04
210.525	58.14
210.905	56
211.285	61.67
211.664	61.19
212.044	51.75
212.424	54.84
212.803	43.99
213.183	40.27
213.562	34.22
213.942	40.69
214.321	37.57
214.701	37.31
215.08	38.49
215.459	39.12
215.838	29.58
216.218	32.95
216.597	52.25
216.976	37.9
217.355	39.14
217.734	20.82
218.113	18.98
218.492	13.77
218.871	7.01
219.25	5.57
219.629	8.15
220.008	22.79
220.387	24.22
220.766	36.4
221.144	50.8
221.523	54.23
221.902	49.8
222.28	62.91
222.659	66.31
223.037	62.08
223.416	47.56
223.794	45.68
224.173	36.98
224.551	33.24
224.929	36.04
225.308	31.49
225.686	35.5
226.064	39.95
226.442	38.57
226.821	33.92
227.199	34.63
227.577	31.39
227.955	27.14
228.333	23.91
228.711	19.46
229.089	17.7
229.467	18.28
229.845	13.28
230.222	11.11
230.6	5.97
230.978	6.76
231.356	5.19
231.733	5.61
232.111	6.34
232.488	6.22
232.866	7.97
233.243	8.24
233.621	9.77
233.998	8
234.376	8.09
234.753	9.16
235.13	9.37
235.508	9.07
235.885	9.39
236.262	8.61
236.639	8.53
237.016	8.87
237.393	8.92
237.77	10.05
238.147	10.09
238.524	10.58
238.901	9.71
239.278	10.75
239.655	9.71
240.032	9.23
240.409	8.59
240.785	7.92
241.162	8.22
241.539	6.6
241.915	6.78
242.292	6.64
242.668	6.18
243.045	5.87
243.421	6.09
243.798	6.04
244.174	6.6
244.551	6.82
244.927	6.49
245.303	6.3
245.679	6.29
246.056	6.37
246.432	6.23
246.808	6.36
247.184	6.04
247.56	6.11
247.936	6.11
248.312	6.23
248.688	6.21
249.064	5.96
249.44	6.3
249.815	6.32
250.191	6.26
250.567	6.45
250.943	6.36
251.318	6.34
251.694	6.17
252.069	5.87
252.445	5.68
252.82	5.74
253.196	6
253.571	5.98
253.947	5.6
254.322	5.27
254.697	5.24
255.073	5.44
255.448	5.46
255.823	5.56
256.198	5.51
256.573	5.24
256.948	5.25
257.323	5.28
257.698	5.36
258.073	5.27
258.448	5.2
258.823	5.15
259.198	5.07
259.573	5.14
259.948	5.31
260.322	5.22
260.697	5.35
261.072	5.14
261.446	5.14
261.821	5.21
262.195	5.42
262.57	5.42
262.944	5.41
263.319	5.41
263.693	5.35
264.067	5.27
264.442	5.26
264.816	5.2
265.19	5.01
265.564	4.78
265.938	4.93
266.313	4.82
266.687	4.85
267.061	4.9
267.435	4.92
267.809	4.62
268.183	4.74
268.556	4.57
268.93	4.74
269.304	4.74
269.678	5.01
270.051	4.82
270.425	4.65
270.799	4.39
271.172	4.48
271.546	4.59
271.919	4.66
272.293	4.89
272.666	5.18
273.04	5.22
273.413	5.2
273.787	5.02
274.16	5.06
274.533	5.21
274.906	5.1
275.279	5.05
275.653	5.22
276.026	5.19
276.399	5.1
276.772	5.21
277.145	5.02
277.518	4.66
277.891	4.97
278.263	5.08
278.636	5.58
279.009	5.55
279.382	5.48
279.755	5.55
280.127	5.49
280.5	5.21
280.872	5.36
281.245	5.39
281.617	5.55
281.99	5.63
282.362	5.55
282.735	5.64
283.107	5.67
283.479	5.64
283.852	5.7
284.224	5.77
284.596	5.51
284.968	5.62
285.34	5.66
285.713	5.58
286.085	5.48
286.457	5.33
286.829	5.33
287.201	5.39
287.572	5.4
287.944	5.49
288.316	5.58
288.688	5.6
289.06	5.7
289.431	5.76
289.803	5.73
290.175	5.64
290.546	5.65
290.918	5.62
291.289	5.51
291.661	5.52
292.032	5.62
292.403	5.68
292.775	5.65
293.146	5.66
293.517	5.53
293.889	5.57
294.26	5.55
294.631	5.52
295.002	5.45
295.373	5.37
295.744	5.38
296.115	5.35
296.486	5.3
296.857	5.26
297.228	5.16
297.599	5.09
297.97	5.05
298.34	5.03
298.711	5.03
299.082	5.09
299.452	4.99
299.823	4.89
300.194	4.89
300.564	4.8
300.935	4.8
301.305	4.85
301.676	4.86
302.046	4.86
302.416	5
302.787	5.02
303.157	5.08
303.527	5.07
303.897	5.11
304.267	5.02
304.637	5.04
305.008	5.16
305.378	5.16
305.748	5.37
306.117	5.48
306.487	5.58
306.857	5.62
307.227	5.7
307.597	5.76
307.967	5.93
308.336	6.06
308.706	6.04
309.076	6.16
309.445	6.2
309.815	6.24
310.184	5.99
310.554	5.96
310.923	5.89
311.293	5.83
311.662	5.88
312.031	5.91
312.401	5.99
312.77	5.97
313.139	6.14
313.508	6.13
313.877	6.05
314.246	6.05
314.616	5.99
314.985	6.01
315.353	6.02
315.722	6.03
316.091	6.07
316.46	6.04
316.829	6.08
317.198	6.16
317.567	5.99
317.935	6.14
318.304	6.38
318.672	6.32
319.041	6.44
319.41	6.43
319.778	6.27
320.147	6.08
320.515	6.05
320.883	5.9
321.252	5.94
321.62	5.83
321.988	5.85
322.357	5.98
322.725	5.98
323.093	6.09
323.461	6.17
323.829	6.13
324.197	6.18
324.565	6.18
324.933	6.09
325.301	6.19
325.669	6.28
326.037	6.33
326.405	6.41
326.772	6.33
327.14	6.29
327.508	6.5
327.875	6.56
328.243	6.48
328.61	6.45
328.978	6.29
329.346	6.35
329.713	6.39
330.08	6.43
330.448	6.48
330.815	6.48
331.182	6.37
331.55	6.37
331.917	6.42
332.284	6.48
332.651	6.42
333.018	6.52
333.385	6.46
333.752	6.29
334.119	6.41
334.486	6.44
334.853	6.36
335.22	6.24
335.587	6.26
335.954	6.31
336.32	6.45
336.687	6.55
337.054	6.57
337.42	6.55
337.787	6.56
338.153	6.53
338.52	6.51
338.886	6.56
339.253	6.52
339.619	6.64
339.986	6.53
340.352	6.66
340.718	6.64
341.084	6.75
341.451	6.77
341.817	6.68
342.183	6.63
342.549	6.73
342.915	6.87
343.281	6.86
343.647	6.92
344.013	6.9
344.379	7.01
344.745	7.09
345.11	7.09
345.476	7.06
345.842	7.12
346.208	7.06
346.573	6.99
346.939	7.01
347.304	6.97
347.67	6.94
348.035	6.94
348.401	6.9
348.766	6.78
349.132	6.84
349.497	6.83
349.862	6.97
350.228	6.9
350.593	6.84
350.958	6.95
351.323	7.02
351.688	6.95
352.053	6.82
352.418	6.75
352.783	6.76
353.148	6.71
353.513	6.65
353.878	6.59
354.243	6.63
354.608	6.64
354.972	6.55
355.337	6.55
355.702	6.51
356.066	6.49
356.431	6.53
356.795	6.5
357.16	6.52
357.524	6.42
357.889	6.44
358.253	6.45
358.618	6.41
358.982	6.35
359.346	6.42
359.71	6.5
360.075	6.55
360.439	6.52
360.803	6.51
361.167	6.46
361.531	6.5
361.895	6.5
362.259	6.51
362.623	6.51
362.987	6.51
363.351	6.51
363.714	6.54
364.078	6.52
364.442	6.48
364.806	6.5
365.169	6.46
365.533	6.51
365.896	6.49
366.26	6.43
366.623	6.41
366.987	6.36
367.35	6.29
367.714	6.19
368.077	6.15
368.44	6.22
368.803	6.22
369.167	6.19
369.53	6.12
369.893	6.11
370.256	5.97
370.619	5.92
370.982	5.83
371.345	5.83
371.708	5.8
372.071	5.7
372.434	5.67
372.797	5.64
373.159	5.55
373.522	5.52
373.885	5.49
374.247	5.5
374.61	5.54
374.973	5.51
375.335	5.53
375.698	5.49
376.06	5.4
376.423	5.39
376.785	5.39
377.147	5.42
377.51	5.38
377.872	5.51
378.234	5.49
378.596	5.53
378.958	5.47
379.321	5.44
379.683	5.51
380.045	5.46
380.407	5.48
380.769	5.44
381.13	5.42
381.492	5.38
381.854	5.34
382.216	5.29
382.578	5.33
382.939	5.27
383.301	5.26
383.663	5.25
384.024	5.28
384.386	5.25
384.747	5.17
385.109	5.13
385.47	5.06
385.832	5.03
386.193	4.99
386.554	4.97
386.916	4.98
387.277	4.92
387.638	4.95
387.999	4.92
388.36	4.9
388.721	4.87
389.082	4.87
389.443	4.86
389.804	4.79
390.165	4.74
390.526	4.76
390.887	4.74
391.248	4.75
391.609	4.72
391.969	4.7
392.33	4.67
392.691	4.68
393.051	4.67
393.412	4.7
393.772	4.71
394.133	4.71
394.493	4.66
394.854	4.67
395.214	4.63
395.574	4.6
395.935	4.63
396.295	4.64
396.655	4.62
397.015	4.61
397.376	4.63
397.736	4.58
398.096	4.57
398.456	4.58
398.816	4.52
399.176	4.5
399.535	4.47
399.895	4.5
400.255	4.49
400.615	4.47
400.975	4.44
401.334	4.44
401.694	4.4
402.054	4.39
402.413	4.39
402.773	4.39
403.132	4.37
403.492	4.34
403.851	4.34
404.211	4.35
404.57	4.33
404.929	4.3
405.288	4.32
405.648	4.34
406.007	4.34
406.366	4.36
406.725	4.35
407.084	4.33
407.443	4.31
407.802	4.31
408.161	4.34
408.52	4.32
408.879	4.31
409.238	4.31
409.596	4.32
409.955	4.26
410.314	4.26
410.673	4.26
411.031	4.24
411.39	4.22
411.748	4.21
412.107	4.21
412.465	4.2
412.824	4.18
413.182	4.13
413.54	4.11
413.899	4.11
414.257	4.07
414.615	4.06
414.974	4.06
415.332	4.04
415.69	4
416.048	4.02
416.406	3.97
416.764	3.98
417.122	3.98
417.48	4
417.838	3.98
418.195	3.99
418.553	3.98
418.911	3.96
419.269	3.95
419.626	3.94
419.984	3.93
420.342	3.95
420.699	3.95
421.057	3.94
421.414	3.93
421.772	3.94
422.129	3.94
422.486	3.92
422.844	3.91
423.201	3.9
423.558	3.9
423.915	3.89
424.273	3.89
424.63	3.9
424.987	3.89
425.344	3.88
425.701	3.88
426.058	3.9
426.415	3.9
426.772	3.91
427.128	3.94
427.485	3.92
427.842	3.88
428.199	3.89
428.555	3.89
428.912	3.89
429.269	3.87
429.625	3.88
429.982	3.89
430.338	3.92
430.695	3.9
431.051	3.91
431.407	3.93
431.764	3.91
432.12	3.87
432.476	3.89
432.832	3.87
433.189	3.87
433.545	3.86
433.901	3.84
434.257	3.82
434.613	3.79
434.969	3.81
435.325	3.81
435.681	3.79
436.036	3.8
436.392	3.81
436.748	3.82
437.104	3.82
437.459	3.82
437.815	3.81
438.171	3.82
438.526	3.81
438.882	3.82
439.237	3.83
439.593	3.85
439.948	3.84
440.304	3.83
440.659	3.82
441.014	3.8
441.369	3.82
441.725	3.82
442.08	3.83
442.435	3.84
442.79	3.85
443.145	3.87
443.5	3.86
443.855	3.84
444.21	3.83
444.565	3.82
444.92	3.83
445.275	3.82
445.629	3.82
445.984	3.8
446.339	3.8
446.693	3.78
447.048	3.76
447.403	3.77
447.757	3.77
448.112	3.78
448.466	3.79
448.82	3.77
449.175	3.77
449.529	3.77
449.883	3.76
450.238	3.76
450.592	3.73
450.946	3.7
451.3	3.71
451.654	3.7
452.008	3.68
452.362	3.68
452.716	3.69
453.07	3.69
453.424	3.71
453.778	3.68
454.132	3.7
454.486	3.71
454.839	3.7
455.193	3.71
455.547	3.72
455.9	3.71
456.254	3.72
456.607	3.74
456.961	3.73
457.314	3.72
457.668	3.71
458.021	3.73
458.375	3.73
458.728	3.72
459.081	3.74
459.434	3.76
459.787	3.76
460.141	3.77
460.494	3.77
460.847	3.76
461.2	3.77
461.553	3.78
461.906	3.78
462.259	3.78
462.611	3.79
462.964	3.8
463.317	3.8
463.67	3.81
464.022	3.81
464.375	3.81
464.728	3.81
465.08	3.84
465.433	3.83
465.785	3.85
466.138	3.87
466.49	3.88
466.843	3.89
467.195	3.89
467.547	3.87
467.899	3.88
468.252	3.89
468.604	3.91
468.956	3.94
469.308	3.95
469.66	4
470.012	3.99
470.364	3.98
470.716	4.01
471.068	4.03
471.42	4.02
471.772	4.04
472.123	4.05
472.475	4.05
472.827	4.06
473.178	4.05
473.53	4.05
473.882	4.03
474.233	4.02
474.585	4
474.936	4.02
475.288	3.99
475.639	3.99
475.99	3.98
476.342	3.96
476.693	3.95
477.044	3.91
477.395	3.89
477.746	3.87
478.097	3.85
478.448	3.82
478.8	3.83
479.15	3.82
479.501	3.82
479.852	3.8
480.203	3.81
480.554	3.81
480.905	3.82
481.255	3.81
481.606	3.82
481.957	3.82
482.307	3.83
482.658	3.84
483.009	3.83
483.359	3.83
483.709	3.84
484.06	3.84
484.41	3.84
484.761	3.85
485.111	3.86
485.461	3.86
485.811	3.86
486.162	3.86
486.512	3.87
486.862	3.87
487.212	3.88
487.562	3.87
487.912	3.88
488.262	3.88
488.612	3.89
488.961	3.89
489.311	3.9
489.661	3.9
490.011	3.9
490.36	3.91
490.71	3.91
491.06	3.92
491.409	3.92
491.759	3.95
492.108	3.95
492.458	3.98
492.807	3.98
493.157	4.01
493.506	4.03
493.855	4.04
494.204	4.05
494.554	4.07
494.903	4.09
495.252	4.11
495.601	4.11
495.95	4.13
496.299	4.16
496.648	4.17
496.997	4.2
497.346	4.23
497.695	4.25
498.043	4.3
498.392	4.32
498.741	4.34
499.09	4.33
499.438	4.36
499.787	4.37
500.135	4.4
500.484	4.4
500.832	4.42
501.181	4.45
501.529	4.47
501.878	4.51
502.226	4.55
502.574	4.6
502.923	4.64
503.271	4.69
503.619	4.72
503.967	4.77
504.315	4.8
504.663	4.84
505.011	4.88
505.359	4.88
505.707	4.93
506.055	4.96
506.403	5.01
506.751	5.03
507.098	5.07
507.446	5.11
507.794	5.16
508.141	5.19
508.489	5.24
508.837	5.3
509.184	5.33
509.531	5.37
509.879	5.41
510.226	5.47
510.574	5.52
510.921	5.56
511.268	5.61
511.616	5.68
511.963	5.74
512.31	5.82
512.657	5.88
513.004	5.94
513.351	6.02
513.698	6.09
514.045	6.16
514.392	6.22
514.739	6.31
515.086	6.39
515.432	6.49
515.779	6.54
516.126	6.63
516.473	6.71
516.819	6.77
517.166	6.84
517.512	6.88
517.859	6.96
518.205	7.02
518.552	7.1
518.898	7.17
519.245	7.21
519.591	7.26
519.937	7.32
520.283	7.42
520.629	7.48
520.976	7.58
521.322	7.68
521.668	7.76
522.014	7.87
522.36	7.95
522.706	8.05
523.052	8.18
523.398	8.29
523.743	8.44
524.089	8.6
524.435	8.74
524.781	8.9
525.126	9.03
525.472	9.15
525.817	9.24
526.163	9.32
526.509	9.42
526.854	9.52
527.199	9.63
527.545	9.71
527.89	9.81
528.235	9.9
528.581	10
528.926	10.13
529.271	10.23
529.616	10.36
529.961	10.46
530.306	10.58
530.651	10.7
530.996	10.83
531.341	10.96
531.686	11.09
532.031	11.21
532.376	11.34
532.721	11.49
533.065	11.65
533.41	11.83
533.755	12.03
534.099	12.19
534.444	12.34
534.788	12.52
535.133	12.71
535.477	12.9
535.822	13.07
536.166	13.26
536.51	13.49
536.855	13.71
537.199	13.97
537.543	14.23
537.887	14.49
538.231	14.72
538.576	14.98
538.92	15.26
539.264	15.53
539.608	15.76
539.951	15.97
540.295	16.19
540.639	16.38
540.983	16.57
541.327	16.78
541.671	17.03
542.014	17.24
542.358	17.45
542.701	17.63
543.045	17.88
543.389	18.09
543.732	18.3
544.075	18.5
544.419	18.72
544.762	18.93
545.105	19.17
545.449	19.43
545.792	19.7
546.135	19.94
546.478	20.22
546.821	20.54
547.165	20.86
547.508	21.19
547.851	21.54
548.194	21.87
548.536	22.19
548.879	22.49
549.222	22.82
549.565	23.11
549.908	23.46
550.25	23.78
550.593	24.08
550.936	24.37
551.278	24.71
551.621	25.05
551.963	25.36
552.306	25.73
552.648	26.04
552.991	26.33
553.333	26.67
553.675	26.94
554.017	27.22
554.36	27.53
554.702	27.79
555.044	28.07
555.386	28.36
555.728	28.67
556.07	28.96
556.412	29.22
556.754	29.57
557.096	29.89
557.438	30.16
557.78	30.46
558.121	30.82
558.463	31.14
558.805	31.46
559.147	31.77
559.488	32
559.83	32.29
560.171	32.58
560.513	32.86
560.854	33.15
561.196	33.46
561.537	33.71
561.878	33.99
562.22	34.26
562.561	34.54
562.902	34.83
563.243	35.15
563.584	35.43
563.925	35.64
564.266	35.91
564.607	36.16
564.948	36.42
565.289	36.67
565.63	36.86
565.971	37.05
566.312	37.31
566.653	37.58
566.993	37.8
567.334	38.03
567.675	38.26
568.015	38.49
568.356	38.74
568.696	39.01
569.037	39.2
569.377	39.44
569.718	39.68
570.058	39.83
570.398	40.04
570.739	40.27
571.079	40.51
571.419	40.69
571.759	40.87
572.099	41.07
572.439	41.24
572.779	41.46
573.119	41.72
573.459	41.88
573.799	42.03
574.139	42.23
574.479	42.43
574.819	42.61
575.158	42.83
575.498	43.03
575.838	43.19
576.177	43.38
576.517	43.58
576.856	43.77
577.196	44.01
577.535	44.18
577.875	44.35
578.214	44.54
578.553	44.78
578.893	45.02
579.232	45.24
579.571	45.46
579.91	45.66
580.25	45.76
580.589	45.91
580.928	46.1
581.267	46.24
581.606	46.42
581.945	46.63
582.283	46.73
582.622	46.78
582.961	46.94
583.3	47.14
583.639	47.29
583.977	47.4
584.316	47.55
584.654	47.75
584.993	47.88
585.332	48.08
585.67	48.2
586.008	48.34
586.347	48.49
586.685	48.58
587.024	48.72
587.362	48.8
587.7	48.98
588.038	49.09
588.376	49.23
588.715	49.38
589.053	49.55
589.391	49.73
589.729	49.93
590.067	50.06
590.404	50.15
590.742	50.22
591.08	50.38
591.418	50.46
591.756	50.51
592.093	50.61
592.431	50.7
592.769	50.76
593.106	50.89
593.444	51.02
593.781	51.14
594.119	51.26
594.456	51.41
594.793	51.48
595.131	51.57
595.468	51.67
595.805	51.7
596.143	51.66
596.48	51.66
596.817	51.68
597.154	51.75
597.491	51.87
597.828	51.98
598.165	52.05
598.502	52.19
598.839	52.31
599.176	52.35
599.512	52.39
599.849	52.53
600.186	52.56
600.523	52.54
600.859	52.62
601.196	52.67
601.532	52.68
601.869	52.79
602.205	52.87
602.542	52.93
602.878	53.03
603.215	53.12
603.551	53.22
603.887	53.23
604.223	53.3
604.56	53.32
604.896	53.42
605.232	53.45
605.568	53.47
605.904	53.46
606.24	53.58
606.576	53.7
606.912	53.71
607.248	53.78
607.583	53.88
607.919	53.89
608.255	53.96
608.591	54.11
608.926	54.16
609.262	54.19
609.597	54.23
609.933	54.24
610.268	54.36
610.604	54.51
610.939	54.61
611.275	54.6
611.61	54.73
611.945	54.74
612.281	54.87
612.616	54.96
612.951	54.99
613.286	54.98
613.621	55.02
613.956	55.08
614.291	55.22
614.626	55.33
614.961	55.48
615.296	55.54
615.631	55.63
615.966	55.71
616.3	55.86
616.635	55.97
616.97	56.08
617.304	56.12
617.639	56.07
617.973	56.17
618.308	56.2
618.642	56.2
618.977	56.21
619.311	56.12
619.646	56.11
619.98	56.21
620.314	56.32
620.648	56.36
620.983	56.4
621.317	56.32
621.651	56.42
621.985	56.47
622.319	56.42
622.653	56.46
622.987	56.47
623.321	56.5
623.655	56.48
623.988	56.51
624.322	56.59
624.656	56.6
624.99	56.66
625.323	56.79
625.657	56.82
625.99	56.85
626.324	56.85
626.657	56.88
626.991	56.96
627.324	56.94
627.658	57.03
627.991	57.12
628.324	57.17
628.657	57.18
628.991	57.18
629.324	57.28
629.657	57.18
629.99	57.16
630.323	57.19
630.656	57.32
630.989	57.34
631.322	57.28
631.655	57.34
631.987	57.37
632.32	57.39
632.653	57.38
632.986	57.45
633.318	57.56
633.651	57.62
633.984	57.66
634.316	57.8
634.649	57.78
634.981	57.81
635.313	57.87
635.646	57.81
635.978	57.9
636.31	57.98
636.643	58.09
636.975	58.1
637.307	58.14
637.639	58.1
637.971	58.07
638.303	58.05
638.635	58.07
638.967	57.97
639.299	57.99
639.631	58.15
639.963	58.12
640.295	58.17
640.626	58.24
640.958	58.21
641.29	58.2
641.621	58.1
641.953	58.14
642.285	58.05
642.616	58.13
642.948	58.05
643.279	58.02
643.61	58.06
643.942	58.19
644.273	58.23
644.604	58.25
644.936	58.3
645.267	58.38
645.598	58.4
645.929	58.46
646.26	58.43
646.591	58.51
646.922	58.62
647.253	58.58
647.584	58.59
647.915	58.65
648.245	58.68
648.576	58.72
648.907	58.68
649.238	58.74
649.568	58.64
649.899	58.62
650.229	58.64
650.56	58.69
650.89	58.73
651.221	58.75
651.551	58.8
651.882	58.82
652.212	58.73
652.542	58.76
652.872	58.96
653.203	59.05
653.533	58.97
653.863	58.92
654.193	58.92
654.523	58.96
654.853	59.03
655.183	58.94
655.513	59.02
655.843	59.05
656.172	59.03
656.502	59.12
656.832	59.2
657.162	59.25
657.491	59.11
657.821	59.14
658.15	59.14
658.48	59.12
658.809	59.17
659.139	59.28
659.468	59.3
659.798	59.3
660.127	59.21
660.456	59.1
660.785	59.15
661.115	59.1
661.444	59.09
661.773	59.12
662.102	59.3
662.431	59.36
662.76	59.38
663.089	59.47
663.418	59.46
663.747	59.42
664.076	59.44
664.404	59.62
664.733	59.62
665.062	59.66
665.39	59.64
665.719	59.63
666.048	59.51
666.376	59.49
666.705	59.47
667.033	59.56
667.362	59.71
667.69	59.74
668.018	59.83
668.347	59.77
668.675	59.88
669.003	59.85
669.331	59.77
669.659	59.69
669.987	59.76
670.315	59.97
670.643	59.98
670.971	59.95
671.299	59.94
671.627	60.02
671.955	60.03
672.283	60.2
672.61	60.18
672.938	60.34
673.266	60.37
673.593	60.27
673.921	60.34
674.249	60.45
674.576	60.36
674.904	60.46
675.231	60.52
675.558	60.29
675.886	60.24
676.213	60.33
676.54	60.42
676.867	60.4
677.195	60.36
677.522	60.53
677.849	60.67
678.176	60.67
678.503	60.74
678.83	60.72
679.157	60.57
679.484	60.62
679.81	60.61
680.137	60.64
680.464	60.66
680.791	60.6
681.117	60.49
681.444	60.55
681.771	60.62
682.097	60.65
682.424	60.82
682.75	60.91
683.077	60.84
683.403	60.78
683.729	60.79
684.056	60.81
684.382	60.8
684.708	60.72
685.034	60.81
685.36	60.67
685.686	60.71
686.012	60.8
686.339	60.68
686.664	60.77
686.99	60.77
687.316	60.89
687.642	60.93
687.968	61.11
688.294	61.17
688.619	61.17
688.945	61.28
689.271	61.17
689.596	61.12
689.922	61.07
690.247	61.27
690.573	61.29
690.898	61.15
691.224	61.06
691.549	60.99
691.874	61.14
692.2	61.15
692.525	61.09
692.85	61.06
693.175	61.3
693.5	61.27
693.825	61.2
694.15	61.24
694.475	61.25
694.8	61.15
695.125	61.12
695.45	61
695.775	60.92
696.099	61.02
696.424	61.17
696.749	61.24
697.073	61.22
697.398	61.14
697.723	61.37
698.047	61.37
698.372	61.4
698.696	61.18
699.02	61.26
699.345	61.24
699.669	61.21
699.993	61.11
700.318	61.12
700.642	61.12
700.966	61.03
701.29	61.1
701.614	61.1
701.938	61.23
702.262	61.27
702.586	61.45
702.91	61.51
703.234	61.3
703.557	61.49
703.881	61.57
704.205	61.62
704.529	61.5
704.852	61.64
705.176	61.68
705.499	61.77
705.823	61.58
706.146	61.77
706.47	61.87
706.793	61.92
707.117	62.05
707.44	62.21
707.763	62.18
708.086	62.21
708.409	62.28
708.733	62.27
709.056	62.37
709.379	62.04
709.702	61.82
710.025	62.04
710.348	61.84
710.671	61.64
710.993	61.72
711.316	61.83
711.639	61.89
711.962	62.02
712.284	62.05
712.607	62.31
712.93	62.3
713.252	62.27
713.575	62.37
713.897	62.18
714.22	62.08
714.542	61.96
714.864	61.77
715.187	61.69
715.509	61.54
715.831	61.44
716.153	61.68
716.475	61.77
716.798	61.59
717.12	61.54
717.442	61.67
717.764	61.52
718.085	61.32
718.407	61.32
718.729	61.04
719.051	60.79
719.373	60.6
719.695	60.41
720.016	60.48
720.338	60.15
720.659	60.19
720.981	60.23
721.302	60.36
721.624	60.83
721.945	60.85
722.267	61.05
722.588	61.04
722.909	60.69
723.231	60.74
723.552	60.77
723.873	60.83
724.194	60.84
724.515	61.19
724.836	61.3
725.157	61.02
725.478	61.16
725.799	61.18
726.12	61.07
726.441	61.07
726.762	61.12
727.083	61.41
727.403	61.32
727.724	61.39
728.045	61.3
728.365	61.08
728.686	61.05
729.006	61.01
729.327	60.92
729.647	61.25
729.967	61.32
730.288	61.34
730.608	61.37
730.928	61.44
731.249	61.47
731.569	61.35
731.889	61.52
732.209	61.45
732.529	61.75
732.849	62
733.169	62.29
733.489	62.17
733.809	62.09
734.129	62.31
734.448	62.32
734.768	62.26
735.088	62.02
735.408	61.89
735.727	61.62
736.047	61.8
736.366	61.74
736.686	61.74
737.005	61.86
737.325	61.71
737.644	61.49
737.963	61.22
738.283	61.42
738.602	61.47
738.921	61.46
739.24	61.33
739.56	61.06
739.879	60.84
740.198	60.71
740.517	60.78
740.836	60.76
741.155	60.71
741.473	60.94
741.792	61.02
742.111	61.27
742.43	61.61
742.748	61.31
743.067	61.39
743.386	61.31
743.704	61.35
744.023	61.87
744.341	62.02
744.66	62.38
744.978	62.12
745.297	61.84
745.615	62.22
745.933	62.14
746.252	62.42
746.57	62.68
746.888	62.96
747.206	62.92
747.524	62.89
747.842	62.93
748.16	63.04
748.478	63.08
748.796	63.43
749.114	63.4
749.432	63.6
749.749	63.52
750.067	63.5
750.385	63.35
750.703	63.21
751.02	63.08
751.338	62.88
751.655	63.17
751.973	63.3
752.29	63.07
752.608	62.85
752.925	63.07
753.242	62.81
753.56	62.78
753.877	62.62
754.194	62.6
754.511	62.52
754.828	62.61
755.145	62.53
755.462	62.2
755.779	62.08
756.096	62.48
756.413	62.5
756.73	62.45
757.047	62.39
757.364	62.25
757.68	62.16
757.997	62.28
758.314	62.44
758.63	62.52
758.947	62.67
759.264	63.11
759.58	62.62
759.896	62.8
760.213	62.77
760.529	63.02
760.846	63.44
761.162	63.32
761.478	63.22
761.794	63.31
762.11	62.89
762.426	62.87
762.743	62.72
763.059	62.66
763.375	62.59
763.69	62.78
764.006	62.7
764.322	62.89
764.638	62.62
764.954	62.56
765.27	62.73
765.585	62.63
765.901	62.47
766.216	62.66
766.532	62.59
766.848	63.02
767.163	63.01
767.478	62.81
767.794	62.92
768.109	62.84
768.424	62.72
768.74	63.11
769.055	63.06
769.37	62.89
769.685	62.61
770	62.56
770.315	62.19
770.63	62.23
770.945	62.25
771.26	62.77
771.575	62.72
771.89	62.41
772.205	62.46
772.52	62.97
772.834	62.62
773.149	62.42
773.464	62.1
773.778	62.25
774.093	62.13
774.407	62.36
774.722	62.15
775.036	62.12
775.351	62.32
775.665	62.56
775.979	62.68
776.293	62.89
776.608	63.27
776.922	63.72
777.236	64.31
777.55	64.06
777.864	64.18
778.178	64.02
778.492	64.04
778.806	64.16
779.12	63.79
779.434	64.37
779.747	64.55
780.061	64.4
780.375	64.55
780.689	64.3
781.002	63.98
781.316	64.32
781.629	64.63
781.943	64.68
782.256	64.61
782.57	64.97
782.883	65.47
783.196	64.94
783.51	64.54
783.823	64.41
784.136	64.36
784.449	63.44
784.762	63.35
785.075	63.64
785.388	63.95
785.701	63.55
786.014	63.26
786.327	63.07
786.64	62.77
786.953	63.02
787.266	63.06
787.578	63.19
787.891	63.31
788.204	63.75
788.516	63.88
788.829	63.86
789.141	63.74
789.454	63.3
789.766	63.31
790.079	63.49
790.391	62.79
790.703	63.2
791.016	63.86
791.328	63.8
791.64	63.82
791.952	63.15
792.264	63.37
792.576	63.52
792.888	63.95
793.2	64.39
793.512	63.33
793.824	63.52
794.136	64
794.448	63.84
794.76	63.79
795.071	63.29
795.383	63.6
795.695	63.44
796.006	63.52
796.318	63.86
796.629	63.9
796.941	64.54
797.252	64.93
797.564	64.72
797.875	65.19
798.186	64.66
798.497	64.43
798.809	64.36
799.12	64.55
799.431	64.41
799.742	64.4
800.053	64.73
800.364	64.69
800.675	64.39
800.986	64.88
801.297	64.3
801.608	64.24
801.918	64.14
802.229	63.79
802.54	63.87
802.851	64.2
803.161	64.23
803.472	63.97
803.782	63.46
804.093	63.6
804.403	63.19
804.714	63.74
805.024	64.42
805.334	64.17
805.645	63.91
805.955	63.99
806.265	63.73
806.575	64.62
806.885	64.48
807.195	64.05
807.505	63.44
807.815	63.52
808.125	64.01
808.435	63.81
808.745	64.46
809.055	64.82
809.365	64.37
809.674	63.76
809.984	63.45
810.294	63.5
810.603	62.66
810.913	62.53
811.222	61.86
811.532	61.12
811.841	61.49
812.151	61.72
812.46	61.98
812.769	62.33
813.079	61.11
813.388	61.76
813.697	62.32
814.006	62.41
814.315	62.7
814.624	62.06
814.933	61.78
815.242	61.85
815.551	61.53
815.86	61.81
816.169	62.88
816.478	62.74
816.786	62.73
817.095	63.01
817.404	63.39
817.712	63.64
818.021	64.09
818.33	64.42
818.638	64.42
818.947	64.01
819.255	63.42
819.563	64.06
819.872	63.57
820.18	63.37
820.488	63.19
820.796	63.2
821.105	63.55
821.413	63.59
821.721	63.55
822.029	63.46
822.337	63.68
822.645	63.45
822.953	63.57
823.26	63.5
823.568	63.65
823.876	63.75
824.184	63.91
824.491	63.95
824.799	63.93
825.107	63.7
825.414	63.72
825.722	64.01
826.029	63.9
826.337	63.97
826.644	64
826.951	64.01
827.259	64.13
827.566	64.1
827.873	64.24
828.18	64.22
828.488	64.23
828.795	63.9
829.102	64.17
829.409	64.1
829.716	64.25
830.023	64.34
830.329	64.12
830.636	64.01
830.943	64.22
831.25	64.09
831.557	64.12
831.863	63.79
832.17	63.37
832.476	63.12
832.783	63.04
833.089	63.13
833.396	63.76
833.702	63.28
834.009	63.02
834.315	63.17
834.621	63.14
834.928	63.61
835.234	63.74
835.54	63.55
835.846	63.67
836.152	63.33
836.458	62.75
836.764	62.45
837.07	61.99
837.376	61.96
837.682	62.06
837.988	62.79
838.293	63.04
838.599	63.04
838.905	63.69
839.211	63.19
839.516	62.8
839.822	61.94
840.127	62.09
840.433	62.89
840.738	62.3
841.044	61.92
841.349	61.82
841.654	61.17
841.959	60.84
842.265	60.14
842.57	59.99
842.875	60.88
843.18	61.41
843.485	61.95
843.79	60.78
844.095	61.34
844.4	59.84
844.705	60.26
845.01	60.43
845.315	58.92
845.619	61.37
845.924	60.71
846.229	61.83
846.533	61.33
846.838	60.43
847.142	60.89
847.447	61.67
847.751	61.19
848.056	61.47
848.36	61.05
848.664	62.07
848.969	62.57
849.273	63.45
849.577	65.74
849.881	66.63
850.185	67.6
850.489	66.68
850.794	68.64
851.097	68.45
851.401	67.78
851.705	69.17
852.009	67.09
852.313	68.26
852.617	68.7
852.92	69.64
853.224	70.02
853.528	70.32
853.831	70.07
854.135	72.64
854.438	73.79
854.742	73.74
855.045	73.66
855.349	72.76
855.652	70.64
855.955	68.27
856.259	67.31
856.562	68.68
856.865	70.09
857.168	68.6
857.471	69
857.774	69.31
858.077	69.55
858.38	69.85
858.683	72.25
858.986	69.25
859.289	67.94
859.592	68.87
859.894	67.3
860.197	67.64
860.5	67.02
860.802	66.34
861.105	67.99
861.407	69.9
861.71	73.43
862.012	74.88
862.315	73.47
862.617	71.89
862.919	71.53
863.222	71.34
863.524	72.37
863.826	70.38
864.128	71.52
864.43	70.88
864.732	67.37
865.034	67.82
865.336	68.92
865.638	70.81
865.94	68.72
866.242	70.86
866.544	70.58
866.846	68.98
867.147	70.23
867.449	69.58
867.751	69.62
868.052	67.72
868.354	68.28
868.655	69.38
868.957	70.81
869.258	67.39
869.56	66.13
869.861	65.53
870.162	67.36
870.463	66.66
870.765	66.81
871.066	69.53
871.367	68.09
871.668	69.05
871.969	69.84
872.27	68.37
872.571	67.24
872.872	67.87
873.173	67.25
873.473	66.96
873.774	64.67
874.075	64.11
874.376	64.85
874.676	62.59
874.977	63.53
875.277	63.57
875.578	66.48
875.878	66.47
876.179	66.66
876.479	66.3
876.78	66.05
877.08	66.18
877.38	66.98
877.68	66.77
877.981	65.97
878.281	65.09
878.581	68.39
