Data from BA48287_Reflection_00001.txt Node
Date: Tue Nov 19 11:43:14 EST 2019
User: vgr7
Spectrometer: USB2G7710
Scans to average: 3
Trigger mode: 4
Integration Time (sec): 2.000000E-2
Electric dark correction enabled: true
Boxcar width: 10
XAxis mode: Wavelengths
Number of Pixels in Spectrum: 2048
>>>>>Begin Spectral Data<<<<<
177.721	65
178.105	55.67
178.488	46
178.871	34.36
179.254	52.99
179.636	52.66
180.019	3.72
180.402	80.95
180.785	55.76
181.168	-108.33
181.55	3.29
181.933	29.87
182.316	87.86
182.698	-6955.56
183.081	-310.8
183.463	13266.67
183.846	320.72
184.228	-111.44
184.611	59.77
184.993	180.95
185.376	71.45
185.758	83.91
186.14	88.05
186.522	113.84
186.904	126.55
187.287	123.68
187.669	152.89
188.051	161.4
188.433	347.59
188.815	525.93
189.197	289.29
189.579	158.99
189.961	106.96
190.342	111.81
190.724	110.18
191.106	120.43
191.488	116.37
191.869	118.02
192.251	112.19
192.633	101.87
193.014	94.13
193.396	90.6
193.777	80.38
194.159	84.06
194.54	66.83
194.922	65.03
195.303	74.74
195.684	62.5
196.065	60.69
196.447	48.02
196.828	43.94
197.209	40.84
197.59	44.78
197.971	52.15
198.352	48.37
198.733	46.78
199.114	47.27
199.495	45.44
199.876	38.06
200.257	40.98
200.638	50.27
201.018	52.97
201.399	56.83
201.78	54.18
202.16	47.3
202.541	62.43
202.922	71.94
203.302	63.61
203.683	69.33
204.063	65.58
204.444	63.63
204.824	89.46
205.204	111.6
205.585	106.46
205.965	107.47
206.345	94.62
206.725	99.75
207.106	93.81
207.486	107.61
207.866	102.54
208.246	95.56
208.626	80.95
209.006	86.26
209.386	98.33
209.766	118.21
210.145	118.75
210.525	93.54
210.905	67.7
211.285	64.96
211.664	62.02
212.044	67.68
212.424	70.68
212.803	52.1
213.183	50.98
213.562	51.85
213.942	48.87
214.321	57.16
214.701	50.29
215.08	60.59
215.459	53.59
215.838	47.29
216.218	52.69
216.597	56.12
216.976	45.29
217.355	38.91
217.734	32.1
218.113	38.13
218.492	53.45
218.871	55.2
219.25	49.75
219.629	46.74
220.008	36.28
220.387	42.65
220.766	49.16
221.144	38.29
221.523	38.74
221.902	53.54
222.28	54.75
222.659	57.68
223.037	39.15
223.416	37.63
223.794	42.25
224.173	35.33
224.551	24.18
224.929	23.9
225.308	21.31
225.686	22.21
226.064	10.86
226.442	10.78
226.821	11.52
227.199	8.08
227.577	12.93
227.955	13.96
228.333	13.39
228.711	13.87
229.089	14.97
229.467	16.64
229.845	12.93
230.222	14.16
230.6	16.11
230.978	19.41
231.356	18.69
231.733	17.61
232.111	20.38
232.488	22.22
232.866	23.06
233.243	22.83
233.621	23.49
233.998	25.73
234.376	24.02
234.753	21.78
235.13	21.53
235.508	19.96
235.885	19.41
236.262	18.33
236.639	18.31
237.016	17.7
237.393	17.6
237.77	17.89
238.147	16.46
238.524	15.39
238.901	13.04
239.278	12.8
239.655	12.94
240.032	12.04
240.409	11.55
240.785	10.44
241.162	9.85
241.539	9.5
241.915	8.47
242.292	8.21
242.668	8.44
243.045	8.8
243.421	8.62
243.798	8.21
244.174	7.51
244.551	7.33
244.927	7
245.303	6.51
245.679	6.41
246.056	6.42
246.432	6.3
246.808	6.5
247.184	6.28
247.56	6.17
247.936	6.13
248.312	6.25
248.688	6.43
249.064	6.5
249.44	6.37
249.815	6.83
250.191	6.93
250.567	6.81
250.943	6.73
251.318	6.43
251.694	6.5
252.069	6.71
252.445	6.71
252.82	7.07
253.196	7.08
253.571	7.01
253.947	6.59
254.322	6.15
254.697	6.21
255.073	6
255.448	5.73
255.823	5.24
256.198	4.74
256.573	4.61
256.948	4.67
257.323	4.63
257.698	4.47
258.073	4.53
258.448	4.73
258.823	4.59
259.198	4.86
259.573	4.75
259.948	4.9
260.322	4.71
260.697	4.64
261.072	4.81
261.446	4.89
261.821	4.99
262.195	5.07
262.57	5.03
262.944	5.19
263.319	5.24
263.693	5.41
264.067	5.65
264.442	5.6
264.816	5.52
265.19	5.7
265.564	5.61
265.938	5.46
266.313	5.38
266.687	5.37
267.061	5.28
267.435	5.4
267.809	5.12
268.183	5.25
268.556	5.02
268.93	4.96
269.304	4.85
269.678	4.95
270.051	5.04
270.425	5.02
270.799	4.91
271.172	4.96
271.546	5.1
271.919	4.96
272.293	5.14
272.666	5.24
273.04	5.21
273.413	5.17
273.787	5.25
274.16	5.1
274.533	5.21
274.906	5.02
275.279	5.12
275.653	5.17
276.026	5.22
276.399	5.41
276.772	5.33
277.145	5.32
277.518	5.14
277.891	5.11
278.263	5.12
278.636	5.28
279.009	5.12
279.382	5.06
279.755	5.01
280.127	4.91
280.5	4.66
280.872	4.55
281.245	4.66
281.617	4.64
281.99	4.69
282.362	4.59
282.735	4.54
283.107	4.43
283.479	4.4
283.852	4.35
284.224	4.4
284.596	4.52
284.968	4.59
285.34	4.55
285.713	4.63
286.085	4.65
286.457	4.52
286.829	4.65
287.201	4.65
287.572	4.81
287.944	4.82
288.316	4.93
288.688	5.04
289.06	4.94
289.431	5.04
289.803	5.07
290.175	5.13
290.546	5.29
290.918	5.33
291.289	5.29
291.661	5.3
292.032	5.11
292.403	5.04
292.775	5.22
293.146	5.28
293.517	5.07
293.889	5.01
294.26	5
294.631	5.01
295.002	5.02
295.373	5.04
295.744	5.01
296.115	5.04
296.486	4.98
296.857	5.12
297.228	5.05
297.599	4.96
297.97	4.95
298.34	4.89
298.711	4.9
299.082	4.86
299.452	4.88
299.823	4.93
300.194	4.87
300.564	4.6
300.935	4.67
301.305	4.61
301.676	4.56
302.046	4.61
302.416	4.49
302.787	4.44
303.157	4.24
303.527	4.39
303.897	4.37
304.267	4.26
304.637	4.12
305.008	4.07
305.378	4.06
305.748	4.1
306.117	4.2
306.487	4.18
306.857	4.33
307.227	4.34
307.597	4.34
307.967	4.45
308.336	4.47
308.706	4.43
309.076	4.61
309.445	4.69
309.815	4.65
310.184	4.61
310.554	4.59
310.923	4.69
311.293	4.58
311.662	4.56
312.031	4.59
312.401	4.69
312.77	4.59
313.139	4.68
313.508	4.6
313.877	4.5
314.246	4.49
314.616	4.47
314.985	4.4
315.353	4.48
315.722	4.42
316.091	4.4
316.46	4.3
316.829	4.38
317.198	4.2
317.567	4.42
317.935	4.43
318.304	4.54
318.672	4.53
319.041	4.58
319.41	4.64
319.778	4.78
320.147	4.77
320.515	5
320.883	5.15
321.252	5.12
321.62	5.29
321.988	5.29
322.357	5.39
322.725	5.57
323.093	5.47
323.461	5.44
323.829	5.49
324.197	5.62
324.565	5.49
324.933	5.58
325.301	5.44
325.669	5.62
326.037	5.54
326.405	5.66
326.772	5.7
327.14	5.73
327.508	5.62
327.875	5.6
328.243	5.62
328.61	5.41
328.978	5.51
329.346	5.49
329.713	5.51
330.08	5.58
330.448	5.35
330.815	5.4
331.182	5.39
331.55	5.35
331.917	5.29
332.284	5.51
332.651	5.53
333.018	5.43
333.385	5.35
333.752	5.34
334.119	5.3
334.486	5.27
334.853	5.32
335.22	5.31
335.587	5.31
335.954	5.22
336.32	5.29
336.687	5.27
337.054	5.2
337.42	5.24
337.787	5.16
338.153	5.31
338.52	5.42
338.886	5.42
339.253	5.44
339.619	5.53
339.986	5.31
340.352	5.35
340.718	5.37
341.084	5.3
341.451	5.35
341.817	5.27
342.183	5.28
342.549	5.23
342.915	5.28
343.281	5.3
343.647	5.34
344.013	5.31
344.379	5.24
344.745	5.29
345.11	5.17
345.476	5.1
345.842	5.06
346.208	5
346.573	5.03
346.939	5.06
347.304	4.93
347.67	4.96
348.035	4.91
348.401	4.94
348.766	4.97
349.132	5.04
349.497	5.06
349.862	4.97
350.228	4.91
350.593	4.92
350.958	4.92
351.323	4.9
351.688	4.95
352.053	4.95
352.418	5
352.783	5.06
353.148	5.1
353.513	5.1
353.878	5.08
354.243	4.95
354.608	4.9
354.972	4.95
355.337	4.89
355.702	4.87
356.066	4.89
356.431	4.92
356.795	4.85
357.16	4.9
357.524	4.92
357.889	4.92
358.253	4.89
358.618	4.84
358.982	4.86
359.346	4.81
359.71	4.79
360.075	4.65
360.439	4.66
360.803	4.67
361.167	4.69
361.531	4.69
361.895	4.79
362.259	4.83
362.623	4.85
362.987	4.9
363.351	4.9
363.714	4.87
364.078	4.83
364.442	4.75
364.806	4.71
365.169	4.74
365.533	4.75
365.896	4.78
366.26	4.74
366.623	4.75
366.987	4.81
367.35	4.89
367.714	4.95
368.077	4.94
368.44	4.96
368.803	4.88
369.167	4.81
369.53	4.87
369.893	4.83
370.256	4.84
370.619	4.79
370.982	4.82
371.345	4.79
371.708	4.79
372.071	4.85
372.434	4.77
372.797	4.76
373.159	4.73
373.522	4.68
373.885	4.75
374.247	4.67
374.61	4.62
374.973	4.54
375.335	4.6
375.698	4.57
376.06	4.54
376.423	4.59
376.785	4.59
377.147	4.51
377.51	4.51
377.872	4.5
378.234	4.54
378.596	4.51
378.958	4.56
379.321	4.5
379.683	4.55
380.045	4.56
380.407	4.53
380.769	4.46
381.13	4.48
381.492	4.49
381.854	4.51
382.216	4.56
382.578	4.6
382.939	4.55
383.301	4.55
383.663	4.57
384.024	4.55
384.386	4.55
384.747	4.49
385.109	4.55
385.47	4.56
385.832	4.52
386.193	4.54
386.554	4.45
386.916	4.49
387.277	4.46
387.638	4.49
387.999	4.48
388.36	4.53
388.721	4.53
389.082	4.47
389.443	4.48
389.804	4.43
390.165	4.44
390.526	4.42
390.887	4.43
391.248	4.41
391.609	4.43
391.969	4.45
392.33	4.48
392.691	4.46
393.051	4.43
393.412	4.48
393.772	4.48
394.133	4.51
394.493	4.51
394.854	4.47
395.214	4.45
395.574	4.45
395.935	4.44
396.295	4.43
396.655	4.46
397.015	4.45
397.376	4.44
397.736	4.42
398.096	4.46
398.456	4.44
398.816	4.46
399.176	4.41
399.535	4.4
399.895	4.38
400.255	4.35
400.615	4.34
400.975	4.29
401.334	4.32
401.694	4.34
402.054	4.34
402.413	4.36
402.773	4.38
403.132	4.39
403.492	4.4
403.851	4.41
404.211	4.4
404.57	4.4
404.929	4.37
405.288	4.36
405.648	4.36
406.007	4.36
406.366	4.36
406.725	4.36
407.084	4.38
407.443	4.4
407.802	4.41
408.161	4.45
408.52	4.46
408.879	4.41
409.238	4.42
409.596	4.42
409.955	4.41
410.314	4.4
410.673	4.37
411.031	4.35
411.39	4.34
411.748	4.34
412.107	4.34
412.465	4.34
412.824	4.38
413.182	4.38
413.54	4.38
413.899	4.37
414.257	4.39
414.615	4.37
414.974	4.37
415.332	4.36
415.69	4.36
416.048	4.35
416.406	4.34
416.764	4.35
417.122	4.34
417.48	4.33
417.838	4.35
418.195	4.35
418.553	4.34
418.911	4.34
419.269	4.33
419.626	4.31
419.984	4.32
420.342	4.31
420.699	4.29
421.057	4.29
421.414	4.29
421.772	4.28
422.129	4.27
422.486	4.29
422.844	4.27
423.201	4.26
423.558	4.26
423.915	4.26
424.273	4.24
424.63	4.25
424.987	4.27
425.344	4.24
425.701	4.24
426.058	4.24
426.415	4.24
426.772	4.23
427.128	4.24
427.485	4.24
427.842	4.23
428.199	4.24
428.555	4.23
428.912	4.22
429.269	4.21
429.625	4.19
429.982	4.18
430.338	4.2
430.695	4.18
431.051	4.2
431.407	4.21
431.764	4.22
432.12	4.2
432.476	4.21
432.832	4.21
433.189	4.21
433.545	4.21
433.901	4.22
434.257	4.24
434.613	4.25
434.969	4.22
435.325	4.22
435.681	4.21
436.036	4.22
436.392	4.23
436.748	4.26
437.104	4.27
437.459	4.25
437.815	4.26
438.171	4.28
438.526	4.26
438.882	4.27
439.237	4.24
439.593	4.25
439.948	4.23
440.304	4.24
440.659	4.26
441.014	4.24
441.369	4.24
441.725	4.24
442.08	4.23
442.435	4.25
442.79	4.26
443.145	4.28
443.5	4.26
443.855	4.25
444.21	4.24
444.565	4.24
444.92	4.25
445.275	4.25
445.629	4.23
445.984	4.24
446.339	4.24
446.693	4.26
447.048	4.25
447.403	4.25
447.757	4.25
448.112	4.23
448.466	4.25
448.82	4.24
449.175	4.23
449.529	4.24
449.883	4.24
450.238	4.23
450.592	4.22
450.946	4.21
451.3	4.23
451.654	4.21
452.008	4.24
452.362	4.22
452.716	4.21
453.07	4.21
453.424	4.21
453.778	4.19
454.132	4.17
454.486	4.16
454.839	4.17
455.193	4.17
455.547	4.18
455.9	4.18
456.254	4.19
456.607	4.19
456.961	4.18
457.314	4.2
457.668	4.21
458.021	4.2
458.375	4.2
458.728	4.2
459.081	4.21
459.434	4.2
459.787	4.21
460.141	4.2
460.494	4.22
460.847	4.22
461.2	4.23
461.553	4.25
461.906	4.26
462.259	4.27
462.611	4.28
462.964	4.27
463.317	4.29
463.67	4.29
464.022	4.3
464.375	4.31
464.728	4.33
465.08	4.35
465.433	4.35
465.785	4.37
466.138	4.39
466.49	4.4
466.843	4.42
467.195	4.42
467.547	4.45
467.899	4.45
468.252	4.45
468.604	4.47
468.956	4.48
469.308	4.49
469.66	4.51
470.012	4.5
470.364	4.54
470.716	4.53
471.068	4.54
471.42	4.53
471.772	4.53
472.123	4.51
472.475	4.5
472.827	4.5
473.178	4.49
473.53	4.47
473.882	4.47
474.233	4.45
474.585	4.45
474.936	4.45
475.288	4.42
475.639	4.43
475.99	4.41
476.342	4.4
476.693	4.4
477.044	4.37
477.395	4.37
477.746	4.35
478.097	4.35
478.448	4.34
478.8	4.32
479.15	4.31
479.501	4.3
479.852	4.3
480.203	4.32
480.554	4.33
480.905	4.34
481.255	4.35
481.606	4.36
481.957	4.37
482.307	4.37
482.658	4.38
483.009	4.38
483.359	4.38
483.709	4.39
484.06	4.38
484.41	4.39
484.761	4.41
485.111	4.4
485.461	4.4
485.811	4.41
486.162	4.42
486.512	4.43
486.862	4.43
487.212	4.44
487.562	4.42
487.912	4.42
488.262	4.42
488.612	4.42
488.961	4.42
489.311	4.41
489.661	4.41
490.011	4.4
490.36	4.4
490.71	4.41
491.06	4.41
491.409	4.42
491.759	4.43
492.108	4.41
492.458	4.41
492.807	4.43
493.157	4.44
493.506	4.44
493.855	4.46
494.204	4.47
494.554	4.48
494.903	4.49
495.252	4.5
495.601	4.51
495.95	4.51
496.299	4.51
496.648	4.53
496.997	4.54
497.346	4.56
497.695	4.57
498.043	4.58
498.392	4.57
498.741	4.58
499.09	4.59
499.438	4.6
499.787	4.61
500.135	4.6
500.484	4.59
500.832	4.59
501.181	4.6
501.529	4.61
501.878	4.63
502.226	4.65
502.574	4.68
502.923	4.68
503.271	4.67
503.619	4.68
503.967	4.65
504.315	4.67
504.663	4.68
505.011	4.68
505.359	4.67
505.707	4.66
506.055	4.66
506.403	4.65
506.751	4.65
507.098	4.66
507.446	4.66
507.794	4.67
508.141	4.68
508.489	4.69
508.837	4.68
509.184	4.68
509.531	4.69
509.879	4.69
510.226	4.7
510.574	4.72
510.921	4.73
511.268	4.74
511.616	4.76
511.963	4.78
512.31	4.78
512.657	4.8
513.004	4.81
513.351	4.81
513.698	4.82
514.045	4.84
514.392	4.85
514.739	4.85
515.086	4.86
515.432	4.87
515.779	4.87
516.126	4.88
516.473	4.88
516.819	4.87
517.166	4.87
517.512	4.88
517.859	4.9
518.205	4.91
518.552	4.92
518.898	4.91
519.245	4.9
519.591	4.9
519.937	4.9
520.283	4.91
520.629	4.91
520.976	4.92
521.322	4.91
521.668	4.92
522.014	4.93
522.36	4.92
522.706	4.92
523.052	4.92
523.398	4.91
523.743	4.9
524.089	4.93
524.435	4.94
524.781	4.94
525.126	4.92
525.472	4.94
525.817	4.93
526.163	4.92
526.509	4.93
526.854	4.94
527.199	4.95
527.545	4.96
527.89	4.97
528.235	4.97
528.581	4.98
528.926	4.98
529.271	4.99
529.616	4.99
529.961	5
530.306	5
530.651	5.01
530.996	5.02
531.341	5.02
531.686	5.02
532.031	5.02
532.376	5.03
532.721	5.02
533.065	5.03
533.41	5.04
533.755	5.04
534.099	5.05
534.444	5.05
534.788	5.06
535.133	5.05
535.477	5.06
535.822	5.05
536.166	5.07
536.51	5.07
536.855	5.08
537.199	5.07
537.543	5.07
537.887	5.08
538.231	5.08
538.576	5.08
538.92	5.08
539.264	5.07
539.608	5.07
539.951	5.09
540.295	5.1
540.639	5.11
540.983	5.11
541.327	5.12
541.671	5.13
542.014	5.12
542.358	5.12
542.701	5.12
543.045	5.12
543.389	5.11
543.732	5.12
544.075	5.13
544.419	5.14
544.762	5.14
545.105	5.16
545.449	5.17
545.792	5.17
546.135	5.17
546.478	5.2
546.821	5.2
547.165	5.22
547.508	5.24
547.851	5.24
548.194	5.23
548.536	5.21
548.879	5.19
549.222	5.2
549.565	5.22
549.908	5.21
550.25	5.22
550.593	5.21
550.936	5.22
551.278	5.22
551.621	5.21
551.963	5.22
552.306	5.21
552.648	5.21
552.991	5.24
553.333	5.24
553.675	5.24
554.017	5.22
554.36	5.2
554.702	5.19
555.044	5.17
555.386	5.22
555.728	5.25
556.07	5.25
556.412	5.24
556.754	5.2
557.096	5.23
557.438	5.25
557.78	5.26
558.121	5.26
558.463	5.25
558.805	5.28
559.147	5.3
559.488	5.26
559.83	5.25
560.171	5.21
560.513	5.24
560.854	5.22
561.196	5.27
561.537	5.29
561.878	5.3
562.22	5.31
562.561	5.31
562.902	5.32
563.243	5.35
563.584	5.38
563.925	5.42
564.266	5.4
564.607	5.42
564.948	5.42
565.289	5.44
565.63	5.44
565.971	5.44
566.312	5.41
566.653	5.44
566.993	5.43
567.334	5.46
567.675	5.46
568.015	5.45
568.356	5.42
568.696	5.41
569.037	5.38
569.377	5.39
569.718	5.39
570.058	5.37
570.398	5.34
570.739	5.33
571.079	5.31
571.419	5.32
571.759	5.3
572.099	5.28
572.439	5.28
572.779	5.28
573.119	5.29
573.459	5.33
573.799	5.33
574.139	5.37
574.479	5.36
574.819	5.36
575.158	5.42
575.498	5.45
575.838	5.44
576.177	5.45
576.517	5.46
576.856	5.43
577.196	5.41
577.535	5.39
577.875	5.4
578.214	5.41
578.553	5.41
578.893	5.43
579.232	5.47
579.571	5.5
579.91	5.51
580.25	5.5
580.589	5.48
580.928	5.48
581.267	5.45
581.606	5.49
581.945	5.47
582.283	5.43
582.622	5.4
582.961	5.42
583.3	5.44
583.639	5.41
583.977	5.46
584.316	5.52
584.654	5.57
584.993	5.55
585.332	5.58
585.67	5.58
586.008	5.58
586.347	5.57
586.685	5.54
587.024	5.54
587.362	5.53
587.7	5.53
588.038	5.56
588.376	5.57
588.715	5.56
589.053	5.59
589.391	5.6
589.729	5.63
590.067	5.61
590.404	5.62
590.742	5.6
591.08	5.59
591.418	5.62
591.756	5.63
592.093	5.63
592.431	5.61
592.769	5.64
593.106	5.61
593.444	5.61
593.781	5.63
594.119	5.63
594.456	5.63
594.793	5.61
595.131	5.57
595.468	5.58
595.805	5.61
596.143	5.6
596.48	5.63
596.817	5.61
597.154	5.65
597.491	5.67
597.828	5.71
598.165	5.69
598.502	5.63
598.839	5.61
599.176	5.69
599.512	5.69
599.849	5.7
600.186	5.68
600.523	5.72
600.859	5.71
601.196	5.71
601.532	5.71
601.869	5.74
602.205	5.75
602.542	5.75
602.878	5.74
603.215	5.75
603.551	5.73
603.887	5.75
604.223	5.73
604.56	5.7
604.896	5.72
605.232	5.71
605.568	5.73
605.904	5.71
606.24	5.69
606.576	5.71
606.912	5.69
607.248	5.73
607.583	5.73
607.919	5.71
608.255	5.72
608.591	5.72
608.926	5.72
609.262	5.72
609.597	5.7
609.933	5.69
610.268	5.7
610.604	5.68
610.939	5.67
611.275	5.68
611.61	5.71
611.945	5.68
612.281	5.7
612.616	5.69
612.951	5.73
613.286	5.71
613.621	5.75
613.956	5.81
614.291	5.81
614.626	5.78
614.961	5.82
615.296	5.82
615.631	5.89
615.966	5.88
616.3	5.92
616.635	5.96
616.97	5.94
617.304	6
617.639	6.05
617.973	6.06
618.308	6.08
618.642	6.06
618.977	6.09
619.311	6.15
619.646	6.25
619.98	6.26
620.314	6.26
620.648	6.23
620.983	6.18
621.317	6.14
621.651	6.2
621.985	6.18
622.319	6.17
622.653	6.16
622.987	6.18
623.321	6.14
623.655	6.16
623.988	6.19
624.322	6.15
624.656	6.16
624.99	6.13
625.323	6.16
625.657	6.19
625.99	6.2
626.324	6.17
626.657	6.12
626.991	6.08
627.324	6.08
627.658	6.08
627.991	6.12
628.324	6.14
628.657	6.14
628.991	6.14
629.324	6.17
629.657	6.15
629.99	6.11
630.323	6.08
630.656	6.09
630.989	6.09
631.322	6.08
631.655	6.03
631.987	6.03
632.32	6
632.653	5.99
632.986	5.97
633.318	5.99
633.651	5.95
633.984	6.03
634.316	6.07
634.649	6.02
634.981	5.97
635.313	6.02
635.646	6.01
635.978	6.05
636.31	6.06
636.643	6.04
636.975	6.11
637.307	6.17
637.639	6.14
637.971	6.18
638.303	6.13
638.635	6.17
638.967	6.19
639.299	6.2
639.631	6.19
639.963	6.21
640.295	6.22
640.626	6.25
640.958	6.2
641.29	6.21
641.621	6.27
641.953	6.34
642.285	6.29
642.616	6.32
642.948	6.3
643.279	6.26
643.61	6.32
643.942	6.38
644.273	6.38
644.604	6.44
644.936	6.43
645.267	6.49
645.598	6.52
645.929	6.45
646.26	6.5
646.591	6.52
646.922	6.57
647.253	6.52
647.584	6.6
647.915	6.65
648.245	6.64
648.576	6.68
648.907	6.69
649.238	6.69
649.568	6.63
649.899	6.63
650.229	6.68
650.56	6.63
650.89	6.6
651.221	6.6
651.551	6.56
651.882	6.54
652.212	6.48
652.542	6.47
652.872	6.56
653.203	6.53
653.533	6.59
653.863	6.58
654.193	6.65
654.523	6.57
654.853	6.55
655.183	6.6
655.513	6.59
655.843	6.56
656.172	6.56
656.502	6.6
656.832	6.56
657.162	6.55
657.491	6.56
657.821	6.56
658.15	6.57
658.48	6.58
658.809	6.62
659.139	6.67
659.468	6.64
659.798	6.68
660.127	6.66
660.456	6.58
660.785	6.55
661.115	6.53
661.444	6.56
661.773	6.56
662.102	6.51
662.431	6.46
662.76	6.48
663.089	6.55
663.418	6.52
663.747	6.59
664.076	6.63
664.404	6.7
664.733	6.66
665.062	6.67
665.39	6.65
665.719	6.67
666.048	6.63
666.376	6.67
666.705	6.62
667.033	6.72
667.362	6.82
667.69	6.85
668.018	6.88
668.347	6.93
668.675	6.89
669.003	6.97
669.331	7
669.659	7.03
669.987	7
670.315	7.09
670.643	7.07
670.971	7.12
671.299	7.05
671.627	7.13
671.955	7.16
672.283	7.21
672.61	7.21
672.938	7.26
673.266	7.26
673.593	7.32
673.921	7.22
674.249	7.12
674.576	7.13
674.904	7.14
675.231	7.15
675.558	7.24
675.886	7.27
676.213	7.29
676.54	7.28
676.867	7.21
677.195	7.15
677.522	7.14
677.849	7.12
678.176	7.2
678.503	7.16
678.83	7.16
679.157	7.18
679.484	7.09
679.81	7.12
680.137	7.2
680.464	7.22
680.791	7.31
681.117	7.36
681.444	7.37
681.771	7.36
682.097	7.36
682.424	7.26
682.75	7.28
683.077	7.31
683.403	7.34
683.729	7.44
684.056	7.46
684.382	7.57
684.708	7.44
685.034	7.43
685.36	7.43
685.686	7.46
686.012	7.47
686.339	7.52
686.664	7.53
686.99	7.41
687.316	7.33
687.642	7.28
687.968	7.29
688.294	7.34
688.619	7.33
688.945	7.37
689.271	7.42
689.596	7.32
689.922	7.28
690.247	7.3
690.573	7.3
690.898	7.37
691.224	7.37
691.549	7.51
691.874	7.64
692.2	7.65
692.525	7.68
692.85	7.67
693.175	7.74
693.5	7.68
693.825	7.77
694.15	7.8
694.475	7.77
694.8	7.77
695.125	7.74
695.45	7.73
695.775	7.72
696.099	7.81
696.424	7.86
696.749	7.94
697.073	7.88
697.398	7.86
697.723	7.79
698.047	7.77
698.372	7.81
698.696	7.66
699.02	7.69
699.345	7.62
699.669	7.58
699.993	7.55
700.318	7.7
700.642	7.73
700.966	7.8
701.29	7.95
701.614	7.96
701.938	7.99
702.262	8.03
702.586	7.96
702.91	7.91
703.234	7.89
703.557	7.89
703.881	8
704.205	7.98
704.529	8.06
704.852	8.14
705.176	8.2
705.499	8.24
705.823	8.39
706.146	8.58
706.47	8.64
706.793	8.81
707.117	8.66
707.44	8.59
707.763	8.63
708.086	8.51
708.409	8.63
708.733	8.63
709.056	8.74
709.379	8.85
709.702	8.77
710.025	8.87
710.348	8.82
710.671	8.77
710.993	8.8
711.316	8.78
711.639	8.78
711.962	8.79
712.284	8.88
712.607	8.79
712.93	8.65
713.252	8.72
713.575	8.57
713.897	8.57
714.22	8.65
714.542	8.59
714.864	8.58
715.187	8.4
715.509	8.37
715.831	8.23
716.153	8.26
716.475	8.46
716.798	8.43
717.12	8.4
717.442	8.41
717.764	8.42
718.085	8.53
718.407	8.52
718.729	8.46
719.051	8.43
719.373	8.52
719.695	8.59
720.016	8.53
720.338	8.59
720.659	8.8
720.981	8.72
721.302	8.9
721.624	8.98
721.945	9.12
722.267	9.1
722.588	9.32
722.909	9.21
723.231	9.1
723.552	9.11
723.873	9.36
724.194	9.33
724.515	9.37
724.836	9.19
725.157	9.17
725.478	9.04
725.799	9.04
726.12	8.85
726.441	8.91
726.762	8.95
727.083	8.94
727.403	8.89
727.724	8.98
728.045	8.77
728.365	8.62
728.686	8.66
729.006	8.81
729.327	8.73
729.647	8.74
729.967	8.81
730.288	8.87
730.608	8.75
730.928	8.84
731.249	8.78
731.569	8.82
731.889	8.7
732.209	8.79
732.529	8.88
732.849	8.94
733.169	8.84
733.489	8.76
733.809	8.73
734.129	8.59
734.448	8.74
734.768	8.71
735.088	8.88
735.408	8.85
735.727	8.87
736.047	8.9
736.366	9.01
736.686	8.92
737.005	8.85
737.325	9.01
737.644	8.9
737.963	8.94
738.283	9.06
738.602	9.3
738.921	9.36
739.24	9.29
739.56	9.43
739.879	9.48
740.198	9.74
740.517	9.78
740.836	10.05
741.155	9.97
741.473	10.1
741.792	10.01
742.111	10
742.43	9.89
742.748	10
743.067	10.02
743.386	9.9
743.704	9.87
744.023	9.81
744.341	10.12
744.66	10.05
744.978	9.92
745.297	9.49
745.615	9.55
745.933	9.67
746.252	9.72
746.57	9.51
746.888	9.33
747.206	9.36
747.524	9.19
747.842	8.94
748.16	9.15
748.478	9.19
748.796	9.23
749.114	9.36
749.432	9.24
749.749	9.49
750.067	9.66
750.385	9.81
750.703	9.83
751.02	9.55
751.338	9.7
751.655	10.02
751.973	10.36
752.29	10.13
752.608	9.88
752.925	9.91
753.242	10.26
753.56	10.42
753.877	10.42
754.194	10.55
754.511	10.61
754.828	10.33
755.145	10.51
755.462	10.83
755.779	10.78
756.096	10.85
756.413	10.65
756.73	10.68
757.047	10.59
757.364	10.31
757.68	10.37
757.997	10.36
758.314	10.35
758.63	10.45
758.947	10.57
759.264	10.79
759.58	10.5
759.896	10.43
760.213	10.41
760.529	10.44
760.846	10.53
761.162	10.49
761.478	10.58
761.794	10.39
762.11	10.26
762.426	9.91
762.743	9.97
763.059	10
763.375	10.13
763.69	10.12
764.006	10.11
764.322	10.24
764.638	10.42
764.954	10.32
765.27	10.48
765.585	10.58
765.901	10.44
766.216	10.62
766.532	10.69
766.848	10.68
767.163	10.62
767.478	10.52
767.794	10.81
768.109	10.86
768.424	10.93
768.74	10.86
769.055	11.45
769.37	11.27
769.685	11.2
770	10.86
770.315	10.74
770.63	10.98
770.945	11.06
771.26	10.89
771.575	10.75
771.89	10.53
772.205	10.54
772.52	10.81
772.834	10.82
773.149	10.61
773.464	10.39
773.778	10.51
774.093	10.25
774.407	10.29
774.722	10.26
775.036	10.3
775.351	10.32
775.665	10.43
775.979	10.65
776.293	10.74
776.608	11.01
776.922	11.37
777.236	11.43
777.55	11.13
777.864	11.09
778.178	11.03
778.492	11
778.806	11.2
779.12	11.14
779.434	11.2
779.747	11.37
780.061	11.63
780.375	11.6
780.689	11.76
781.002	11.46
781.316	11.42
781.629	11.6
781.943	11.73
782.256	11.13
782.57	11.18
782.883	11.31
783.196	11.43
783.51	11.2
783.823	11.15
784.136	10.97
784.449	11.23
784.762	11.78
785.075	11.68
785.388	11.67
785.701	11.79
786.014	11.27
786.327	11.46
786.64	11.57
786.953	11.66
787.266	12.1
787.578	12.37
787.891	12.32
788.204	11.97
788.516	11.97
788.829	12.39
789.141	12.62
789.454	12.85
789.766	13.15
790.079	13.4
790.391	13.36
790.703	14.03
791.016	14.16
791.328	13.87
791.64	13.82
791.952	14.09
792.264	14.01
792.576	14.38
792.888	14.17
793.2	14.23
793.512	14.44
793.824	14.48
794.136	14.3
794.448	14.53
794.76	15.13
795.071	14.9
795.383	15.08
795.695	15.16
796.006	14.59
796.318	14.27
796.629	14.17
796.941	14.32
797.252	14.05
797.564	13.9
797.875	14.17
798.186	14.5
798.497	13.85
798.809	13.58
799.12	13.74
799.431	13.64
799.742	13.55
800.053	13.25
800.364	13.11
800.675	13.15
800.986	13.52
801.297	13.13
801.608	12.86
801.918	12.66
802.229	12.57
802.54	12.91
802.851	12.63
803.161	12.35
803.472	12.1
803.782	11.98
804.093	11.5
804.403	11.58
804.714	11.79
805.024	12.45
805.334	12.52
805.645	12.33
805.955	12.76
806.265	12.94
806.575	13.5
806.885	13.84
807.195	13.99
807.505	13.55
807.815	13.24
808.125	13.62
808.435	13.95
808.745	14.1
809.055	14.6
809.365	15.21
809.674	15.59
809.984	15.62
810.294	16.25
810.603	16.41
810.913	16.12
811.222	15.92
811.532	15.65
811.841	16.55
812.151	16.85
812.46	17.03
812.769	16.84
813.079	16.71
813.388	16.49
813.697	16.34
814.006	15.94
814.315	17.08
814.624	17.47
814.933	16.99
815.242	16.41
815.551	16.59
815.86	16.75
816.169	16.57
816.478	16.6
816.786	15.66
817.095	16.07
817.404	16.14
817.712	16.18
818.021	15.76
818.33	15.07
818.638	15.11
818.947	14.71
819.255	14.75
819.563	14.62
819.872	14.05
820.18	14.32
820.488	14.45
820.796	14.32
821.105	14.25
821.413	14.16
821.721	14.17
822.029	13.9
822.337	13.72
822.645	13.63
822.953	13.8
823.26	13.86
823.568	13.78
823.876	13.78
824.184	13.65
824.491	13.7
824.799	13.78
825.107	13.67
825.414	13.72
825.722	13.55
826.029	13.62
826.337	13.98
826.644	13.93
826.951	13.91
827.259	13.95
827.566	13.91
827.873	13.97
828.18	14.03
828.488	13.99
828.795	14.22
829.102	14.58
829.409	14.58
829.716	14.77
830.023	14.91
830.329	14.91
830.636	15.3
830.943	15.64
831.25	15.72
831.557	15.87
831.863	15.95
832.17	16.49
832.476	16.21
832.783	15.97
833.089	16.09
833.396	16.17
833.702	15.89
834.009	15.81
834.315	15.82
834.621	15.88
834.928	16.21
835.234	16.1
835.54	15.93
835.846	15.96
836.152	16.11
836.458	16.07
836.764	16.38
837.07	16.16
837.376	15.46
837.682	15.05
837.988	15.18
838.293	15.28
838.599	15.75
838.905	16.16
839.211	15.99
839.516	15.67
839.822	16.73
840.127	16.56
840.433	17.36
840.738	18.3
841.044	17.85
841.349	18.58
841.654	18.43
841.959	19.11
842.265	18.8
842.57	18.47
842.875	18.76
843.18	19.88
843.485	20.86
843.79	22.07
844.095	23.12
844.4	23.44
844.705	23.55
845.01	23.01
845.315	23.29
845.619	24.72
845.924	25.93
846.229	25.53
846.533	25.36
846.838	24.81
847.142	23.08
847.447	24.8
847.751	25.14
848.056	25.38
848.36	24.84
848.664	25.9
848.969	26.53
849.273	26.46
849.577	26.09
849.881	24.82
850.185	24.42
850.489	24.45
850.794	24.96
851.097	26.72
851.401	26.38
851.705	27.58
852.009	27.1
852.313	25.86
852.617	26.45
852.92	28.84
853.224	29.67
853.528	32.19
853.831	32.98
854.135	31.75
854.438	32.32
854.742	32.71
855.045	32.16
855.349	32.6
855.652	32.65
855.955	30.62
856.259	31.59
856.562	32.7
856.865	33.27
857.168	33.38
857.471	30.81
857.774	32.78
858.077	32.15
858.38	31.63
858.683	30.77
858.986	29.33
859.289	29.75
859.592	30.31
859.894	29.72
860.197	29.15
860.5	29.69
860.802	31.07
861.105	31.5
861.407	32.78
861.71	33.08
862.012	33.3
862.315	33
862.617	31.91
862.919	32.12
863.222	32.17
863.524	29.45
863.826	30.85
864.128	28.58
864.43	28.5
864.732	28.04
865.034	31.12
865.336	31.27
865.638	30.84
865.94	31.19
866.242	32.1
866.544	34.44
866.846	32.53
867.147	32.83
867.449	32.42
867.751	31.87
868.052	29.12
868.354	29.67
868.655	28.97
868.957	29.99
869.258	28.22
869.56	27.66
869.861	28.72
870.162	26.9
870.463	26.11
870.765	25.48
871.066	25.68
871.367	22.16
871.668	22.5
871.969	20.99
872.27	19.3
872.571	18.53
872.872	14.47
873.173	13.2
873.473	10.31
873.774	10.79
874.075	10.52
874.376	12.84
874.676	13.16
874.977	14.69
875.277	14.96
875.578	16.62
875.878	16.79
876.179	17.57
876.479	18.91
876.78	19.75
877.08	19.43
877.38	19.52
877.68	22.46
877.981	21.67
878.281	23.56
878.581	25.28
