Data from BA48648_Reflection_00010.txt Node
Date: Tue Nov 19 11:44:41 EST 2019
User: vgr7
Spectrometer: USB2G7710
Scans to average: 3
Trigger mode: 4
Integration Time (sec): 2.000000E-2
Electric dark correction enabled: true
Boxcar width: 10
XAxis mode: Wavelengths
Number of Pixels in Spectrum: 2048
>>>>>Begin Spectral Data<<<<<
177.721	9.57
178.105	74.72
178.488	152.7
178.871	135.29
179.254	110.17
179.636	177.92
180.019	424.32
180.402	-100
180.785	-500
181.168	645.45
181.55	382.51
181.933	980.73
182.316	1661.64
182.698	369.1
183.081	-697.69
183.463	-155.02
183.846	-267.35
184.228	-211.43
184.611	-123.6
184.993	-74.34
185.376	-58.74
185.758	-48.86
186.14	-65.32
186.522	-60.51
186.904	-52.58
187.287	-50.06
187.669	-48.7
188.051	-31.86
188.433	-36.56
188.815	-29.01
189.197	-20.75
189.579	-14.5
189.961	-11.63
190.342	-5.96
190.724	-10.05
191.106	-9.89
191.488	-13.58
191.869	4.87
192.251	13.17
192.633	15.26
193.014	4.46
193.396	12.8
193.777	19.78
194.159	20.1
194.54	23.46
194.922	27.03
195.303	31.09
195.684	38.39
196.065	27
196.447	37.78
196.828	32.56
197.209	34.08
197.59	36.54
197.971	30.53
198.352	19.23
198.733	15.46
199.114	19.53
199.495	16.19
199.876	4.54
200.257	0.88
200.638	-13.68
201.018	-20.74
201.399	-29.22
201.78	-27.32
202.16	-33.06
202.541	-44.22
202.922	-36.31
203.302	-29.96
203.683	-32.79
204.063	-28.9
204.444	-27.97
204.824	-22.94
205.204	-12.72
205.585	-13.55
205.965	-17.02
206.345	-7.18
206.725	-1.45
207.106	1.77
207.486	0.98
207.866	6.27
208.246	14.67
208.626	9.07
209.006	12.74
209.386	15.05
209.766	6.19
210.145	4.4
210.525	8.21
210.905	1.98
211.285	-5.98
211.664	-2.82
212.044	6.92
212.424	7.58
212.803	1.68
213.183	-10.43
213.562	-5.63
213.942	-4.68
214.321	-13.28
214.701	-21.22
215.08	-20.62
215.459	-13.42
215.838	-16.75
216.218	-29.83
216.597	-11.54
216.976	-6.98
217.355	-1.85
217.734	7.58
218.113	24.25
218.492	14.32
218.871	10.62
219.25	17.3
219.629	5.65
220.008	-12.26
220.387	-22.53
220.766	-15
221.144	3.06
221.523	-3.03
221.902	5.52
222.28	11.93
222.659	24.67
223.037	14.38
223.416	8.65
223.794	10.72
224.173	13.27
224.551	10.95
224.929	2.73
225.308	2.36
225.686	-2.98
226.064	-13.66
226.442	-10.1
226.821	-8.81
227.199	-8.89
227.577	-4.23
227.955	0.4
228.333	0.32
228.711	1.58
229.089	-0.44
229.467	0.4
229.845	-4.01
230.222	-4.3
230.6	-7.86
230.978	-7.1
231.356	-5.84
231.733	-5.88
232.111	-6.25
232.488	-8.49
232.866	-6.82
233.243	-7.62
233.621	-5.91
233.998	-3.01
234.376	-1.34
234.753	-1.61
235.13	-1.38
235.508	-2.01
235.885	-1.39
236.262	-1.21
236.639	-2.28
237.016	-2.51
237.393	-1.85
237.77	0.02
238.147	0.2
238.524	1.85
238.901	2.3
239.278	2.46
239.655	2.73
240.032	2.88
240.409	3.19
240.785	3.26
241.162	3.55
241.539	3.05
241.915	2.82
242.292	2.68
242.668	3.45
243.045	3.65
243.421	4.12
243.798	4.23
244.174	4.41
244.551	4.76
244.927	5.15
245.303	4.74
245.679	4.76
246.056	4.86
246.432	4.9
246.808	5.19
247.184	5.03
247.56	5.09
247.936	5
248.312	5.04
248.688	5.33
249.064	5.31
249.44	5.43
249.815	5.34
250.191	5.38
250.567	5.09
250.943	5.14
251.318	4.8
251.694	4.61
252.069	4.47
252.445	4.39
252.82	4.25
253.196	4.35
253.571	4.33
253.947	4.3
254.322	3.97
254.697	3.71
255.073	3.67
255.448	3.3
255.823	3.32
256.198	3.33
256.573	3.13
256.948	3.12
257.323	3.24
257.698	3.31
258.073	3.32
258.448	3.69
258.823	3.51
259.198	3.6
259.573	3.58
259.948	3.67
260.322	3.51
260.697	3.61
261.072	3.89
261.446	3.79
261.821	3.66
262.195	3.69
262.57	3.81
262.944	3.92
263.319	4.05
263.693	4.09
264.067	4.16
264.442	4.09
264.816	4.18
265.19	4.07
265.564	4.1
265.938	4.2
266.313	3.9
266.687	4.03
267.061	4.08
267.435	4.28
267.809	4.29
268.183	4.64
268.556	4.4
268.93	4.29
269.304	4.27
269.678	4.4
270.051	4.42
270.425	4.23
270.799	4.11
271.172	4
271.546	4.07
271.919	3.94
272.293	4.06
272.666	4
273.04	4.1
273.413	4.04
273.787	3.87
274.16	3.97
274.533	4.07
274.906	4.09
275.279	3.82
275.653	3.81
276.026	3.65
276.399	3.8
276.772	3.72
277.145	3.71
277.518	3.63
277.891	3.59
278.263	3.72
278.636	3.82
279.009	3.98
279.382	3.89
279.755	3.81
280.127	3.87
280.5	3.76
280.872	3.67
281.245	3.73
281.617	3.99
281.99	4
282.362	3.87
282.735	3.87
283.107	3.87
283.479	3.87
283.852	3.72
284.224	3.53
284.596	3.51
284.968	3.54
285.34	3.48
285.713	3.6
286.085	3.49
286.457	3.48
286.829	3.52
287.201	3.59
287.572	3.79
287.944	3.68
288.316	3.72
288.688	3.83
289.06	3.85
289.431	3.66
289.803	3.6
290.175	3.52
290.546	3.55
290.918	3.58
291.289	3.48
291.661	3.56
292.032	3.67
292.403	3.61
292.775	3.59
293.146	3.74
293.517	3.68
293.889	3.68
294.26	3.66
294.631	3.5
295.002	3.38
295.373	3.34
295.744	3.38
296.115	3.35
296.486	3.26
296.857	3.27
297.228	3.25
297.599	3.17
297.97	3.23
298.34	3.19
298.711	3.33
299.082	3.3
299.452	3.33
299.823	3.27
300.194	3.33
300.564	3.3
300.935	3.31
301.305	3.23
301.676	3.31
302.046	3.25
302.416	3.28
302.787	3.26
303.157	3.2
303.527	3.22
303.897	3.32
304.267	3.34
304.637	3.35
305.008	3.48
305.378	3.68
305.748	3.8
306.117	3.79
306.487	3.72
306.857	3.94
307.227	4.09
307.597	4.11
307.967	4.13
308.336	4.16
308.706	4.18
309.076	4.26
309.445	4.19
309.815	4.27
310.184	4.26
310.554	4.31
310.923	4.3
311.293	4.2
311.662	4.21
312.031	4.29
312.401	4.23
312.77	4.17
313.139	4.08
313.508	3.91
313.877	3.97
314.246	3.9
314.616	3.77
314.985	3.65
315.353	3.71
315.722	3.69
316.091	3.84
316.46	3.81
316.829	3.79
317.198	3.79
317.567	3.92
317.935	3.98
318.304	4.07
318.672	4.16
319.041	4.35
319.41	4.24
319.778	4.28
320.147	4.37
320.515	4.43
320.883	4.42
321.252	4.59
321.62	4.58
321.988	4.58
322.357	4.6
322.725	4.62
323.093	4.59
323.461	4.67
323.829	4.62
324.197	4.69
324.565	4.72
324.933	4.74
325.301	4.65
325.669	4.71
326.037	4.78
326.405	4.8
326.772	4.88
327.14	4.82
327.508	4.71
327.875	4.7
328.243	4.63
328.61	4.73
328.978	4.71
329.346	4.58
329.713	4.7
330.08	4.77
330.448	4.67
330.815	4.74
331.182	4.71
331.55	4.65
331.917	4.49
332.284	4.58
332.651	4.57
333.018	4.52
333.385	4.44
333.752	4.38
334.119	4.32
334.486	4.22
334.853	4.42
335.22	4.51
335.587	4.47
335.954	4.56
336.32	4.55
336.687	4.67
337.054	4.72
337.42	4.71
337.787	4.67
338.153	4.86
338.52	4.89
338.886	4.92
339.253	4.82
339.619	4.95
339.986	4.84
340.352	4.85
340.718	4.85
341.084	4.92
341.451	4.87
341.817	4.92
342.183	4.85
342.549	4.89
342.915	4.86
343.281	4.94
343.647	4.92
344.013	4.91
344.379	4.82
344.745	4.91
345.11	4.8
345.476	4.93
345.842	4.81
346.208	4.73
346.573	4.77
346.939	4.87
347.304	4.84
347.67	4.85
348.035	4.83
348.401	4.82
348.766	4.83
349.132	5.02
349.497	4.95
349.862	4.99
350.228	4.92
350.593	4.89
350.958	4.83
351.323	4.7
351.688	4.69
352.053	4.68
352.418	4.66
352.783	4.71
353.148	4.66
353.513	4.68
353.878	4.72
354.243	4.53
354.608	4.59
354.972	4.54
355.337	4.56
355.702	4.63
356.066	4.68
356.431	4.61
356.795	4.5
357.16	4.54
357.524	4.58
357.889	4.54
358.253	4.54
358.618	4.59
358.982	4.61
359.346	4.63
359.71	4.65
360.075	4.65
360.439	4.68
360.803	4.72
361.167	4.69
361.531	4.72
361.895	4.82
362.259	4.75
362.623	4.81
362.987	4.76
363.351	4.71
363.714	4.69
364.078	4.76
364.442	4.72
364.806	4.78
365.169	4.76
365.533	4.84
365.896	4.91
366.26	4.9
366.623	4.97
366.987	4.97
367.35	4.94
367.714	4.93
368.077	4.9
368.44	4.82
368.803	4.82
369.167	4.69
369.53	4.61
369.893	4.63
370.256	4.52
370.619	4.55
370.982	4.53
371.345	4.55
371.708	4.51
372.071	4.47
372.434	4.41
372.797	4.36
373.159	4.31
373.522	4.17
373.885	4.19
374.247	4.1
374.61	4.04
374.973	4.07
375.335	4.05
375.698	4.04
376.06	4.05
376.423	3.97
376.785	4.07
377.147	4.06
377.51	4.09
377.872	4.1
378.234	4.1
378.596	4.14
378.958	4.13
379.321	4.17
379.683	4.19
380.045	4.13
380.407	4.17
380.769	4.13
381.13	4.19
381.492	4.15
381.854	4.2
382.216	4.23
382.578	4.17
382.939	4.1
383.301	4.09
383.663	4.04
384.024	4.12
384.386	4.06
384.747	4.06
385.109	4.06
385.47	4.05
385.832	4.03
386.193	4
386.554	3.94
386.916	3.89
387.277	3.9
387.638	3.95
387.999	3.92
388.36	3.95
388.721	3.97
389.082	3.95
389.443	3.95
389.804	3.93
390.165	3.97
390.526	3.99
390.887	3.98
391.248	3.99
391.609	3.97
391.969	3.97
392.33	3.95
392.691	3.88
393.051	3.87
393.412	3.85
393.772	3.84
394.133	3.86
394.493	3.84
394.854	3.81
395.214	3.77
395.574	3.74
395.935	3.71
396.295	3.66
396.655	3.63
397.015	3.63
397.376	3.6
397.736	3.57
398.096	3.58
398.456	3.56
398.816	3.55
399.176	3.52
399.535	3.49
399.895	3.51
400.255	3.52
400.615	3.51
400.975	3.52
401.334	3.51
401.694	3.5
402.054	3.51
402.413	3.51
402.773	3.5
403.132	3.49
403.492	3.5
403.851	3.5
404.211	3.48
404.57	3.49
404.929	3.5
405.288	3.5
405.648	3.48
406.007	3.49
406.366	3.52
406.725	3.5
407.084	3.52
407.443	3.5
407.802	3.5
408.161	3.51
408.52	3.48
408.879	3.48
409.238	3.48
409.596	3.47
409.955	3.46
410.314	3.51
410.673	3.52
411.031	3.51
411.39	3.51
411.748	3.53
412.107	3.5
412.465	3.51
412.824	3.5
413.182	3.49
413.54	3.5
413.899	3.47
414.257	3.48
414.615	3.46
414.974	3.48
415.332	3.46
415.69	3.43
416.048	3.45
416.406	3.44
416.764	3.44
417.122	3.43
417.48	3.43
417.838	3.4
418.195	3.4
418.553	3.4
418.911	3.39
419.269	3.38
419.626	3.37
419.984	3.38
420.342	3.38
420.699	3.37
421.057	3.37
421.414	3.37
421.772	3.36
422.129	3.34
422.486	3.34
422.844	3.34
423.201	3.36
423.558	3.35
423.915	3.36
424.273	3.37
424.63	3.36
424.987	3.36
425.344	3.36
425.701	3.34
426.058	3.34
426.415	3.33
426.772	3.32
427.128	3.32
427.485	3.33
427.842	3.32
428.199	3.32
428.555	3.3
428.912	3.29
429.269	3.31
429.625	3.34
429.982	3.33
430.338	3.32
430.695	3.29
431.051	3.29
431.407	3.27
431.764	3.25
432.12	3.27
432.476	3.27
432.832	3.27
433.189	3.28
433.545	3.28
433.901	3.29
434.257	3.32
434.613	3.33
434.969	3.31
435.325	3.32
435.681	3.31
436.036	3.32
436.392	3.34
436.748	3.33
437.104	3.32
437.459	3.32
437.815	3.33
438.171	3.35
438.526	3.35
438.882	3.35
439.237	3.36
439.593	3.35
439.948	3.35
440.304	3.36
440.659	3.36
441.014	3.35
441.369	3.35
441.725	3.34
442.08	3.31
442.435	3.3
442.79	3.29
443.145	3.29
443.5	3.28
443.855	3.26
444.21	3.27
444.565	3.27
444.92	3.27
445.275	3.27
445.629	3.27
445.984	3.26
446.339	3.27
446.693	3.27
447.048	3.26
447.403	3.26
447.757	3.24
448.112	3.25
448.466	3.24
448.82	3.24
449.175	3.24
449.529	3.24
449.883	3.24
450.238	3.22
450.592	3.24
450.946	3.24
451.3	3.26
451.654	3.27
452.008	3.27
452.362	3.25
452.716	3.23
453.07	3.21
453.424	3.21
453.778	3.22
454.132	3.21
454.486	3.21
454.839	3.22
455.193	3.24
455.547	3.24
455.9	3.25
456.254	3.25
456.607	3.27
456.961	3.29
457.314	3.32
457.668	3.33
458.021	3.34
458.375	3.32
458.728	3.3
459.081	3.29
459.434	3.3
459.787	3.32
460.141	3.33
460.494	3.33
460.847	3.35
461.2	3.34
461.553	3.34
461.906	3.34
462.259	3.34
462.611	3.34
462.964	3.34
463.317	3.33
463.67	3.36
464.022	3.34
464.375	3.33
464.728	3.32
465.08	3.34
465.433	3.32
465.785	3.33
466.138	3.36
466.49	3.39
466.843	3.39
467.195	3.4
467.547	3.41
467.899	3.42
468.252	3.42
468.604	3.41
468.956	3.44
469.308	3.43
469.66	3.46
470.012	3.45
470.364	3.45
470.716	3.46
471.068	3.46
471.42	3.46
471.772	3.47
472.123	3.47
472.475	3.46
472.827	3.47
473.178	3.5
473.53	3.48
473.882	3.47
474.233	3.46
474.585	3.45
474.936	3.45
475.288	3.46
475.639	3.44
475.99	3.44
476.342	3.43
476.693	3.44
477.044	3.42
477.395	3.41
477.746	3.39
478.097	3.38
478.448	3.36
478.8	3.36
479.15	3.34
479.501	3.34
479.852	3.36
480.203	3.36
480.554	3.36
480.905	3.35
481.255	3.35
481.606	3.35
481.957	3.35
482.307	3.36
482.658	3.36
483.009	3.36
483.359	3.36
483.709	3.36
484.06	3.36
484.41	3.36
484.761	3.38
485.111	3.38
485.461	3.39
485.811	3.4
486.162	3.41
486.512	3.42
486.862	3.42
487.212	3.41
487.562	3.41
487.912	3.41
488.262	3.41
488.612	3.41
488.961	3.41
489.311	3.41
489.661	3.4
490.011	3.4
490.36	3.4
490.71	3.41
491.06	3.41
491.409	3.41
491.759	3.41
492.108	3.39
492.458	3.39
492.807	3.39
493.157	3.39
493.506	3.39
493.855	3.38
494.204	3.38
494.554	3.38
494.903	3.39
495.252	3.42
495.601	3.43
495.95	3.45
496.299	3.46
496.648	3.48
496.997	3.47
497.346	3.48
497.695	3.5
498.043	3.52
498.392	3.55
498.741	3.57
499.09	3.58
499.438	3.6
499.787	3.61
500.135	3.61
500.484	3.62
500.832	3.66
501.181	3.69
501.529	3.72
501.878	3.74
502.226	3.75
502.574	3.74
502.923	3.75
503.271	3.75
503.619	3.76
503.967	3.79
504.315	3.82
504.663	3.84
505.011	3.85
505.359	3.84
505.707	3.84
506.055	3.85
506.403	3.85
506.751	3.87
507.098	3.9
507.446	3.94
507.794	3.96
508.141	3.98
508.489	3.97
508.837	3.98
509.184	4
509.531	3.99
509.879	4.02
510.226	4.04
510.574	4.06
510.921	4.07
511.268	4.09
511.616	4.11
511.963	4.13
512.31	4.16
512.657	4.2
513.004	4.23
513.351	4.25
513.698	4.31
514.045	4.35
514.392	4.39
514.739	4.39
515.086	4.43
515.432	4.46
515.779	4.5
516.126	4.54
516.473	4.57
516.819	4.61
517.166	4.64
517.512	4.67
517.859	4.7
518.205	4.74
518.552	4.79
518.898	4.81
519.245	4.85
519.591	4.89
519.937	4.93
520.283	4.98
520.629	5.02
520.976	5.05
521.322	5.08
521.668	5.13
522.014	5.17
522.36	5.2
522.706	5.26
523.052	5.33
523.398	5.37
523.743	5.44
524.089	5.5
524.435	5.56
524.781	5.62
525.126	5.68
525.472	5.74
525.817	5.78
526.163	5.83
526.509	5.85
526.854	5.88
527.199	5.95
527.545	5.98
527.89	6.03
528.235	6.06
528.581	6.11
528.926	6.15
529.271	6.21
529.616	6.25
529.961	6.31
530.306	6.34
530.651	6.39
530.996	6.44
531.341	6.51
531.686	6.57
532.031	6.64
532.376	6.7
532.721	6.77
533.065	6.85
533.41	6.94
533.755	7.03
534.099	7.12
534.444	7.18
534.788	7.26
535.133	7.33
535.477	7.44
535.822	7.55
536.166	7.65
536.51	7.77
536.855	7.91
537.199	8.04
537.543	8.19
537.887	8.35
538.231	8.49
538.576	8.64
538.92	8.79
539.264	8.93
539.608	9.07
539.951	9.19
540.295	9.34
540.639	9.47
540.983	9.59
541.327	9.71
541.671	9.83
542.014	9.98
542.358	10.13
542.701	10.27
543.045	10.38
543.389	10.51
543.732	10.64
544.075	10.78
544.419	10.9
544.762	11.04
545.105	11.19
545.449	11.36
545.792	11.53
546.135	11.7
546.478	11.87
546.821	12.06
547.165	12.27
547.508	12.46
547.851	12.67
548.194	12.86
548.536	13.08
548.879	13.29
549.222	13.47
549.565	13.69
549.908	13.88
550.25	14.1
550.593	14.33
550.936	14.56
551.278	14.81
551.621	15.04
551.963	15.3
552.306	15.52
552.648	15.75
552.991	15.99
553.333	16.21
553.675	16.45
554.017	16.65
554.36	16.86
554.702	17.05
555.044	17.27
555.386	17.54
555.728	17.81
556.07	18.05
556.412	18.36
556.754	18.6
557.096	18.87
557.438	19.14
557.78	19.4
558.121	19.67
558.463	19.93
558.805	20.22
559.147	20.47
559.488	20.69
559.83	20.96
560.171	21.16
560.513	21.4
560.854	21.65
561.196	21.9
561.537	22.2
561.878	22.49
562.22	22.77
562.561	23.01
562.902	23.25
563.243	23.51
563.584	23.72
563.925	23.97
564.266	24.2
564.607	24.45
564.948	24.7
565.289	24.91
565.63	25.14
565.971	25.35
566.312	25.57
566.653	25.87
566.993	26.11
567.334	26.4
567.675	26.63
568.015	26.87
568.356	27.12
568.696	27.33
569.037	27.53
569.377	27.71
569.718	27.94
570.058	28.12
570.398	28.31
570.739	28.49
571.079	28.7
571.419	28.93
571.759	29.12
572.099	29.32
572.439	29.56
572.779	29.75
573.119	29.93
573.459	30.1
573.799	30.23
574.139	30.39
574.479	30.59
574.819	30.8
575.158	30.98
575.498	31.23
575.838	31.36
576.177	31.57
576.517	31.76
576.856	31.93
577.196	32.18
577.535	32.41
577.875	32.65
578.214	32.84
578.553	33.02
578.893	33.32
579.232	33.51
579.571	33.67
579.91	33.8
580.25	34.04
580.589	34.26
580.928	34.47
581.267	34.69
581.606	34.83
581.945	34.96
582.283	35.16
582.622	35.27
582.961	35.52
583.3	35.66
583.639	35.83
583.977	36.05
584.316	36.22
584.654	36.44
584.993	36.57
585.332	36.75
585.67	36.94
586.008	37.05
586.347	37.2
586.685	37.35
587.024	37.58
587.362	37.71
587.7	37.94
588.038	38.1
588.376	38.29
588.715	38.42
589.053	38.61
589.391	38.81
589.729	38.93
590.067	39.06
590.404	39.25
590.742	39.44
591.08	39.52
591.418	39.62
591.756	39.65
592.093	39.78
592.431	39.92
592.769	40.04
593.106	40.09
593.444	40.24
593.781	40.37
594.119	40.51
594.456	40.61
594.793	40.65
595.131	40.77
595.468	40.87
595.805	41.02
596.143	41.11
596.48	41.15
596.817	41.25
597.154	41.39
597.491	41.49
597.828	41.5
598.165	41.65
598.502	41.77
598.839	41.94
599.176	42.09
599.512	42.14
599.849	42.27
600.186	42.4
600.523	42.48
600.859	42.58
601.196	42.63
601.532	42.77
601.869	42.88
602.205	42.95
602.542	43.01
602.878	43.05
603.215	43.18
603.551	43.25
603.887	43.41
604.223	43.51
604.56	43.59
604.896	43.69
605.232	43.75
605.568	43.84
605.904	43.91
606.24	43.97
606.576	44.08
606.912	44.2
607.248	44.32
607.583	44.48
607.919	44.54
608.255	44.74
608.591	44.83
608.926	44.91
609.262	44.94
609.597	45.01
609.933	45.1
610.268	45.21
610.604	45.32
610.939	45.33
611.275	45.33
611.61	45.37
611.945	45.46
612.281	45.52
612.616	45.66
612.951	45.76
613.286	45.86
613.621	45.94
613.956	45.98
614.291	46.01
614.626	46.09
614.961	46.21
615.296	46.21
615.631	46.32
615.966	46.38
616.3	46.56
616.635	46.7
616.97	46.82
617.304	46.76
617.639	46.89
617.973	46.92
618.308	47.1
618.642	47.13
618.977	47.18
619.311	47.27
619.646	47.36
619.98	47.46
620.314	47.54
620.648	47.62
620.983	47.7
621.317	47.76
621.651	47.72
621.985	47.74
622.319	47.8
622.653	47.89
622.987	47.99
623.321	48.03
623.655	48.02
623.988	48.11
624.322	48.19
624.656	48.16
624.99	48.23
625.323	48.14
625.657	48.28
625.99	48.4
626.324	48.47
626.657	48.34
626.991	48.38
627.324	48.46
627.658	48.45
627.991	48.52
628.324	48.59
628.657	48.68
628.991	48.79
629.324	48.87
629.657	48.84
629.99	48.91
630.323	49
630.656	49.04
630.989	49.03
631.322	49.18
631.655	49.28
631.987	49.39
632.32	49.54
632.653	49.56
632.986	49.52
633.318	49.56
633.651	49.67
633.984	49.68
634.316	49.63
634.649	49.71
634.981	49.74
635.313	49.77
635.646	49.79
635.978	49.78
636.31	49.78
636.643	49.83
636.975	49.88
637.307	49.85
637.639	49.95
637.971	49.99
638.303	49.92
638.635	49.9
638.967	49.89
639.299	49.85
639.631	49.89
639.963	49.98
640.295	50
640.626	50.03
640.958	50.04
641.29	50.13
641.621	50.15
641.953	50.22
642.285	50.35
642.616	50.48
642.948	50.66
643.279	50.7
643.61	50.8
643.942	50.8
644.273	50.87
644.604	50.85
644.936	50.94
645.267	51.06
645.598	51.14
645.929	51.29
646.26	51.29
646.591	51.34
646.922	51.4
647.253	51.5
647.584	51.57
647.915	51.63
648.245	51.69
648.576	51.79
648.907	51.63
649.238	51.51
649.568	51.5
649.899	51.44
650.229	51.4
650.56	51.4
650.89	51.45
651.221	51.5
651.551	51.66
651.882	51.72
652.212	51.7
652.542	51.73
652.872	51.66
653.203	51.75
653.533	51.72
653.863	51.69
654.193	51.68
654.523	51.74
654.853	51.8
655.183	51.87
655.513	51.97
655.843	52.09
656.172	52.2
656.502	52.23
656.832	52.21
657.162	52.28
657.491	52.27
657.821	52.32
658.15	52.35
658.48	52.36
658.809	52.36
659.139	52.42
659.468	52.46
659.798	52.46
660.127	52.43
660.456	52.59
660.785	52.64
661.115	52.65
661.444	52.74
661.773	52.83
662.102	52.84
662.431	52.83
662.76	52.99
663.089	52.99
663.418	52.95
663.747	52.96
664.076	53.05
664.404	53.27
664.733	53.27
665.062	53.28
665.39	53.2
665.719	53.21
666.048	53.21
666.376	53.19
666.705	53.37
667.033	53.42
667.362	53.3
667.69	53.31
668.018	53.38
668.347	53.34
668.675	53.23
669.003	53.22
669.331	53.28
669.659	53.12
669.987	53.13
670.315	53.29
670.643	53.27
670.971	53.25
671.299	53.19
671.627	53.21
671.955	53.21
672.283	53.3
672.61	53.4
672.938	53.44
673.266	53.5
673.593	53.47
673.921	53.57
674.249	53.8
674.576	53.92
674.904	53.92
675.231	53.98
675.558	54.07
675.886	54.05
676.213	54.11
676.54	54.24
676.867	54.33
677.195	54.31
677.522	54.56
677.849	54.76
678.176	54.74
678.503	54.8
678.83	54.79
679.157	54.72
679.484	54.79
679.81	54.88
680.137	54.94
680.464	54.76
680.791	54.83
681.117	54.78
681.444	54.8
681.771	54.77
682.097	54.77
682.424	54.72
682.75	54.74
683.077	54.79
683.403	54.68
683.729	54.64
684.056	54.57
684.382	54.53
684.708	54.42
685.034	54.36
685.36	54.37
685.686	54.38
686.012	54.42
686.339	54.39
686.664	54.34
686.99	54.31
687.316	54.5
687.642	54.59
687.968	54.51
688.294	54.45
688.619	54.39
688.945	54.58
689.271	54.67
689.596	54.83
689.922	54.54
690.247	54.53
690.573	54.64
690.898	54.9
691.224	54.88
691.549	54.89
691.874	54.99
692.2	54.88
692.525	55.12
692.85	55.27
693.175	55.29
693.5	55.39
693.825	55.38
694.15	55.41
694.475	55.24
694.8	55.33
695.125	55.47
695.45	55.68
695.775	55.61
696.099	55.46
696.424	55.35
696.749	55.54
697.073	55.66
697.398	55.71
697.723	55.4
698.047	55.36
698.372	55.44
698.696	55.46
699.02	55.57
699.345	55.49
699.669	55.41
699.993	55.4
700.318	55.41
700.642	55.45
700.966	55.56
701.29	55.56
701.614	55.49
701.938	55.35
702.262	55.34
702.586	55.12
702.91	55.19
703.234	55.29
703.557	55.26
703.881	55.39
704.205	55.24
704.529	55.38
704.852	55.41
705.176	55.37
705.499	55.31
705.823	55.22
706.146	55.22
706.47	55.37
706.793	55.46
707.117	55.34
707.44	55.31
707.763	55.33
708.086	55.43
708.409	55.36
708.733	55.31
709.056	55.37
709.379	55.71
709.702	55.73
710.025	55.81
710.348	55.74
710.671	55.63
710.993	55.57
711.316	55.66
711.639	55.76
711.962	55.73
712.284	55.77
712.607	55.94
712.93	55.79
713.252	55.72
713.575	55.58
713.897	55.65
714.22	55.76
714.542	55.72
714.864	55.67
715.187	55.73
715.509	55.85
715.831	55.65
716.153	55.62
716.475	55.69
716.798	55.7
717.12	55.89
717.442	55.94
717.764	56.09
718.085	56.15
718.407	56.1
718.729	56.15
719.051	56.14
719.373	56.11
719.695	56.38
720.016	56.47
720.338	56.3
720.659	56.4
720.981	56.37
721.302	56.45
721.624	56.47
721.945	56.5
722.267	56.42
722.588	56.76
722.909	56.79
723.231	56.9
723.552	56.74
723.873	56.69
724.194	56.68
724.515	56.83
724.836	56.75
725.157	56.77
725.478	56.69
725.799	56.81
726.12	56.56
726.441	56.66
726.762	56.78
727.083	57.07
727.403	57.05
727.724	57.21
728.045	57.25
728.365	57.23
728.686	57.22
729.006	57.46
729.327	57.33
729.647	57.14
729.967	57.17
730.288	57.12
730.608	57.21
730.928	57.22
731.249	57.1
731.569	57.19
731.889	57.24
732.209	57.37
732.529	57.21
732.849	57.36
733.169	57.37
733.489	57.24
733.809	57.29
734.129	57.29
734.448	56.94
734.768	56.99
735.088	57.17
735.408	57.14
735.727	57.23
736.047	57.35
736.366	57.45
736.686	57.55
737.005	57.73
737.325	57.79
737.644	57.94
737.963	57.95
738.283	57.99
738.602	58.03
738.921	57.98
739.24	58.15
739.56	58.43
739.879	58.03
740.198	58.01
740.517	57.89
740.836	57.92
741.155	58.02
741.473	57.84
741.792	57.65
742.111	57.97
742.43	57.81
742.748	57.91
743.067	57.86
743.386	57.84
743.704	57.69
744.023	57.56
744.341	57.72
744.66	57.86
744.978	57.75
745.297	57.76
745.615	57.63
745.933	57.84
746.252	57.91
746.57	58.48
746.888	58.57
747.206	58.51
747.524	58.28
747.842	58.24
748.16	58.28
748.478	58.8
748.796	58.85
749.114	58.94
749.432	58.63
749.749	58.84
750.067	58.65
750.385	58.98
750.703	58.81
751.02	58.49
751.338	58.38
751.655	58.49
751.973	58.72
752.29	58.87
752.608	58.64
752.925	58.24
753.242	58.18
753.56	58.19
753.877	58.17
754.194	58.7
754.511	58.76
754.828	58.59
755.145	58.07
755.462	58.04
755.779	58.02
756.096	58.02
756.413	57.86
756.73	57.76
757.047	57.59
757.364	57.83
757.68	57.79
757.997	57.74
758.314	57.6
758.63	57.37
758.947	57.45
759.264	57.68
759.58	58.09
759.896	58.2
760.213	58.22
760.529	58.75
760.846	58.32
761.162	58.57
761.478	58.88
761.794	59.08
762.11	58.88
762.426	58.95
762.743	58.99
763.059	59.1
763.375	59.19
763.69	59.19
764.006	59.12
764.322	59.14
764.638	59.31
764.954	59.23
765.27	59.31
765.585	59.36
765.901	59.21
766.216	58.91
766.532	58.77
766.848	58.76
767.163	58.51
767.478	58.67
767.794	58.56
768.109	58.46
768.424	58.43
768.74	58.72
769.055	59.07
769.37	59.22
769.685	59.14
770	59.09
770.315	59.06
770.63	58.85
770.945	58.92
771.26	58.5
771.575	58.87
771.89	59.08
772.205	58.74
772.52	58.98
772.834	58.83
773.149	58.68
773.464	58.58
773.778	58.5
774.093	58.33
774.407	58.09
774.722	57.58
775.036	57.44
775.351	57.31
775.665	56.52
775.979	56.63
776.293	56.46
776.608	56.71
776.922	56.76
777.236	57.1
777.55	57.44
777.864	57.91
778.178	57.7
778.492	56.78
778.806	56.89
779.12	56.75
779.434	57.08
779.747	57.12
780.061	56.94
780.375	57.07
780.689	56.92
781.002	57.15
781.316	57.39
781.629	57.22
781.943	57.03
782.256	57.09
782.57	56.8
782.883	57.8
783.196	57.87
783.51	58.16
783.823	57.82
784.136	57.53
784.449	57.44
784.762	57.78
785.075	58.02
785.388	57.65
785.701	57.06
786.014	56.82
786.327	57.04
786.64	57.61
786.953	57.67
787.266	58.4
787.578	58.68
787.891	58.9
788.204	59.29
788.516	59.44
788.829	59.98
789.141	59.94
789.454	59.36
789.766	59.22
790.079	59.15
790.391	59.88
790.703	59.71
791.016	59.6
791.328	59.63
791.64	59.88
791.952	60.68
792.264	61.63
792.576	62.06
792.888	62.18
793.2	61.99
793.512	62.06
793.824	62.1
794.136	62.27
794.448	62.42
794.76	62.26
795.071	62.42
795.383	61.72
795.695	61.73
796.006	61.55
796.318	61.55
796.629	61.2
796.941	60.74
797.252	60.67
797.564	60.85
797.875	60.72
798.186	60.68
798.497	61.16
798.809	60.44
799.12	60.24
799.431	60.14
799.742	59.97
800.053	59.77
800.364	59.45
800.675	58.86
800.986	58.53
801.297	58.23
801.608	57.4
801.918	57.67
802.229	57.49
802.54	57.54
802.851	57.12
803.161	57.38
803.472	57.3
803.782	57.87
804.093	57.99
804.403	58.2
804.714	58.72
805.024	58.16
805.334	58.6
805.645	58.85
805.955	58.73
806.265	58.79
806.575	58.25
806.885	57.94
807.195	58.38
807.505	58.72
807.815	59.23
808.125	60.09
808.435	60.38
808.745	61.04
809.055	61.31
809.365	61.85
809.674	61.76
809.984	62.04
810.294	61.86
810.603	61.69
810.913	61.96
811.222	61.13
811.532	60.68
811.841	61.15
812.151	60.85
812.46	61.06
812.769	60.33
813.079	60.85
813.388	61.03
813.697	61.3
814.006	61.83
814.315	61.18
814.624	61.09
814.933	60.29
815.242	59.42
815.551	58.42
815.86	58.69
816.169	58.3
816.478	58.1
816.786	58.22
817.095	58.13
817.404	58.08
817.712	58.78
818.021	59.2
818.33	58.92
818.638	58.97
818.947	59.31
819.255	59.79
819.563	60.66
819.872	60.67
820.18	60.75
820.488	60.49
820.796	60.75
821.105	60.81
821.413	61.06
821.721	61.17
822.029	61.48
822.337	61.21
822.645	61.46
822.953	61.48
823.26	61.54
823.568	61.52
823.876	61.44
824.184	61.33
824.491	61.07
824.799	61.11
825.107	61.24
825.414	61.2
825.722	61.14
826.029	60.88
826.337	61.17
826.644	61.12
826.951	61.03
827.259	61.28
827.566	61.36
827.873	61.2
828.18	61.28
828.488	60.8
828.795	61.06
829.102	61.15
829.409	61.06
829.716	61.02
830.023	61.03
830.329	60.88
830.636	60.88
830.943	61.45
831.25	61.38
831.557	61.17
831.863	61.21
832.17	61.58
832.476	61.67
832.783	60.79
833.089	60.82
833.396	60.84
833.702	60.37
834.009	60.03
834.315	60.18
834.621	60.24
834.928	60.3
835.234	60.24
835.54	59.84
835.846	60.16
836.152	59.71
836.458	60.15
836.764	59.95
837.07	59.76
837.376	59.64
837.682	59.39
837.988	59.63
838.293	59.71
838.599	59.71
838.905	59.01
839.211	59.25
839.516	58.44
839.822	58.47
840.127	58.33
840.433	58.06
840.738	58.45
841.044	58.82
841.349	59.95
841.654	60.08
841.959	59.81
842.265	58.62
842.57	59.77
842.875	58.15
843.18	58.55
843.485	59.38
843.79	60.27
844.095	60.94
844.4	61.52
844.705	61.45
845.01	61.36
845.315	64.74
845.619	66.24
845.924	67.25
846.229	67.85
846.533	67.3
846.838	65.8
847.142	64.44
847.447	63.71
847.751	63.56
848.056	62.84
848.36	61.96
848.664	61.8
848.969	59.19
849.273	59.9
849.577	60.98
849.881	61.57
850.185	59.33
850.489	57.79
850.794	56.5
851.097	54.38
851.401	52.54
851.705	50.78
852.009	49.9
852.313	51.29
852.617	50.28
852.92	51.17
853.224	53.78
853.528	53.12
853.831	54.09
854.135	54.15
854.438	53.55
854.742	54.69
855.045	56.2
855.349	57.96
855.652	57.28
855.955	56.11
856.259	55.3
856.562	55.67
856.865	56.14
857.168	54.8
857.471	54.8
857.774	56.95
858.077	52.48
858.38	51.1
858.683	49.71
858.986	48.15
859.289	48.31
859.592	48.2
859.894	48.81
860.197	47.71
860.5	45.21
860.802	44.75
861.105	44.77
861.407	44.92
861.71	45.53
862.012	45.82
862.315	45.84
862.617	44.48
862.919	46.21
863.222	45.43
863.524	46.84
863.826	47.45
864.128	45.93
864.43	50.41
864.732	50.98
865.034	51.67
865.336	53.74
865.638	52.51
865.94	53.34
866.242	54.96
866.544	56.71
866.846	60.56
867.147	62.49
867.449	60.96
867.751	59.59
868.052	58.25
868.354	59.51
868.655	59.22
868.957	60.37
869.258	57.51
869.56	56.26
869.861	55.02
870.162	55.91
870.463	56.29
870.765	53.77
871.066	53.68
871.367	53.28
871.668	53.68
871.969	52.27
872.27	51.43
872.571	50.19
872.872	48.94
873.173	48.13
873.473	46.62
873.774	48.29
874.075	50.83
874.376	50.1
874.676	48.88
874.977	48.96
875.277	48.89
875.578	49.85
875.878	52.57
876.179	53.1
876.479	51.57
876.78	52.11
877.08	53.13
877.38	53.2
877.68	53.12
877.981	52.84
878.281	56.77
878.581	56.77
