Data from BA48287_Reflection_00005.txt Node
Date: Tue Nov 19 11:43:24 EST 2019
User: vgr7
Spectrometer: USB2G7710
Scans to average: 3
Trigger mode: 4
Integration Time (sec): 2.000000E-2
Electric dark correction enabled: true
Boxcar width: 10
XAxis mode: Wavelengths
Number of Pixels in Spectrum: 2048
>>>>>Begin Spectral Data<<<<<
177.721	112.98
178.105	98.23
178.488	69.64
178.871	62.05
179.254	70.94
179.636	99.35
180.019	177.03
180.402	-4.76
180.785	-36.97
181.168	-161.9
181.55	-89.3
181.933	-0.18
182.316	-8.17
182.698	544.44
183.081	-64.32
183.463	-4233.33
183.846	-233.33
184.228	90.05
184.611	283.91
184.993	80.95
185.376	7.92
185.758	43.37
186.14	-4.4
186.522	-17.93
186.904	-41.24
187.287	-49.24
187.669	-37.78
188.051	-63.05
188.433	-215.99
188.815	-315.95
189.197	-233.33
189.579	-146.24
189.961	-113.55
190.342	-83.51
190.724	-90.26
191.106	-87.1
191.488	-73.81
191.869	-74.56
192.251	-63.85
192.633	-57.98
193.014	-49.06
193.396	-50.48
193.777	-53.82
194.159	-57.54
194.54	-51.67
194.922	-44.63
195.303	-56.65
195.684	-57.83
196.065	-56.37
196.447	-52.92
196.828	-51.68
197.209	-47.35
197.59	-50.16
197.971	-48.15
198.352	-58.08
198.733	-61.47
199.114	-57.48
199.495	-64.64
199.876	-58.98
200.257	-66.52
200.638	-67.13
201.018	-72.15
201.399	-78.47
201.78	-71.27
202.16	-77.28
202.541	-77.67
202.922	-78.14
203.302	-58.09
203.683	-59.47
204.063	-60.43
204.444	-50.18
204.824	-61.82
205.204	-53.93
205.585	-36.03
205.965	-63.09
206.345	-28.47
206.725	-25.44
207.106	-22.83
207.486	-8.14
207.866	-15.72
208.246	-14.54
208.626	-35.55
209.006	-40.43
209.386	-37.25
209.766	-38.94
210.145	-19.92
210.525	-37.47
210.905	-44.67
211.285	-47.12
211.664	-38.97
212.044	-39.7
212.424	-33.27
212.803	-24.58
213.183	-28.21
213.562	-32.15
213.942	-29.44
214.321	-51.58
214.701	-53.35
215.08	-68.26
215.459	-84.52
215.838	-82.67
216.218	-82.12
216.597	-75.53
216.976	-74.48
217.355	-86.26
217.734	-87.31
218.113	-78.56
218.492	-86.19
218.871	-74.1
219.25	-60.03
219.629	-74.21
220.008	-63.97
220.387	-74.74
220.766	-59.8
221.144	-60.72
221.523	-65.97
221.902	-58.08
222.28	-43.93
222.659	-23.55
223.037	-16.65
223.416	3.41
223.794	-0.96
224.173	-6.81
224.551	-0.25
224.929	0.78
225.308	6.71
225.686	4.69
226.064	0.42
226.442	5
226.821	4.74
227.199	1.67
227.577	-1.83
227.955	-3.34
228.333	-0.85
228.711	-4.62
229.089	-1.93
229.467	-1.26
229.845	1.03
230.222	4.17
230.6	0.17
230.978	-0.41
231.356	-5.76
231.733	-4.18
232.111	-2.58
232.488	-1.51
232.866	0.91
233.243	0.05
233.621	3.17
233.998	4.51
234.376	3.93
234.753	2.23
235.13	0.88
235.508	1.97
235.885	2.46
236.262	1
236.639	0.46
237.016	-1.22
237.393	-0.13
237.77	-0.02
238.147	-0.71
238.524	1.05
238.901	0.27
239.278	1.43
239.655	1.81
240.032	2.6
240.409	2.73
240.785	2.24
241.162	2.74
241.539	2.34
241.915	2.11
242.292	2.14
242.668	2.51
243.045	3.74
243.421	3.76
243.798	3.95
244.174	4.06
244.551	4.2
244.927	4.38
245.303	4.14
245.679	4.2
246.056	4.21
246.432	4.12
246.808	4.26
247.184	4.14
247.56	4
247.936	3.98
248.312	3.88
248.688	3.97
249.064	3.88
249.44	3.94
249.815	4.03
250.191	4.03
250.567	4
250.943	3.91
251.318	4.04
251.694	3.87
252.069	3.86
252.445	3.92
252.82	4.15
253.196	4.31
253.571	4.01
253.947	3.97
254.322	3.91
254.697	4.01
255.073	4.04
255.448	3.83
255.823	3.81
256.198	3.86
256.573	3.83
256.948	3.56
257.323	3.6
257.698	3.85
258.073	3.92
258.448	3.87
258.823	3.72
259.198	3.76
259.573	3.74
259.948	3.67
260.322	3.64
260.697	3.55
261.072	3.4
261.446	3.62
261.821	3.51
262.195	3.47
262.57	3.64
262.944	3.75
263.319	3.77
263.693	3.67
264.067	3.62
264.442	3.65
264.816	3.68
265.19	3.44
265.564	3.28
265.938	3.23
266.313	3.15
266.687	2.99
267.061	2.94
267.435	3.15
267.809	2.96
268.183	2.76
268.556	2.7
268.93	2.94
269.304	2.78
269.678	2.82
270.051	2.88
270.425	2.89
270.799	2.88
271.172	3.01
271.546	3.2
271.919	3.18
272.293	3.13
272.666	3.19
273.04	3.26
273.413	3.23
273.787	3.1
274.16	3.19
274.533	3.45
274.906	3.48
275.279	3.39
275.653	3.69
276.026	3.86
276.399	3.89
276.772	3.9
277.145	3.81
277.518	3.86
277.891	3.99
278.263	4.08
278.636	4.06
279.009	4.05
279.382	3.74
279.755	3.78
280.127	3.91
280.5	3.99
280.872	4.09
281.245	4.03
281.617	4.05
281.99	4.07
282.362	3.99
282.735	4.01
283.107	3.92
283.479	3.83
283.852	3.89
284.224	4.07
284.596	3.94
284.968	4.14
285.34	4.25
285.713	4.17
286.085	3.98
286.457	3.94
286.829	3.88
287.201	4.01
287.572	4
287.944	3.99
288.316	4.07
288.688	4.1
289.06	4.13
289.431	4.3
289.803	4.38
290.175	4.4
290.546	4.25
290.918	4.34
291.289	4.34
291.661	4.4
292.032	4.34
292.403	4.34
292.775	4.35
293.146	4.38
293.517	4.29
293.889	4.33
294.26	4.31
294.631	4.41
295.002	4.41
295.373	4.38
295.744	4.41
296.115	4.4
296.486	4.31
296.857	4.27
297.228	4.15
297.599	4.07
297.97	4.14
298.34	4.24
298.711	4.28
299.082	4.35
299.452	4.26
299.823	4.18
300.194	4.21
300.564	4
300.935	3.99
301.305	4.17
301.676	4.1
302.046	4.16
302.416	4.08
302.787	4.03
303.157	4.15
303.527	4.09
303.897	3.9
304.267	3.86
304.637	3.91
305.008	3.99
305.378	4.01
305.748	3.83
306.117	3.86
306.487	3.74
306.857	3.75
307.227	3.85
307.597	3.84
307.967	3.88
308.336	4.08
308.706	3.91
309.076	3.84
309.445	3.99
309.815	4.03
310.184	3.95
310.554	3.98
310.923	3.85
311.293	3.77
311.662	3.8
312.031	3.83
312.401	3.85
312.77	3.79
313.139	3.81
313.508	3.72
313.877	3.71
314.246	3.76
314.616	3.71
314.985	3.58
315.353	3.63
315.722	3.68
316.091	3.57
316.46	3.57
316.829	3.61
317.198	3.54
317.567	3.55
317.935	3.72
318.304	3.76
318.672	3.92
319.041	3.96
319.41	4.03
319.778	4.03
320.147	4.16
320.515	4.23
320.883	4.25
321.252	4.53
321.62	4.55
321.988	4.62
322.357	4.62
322.725	4.73
323.093	4.85
323.461	4.74
323.829	4.89
324.197	4.95
324.565	5.03
324.933	4.97
325.301	4.84
325.669	4.78
326.037	4.8
326.405	4.66
326.772	4.69
327.14	4.6
327.508	4.7
327.875	4.67
328.243	4.6
328.61	4.53
328.978	4.47
329.346	4.49
329.713	4.5
330.08	4.52
330.448	4.45
330.815	4.29
331.182	4.27
331.55	4.17
331.917	4.18
332.284	4.09
332.651	4.19
333.018	4.34
333.385	4.41
333.752	4.42
334.119	4.5
334.486	4.4
334.853	4.41
335.22	4.38
335.587	4.4
335.954	4.39
336.32	4.3
336.687	4.25
337.054	4.24
337.42	4.11
337.787	4.08
338.153	4.1
338.52	4.23
338.886	4.33
339.253	4.41
339.619	4.43
339.986	4.38
340.352	4.32
340.718	4.29
341.084	4.26
341.451	4.21
341.817	4.19
342.183	4.33
342.549	4.37
342.915	4.31
343.281	4.29
343.647	4.31
344.013	4.36
344.379	4.38
344.745	4.37
345.11	4.42
345.476	4.43
345.842	4.36
346.208	4.29
346.573	4.21
346.939	4.15
347.304	4.15
347.67	4.07
348.035	4.07
348.401	4.05
348.766	4.01
349.132	3.99
349.497	3.97
349.862	3.99
350.228	4.02
350.593	3.98
350.958	3.98
351.323	3.99
351.688	4.03
352.053	4.05
352.418	3.93
352.783	3.95
353.148	4.01
353.513	4.07
353.878	4.07
354.243	4.13
354.608	4.11
354.972	4.12
355.337	4.22
355.702	4.24
356.066	4.26
356.431	4.29
356.795	4.29
357.16	4.28
357.524	4.28
357.889	4.27
358.253	4.27
358.618	4.25
358.982	4.29
359.346	4.37
359.71	4.37
360.075	4.46
360.439	4.49
360.803	4.48
361.167	4.48
361.531	4.49
361.895	4.48
362.259	4.53
362.623	4.5
362.987	4.52
363.351	4.49
363.714	4.43
364.078	4.4
364.442	4.39
364.806	4.4
365.169	4.4
365.533	4.37
365.896	4.44
366.26	4.44
366.623	4.4
366.987	4.31
367.35	4.34
367.714	4.29
368.077	4.29
368.44	4.29
368.803	4.33
369.167	4.28
369.53	4.36
369.893	4.38
370.256	4.37
370.619	4.36
370.982	4.36
371.345	4.43
371.708	4.44
372.071	4.41
372.434	4.39
372.797	4.37
373.159	4.39
373.522	4.36
373.885	4.27
374.247	4.27
374.61	4.34
374.973	4.31
375.335	4.31
375.698	4.29
376.06	4.27
376.423	4.29
376.785	4.36
377.147	4.3
377.51	4.2
377.872	4.22
378.234	4.21
378.596	4.28
378.958	4.28
379.321	4.31
379.683	4.37
380.045	4.36
380.407	4.35
380.769	4.4
381.13	4.42
381.492	4.47
381.854	4.48
382.216	4.46
382.578	4.49
382.939	4.53
383.301	4.53
383.663	4.52
384.024	4.48
384.386	4.43
384.747	4.44
385.109	4.46
385.47	4.47
385.832	4.52
386.193	4.48
386.554	4.48
386.916	4.45
387.277	4.42
387.638	4.5
387.999	4.49
388.36	4.44
388.721	4.47
389.082	4.5
389.443	4.48
389.804	4.5
390.165	4.49
390.526	4.5
390.887	4.51
391.248	4.53
391.609	4.51
391.969	4.53
392.33	4.5
392.691	4.52
393.051	4.52
393.412	4.5
393.772	4.47
394.133	4.46
394.493	4.44
394.854	4.44
395.214	4.4
395.574	4.42
395.935	4.43
396.295	4.42
396.655	4.42
397.015	4.42
397.376	4.41
397.736	4.38
398.096	4.36
398.456	4.35
398.816	4.34
399.176	4.31
399.535	4.32
399.895	4.35
400.255	4.35
400.615	4.34
400.975	4.34
401.334	4.35
401.694	4.36
402.054	4.39
402.413	4.4
402.773	4.41
403.132	4.39
403.492	4.39
403.851	4.36
404.211	4.34
404.57	4.37
404.929	4.36
405.288	4.37
405.648	4.38
406.007	4.39
406.366	4.43
406.725	4.47
407.084	4.46
407.443	4.45
407.802	4.42
408.161	4.43
408.52	4.4
408.879	4.43
409.238	4.43
409.596	4.4
409.955	4.43
410.314	4.4
410.673	4.4
411.031	4.42
411.39	4.45
411.748	4.47
412.107	4.44
412.465	4.42
412.824	4.43
413.182	4.41
413.54	4.38
413.899	4.36
414.257	4.34
414.615	4.31
414.974	4.31
415.332	4.33
415.69	4.31
416.048	4.33
416.406	4.32
416.764	4.32
417.122	4.32
417.48	4.3
417.838	4.32
418.195	4.32
418.553	4.32
418.911	4.3
419.269	4.3
419.626	4.3
419.984	4.33
420.342	4.33
420.699	4.32
421.057	4.32
421.414	4.31
421.772	4.3
422.129	4.29
422.486	4.29
422.844	4.28
423.201	4.29
423.558	4.29
423.915	4.29
424.273	4.28
424.63	4.27
424.987	4.25
425.344	4.24
425.701	4.23
426.058	4.22
426.415	4.21
426.772	4.2
427.128	4.19
427.485	4.16
427.842	4.14
428.199	4.13
428.555	4.1
428.912	4.09
429.269	4.1
429.625	4.12
429.982	4.12
430.338	4.11
430.695	4.08
431.051	4.08
431.407	4.08
431.764	4.1
432.12	4.12
432.476	4.14
432.832	4.12
433.189	4.11
433.545	4.12
433.901	4.11
434.257	4.11
434.613	4.11
434.969	4.13
435.325	4.13
435.681	4.16
436.036	4.18
436.392	4.16
436.748	4.15
437.104	4.16
437.459	4.15
437.815	4.15
438.171	4.15
438.526	4.14
438.882	4.14
439.237	4.11
439.593	4.11
439.948	4.11
440.304	4.12
440.659	4.11
441.014	4.12
441.369	4.15
441.725	4.15
442.08	4.16
442.435	4.14
442.79	4.14
443.145	4.13
443.5	4.12
443.855	4.13
444.21	4.15
444.565	4.14
444.92	4.13
445.275	4.13
445.629	4.14
445.984	4.14
446.339	4.15
446.693	4.15
447.048	4.14
447.403	4.13
447.757	4.12
448.112	4.12
448.466	4.12
448.82	4.09
449.175	4.09
449.529	4.08
449.883	4.08
450.238	4.07
450.592	4.08
450.946	4.07
451.3	4.07
451.654	4.05
452.008	4.05
452.362	4.05
452.716	4.03
453.07	4.04
453.424	4.04
453.778	4.02
454.132	4.02
454.486	4.03
454.839	4.03
455.193	4.03
455.547	4.05
455.9	4.05
456.254	4.04
456.607	4.03
456.961	4.03
457.314	4.05
457.668	4.06
458.021	4.05
458.375	4.05
458.728	4.06
459.081	4.06
459.434	4.07
459.787	4.09
460.141	4.13
460.494	4.12
460.847	4.13
461.2	4.15
461.553	4.15
461.906	4.13
462.259	4.14
462.611	4.14
462.964	4.14
463.317	4.13
463.67	4.15
464.022	4.16
464.375	4.17
464.728	4.16
465.08	4.16
465.433	4.18
465.785	4.2
466.138	4.19
466.49	4.21
466.843	4.23
467.195	4.22
467.547	4.2
467.899	4.21
468.252	4.22
468.604	4.21
468.956	4.22
469.308	4.25
469.66	4.24
470.012	4.25
470.364	4.24
470.716	4.26
471.068	4.28
471.42	4.3
471.772	4.29
472.123	4.3
472.475	4.32
472.827	4.32
473.178	4.31
473.53	4.3
473.882	4.32
474.233	4.3
474.585	4.29
474.936	4.29
475.288	4.27
475.639	4.27
475.99	4.25
476.342	4.25
476.693	4.26
477.044	4.3
477.395	4.32
477.746	4.33
478.097	4.31
478.448	4.3
478.8	4.29
479.15	4.3
479.501	4.3
479.852	4.29
480.203	4.28
480.554	4.29
480.905	4.32
481.255	4.32
481.606	4.33
481.957	4.35
482.307	4.35
482.658	4.36
483.009	4.36
483.359	4.37
483.709	4.37
484.06	4.38
484.41	4.37
484.761	4.37
485.111	4.37
485.461	4.37
485.811	4.37
486.162	4.38
486.512	4.38
486.862	4.39
487.212	4.39
487.562	4.39
487.912	4.4
488.262	4.39
488.612	4.38
488.961	4.38
489.311	4.37
489.661	4.37
490.011	4.37
490.36	4.37
490.71	4.37
491.06	4.37
491.409	4.36
491.759	4.37
492.108	4.37
492.458	4.38
492.807	4.38
493.157	4.41
493.506	4.4
493.855	4.41
494.204	4.41
494.554	4.43
494.903	4.45
495.252	4.45
495.601	4.46
495.95	4.48
496.299	4.5
496.648	4.52
496.997	4.54
497.346	4.57
497.695	4.59
498.043	4.61
498.392	4.61
498.741	4.62
499.09	4.65
499.438	4.65
499.787	4.66
500.135	4.67
500.484	4.63
500.832	4.65
501.181	4.68
501.529	4.72
501.878	4.71
502.226	4.7
502.574	4.72
502.923	4.73
503.271	4.75
503.619	4.76
503.967	4.76
504.315	4.76
504.663	4.77
505.011	4.77
505.359	4.76
505.707	4.8
506.055	4.81
506.403	4.82
506.751	4.85
507.098	4.88
507.446	4.88
507.794	4.92
508.141	4.95
508.489	4.94
508.837	4.95
509.184	4.98
509.531	5
509.879	5
510.226	5.01
510.574	5.02
510.921	5.03
511.268	5.05
511.616	5.08
511.963	5.09
512.31	5.12
512.657	5.14
513.004	5.13
513.351	5.14
513.698	5.16
514.045	5.15
514.392	5.14
514.739	5.17
515.086	5.18
515.432	5.19
515.779	5.21
516.126	5.23
516.473	5.22
516.819	5.23
517.166	5.25
517.512	5.27
517.859	5.28
518.205	5.29
518.552	5.3
518.898	5.31
519.245	5.32
519.591	5.31
519.937	5.32
520.283	5.33
520.629	5.35
520.976	5.35
521.322	5.36
521.668	5.38
522.014	5.36
522.36	5.37
522.706	5.36
523.052	5.36
523.398	5.37
523.743	5.39
524.089	5.42
524.435	5.45
524.781	5.47
525.126	5.49
525.472	5.52
525.817	5.52
526.163	5.54
526.509	5.55
526.854	5.55
527.199	5.57
527.545	5.59
527.89	5.6
528.235	5.61
528.581	5.62
528.926	5.62
529.271	5.64
529.616	5.64
529.961	5.66
530.306	5.67
530.651	5.66
530.996	5.67
531.341	5.69
531.686	5.69
532.031	5.69
532.376	5.69
532.721	5.69
533.065	5.69
533.41	5.7
533.755	5.71
534.099	5.72
534.444	5.72
534.788	5.72
535.133	5.71
535.477	5.72
535.822	5.74
536.166	5.74
536.51	5.76
536.855	5.78
537.199	5.78
537.543	5.79
537.887	5.81
538.231	5.81
538.576	5.8
538.92	5.82
539.264	5.82
539.608	5.82
539.951	5.8
540.295	5.8
540.639	5.8
540.983	5.81
541.327	5.81
541.671	5.81
542.014	5.81
542.358	5.82
542.701	5.82
543.045	5.83
543.389	5.86
543.732	5.85
544.075	5.84
544.419	5.84
544.762	5.82
545.105	5.83
545.449	5.83
545.792	5.85
546.135	5.85
546.478	5.86
546.821	5.89
547.165	5.9
547.508	5.91
547.851	5.9
548.194	5.89
548.536	5.89
548.879	5.88
549.222	5.9
549.565	5.89
549.908	5.89
550.25	5.87
550.593	5.85
550.936	5.85
551.278	5.88
551.621	5.91
551.963	5.97
552.306	5.95
552.648	5.95
552.991	5.95
553.333	5.94
553.675	5.94
554.017	5.93
554.36	5.94
554.702	5.95
555.044	5.96
555.386	5.98
555.728	5.97
556.07	5.99
556.412	6
556.754	6
557.096	6
557.438	6.02
557.78	6.03
558.121	6.01
558.463	5.98
558.805	6.01
559.147	5.96
559.488	5.96
559.83	5.98
560.171	5.93
560.513	5.97
560.854	5.96
561.196	5.97
561.537	5.97
561.878	5.99
562.22	5.99
562.561	6.01
562.902	5.98
563.243	5.98
563.584	5.97
563.925	5.98
564.266	5.98
564.607	6.01
564.948	6
565.289	6.03
565.63	6.05
565.971	6.02
566.312	6.03
566.653	6.04
566.993	6.04
567.334	6.07
567.675	6.04
568.015	6.04
568.356	6.01
568.696	6.04
569.037	6.04
569.377	6.06
569.718	6.05
570.058	6.08
570.398	6.1
570.739	6.09
571.079	6.08
571.419	6.07
571.759	6.04
572.099	6.04
572.439	6.03
572.779	6.02
573.119	6.01
573.459	6.02
573.799	6.02
574.139	6
574.479	6
574.819	6.01
575.158	6.03
575.498	6.03
575.838	6.04
576.177	6.03
576.517	6.05
576.856	6.03
577.196	6.02
577.535	6.01
577.875	6.03
578.214	6.05
578.553	6.07
578.893	6.11
579.232	6.13
579.571	6.11
579.91	6.14
580.25	6.17
580.589	6.2
580.928	6.17
581.267	6.22
581.606	6.24
581.945	6.25
582.283	6.22
582.622	6.21
582.961	6.2
583.3	6.17
583.639	6.14
583.977	6.16
584.316	6.16
584.654	6.17
584.993	6.17
585.332	6.15
585.67	6.16
586.008	6.19
586.347	6.18
586.685	6.19
587.024	6.18
587.362	6.16
587.7	6.15
588.038	6.2
588.376	6.17
588.715	6.15
589.053	6.16
589.391	6.21
589.729	6.23
590.067	6.21
590.404	6.24
590.742	6.28
591.08	6.28
591.418	6.32
591.756	6.33
592.093	6.33
592.431	6.34
592.769	6.36
593.106	6.32
593.444	6.35
593.781	6.37
594.119	6.39
594.456	6.4
594.793	6.41
595.131	6.38
595.468	6.4
595.805	6.43
596.143	6.43
596.48	6.45
596.817	6.43
597.154	6.44
597.491	6.44
597.828	6.42
598.165	6.43
598.502	6.38
598.839	6.37
599.176	6.36
599.512	6.33
599.849	6.34
600.186	6.37
600.523	6.36
600.859	6.37
601.196	6.38
601.532	6.36
601.869	6.36
602.205	6.32
602.542	6.33
602.878	6.34
603.215	6.34
603.551	6.33
603.887	6.38
604.223	6.37
604.56	6.38
604.896	6.4
605.232	6.36
605.568	6.37
605.904	6.36
606.24	6.4
606.576	6.47
606.912	6.47
607.248	6.47
607.583	6.46
607.919	6.45
608.255	6.46
608.591	6.47
608.926	6.47
609.262	6.55
609.597	6.55
609.933	6.53
610.268	6.53
610.604	6.53
610.939	6.52
611.275	6.5
611.61	6.48
611.945	6.47
612.281	6.52
612.616	6.54
612.951	6.6
613.286	6.57
613.621	6.56
613.956	6.56
614.291	6.51
614.626	6.55
614.961	6.59
615.296	6.57
615.631	6.59
615.966	6.6
616.3	6.58
616.635	6.54
616.97	6.54
617.304	6.5
617.639	6.5
617.973	6.47
618.308	6.52
618.642	6.54
618.977	6.52
619.311	6.53
619.646	6.54
619.98	6.47
620.314	6.49
620.648	6.51
620.983	6.49
621.317	6.52
621.651	6.49
621.985	6.49
622.319	6.54
622.653	6.55
622.987	6.55
623.321	6.56
623.655	6.59
623.988	6.62
624.322	6.65
624.656	6.65
624.99	6.64
625.323	6.64
625.657	6.67
625.99	6.71
626.324	6.67
626.657	6.64
626.991	6.69
627.324	6.69
627.658	6.63
627.991	6.62
628.324	6.63
628.657	6.65
628.991	6.62
629.324	6.56
629.657	6.54
629.99	6.57
630.323	6.55
630.656	6.57
630.989	6.56
631.322	6.58
631.655	6.59
631.987	6.6
632.32	6.61
632.653	6.6
632.986	6.55
633.318	6.61
633.651	6.65
633.984	6.66
634.316	6.69
634.649	6.74
634.981	6.8
635.313	6.78
635.646	6.8
635.978	6.81
636.31	6.86
636.643	6.88
636.975	6.87
637.307	6.9
637.639	6.87
637.971	6.88
638.303	6.87
638.635	6.8
638.967	6.83
639.299	6.82
639.631	6.84
639.963	6.85
640.295	6.84
640.626	6.82
640.958	6.79
641.29	6.79
641.621	6.8
641.953	6.72
642.285	6.74
642.616	6.76
642.948	6.78
643.279	6.77
643.61	6.79
643.942	6.84
644.273	6.85
644.604	6.91
644.936	6.89
645.267	6.96
645.598	7.05
645.929	7.04
646.26	7.02
646.591	6.99
646.922	7.06
647.253	7.01
647.584	7.01
647.915	7.02
648.245	7.04
648.576	7.05
648.907	7.1
649.238	7.11
649.568	7.07
649.899	7.05
650.229	7.09
650.56	7.11
650.89	7.07
651.221	7.03
651.551	7.05
651.882	7.04
652.212	6.98
652.542	7.02
652.872	7.01
653.203	7.06
653.533	7.1
653.863	7.09
654.193	7.16
654.523	7.16
654.853	7.19
655.183	7.13
655.513	7.17
655.843	7.16
656.172	7.19
656.502	7.13
656.832	7.15
657.162	7.1
657.491	7.06
657.821	7.13
658.15	7.22
658.48	7.2
658.809	7.24
659.139	7.26
659.468	7.25
659.798	7.3
660.127	7.28
660.456	7.29
660.785	7.3
661.115	7.28
661.444	7.31
661.773	7.32
662.102	7.32
662.431	7.28
662.76	7.25
663.089	7.32
663.418	7.38
663.747	7.37
664.076	7.44
664.404	7.53
664.733	7.44
665.062	7.37
665.39	7.39
665.719	7.47
666.048	7.41
666.376	7.36
666.705	7.38
667.033	7.44
667.362	7.4
667.69	7.35
668.018	7.37
668.347	7.44
668.675	7.47
669.003	7.51
669.331	7.46
669.659	7.57
669.987	7.49
670.315	7.42
670.643	7.48
670.971	7.46
671.299	7.43
671.627	7.44
671.955	7.46
672.283	7.42
672.61	7.35
672.938	7.49
673.266	7.46
673.593	7.38
673.921	7.38
674.249	7.39
674.576	7.51
674.904	7.49
675.231	7.44
675.558	7.46
675.886	7.47
676.213	7.45
676.54	7.48
676.867	7.43
677.195	7.61
677.522	7.64
677.849	7.72
678.176	7.75
678.503	7.77
678.83	7.77
679.157	7.82
679.484	7.78
679.81	7.75
680.137	7.91
680.464	7.94
680.791	7.96
681.117	8.01
681.444	7.93
681.771	7.92
682.097	7.91
682.424	7.85
682.75	7.87
683.077	7.91
683.403	7.92
683.729	8
684.056	7.92
684.382	7.9
684.708	7.8
685.034	7.72
685.36	7.72
685.686	7.7
686.012	7.7
686.339	7.76
686.664	7.76
686.99	7.6
687.316	7.57
687.642	7.52
687.968	7.59
688.294	7.63
688.619	7.63
688.945	7.66
689.271	7.73
689.596	7.71
689.922	7.69
690.247	7.63
690.573	7.67
690.898	7.77
691.224	7.78
691.549	7.84
691.874	7.95
692.2	7.94
692.525	7.99
692.85	8.08
693.175	8.09
693.5	8.02
693.825	8.18
694.15	8.27
694.475	8.28
694.8	8.27
695.125	8.29
695.45	8.38
695.775	8.39
696.099	8.48
696.424	8.46
696.749	8.54
697.073	8.48
697.398	8.45
697.723	8.44
698.047	8.47
698.372	8.53
698.696	8.47
699.02	8.56
699.345	8.55
699.669	8.51
699.993	8.47
700.318	8.5
700.642	8.35
700.966	8.34
701.29	8.37
701.614	8.26
701.938	8.3
702.262	8.28
702.586	8.26
702.91	8.15
703.234	8.13
703.557	8.17
703.881	8.25
704.205	8.16
704.529	8.07
704.852	7.91
705.176	7.76
705.499	7.85
705.823	7.78
706.146	7.79
706.47	7.71
706.793	7.7
707.117	7.67
707.44	7.85
707.763	7.83
708.086	7.82
708.409	7.94
708.733	7.78
709.056	7.87
709.379	8.03
709.702	8.06
710.025	8.11
710.348	8.08
710.671	8.11
710.993	8.1
711.316	8.18
711.639	8.23
711.962	8.35
712.284	8.28
712.607	8.27
712.93	8.3
713.252	8.22
713.575	8.3
713.897	8.33
714.22	8.28
714.542	8.38
714.864	8.38
715.187	8.27
715.509	8.42
715.831	8.28
716.153	8.21
716.475	8.27
716.798	8.31
717.12	8.31
717.442	8.26
717.764	8.41
718.085	8.31
718.407	8.4
718.729	8.44
719.051	8.42
719.373	8.44
719.695	8.41
720.016	8.63
720.338	8.61
720.659	8.71
720.981	8.77
721.302	8.82
721.624	8.89
721.945	8.94
722.267	8.98
722.588	8.96
722.909	8.92
723.231	8.92
723.552	8.99
723.873	9.08
724.194	9.1
724.515	9.18
724.836	9.13
725.157	9.28
725.478	9.21
725.799	9.17
726.12	9.27
726.441	9.24
726.762	9.15
727.083	9.29
727.403	9.24
727.724	9.21
728.045	9.02
728.365	9.07
728.686	9.21
729.006	9.31
729.327	9.34
729.647	9.22
729.967	9.18
730.288	9.17
730.608	9.16
730.928	9.14
731.249	9.05
731.569	9.2
731.889	9.1
732.209	9.02
732.529	9.16
732.849	9.09
733.169	9.06
733.489	9.04
733.809	8.96
734.129	9.03
734.448	8.97
734.768	8.92
735.088	8.91
735.408	8.82
735.727	8.76
736.047	8.88
736.366	8.97
736.686	8.8
737.005	8.86
737.325	8.85
737.644	8.89
737.963	8.87
738.283	8.85
738.602	8.9
738.921	9.06
739.24	9.16
739.56	9.19
739.879	9.34
740.198	9.24
740.517	9.22
740.836	9.3
741.155	9.52
741.473	9.69
741.792	9.69
742.111	9.69
742.43	9.76
742.748	9.92
743.067	10.01
743.386	10.15
743.704	9.86
744.023	9.82
744.341	9.72
744.66	9.81
744.978	9.76
745.297	9.48
745.615	9.38
745.933	9.35
746.252	9.41
746.57	9.36
746.888	9.64
747.206	9.59
747.524	9.54
747.842	9.5
748.16	9.57
748.478	9.43
748.796	9.55
749.114	9.5
749.432	9.34
749.749	9.16
750.067	9.35
750.385	9.51
750.703	9.5
751.02	9.35
751.338	9.11
751.655	9.1
751.973	9.22
752.29	9.49
752.608	9.23
752.925	9.13
753.242	9.29
753.56	9.19
753.877	9.23
754.194	9.41
754.511	9.4
754.828	9.2
755.145	9.25
755.462	9.21
755.779	9.04
756.096	9.01
756.413	9.4
756.73	9.41
757.047	9.68
757.364	9.49
757.68	9.8
757.997	9.95
758.314	10.14
758.63	10.42
758.947	10.42
759.264	10.7
759.58	10.79
759.896	10.58
760.213	10.77
760.529	10.96
760.846	10.67
761.162	10.37
761.478	10.4
761.794	10.6
762.11	10.45
762.426	10.42
762.743	10.4
763.059	10.21
763.375	10.26
763.69	10.13
764.006	10.37
764.322	10.43
764.638	10.46
764.954	10.3
765.27	10.35
765.585	10.2
765.901	10.18
766.216	10.4
766.532	10.28
766.848	10.12
767.163	10.04
767.478	9.73
767.794	9.76
768.109	9.85
768.424	9.65
768.74	9.72
769.055	9.94
769.37	9.86
769.685	9.96
770	9.9
770.315	9.8
770.63	10.02
770.945	9.83
771.26	10.02
771.575	10.2
771.89	9.81
772.205	9.9
772.52	9.69
772.834	9.24
773.149	9.46
773.464	9.63
773.778	9.37
774.093	9.72
774.407	9.93
774.722	10.15
775.036	10.61
775.351	10.76
775.665	10.45
775.979	10.78
776.293	10.88
776.608	10.84
776.922	10.7
777.236	10.6
777.55	10.55
777.864	10.31
778.178	9.99
778.492	9.86
778.806	9.77
779.12	10.07
779.434	10.05
779.747	10.11
780.061	10.07
780.375	10.14
780.689	10.82
781.002	10.77
781.316	10.73
781.629	10.29
781.943	10.45
782.256	10.46
782.57	10.4
782.883	10.17
783.196	10.18
783.51	10.15
783.823	10.07
784.136	10.38
784.449	10.57
784.762	10.88
785.075	11.03
785.388	11.26
785.701	11.09
786.014	11.22
786.327	11.29
786.64	11.34
786.953	11.5
787.266	11.18
787.578	10.99
787.891	10.86
788.204	10.95
788.516	10.91
788.829	11.16
789.141	11.11
789.454	11.26
789.766	11.3
790.079	11.8
790.391	11.5
790.703	11.4
791.016	11.39
791.328	11.78
791.64	11.6
791.952	11.34
792.264	11.09
792.576	11.02
792.888	11.13
793.2	10.83
793.512	10.69
793.824	10.58
794.136	11.05
794.448	10.9
794.76	10.69
795.071	10.62
795.383	10.46
795.695	10.79
796.006	10.5
796.318	10.37
796.629	9.9
796.941	10.04
797.252	10.39
797.564	10.59
797.875	10.04
798.186	10.6
798.497	10.88
798.809	11.13
799.12	11.18
799.431	10.63
799.742	10.85
800.053	10.89
800.364	10.95
800.675	10.76
800.986	10.55
801.297	10.65
801.608	10.43
801.918	10.44
802.229	9.88
802.54	10.1
802.851	10.03
803.161	10.14
803.472	10.43
803.782	9.76
804.093	9.72
804.403	10.02
804.714	9.9
805.024	9.82
805.334	10.03
805.645	10.07
805.955	10.53
806.265	10.65
806.575	10.89
806.885	10.64
807.195	10.83
807.505	11.36
807.815	11.39
808.125	10.83
808.435	10.94
808.745	10.99
809.055	11.16
809.365	11.2
809.674	11.5
809.984	10.95
810.294	11.8
810.603	11.62
810.913	11.34
811.222	11.2
811.532	11.52
811.841	11.52
812.151	11.55
812.46	11.77
812.769	11.8
813.079	11.71
813.388	11.93
813.697	11.87
814.006	11.92
814.315	12.05
814.624	12.88
814.933	13.24
815.242	13.15
815.551	13.28
815.86	13.55
816.169	13.52
816.478	13.94
816.786	12.8
817.095	12.52
817.404	12.76
817.712	12.88
818.021	13
818.33	13
818.638	13.41
818.947	13.68
819.255	13.75
819.563	13.74
819.872	13.76
820.18	13.98
820.488	13.95
820.796	13.94
821.105	13.95
821.413	13.91
821.721	14.05
822.029	14.03
822.337	14.04
822.645	14.06
822.953	13.96
823.26	14
823.568	14
823.876	14.08
824.184	14.12
824.491	13.9
824.799	13.94
825.107	13.82
825.414	13.74
825.722	13.6
826.029	13.62
826.337	13.69
826.644	13.59
826.951	13.58
827.259	13.52
827.566	13.39
827.873	13.35
828.18	13.29
828.488	13.11
828.795	13.28
829.102	13.27
829.409	13.23
829.716	13.52
830.023	13.55
830.329	13.49
830.636	13.35
830.943	13.3
831.25	13.22
831.557	13.6
831.863	13.46
832.17	13.84
832.476	13.7
832.783	13.66
833.089	13.81
833.396	13.85
833.702	14.01
834.009	14.27
834.315	14.29
834.621	14.51
834.928	14.86
835.234	14.36
835.54	14.26
835.846	14.55
836.152	14.38
836.458	14.2
836.764	14.47
837.07	14.54
837.376	15.19
837.682	14.77
837.988	14.09
838.293	13.92
838.599	13.43
838.905	13.74
839.211	13.73
839.516	13.3
839.822	13.5
840.127	13.27
840.433	13.27
840.738	12.65
841.044	12.04
841.349	11.58
841.654	11.25
841.959	11.38
842.265	11.54
842.57	11.82
842.875	12.01
843.18	11.17
843.485	10.58
843.79	9.86
844.095	10.4
844.4	10.87
844.705	11.81
845.01	13.04
845.315	11.6
845.619	11.58
845.924	11.89
846.229	10.54
846.533	9.29
846.838	9.3
847.142	9.94
847.447	10.51
847.751	10.71
848.056	11.36
848.36	10.38
848.664	9.95
848.969	8.87
849.273	7.97
849.577	7.87
849.881	9.69
850.185	8.96
850.489	8.68
850.794	8.38
851.097	6.01
851.401	4.77
851.705	6.01
852.009	6.18
852.313	5.16
852.617	7.99
852.92	10.64
853.224	10.27
853.528	9.63
853.831	8.88
854.135	9.1
854.438	7.8
854.742	8.31
855.045	6.8
855.349	6.35
855.652	7.85
855.955	6.99
856.259	4.96
856.562	5.91
856.865	5.99
857.168	7.48
857.471	9.93
857.774	10.17
858.077	10.54
858.38	9.98
858.683	11.22
858.986	8.16
859.289	5.79
859.592	6.3
859.894	5.92
860.197	6.1
860.5	5.95
860.802	5.34
861.105	5.09
861.407	6.53
861.71	7.52
862.012	8.09
862.315	9.67
862.617	11.29
862.919	11.51
863.222	11.47
863.524	8.77
863.826	7.71
864.128	8
864.43	9.63
864.732	8.48
865.034	8.78
865.336	9.59
865.638	10.67
865.94	12.24
866.242	12.85
866.544	13.23
866.846	13.41
867.147	15.75
867.449	16.32
867.751	14.7
868.052	13.67
868.354	14.89
868.655	13.27
868.957	12.11
869.258	10.29
869.56	11.2
869.861	11.29
870.162	12.95
870.463	11.28
870.765	10.3
871.066	10.16
871.367	7.69
871.668	7.41
871.969	5.62
872.27	3.11
872.571	3.45
872.872	4.03
873.173	3.85
873.473	3.9
873.774	3.22
874.075	4.35
874.376	5.06
874.676	6.27
874.977	7.16
875.277	5.12
875.578	8.29
875.878	7.42
876.179	8.38
876.479	7.12
876.78	8.05
877.08	7.58
877.38	8.48
877.68	10.87
877.981	11.38
878.281	15.29
878.581	16.64
