Data from BA51068_Reflection_00013.txt Node
Date: Tue Nov 19 11:59:13 EST 2019
User: vgr7
Spectrometer: USB2G7710
Scans to average: 3
Trigger mode: 4
Integration Time (sec): 2.000000E-2
Electric dark correction enabled: true
Boxcar width: 10
XAxis mode: Wavelengths
Number of Pixels in Spectrum: 2048
>>>>>Begin Spectral Data<<<<<
177.721	60.54
178.105	-20.69
178.488	-0.64
178.871	21.82
179.254	1500
179.636	894.64
180.019	-76.9
180.402	-83.33
180.785	24.71
181.168	-111.86
181.55	2100
181.933	223.55
182.316	209.92
182.698	130.26
183.081	109.67
183.463	104.96
183.846	1165.57
184.228	-112.55
184.611	-76.54
184.993	-77.48
185.376	-48.52
185.758	-25.66
186.14	-112.17
186.522	-66.89
186.904	-141.76
187.287	-73.85
187.669	-61.59
188.051	-76.02
188.433	-65.51
188.815	-125.6
189.197	-116.7
189.579	-93.73
189.961	-66.84
190.342	-43.52
190.724	-40.81
191.106	-49.03
191.488	-72.23
191.869	-60.94
192.251	-93.2
192.633	-221.87
193.014	-285.67
193.396	-3769.57
193.777	-277.71
194.159	-183.06
194.54	-295.9
194.922	-175.05
195.303	-216.46
195.684	-296.6
196.065	-339.8
196.447	-375.58
196.828	-298.82
197.209	-295.58
197.59	-416.78
197.971	553.61
198.352	116.29
198.733	36.22
199.114	43.46
199.495	-135.67
199.876	0.87
200.257	40.02
200.638	24.96
201.018	116.61
201.399	288.94
201.78	575.41
202.16	-42.86
202.541	-86.44
202.922	-8.79
203.302	-114.95
203.683	-217.24
204.063	-208.47
204.444	-349.78
204.824	-517.02
205.204	-532.41
205.585	-949.59
205.965	-1686.89
206.345	470.56
206.725	366.93
207.106	864.71
207.486	182.47
207.866	208.56
208.246	135.27
208.626	98.19
209.006	122.66
209.386	93.85
209.766	82.98
210.145	84.16
210.525	89.27
210.905	87.62
211.285	69.74
211.664	48.34
212.044	34.61
212.424	20.91
212.803	15.34
213.183	-5.28
213.562	-13.13
213.942	-14.93
214.321	-17.49
214.701	-22.11
215.08	-29.03
215.459	-25.85
215.838	-27.16
216.218	-29.97
216.597	-20.73
216.976	-23.5
217.355	-13.78
217.734	-21.22
218.113	-24.73
218.492	-31.95
218.871	-44.87
219.25	-34.2
219.629	-43.5
220.008	-38.82
220.387	-35.73
220.766	-39
221.144	-41.05
221.523	-29.07
221.902	-19.72
222.28	-12.47
222.659	9.5
223.037	17.66
223.416	22.9
223.794	19.65
224.173	13.04
224.551	23.94
224.929	9.51
225.308	5.63
225.686	10.44
226.064	4.13
226.442	4.74
226.821	7.8
227.199	5.39
227.577	6.35
227.955	3.37
228.333	0.11
228.711	2.27
229.089	6.62
229.467	1.49
229.845	-0.27
230.222	3.25
230.6	0.63
230.978	1.59
231.356	-0.58
231.733	-2.15
232.111	-1.79
232.488	-2.32
232.866	1.94
233.243	1.47
233.621	1.02
233.998	1.72
234.376	3.04
234.753	2.32
235.13	2.92
235.508	3.5
235.885	4.69
236.262	5.87
236.639	4.8
237.016	4.37
237.393	5.14
237.77	5.8
238.147	4.14
238.524	5.43
238.901	4.26
239.278	3.23
239.655	3.78
240.032	4.4
240.409	4.28
240.785	3.92
241.162	4.01
241.539	3.79
241.915	3.66
242.292	3.55
242.668	4.07
243.045	4.41
243.421	4.29
243.798	4.26
244.174	4.24
244.551	4.3
244.927	3.96
245.303	3.9
245.679	3.78
246.056	3.79
246.432	3.55
246.808	3.72
247.184	3.89
247.56	3.64
247.936	3.57
248.312	3.63
248.688	3.42
249.064	3.29
249.44	3.12
249.815	3.08
250.191	3.2
250.567	3.08
250.943	2.55
251.318	2.47
251.694	2.46
252.069	2.46
252.445	2.64
252.82	3.01
253.196	3.2
253.571	3.37
253.947	3.09
254.322	2.87
254.697	2.63
255.073	2.68
255.448	2.91
255.823	3.14
256.198	3.14
256.573	3.33
256.948	3.64
257.323	3.97
257.698	4.08
258.073	3.81
258.448	3.81
258.823	3.98
259.198	3.83
259.573	3.75
259.948	3.76
260.322	3.51
260.697	3.61
261.072	3.54
261.446	3.38
261.821	3.47
262.195	3.56
262.57	3.59
262.944	3.66
263.319	3.72
263.693	3.58
264.067	3.66
264.442	3.58
264.816	3.51
265.19	3.41
265.564	3.48
265.938	3.66
266.313	3.52
266.687	3.47
267.061	3.6
267.435	3.64
267.809	3.38
268.183	3.58
268.556	3.28
268.93	3.43
269.304	3.41
269.678	3.33
270.051	3.3
270.425	3.48
270.799	3.19
271.172	3.22
271.546	3.2
271.919	3.11
272.293	3.17
272.666	3.16
273.04	3.29
273.413	3.17
273.787	3.21
274.16	3.09
274.533	3.22
274.906	3.37
275.279	3.43
275.653	3.58
276.026	3.5
276.399	3.76
276.772	3.84
277.145	3.84
277.518	3.79
277.891	3.77
278.263	3.73
278.636	4.08
279.009	4.14
279.382	4.19
279.755	4.18
280.127	4.11
280.5	4.21
280.872	4.14
281.245	4.32
281.617	4.37
281.99	4.52
282.362	4.53
282.735	4.41
283.107	4.26
283.479	4.28
283.852	4.3
284.224	4.13
284.596	3.89
284.968	3.91
285.34	4.04
285.713	4.08
286.085	4.03
286.457	3.97
286.829	3.94
287.201	3.87
287.572	3.9
287.944	4.14
288.316	3.98
288.688	4.1
289.06	4.03
289.431	4.04
289.803	4
290.175	4.01
290.546	4.09
290.918	4.29
291.289	4.25
291.661	4.27
292.032	4.32
292.403	4.34
292.775	4.42
293.146	4.27
293.517	4.15
293.889	4.17
294.26	4.17
294.631	4.22
295.002	4.2
295.373	4.24
295.744	4.15
296.115	4.11
296.486	4.05
296.857	4.04
297.228	3.99
297.599	4.03
297.97	4.14
298.34	4.07
298.711	4.04
299.082	4.01
299.452	3.9
299.823	3.83
300.194	3.83
300.564	3.73
300.935	3.9
301.305	4.1
301.676	3.88
302.046	3.9
302.416	3.82
302.787	4.01
303.157	3.97
303.527	4.06
303.897	4.14
304.267	4.01
304.637	4.09
305.008	3.93
305.378	4.1
305.748	3.9
306.117	4.01
306.487	4.06
306.857	4.29
307.227	4.63
307.597	4.7
307.967	4.81
308.336	4.89
308.706	5
309.076	5.09
309.445	5.45
309.815	5.58
310.184	5.62
310.554	5.71
310.923	5.71
311.293	5.63
311.662	5.78
312.031	5.98
312.401	6.02
312.77	6.28
313.139	6.13
313.508	6.31
313.877	6.49
314.246	6.43
314.616	6.46
314.985	6.39
315.353	6.6
315.722	6.8
316.091	6.88
316.46	6.92
316.829	7.08
317.198	7.15
317.567	7.24
317.935	7.38
318.304	7.51
318.672	7.87
319.041	7.9
319.41	7.85
319.778	7.87
320.147	7.92
320.515	7.89
320.883	8.2
321.252	8.31
321.62	8.2
321.988	8.29
322.357	8.17
322.725	8.11
323.093	8.1
323.461	8.1
323.829	8.21
324.197	8.13
324.565	8.03
324.933	7.85
325.301	7.83
325.669	7.82
326.037	7.69
326.405	7.5
326.772	7.61
327.14	7.61
327.508	7.62
327.875	7.74
328.243	7.79
328.61	7.67
328.978	7.42
329.346	7.48
329.713	7.68
330.08	7.82
330.448	7.94
330.815	8.01
331.182	7.86
331.55	7.85
331.917	7.91
332.284	7.89
332.651	8.11
333.018	8.05
333.385	8.04
333.752	8.05
334.119	8.22
334.486	8.35
334.853	8.45
335.22	8.46
335.587	8.31
335.954	8.26
336.32	8.28
336.687	8.5
337.054	8.47
337.42	8.41
337.787	8.35
338.153	8.37
338.52	8.42
338.886	8.51
339.253	8.53
339.619	8.67
339.986	8.58
340.352	8.57
340.718	8.43
341.084	8.55
341.451	8.53
341.817	8.51
342.183	8.45
342.549	8.45
342.915	8.47
343.281	8.67
343.647	8.7
344.013	8.74
344.379	8.65
344.745	8.61
345.11	8.6
345.476	8.73
345.842	8.63
346.208	8.64
346.573	8.59
346.939	8.48
347.304	8.43
347.67	8.49
348.035	8.43
348.401	8.52
348.766	8.41
349.132	8.41
349.497	8.48
349.862	8.49
350.228	8.44
350.593	8.38
350.958	8.27
351.323	8.25
351.688	8.26
352.053	8.31
352.418	8.26
352.783	8.25
353.148	8.31
353.513	8.38
353.878	8.21
354.243	8.27
354.608	8.42
354.972	8.46
355.337	8.42
355.702	8.4
356.066	8.45
356.431	8.43
356.795	8.42
357.16	8.26
357.524	8.16
357.889	8.2
358.253	8.19
358.618	8.12
358.982	8.03
359.346	7.96
359.71	7.86
360.075	7.82
360.439	7.79
360.803	7.72
361.167	7.65
361.531	7.65
361.895	7.64
362.259	7.57
362.623	7.53
362.987	7.58
363.351	7.54
363.714	7.46
364.078	7.51
364.442	7.5
364.806	7.46
365.169	7.4
365.533	7.33
365.896	7.39
366.26	7.37
366.623	7.39
366.987	7.38
367.35	7.43
367.714	7.46
368.077	7.45
368.44	7.39
368.803	7.29
369.167	7.25
369.53	7.22
369.893	7.19
370.256	7.09
370.619	6.97
370.982	6.91
371.345	6.88
371.708	6.79
372.071	6.65
372.434	6.53
372.797	6.58
373.159	6.53
373.522	6.39
373.885	6.35
374.247	6.32
374.61	6.29
374.973	6.23
375.335	6.19
375.698	6.11
376.06	6.03
376.423	6.02
376.785	6.01
377.147	5.96
377.51	5.92
377.872	5.85
378.234	5.82
378.596	5.8
378.958	5.76
379.321	5.76
379.683	5.8
380.045	5.87
380.407	5.81
380.769	5.74
381.13	5.72
381.492	5.67
381.854	5.66
382.216	5.6
382.578	5.55
382.939	5.54
383.301	5.52
383.663	5.5
384.024	5.47
384.386	5.43
384.747	5.36
385.109	5.31
385.47	5.29
385.832	5.25
386.193	5.3
386.554	5.24
386.916	5.16
387.277	5.04
387.638	5.04
387.999	4.99
388.36	4.99
388.721	4.96
389.082	4.94
389.443	4.9
389.804	4.89
390.165	4.94
390.526	4.9
390.887	4.82
391.248	4.8
391.609	4.78
391.969	4.77
392.33	4.74
392.691	4.73
393.051	4.7
393.412	4.72
393.772	4.64
394.133	4.64
394.493	4.66
394.854	4.67
395.214	4.63
395.574	4.58
395.935	4.54
396.295	4.49
396.655	4.46
397.015	4.47
397.376	4.43
397.736	4.34
398.096	4.28
398.456	4.26
398.816	4.21
399.176	4.21
399.535	4.17
399.895	4.13
400.255	4.14
400.615	4.11
400.975	4.05
401.334	4.06
401.694	4.03
402.054	4
402.413	4
402.773	3.94
403.132	3.95
403.492	3.93
403.851	3.91
404.211	3.9
404.57	3.86
404.929	3.83
405.288	3.82
405.648	3.86
406.007	3.85
406.366	3.82
406.725	3.78
407.084	3.78
407.443	3.8
407.802	3.72
408.161	3.74
408.52	3.71
408.879	3.7
409.238	3.68
409.596	3.63
409.955	3.58
410.314	3.58
410.673	3.56
411.031	3.55
411.39	3.54
411.748	3.54
412.107	3.53
412.465	3.52
412.824	3.45
413.182	3.41
413.54	3.44
413.899	3.45
414.257	3.44
414.615	3.41
414.974	3.41
415.332	3.45
415.69	3.4
416.048	3.4
416.406	3.36
416.764	3.38
417.122	3.38
417.48	3.42
417.838	3.42
418.195	3.39
418.553	3.37
418.911	3.37
419.269	3.35
419.626	3.35
419.984	3.35
420.342	3.37
420.699	3.35
421.057	3.34
421.414	3.35
421.772	3.34
422.129	3.32
422.486	3.3
422.844	3.27
423.201	3.29
423.558	3.28
423.915	3.29
424.273	3.28
424.63	3.27
424.987	3.24
425.344	3.25
425.701	3.25
426.058	3.27
426.415	3.26
426.772	3.25
427.128	3.26
427.485	3.25
427.842	3.25
428.199	3.25
428.555	3.23
428.912	3.2
429.269	3.19
429.625	3.2
429.982	3.19
430.338	3.2
430.695	3.17
431.051	3.2
431.407	3.17
431.764	3.16
432.12	3.16
432.476	3.19
432.832	3.17
433.189	3.14
433.545	3.12
433.901	3.13
434.257	3.13
434.613	3.1
434.969	3.08
435.325	3.08
435.681	3.08
436.036	3.08
436.392	3.1
436.748	3.1
437.104	3.1
437.459	3.1
437.815	3.09
438.171	3.09
438.526	3.08
438.882	3.08
439.237	3.07
439.593	3.06
439.948	3.06
440.304	3.05
440.659	3.08
441.014	3.09
441.369	3.1
441.725	3.09
442.08	3.1
442.435	3.1
442.79	3.09
443.145	3.1
443.5	3.09
443.855	3.06
444.21	3.07
444.565	3.07
444.92	3.06
445.275	3.07
445.629	3.07
445.984	3.06
446.339	3.08
446.693	3.09
447.048	3.08
447.403	3.07
447.757	3.07
448.112	3.07
448.466	3.07
448.82	3.04
449.175	3.03
449.529	3.02
449.883	3.03
450.238	3.04
450.592	3.03
450.946	3.03
451.3	3.04
451.654	3.03
452.008	3.04
452.362	3.04
452.716	3.04
453.07	3.04
453.424	3.03
453.778	3.01
454.132	2.99
454.486	3
454.839	2.99
455.193	2.99
455.547	2.97
455.9	2.97
456.254	2.98
456.607	2.96
456.961	2.97
457.314	2.95
457.668	2.94
458.021	2.93
458.375	2.93
458.728	2.92
459.081	2.93
459.434	2.91
459.787	2.92
460.141	2.91
460.494	2.92
460.847	2.92
461.2	2.91
461.553	2.95
461.906	2.97
462.259	2.96
462.611	2.96
462.964	2.98
463.317	2.97
463.67	2.99
464.022	3.01
464.375	3.03
464.728	3.05
465.08	3.05
465.433	3.08
465.785	3.1
466.138	3.1
466.49	3.09
466.843	3.13
467.195	3.12
467.547	3.12
467.899	3.15
468.252	3.18
468.604	3.19
468.956	3.16
469.308	3.11
469.66	3.14
470.012	3.13
470.364	3.13
470.716	3.14
471.068	3.14
471.42	3.15
471.772	3.14
472.123	3.14
472.475	3.17
472.827	3.17
473.178	3.16
473.53	3.16
473.882	3.17
474.233	3.16
474.585	3.15
474.936	3.17
475.288	3.15
475.639	3.14
475.99	3.12
476.342	3.13
476.693	3.18
477.044	3.16
477.395	3.17
477.746	3.15
478.097	3.15
478.448	3.13
478.8	3.12
479.15	3.1
479.501	3.09
479.852	3.07
480.203	3.08
480.554	3.07
480.905	3.07
481.255	3.06
481.606	3.05
481.957	3.06
482.307	3.05
482.658	3.06
483.009	3.05
483.359	3.05
483.709	3.06
484.06	3.05
484.41	3.05
484.761	3.06
485.111	3.07
485.461	3.07
485.811	3.08
486.162	3.08
486.512	3.09
486.862	3.1
487.212	3.11
487.562	3.11
487.912	3.12
488.262	3.13
488.612	3.14
488.961	3.16
489.311	3.16
489.661	3.17
490.011	3.17
490.36	3.18
490.71	3.19
491.06	3.2
491.409	3.21
491.759	3.22
492.108	3.21
492.458	3.21
492.807	3.22
493.157	3.24
493.506	3.24
493.855	3.26
494.204	3.25
494.554	3.26
494.903	3.28
495.252	3.29
495.601	3.3
495.95	3.33
496.299	3.35
496.648	3.38
496.997	3.37
497.346	3.41
497.695	3.43
498.043	3.44
498.392	3.46
498.741	3.48
499.09	3.5
499.438	3.56
499.787	3.58
500.135	3.61
500.484	3.67
500.832	3.71
501.181	3.71
501.529	3.76
501.878	3.78
502.226	3.83
502.574	3.84
502.923	3.87
503.271	3.92
503.619	3.97
503.967	3.97
504.315	4.03
504.663	4.04
505.011	4.08
505.359	4.1
505.707	4.13
506.055	4.18
506.403	4.24
506.751	4.25
507.098	4.28
507.446	4.33
507.794	4.32
508.141	4.35
508.489	4.41
508.837	4.43
509.184	4.46
509.531	4.49
509.879	4.56
510.226	4.61
510.574	4.64
510.921	4.66
511.268	4.73
511.616	4.77
511.963	4.8
512.31	4.85
512.657	4.91
513.004	4.95
513.351	4.98
513.698	5.02
514.045	5.08
514.392	5.15
514.739	5.21
515.086	5.29
515.432	5.38
515.779	5.42
516.126	5.51
516.473	5.56
516.819	5.62
517.166	5.66
517.512	5.73
517.859	5.8
518.205	5.85
518.552	5.91
518.898	5.97
519.245	6.06
519.591	6.13
519.937	6.21
520.283	6.3
520.629	6.39
520.976	6.47
521.322	6.53
521.668	6.6
522.014	6.67
522.36	6.74
522.706	6.83
523.052	6.94
523.398	7.02
523.743	7.16
524.089	7.3
524.435	7.43
524.781	7.53
525.126	7.62
525.472	7.72
525.817	7.8
526.163	7.9
526.509	7.98
526.854	8.05
527.199	8.1
527.545	8.19
527.89	8.27
528.235	8.36
528.581	8.46
528.926	8.55
529.271	8.64
529.616	8.73
529.961	8.82
530.306	8.92
530.651	9.03
530.996	9.13
531.341	9.24
531.686	9.35
532.031	9.48
532.376	9.6
532.721	9.73
533.065	9.89
533.41	10.01
533.755	10.17
534.099	10.33
534.444	10.52
534.788	10.66
535.133	10.81
535.477	10.97
535.822	11.15
536.166	11.35
536.51	11.58
536.855	11.82
537.199	12.04
537.543	12.27
537.887	12.51
538.231	12.76
538.576	13.01
538.92	13.27
539.264	13.5
539.608	13.75
539.951	13.96
540.295	14.16
540.639	14.37
540.983	14.58
541.327	14.78
541.671	14.98
542.014	15.19
542.358	15.39
542.701	15.6
543.045	15.81
543.389	16
543.732	16.2
544.075	16.43
544.419	16.65
544.762	16.9
545.105	17.17
545.449	17.43
545.792	17.69
546.135	17.98
546.478	18.29
546.821	18.62
547.165	18.98
547.508	19.32
547.851	19.66
548.194	20
548.536	20.33
548.879	20.68
549.222	21.04
549.565	21.42
549.908	21.75
550.25	22.13
550.593	22.51
550.936	22.88
551.278	23.24
551.621	23.63
551.963	24.01
552.306	24.37
552.648	24.74
552.991	25.09
553.333	25.41
553.675	25.74
554.017	26.04
554.36	26.33
554.702	26.65
555.044	27.04
555.386	27.3
555.728	27.71
556.07	28.09
556.412	28.44
556.754	28.76
557.096	29.17
557.438	29.54
557.78	29.91
558.121	30.32
558.463	30.75
558.805	31.16
559.147	31.52
559.488	31.82
559.83	32.21
560.171	32.61
560.513	32.95
560.854	33.3
561.196	33.66
561.537	34.11
561.878	34.5
562.22	34.86
562.561	35.26
562.902	35.53
563.243	35.84
563.584	36.21
563.925	36.57
564.266	36.87
564.607	37.18
564.948	37.5
565.289	37.79
565.63	38
565.971	38.22
566.312	38.5
566.653	38.9
566.993	39.13
567.334	39.36
567.675	39.7
568.015	40.01
568.356	40.32
568.696	40.54
569.037	40.75
569.377	40.99
569.718	41.31
570.058	41.61
570.398	41.85
570.739	42.07
571.079	42.32
571.419	42.59
571.759	42.87
572.099	43.15
572.439	43.38
572.779	43.72
573.119	44.06
573.459	44.31
573.799	44.52
574.139	44.79
574.479	45.03
574.819	45.23
575.158	45.48
575.498	45.68
575.838	46
576.177	46.31
576.517	46.53
576.856	46.73
577.196	46.99
577.535	47.28
577.875	47.59
578.214	47.85
578.553	48.09
578.893	48.32
579.232	48.58
579.571	48.84
579.91	49
580.25	49.15
580.589	49.35
580.928	49.57
581.267	49.76
581.606	49.99
581.945	50.26
582.283	50.43
582.622	50.58
582.961	50.68
583.3	50.8
583.639	51.06
583.977	51.27
584.316	51.49
584.654	51.69
584.993	51.76
585.332	51.96
585.67	52.1
586.008	52.16
586.347	52.24
586.685	52.44
587.024	52.59
587.362	52.69
587.7	52.87
588.038	52.92
588.376	53.06
588.715	53.21
589.053	53.28
589.391	53.45
589.729	53.62
590.067	53.75
590.404	53.91
590.742	54.04
591.08	54.17
591.418	54.25
591.756	54.41
592.093	54.52
592.431	54.62
592.769	54.82
593.106	54.99
593.444	55.16
593.781	55.31
594.119	55.44
594.456	55.51
594.793	55.68
595.131	55.79
595.468	55.97
595.805	56.13
596.143	56.23
596.48	56.37
596.817	56.49
597.154	56.62
597.491	56.71
597.828	56.7
598.165	56.72
598.502	56.88
598.839	56.94
599.176	57.13
599.512	57.25
599.849	57.3
600.186	57.41
600.523	57.54
600.859	57.57
601.196	57.66
601.532	57.8
601.869	57.84
602.205	58.04
602.542	58.1
602.878	58.12
603.215	58.15
603.551	58.11
603.887	58.19
604.223	58.26
604.56	58.33
604.896	58.52
605.232	58.64
605.568	58.65
605.904	58.75
606.24	58.82
606.576	58.9
606.912	59.07
607.248	59.18
607.583	59.26
607.919	59.33
608.255	59.39
608.591	59.51
608.926	59.67
609.262	59.74
609.597	59.83
609.933	59.94
610.268	60.05
610.604	60.21
610.939	60.28
611.275	60.35
611.61	60.39
611.945	60.41
612.281	60.51
612.616	60.67
612.951	60.78
613.286	60.9
613.621	60.89
613.956	60.79
614.291	60.84
614.626	60.91
614.961	61.02
615.296	61.05
615.631	61.17
615.966	61.2
616.3	61.23
616.635	61.22
616.97	61.24
617.304	61.38
617.639	61.54
617.973	61.68
618.308	61.63
618.642	61.8
618.977	61.83
619.311	61.85
619.646	61.84
619.98	61.78
620.314	61.76
620.648	61.92
620.983	62.09
621.317	62.14
621.651	62.08
621.985	62.19
622.319	62.3
622.653	62.29
622.987	62.15
623.321	62.3
623.655	62.39
623.988	62.44
624.322	62.44
624.656	62.31
624.99	62.26
625.323	62.35
625.657	62.3
625.99	62.45
626.324	62.53
626.657	62.51
626.991	62.57
627.324	62.56
627.658	62.54
627.991	62.6
628.324	62.57
628.657	62.5
628.991	62.44
629.324	62.46
629.657	62.48
629.99	62.64
630.323	62.57
630.656	62.69
630.989	62.8
631.322	62.79
631.655	62.8
631.987	62.95
632.32	63.02
632.653	63.11
632.986	63.04
633.318	63.16
633.651	63.28
633.984	63.28
634.316	63.34
634.649	63.41
634.981	63.51
635.313	63.65
635.646	63.95
635.978	63.99
636.31	64.09
636.643	64.15
636.975	64.19
637.307	64.18
637.639	64.09
637.971	64.06
638.303	64.14
638.635	64.38
638.967	64.22
639.299	64.26
639.631	64.37
639.963	64.33
640.295	64.22
640.626	64.24
640.958	64.31
641.29	64.38
641.621	64.44
641.953	64.23
642.285	64.25
642.616	64.19
642.948	64.26
643.279	64.24
643.61	64.18
643.942	64.23
644.273	64.37
644.604	64.46
644.936	64.55
645.267	64.62
645.598	64.56
645.929	64.57
646.26	64.56
646.591	64.53
646.922	64.7
647.253	64.73
647.584	64.62
647.915	64.63
648.245	64.66
648.576	64.56
648.907	64.66
649.238	64.7
649.568	64.85
649.899	64.85
650.229	64.8
650.56	64.86
650.89	64.76
651.221	64.77
651.551	64.68
651.882	64.58
652.212	64.47
652.542	64.44
652.872	64.56
653.203	64.55
653.533	64.47
653.863	64.46
654.193	64.54
654.523	64.69
654.853	64.8
655.183	64.82
655.513	64.94
655.843	64.82
656.172	64.81
656.502	64.64
656.832	64.56
657.162	64.64
657.491	64.71
657.821	64.74
658.15	64.71
658.48	64.77
658.809	64.81
659.139	64.88
659.468	64.92
659.798	65.03
660.127	65.06
660.456	65.13
660.785	65.15
661.115	65.16
661.444	65.05
661.773	64.96
662.102	64.97
662.431	64.87
662.76	65.06
663.089	65.11
663.418	65.11
663.747	65.17
664.076	65.21
664.404	65.13
664.733	65.18
665.062	65.15
665.39	65.11
665.719	65.16
666.048	65.27
666.376	65.39
666.705	65.29
667.033	65.35
667.362	65.47
667.69	65.55
668.018	65.61
668.347	65.68
668.675	65.78
669.003	65.81
669.331	65.99
669.659	65.94
669.987	65.81
670.315	65.81
670.643	65.78
670.971	65.8
671.299	65.91
671.627	66.03
671.955	66.08
672.283	66.3
672.61	66.31
672.938	66.22
673.266	66.15
673.593	66.25
673.921	66.45
674.249	66.4
674.576	66.3
674.904	66.32
675.231	66.31
675.558	66.26
675.886	66.15
676.213	66.16
676.54	66.25
676.867	66.23
677.195	66.38
677.522	66.47
677.849	66.41
678.176	66.3
678.503	66.34
678.83	66.44
679.157	66.26
679.484	66.17
679.81	66.01
680.137	65.85
680.464	65.85
680.791	65.7
681.117	65.66
681.444	65.73
681.771	65.67
682.097	65.7
682.424	65.76
682.75	65.95
683.077	65.84
683.403	65.84
683.729	66.02
684.056	65.88
684.382	66.07
684.708	66.09
685.034	66.05
685.36	65.91
685.686	65.82
686.012	65.99
686.339	66.09
686.664	66.39
686.99	66.59
687.316	66.54
687.642	66.4
687.968	66.5
688.294	66.32
688.619	66.33
688.945	66.28
689.271	66.18
689.596	66.09
689.922	66.13
690.247	66
690.573	66.04
690.898	66.25
691.224	66.07
691.549	66.12
691.874	66.14
692.2	66.24
692.525	66.18
692.85	66.01
693.175	65.89
693.5	65.6
693.825	65.61
694.15	65.58
694.475	65.75
694.8	65.75
695.125	65.8
695.45	65.77
695.775	65.83
696.099	65.91
696.424	65.92
696.749	65.9
697.073	66
697.398	65.84
697.723	65.71
698.047	65.71
698.372	65.58
698.696	65.57
699.02	65.59
699.345	65.68
699.669	65.78
699.993	66
700.318	66.13
700.642	66.01
700.966	66.09
701.29	66.09
701.614	66.02
701.938	66.13
702.262	66.13
702.586	66.1
702.91	66.2
703.234	66.06
703.557	66.03
703.881	65.93
704.205	66.03
704.529	66.08
704.852	66.14
705.176	66.37
705.499	66.72
705.823	66.59
706.146	66.67
706.47	66.74
706.793	66.54
707.117	66.6
707.44	66.63
707.763	66.54
708.086	66.7
708.409	66.59
708.733	66.7
709.056	66.84
709.379	66.84
709.702	66.65
710.025	66.69
710.348	66.72
710.671	66.68
710.993	66.59
711.316	66.59
711.639	66.45
711.962	66.36
712.284	66.17
712.607	66.31
712.93	66.18
713.252	66.09
713.575	66.17
713.897	66.21
714.22	66.22
714.542	66.29
714.864	66.27
715.187	66.26
715.509	66.07
715.831	66
716.153	66
716.475	66.16
716.798	66.05
717.12	66.09
717.442	66.18
717.764	66.26
718.085	66.27
718.407	66.47
718.729	66.47
719.051	66.47
719.373	66.38
719.695	66.4
720.016	66.37
720.338	66.67
720.659	66.58
720.981	66.62
721.302	66.7
721.624	66.57
721.945	66.64
722.267	66.89
722.588	66.89
722.909	66.89
723.231	66.76
723.552	67
723.873	67.09
724.194	67.13
724.515	67.03
724.836	67.02
725.157	66.95
725.478	67.07
725.799	67.04
726.12	67.08
726.441	67.1
726.762	67.02
727.083	66.81
727.403	66.71
727.724	66.57
728.045	66.48
728.365	66.52
728.686	66.32
729.006	66.07
729.327	65.98
729.647	66
729.967	66
730.288	66.02
730.608	66.17
730.928	66.19
731.249	66.12
731.569	65.97
731.889	66.07
732.209	66.14
732.529	66.16
732.849	66
733.169	66.13
733.489	66.02
733.809	66.05
734.129	66.14
734.448	66.28
734.768	66.44
735.088	66.41
735.408	66.57
735.727	67.03
736.047	67
736.366	67.23
736.686	67.24
737.005	66.84
737.325	66.65
737.644	66.7
737.963	66.76
738.283	66.72
738.602	66.42
738.921	66.09
739.24	66.2
739.56	66.43
739.879	66.27
740.198	66.5
740.517	66.22
740.836	66.28
741.155	66.22
741.473	65.95
741.792	65.89
742.111	65.98
742.43	65.31
742.748	65.39
743.067	65.18
743.386	65.22
743.704	65.68
744.023	65.68
744.341	65.59
744.66	65.65
744.978	65.77
745.297	66.15
745.615	66.16
745.933	66.07
746.252	66.23
746.57	65.86
746.888	65.87
747.206	65.59
747.524	65.5
747.842	65.44
748.16	65.48
748.478	65.31
748.796	65.3
749.114	65.51
749.432	65.54
749.749	65.46
750.067	65.16
750.385	65.18
750.703	65.23
751.02	65.76
751.338	65.8
751.655	66.24
751.973	66
752.29	66.36
752.608	66.47
752.925	66.49
753.242	66.92
753.56	66.73
753.877	66.6
754.194	66.62
754.511	66.77
754.828	67.24
755.145	67.39
755.462	67.42
755.779	67.75
756.096	67.96
756.413	67.98
756.73	67.91
757.047	67.57
757.364	67.31
757.68	66.44
757.997	66.43
758.314	66.18
758.63	66.42
758.947	66.17
759.264	65.78
759.58	65.62
759.896	65.59
760.213	65.53
760.529	66.08
760.846	66.21
761.162	66.11
761.478	65.77
761.794	65.76
762.11	65.88
762.426	65.76
762.743	65.67
763.059	65.59
763.375	65.69
763.69	65.87
764.006	66.2
764.322	66.6
764.638	66.46
764.954	66.52
765.27	66.33
765.585	66.38
765.901	66.57
766.216	66.26
766.532	66.09
766.848	66.28
767.163	66.19
767.478	66.31
767.794	66.41
768.109	66.43
768.424	66.38
768.74	65.89
769.055	66.19
769.37	66.16
769.685	66.2
770	66.17
770.315	65.95
770.63	65.63
770.945	65.31
771.26	65.35
771.575	65.45
771.89	65.3
772.205	64.94
772.52	64.77
772.834	65.73
773.149	66.15
773.464	65.85
773.778	66.21
774.093	66.03
774.407	65.99
774.722	65.89
775.036	66.02
775.351	66.65
775.665	65.83
775.979	65.92
776.293	66.42
776.608	67.06
776.922	67.03
777.236	66.95
777.55	66.9
777.864	67.36
778.178	67.2
778.492	67.22
778.806	68.02
779.12	68.82
779.434	67.87
779.747	67.51
780.061	67.44
780.375	67.01
780.689	67.1
781.002	67.11
781.316	67.34
781.629	66.92
781.943	66.81
782.256	66.89
782.57	66.85
782.883	66.55
783.196	65.85
783.51	66.22
783.823	66.71
784.136	66.45
784.449	65.98
784.762	65.8
785.075	65.61
785.388	65.55
785.701	65.09
786.014	65.37
786.327	65.75
786.64	66.12
786.953	66.15
787.266	65.52
787.578	65.47
787.891	65.35
788.204	65.83
788.516	66.19
788.829	66.24
789.141	65.85
789.454	65.92
789.766	66.22
790.079	65.73
790.391	65.67
790.703	66.31
791.016	66.7
791.328	66.95
791.64	67.01
791.952	66.08
792.264	65.77
792.576	65.87
792.888	65.69
793.2	65.77
793.512	65.09
793.824	66
794.136	65.93
794.448	65.67
794.76	65.87
795.071	64.98
795.383	64.64
795.695	65.4
796.006	65.03
796.318	65.07
796.629	65.82
796.941	66.23
797.252	66.28
797.564	65.74
797.875	65.38
798.186	65.13
798.497	65.11
798.809	65.03
799.12	64.86
799.431	64.95
799.742	64.59
800.053	65.68
800.364	65.1
800.675	64.67
800.986	65.1
801.297	64.66
801.608	65.12
801.918	65.2
802.229	64.63
802.54	64.36
802.851	63.33
803.161	62.9
803.472	62.48
803.782	62.42
804.093	62.89
804.403	62.98
804.714	63.09
805.024	64.1
805.334	64.55
805.645	64.7
805.955	64.49
806.265	65.28
806.575	64.72
806.885	64.16
807.195	64.96
807.505	65.17
807.815	65.26
808.125	64.65
808.435	64.98
808.745	65.33
809.055	66.34
809.365	67.35
809.674	67.92
809.984	67.74
810.294	67.28
810.603	66.74
810.913	66.36
811.222	67.37
811.532	66.13
811.841	65.94
812.151	65.92
812.46	66.27
812.769	65.26
813.079	65.65
813.388	66.01
813.697	65.28
814.006	64.65
814.315	63.85
814.624	64.39
814.933	64.75
815.242	64.19
815.551	62.98
815.86	63.93
816.169	63.58
816.478	64.01
816.786	64.07
817.095	64.75
817.404	64.79
817.712	64.85
818.021	65.72
818.33	65.47
818.638	66.01
818.947	66.63
819.255	67.43
819.563	67.44
819.872	67.25
820.18	67.25
820.488	67.01
820.796	67.43
821.105	67.69
821.413	67.48
821.721	67.37
822.029	67.74
822.337	67.26
822.645	67.29
822.953	67.16
823.26	67.08
823.568	66.79
823.876	66.97
824.184	66.8
824.491	66.88
824.799	66.9
825.107	66.8
825.414	66.74
825.722	66.55
826.029	66.49
826.337	66.47
826.644	66.58
826.951	66.72
827.259	66.74
827.566	66.62
827.873	66.42
828.18	66.46
828.488	66.22
828.795	66.62
829.102	66.57
829.409	66.39
829.716	66.69
830.023	67.39
830.329	67.55
830.636	68.11
830.943	68.29
831.25	68.28
831.557	68.18
831.863	67.87
832.17	67.99
832.476	68.15
832.783	68.91
833.089	68.75
833.396	68.85
833.702	68.68
834.009	68.68
834.315	69.85
834.621	70.49
834.928	70.57
835.234	70.13
835.54	70.51
835.846	70.96
836.152	71.11
836.458	69.92
836.764	69.45
837.07	69.01
837.376	68.62
837.682	68.79
837.988	69.07
838.293	69.28
838.599	69.68
838.905	69.84
839.211	69.19
839.516	69.58
839.822	69.22
840.127	70.6
840.433	69.9
840.738	69.09
841.044	68.88
841.349	69.7
841.654	68.58
841.959	68.41
842.265	67.29
842.57	66.15
842.875	67.85
843.18	68.4
843.485	68.75
843.79	68.83
844.095	69.47
844.4	70.03
844.705	68.77
845.01	66.79
845.315	65.58
845.619	65.89
845.924	66.15
846.229	66.99
846.533	65.19
846.838	66.34
847.142	66.48
847.447	66.35
847.751	64.32
848.056	67.18
848.36	64.49
848.664	67.35
848.969	68.31
849.273	69.19
849.577	70.27
849.881	68.03
850.185	68.13
850.489	68.96
850.794	67.26
851.097	66.66
851.401	67.18
851.705	67.99
852.009	67.14
852.313	67.77
852.617	67.33
852.92	65.78
853.224	64.78
853.528	64.25
853.831	64.25
854.135	62.95
854.438	63.76
854.742	66.48
855.045	64.77
855.349	62.62
855.652	61.86
855.955	59.79
856.259	61.62
856.562	61.27
856.865	60.72
857.168	60.22
857.471	63.2
857.774	64.43
858.077	63.2
858.38	65.71
858.683	65.12
858.986	66.09
859.289	68.22
859.592	68.1
859.894	68.26
860.197	66.55
860.5	70.52
860.802	70.09
861.105	67.82
861.407	67.44
861.71	69.38
862.012	68.15
862.315	68.94
862.617	68.02
862.919	67.53
863.222	67.74
863.524	67.25
863.826	65.28
864.128	67.61
864.43	69.06
864.732	71.42
865.034	71.01
865.336	69.43
865.638	68.33
865.94	69.17
866.242	71.5
866.544	71.02
866.846	69.96
867.147	64.94
867.449	67.2
867.751	66.25
868.052	68.53
868.354	70.74
868.655	72.05
868.957	74.2
869.258	76.98
869.56	76.7
869.861	80.32
870.162	83.88
870.463	82.14
870.765	80.66
871.066	75.81
871.367	74.58
871.668	76.93
871.969	76.55
872.27	76.1
872.571	74.19
872.872	73.23
873.173	73.74
873.473	75.73
873.774	71.91
874.075	72.93
874.376	71.81
874.676	69.94
874.977	69.2
875.277	64.5
875.578	63.57
875.878	62.26
876.179	59.86
876.479	56.96
876.78	55.5
877.08	56.58
877.38	57.09
877.68	57.83
877.981	55.96
878.281	55.99
878.581	56.05
