Data from BA51245_Reflection_00004.txt Node
Date: Tue Nov 19 11:51:38 EST 2019
User: vgr7
Spectrometer: USB2G7710
Scans to average: 3
Trigger mode: 4
Integration Time (sec): 2.000000E-2
Electric dark correction enabled: true
Boxcar width: 10
XAxis mode: Wavelengths
Number of Pixels in Spectrum: 2048
>>>>>Begin Spectral Data<<<<<
177.721	-298.55
178.105	338.1
178.488	614.49
178.871	-277.78
179.254	-136.84
179.636	-83.76
180.019	-495.24
180.402	38.1
180.785	111.11
181.168	160.61
181.55	406.45
181.933	103.76
182.316	58.87
182.698	72.08
183.081	84.02
183.463	97.38
183.846	103.94
184.228	250.6
184.611	137.19
184.993	400
185.376	-151.77
185.758	-163.82
186.14	-355.56
186.522	-217.26
186.904	-139.68
187.287	-113.95
187.669	-88.89
188.051	-102.29
188.433	-97.2
188.815	-75.56
189.197	-96.31
189.579	-81.91
189.961	-72.01
190.342	-61.56
190.724	-64.48
191.106	-49.15
191.488	-30.71
191.869	-43.58
192.251	-48.77
192.633	-47.15
193.014	-82.63
193.396	-108.66
193.777	-62.71
194.159	-44.71
194.54	-36.66
194.922	-52.61
195.303	-41.58
195.684	-60.3
196.065	-55.95
196.447	-62.03
196.828	-61.26
197.209	-40.39
197.59	-54.45
197.971	-51.35
198.352	-49.8
198.733	-74.36
199.114	-79.08
199.495	-103.38
199.876	-95.47
200.257	-92.51
200.638	-93.53
201.018	-87.29
201.399	-74.81
201.78	-75.76
202.16	-85.16
202.541	-106.87
202.922	-94.7
203.302	-95.87
203.683	-90.65
204.063	-99.29
204.444	-84.88
204.824	-97.96
205.204	-95.35
205.585	-85.43
205.965	-84.43
206.345	-85.26
206.725	-55.08
207.106	-40.1
207.486	-37.71
207.866	-30.23
208.246	-19.48
208.626	-26.78
209.006	-20.06
209.386	-19.69
209.766	-22.44
210.145	-27.28
210.525	-26.12
210.905	-28.04
211.285	-22.95
211.664	-17.3
212.044	-15.98
212.424	-12.15
212.803	-12.8
213.183	-12.44
213.562	-9.21
213.942	-17.62
214.321	-15.17
214.701	-34.29
215.08	-48.48
215.459	-47.19
215.838	-67.08
216.218	-82.68
216.597	-71.04
216.976	-113.77
217.355	-108.4
217.734	-108.55
218.113	-100.17
218.492	-106.64
218.871	-91.26
219.25	-132.03
219.629	-215.86
220.008	-216.33
220.387	-200
220.766	-130.71
221.144	-118.96
221.523	-116.6
221.902	-97.7
222.28	-87.29
222.659	-57.06
223.037	-64.9
223.416	-55.5
223.794	-44.26
224.173	-45.11
224.551	-40.2
224.929	-45.03
225.308	-56.4
225.686	-53.37
226.064	-58.13
226.442	-55.59
226.821	-51.3
227.199	-39.34
227.577	-31.9
227.955	-25.05
228.333	-23.68
228.711	-22.28
229.089	-24.03
229.467	-20.18
229.845	-23.73
230.222	-22.91
230.6	-25.44
230.978	-26
231.356	-25.63
231.733	-23.99
232.111	-21.26
232.488	-20.54
232.866	-15.23
233.243	-11.98
233.621	-11.62
233.998	-10.16
234.376	-8.95
234.753	-9.72
235.13	-12.13
235.508	-11.64
235.885	-11.12
236.262	-11.25
236.639	-11.8
237.016	-10.22
237.393	-8.62
237.77	-7.18
238.147	-6.47
238.524	-5.23
238.901	-3.1
239.278	-2.23
239.655	-2.1
240.032	-1.46
240.409	-1.15
240.785	-0.8
241.162	-0.21
241.539	0.19
241.915	0.44
242.292	0.33
242.668	1.02
243.045	1.98
243.421	2.09
243.798	1.8
244.174	2.05
244.551	2.36
244.927	2.8
245.303	2.6
245.679	2.99
246.056	3.06
246.432	3.32
246.808	3.34
247.184	3.24
247.56	3.29
247.936	3.46
248.312	3.14
248.688	3.19
249.064	3.01
249.44	2.95
249.815	2.96
250.191	2.97
250.567	2.81
250.943	2.76
251.318	2.67
251.694	2.55
252.069	2.58
252.445	2.7
252.82	2.66
253.196	2.61
253.571	2.56
253.947	2.44
254.322	2.11
254.697	2.32
255.073	2.53
255.448	2.52
255.823	2.61
256.198	3.1
256.573	3.19
256.948	3.81
257.323	3.94
257.698	4.16
258.073	4
258.448	4.3
258.823	4.13
259.198	4.17
259.573	4.25
259.948	4.11
260.322	4.12
260.697	4.2
261.072	4.25
261.446	4.17
261.821	3.96
262.195	3.82
262.57	3.58
262.944	3.67
263.319	3.61
263.693	3.48
264.067	3.38
264.442	3.21
264.816	2.85
265.19	2.52
265.564	2.46
265.938	2.5
266.313	2.04
266.687	2.12
267.061	2.07
267.435	2.25
267.809	2.44
268.183	2.33
268.556	2.16
268.93	2.27
269.304	2.1
269.678	2.54
270.051	2.81
270.425	3.08
270.799	2.75
271.172	2.96
271.546	3.21
271.919	3.21
272.293	3.42
272.666	3.48
273.04	3.6
273.413	3.46
273.787	3.69
274.16	3.65
274.533	3.74
274.906	3.85
275.279	3.79
275.653	3.81
276.026	3.81
276.399	3.86
276.772	3.83
277.145	4
277.518	3.86
277.891	3.9
278.263	3.88
278.636	4.03
279.009	4.07
279.382	3.97
279.755	4.05
280.127	3.79
280.5	3.87
280.872	3.68
281.245	3.84
281.617	3.76
281.99	3.93
282.362	3.82
282.735	3.78
283.107	3.78
283.479	3.85
283.852	3.93
284.224	3.85
284.596	3.82
284.968	3.8
285.34	3.88
285.713	3.85
286.085	3.7
286.457	3.62
286.829	3.4
287.201	3.21
287.572	3.17
287.944	3.3
288.316	3.26
288.688	3.38
289.06	3.36
289.431	3.47
289.803	3.6
290.175	3.62
290.546	3.58
290.918	3.68
291.289	3.47
291.661	3.46
292.032	3.63
292.403	3.58
292.775	3.63
293.146	3.54
293.517	3.66
293.889	3.8
294.26	3.92
294.631	4.07
295.002	4.28
295.373	4.23
295.744	4.33
296.115	4.29
296.486	4.4
296.857	4.33
297.228	4.17
297.599	4.17
297.97	4.13
298.34	4.08
298.711	3.97
299.082	4
299.452	4
299.823	3.92
300.194	4.07
300.564	3.94
300.935	4.02
301.305	3.92
301.676	3.84
302.046	3.72
302.416	3.8
302.787	3.7
303.157	3.65
303.527	3.58
303.897	3.53
304.267	3.45
304.637	3.47
305.008	3.6
305.378	3.48
305.748	3.39
306.117	3.49
306.487	3.56
306.857	3.66
307.227	3.73
307.597	3.73
307.967	3.57
308.336	3.75
308.706	3.8
309.076	3.97
309.445	4
309.815	4.05
310.184	3.95
310.554	3.9
310.923	3.86
311.293	3.91
311.662	3.91
312.031	3.8
312.401	3.81
312.77	3.61
313.139	3.66
313.508	3.7
313.877	3.62
314.246	3.62
314.616	3.59
314.985	3.42
315.353	3.34
315.722	3.59
316.091	3.49
316.46	3.4
316.829	3.13
317.198	3.1
317.567	3.18
317.935	3.2
318.304	3.32
318.672	3.6
319.041	3.6
319.41	3.53
319.778	3.6
320.147	3.58
320.515	3.63
320.883	3.65
321.252	3.63
321.62	3.61
321.988	3.45
322.357	3.38
322.725	3.5
323.093	3.56
323.461	3.5
323.829	3.55
324.197	3.51
324.565	3.6
324.933	3.55
325.301	3.44
325.669	3.45
326.037	3.39
326.405	3.22
326.772	3.06
327.14	3.21
327.508	3.14
327.875	3.21
328.243	3.25
328.61	3.14
328.978	3.2
329.346	3.36
329.713	3.53
330.08	3.61
330.448	3.65
330.815	3.62
331.182	3.21
331.55	3.13
331.917	3.13
332.284	3.22
332.651	3.39
333.018	3.48
333.385	3.52
333.752	3.45
334.119	3.61
334.486	3.76
334.853	3.68
335.22	3.77
335.587	3.54
335.954	3.44
336.32	3.5
336.687	3.5
337.054	3.34
337.42	3.19
337.787	3.03
338.153	2.97
338.52	3.04
338.886	3.3
339.253	3.29
339.619	3.26
339.986	3.12
340.352	3.12
340.718	3.08
341.084	3.09
341.451	3.28
341.817	3.11
342.183	3.05
342.549	3.13
342.915	3.2
343.281	3.25
343.647	3.28
344.013	3.25
344.379	3.26
344.745	3.48
345.11	3.58
345.476	3.73
345.842	3.72
346.208	3.62
346.573	3.64
346.939	3.69
347.304	3.67
347.67	3.66
348.035	3.57
348.401	3.48
348.766	3.49
349.132	3.36
349.497	3.54
349.862	3.62
350.228	3.55
350.593	3.46
350.958	3.54
351.323	3.68
351.688	3.65
352.053	3.64
352.418	3.47
352.783	3.37
353.148	3.28
353.513	3.28
353.878	3.29
354.243	3.1
354.608	3.13
354.972	3.22
355.337	3.27
355.702	3.31
356.066	3.34
356.431	3.29
356.795	3.29
357.16	3.23
357.524	3.12
357.889	3.12
358.253	3.14
358.618	3.17
358.982	3.09
359.346	3.1
359.71	3.08
360.075	3.15
360.439	3.23
360.803	3.27
361.167	3.29
361.531	3.31
361.895	3.42
362.259	3.45
362.623	3.45
362.987	3.42
363.351	3.41
363.714	3.44
364.078	3.43
364.442	3.46
364.806	3.52
365.169	3.54
365.533	3.58
365.896	3.68
366.26	3.65
366.623	3.69
366.987	3.75
367.35	3.77
367.714	3.78
368.077	3.78
368.44	3.77
368.803	3.76
369.167	3.74
369.53	3.74
369.893	3.73
370.256	3.68
370.619	3.68
370.982	3.66
371.345	3.66
371.708	3.68
372.071	3.64
372.434	3.57
372.797	3.63
373.159	3.56
373.522	3.48
373.885	3.5
374.247	3.49
374.61	3.37
374.973	3.37
375.335	3.39
375.698	3.33
376.06	3.35
376.423	3.37
376.785	3.42
377.147	3.49
377.51	3.49
377.872	3.51
378.234	3.54
378.596	3.54
378.958	3.54
379.321	3.51
379.683	3.54
380.045	3.6
380.407	3.57
380.769	3.57
381.13	3.55
381.492	3.57
381.854	3.59
382.216	3.67
382.578	3.69
382.939	3.65
383.301	3.71
383.663	3.75
384.024	3.71
384.386	3.71
384.747	3.63
385.109	3.56
385.47	3.58
385.832	3.55
386.193	3.54
386.554	3.51
386.916	3.49
387.277	3.45
387.638	3.4
387.999	3.41
388.36	3.42
388.721	3.44
389.082	3.43
389.443	3.46
389.804	3.49
390.165	3.48
390.526	3.51
390.887	3.48
391.248	3.48
391.609	3.52
391.969	3.54
392.33	3.58
392.691	3.67
393.051	3.62
393.412	3.62
393.772	3.62
394.133	3.65
394.493	3.66
394.854	3.7
395.214	3.69
395.574	3.67
395.935	3.71
396.295	3.76
396.655	3.79
397.015	3.72
397.376	3.69
397.736	3.69
398.096	3.66
398.456	3.65
398.816	3.62
399.176	3.58
399.535	3.53
399.895	3.48
400.255	3.42
400.615	3.43
400.975	3.42
401.334	3.45
401.694	3.5
402.054	3.53
402.413	3.52
402.773	3.54
403.132	3.56
403.492	3.55
403.851	3.51
404.211	3.46
404.57	3.5
404.929	3.52
405.288	3.55
405.648	3.56
406.007	3.56
406.366	3.56
406.725	3.55
407.084	3.56
407.443	3.56
407.802	3.56
408.161	3.63
408.52	3.65
408.879	3.65
409.238	3.64
409.596	3.64
409.955	3.66
410.314	3.68
410.673	3.67
411.031	3.66
411.39	3.66
411.748	3.7
412.107	3.67
412.465	3.66
412.824	3.63
413.182	3.59
413.54	3.58
413.899	3.57
414.257	3.58
414.615	3.59
414.974	3.59
415.332	3.62
415.69	3.58
416.048	3.57
416.406	3.54
416.764	3.53
417.122	3.51
417.48	3.5
417.838	3.48
418.195	3.51
418.553	3.5
418.911	3.49
419.269	3.5
419.626	3.52
419.984	3.52
420.342	3.51
420.699	3.52
421.057	3.54
421.414	3.56
421.772	3.57
422.129	3.55
422.486	3.57
422.844	3.55
423.201	3.55
423.558	3.55
423.915	3.56
424.273	3.55
424.63	3.56
424.987	3.55
425.344	3.55
425.701	3.53
426.058	3.53
426.415	3.52
426.772	3.5
427.128	3.48
427.485	3.48
427.842	3.48
428.199	3.49
428.555	3.47
428.912	3.45
429.269	3.44
429.625	3.45
429.982	3.45
430.338	3.45
430.695	3.45
431.051	3.47
431.407	3.48
431.764	3.49
432.12	3.5
432.476	3.52
432.832	3.52
433.189	3.5
433.545	3.49
433.901	3.51
434.257	3.52
434.613	3.54
434.969	3.53
435.325	3.53
435.681	3.5
436.036	3.53
436.392	3.53
436.748	3.53
437.104	3.53
437.459	3.53
437.815	3.53
438.171	3.52
438.526	3.52
438.882	3.52
439.237	3.51
439.593	3.5
439.948	3.49
440.304	3.49
440.659	3.51
441.014	3.53
441.369	3.54
441.725	3.53
442.08	3.54
442.435	3.53
442.79	3.53
443.145	3.54
443.5	3.51
443.855	3.5
444.21	3.5
444.565	3.49
444.92	3.49
445.275	3.49
445.629	3.48
445.984	3.48
446.339	3.47
446.693	3.45
447.048	3.45
447.403	3.47
447.757	3.45
448.112	3.45
448.466	3.44
448.82	3.41
449.175	3.4
449.529	3.38
449.883	3.4
450.238	3.38
450.592	3.39
450.946	3.4
451.3	3.42
451.654	3.44
452.008	3.44
452.362	3.44
452.716	3.44
453.07	3.44
453.424	3.44
453.778	3.45
454.132	3.49
454.486	3.48
454.839	3.47
455.193	3.47
455.547	3.44
455.9	3.45
456.254	3.46
456.607	3.47
456.961	3.48
457.314	3.47
457.668	3.49
458.021	3.49
458.375	3.49
458.728	3.46
459.081	3.43
459.434	3.43
459.787	3.43
460.141	3.43
460.494	3.44
460.847	3.43
461.2	3.44
461.553	3.42
461.906	3.43
462.259	3.41
462.611	3.43
462.964	3.46
463.317	3.46
463.67	3.48
464.022	3.47
464.375	3.44
464.728	3.43
465.08	3.42
465.433	3.42
465.785	3.43
466.138	3.46
466.49	3.46
466.843	3.46
467.195	3.46
467.547	3.47
467.899	3.46
468.252	3.48
468.604	3.48
468.956	3.49
469.308	3.48
469.66	3.53
470.012	3.52
470.364	3.51
470.716	3.51
471.068	3.48
471.42	3.5
471.772	3.53
472.123	3.54
472.475	3.57
472.827	3.56
473.178	3.56
473.53	3.57
473.882	3.57
474.233	3.55
474.585	3.54
474.936	3.54
475.288	3.54
475.639	3.54
475.99	3.54
476.342	3.54
476.693	3.56
477.044	3.55
477.395	3.53
477.746	3.52
478.097	3.52
478.448	3.55
478.8	3.53
479.15	3.54
479.501	3.55
479.852	3.52
480.203	3.53
480.554	3.53
480.905	3.53
481.255	3.55
481.606	3.56
481.957	3.57
482.307	3.57
482.658	3.56
483.009	3.56
483.359	3.56
483.709	3.56
484.06	3.55
484.41	3.56
484.761	3.57
485.111	3.58
485.461	3.58
485.811	3.58
486.162	3.58
486.512	3.59
486.862	3.6
487.212	3.62
487.562	3.62
487.912	3.62
488.262	3.62
488.612	3.62
488.961	3.64
489.311	3.63
489.661	3.62
490.011	3.64
490.36	3.63
490.71	3.64
491.06	3.64
491.409	3.64
491.759	3.64
492.108	3.63
492.458	3.63
492.807	3.63
493.157	3.65
493.506	3.66
493.855	3.65
494.204	3.63
494.554	3.61
494.903	3.62
495.252	3.62
495.601	3.62
495.95	3.61
496.299	3.6
496.648	3.6
496.997	3.62
497.346	3.63
497.695	3.64
498.043	3.66
498.392	3.66
498.741	3.7
499.09	3.7
499.438	3.73
499.787	3.73
500.135	3.73
500.484	3.71
500.832	3.71
501.181	3.73
501.529	3.79
501.878	3.81
502.226	3.81
502.574	3.82
502.923	3.83
503.271	3.82
503.619	3.84
503.967	3.87
504.315	3.86
504.663	3.81
505.011	3.8
505.359	3.78
505.707	3.79
506.055	3.78
506.403	3.78
506.751	3.77
507.098	3.79
507.446	3.79
507.794	3.83
508.141	3.82
508.489	3.8
508.837	3.76
509.184	3.77
509.531	3.76
509.879	3.76
510.226	3.74
510.574	3.77
510.921	3.75
511.268	3.74
511.616	3.76
511.963	3.79
512.31	3.81
512.657	3.81
513.004	3.79
513.351	3.79
513.698	3.79
514.045	3.81
514.392	3.8
514.739	3.8
515.086	3.79
515.432	3.8
515.779	3.81
516.126	3.81
516.473	3.82
516.819	3.82
517.166	3.83
517.512	3.85
517.859	3.83
518.205	3.82
518.552	3.82
518.898	3.81
519.245	3.82
519.591	3.81
519.937	3.84
520.283	3.84
520.629	3.85
520.976	3.85
521.322	3.86
521.668	3.87
522.014	3.88
522.36	3.87
522.706	3.88
523.052	3.87
523.398	3.87
523.743	3.87
524.089	3.87
524.435	3.86
524.781	3.86
525.126	3.87
525.472	3.89
525.817	3.88
526.163	3.89
526.509	3.89
526.854	3.89
527.199	3.89
527.545	3.89
527.89	3.88
528.235	3.88
528.581	3.87
528.926	3.87
529.271	3.88
529.616	3.89
529.961	3.89
530.306	3.89
530.651	3.9
530.996	3.9
531.341	3.92
531.686	3.93
532.031	3.93
532.376	3.94
532.721	3.95
533.065	3.96
533.41	3.95
533.755	3.96
534.099	3.97
534.444	3.97
534.788	3.99
535.133	3.99
535.477	4
535.822	4
536.166	4
536.51	4
536.855	4
537.199	4
537.543	4.01
537.887	4.03
538.231	4.03
538.576	4
538.92	4.01
539.264	4.02
539.608	4.02
539.951	4.01
540.295	4.02
540.639	4.03
540.983	4.02
541.327	4.01
541.671	4.01
542.014	4.02
542.358	4.03
542.701	4.04
543.045	4.03
543.389	4.03
543.732	4.04
544.075	4.03
544.419	4.04
544.762	4.04
545.105	4.04
545.449	4.07
545.792	4.07
546.135	4.07
546.478	4.08
546.821	4.07
547.165	4.08
547.508	4.08
547.851	4.07
548.194	4.07
548.536	4.06
548.879	4.07
549.222	4.05
549.565	4.06
549.908	4.05
550.25	4.08
550.593	4.08
550.936	4.07
551.278	4.04
551.621	4.02
551.963	4.05
552.306	4.05
552.648	4.02
552.991	4.03
553.333	4.01
553.675	4.03
554.017	4.05
554.36	4.07
554.702	4.09
555.044	4.09
555.386	4.08
555.728	4.1
556.07	4.11
556.412	4.1
556.754	4.07
557.096	4.07
557.438	4.06
557.78	4.09
558.121	4.1
558.463	4.13
558.805	4.13
559.147	4.12
559.488	4.09
559.83	4.09
560.171	4.1
560.513	4.11
560.854	4.1
561.196	4.09
561.537	4.08
561.878	4.09
562.22	4.09
562.561	4.13
562.902	4.11
563.243	4.11
563.584	4.14
563.925	4.18
564.266	4.19
564.607	4.18
564.948	4.11
565.289	4.13
565.63	4.14
565.971	4.15
566.312	4.14
566.653	4.12
566.993	4.1
567.334	4.08
567.675	4.09
568.015	4.09
568.356	4.09
568.696	4.11
569.037	4.12
569.377	4.12
569.718	4.09
570.058	4.12
570.398	4.08
570.739	4.07
571.079	4.03
571.419	4.04
571.759	4.06
572.099	4.09
572.439	4.08
572.779	4.09
573.119	4.08
573.459	4.08
573.799	4.08
574.139	4.11
574.479	4.12
574.819	4.08
575.158	4.09
575.498	4.1
575.838	4.12
576.177	4.08
576.517	4.09
576.856	4.08
577.196	4.06
577.535	4.09
577.875	4.11
578.214	4.13
578.553	4.07
578.893	4.06
579.232	4.04
579.571	4.04
579.91	4.02
580.25	4.05
580.589	4.05
580.928	4.09
581.267	4.09
581.606	4.11
581.945	4.16
582.283	4.16
582.622	4.13
582.961	4.1
583.3	4.13
583.639	4.12
583.977	4.16
584.316	4.15
584.654	4.16
584.993	4.1
585.332	4.06
585.67	4.13
586.008	4.17
586.347	4.21
586.685	4.14
587.024	4.17
587.362	4.15
587.7	4.14
588.038	4.18
588.376	4.2
588.715	4.18
589.053	4.16
589.391	4.14
589.729	4.14
590.067	4.09
590.404	4.1
590.742	4.13
591.08	4.1
591.418	4.11
591.756	4.09
592.093	4.12
592.431	4.18
592.769	4.18
593.106	4.15
593.444	4.14
593.781	4.17
594.119	4.14
594.456	4.16
594.793	4.19
595.131	4.16
595.468	4.15
595.805	4.14
596.143	4.17
596.48	4.17
596.817	4.17
597.154	4.18
597.491	4.14
597.828	4.1
598.165	4.09
598.502	4.07
598.839	4.12
599.176	4.12
599.512	4.1
599.849	4.09
600.186	4.14
600.523	4.16
600.859	4.19
601.196	4.19
601.532	4.17
601.869	4.13
602.205	4.12
602.542	4.12
602.878	4.15
603.215	4.17
603.551	4.15
603.887	4.19
604.223	4.22
604.56	4.22
604.896	4.25
605.232	4.31
605.568	4.32
605.904	4.28
606.24	4.29
606.576	4.3
606.912	4.28
607.248	4.27
607.583	4.24
607.919	4.21
608.255	4.22
608.591	4.24
608.926	4.26
609.262	4.27
609.597	4.28
609.933	4.27
610.268	4.23
610.604	4.23
610.939	4.23
611.275	4.26
611.61	4.29
611.945	4.27
612.281	4.26
612.616	4.26
612.951	4.3
613.286	4.29
613.621	4.29
613.956	4.35
614.291	4.32
614.626	4.28
614.961	4.29
615.296	4.31
615.631	4.3
615.966	4.27
616.3	4.25
616.635	4.21
616.97	4.19
617.304	4.16
617.639	4.2
617.973	4.16
618.308	4.13
618.642	4.14
618.977	4.15
619.311	4.1
619.646	4.13
619.98	4.09
620.314	4.09
620.648	4.09
620.983	4.04
621.317	4.09
621.651	4.15
621.985	4.17
622.319	4.09
622.653	4.06
622.987	4.08
623.321	4.18
623.655	4.2
623.988	4.23
624.322	4.3
624.656	4.29
624.99	4.26
625.323	4.21
625.657	4.25
625.99	4.24
626.324	4.26
626.657	4.23
626.991	4.26
627.324	4.25
627.658	4.24
627.991	4.24
628.324	4.18
628.657	4.18
628.991	4.16
629.324	4.19
629.657	4.19
629.99	4.23
630.323	4.12
630.656	4.12
630.989	4.13
631.322	4.11
631.655	4.08
631.987	4.14
632.32	4.18
632.653	4.13
632.986	4.11
633.318	4.14
633.651	4.2
633.984	4.14
634.316	4.13
634.649	4.14
634.981	4.18
635.313	4.21
635.646	4.2
635.978	4.25
636.31	4.2
636.643	4.32
636.975	4.29
637.307	4.35
637.639	4.39
637.971	4.35
638.303	4.35
638.635	4.42
638.967	4.45
639.299	4.5
639.631	4.52
639.963	4.49
640.295	4.49
640.626	4.49
640.958	4.47
641.29	4.5
641.621	4.49
641.953	4.41
642.285	4.37
642.616	4.43
642.948	4.43
643.279	4.49
643.61	4.42
643.942	4.43
644.273	4.37
644.604	4.36
644.936	4.4
645.267	4.42
645.598	4.39
645.929	4.23
646.26	4.19
646.591	4.15
646.922	4.29
647.253	4.3
647.584	4.25
647.915	4.38
648.245	4.32
648.576	4.35
648.907	4.44
649.238	4.46
649.568	4.37
649.899	4.38
650.229	4.38
650.56	4.35
650.89	4.36
651.221	4.41
651.551	4.37
651.882	4.32
652.212	4.27
652.542	4.26
652.872	4.3
653.203	4.38
653.533	4.42
653.863	4.4
654.193	4.37
654.523	4.32
654.853	4.26
655.183	4.33
655.513	4.36
655.843	4.32
656.172	4.36
656.502	4.39
656.832	4.4
657.162	4.48
657.491	4.58
657.821	4.61
658.15	4.59
658.48	4.63
658.809	4.66
659.139	4.63
659.468	4.6
659.798	4.64
660.127	4.51
660.456	4.5
660.785	4.46
661.115	4.45
661.444	4.46
661.773	4.48
662.102	4.46
662.431	4.43
662.76	4.49
663.089	4.49
663.418	4.38
663.747	4.42
664.076	4.39
664.404	4.31
664.733	4.26
665.062	4.31
665.39	4.34
665.719	4.35
666.048	4.48
666.376	4.52
666.705	4.56
667.033	4.66
667.362	4.65
667.69	4.62
668.018	4.7
668.347	4.7
668.675	4.67
669.003	4.66
669.331	4.66
669.659	4.57
669.987	4.63
670.315	4.72
670.643	4.63
670.971	4.59
671.299	4.67
671.627	4.65
671.955	4.5
672.283	4.41
672.61	4.41
672.938	4.28
673.266	4.28
673.593	4.18
673.921	4.11
674.249	4.04
674.576	4.15
674.904	4.07
675.231	4.14
675.558	4.13
675.886	4.11
676.213	4.18
676.54	4.31
676.867	4.27
677.195	4.29
677.522	4.32
677.849	4.3
678.176	4.25
678.503	4.26
678.83	4.32
679.157	4.41
679.484	4.36
679.81	4.48
680.137	4.57
680.464	4.61
680.791	4.64
681.117	4.72
681.444	4.62
681.771	4.73
682.097	4.71
682.424	4.8
682.75	4.87
683.077	4.76
683.403	4.69
683.729	4.68
684.056	4.8
684.382	4.84
684.708	4.83
685.034	4.88
685.36	4.9
685.686	4.87
686.012	4.87
686.339	4.97
686.664	4.93
686.99	4.8
687.316	4.78
687.642	4.83
687.968	4.77
688.294	4.87
688.619	4.85
688.945	4.85
689.271	4.8
689.596	4.78
689.922	4.87
690.247	4.92
690.573	4.92
690.898	4.82
691.224	4.82
691.549	4.87
691.874	4.88
692.2	4.87
692.525	4.84
692.85	4.83
693.175	4.87
693.5	4.71
693.825	4.77
694.15	4.73
694.475	4.66
694.8	4.62
695.125	4.59
695.45	4.48
695.775	4.54
696.099	4.49
696.424	4.48
696.749	4.47
697.073	4.38
697.398	4.52
697.723	4.52
698.047	4.54
698.372	4.59
698.696	4.52
699.02	4.58
699.345	4.65
699.669	4.67
699.993	4.59
700.318	4.77
700.642	4.65
700.966	4.77
701.29	4.74
701.614	4.9
701.938	4.82
702.262	4.82
702.586	4.84
702.91	4.83
703.234	4.8
703.557	4.82
703.881	4.97
704.205	4.79
704.529	4.77
704.852	4.62
705.176	4.58
705.499	4.66
705.823	4.58
706.146	4.6
706.47	4.53
706.793	4.64
707.117	4.61
707.44	4.78
707.763	4.76
708.086	4.89
708.409	4.75
708.733	4.83
709.056	4.92
709.379	4.9
709.702	4.95
710.025	4.98
710.348	4.95
710.671	4.92
710.993	4.86
711.316	4.99
711.639	5.1
711.962	5.1
712.284	5.01
712.607	5.04
712.93	5.06
713.252	5.05
713.575	5.11
713.897	4.99
714.22	4.88
714.542	4.96
714.864	4.86
715.187	4.85
715.509	4.85
715.831	4.85
716.153	4.73
716.475	4.69
716.798	4.75
717.12	4.76
717.442	4.69
717.764	4.85
718.085	4.72
718.407	4.52
718.729	4.55
719.051	4.65
719.373	4.67
719.695	4.65
720.016	4.67
720.338	4.61
720.659	4.79
720.981	4.84
721.302	4.82
721.624	4.81
721.945	4.72
722.267	4.78
722.588	4.8
722.909	4.93
723.231	4.71
723.552	4.92
723.873	4.94
724.194	4.94
724.515	4.8
724.836	4.78
725.157	5.09
725.478	4.92
725.799	4.85
726.12	4.77
726.441	4.8
726.762	4.77
727.083	4.8
727.403	4.5
727.724	4.56
728.045	4.54
728.365	4.64
728.686	4.83
729.006	4.75
729.327	4.7
729.647	4.68
729.967	5.01
730.288	4.88
730.608	4.95
730.928	5.07
731.249	5.15
731.569	5.18
731.889	5.02
732.209	5.07
732.529	5.12
732.849	5.26
733.169	5.23
733.489	5.16
733.809	5.08
734.129	5.28
734.448	5.32
734.768	5.26
735.088	5.33
735.408	5.34
735.727	5.3
736.047	5.48
736.366	5.46
736.686	5.24
737.005	5.29
737.325	5.37
737.644	5.38
737.963	5.39
738.283	5.41
738.602	5.72
738.921	5.87
739.24	5.72
739.56	5.74
739.879	5.75
740.198	5.85
740.517	6.04
740.836	6.17
741.155	6.18
741.473	6.1
741.792	5.86
742.111	6.01
742.43	6.36
742.748	6.31
743.067	6.48
743.386	6.5
743.704	6.46
744.023	6.24
744.341	6.08
744.66	5.87
744.978	5.86
745.297	5.66
745.615	5.63
745.933	5.64
746.252	5.71
746.57	5.67
746.888	5.66
747.206	5.39
747.524	5.21
747.842	5.48
748.16	5.85
748.478	6.03
748.796	6.02
749.114	5.84
749.432	5.82
749.749	5.49
750.067	5.43
750.385	5.41
750.703	5.53
751.02	5.62
751.338	5.82
751.655	5.81
751.973	5.84
752.29	5.65
752.608	5.87
752.925	5.97
753.242	6.06
753.56	6.24
753.877	6.31
754.194	6.48
754.511	6.42
754.828	6.21
755.145	6.02
755.462	5.82
755.779	5.73
756.096	5.83
756.413	6.06
756.73	6.33
757.047	5.97
757.364	6.09
757.68	6.03
757.997	6
758.314	5.97
758.63	5.79
758.947	6.02
759.264	6.08
759.58	5.9
759.896	5.82
760.213	5.77
760.529	5.61
760.846	5.52
761.162	5.21
761.478	5.46
761.794	5.55
762.11	5.5
762.426	5.35
762.743	5.09
763.059	5.14
763.375	5.26
763.69	5.61
764.006	5.42
764.322	5.44
764.638	5.44
764.954	5.5
765.27	5.42
765.585	5.24
765.901	5.29
766.216	5.15
766.532	5.19
766.848	5.42
767.163	5.34
767.478	5.1
767.794	5.14
768.109	4.85
768.424	4.65
768.74	4.74
769.055	5.01
769.37	5.12
769.685	4.96
770	4.68
770.315	4.58
770.63	4.97
770.945	4.91
771.26	4.98
771.575	4.71
771.89	4.56
772.205	4.5
772.52	4.34
772.834	4.5
773.149	4.33
773.464	3.59
773.778	3.83
774.093	4.07
774.407	4.16
774.722	4.08
775.036	4.56
775.351	4.52
775.665	4.43
775.979	4.65
776.293	4.55
776.608	4.95
776.922	4.87
777.236	4.32
777.55	4.18
777.864	4.4
778.178	4.3
778.492	4.73
778.806	5.08
779.12	5.22
779.434	5.21
779.747	5.69
780.061	6.32
780.375	6.76
780.689	7.05
781.002	7.21
781.316	7.32
781.629	7.06
781.943	6.87
782.256	6.44
782.57	6.44
782.883	6.85
783.196	6.45
783.51	6.55
783.823	6.8
784.136	6.89
784.449	6.49
784.762	6.67
785.075	7.02
785.388	6.9
785.701	6.59
786.014	6.24
786.327	5.78
786.64	5.81
786.953	5.51
787.266	5.35
787.578	5.18
787.891	5.39
788.204	5.58
788.516	5.88
788.829	6.54
789.141	6.92
789.454	7.03
789.766	7.41
790.079	7.13
790.391	6.91
790.703	7.23
791.016	7.8
791.328	8.04
791.64	7.67
791.952	7.75
792.264	7.97
792.576	7.92
792.888	8.6
793.2	8.35
793.512	8.09
793.824	7.84
794.136	7.62
794.448	7.42
794.76	7.34
795.071	7.12
795.383	7.02
795.695	6.66
796.006	5.94
796.318	5.3
796.629	5.48
796.941	5.55
797.252	4.99
797.564	4.51
797.875	4.03
798.186	4.33
798.497	4.16
798.809	4.17
799.12	4.45
799.431	4
799.742	4.27
800.053	4.36
800.364	4.44
800.675	5.05
800.986	4.48
801.297	4.43
801.608	4.17
801.918	3.74
802.229	3.95
802.54	4.28
802.851	4.37
803.161	4.38
803.472	4.22
803.782	3.92
804.093	3.57
804.403	4.31
804.714	4.15
805.024	4.36
805.334	4
805.645	4.39
805.955	4.44
806.265	4.6
806.575	4.78
806.885	5.13
807.195	4.68
807.505	5.61
807.815	5.47
808.125	6.41
808.435	7.13
808.745	6.96
809.055	7.25
809.365	7.16
809.674	7.45
809.984	7.82
810.294	9.01
810.603	9.56
810.913	9.12
811.222	9.33
811.532	9.06
811.841	9.96
812.151	9.65
812.46	9.61
812.769	8.34
813.079	8.43
813.388	8.35
813.697	7.97
814.006	7.42
814.315	7.59
814.624	6.94
814.933	6.52
815.242	4.96
815.551	4.99
815.86	5.69
816.169	5.5
816.478	5.08
816.786	4.74
817.095	4.39
817.404	5.21
817.712	5.06
818.021	5.76
818.33	5.12
818.638	5.36
818.947	5.35
819.255	5.84
819.563	6.02
819.872	6.23
820.18	6.54
820.488	7.13
820.796	7.3
821.105	7.64
821.413	7.71
821.721	7.95
822.029	7.75
822.337	7.69
822.645	7.51
822.953	7.6
823.26	7.75
823.568	7.68
823.876	7.43
824.184	7.42
824.491	7.43
824.799	7.48
825.107	7.55
825.414	7.61
825.722	7.69
826.029	7.78
826.337	7.85
826.644	8.03
826.951	7.82
827.259	7.74
827.566	7.52
827.873	7.34
828.18	7.55
828.488	7.49
828.795	7.57
829.102	7.51
829.409	7.37
829.716	7.08
830.023	7.11
830.329	7.56
830.636	7.61
830.943	7.14
831.25	6.95
831.557	6.82
831.863	7.16
832.17	7.2
832.476	6.85
832.783	6.31
833.089	6.24
833.396	5.98
833.702	5.99
834.009	5.93
834.315	6.1
834.621	5.78
834.928	6.1
835.234	5.77
835.54	6.06
835.846	6.3
836.152	5.98
836.458	5.92
836.764	5.69
837.07	5.87
837.376	5.8
837.682	5.6
837.988	5.62
838.293	4.92
838.599	4.82
838.905	4.41
839.211	4.43
839.516	3.49
839.822	4.26
840.127	3.82
840.433	4.24
840.738	3.78
841.044	3.83
841.349	3.45
841.654	3.42
841.959	3.42
842.265	2.21
842.57	2.45
842.875	2.67
843.18	2.58
843.485	1.78
843.79	2.59
844.095	3.38
844.4	1.99
844.705	2.11
845.01	0.99
845.315	1.48
845.619	2.26
845.924	1
846.229	-1.16
846.533	-0.62
846.838	-3.29
847.142	-4.33
847.447	-3.72
847.751	-1.73
848.056	-0.49
848.36	0.96
848.664	1.96
848.969	1.71
849.273	0.69
849.577	-0.8
849.881	-1.94
850.185	-2.79
850.489	-3.97
850.794	-2.71
851.097	-2.77
851.401	-2.67
851.705	-3.41
852.009	-2.55
852.313	0.04
852.617	0.65
852.92	2
853.224	4.4
853.528	4.82
853.831	2.97
854.135	0.8
854.438	-0.51
854.742	-2.75
855.045	-3.32
855.349	-4.11
855.652	-1.54
855.955	-0.88
856.259	-0.5
856.562	1.23
856.865	1.96
857.168	1.64
857.471	2.03
857.774	2.21
858.077	2.38
858.38	1.57
858.683	0.88
858.986	0.74
859.289	-0.75
859.592	-0.2
859.894	1.29
860.197	1.68
860.5	1.75
860.802	1.79
861.105	4.51
861.407	5.87
861.71	6.15
862.012	4.93
862.315	4.4
862.617	7.92
862.919	7.18
863.222	6.89
863.524	6.34
863.826	4.87
864.128	7.9
864.43	9.14
864.732	8.44
865.034	8.48
865.336	8.21
865.638	9.22
865.94	6.99
866.242	6.1
866.544	7.92
866.846	8
867.147	6.95
867.449	6.41
867.751	5.89
868.052	7.27
868.354	7.19
868.655	7.68
868.957	5.62
869.258	3.58
869.56	2.1
869.861	2.54
870.162	1.6
870.463	-0.35
870.765	-0.7
871.066	-0.83
871.367	-2.18
871.668	-0.4
871.969	-2.77
872.27	-2.35
872.571	-1.19
872.872	-2.08
873.173	-3.38
873.473	-2.42
873.774	-5.67
874.075	-4.52
874.376	-6.08
874.676	-5.87
874.977	-4.64
875.277	-5.03
875.578	-2.54
875.878	0.34
876.179	0.32
876.479	1.99
876.78	1.77
877.08	1.17
877.38	0.79
877.68	2.81
877.981	1.12
878.281	2.8
878.581	3.4
