Data from BA51245_Reflection_00003.txt Node
Date: Tue Nov 19 11:51:36 EST 2019
User: vgr7
Spectrometer: USB2G7710
Scans to average: 3
Trigger mode: 4
Integration Time (sec): 2.000000E-2
Electric dark correction enabled: true
Boxcar width: 10
XAxis mode: Wavelengths
Number of Pixels in Spectrum: 2048
>>>>>Begin Spectral Data<<<<<
177.721	590.34
178.105	-273.02
178.488	-728.5
178.871	157.41
179.254	24.56
179.636	77.21
180.019	187.3
180.402	16.67
180.785	59.26
181.168	-46.46
181.55	73.12
181.933	116.29
182.316	9.81
182.698	34.86
183.081	32.27
183.463	-14.31
183.846	-40.42
184.228	-30.52
184.611	10.47
184.993	186.67
185.376	13.71
185.758	69.01
186.14	46.91
186.522	83.93
186.904	45.5
187.287	7.41
187.669	12.79
188.051	18.15
188.433	0.34
188.815	11.36
189.197	4.19
189.579	6.1
189.961	23.05
190.342	10.92
190.724	6.44
191.106	8.55
191.488	12.63
191.869	20.39
192.251	19.93
192.633	7.29
193.014	27.81
193.396	15.57
193.777	-14.41
194.159	4.39
194.54	-9.93
194.922	-28.44
195.303	-17.16
195.684	-25.62
196.065	-40.2
196.447	-25.58
196.828	-24.07
197.209	-16.86
197.59	-11.98
197.971	-11.2
198.352	-22.73
198.733	-31.84
199.114	-37.57
199.495	-44.15
199.876	-42.89
200.257	-39.51
200.638	-18.64
201.018	-23.9
201.399	-18.94
201.78	-7.21
202.16	-9.89
202.541	-4.02
202.922	0.17
203.302	-12.85
203.683	-18.23
204.063	-26.48
204.444	-28.55
204.824	-40.36
205.204	-34.23
205.585	-35.88
205.965	-39.08
206.345	-40.44
206.725	-30.2
207.106	-25.99
207.486	-22.48
207.866	-22.37
208.246	-11.17
208.626	-35.2
209.006	-37.23
209.386	-42.88
209.766	-52.36
210.145	-48.71
210.525	-47.89
210.905	-47.91
211.285	-32.84
211.664	-23.3
212.044	-13.64
212.424	-6.65
212.803	-4.32
213.183	-9.48
213.562	-12.27
213.942	-9.64
214.321	-9.31
214.701	-7.2
215.08	-7.21
215.459	-12.64
215.838	-18.58
216.218	-38.01
216.597	-12.93
216.976	-14.79
217.355	8.81
217.734	-6.75
218.113	-14.18
218.492	-30.98
218.871	-28.48
219.25	-44.15
219.629	-101.61
220.008	-119.14
220.387	-122.09
220.766	-80.9
221.144	-74.85
221.523	-67.5
221.902	-62.23
222.28	-53.78
222.659	-39.45
223.037	-53.94
223.416	-45.61
223.794	-36.31
224.173	-35.14
224.551	-39.23
224.929	-37.37
225.308	-44.12
225.686	-40.07
226.064	-42.68
226.442	-34.24
226.821	-34.97
227.199	-35.53
227.577	-26.55
227.955	-24.06
228.333	-23.54
228.711	-22.96
229.089	-20.61
229.467	-19.26
229.845	-22.78
230.222	-22.01
230.6	-29.21
230.978	-22.74
231.356	-21.13
231.733	-18.71
232.111	-15.92
232.488	-16.01
232.866	-12.86
233.243	-9.69
233.621	-6.84
233.998	-6.69
234.376	-6.07
234.753	-5.8
235.13	-6.32
235.508	-4.14
235.885	-4.18
236.262	-4.15
236.639	-5.26
237.016	-6.38
237.393	-5.74
237.77	-4.74
238.147	-3.22
238.524	-0.91
238.901	0.17
239.278	-1.11
239.655	-0.69
240.032	-0.23
240.409	0.32
240.785	0.66
241.162	0.45
241.539	0.34
241.915	0.9
242.292	0.93
242.668	1.63
243.045	2.35
243.421	2.06
243.798	2.45
244.174	2.41
244.551	2.7
244.927	2.88
245.303	2.97
245.679	3
246.056	2.68
246.432	2.72
246.808	2.56
247.184	2.69
247.56	2.33
247.936	2.41
248.312	2.36
248.688	2.31
249.064	2.3
249.44	2.03
249.815	2.08
250.191	2.34
250.567	2.21
250.943	2.23
251.318	2.05
251.694	1.79
252.069	2.06
252.445	1.83
252.82	2.39
253.196	2.39
253.571	2.3
253.947	2.59
254.322	2.13
254.697	1.8
255.073	1.86
255.448	1.94
255.823	2.09
256.198	2.14
256.573	2.16
256.948	2.23
257.323	2.62
257.698	2.74
258.073	2.8
258.448	2.98
258.823	2.58
259.198	2.72
259.573	2.59
259.948	2.37
260.322	2.35
260.697	2.18
261.072	2.11
261.446	2.18
261.821	2.01
262.195	2.2
262.57	2.27
262.944	2.4
263.319	2.52
263.693	2.35
264.067	2.44
264.442	2.46
264.816	2.36
265.19	2.31
265.564	2.14
265.938	2.03
266.313	1.77
266.687	2.11
267.061	2.08
267.435	2.45
267.809	2.38
268.183	2.47
268.556	2.44
268.93	2.54
269.304	2.44
269.678	2.64
270.051	2.65
270.425	2.74
270.799	2.41
271.172	2.36
271.546	2.49
271.919	2.53
272.293	2.41
272.666	2.54
273.04	2.45
273.413	2.48
273.787	2.53
274.16	2.51
274.533	2.42
274.906	2.59
275.279	2.35
275.653	2.49
276.026	2.45
276.399	2.38
276.772	2.34
277.145	2.38
277.518	2.36
277.891	2.35
278.263	2.38
278.636	2.7
279.009	2.82
279.382	2.59
279.755	2.51
280.127	2.67
280.5	2.55
280.872	2.63
281.245	2.44
281.617	2.41
281.99	2.42
282.362	2.32
282.735	2.23
283.107	2.3
283.479	2.34
283.852	2.43
284.224	2.65
284.596	2.58
284.968	2.59
285.34	2.67
285.713	2.67
286.085	2.51
286.457	2.43
286.829	2.33
287.201	2.39
287.572	2.39
287.944	2.44
288.316	2.62
288.688	2.6
289.06	2.86
289.431	2.94
289.803	2.96
290.175	3.21
290.546	3.1
290.918	3.09
291.289	2.95
291.661	2.9
292.032	2.72
292.403	2.66
292.775	2.73
293.146	2.66
293.517	2.46
293.889	2.61
294.26	2.54
294.631	2.6
295.002	2.83
295.373	2.82
295.744	2.77
296.115	2.56
296.486	2.67
296.857	2.51
297.228	2.38
297.599	2.4
297.97	2.42
298.34	2.56
298.711	2.64
299.082	2.76
299.452	2.83
299.823	2.8
300.194	2.93
300.564	2.88
300.935	2.84
301.305	2.9
301.676	2.72
302.046	2.76
302.416	2.75
302.787	2.61
303.157	2.57
303.527	2.56
303.897	2.49
304.267	2.35
304.637	2.5
305.008	2.48
305.378	2.52
305.748	2.27
306.117	2.22
306.487	2.22
306.857	2.2
307.227	2.07
307.597	2
307.967	1.97
308.336	1.87
308.706	1.9
309.076	1.91
309.445	2.1
309.815	2.28
310.184	2.21
310.554	2.11
310.923	2.04
311.293	1.94
311.662	2.04
312.031	2.11
312.401	2
312.77	2
313.139	1.93
313.508	1.91
313.877	1.95
314.246	1.81
314.616	1.9
314.985	2.05
315.353	2.16
315.722	2.24
316.091	2.32
316.46	2.23
316.829	2.38
317.198	2.43
317.567	2.22
317.935	2.23
318.304	2.38
318.672	2.6
319.041	2.77
319.41	2.84
319.778	2.68
320.147	2.55
320.515	2.54
320.883	2.58
321.252	2.62
321.62	2.56
321.988	2.71
322.357	2.64
322.725	2.59
323.093	2.6
323.461	2.7
323.829	2.6
324.197	2.53
324.565	2.32
324.933	2.19
325.301	2.1
325.669	2.32
326.037	2.21
326.405	2.12
326.772	2.11
327.14	2.05
327.508	2.23
327.875	2.4
328.243	2.38
328.61	2.39
328.978	2.43
329.346	2.46
329.713	2.37
330.08	2.28
330.448	2.19
330.815	2.24
331.182	2.06
331.55	2.15
331.917	2.22
332.284	2.32
332.651	2.27
333.018	2.43
333.385	2.21
333.752	2.2
334.119	2.22
334.486	2.16
334.853	2.17
335.22	1.99
335.587	1.95
335.954	1.9
336.32	1.86
336.687	1.86
337.054	1.9
337.42	2
337.787	2.07
338.153	2.15
338.52	2.07
338.886	2.17
339.253	2.15
339.619	2.29
339.986	2.35
340.352	2.55
340.718	2.52
341.084	2.52
341.451	2.57
341.817	2.55
342.183	2.62
342.549	2.68
342.915	2.75
343.281	2.77
343.647	2.92
344.013	2.93
344.379	2.84
344.745	2.85
345.11	2.89
345.476	2.92
345.842	2.92
346.208	2.97
346.573	2.93
346.939	2.87
347.304	2.85
347.67	2.81
348.035	2.71
348.401	2.72
348.766	2.75
349.132	2.79
349.497	2.87
349.862	2.8
350.228	2.69
350.593	2.73
350.958	2.76
351.323	2.59
351.688	2.59
352.053	2.74
352.418	2.67
352.783	2.52
353.148	2.44
353.513	2.4
353.878	2.29
354.243	2.27
354.608	2.42
354.972	2.36
355.337	2.32
355.702	2.35
356.066	2.35
356.431	2.35
356.795	2.31
357.16	2.32
357.524	2.31
357.889	2.45
358.253	2.4
358.618	2.43
358.982	2.52
359.346	2.5
359.71	2.46
360.075	2.55
360.439	2.62
360.803	2.68
361.167	2.76
361.531	2.73
361.895	2.75
362.259	2.74
362.623	2.79
362.987	2.86
363.351	2.79
363.714	2.78
364.078	2.84
364.442	2.9
364.806	2.87
365.169	2.84
365.533	2.83
365.896	2.84
366.26	2.77
366.623	2.77
366.987	2.9
367.35	2.94
367.714	2.89
368.077	2.88
368.44	2.82
368.803	2.77
369.167	2.8
369.53	2.86
369.893	2.83
370.256	2.76
370.619	2.69
370.982	2.66
371.345	2.73
371.708	2.67
372.071	2.57
372.434	2.55
372.797	2.54
373.159	2.5
373.522	2.51
373.885	2.6
374.247	2.6
374.61	2.53
374.973	2.53
375.335	2.51
375.698	2.52
376.06	2.52
376.423	2.53
376.785	2.57
377.147	2.53
377.51	2.5
377.872	2.51
378.234	2.55
378.596	2.63
378.958	2.67
379.321	2.64
379.683	2.67
380.045	2.7
380.407	2.75
380.769	2.75
381.13	2.69
381.492	2.65
381.854	2.66
382.216	2.66
382.578	2.64
382.939	2.66
383.301	2.6
383.663	2.58
384.024	2.55
384.386	2.5
384.747	2.51
385.109	2.56
385.47	2.56
385.832	2.57
386.193	2.57
386.554	2.45
386.916	2.54
387.277	2.51
387.638	2.53
387.999	2.51
388.36	2.54
388.721	2.62
389.082	2.57
389.443	2.55
389.804	2.6
390.165	2.61
390.526	2.59
390.887	2.6
391.248	2.63
391.609	2.67
391.969	2.71
392.33	2.68
392.691	2.65
393.051	2.64
393.412	2.67
393.772	2.67
394.133	2.72
394.493	2.69
394.854	2.71
395.214	2.72
395.574	2.73
395.935	2.71
396.295	2.72
396.655	2.73
397.015	2.75
397.376	2.71
397.736	2.68
398.096	2.66
398.456	2.71
398.816	2.68
399.176	2.63
399.535	2.65
399.895	2.67
400.255	2.68
400.615	2.68
400.975	2.68
401.334	2.7
401.694	2.73
402.054	2.7
402.413	2.72
402.773	2.69
403.132	2.7
403.492	2.68
403.851	2.66
404.211	2.65
404.57	2.65
404.929	2.65
405.288	2.68
405.648	2.67
406.007	2.66
406.366	2.67
406.725	2.69
407.084	2.69
407.443	2.68
407.802	2.64
408.161	2.67
408.52	2.64
408.879	2.67
409.238	2.59
409.596	2.62
409.955	2.58
410.314	2.58
410.673	2.56
411.031	2.58
411.39	2.59
411.748	2.62
412.107	2.62
412.465	2.63
412.824	2.62
413.182	2.65
413.54	2.62
413.899	2.63
414.257	2.61
414.615	2.59
414.974	2.61
415.332	2.66
415.69	2.66
416.048	2.67
416.406	2.64
416.764	2.67
417.122	2.64
417.48	2.66
417.838	2.68
418.195	2.69
418.553	2.7
418.911	2.69
419.269	2.69
419.626	2.67
419.984	2.67
420.342	2.66
420.699	2.64
421.057	2.65
421.414	2.64
421.772	2.66
422.129	2.66
422.486	2.65
422.844	2.64
423.201	2.62
423.558	2.62
423.915	2.62
424.273	2.63
424.63	2.63
424.987	2.66
425.344	2.64
425.701	2.63
426.058	2.63
426.415	2.63
426.772	2.61
427.128	2.61
427.485	2.61
427.842	2.61
428.199	2.62
428.555	2.63
428.912	2.65
429.269	2.63
429.625	2.66
429.982	2.66
430.338	2.69
430.695	2.7
431.051	2.71
431.407	2.71
431.764	2.67
432.12	2.69
432.476	2.66
432.832	2.66
433.189	2.66
433.545	2.62
433.901	2.63
434.257	2.65
434.613	2.65
434.969	2.66
435.325	2.65
435.681	2.65
436.036	2.65
436.392	2.65
436.748	2.67
437.104	2.65
437.459	2.64
437.815	2.61
438.171	2.61
438.526	2.62
438.882	2.61
439.237	2.6
439.593	2.6
439.948	2.62
440.304	2.64
440.659	2.64
441.014	2.68
441.369	2.68
441.725	2.68
442.08	2.69
442.435	2.68
442.79	2.69
443.145	2.68
443.5	2.68
443.855	2.66
444.21	2.65
444.565	2.64
444.92	2.63
445.275	2.64
445.629	2.65
445.984	2.64
446.339	2.66
446.693	2.67
447.048	2.65
447.403	2.65
447.757	2.64
448.112	2.63
448.466	2.63
448.82	2.61
449.175	2.6
449.529	2.59
449.883	2.61
450.238	2.63
450.592	2.64
450.946	2.66
451.3	2.67
451.654	2.68
452.008	2.69
452.362	2.71
452.716	2.7
453.07	2.7
453.424	2.69
453.778	2.66
454.132	2.67
454.486	2.69
454.839	2.67
455.193	2.68
455.547	2.67
455.9	2.65
456.254	2.67
456.607	2.67
456.961	2.67
457.314	2.64
457.668	2.62
458.021	2.59
458.375	2.58
458.728	2.58
459.081	2.59
459.434	2.58
459.787	2.59
460.141	2.6
460.494	2.61
460.847	2.63
461.2	2.65
461.553	2.65
461.906	2.65
462.259	2.64
462.611	2.64
462.964	2.66
463.317	2.67
463.67	2.66
464.022	2.65
464.375	2.66
464.728	2.7
465.08	2.72
465.433	2.74
465.785	2.74
466.138	2.75
466.49	2.74
466.843	2.77
467.195	2.76
467.547	2.74
467.899	2.75
468.252	2.73
468.604	2.72
468.956	2.73
469.308	2.73
469.66	2.75
470.012	2.74
470.364	2.74
470.716	2.74
471.068	2.75
471.42	2.78
471.772	2.78
472.123	2.76
472.475	2.76
472.827	2.75
473.178	2.74
473.53	2.73
473.882	2.72
474.233	2.7
474.585	2.7
474.936	2.71
475.288	2.69
475.639	2.71
475.99	2.7
476.342	2.71
476.693	2.72
477.044	2.72
477.395	2.71
477.746	2.68
478.097	2.69
478.448	2.69
478.8	2.67
479.15	2.65
479.501	2.64
479.852	2.65
480.203	2.66
480.554	2.67
480.905	2.68
481.255	2.7
481.606	2.71
481.957	2.71
482.307	2.71
482.658	2.72
483.009	2.72
483.359	2.72
483.709	2.72
484.06	2.72
484.41	2.72
484.761	2.73
485.111	2.74
485.461	2.74
485.811	2.74
486.162	2.75
486.512	2.75
486.862	2.76
487.212	2.77
487.562	2.77
487.912	2.77
488.262	2.77
488.612	2.76
488.961	2.76
489.311	2.76
489.661	2.76
490.011	2.76
490.36	2.75
490.71	2.75
491.06	2.75
491.409	2.73
491.759	2.73
492.108	2.72
492.458	2.73
492.807	2.72
493.157	2.75
493.506	2.74
493.855	2.75
494.204	2.76
494.554	2.75
494.903	2.75
495.252	2.75
495.601	2.75
495.95	2.75
496.299	2.76
496.648	2.78
496.997	2.8
497.346	2.8
497.695	2.8
498.043	2.82
498.392	2.83
498.741	2.83
499.09	2.86
499.438	2.86
499.787	2.85
500.135	2.84
500.484	2.83
500.832	2.83
501.181	2.86
501.529	2.86
501.878	2.86
502.226	2.88
502.574	2.88
502.923	2.9
503.271	2.91
503.619	2.91
503.967	2.92
504.315	2.9
504.663	2.9
505.011	2.9
505.359	2.89
505.707	2.89
506.055	2.89
506.403	2.89
506.751	2.88
507.098	2.88
507.446	2.91
507.794	2.89
508.141	2.88
508.489	2.88
508.837	2.87
509.184	2.85
509.531	2.83
509.879	2.81
510.226	2.79
510.574	2.8
510.921	2.78
511.268	2.78
511.616	2.79
511.963	2.78
512.31	2.78
512.657	2.76
513.004	2.77
513.351	2.78
513.698	2.76
514.045	2.78
514.392	2.79
514.739	2.79
515.086	2.8
515.432	2.82
515.779	2.8
516.126	2.82
516.473	2.83
516.819	2.84
517.166	2.87
517.512	2.86
517.859	2.86
518.205	2.85
518.552	2.86
518.898	2.85
519.245	2.85
519.591	2.84
519.937	2.86
520.283	2.86
520.629	2.85
520.976	2.86
521.322	2.87
521.668	2.87
522.014	2.85
522.36	2.84
522.706	2.82
523.052	2.83
523.398	2.81
523.743	2.82
524.089	2.82
524.435	2.8
524.781	2.8
525.126	2.81
525.472	2.83
525.817	2.83
526.163	2.84
526.509	2.85
526.854	2.86
527.199	2.88
527.545	2.87
527.89	2.88
528.235	2.88
528.581	2.87
528.926	2.88
529.271	2.89
529.616	2.9
529.961	2.91
530.306	2.92
530.651	2.92
530.996	2.93
531.341	2.94
531.686	2.96
532.031	2.97
532.376	2.97
532.721	2.98
533.065	2.97
533.41	2.97
533.755	2.98
534.099	2.98
534.444	2.98
534.788	2.99
535.133	2.99
535.477	3.01
535.822	3.02
536.166	3.03
536.51	3.02
536.855	3.03
537.199	3.01
537.543	3.01
537.887	3
538.231	3.01
538.576	3
538.92	3
539.264	3
539.608	2.99
539.951	2.98
540.295	2.99
540.639	3
540.983	2.99
541.327	3
541.671	3
542.014	3
542.358	2.98
542.701	2.99
543.045	2.98
543.389	2.99
543.732	2.99
544.075	2.98
544.419	2.98
544.762	2.98
545.105	2.98
545.449	2.97
545.792	2.98
546.135	2.97
546.478	2.97
546.821	2.97
547.165	2.97
547.508	2.98
547.851	2.95
548.194	2.95
548.536	2.93
548.879	2.9
549.222	2.89
549.565	2.9
549.908	2.88
550.25	2.86
550.593	2.84
550.936	2.82
551.278	2.85
551.621	2.85
551.963	2.87
552.306	2.87
552.648	2.88
552.991	2.89
553.333	2.89
553.675	2.89
554.017	2.89
554.36	2.89
554.702	2.88
555.044	2.9
555.386	2.91
555.728	2.91
556.07	2.94
556.412	2.93
556.754	2.92
557.096	2.92
557.438	2.94
557.78	2.95
558.121	2.97
558.463	2.93
558.805	2.92
559.147	2.93
559.488	2.93
559.83	2.91
560.171	2.9
560.513	2.92
560.854	2.93
561.196	2.93
561.537	2.94
561.878	2.94
562.22	2.95
562.561	2.96
562.902	2.97
563.243	2.99
563.584	3.01
563.925	3.01
564.266	3.01
564.607	3.03
564.948	3.04
565.289	3.07
565.63	3.09
565.971	3.1
566.312	3.09
566.653	3.08
566.993	3.07
567.334	3.1
567.675	3.08
568.015	3.08
568.356	3.07
568.696	3.07
569.037	3.08
569.377	3.08
569.718	3.06
570.058	3.06
570.398	3.07
570.739	3.04
571.079	3.02
571.419	3.03
571.759	3
572.099	2.98
572.439	2.95
572.779	2.95
573.119	2.97
573.459	2.97
573.799	2.96
574.139	3
574.479	2.99
574.819	2.99
575.158	2.98
575.498	2.99
575.838	2.96
576.177	2.93
576.517	2.96
576.856	2.95
577.196	2.95
577.535	2.91
577.875	2.92
578.214	2.94
578.553	2.94
578.893	2.93
579.232	2.97
579.571	2.97
579.91	2.95
580.25	2.91
580.589	2.89
580.928	2.91
581.267	2.86
581.606	2.84
581.945	2.83
582.283	2.84
582.622	2.84
582.961	2.83
583.3	2.86
583.639	2.82
583.977	2.85
584.316	2.86
584.654	2.9
584.993	2.9
585.332	2.92
585.67	2.95
586.008	2.99
586.347	2.98
586.685	2.95
587.024	2.97
587.362	2.98
587.7	2.97
588.038	2.99
588.376	2.99
588.715	2.97
589.053	2.97
589.391	2.96
589.729	2.93
590.067	3
590.404	3.01
590.742	3.02
591.08	2.98
591.418	3.02
591.756	3.02
592.093	3.04
592.431	3.07
592.769	3.03
593.106	3.02
593.444	3.03
593.781	3.09
594.119	3.1
594.456	3.14
594.793	3.17
595.131	3.14
595.468	3.2
595.805	3.23
596.143	3.23
596.48	3.24
596.817	3.23
597.154	3.2
597.491	3.17
597.828	3.18
598.165	3.2
598.502	3.2
598.839	3.2
599.176	3.18
599.512	3.19
599.849	3.23
600.186	3.2
600.523	3.16
600.859	3.14
601.196	3.17
601.532	3.14
601.869	3.13
602.205	3.13
602.542	3.08
602.878	3.09
603.215	3.11
603.551	3.08
603.887	3.12
604.223	3.15
604.56	3.18
604.896	3.21
605.232	3.21
605.568	3.21
605.904	3.19
606.24	3.23
606.576	3.17
606.912	3.15
607.248	3.18
607.583	3.2
607.919	3.19
608.255	3.16
608.591	3.18
608.926	3.15
609.262	3.14
609.597	3.15
609.933	3.15
610.268	3.17
610.604	3.16
610.939	3.15
611.275	3.15
611.61	3.12
611.945	3.04
612.281	3.06
612.616	3.02
612.951	3.05
613.286	3.03
613.621	3.03
613.956	3.05
614.291	3.01
614.626	2.99
614.961	3.03
615.296	3.04
615.631	3.01
615.966	3.04
616.3	3.11
616.635	3.11
616.97	3.07
617.304	3.03
617.639	3.05
617.973	3.05
618.308	3
618.642	3.04
618.977	3.07
619.311	3.09
619.646	3.07
619.98	3.11
620.314	3.13
620.648	3.16
620.983	3.14
621.317	3.14
621.651	3.15
621.985	3.14
622.319	3.1
622.653	3.15
622.987	3.1
623.321	3.1
623.655	3.15
623.988	3.18
624.322	3.24
624.656	3.24
624.99	3.24
625.323	3.29
625.657	3.26
625.99	3.32
626.324	3.29
626.657	3.25
626.991	3.26
627.324	3.22
627.658	3.22
627.991	3.28
628.324	3.28
628.657	3.32
628.991	3.33
629.324	3.33
629.657	3.31
629.99	3.37
630.323	3.29
630.656	3.31
630.989	3.29
631.322	3.27
631.655	3.3
631.987	3.25
632.32	3.19
632.653	3.19
632.986	3.12
633.318	3.12
633.651	3.2
633.984	3.12
634.316	3.17
634.649	3.19
634.981	3.16
635.313	3.2
635.646	3.21
635.978	3.25
636.31	3.31
636.643	3.27
636.975	3.26
637.307	3.3
637.639	3.21
637.971	3.24
638.303	3.19
638.635	3.19
638.967	3.27
639.299	3.27
639.631	3.27
639.963	3.28
640.295	3.31
640.626	3.33
640.958	3.37
641.29	3.34
641.621	3.35
641.953	3.23
642.285	3.26
642.616	3.22
642.948	3.15
643.279	3.11
643.61	3.14
643.942	3.14
644.273	3.14
644.604	3.12
644.936	3.12
645.267	3.13
645.598	3.16
645.929	3.1
646.26	3.13
646.591	3.13
646.922	3.21
647.253	3.22
647.584	3.17
647.915	3.19
648.245	3.22
648.576	3.24
648.907	3.36
649.238	3.25
649.568	3.22
649.899	3.26
650.229	3.27
650.56	3.23
650.89	3.27
651.221	3.28
651.551	3.35
651.882	3.32
652.212	3.36
652.542	3.35
652.872	3.35
653.203	3.33
653.533	3.41
653.863	3.35
654.193	3.3
654.523	3.28
654.853	3.27
655.183	3.18
655.513	3.15
655.843	3.11
656.172	3.16
656.502	3.21
656.832	3.17
657.162	3.11
657.491	3.22
657.821	3.2
658.15	3.21
658.48	3.19
658.809	3.15
659.139	3.19
659.468	3.2
659.798	3.28
660.127	3.32
660.456	3.27
660.785	3.29
661.115	3.29
661.444	3.34
661.773	3.28
662.102	3.33
662.431	3.39
662.76	3.46
663.089	3.53
663.418	3.46
663.747	3.52
664.076	3.54
664.404	3.47
664.733	3.49
665.062	3.52
665.39	3.52
665.719	3.56
666.048	3.54
666.376	3.52
666.705	3.55
667.033	3.5
667.362	3.45
667.69	3.45
668.018	3.56
668.347	3.54
668.675	3.66
669.003	3.65
669.331	3.55
669.659	3.48
669.987	3.4
670.315	3.49
670.643	3.54
670.971	3.6
671.299	3.59
671.627	3.6
671.955	3.51
672.283	3.52
672.61	3.58
672.938	3.59
673.266	3.62
673.593	3.52
673.921	3.55
674.249	3.59
674.576	3.66
674.904	3.55
675.231	3.55
675.558	3.46
675.886	3.44
676.213	3.44
676.54	3.43
676.867	3.49
677.195	3.45
677.522	3.38
677.849	3.42
678.176	3.47
678.503	3.38
678.83	3.47
679.157	3.51
679.484	3.48
679.81	3.42
680.137	3.45
680.464	3.44
680.791	3.45
681.117	3.44
681.444	3.33
681.771	3.35
682.097	3.35
682.424	3.45
682.75	3.46
683.077	3.52
683.403	3.53
683.729	3.44
684.056	3.38
684.382	3.38
684.708	3.32
685.034	3.32
685.36	3.39
685.686	3.3
686.012	3.35
686.339	3.29
686.664	3.28
686.99	3.15
687.316	3.19
687.642	3.19
687.968	3.34
688.294	3.4
688.619	3.37
688.945	3.47
689.271	3.63
689.596	3.66
689.922	3.63
690.247	3.61
690.573	3.64
690.898	3.81
691.224	3.86
691.549	3.93
691.874	3.84
692.2	3.9
692.525	3.94
692.85	3.94
693.175	4.03
693.5	3.98
693.825	4.1
694.15	4.01
694.475	3.99
694.8	3.94
695.125	3.83
695.45	3.82
695.775	3.75
696.099	3.64
696.424	3.62
696.749	3.65
697.073	3.68
697.398	3.76
697.723	3.63
698.047	3.66
698.372	3.66
698.696	3.76
699.02	3.68
699.345	3.71
699.669	3.73
699.993	3.73
700.318	3.84
700.642	3.77
700.966	3.8
701.29	3.81
701.614	3.73
701.938	3.9
702.262	3.96
702.586	4.04
702.91	3.94
703.234	3.93
703.557	3.86
703.881	3.99
704.205	3.9
704.529	3.95
704.852	3.67
705.176	3.62
705.499	3.46
705.823	3.49
706.146	3.51
706.47	3.39
706.793	3.36
707.117	3.31
707.44	3.44
707.763	3.51
708.086	3.52
708.409	3.48
708.733	3.31
709.056	3.48
709.379	3.46
709.702	3.49
710.025	3.56
710.348	3.74
710.671	3.64
710.993	3.66
711.316	3.75
711.639	3.88
711.962	3.83
712.284	3.9
712.607	3.84
712.93	3.8
713.252	3.76
713.575	3.66
713.897	3.63
714.22	3.58
714.542	3.54
714.864	3.49
715.187	3.54
715.509	3.7
715.831	3.56
716.153	3.48
716.475	3.49
716.798	3.52
717.12	3.36
717.442	3.3
717.764	3.34
718.085	3.36
718.407	3.42
718.729	3.52
719.051	3.65
719.373	3.83
719.695	3.7
720.016	3.81
720.338	3.85
720.659	4
720.981	3.93
721.302	4.14
721.624	4.12
721.945	4.15
722.267	4.13
722.588	3.94
722.909	3.82
723.231	3.79
723.552	3.72
723.873	3.75
724.194	3.74
724.515	3.62
724.836	3.56
725.157	3.55
725.478	3.48
725.799	3.42
726.12	3.33
726.441	3.44
726.762	3.47
727.083	3.64
727.403	3.61
727.724	3.67
728.045	3.46
728.365	3.36
728.686	3.24
729.006	3.28
729.327	3.43
729.647	3.45
729.967	3.3
730.288	3.23
730.608	3.34
730.928	3.51
731.249	3.57
731.569	3.59
731.889	3.7
732.209	3.59
732.529	3.44
732.849	3.44
733.169	3.41
733.489	3.28
733.809	3.2
734.129	3.07
734.448	3.04
734.768	3
735.088	3.03
735.408	2.96
735.727	2.85
736.047	2.75
736.366	2.86
736.686	2.95
737.005	3.2
737.325	2.94
737.644	2.67
737.963	2.75
738.283	2.67
738.602	2.5
738.921	2.66
739.24	2.79
739.56	2.96
739.879	2.79
740.198	2.77
740.517	2.86
740.836	2.88
741.155	3.05
741.473	3.06
741.792	3.23
742.111	3.74
742.43	3.87
742.748	3.95
743.067	3.74
743.386	3.65
743.704	3.4
744.023	3.47
744.341	3.81
744.66	3.55
744.978	3.59
745.297	3.43
745.615	3.33
745.933	3.39
746.252	3.25
746.57	3.53
746.888	3.56
747.206	3.32
747.524	3.42
747.842	3.1
748.16	3.36
748.478	3.15
748.796	2.89
749.114	2.66
749.432	2.53
749.749	2.78
750.067	2.68
750.385	2.54
750.703	2.64
751.02	2.23
751.338	2.26
751.655	2.22
751.973	2.42
752.29	2.48
752.608	2.2
752.925	2.32
753.242	2.3
753.56	2.48
753.877	2.44
754.194	2.29
754.511	2.15
754.828	1.85
755.145	2.07
755.462	1.97
755.779	2.01
756.096	2.44
756.413	2.5
756.73	2.82
757.047	2.78
757.364	2.87
757.68	3.15
757.997	3.26
758.314	3.58
758.63	3.49
758.947	3.79
759.264	3.93
759.58	3.93
759.896	3.84
760.213	3.86
760.529	3.99
760.846	4.28
761.162	4.15
761.478	4.35
761.794	4.32
762.11	4.25
762.426	4.28
762.743	4.1
763.059	4.1
763.375	4.01
763.69	4.42
764.006	4.32
764.322	4.44
764.638	4.58
764.954	4.28
765.27	4.35
765.585	4.24
765.901	4.04
766.216	4.05
766.532	4.12
766.848	3.95
767.163	3.91
767.478	3.72
767.794	4.07
768.109	3.87
768.424	3.81
768.74	3.81
769.055	3.83
769.37	3.79
769.685	4.08
770	3.77
770.315	3.4
770.63	3.78
770.945	3.73
771.26	3.47
771.575	3.7
771.89	3.66
772.205	3.23
772.52	3.45
772.834	3.17
773.149	3.44
773.464	3.3
773.778	3.46
774.093	3.4
774.407	3.55
774.722	3.5
775.036	3.62
775.351	3.93
775.665	3.98
775.979	3.66
776.293	3.26
776.608	3.58
776.922	3.53
777.236	3.42
777.55	3.31
777.864	3.48
778.178	3.08
778.492	3.05
778.806	3.39
779.12	3.34
779.434	3.39
779.747	2.98
780.061	3.17
780.375	3.09
780.689	3.28
781.002	2.88
781.316	3.17
781.629	3.11
781.943	3.1
782.256	2.71
782.57	3.19
782.883	3.06
783.196	3.01
783.51	2.95
783.823	2.57
784.136	2.25
784.449	2.2
784.762	2.66
785.075	2.99
785.388	3.39
785.701	3.36
786.014	3.4
786.327	3.29
786.64	3.34
786.953	3.43
787.266	3.14
787.578	3.03
787.891	3.19
788.204	3.31
788.516	3.1
788.829	3.36
789.141	3.42
789.454	3.63
789.766	3.96
790.079	4.08
790.391	3.93
790.703	4.26
791.016	4.54
791.328	4.31
791.64	4.23
791.952	4.11
792.264	3.95
792.576	4.14
792.888	4.08
793.2	4.37
793.512	4.43
793.824	4.75
794.136	5.06
794.448	4.55
794.76	4.99
795.071	5.08
795.383	5.11
795.695	4.98
796.006	4.5
796.318	4.47
796.629	4.37
796.941	4.39
797.252	4.06
797.564	3.81
797.875	3.67
798.186	3.77
798.497	3.79
798.809	4.19
799.12	3.93
799.431	4.11
799.742	3.85
800.053	3.35
800.364	3.43
800.675	3.93
800.986	4.1
801.297	3.7
801.608	3.84
801.918	3.45
802.229	3.87
802.54	3.99
802.851	3.81
803.161	3.62
803.472	3.87
803.782	4.2
804.093	3.69
804.403	3.95
804.714	3.51
805.024	3.23
805.334	2.77
805.645	3.37
805.955	3.91
806.265	4.06
806.575	4.86
806.885	4.47
807.195	4.93
807.505	5.06
807.815	5.09
808.125	4.63
808.435	4.72
808.745	3.87
809.055	4.6
809.365	4.85
809.674	5.65
809.984	5.53
810.294	5.47
810.603	5.47
810.913	5.06
811.222	5.44
811.532	5.34
811.841	6.26
812.151	5.76
812.46	5.35
812.769	4.56
813.079	4.53
813.388	4.9
813.697	3.36
814.006	3.93
814.315	3
814.624	4.27
814.933	4.94
815.242	5.12
815.551	4.48
815.86	4.48
816.169	4.61
816.478	4.78
816.786	4.32
817.095	4.35
817.404	4.8
817.712	4.66
818.021	4.37
818.33	4.03
818.638	4.08
818.947	3.94
819.255	4.43
819.563	4.47
819.872	4.36
820.18	4.52
820.488	4.46
820.796	5.13
821.105	4.69
821.413	4.8
821.721	4.94
822.029	5.05
822.337	5.01
822.645	4.91
822.953	4.87
823.26	4.86
823.568	4.88
823.876	4.98
824.184	5.07
824.491	5.07
824.799	5.09
825.107	5.26
825.414	5.4
825.722	5.35
826.029	5.28
826.337	5.23
826.644	5.22
826.951	5.12
827.259	5.09
827.566	5.13
827.873	4.65
828.18	4.44
828.488	4.41
828.795	4.46
829.102	4.21
829.409	3.61
829.716	3.82
830.023	4.08
830.329	3.85
830.636	3.64
830.943	3.68
831.25	3.83
831.557	3.16
831.863	2.8
832.17	2.84
832.476	2.84
832.783	2.97
833.089	3.03
833.396	3.11
833.702	2.74
834.009	3.31
834.315	4.18
834.621	4.33
834.928	4.04
835.234	3.73
835.54	3.88
835.846	4.42
836.152	4.12
836.458	3.85
836.764	3.77
837.07	3.66
837.376	3.78
837.682	3.21
837.988	3.53
838.293	4.04
838.599	4.01
838.905	3.86
839.211	3.61
839.516	3.64
839.822	3.75
840.127	3.21
840.433	1.92
840.738	1.74
841.044	1.92
841.349	2.05
841.654	1.09
841.959	1.02
842.265	1.77
842.57	2.29
842.875	2.2
843.18	2.72
843.485	2.87
843.79	1.76
844.095	2.07
844.4	2.26
844.705	1.78
845.01	1.77
845.315	2.27
845.619	3.07
845.924	3.27
846.229	2.65
846.533	4.06
846.838	4.69
847.142	3.71
847.447	4.3
847.751	4.25
848.056	5.8
848.36	7.32
848.664	8.5
848.969	7.12
849.273	6.91
849.577	5.69
849.881	5.92
850.185	5.39
850.489	4.49
850.794	3.13
851.097	2.76
851.401	1.23
851.705	-0.35
852.009	-0.96
852.313	-2.21
852.617	-1.39
852.92	-0.58
853.224	0.39
853.528	1.36
853.831	1.38
854.135	0.13
854.438	0.28
854.742	-0.12
855.045	-3.26
855.349	-3.09
855.652	-2.44
855.955	-2.74
856.259	-3.49
856.562	-1.39
856.865	0.1
857.168	-0.39
857.471	-1.74
857.774	0.11
858.077	1.26
858.38	1.84
858.683	4.13
858.986	4.73
859.289	3.26
859.592	1.7
859.894	1.56
860.197	1.13
860.5	2.64
860.802	1.86
861.105	0.86
861.407	1.63
861.71	1.94
862.012	0.69
862.315	3.63
862.617	6.07
862.919	5.58
863.222	6.54
863.524	9.13
863.826	11.08
864.128	10.86
864.43	11.26
864.732	10.38
865.034	8.35
865.336	8.91
865.638	9.29
865.94	12.12
866.242	11.39
866.544	10.46
866.846	11.34
867.147	13.96
867.449	13.93
867.751	15.04
868.052	16.29
868.354	18.17
868.655	15.38
868.957	13.1
869.258	13.7
869.56	15.63
869.861	16.4
870.162	15.25
870.463	14.57
870.765	14.78
871.066	15.16
871.367	16.04
871.668	14.25
871.969	14.38
872.27	12.23
872.571	14.01
872.872	13.69
873.173	14.56
873.473	12.24
873.774	12.47
874.075	12.71
874.376	11.31
874.676	11.71
874.977	13.05
875.277	10.68
875.578	10.78
875.878	8.05
876.179	6.1
876.479	6.38
876.78	7.45
877.08	6.3
877.38	6.41
877.68	7.28
877.981	6.88
878.281	6.34
878.581	7.03
