Data from BA51068_Reflection_00003.txt Node
Date: Tue Nov 19 11:58:54 EST 2019
User: vgr7
Spectrometer: USB2G7710
Scans to average: 3
Trigger mode: 4
Integration Time (sec): 2.000000E-2
Electric dark correction enabled: true
Boxcar width: 10
XAxis mode: Wavelengths
Number of Pixels in Spectrum: 2048
>>>>>Begin Spectral Data<<<<<
177.721	206.54
178.105	-520.69
178.488	-507.07
178.871	-440
179.254	12400
179.636	1867.86
180.019	-208.66
180.402	222.22
180.785	110.59
181.168	-205.08
181.55	2292.31
181.933	175.29
182.316	128.15
182.698	47.81
183.081	4.26
183.463	29.28
183.846	-613.11
184.228	20.83
184.611	22.01
184.993	66.23
185.376	64.9
185.758	79.41
186.14	123.48
186.522	126.68
186.904	248.35
187.287	122.95
187.669	121.85
188.051	56.75
188.433	56.19
188.815	51.19
189.197	150.62
189.579	121.84
189.961	107.63
190.342	84.87
190.724	49.76
191.106	65.71
191.488	98.65
191.869	101.47
192.251	171.87
192.633	324.82
193.014	432.76
193.396	4469.57
193.777	411.15
194.159	284.45
194.54	422.53
194.922	167.78
195.303	149.37
195.684	146.74
196.065	155.28
196.447	103.86
196.828	55.8
197.209	-21.62
197.59	-393.29
197.971	177.32
198.352	46.25
198.733	-5.92
199.114	-11.31
199.495	90.45
199.876	95.63
200.257	79.8
200.638	136.7
201.018	274.42
201.399	397.24
201.78	1747.54
202.16	-2600
202.541	-1705.08
202.922	-345.61
203.302	-558.88
203.683	524.14
204.063	318.64
204.444	394.76
204.824	182.98
205.204	46.64
205.585	13.22
205.965	1206.56
206.345	-303.55
206.725	-180.88
207.106	-265.55
207.486	-51.55
207.866	2.92
208.246	38.51
208.626	22.48
209.006	24.3
209.386	38.89
209.766	57.87
210.145	56.66
210.525	75.12
210.905	74.87
211.285	73.92
211.664	82.35
212.044	82.48
212.424	72.42
212.803	64.55
213.183	51.27
213.562	55.34
213.942	58.54
214.321	56.49
214.701	44.11
215.08	36.97
215.459	47.52
215.838	31.88
216.218	37.59
216.597	30.22
216.976	23.47
217.355	17.08
217.734	7.92
218.113	14.92
218.492	7.33
218.871	0.67
219.25	-2.78
219.629	-7.34
220.008	-12.54
220.387	-9.45
220.766	-13.97
221.144	-17.86
221.523	-33.94
221.902	-53.13
222.28	-50.37
222.659	-29.07
223.037	-25.36
223.416	-34.44
223.794	-27.96
224.173	-40.19
224.551	-42.19
224.929	-48.02
225.308	-37.99
225.686	-34.75
226.064	-45.31
226.442	-34.35
226.821	-28.49
227.199	-24.77
227.577	-20.43
227.955	-15.6
228.333	-14.38
228.711	-16.02
229.089	-11.96
229.467	-11.14
229.845	-10.02
230.222	-7.72
230.6	-8.64
230.978	-6.69
231.356	-5.08
231.733	-2.35
232.111	-2.7
232.488	-2.28
232.866	1.76
233.243	2.78
233.621	6.85
233.998	9.63
234.376	9.31
234.753	8.2
235.13	10.61
235.508	7.89
235.885	6.48
236.262	4.8
236.639	6.04
237.016	6.33
237.393	6.35
237.77	6.51
238.147	5.67
238.524	6.02
238.901	4.91
239.278	4.29
239.655	3.8
240.032	4.58
240.409	4.44
240.785	3.79
241.162	3.76
241.539	3.06
241.915	3.15
242.292	3.24
242.668	3.44
243.045	3.01
243.421	3.55
243.798	3.92
244.174	4.25
244.551	4.57
244.927	4.06
245.303	4.09
245.679	4.06
246.056	4.26
246.432	4.11
246.808	4.28
247.184	4.08
247.56	3.95
247.936	3.7
248.312	3.83
248.688	4.09
249.064	3.81
249.44	3.54
249.815	3.62
250.191	3.7
250.567	3.65
250.943	3.61
251.318	3.6
251.694	3.44
252.069	3.45
252.445	3.24
252.82	3.54
253.196	3.24
253.571	3.25
253.947	2.9
254.322	2.88
254.697	2.7
255.073	2.78
255.448	2.92
255.823	2.88
256.198	2.74
256.573	2.52
256.948	2.87
257.323	3.18
257.698	3.09
258.073	2.89
258.448	2.87
258.823	2.71
259.198	2.62
259.573	2.49
259.948	2.56
260.322	2.49
260.697	2.41
261.072	2.61
261.446	2.6
261.821	2.48
262.195	2.32
262.57	2.46
262.944	2.55
263.319	2.6
263.693	2.67
264.067	2.62
264.442	2.64
264.816	2.38
265.19	2.22
265.564	2.07
265.938	2.16
266.313	2.04
266.687	2.25
267.061	2.35
267.435	2.69
267.809	2.39
268.183	2.31
268.556	2.36
268.93	2.46
269.304	2.31
269.678	2.56
270.051	2.59
270.425	2.47
270.799	2.2
271.172	2.24
271.546	2.26
271.919	2.45
272.293	2.29
272.666	2.48
273.04	2.47
273.413	2.49
273.787	2.5
274.16	2.53
274.533	2.43
274.906	2.38
275.279	2.33
275.653	2.48
276.026	2.5
276.399	2.47
276.772	2.41
277.145	2.47
277.518	2.3
277.891	2.42
278.263	2.46
278.636	2.78
279.009	2.81
279.382	2.72
279.755	2.6
280.127	2.9
280.5	2.89
280.872	3.09
281.245	3.2
281.617	3.09
281.99	3.17
282.362	3.24
282.735	3.27
283.107	3.27
283.479	3.26
283.852	3.37
284.224	3.43
284.596	3.41
284.968	3.3
285.34	3.33
285.713	3.3
286.085	3.17
286.457	3.15
286.829	3.11
287.201	3.23
287.572	3.36
287.944	3.44
288.316	3.4
288.688	3.4
289.06	3.27
289.431	3.37
289.803	3.39
290.175	3.42
290.546	3.47
290.918	3.44
291.289	3.39
291.661	3.18
292.032	3.22
292.403	3.41
292.775	3.63
293.146	3.71
293.517	3.73
293.889	3.81
294.26	3.78
294.631	3.81
295.002	3.8
295.373	3.82
295.744	3.7
296.115	3.73
296.486	3.69
296.857	3.71
297.228	3.62
297.599	3.47
297.97	3.63
298.34	3.56
298.711	3.54
299.082	3.61
299.452	3.7
299.823	3.66
300.194	3.65
300.564	3.49
300.935	3.6
301.305	3.61
301.676	3.48
302.046	3.56
302.416	3.52
302.787	3.53
303.157	3.38
303.527	3.54
303.897	3.48
304.267	3.36
304.637	3.49
305.008	3.57
305.378	3.79
305.748	3.64
306.117	3.47
306.487	3.47
306.857	3.4
307.227	3.55
307.597	3.5
307.967	3.46
308.336	3.5
308.706	3.23
309.076	3.2
309.445	3.45
309.815	3.36
310.184	3.28
310.554	3.3
310.923	3.3
311.293	3.16
311.662	3.07
312.031	3.08
312.401	2.99
312.77	2.95
313.139	2.86
313.508	2.69
313.877	2.97
314.246	2.89
314.616	2.94
314.985	2.79
315.353	2.97
315.722	2.87
316.091	2.93
316.46	2.98
316.829	2.94
317.198	2.81
317.567	2.9
317.935	3
318.304	3.12
318.672	3.32
319.041	3.36
319.41	3.41
319.778	3.51
320.147	3.48
320.515	3.49
320.883	3.45
321.252	3.73
321.62	3.59
321.988	3.84
322.357	3.79
322.725	3.79
323.093	3.57
323.461	3.45
323.829	3.55
324.197	3.57
324.565	3.69
324.933	3.66
325.301	3.61
325.669	3.82
326.037	3.74
326.405	3.64
326.772	3.67
327.14	3.83
327.508	3.63
327.875	3.72
328.243	3.72
328.61	3.86
328.978	3.63
329.346	3.61
329.713	3.49
330.08	3.51
330.448	3.62
330.815	3.68
331.182	3.87
331.55	3.66
331.917	3.68
332.284	3.57
332.651	3.54
333.018	3.49
333.385	3.26
333.752	3.12
334.119	3.05
334.486	2.98
334.853	2.83
335.22	2.95
335.587	2.9
335.954	2.93
336.32	2.83
336.687	2.94
337.054	2.97
337.42	2.95
337.787	2.89
338.153	2.9
338.52	2.91
338.886	2.76
339.253	2.86
339.619	2.82
339.986	2.79
340.352	2.92
340.718	2.96
341.084	3.07
341.451	3.1
341.817	3.16
342.183	3.17
342.549	3.25
342.915	3.3
343.281	3.31
343.647	3.39
344.013	3.33
344.379	3.32
344.745	3.33
345.11	3.28
345.476	3.4
345.842	3.31
346.208	3.36
346.573	3.44
346.939	3.43
347.304	3.46
347.67	3.48
348.035	3.41
348.401	3.52
348.766	3.42
349.132	3.45
349.497	3.58
349.862	3.47
350.228	3.31
350.593	3.27
350.958	3.32
351.323	3.27
351.688	3.35
352.053	3.29
352.418	3.31
352.783	3.31
353.148	3.25
353.513	3.34
353.878	3.26
354.243	3.2
354.608	3.23
354.972	3.24
355.337	3.27
355.702	3.22
356.066	3.08
356.431	3.1
356.795	3.14
357.16	3.07
357.524	3.11
357.889	3.23
358.253	3.19
358.618	3.17
358.982	3.16
359.346	3.13
359.71	3.19
360.075	3.24
360.439	3.22
360.803	3.21
361.167	3.13
361.531	3.1
361.895	3.14
362.259	3.13
362.623	3.14
362.987	3.1
363.351	3.14
363.714	3.24
364.078	3.23
364.442	3.14
364.806	3.15
365.169	3.15
365.533	3.17
365.896	3.23
366.26	3.2
366.623	3.18
366.987	3.2
367.35	3.23
367.714	3.14
368.077	3.19
368.44	3.22
368.803	3.23
369.167	3.21
369.53	3.2
369.893	3.22
370.256	3.26
370.619	3.3
370.982	3.25
371.345	3.24
371.708	3.22
372.071	3.22
372.434	3.15
372.797	3.19
373.159	3.14
373.522	3.08
373.885	3.14
374.247	3.13
374.61	3.11
374.973	3.07
375.335	3.14
375.698	3.1
376.06	3.11
376.423	3.1
376.785	3.23
377.147	3.24
377.51	3.17
377.872	3.14
378.234	3.16
378.596	3.16
378.958	3.13
379.321	3.16
379.683	3.19
380.045	3.22
380.407	3.19
380.769	3.2
381.13	3.19
381.492	3.1
381.854	3.11
382.216	3.14
382.578	3.17
382.939	3.18
383.301	3.14
383.663	3.1
384.024	3.16
384.386	3.08
384.747	3.09
385.109	3.19
385.47	3.2
385.832	3.19
386.193	3.19
386.554	3.17
386.916	3.17
387.277	3.18
387.638	3.21
387.999	3.23
388.36	3.26
388.721	3.32
389.082	3.41
389.443	3.41
389.804	3.4
390.165	3.35
390.526	3.27
390.887	3.32
391.248	3.3
391.609	3.29
391.969	3.31
392.33	3.29
392.691	3.26
393.051	3.26
393.412	3.24
393.772	3.29
394.133	3.29
394.493	3.25
394.854	3.26
395.214	3.22
395.574	3.19
395.935	3.19
396.295	3.19
396.655	3.18
397.015	3.2
397.376	3.23
397.736	3.26
398.096	3.3
398.456	3.3
398.816	3.29
399.176	3.22
399.535	3.21
399.895	3.2
400.255	3.16
400.615	3.2
400.975	3.21
401.334	3.21
401.694	3.23
402.054	3.27
402.413	3.25
402.773	3.27
403.132	3.29
403.492	3.31
403.851	3.26
404.211	3.27
404.57	3.28
404.929	3.23
405.288	3.23
405.648	3.23
406.007	3.25
406.366	3.26
406.725	3.3
407.084	3.34
407.443	3.35
407.802	3.35
408.161	3.35
408.52	3.36
408.879	3.34
409.238	3.33
409.596	3.33
409.955	3.35
410.314	3.35
410.673	3.37
411.031	3.32
411.39	3.38
411.748	3.36
412.107	3.32
412.465	3.34
412.824	3.34
413.182	3.36
413.54	3.38
413.899	3.35
414.257	3.37
414.615	3.35
414.974	3.36
415.332	3.37
415.69	3.36
416.048	3.38
416.406	3.37
416.764	3.36
417.122	3.34
417.48	3.32
417.838	3.28
418.195	3.27
418.553	3.28
418.911	3.23
419.269	3.24
419.626	3.26
419.984	3.26
420.342	3.25
420.699	3.23
421.057	3.21
421.414	3.22
421.772	3.23
422.129	3.22
422.486	3.21
422.844	3.22
423.201	3.25
423.558	3.24
423.915	3.24
424.273	3.26
424.63	3.27
424.987	3.29
425.344	3.32
425.701	3.31
426.058	3.31
426.415	3.33
426.772	3.31
427.128	3.32
427.485	3.32
427.842	3.32
428.199	3.34
428.555	3.35
428.912	3.36
429.269	3.34
429.625	3.36
429.982	3.35
430.338	3.34
430.695	3.31
431.051	3.31
431.407	3.32
431.764	3.32
432.12	3.31
432.476	3.33
432.832	3.32
433.189	3.32
433.545	3.31
433.901	3.34
434.257	3.34
434.613	3.33
434.969	3.32
435.325	3.34
435.681	3.33
436.036	3.33
436.392	3.35
436.748	3.37
437.104	3.36
437.459	3.35
437.815	3.35
438.171	3.37
438.526	3.35
438.882	3.37
439.237	3.36
439.593	3.37
439.948	3.35
440.304	3.35
440.659	3.38
441.014	3.38
441.369	3.37
441.725	3.39
442.08	3.38
442.435	3.38
442.79	3.37
443.145	3.38
443.5	3.37
443.855	3.35
444.21	3.34
444.565	3.32
444.92	3.32
445.275	3.32
445.629	3.3
445.984	3.3
446.339	3.29
446.693	3.31
447.048	3.29
447.403	3.29
447.757	3.28
448.112	3.27
448.466	3.28
448.82	3.28
449.175	3.26
449.529	3.26
449.883	3.27
450.238	3.27
450.592	3.27
450.946	3.28
451.3	3.27
451.654	3.26
452.008	3.28
452.362	3.3
452.716	3.32
453.07	3.32
453.424	3.31
453.778	3.31
454.132	3.28
454.486	3.32
454.839	3.34
455.193	3.37
455.547	3.36
455.9	3.36
456.254	3.37
456.607	3.36
456.961	3.36
457.314	3.37
457.668	3.36
458.021	3.38
458.375	3.38
458.728	3.38
459.081	3.39
459.434	3.39
459.787	3.38
460.141	3.37
460.494	3.38
460.847	3.39
461.2	3.39
461.553	3.39
461.906	3.38
462.259	3.35
462.611	3.36
462.964	3.39
463.317	3.39
463.67	3.39
464.022	3.42
464.375	3.42
464.728	3.41
465.08	3.44
465.433	3.46
465.785	3.46
466.138	3.44
466.49	3.46
466.843	3.48
467.195	3.49
467.547	3.49
467.899	3.5
468.252	3.51
468.604	3.51
468.956	3.5
469.308	3.51
469.66	3.51
470.012	3.49
470.364	3.48
470.716	3.47
471.068	3.48
471.42	3.48
471.772	3.48
472.123	3.52
472.475	3.52
472.827	3.51
473.178	3.52
473.53	3.55
473.882	3.55
474.233	3.51
474.585	3.51
474.936	3.49
475.288	3.48
475.639	3.46
475.99	3.48
476.342	3.51
476.693	3.52
477.044	3.52
477.395	3.52
477.746	3.53
478.097	3.52
478.448	3.52
478.8	3.51
479.15	3.48
479.501	3.43
479.852	3.41
480.203	3.4
480.554	3.37
480.905	3.36
481.255	3.35
481.606	3.36
481.957	3.36
482.307	3.37
482.658	3.38
483.009	3.38
483.359	3.36
483.709	3.36
484.06	3.35
484.41	3.36
484.761	3.36
485.111	3.35
485.461	3.35
485.811	3.36
486.162	3.36
486.512	3.38
486.862	3.4
487.212	3.4
487.562	3.4
487.912	3.41
488.262	3.42
488.612	3.43
488.961	3.43
489.311	3.44
489.661	3.45
490.011	3.44
490.36	3.45
490.71	3.46
491.06	3.47
491.409	3.47
491.759	3.48
492.108	3.48
492.458	3.49
492.807	3.49
493.157	3.49
493.506	3.5
493.855	3.51
494.204	3.5
494.554	3.52
494.903	3.54
495.252	3.55
495.601	3.58
495.95	3.6
496.299	3.63
496.648	3.64
496.997	3.66
497.346	3.68
497.695	3.7
498.043	3.72
498.392	3.74
498.741	3.75
499.09	3.76
499.438	3.77
499.787	3.78
500.135	3.79
500.484	3.79
500.832	3.78
501.181	3.8
501.529	3.82
501.878	3.84
502.226	3.83
502.574	3.81
502.923	3.79
503.271	3.78
503.619	3.77
503.967	3.76
504.315	3.74
504.663	3.73
505.011	3.74
505.359	3.72
505.707	3.71
506.055	3.71
506.403	3.71
506.751	3.7
507.098	3.72
507.446	3.74
507.794	3.73
508.141	3.74
508.489	3.72
508.837	3.7
509.184	3.68
509.531	3.68
509.879	3.69
510.226	3.69
510.574	3.69
510.921	3.69
511.268	3.69
511.616	3.74
511.963	3.74
512.31	3.75
512.657	3.75
513.004	3.75
513.351	3.75
513.698	3.76
514.045	3.76
514.392	3.76
514.739	3.78
515.086	3.78
515.432	3.81
515.779	3.83
516.126	3.86
516.473	3.86
516.819	3.87
517.166	3.87
517.512	3.87
517.859	3.89
518.205	3.87
518.552	3.87
518.898	3.87
519.245	3.89
519.591	3.89
519.937	3.88
520.283	3.88
520.629	3.88
520.976	3.87
521.322	3.89
521.668	3.88
522.014	3.88
522.36	3.89
522.706	3.89
523.052	3.87
523.398	3.82
523.743	3.81
524.089	3.81
524.435	3.81
524.781	3.81
525.126	3.81
525.472	3.81
525.817	3.8
526.163	3.78
526.509	3.76
526.854	3.76
527.199	3.77
527.545	3.77
527.89	3.77
528.235	3.78
528.581	3.78
528.926	3.77
529.271	3.77
529.616	3.78
529.961	3.78
530.306	3.77
530.651	3.78
530.996	3.8
531.341	3.81
531.686	3.81
532.031	3.82
532.376	3.83
532.721	3.85
533.065	3.86
533.41	3.87
533.755	3.88
534.099	3.88
534.444	3.89
534.788	3.89
535.133	3.9
535.477	3.9
535.822	3.89
536.166	3.9
536.51	3.9
536.855	3.89
537.199	3.88
537.543	3.9
537.887	3.89
538.231	3.87
538.576	3.86
538.92	3.87
539.264	3.86
539.608	3.86
539.951	3.83
540.295	3.84
540.639	3.84
540.983	3.84
541.327	3.86
541.671	3.86
542.014	3.88
542.358	3.88
542.701	3.9
543.045	3.92
543.389	3.93
543.732	3.95
544.075	3.96
544.419	3.97
544.762	4
545.105	4.04
545.449	4.05
545.792	4.07
546.135	4.1
546.478	4.12
546.821	4.15
547.165	4.19
547.508	4.19
547.851	4.21
548.194	4.25
548.536	4.24
548.879	4.27
549.222	4.26
549.565	4.26
549.908	4.22
550.25	4.22
550.593	4.24
550.936	4.23
551.278	4.25
551.621	4.28
551.963	4.26
552.306	4.25
552.648	4.27
552.991	4.28
553.333	4.24
553.675	4.26
554.017	4.27
554.36	4.27
554.702	4.28
555.044	4.31
555.386	4.3
555.728	4.33
556.07	4.33
556.412	4.34
556.754	4.33
557.096	4.35
557.438	4.37
557.78	4.34
558.121	4.32
558.463	4.3
558.805	4.28
559.147	4.27
559.488	4.24
559.83	4.25
560.171	4.2
560.513	4.23
560.854	4.19
561.196	4.17
561.537	4.16
561.878	4.16
562.22	4.15
562.561	4.15
562.902	4.11
563.243	4.11
563.584	4.11
563.925	4.18
564.266	4.19
564.607	4.16
564.948	4.17
565.289	4.17
565.63	4.17
565.971	4.16
566.312	4.16
566.653	4.18
566.993	4.17
567.334	4.21
567.675	4.22
568.015	4.23
568.356	4.24
568.696	4.24
569.037	4.22
569.377	4.17
569.718	4.16
570.058	4.18
570.398	4.17
570.739	4.16
571.079	4.11
571.419	4.1
571.759	4.12
572.099	4.14
572.439	4.14
572.779	4.15
573.119	4.14
573.459	4.16
573.799	4.16
574.139	4.2
574.479	4.21
574.819	4.19
575.158	4.16
575.498	4.17
575.838	4.17
576.177	4.18
576.517	4.24
576.856	4.26
577.196	4.28
577.535	4.31
577.875	4.32
578.214	4.35
578.553	4.37
578.893	4.4
579.232	4.4
579.571	4.43
579.91	4.42
580.25	4.44
580.589	4.44
580.928	4.43
581.267	4.41
581.606	4.35
581.945	4.39
582.283	4.45
582.622	4.42
582.961	4.42
583.3	4.45
583.639	4.41
583.977	4.41
584.316	4.42
584.654	4.42
584.993	4.38
585.332	4.38
585.67	4.38
586.008	4.39
586.347	4.38
586.685	4.3
587.024	4.32
587.362	4.31
587.7	4.35
588.038	4.39
588.376	4.4
588.715	4.44
589.053	4.48
589.391	4.44
589.729	4.46
590.067	4.45
590.404	4.46
590.742	4.51
591.08	4.49
591.418	4.48
591.756	4.47
592.093	4.45
592.431	4.46
592.769	4.47
593.106	4.47
593.444	4.5
593.781	4.55
594.119	4.57
594.456	4.6
594.793	4.59
595.131	4.57
595.468	4.54
595.805	4.55
596.143	4.48
596.48	4.51
596.817	4.52
597.154	4.51
597.491	4.49
597.828	4.46
598.165	4.47
598.502	4.45
598.839	4.46
599.176	4.48
599.512	4.47
599.849	4.48
600.186	4.42
600.523	4.38
600.859	4.4
601.196	4.37
601.532	4.35
601.869	4.32
602.205	4.32
602.542	4.33
602.878	4.28
603.215	4.31
603.551	4.27
603.887	4.27
604.223	4.28
604.56	4.3
604.896	4.38
605.232	4.35
605.568	4.34
605.904	4.33
606.24	4.34
606.576	4.37
606.912	4.34
607.248	4.41
607.583	4.43
607.919	4.4
608.255	4.41
608.591	4.45
608.926	4.48
609.262	4.46
609.597	4.47
609.933	4.5
610.268	4.54
610.604	4.6
610.939	4.63
611.275	4.64
611.61	4.62
611.945	4.56
612.281	4.67
612.616	4.72
612.951	4.75
613.286	4.78
613.621	4.76
613.956	4.77
614.291	4.73
614.626	4.75
614.961	4.76
615.296	4.83
615.631	4.81
615.966	4.8
616.3	4.86
616.635	4.85
616.97	4.88
617.304	4.81
617.639	4.79
617.973	4.76
618.308	4.74
618.642	4.74
618.977	4.71
619.311	4.65
619.646	4.64
619.98	4.61
620.314	4.6
620.648	4.61
620.983	4.65
621.317	4.68
621.651	4.69
621.985	4.78
622.319	4.73
622.653	4.68
622.987	4.68
623.321	4.67
623.655	4.67
623.988	4.68
624.322	4.73
624.656	4.71
624.99	4.71
625.323	4.71
625.657	4.77
625.99	4.77
626.324	4.73
626.657	4.72
626.991	4.76
627.324	4.78
627.658	4.79
627.991	4.78
628.324	4.74
628.657	4.72
628.991	4.71
629.324	4.71
629.657	4.74
629.99	4.75
630.323	4.76
630.656	4.73
630.989	4.68
631.322	4.63
631.655	4.6
631.987	4.64
632.32	4.63
632.653	4.57
632.986	4.59
633.318	4.63
633.651	4.67
633.984	4.69
634.316	4.62
634.649	4.65
634.981	4.67
635.313	4.73
635.646	4.74
635.978	4.7
636.31	4.68
636.643	4.68
636.975	4.67
637.307	4.7
637.639	4.76
637.971	4.78
638.303	4.75
638.635	4.82
638.967	4.83
639.299	4.83
639.631	4.86
639.963	4.82
640.295	4.82
640.626	4.81
640.958	4.8
641.29	4.84
641.621	4.76
641.953	4.71
642.285	4.63
642.616	4.67
642.948	4.71
643.279	4.68
643.61	4.72
643.942	4.67
644.273	4.62
644.604	4.58
644.936	4.63
645.267	4.67
645.598	4.6
645.929	4.51
646.26	4.52
646.591	4.48
646.922	4.67
647.253	4.67
647.584	4.64
647.915	4.62
648.245	4.69
648.576	4.75
648.907	4.76
649.238	4.77
649.568	4.68
649.899	4.65
650.229	4.73
650.56	4.69
650.89	4.76
651.221	4.8
651.551	4.88
651.882	4.85
652.212	4.9
652.542	4.95
652.872	4.95
653.203	4.98
653.533	5.01
653.863	4.95
654.193	4.99
654.523	4.92
654.853	4.96
655.183	4.9
655.513	4.94
655.843	4.96
656.172	5.03
656.502	5.07
656.832	5.09
657.162	5.07
657.491	5.06
657.821	5.06
658.15	5.13
658.48	5.2
658.809	5.17
659.139	5.14
659.468	5.2
659.798	5.26
660.127	5.23
660.456	5.23
660.785	5.23
661.115	5.18
661.444	5.23
661.773	5.23
662.102	5.25
662.431	5.21
662.76	5.29
663.089	5.3
663.418	5.31
663.747	5.23
664.076	5.24
664.404	5.28
664.733	5.3
665.062	5.22
665.39	5.1
665.719	5.11
666.048	5.08
666.376	5.04
666.705	4.96
667.033	5.06
667.362	4.99
667.69	4.95
668.018	5.01
668.347	4.96
668.675	5.02
669.003	4.97
669.331	4.95
669.659	4.87
669.987	4.78
670.315	4.78
670.643	4.8
670.971	4.84
671.299	4.87
671.627	4.81
671.955	4.76
672.283	4.72
672.61	4.76
672.938	4.89
673.266	4.96
673.593	5.04
673.921	4.96
674.249	5.06
674.576	5.09
674.904	5.08
675.231	5.24
675.558	5.1
675.886	5.07
676.213	5.08
676.54	5.11
676.867	5.18
677.195	5.18
677.522	5.22
677.849	5.21
678.176	5.17
678.503	5.11
678.83	5.11
679.157	5.17
679.484	5.13
679.81	5.04
680.137	5.04
680.464	5.09
680.791	5.14
681.117	5.19
681.444	5.13
681.771	5.15
682.097	5.06
682.424	5.09
682.75	5.23
683.077	5.21
683.403	5.24
683.729	5.26
684.056	5.31
684.382	5.3
684.708	5.28
685.034	5.34
685.36	5.4
685.686	5.41
686.012	5.35
686.339	5.29
686.664	5.42
686.99	5.37
687.316	5.32
687.642	5.33
687.968	5.3
688.294	5.32
688.619	5.23
688.945	5.28
689.271	5.26
689.596	5.16
689.922	5.29
690.247	5.26
690.573	5.14
690.898	5.29
691.224	5.3
691.549	5.35
691.874	5.32
692.2	5.32
692.525	5.39
692.85	5.47
693.175	5.55
693.5	5.32
693.825	5.35
694.15	5.26
694.475	5.27
694.8	5.2
695.125	5.27
695.45	5.19
695.775	5.16
696.099	5.19
696.424	5.14
696.749	5.12
697.073	5.05
697.398	5.14
697.723	4.99
698.047	5.01
698.372	5
698.696	4.91
699.02	4.94
699.345	4.94
699.669	4.88
699.993	4.98
700.318	5.08
700.642	5.05
700.966	5.16
701.29	5.12
701.614	5.15
701.938	5.1
702.262	5.14
702.586	5.17
702.91	5.19
703.234	5.26
703.557	5.23
703.881	5.31
704.205	5.35
704.529	5.34
704.852	5.4
705.176	5.46
705.499	5.56
705.823	5.6
706.146	5.62
706.47	5.76
706.793	5.81
707.117	5.72
707.44	5.64
707.763	5.57
708.086	5.54
708.409	5.62
708.733	5.5
709.056	5.66
709.379	5.71
709.702	5.65
710.025	5.68
710.348	5.59
710.671	5.65
710.993	5.65
711.316	5.75
711.639	5.73
711.962	5.8
712.284	5.85
712.607	5.8
712.93	5.83
713.252	5.79
713.575	5.76
713.897	5.88
714.22	5.85
714.542	5.89
714.864	5.87
715.187	5.91
715.509	6.13
715.831	6.07
716.153	5.99
716.475	6.09
716.798	6.18
717.12	6.28
717.442	6.06
717.764	6.03
718.085	6.09
718.407	6.05
718.729	5.82
719.051	5.78
719.373	5.79
719.695	5.56
720.016	5.54
720.338	5.6
720.659	5.55
720.981	5.5
721.302	5.48
721.624	5.57
721.945	5.45
722.267	5.32
722.588	5.04
722.909	5.11
723.231	4.9
723.552	4.75
723.873	4.7
724.194	4.93
724.515	5.12
724.836	4.91
725.157	5.02
725.478	5.05
725.799	5.11
726.12	5.09
726.441	5.25
726.762	5.48
727.083	5.29
727.403	5.11
727.724	5.26
728.045	5.36
728.365	5.34
728.686	5.44
729.006	5.4
729.327	5.78
729.647	5.65
729.967	5.8
730.288	5.74
730.608	5.7
730.928	5.79
731.249	5.65
731.569	5.73
731.889	5.6
732.209	5.59
732.529	5.45
732.849	5.47
733.169	5.6
733.489	5.47
733.809	5.37
734.129	5.75
734.448	5.9
734.768	5.99
735.088	5.89
735.408	5.67
735.727	5.9
736.047	5.88
736.366	5.92
736.686	5.93
737.005	6.06
737.325	6.31
737.644	6.05
737.963	5.99
738.283	5.93
738.602	6.07
738.921	6.27
739.24	6.42
739.56	6.78
739.879	6.68
740.198	6.57
740.517	6.78
740.836	6.69
741.155	6.64
741.473	6.46
741.792	6.75
742.111	7.19
742.43	7.03
742.748	7.1
743.067	7.21
743.386	7.07
743.704	7.33
744.023	7.16
744.341	7.5
744.66	7.5
744.978	7.45
745.297	7.57
745.615	7.63
745.933	7.66
746.252	7.34
746.57	7.41
746.888	7.54
747.206	7.35
747.524	7.37
747.842	7.31
748.16	7.35
748.478	7.15
748.796	7.08
749.114	7.19
749.432	7.14
749.749	7.08
750.067	7.07
750.385	6.73
750.703	6.6
751.02	6.64
751.338	6.7
751.655	6.97
751.973	6.78
752.29	6.43
752.608	6.32
752.925	6.3
753.242	6.2
753.56	6.1
753.877	6.31
754.194	6.39
754.511	6.08
754.828	6.19
755.145	6.28
755.462	5.91
755.779	5.99
756.096	6.01
756.413	6.19
756.73	6.59
757.047	6.27
757.364	6.28
757.68	6.01
757.997	5.76
758.314	5.6
758.63	5.83
758.947	6.04
759.264	5.98
759.58	5.93
759.896	5.93
760.213	6.15
760.529	5.82
760.846	5.69
761.162	5.91
761.478	5.93
761.794	5.91
762.11	5.98
762.426	5.86
762.743	5.83
763.059	5.84
763.375	5.72
763.69	6.09
764.006	6.25
764.322	6.57
764.638	6.71
764.954	6.69
765.27	6.65
765.585	6.56
765.901	6.67
766.216	6.91
766.532	6.76
766.848	6.62
767.163	6.68
767.478	6.66
767.794	6.92
768.109	6.88
768.424	6.94
768.74	6.91
769.055	7.02
769.37	6.73
769.685	6.7
770	6.82
770.315	6.76
770.63	6.68
770.945	6.48
771.26	6.41
771.575	6.79
771.89	6.64
772.205	6.67
772.52	6.66
772.834	6.58
773.149	6.99
773.464	7.14
773.778	7.48
774.093	7.61
774.407	7.49
774.722	7.55
775.036	7.29
775.351	7.68
775.665	7.5
775.979	7.8
776.293	7.81
776.608	7.67
776.922	7.54
777.236	7.84
777.55	7.44
777.864	7.46
778.178	7.23
778.492	7.49
778.806	7.75
779.12	7.75
779.434	7.24
779.747	7.08
780.061	7.06
780.375	6.91
780.689	6.92
781.002	6.88
781.316	6.76
781.629	7.18
781.943	6.86
782.256	6.68
782.57	6.81
782.883	7.08
783.196	7.17
783.51	7.62
783.823	7.24
784.136	7.54
784.449	7.51
784.762	7.35
785.075	7.25
785.388	7.33
785.701	7.12
786.014	7.44
786.327	7.46
786.64	7.73
786.953	7.75
787.266	7.67
787.578	7.44
787.891	7.19
788.204	7.12
788.516	7.2
788.829	7.34
789.141	7.29
789.454	7.36
789.766	7.49
790.079	7.07
790.391	6.88
790.703	7.06
791.016	7.37
791.328	7.57
791.64	7.34
791.952	7.09
792.264	7.08
792.576	7.29
792.888	7.37
793.2	7.21
793.512	7.1
793.824	7.09
794.136	7.06
794.448	7.06
794.76	7.33
795.071	7.22
795.383	7.12
795.695	6.98
796.006	6.14
796.318	5.84
796.629	6.08
796.941	6.35
797.252	6.31
797.564	6.23
797.875	5.88
798.186	6.08
798.497	6.15
798.809	6.19
799.12	5.71
799.431	5.56
799.742	5.33
800.053	5.71
800.364	5.68
800.675	5.89
800.986	6.22
801.297	5.68
801.608	5.47
801.918	5.74
802.229	5.93
802.54	6.29
802.851	6.48
803.161	6.3
803.472	6.48
803.782	6.82
804.093	6.58
804.403	7.26
804.714	7.17
805.024	7.69
805.334	7.71
805.645	8.23
805.955	8.8
806.265	9.31
806.575	9.71
806.885	9.72
807.195	9.25
807.505	9.02
807.815	9.16
808.125	9.39
808.435	9.09
808.745	9.15
809.055	9.59
809.365	9.24
809.674	9.49
809.984	9.98
810.294	9.29
810.603	9.28
810.913	8.39
811.222	8.01
811.532	7.22
811.841	8.17
812.151	8.44
812.46	8.1
812.769	7.14
813.079	6.75
813.388	6.61
813.697	6.45
814.006	7.11
814.315	7.54
814.624	7.47
814.933	7.03
815.242	6.41
815.551	6.29
815.86	6.6
816.169	5.86
816.478	5.45
816.786	5.09
817.095	5.86
817.404	6.09
817.712	6.35
818.021	6.42
818.33	5.51
818.638	5.6
818.947	5.31
819.255	5.68
819.563	5.45
819.872	5.68
820.18	6.26
820.488	6.49
820.796	6.36
821.105	6.62
821.413	6.83
821.721	6.88
822.029	6.75
822.337	6.84
822.645	7.01
822.953	7.02
823.26	7
823.568	6.93
823.876	7.04
824.184	7.14
824.491	7.06
824.799	7.21
825.107	7.02
825.414	7.16
825.722	7.12
826.029	7.15
826.337	7.15
826.644	7.08
826.951	6.9
827.259	6.95
827.566	6.81
827.873	6.69
828.18	6.82
828.488	7.01
828.795	7.12
829.102	7.12
829.409	6.79
829.716	6.97
830.023	7.16
830.329	7.07
830.636	7.12
830.943	7.33
831.25	7.42
831.557	7.59
831.863	7.35
832.17	7.21
832.476	7.34
832.783	7.18
833.089	7.3
833.396	7.59
833.702	7.55
834.009	8.12
834.315	8.43
834.621	8.39
834.928	8.29
835.234	8.04
835.54	8.09
835.846	8.26
836.152	8.65
836.458	8.3
836.764	8.56
837.07	8.41
837.376	8.39
837.682	8.13
837.988	8.82
838.293	8.97
838.599	9.52
838.905	9.8
839.211	9.95
839.516	10.4
839.822	10.04
840.127	11.01
840.433	10.6
840.738	10.72
841.044	11.15
841.349	10.37
841.654	10.68
841.959	11.44
842.265	12.62
842.57	12.56
842.875	13.04
843.18	13.06
843.485	12.76
843.79	12.47
844.095	12.61
844.4	11.87
844.705	12.63
845.01	12.62
845.315	13.07
845.619	15.79
845.924	14.59
846.229	15.25
846.533	15.07
846.838	14.19
847.142	13.58
847.447	14.22
847.751	17.55
848.056	17.22
848.36	15.57
848.664	16.74
848.969	15.37
849.273	15.21
849.577	14.99
849.881	15.24
850.185	14.65
850.489	16.34
850.794	16.17
851.097	14.86
851.401	12.84
851.705	13.13
852.009	9.87
852.313	10.42
852.617	9.09
852.92	8.86
853.224	9.33
853.528	8.55
853.831	8.22
854.135	6.11
854.438	6.15
854.742	7.46
855.045	5.03
855.349	4.54
855.652	4.29
855.955	5.8
856.259	6.32
856.562	8.89
856.865	7.88
857.168	7.4
857.471	8.25
857.774	11.43
858.077	8.88
858.38	9.57
858.683	10.35
858.986	10.82
859.289	12.15
859.592	11.44
859.894	14.65
860.197	15.33
860.5	16.92
860.802	17.83
861.105	16.55
861.407	17.34
861.71	19.35
862.012	18.2
862.315	15.6
862.617	15.05
862.919	15.14
863.222	15.05
863.524	13.68
863.826	12.71
864.128	14.19
864.43	18.41
864.732	18.57
865.034	19.04
865.336	19.44
865.638	17.11
865.94	18.56
866.242	17.45
866.544	18.47
866.846	15.38
867.147	15.56
867.449	15.4
867.751	15.2
868.052	13.58
868.354	15.78
868.655	18.11
868.957	18.76
869.258	19.16
869.56	18.53
869.861	20.11
870.162	20.81
870.463	16.74
870.765	14.19
871.066	14.48
871.367	11.69
871.668	10.45
871.969	10.35
872.27	12.1
872.571	12.46
872.872	9.27
873.173	11.24
873.473	9
873.774	9.32
874.075	9.52
874.376	12.46
874.676	10.43
874.977	10.69
875.277	11.29
875.578	8.73
875.878	8.94
876.179	9.42
876.479	10.09
876.78	12.25
877.08	11.86
877.38	11.03
877.68	13.83
877.981	16.19
878.281	16.37
878.581	15
