Data from BA51245_Reflection_00010.txt Node
Date: Tue Nov 19 11:51:53 EST 2019
User: vgr7
Spectrometer: USB2G7710
Scans to average: 3
Trigger mode: 4
Integration Time (sec): 2.000000E-2
Electric dark correction enabled: true
Boxcar width: 10
XAxis mode: Wavelengths
Number of Pixels in Spectrum: 2048
>>>>>Begin Spectral Data<<<<<
177.721	179.71
178.105	123.81
178.488	310.14
178.871	-94.44
179.254	-21.05
179.636	82.91
180.019	219.05
180.402	7.14
180.785	-488.89
181.168	-157.58
181.55	374.19
181.933	209.02
182.316	145.45
182.698	168.53
183.081	193.61
183.463	243.98
183.846	450.39
184.228	575.9
184.611	277.69
184.993	760
185.376	-215.6
185.758	-163.82
186.14	-333.33
186.522	-273.1
186.904	-168.25
187.287	-102.13
187.669	-72.73
188.051	-104.83
188.433	-102.29
188.815	-77.62
189.197	-78.96
189.579	-56.96
189.961	-50.62
190.342	-49.31
190.724	-56.3
191.106	-59.97
191.488	-54.22
191.869	-37.81
192.251	-27
192.633	-25.58
193.014	-38.72
193.396	-69.29
193.777	-22.33
194.159	-10.05
194.54	0.98
194.922	4.72
195.303	-9.9
195.684	-0.85
196.065	8.32
196.447	1.59
196.828	-6.49
197.209	-10.84
197.59	-0.35
197.971	24.72
198.352	20.77
198.733	31.48
199.114	37.74
199.495	52.28
199.876	22.5
200.257	13.93
200.638	9.04
201.018	-0.23
201.399	11.76
201.78	-9.65
202.16	-20.65
202.541	-32.54
202.922	-41.66
203.302	-38.3
203.683	-57.55
204.063	-65.25
204.444	-65.82
204.824	-76.19
205.204	-71.37
205.585	-71
205.965	-78.82
206.345	-69.53
206.725	-64.09
207.106	-62.52
207.486	-67.43
207.866	-49.52
208.246	-50.06
208.626	-47.64
209.006	-36.61
209.386	-36.86
209.766	-38.05
210.145	-25.54
210.525	-17.14
210.905	-10.41
211.285	-7.34
211.664	2.77
212.044	9.95
212.424	16.35
212.803	25.76
213.183	30.22
213.562	26.78
213.942	25.15
214.321	37.56
214.701	31.12
215.08	19.73
215.459	31.09
215.838	27.87
216.218	31.1
216.597	28.57
216.976	41.86
217.355	51.11
217.734	38.05
218.113	42.21
218.492	58.24
218.871	38.83
219.25	42.27
219.629	27.76
220.008	2.33
220.387	9.64
220.766	-9.2
221.144	-16.64
221.523	-17.98
221.902	-9.43
222.28	-17.68
222.659	-2.31
223.037	4.03
223.416	7.66
223.794	6.81
224.173	-0.65
224.551	4.22
224.929	1.62
225.308	-2.14
225.686	0.26
226.064	-0.69
226.442	-2.42
226.821	8.07
227.199	6.85
227.577	7.74
227.955	7.64
228.333	4.97
228.711	6.49
229.089	7.54
229.467	11.2
229.845	14.47
230.222	16.7
230.6	11.63
230.978	15.24
231.356	14.95
231.733	15.13
232.111	17.87
232.488	15.76
232.866	16.31
233.243	16.32
233.621	19.9
233.998	18.14
234.376	18.55
234.753	14.01
235.13	13.45
235.508	12.79
235.885	13.46
236.262	12.19
236.639	10.95
237.016	10.6
237.393	10.26
237.77	8.59
238.147	7.65
238.524	7.03
238.901	5.3
239.278	4.88
239.655	5.07
240.032	4.54
240.409	4.86
240.785	4.4
241.162	4.82
241.539	3.65
241.915	3.27
242.292	3.49
242.668	3.82
243.045	4.12
243.421	4.62
243.798	4.51
244.174	4.93
244.551	4.8
244.927	4.61
245.303	4.16
245.679	4.47
246.056	4.46
246.432	4.71
246.808	5.16
247.184	5.29
247.56	4.93
247.936	4.88
248.312	4.9
248.688	5.19
249.064	5.02
249.44	5.32
249.815	5.27
250.191	5.05
250.567	5.14
250.943	5.05
251.318	4.92
251.694	4.79
252.069	4.96
252.445	5.3
252.82	5.71
253.196	5.69
253.571	5.51
253.947	5.37
254.322	5.09
254.697	4.78
255.073	4.38
255.448	4.88
255.823	5
256.198	4.6
256.573	4.41
256.948	4.48
257.323	4.48
257.698	4.47
258.073	4.47
258.448	4.53
258.823	4.44
259.198	4.43
259.573	4.23
259.948	4.15
260.322	3.99
260.697	3.87
261.072	4.03
261.446	3.78
261.821	3.82
262.195	3.95
262.57	4.02
262.944	4.06
263.319	3.89
263.693	3.71
264.067	4.01
264.442	4.11
264.816	3.96
265.19	3.58
265.564	3.52
265.938	3.55
266.313	3.37
266.687	3.32
267.061	3.21
267.435	3.6
267.809	3.47
268.183	3.47
268.556	3.5
268.93	3.66
269.304	3.99
269.678	3.96
270.051	3.96
270.425	3.8
270.799	3.68
271.172	3.77
271.546	3.81
271.919	3.7
272.293	3.61
272.666	3.93
273.04	4.24
273.413	4.49
273.787	4.46
274.16	4.38
274.533	4.45
274.906	4.54
275.279	4.46
275.653	4.43
276.026	4.44
276.399	4.47
276.772	4.31
277.145	4.19
277.518	4.01
277.891	3.9
278.263	4.06
278.636	4.47
279.009	4.52
279.382	4.51
279.755	4.45
280.127	4.33
280.5	3.94
280.872	4.04
281.245	3.77
281.617	3.83
281.99	3.86
282.362	3.89
282.735	3.63
283.107	3.71
283.479	3.83
283.852	3.87
284.224	4.05
284.596	4.08
284.968	4.07
285.34	4.18
285.713	4.44
286.085	4.27
286.457	4.18
286.829	4.1
287.201	4.21
287.572	4.23
287.944	4.44
288.316	4.5
288.688	4.63
289.06	4.74
289.431	4.79
289.803	4.86
290.175	4.95
290.546	5.07
290.918	5.01
291.289	4.83
291.661	4.9
292.032	4.8
292.403	4.8
292.775	4.87
293.146	5.02
293.517	4.71
293.889	4.64
294.26	4.64
294.631	4.74
295.002	4.7
295.373	4.82
295.744	4.9
296.115	4.9
296.486	4.78
296.857	4.87
297.228	4.87
297.599	4.83
297.97	4.76
298.34	4.87
298.711	5.04
299.082	5.18
299.452	5.17
299.823	5.2
300.194	5.39
300.564	5.34
300.935	5.33
301.305	5.51
301.676	5.73
302.046	5.71
302.416	5.77
302.787	5.8
303.157	5.79
303.527	5.7
303.897	5.88
304.267	5.86
304.637	5.88
305.008	5.87
305.378	6.14
305.748	6.06
306.117	6.13
306.487	6.18
306.857	6.24
307.227	6.23
307.597	6.21
307.967	6.19
308.336	6.39
308.706	6.32
309.076	6.6
309.445	6.77
309.815	6.83
310.184	6.93
310.554	7.01
310.923	6.97
311.293	7.1
311.662	7.13
312.031	7.2
312.401	7.22
312.77	7.33
313.139	7.31
313.508	7.72
313.877	7.77
314.246	7.8
314.616	7.92
314.985	7.99
315.353	8.21
315.722	8.21
316.091	8.3
316.46	8.49
316.829	8.34
317.198	8.44
317.567	8.51
317.935	8.55
318.304	8.79
318.672	9.05
319.041	9
319.41	8.97
319.778	8.99
320.147	9.18
320.515	9.29
320.883	9.31
321.252	9.12
321.62	9.06
321.988	9.19
322.357	9.29
322.725	9.49
323.093	9.44
323.461	9.65
323.829	9.63
324.197	9.65
324.565	9.71
324.933	9.77
325.301	9.73
325.669	9.83
326.037	9.83
326.405	9.81
326.772	9.97
327.14	10.09
327.508	10.2
327.875	10.27
328.243	10.4
328.61	10.59
328.978	10.5
329.346	10.81
329.713	10.85
330.08	10.8
330.448	10.88
330.815	10.92
331.182	10.83
331.55	10.82
331.917	10.9
332.284	11.02
332.651	11.02
333.018	11.08
333.385	11.01
333.752	11.06
334.119	11.13
334.486	11.11
334.853	11.17
335.22	11.11
335.587	11.01
335.954	10.93
336.32	10.76
336.687	10.96
337.054	10.95
337.42	10.87
337.787	10.87
338.153	10.81
338.52	10.85
338.886	10.84
339.253	10.95
339.619	11.02
339.986	11.02
340.352	10.98
340.718	11.1
341.084	11.11
341.451	11.12
341.817	11.2
342.183	11.29
342.549	11.4
342.915	11.4
343.281	11.51
343.647	11.56
344.013	11.75
344.379	11.68
344.745	11.6
345.11	11.65
345.476	11.7
345.842	11.66
346.208	11.73
346.573	11.73
346.939	11.73
347.304	11.73
347.67	11.74
348.035	11.68
348.401	11.79
348.766	11.81
349.132	11.84
349.497	11.7
349.862	11.62
350.228	11.58
350.593	11.64
350.958	11.65
351.323	11.7
351.688	11.71
352.053	11.76
352.418	11.85
352.783	11.74
353.148	11.69
353.513	11.72
353.878	11.51
354.243	11.48
354.608	11.5
354.972	11.44
355.337	11.45
355.702	11.42
356.066	11.23
356.431	11.23
356.795	11.09
357.16	11.16
357.524	11.16
357.889	11.14
358.253	11.11
358.618	11.03
358.982	10.92
359.346	10.77
359.71	10.79
360.075	10.8
360.439	10.85
360.803	10.87
361.167	10.86
361.531	10.93
361.895	10.98
362.259	10.97
362.623	10.99
362.987	10.92
363.351	10.98
363.714	10.97
364.078	10.93
364.442	10.9
364.806	10.84
365.169	10.74
365.533	10.7
365.896	10.67
366.26	10.58
366.623	10.52
366.987	10.47
367.35	10.35
367.714	10.17
368.077	10.12
368.44	10.08
368.803	10
369.167	9.94
369.53	9.9
369.893	9.83
370.256	9.69
370.619	9.65
370.982	9.52
371.345	9.51
371.708	9.47
372.071	9.44
372.434	9.39
372.797	9.4
373.159	9.33
373.522	9.21
373.885	9.27
374.247	9.25
374.61	9.21
374.973	9.21
375.335	9.17
375.698	9.06
376.06	8.96
376.423	8.96
376.785	8.96
377.147	8.83
377.51	8.69
377.872	8.69
378.234	8.63
378.596	8.59
378.958	8.54
379.321	8.44
379.683	8.38
380.045	8.29
380.407	8.24
380.769	8.16
381.13	8.15
381.492	8.06
381.854	8.01
382.216	8.04
382.578	7.97
382.939	7.87
383.301	7.81
383.663	7.8
384.024	7.76
384.386	7.62
384.747	7.52
385.109	7.49
385.47	7.46
385.832	7.43
386.193	7.43
386.554	7.3
386.916	7.3
387.277	7.19
387.638	7.17
387.999	7.15
388.36	7.09
388.721	7.04
389.082	7.02
389.443	7
389.804	6.88
390.165	6.86
390.526	6.82
390.887	6.79
391.248	6.72
391.609	6.65
391.969	6.64
392.33	6.63
392.691	6.59
393.051	6.5
393.412	6.42
393.772	6.38
394.133	6.35
394.493	6.29
394.854	6.3
395.214	6.25
395.574	6.13
395.935	6.08
396.295	6.03
396.655	5.95
397.015	5.91
397.376	5.87
397.736	5.78
398.096	5.73
398.456	5.7
398.816	5.63
399.176	5.56
399.535	5.5
399.895	5.5
400.255	5.48
400.615	5.46
400.975	5.4
401.334	5.33
401.694	5.33
402.054	5.29
402.413	5.24
402.773	5.22
403.132	5.2
403.492	5.2
403.851	5.16
404.211	5.15
404.57	5.11
404.929	5.1
405.288	5.09
405.648	5.08
406.007	5.09
406.366	5.07
406.725	5.07
407.084	5.08
407.443	5.02
407.802	4.98
408.161	4.96
408.52	4.95
408.879	4.92
409.238	4.89
409.596	4.88
409.955	4.87
410.314	4.85
410.673	4.83
411.031	4.78
411.39	4.79
411.748	4.75
412.107	4.72
412.465	4.69
412.824	4.66
413.182	4.63
413.54	4.59
413.899	4.57
414.257	4.55
414.615	4.52
414.974	4.52
415.332	4.52
415.69	4.5
416.048	4.5
416.406	4.47
416.764	4.45
417.122	4.4
417.48	4.35
417.838	4.35
418.195	4.34
418.553	4.34
418.911	4.31
419.269	4.3
419.626	4.28
419.984	4.26
420.342	4.26
420.699	4.23
421.057	4.21
421.414	4.2
421.772	4.19
422.129	4.15
422.486	4.14
422.844	4.11
423.201	4.1
423.558	4.09
423.915	4.09
424.273	4.08
424.63	4.11
424.987	4.12
425.344	4.1
425.701	4.08
426.058	4.09
426.415	4.08
426.772	4.06
427.128	4.06
427.485	4.03
427.842	4.01
428.199	4.02
428.555	4.01
428.912	4.01
429.269	3.97
429.625	3.98
429.982	3.99
430.338	4
430.695	3.95
431.051	3.93
431.407	3.93
431.764	3.93
432.12	3.91
432.476	3.91
432.832	3.91
433.189	3.9
433.545	3.87
433.901	3.85
434.257	3.84
434.613	3.83
434.969	3.83
435.325	3.83
435.681	3.83
436.036	3.83
436.392	3.81
436.748	3.83
437.104	3.83
437.459	3.82
437.815	3.8
438.171	3.81
438.526	3.81
438.882	3.8
439.237	3.79
439.593	3.79
439.948	3.77
440.304	3.75
440.659	3.75
441.014	3.73
441.369	3.75
441.725	3.73
442.08	3.73
442.435	3.74
442.79	3.75
443.145	3.73
443.5	3.72
443.855	3.71
444.21	3.71
444.565	3.69
444.92	3.68
445.275	3.67
445.629	3.67
445.984	3.65
446.339	3.63
446.693	3.64
447.048	3.61
447.403	3.62
447.757	3.61
448.112	3.61
448.466	3.6
448.82	3.57
449.175	3.56
449.529	3.55
449.883	3.55
450.238	3.54
450.592	3.53
450.946	3.54
451.3	3.54
451.654	3.52
452.008	3.54
452.362	3.53
452.716	3.54
453.07	3.55
453.424	3.59
453.778	3.59
454.132	3.55
454.486	3.56
454.839	3.58
455.193	3.58
455.547	3.58
455.9	3.6
456.254	3.63
456.607	3.63
456.961	3.65
457.314	3.64
457.668	3.63
458.021	3.64
458.375	3.65
458.728	3.68
459.081	3.68
459.434	3.67
459.787	3.69
460.141	3.69
460.494	3.69
460.847	3.68
461.2	3.68
461.553	3.71
461.906	3.73
462.259	3.7
462.611	3.71
462.964	3.74
463.317	3.75
463.67	3.77
464.022	3.79
464.375	3.79
464.728	3.78
465.08	3.78
465.433	3.79
465.785	3.8
466.138	3.8
466.49	3.82
466.843	3.84
467.195	3.85
467.547	3.84
467.899	3.85
468.252	3.86
468.604	3.86
468.956	3.86
469.308	3.84
469.66	3.88
470.012	3.89
470.364	3.89
470.716	3.9
471.068	3.92
471.42	3.92
471.772	3.91
472.123	3.97
472.475	4
472.827	3.98
473.178	3.99
473.53	3.98
473.882	3.98
474.233	3.95
474.585	3.94
474.936	3.95
475.288	3.95
475.639	3.93
475.99	3.95
476.342	3.97
476.693	3.98
477.044	3.98
477.395	3.96
477.746	3.93
478.097	3.9
478.448	3.86
478.8	3.85
479.15	3.84
479.501	3.81
479.852	3.81
480.203	3.81
480.554	3.8
480.905	3.8
481.255	3.79
481.606	3.81
481.957	3.8
482.307	3.81
482.658	3.8
483.009	3.8
483.359	3.79
483.709	3.79
484.06	3.79
484.41	3.8
484.761	3.82
485.111	3.82
485.461	3.82
485.811	3.84
486.162	3.85
486.512	3.86
486.862	3.87
487.212	3.86
487.562	3.87
487.912	3.87
488.262	3.88
488.612	3.88
488.961	3.9
489.311	3.91
489.661	3.9
490.011	3.92
490.36	3.92
490.71	3.94
491.06	3.93
491.409	3.94
491.759	3.93
492.108	3.93
492.458	3.95
492.807	3.98
493.157	4
493.506	4
493.855	4.02
494.204	4.03
494.554	4.07
494.903	4.11
495.252	4.13
495.601	4.16
495.95	4.18
496.299	4.18
496.648	4.21
496.997	4.26
497.346	4.3
497.695	4.33
498.043	4.39
498.392	4.45
498.741	4.49
499.09	4.53
499.438	4.57
499.787	4.61
500.135	4.64
500.484	4.65
500.832	4.69
501.181	4.74
501.529	4.8
501.878	4.84
502.226	4.86
502.574	4.92
502.923	4.98
503.271	5.04
503.619	5.13
503.967	5.17
504.315	5.2
504.663	5.26
505.011	5.32
505.359	5.33
505.707	5.4
506.055	5.49
506.403	5.56
506.751	5.62
507.098	5.69
507.446	5.76
507.794	5.83
508.141	5.9
508.489	5.97
508.837	6
509.184	6.06
509.531	6.13
509.879	6.17
510.226	6.23
510.574	6.31
510.921	6.35
511.268	6.45
511.616	6.54
511.963	6.59
512.31	6.71
512.657	6.82
513.004	6.91
513.351	6.99
513.698	7.09
514.045	7.18
514.392	7.27
514.739	7.37
515.086	7.44
515.432	7.54
515.779	7.61
516.126	7.72
516.473	7.82
516.819	7.92
517.166	8.05
517.512	8.12
517.859	8.2
518.205	8.28
518.552	8.34
518.898	8.42
519.245	8.5
519.591	8.57
519.937	8.65
520.283	8.75
520.629	8.82
520.976	8.92
521.322	9.04
521.668	9.16
522.014	9.27
522.36	9.42
522.706	9.54
523.052	9.68
523.398	9.79
523.743	9.91
524.089	10.07
524.435	10.2
524.781	10.33
525.126	10.45
525.472	10.57
525.817	10.69
526.163	10.81
526.509	10.92
526.854	11.02
527.199	11.1
527.545	11.19
527.89	11.29
528.235	11.37
528.581	11.46
528.926	11.54
529.271	11.66
529.616	11.75
529.961	11.85
530.306	11.96
530.651	12.08
530.996	12.21
531.341	12.32
531.686	12.45
532.031	12.57
532.376	12.72
532.721	12.87
533.065	13.01
533.41	13.16
533.755	13.31
534.099	13.48
534.444	13.65
534.788	13.81
535.133	13.96
535.477	14.14
535.822	14.29
536.166	14.48
536.51	14.63
536.855	14.83
537.199	15.04
537.543	15.24
537.887	15.46
538.231	15.67
538.576	15.87
538.92	16.09
539.264	16.31
539.608	16.5
539.951	16.68
540.295	16.85
540.639	17.03
540.983	17.19
541.327	17.34
541.671	17.5
542.014	17.67
542.358	17.83
542.701	17.97
543.045	18.12
543.389	18.28
543.732	18.46
544.075	18.63
544.419	18.81
544.762	19.01
545.105	19.2
545.449	19.4
545.792	19.61
546.135	19.83
546.478	20.05
546.821	20.32
547.165	20.58
547.508	20.83
547.851	21.07
548.194	21.35
548.536	21.59
548.879	21.83
549.222	22.07
549.565	22.33
549.908	22.63
550.25	22.93
550.593	23.22
550.936	23.49
551.278	23.79
551.621	24.08
551.963	24.37
552.306	24.62
552.648	24.9
552.991	25.16
553.333	25.44
553.675	25.67
554.017	25.9
554.36	26.15
554.702	26.42
555.044	26.65
555.386	26.87
555.728	27.14
556.07	27.39
556.412	27.68
556.754	27.94
557.096	28.23
557.438	28.51
557.78	28.77
558.121	29.04
558.463	29.24
558.805	29.54
559.147	29.83
559.488	30.11
559.83	30.38
560.171	30.67
560.513	30.86
560.854	31.2
561.196	31.46
561.537	31.7
561.878	31.96
562.22	32.25
562.561	32.49
562.902	32.77
563.243	33.01
563.584	33.23
563.925	33.45
564.266	33.66
564.607	33.85
564.948	34.16
565.289	34.38
565.63	34.55
565.971	34.76
566.312	34.92
566.653	35.14
566.993	35.35
567.334	35.51
567.675	35.79
568.015	35.9
568.356	36.12
568.696	36.35
569.037	36.54
569.377	36.73
569.718	36.99
570.058	37.21
570.398	37.4
570.739	37.58
571.079	37.86
571.419	38.06
571.759	38.32
572.099	38.45
572.439	38.61
572.779	38.86
573.119	39.04
573.459	39.26
573.799	39.46
574.139	39.65
574.479	39.88
574.819	40.06
575.158	40.36
575.498	40.57
575.838	40.78
576.177	41.03
576.517	41.23
576.856	41.47
577.196	41.72
577.535	42.02
577.875	42.35
578.214	42.57
578.553	42.79
578.893	42.99
579.232	43.31
579.571	43.64
579.91	43.96
580.25	44.16
580.589	44.36
580.928	44.6
581.267	44.88
581.606	45.07
581.945	45.31
582.283	45.42
582.622	45.55
582.961	45.76
583.3	45.91
583.639	46.07
583.977	46.24
584.316	46.34
584.654	46.56
584.993	46.64
585.332	46.79
585.67	46.98
586.008	47.08
586.347	47.17
586.685	47.23
587.024	47.31
587.362	47.51
587.7	47.7
588.038	47.87
588.376	47.97
588.715	48.11
589.053	48.27
589.391	48.37
589.729	48.53
590.067	48.61
590.404	48.77
590.742	48.93
591.08	49
591.418	49.12
591.756	49.11
592.093	49.24
592.431	49.38
592.769	49.48
593.106	49.57
593.444	49.68
593.781	49.71
594.119	49.84
594.456	49.86
594.793	49.91
595.131	49.97
595.468	50.03
595.805	50.09
596.143	50.18
596.48	50.32
596.817	50.42
597.154	50.49
597.491	50.52
597.828	50.58
598.165	50.64
598.502	50.67
598.839	50.78
599.176	50.88
599.512	50.94
599.849	51
600.186	51.11
600.523	51.14
600.859	51.32
601.196	51.32
601.532	51.33
601.869	51.37
602.205	51.48
602.542	51.48
602.878	51.58
603.215	51.56
603.551	51.56
603.887	51.64
604.223	51.7
604.56	51.74
604.896	51.78
605.232	51.77
605.568	51.87
605.904	51.92
606.24	51.9
606.576	51.87
606.912	51.88
607.248	51.96
607.583	52.1
607.919	52.14
608.255	52.27
608.591	52.48
608.926	52.62
609.262	52.59
609.597	52.74
609.933	52.85
610.268	52.97
610.604	53.08
610.939	53.14
611.275	53.22
611.61	53.28
611.945	53.43
612.281	53.62
612.616	53.73
612.951	53.85
613.286	54.09
613.621	54.28
613.956	54.55
614.291	54.6
614.626	54.72
614.961	54.82
615.296	54.92
615.631	54.94
615.966	55.01
616.3	55.2
616.635	55.15
616.97	55.17
617.304	55.2
617.639	55.35
617.973	55.39
618.308	55.45
618.642	55.48
618.977	55.5
619.311	55.54
619.646	55.62
619.98	55.59
620.314	55.6
620.648	55.69
620.983	55.63
621.317	55.67
621.651	55.62
621.985	55.68
622.319	55.63
622.653	55.67
622.987	55.65
623.321	55.63
623.655	55.8
623.988	55.85
624.322	55.76
624.656	55.69
624.99	55.69
625.323	55.64
625.657	55.66
625.99	55.58
626.324	55.6
626.657	55.56
626.991	55.59
627.324	55.51
627.658	55.38
627.991	55.39
628.324	55.38
628.657	55.39
628.991	55.47
629.324	55.55
629.657	55.48
629.99	55.5
630.323	55.55
630.656	55.51
630.989	55.45
631.322	55.6
631.655	55.56
631.987	55.64
632.32	55.68
632.653	55.75
632.986	55.87
633.318	55.85
633.651	55.97
633.984	56.09
634.316	56.19
634.649	56.34
634.981	56.41
635.313	56.51
635.646	56.58
635.978	56.56
636.31	56.54
636.643	56.7
636.975	56.76
637.307	56.8
637.639	56.8
637.971	56.92
638.303	56.91
638.635	57.04
638.967	57.09
639.299	57.25
639.631	57.21
639.963	57.27
640.295	57.33
640.626	57.33
640.958	57.26
641.29	57.25
641.621	57.22
641.953	57.16
642.285	57.13
642.616	57.19
642.948	57.15
643.279	57.33
643.61	57.29
643.942	57.32
644.273	57.28
644.604	57.35
644.936	57.4
645.267	57.5
645.598	57.5
645.929	57.52
646.26	57.51
646.591	57.6
646.922	57.57
647.253	57.62
647.584	57.47
647.915	57.53
648.245	57.5
648.576	57.5
648.907	57.55
649.238	57.59
649.568	57.56
649.899	57.53
650.229	57.42
650.56	57.43
650.89	57.36
651.221	57.29
651.551	57.23
651.882	57.19
652.212	57.07
652.542	57.07
652.872	56.92
653.203	56.91
653.533	56.94
653.863	56.92
654.193	56.79
654.523	56.76
654.853	56.8
655.183	56.81
655.513	56.9
655.843	56.86
656.172	56.91
656.502	56.93
656.832	56.94
657.162	56.97
657.491	57.02
657.821	57.11
658.15	57.17
658.48	57.28
658.809	57.27
659.139	57.35
659.468	57.28
659.798	57.41
660.127	57.34
660.456	57.23
660.785	57.24
661.115	57.33
661.444	57.5
661.773	57.47
662.102	57.5
662.431	57.42
662.76	57.5
663.089	57.46
663.418	57.42
663.747	57.59
664.076	57.55
664.404	57.6
664.733	57.74
665.062	57.94
665.39	58.02
665.719	57.97
666.048	57.93
666.376	58.01
666.705	57.95
667.033	58.03
667.362	58.14
667.69	58.05
668.018	58.05
668.347	58.11
668.675	58.03
669.003	58.07
669.331	58.08
669.659	58.17
669.987	58.22
670.315	58.21
670.643	58.09
670.971	58.11
671.299	57.95
671.627	57.86
671.955	57.82
672.283	57.8
672.61	57.85
672.938	57.95
673.266	57.9
673.593	57.89
673.921	57.9
674.249	57.98
674.576	58.12
674.904	58.27
675.231	58.1
675.558	58.12
675.886	57.95
676.213	58.09
676.54	57.95
676.867	57.89
677.195	57.91
677.522	57.72
677.849	57.68
678.176	57.62
678.503	57.5
678.83	57.5
679.157	57.32
679.484	57.3
679.81	57.2
680.137	57.35
680.464	57.28
680.791	57.22
681.117	57.19
681.444	57.09
681.771	57.03
682.097	57
682.424	57.07
682.75	57.12
683.077	57
683.403	57.07
683.729	57.14
684.056	57.07
684.382	57.21
684.708	57.16
685.034	57.34
685.36	57.51
685.686	57.43
686.012	57.63
686.339	57.62
686.664	57.58
686.99	57.56
687.316	57.72
687.642	57.89
687.968	58.07
688.294	58.1
688.619	58.02
688.945	58.11
689.271	58.15
689.596	58.22
689.922	58.17
690.247	58.2
690.573	58.06
690.898	58.05
691.224	58.02
691.549	58.23
691.874	58.32
692.2	58.14
692.525	57.92
692.85	57.75
693.175	57.87
693.5	57.8
693.825	57.67
694.15	57.53
694.475	57.38
694.8	56.97
695.125	56.97
695.45	56.96
695.775	56.99
696.099	56.95
696.424	56.8
696.749	56.74
697.073	56.69
697.398	56.76
697.723	56.82
698.047	56.77
698.372	56.57
698.696	56.46
699.02	56.51
699.345	56.53
699.669	56.73
699.993	56.59
700.318	56.78
700.642	56.82
700.966	56.88
701.29	56.81
701.614	57.05
701.938	57.22
702.262	57.24
702.586	57.33
702.91	57.29
703.234	57.42
703.557	57.73
703.881	57.79
704.205	57.76
704.529	57.95
704.852	58.03
705.176	58.04
705.499	58.22
705.823	58.32
706.146	58.51
706.47	58.38
706.793	58.53
707.117	58.47
707.44	58.58
707.763	58.56
708.086	58.57
708.409	58.65
708.733	58.42
709.056	58.6
709.379	58.6
709.702	58.67
710.025	58.76
710.348	58.61
710.671	58.66
710.993	58.74
711.316	58.61
711.639	58.73
711.962	59.1
712.284	59.09
712.607	58.75
712.93	58.8
713.252	58.61
713.575	58.42
713.897	58.49
714.22	58.15
714.542	58
714.864	58.08
715.187	57.79
715.509	57.61
715.831	57.49
716.153	57.15
716.475	57.12
716.798	57.15
717.12	57.07
717.442	56.85
717.764	56.76
718.085	56.83
718.407	56.83
718.729	56.42
719.051	56.14
719.373	56.63
719.695	56.44
720.016	56.86
720.338	56.98
720.659	56.88
720.981	57.1
721.302	57.14
721.624	57.05
721.945	56.93
722.267	57.26
722.588	57.1
722.909	57.16
723.231	57
723.552	56.95
723.873	57.15
724.194	57.18
724.515	57.28
724.836	57
725.157	56.92
725.478	57.07
725.799	57.31
726.12	56.98
726.441	57.05
726.762	56.9
727.083	56.95
727.403	56.65
727.724	56.56
728.045	56.71
728.365	56.8
728.686	56.84
729.006	56.77
729.327	56.8
729.647	57.08
729.967	57.27
730.288	57.14
730.608	57.05
730.928	57.1
731.249	57.18
731.569	57.42
731.889	57.36
732.209	57.17
732.529	57.15
732.849	57.22
733.169	57.26
733.489	57.16
733.809	57.18
734.129	57.51
734.448	57.79
734.768	57.88
735.088	57.92
735.408	57.93
735.727	58.09
736.047	58.3
736.366	58.14
736.686	58.13
737.005	58.34
737.325	58.34
737.644	58.23
737.963	58.08
738.283	57.71
738.602	57.79
738.921	58.09
739.24	57.85
739.56	57.88
739.879	57.85
740.198	57.79
740.517	57.78
740.836	57.63
741.155	57.23
741.473	56.79
741.792	56.77
742.111	57.12
742.43	57.08
742.748	57.02
743.067	56.95
743.386	56.81
743.704	56.76
744.023	56.7
744.341	56.9
744.66	56.67
744.978	57.01
745.297	57.27
745.615	57.3
745.933	57.51
746.252	57.72
746.57	57.66
746.888	57.67
747.206	57.84
747.524	58.01
747.842	58.15
748.16	58.8
748.478	58.71
748.796	58.76
749.114	58.78
749.432	58.79
749.749	59
750.067	59.17
750.385	58.86
750.703	58.83
751.02	58.66
751.338	59.14
751.655	58.95
751.973	58.79
752.29	58.35
752.608	58.19
752.925	58.04
753.242	57.93
753.56	57.84
753.877	57.52
754.194	57.34
754.511	57.37
754.828	57.16
755.145	57.19
755.462	56.98
755.779	56.9
756.096	56.91
756.413	56.47
756.73	56.05
757.047	56.13
757.364	55.98
757.68	55.75
757.997	55.68
758.314	55.57
758.63	55.38
758.947	55.92
759.264	55.5
759.58	55.51
759.896	55.48
760.213	55.71
760.529	56.03
760.846	56.11
761.162	55.96
761.478	55.86
761.794	55.73
762.11	55.89
762.426	55.67
762.743	55.56
763.059	55.79
763.375	55.95
763.69	56.04
764.006	56.07
764.322	56.34
764.638	56.53
764.954	56.98
765.27	56.87
765.585	56.73
765.901	57.14
766.216	57.14
766.532	57.29
766.848	57.57
767.163	57.27
767.478	57.28
767.794	57.3
768.109	57.26
768.424	57.35
768.74	57.39
769.055	57.56
769.37	57.84
769.685	58.35
770	58.44
770.315	58.77
770.63	59.02
770.945	59.01
771.26	58.59
771.575	57.82
771.89	58.19
772.205	58.13
772.52	58.11
772.834	58.02
773.149	58.43
773.464	58.18
773.778	58.7
774.093	59.1
774.407	59.25
774.722	59.08
775.036	59.42
775.351	59.38
775.665	59.54
775.979	59.14
776.293	58.5
776.608	58.65
776.922	58.44
777.236	58.7
777.55	58.82
777.864	59.22
778.178	59.44
778.492	59.14
778.806	59.27
779.12	59.07
779.434	59.25
779.747	58.98
780.061	58.75
780.375	58.2
780.689	58.4
781.002	58.76
781.316	58.47
781.629	58.41
781.943	58.19
782.256	57.87
782.57	58.45
782.883	58.26
783.196	58.3
783.51	58.17
783.823	57.79
784.136	57.77
784.449	57.62
784.762	57.86
785.075	58.17
785.388	58.19
785.701	58.34
786.014	58.6
786.327	58.27
786.64	58.23
786.953	58.1
787.266	57.7
787.578	57.31
787.891	57.86
788.204	57.49
788.516	57.21
788.829	57.5
789.141	56.92
789.454	57.78
789.766	58.04
790.079	57.76
790.391	57.51
790.703	57.29
791.016	56.71
791.328	56.63
791.64	57.15
791.952	57.05
792.264	56.67
792.576	56.47
792.888	56.9
793.2	57.13
793.512	57.67
793.824	57.59
794.136	57.78
794.448	57.86
794.76	58.54
795.071	59.19
795.383	59.01
795.695	59.02
796.006	58.46
796.318	57.72
796.629	58.74
796.941	59.01
797.252	59.19
797.564	59.57
797.875	59.84
798.186	59.18
798.497	58.95
798.809	59.92
799.12	59.29
799.431	59
799.742	58.37
800.053	57.97
800.364	57.65
800.675	57.28
800.986	57.41
801.297	56.99
801.608	57.27
801.918	57.38
802.229	57.82
802.54	57.51
802.851	58.4
803.161	57.47
803.472	57.94
803.782	57.33
804.093	57.31
804.403	57.28
804.714	57.57
805.024	57.39
805.334	56.73
805.645	57.39
805.955	57.51
806.265	57.77
806.575	58.63
806.885	58.92
807.195	59.42
807.505	59.15
807.815	59.81
808.125	58.78
808.435	58.93
808.745	58.87
809.055	59.63
809.365	59.21
809.674	58.89
809.984	58.15
810.294	59.22
810.603	59.25
810.913	58.28
811.222	57.49
811.532	57.65
811.841	57.69
812.151	57.61
812.46	57.55
812.769	57.3
813.079	56.78
813.388	56.69
813.697	56.64
814.006	56.75
814.315	56.18
814.624	56.21
814.933	56.53
815.242	56.1
815.551	55.63
815.86	56.08
816.169	56.67
816.478	56.64
816.786	56.63
817.095	56.33
817.404	56.68
817.712	56.98
818.021	57.5
818.33	57.25
818.638	57.13
818.947	57.62
819.255	58.15
819.563	57.46
819.872	57.45
820.18	57.19
820.488	57.48
820.796	57.53
821.105	57.81
821.413	57.73
821.721	57.65
822.029	57.66
822.337	57.27
822.645	57.2
822.953	57.07
823.26	57
823.568	57.02
823.876	57.1
824.184	57.03
824.491	56.75
824.799	56.82
825.107	56.8
825.414	56.68
825.722	56.42
826.029	56.76
826.337	56.73
826.644	56.77
826.951	56.55
827.259	56.29
827.566	55.99
827.873	55.8
828.18	55.68
828.488	55.47
828.795	55.55
829.102	55.38
829.409	55.46
829.716	55.4
830.023	55.52
830.329	55.96
830.636	56.01
830.943	56.53
831.25	56.27
831.557	56.61
831.863	56.38
832.17	57.21
832.476	56.84
832.783	56.57
833.089	56.98
833.396	56.96
833.702	57.15
834.009	57.28
834.315	57.22
834.621	57.29
834.928	56.85
835.234	56.97
835.54	57.62
835.846	57.53
836.152	57.09
836.458	57.05
836.764	56.16
837.07	56.08
837.376	55.6
837.682	55.51
837.988	54.75
838.293	54.77
838.599	54.13
838.905	54.46
839.211	54.88
839.516	53.93
839.822	54.56
840.127	54.6
840.433	55.11
840.738	55.2
841.044	55.66
841.349	56.34
841.654	55.88
841.959	55.11
842.265	55.7
842.57	57.23
842.875	56.64
843.18	56.23
843.485	58.21
843.79	58.78
844.095	59.45
844.4	60.53
844.705	61.92
845.01	61.12
845.315	60.65
845.619	61.66
845.924	62.32
846.229	62.16
846.533	61.93
846.838	62.63
847.142	62.61
847.447	62.72
847.751	63.84
848.056	65.14
848.36	63.29
848.664	63.66
848.969	61.6
849.273	59.98
849.577	60.6
849.881	58.44
850.185	58.62
850.489	60.58
850.794	59.15
851.097	57.31
851.401	55.29
851.705	55.65
852.009	53.06
852.313	53.25
852.617	50.47
852.92	51.14
853.224	49.47
853.528	49.49
853.831	50.89
854.135	51.27
854.438	51.25
854.742	54.63
855.045	54.05
855.349	55.87
855.652	60.75
855.955	61.12
856.259	59.36
856.562	60.82
856.865	57.08
857.168	54.01
857.471	55
857.774	57.98
858.077	56.1
858.38	54.66
858.683	54.67
858.986	57.43
859.289	56.2
859.592	55.16
859.894	55.02
860.197	51.71
860.5	49.7
860.802	49.22
861.105	49
861.407	48.78
861.71	47.73
862.012	44.6
862.315	44.19
862.617	44.96
862.919	43.73
863.222	46.69
863.524	49.55
863.826	49.1
864.128	48.83
864.43	50.92
864.732	52.92
865.034	52.13
865.336	52.81
865.638	54.87
865.94	55.23
866.242	53.73
866.544	55.56
866.846	55.59
867.147	56.38
867.449	54.16
867.751	55.92
868.052	54.18
868.354	55.23
868.655	53.69
868.957	54.23
869.258	51.24
869.56	51.95
869.861	52.72
870.162	51.82
870.463	53.16
870.765	53.44
871.066	53.24
871.367	54.3
871.668	51.87
871.969	52.36
872.27	50.84
872.571	51.75
872.872	51.44
873.173	51.39
873.473	48.97
873.774	50.24
874.075	48.42
874.376	47.94
874.676	45.33
874.977	47.35
875.277	46.36
875.578	50.38
875.878	48.37
876.179	48.46
876.479	48.51
876.78	46.07
877.08	43.01
877.38	42.77
877.68	41.56
877.981	41.95
878.281	38.88
878.581	41.4
