Data from BA51068_Reflection_00005.txt Node
Date: Tue Nov 19 11:58:58 EST 2019
User: vgr7
Spectrometer: USB2G7710
Scans to average: 3
Trigger mode: 4
Integration Time (sec): 2.000000E-2
Electric dark correction enabled: true
Boxcar width: 10
XAxis mode: Wavelengths
Number of Pixels in Spectrum: 2048
>>>>>Begin Spectral Data<<<<<
177.721	-7.1
178.105	31.03
178.488	25.05
178.871	65.45
179.254	-2700
179.636	64.29
180.019	-185.2
180.402	133.33
180.785	-31.76
181.168	-22.88
181.55	253.85
181.933	96.14
182.316	-31.37
182.698	-28.59
183.081	-87.62
183.463	-96.03
183.846	-801.64
184.228	84.31
184.611	93.95
184.993	73.51
185.376	21.67
185.758	9.19
186.14	44.35
186.522	11.08
186.904	16.48
187.287	26.29
187.669	45.7
188.051	78.76
188.433	34.63
188.815	82.65
189.197	75.13
189.579	44.01
189.961	52.19
190.342	21.64
190.724	6.36
191.106	4.32
191.488	30.57
191.869	56.82
192.251	129.37
192.633	168.8
193.014	267.24
193.396	3665.22
193.777	326.01
194.159	241.53
194.54	441.3
194.922	237.52
195.303	292.41
195.684	298.3
196.065	271.99
196.447	349.36
196.828	261.1
197.209	242.51
197.59	912.08
197.971	-1611.34
198.352	-567.75
198.733	-414.81
199.114	-592.58
199.495	-900
199.876	-366.47
200.257	-110.53
200.638	-175.69
201.018	-371.76
201.399	-526.73
201.78	-1637.7
202.16	2700
202.541	1744.07
202.922	405.44
203.302	670.09
203.683	-589.66
204.063	-300
204.444	-428.38
204.824	-504.26
205.204	-615.42
205.585	-999.17
205.965	-1736.07
206.345	531.47
206.725	450.6
207.106	1091.6
207.486	287.63
207.866	233.61
208.246	140.99
208.626	111.79
209.006	122.66
209.386	63.87
209.766	80.43
210.145	84.16
210.525	83.41
210.905	78.88
211.285	79.39
211.664	65.22
212.044	58.43
212.424	46.56
212.803	38.55
213.183	41.68
213.562	41.51
213.942	32.21
214.321	28.22
214.701	27.66
215.08	29.52
215.459	33.25
215.838	37.01
216.218	29.24
216.597	33.32
216.976	35.04
217.355	52.03
217.734	62.92
218.113	53.31
218.492	43.5
218.871	43.87
219.25	46.32
219.629	52.04
220.008	51.43
220.387	47.07
220.766	53.91
221.144	53.24
221.523	48.37
221.902	76.48
222.28	90.22
222.659	79.05
223.037	53.48
223.416	44.03
223.794	37.7
224.173	43.85
224.551	49.79
224.929	42.64
225.308	22.6
225.686	12.06
226.064	20.65
226.442	24.34
226.821	22.81
227.199	19.51
227.577	16.16
227.955	15.66
228.333	17.65
228.711	15.58
229.089	13.61
229.467	14.17
229.845	10.13
230.222	6.07
230.6	3.64
230.978	8.34
231.356	8.75
231.733	9.46
232.111	11.54
232.488	8.7
232.866	11.32
233.243	12.54
233.621	14.28
233.998	13.63
234.376	13.51
234.753	13.2
235.13	13.4
235.508	14.98
235.885	14.42
236.262	12.31
236.639	10.34
237.016	10.49
237.393	9.58
237.77	9.08
238.147	8.9
238.524	10.71
238.901	9.29
239.278	8.28
239.655	8.11
240.032	7.39
240.409	7.5
240.785	6.03
241.162	5.87
241.539	5.33
241.915	4.81
242.292	4.9
242.668	5.31
243.045	5.36
243.421	5.04
243.798	5.25
244.174	5.42
244.551	5.6
244.927	5.45
245.303	5.28
245.679	5.31
246.056	5.3
246.432	4.88
246.808	5.24
247.184	5.37
247.56	5.33
247.936	5.29
248.312	5.46
248.688	5.75
249.064	5.77
249.44	5.88
249.815	6.17
250.191	6.11
250.567	6.03
250.943	6.03
251.318	6.18
251.694	5.93
252.069	6
252.445	6.11
252.82	6.39
253.196	6.86
253.571	7.19
253.947	7.2
254.322	7.53
254.697	6.96
255.073	7.19
255.448	7.1
255.823	6.84
256.198	6.5
256.573	6.13
256.948	6.17
257.323	5.79
257.698	5.49
258.073	5.36
258.448	5.21
258.823	5.07
259.198	5.01
259.573	5.07
259.948	5.08
260.322	4.98
260.697	4.81
261.072	4.87
261.446	4.78
261.821	4.77
262.195	4.49
262.57	4.68
262.944	4.6
263.319	4.65
263.693	4.74
264.067	4.87
264.442	4.99
264.816	4.99
265.19	4.92
265.564	5.02
265.938	5.19
266.313	5.09
266.687	5.07
267.061	5.08
267.435	5.11
267.809	5.01
268.183	4.94
268.556	4.71
268.93	4.73
269.304	4.63
269.678	4.8
270.051	4.93
270.425	4.65
270.799	4.45
271.172	4.36
271.546	4.31
271.919	4.28
272.293	4.24
272.666	4.21
273.04	4.33
273.413	4.34
273.787	4.17
274.16	4.2
274.533	4.35
274.906	4.24
275.279	4.23
275.653	4.19
276.026	4.23
276.399	4.37
276.772	4.11
277.145	4.13
277.518	3.96
277.891	3.89
278.263	4.09
278.636	4.36
279.009	4.33
279.382	4.32
279.755	4.35
280.127	4.5
280.5	4.52
280.872	4.56
281.245	4.63
281.617	4.59
281.99	4.7
282.362	4.48
282.735	4.65
283.107	4.52
283.479	4.69
283.852	4.79
284.224	4.9
284.596	4.93
284.968	4.91
285.34	4.98
285.713	5.11
286.085	4.93
286.457	4.89
286.829	4.92
287.201	4.98
287.572	4.94
287.944	4.99
288.316	4.9
288.688	4.93
289.06	4.95
289.431	5.04
289.803	5.11
290.175	5.26
290.546	5.19
290.918	5.26
291.289	5.12
291.661	5.1
292.032	5
292.403	4.9
292.775	4.92
293.146	4.95
293.517	4.88
293.889	5.06
294.26	5.13
294.631	5.13
295.002	5.15
295.373	5.08
295.744	5.07
296.115	5.09
296.486	5.05
296.857	5.1
297.228	5.09
297.599	4.88
297.97	5.03
298.34	4.98
298.711	5.11
299.082	5.1
299.452	5.13
299.823	5.21
300.194	5.3
300.564	5.07
300.935	5.03
301.305	5.06
301.676	4.95
302.046	4.95
302.416	4.95
302.787	4.9
303.157	4.98
303.527	4.98
303.897	4.85
304.267	5.05
304.637	5.03
305.008	5.09
305.378	5.1
305.748	4.8
306.117	4.86
306.487	4.78
306.857	4.92
307.227	4.77
307.597	4.74
307.967	4.81
308.336	4.94
308.706	4.89
309.076	4.99
309.445	5.08
309.815	5.03
310.184	5.04
310.554	5.07
310.923	4.97
311.293	4.85
311.662	4.94
312.031	4.79
312.401	4.69
312.77	4.65
313.139	4.84
313.508	4.97
313.877	4.95
314.246	4.86
314.616	4.79
314.985	4.77
315.353	4.71
315.722	4.79
316.091	4.88
316.46	4.88
316.829	4.75
317.198	4.8
317.567	4.86
317.935	4.97
318.304	4.97
318.672	5.08
319.041	5.2
319.41	5.04
319.778	5.15
320.147	5.27
320.515	5.33
320.883	5.09
321.252	5.05
321.62	5.11
321.988	5.32
322.357	5.32
322.725	5.48
323.093	5.51
323.461	5.41
323.829	5.36
324.197	5.42
324.565	5.39
324.933	5.32
325.301	5.14
325.669	5.1
326.037	4.98
326.405	5.08
326.772	5.08
327.14	5.2
327.508	5.15
327.875	5.09
328.243	5.09
328.61	5.24
328.978	5.27
329.346	5.26
329.713	5.22
330.08	5.25
330.448	5.22
330.815	5.16
331.182	5.12
331.55	5.19
331.917	5.14
332.284	5.31
332.651	5.36
333.018	5.35
333.385	5.37
333.752	5.49
334.119	5.38
334.486	5.44
334.853	5.43
335.22	5.37
335.587	5.25
335.954	5.19
336.32	5.06
336.687	4.95
337.054	4.78
337.42	4.63
337.787	4.56
338.153	4.46
338.52	4.71
338.886	4.78
339.253	4.7
339.619	4.74
339.986	4.6
340.352	4.48
340.718	4.45
341.084	4.35
341.451	4.35
341.817	4.31
342.183	4.2
342.549	4.3
342.915	4.34
343.281	4.36
343.647	4.3
344.013	4.37
344.379	4.55
344.745	4.64
345.11	4.71
345.476	4.84
345.842	4.77
346.208	4.64
346.573	4.61
346.939	4.59
347.304	4.59
347.67	4.49
348.035	4.45
348.401	4.5
348.766	4.55
349.132	4.51
349.497	4.62
349.862	4.69
350.228	4.68
350.593	4.57
350.958	4.71
351.323	4.79
351.688	4.73
352.053	4.63
352.418	4.55
352.783	4.56
353.148	4.5
353.513	4.59
353.878	4.51
354.243	4.41
354.608	4.47
354.972	4.4
355.337	4.56
355.702	4.62
356.066	4.7
356.431	4.75
356.795	4.84
357.16	4.78
357.524	4.77
357.889	4.73
358.253	4.85
358.618	4.76
358.982	4.78
359.346	4.83
359.71	4.79
360.075	4.93
360.439	4.96
360.803	4.95
361.167	4.85
361.531	4.86
361.895	4.9
362.259	4.85
362.623	4.95
362.987	4.88
363.351	4.83
363.714	4.9
364.078	4.91
364.442	4.76
364.806	4.78
365.169	4.7
365.533	4.65
365.896	4.64
366.26	4.65
366.623	4.59
366.987	4.66
367.35	4.66
367.714	4.64
368.077	4.66
368.44	4.67
368.803	4.76
369.167	4.74
369.53	4.77
369.893	4.81
370.256	4.71
370.619	4.71
370.982	4.72
371.345	4.66
371.708	4.62
372.071	4.62
372.434	4.57
372.797	4.56
373.159	4.58
373.522	4.55
373.885	4.54
374.247	4.55
374.61	4.49
374.973	4.54
375.335	4.5
375.698	4.44
376.06	4.43
376.423	4.44
376.785	4.49
377.147	4.53
377.51	4.46
377.872	4.52
378.234	4.53
378.596	4.57
378.958	4.55
379.321	4.51
379.683	4.58
380.045	4.59
380.407	4.63
380.769	4.63
381.13	4.56
381.492	4.54
381.854	4.52
382.216	4.54
382.578	4.53
382.939	4.52
383.301	4.49
383.663	4.46
384.024	4.46
384.386	4.42
384.747	4.39
385.109	4.4
385.47	4.39
385.832	4.4
386.193	4.34
386.554	4.31
386.916	4.34
387.277	4.35
387.638	4.39
387.999	4.34
388.36	4.27
388.721	4.28
389.082	4.31
389.443	4.36
389.804	4.36
390.165	4.33
390.526	4.3
390.887	4.32
391.248	4.33
391.609	4.33
391.969	4.38
392.33	4.34
392.691	4.35
393.051	4.35
393.412	4.35
393.772	4.41
394.133	4.4
394.493	4.35
394.854	4.31
395.214	4.29
395.574	4.3
395.935	4.34
396.295	4.38
396.655	4.33
397.015	4.29
397.376	4.28
397.736	4.26
398.096	4.28
398.456	4.29
398.816	4.29
399.176	4.27
399.535	4.27
399.895	4.27
400.255	4.28
400.615	4.27
400.975	4.24
401.334	4.22
401.694	4.23
402.054	4.23
402.413	4.22
402.773	4.18
403.132	4.2
403.492	4.2
403.851	4.17
404.211	4.2
404.57	4.2
404.929	4.2
405.288	4.23
405.648	4.22
406.007	4.18
406.366	4.2
406.725	4.21
407.084	4.17
407.443	4.2
407.802	4.19
408.161	4.21
408.52	4.21
408.879	4.2
409.238	4.2
409.596	4.21
409.955	4.24
410.314	4.27
410.673	4.27
411.031	4.28
411.39	4.32
411.748	4.32
412.107	4.3
412.465	4.27
412.824	4.26
413.182	4.26
413.54	4.26
413.899	4.22
414.257	4.2
414.615	4.17
414.974	4.14
415.332	4.12
415.69	4.11
416.048	4.1
416.406	4.09
416.764	4.1
417.122	4.07
417.48	4.05
417.838	4.04
418.195	4.02
418.553	4.02
418.911	3.96
419.269	3.96
419.626	3.97
419.984	3.97
420.342	3.97
420.699	3.96
421.057	3.96
421.414	3.97
421.772	3.97
422.129	3.95
422.486	3.96
422.844	3.96
423.201	3.94
423.558	3.94
423.915	3.94
424.273	3.93
424.63	3.96
424.987	3.96
425.344	3.98
425.701	3.95
426.058	3.93
426.415	3.97
426.772	3.96
427.128	3.97
427.485	3.96
427.842	3.96
428.199	3.95
428.555	3.93
428.912	3.91
429.269	3.91
429.625	3.94
429.982	3.92
430.338	3.93
430.695	3.93
431.051	3.96
431.407	3.95
431.764	3.95
432.12	3.91
432.476	3.92
432.832	3.9
433.189	3.95
433.545	3.95
433.901	3.92
434.257	3.92
434.613	3.89
434.969	3.88
435.325	3.88
435.681	3.87
436.036	3.89
436.392	3.89
436.748	3.91
437.104	3.91
437.459	3.91
437.815	3.9
438.171	3.9
438.526	3.89
438.882	3.89
439.237	3.9
439.593	3.91
439.948	3.9
440.304	3.89
440.659	3.88
441.014	3.89
441.369	3.9
441.725	3.9
442.08	3.9
442.435	3.92
442.79	3.92
443.145	3.93
443.5	3.9
443.855	3.89
444.21	3.87
444.565	3.86
444.92	3.85
445.275	3.86
445.629	3.85
445.984	3.84
446.339	3.84
446.693	3.81
447.048	3.8
447.403	3.79
447.757	3.78
448.112	3.76
448.466	3.78
448.82	3.76
449.175	3.76
449.529	3.77
449.883	3.75
450.238	3.74
450.592	3.73
450.946	3.75
451.3	3.77
451.654	3.76
452.008	3.77
452.362	3.78
452.716	3.78
453.07	3.78
453.424	3.76
453.778	3.77
454.132	3.76
454.486	3.77
454.839	3.79
455.193	3.8
455.547	3.79
455.9	3.78
456.254	3.79
456.607	3.78
456.961	3.79
457.314	3.79
457.668	3.79
458.021	3.78
458.375	3.77
458.728	3.76
459.081	3.79
459.434	3.78
459.787	3.77
460.141	3.76
460.494	3.79
460.847	3.81
461.2	3.81
461.553	3.84
461.906	3.84
462.259	3.83
462.611	3.85
462.964	3.87
463.317	3.87
463.67	3.87
464.022	3.89
464.375	3.88
464.728	3.86
465.08	3.85
465.433	3.87
465.785	3.89
466.138	3.9
466.49	3.91
466.843	3.93
467.195	3.94
467.547	3.95
467.899	3.91
468.252	3.92
468.604	3.92
468.956	3.9
469.308	3.88
469.66	3.89
470.012	3.89
470.364	3.87
470.716	3.87
471.068	3.88
471.42	3.88
471.772	3.9
472.123	3.92
472.475	3.94
472.827	3.93
473.178	3.93
473.53	3.92
473.882	3.91
474.233	3.91
474.585	3.9
474.936	3.92
475.288	3.94
475.639	3.94
475.99	3.94
476.342	3.94
476.693	3.95
477.044	3.96
477.395	3.96
477.746	3.96
478.097	3.97
478.448	3.93
478.8	3.93
479.15	3.92
479.501	3.94
479.852	3.93
480.203	3.93
480.554	3.94
480.905	3.95
481.255	3.95
481.606	3.95
481.957	3.94
482.307	3.93
482.658	3.93
483.009	3.94
483.359	3.93
483.709	3.94
484.06	3.94
484.41	3.93
484.761	3.94
485.111	3.94
485.461	3.93
485.811	3.94
486.162	3.94
486.512	3.94
486.862	3.94
487.212	3.95
487.562	3.96
487.912	3.95
488.262	3.94
488.612	3.94
488.961	3.94
489.311	3.95
489.661	3.96
490.011	3.96
490.36	3.94
490.71	3.94
491.06	3.95
491.409	3.95
491.759	3.95
492.108	3.93
492.458	3.95
492.807	3.95
493.157	3.96
493.506	3.96
493.855	3.97
494.204	3.96
494.554	3.95
494.903	3.96
495.252	3.96
495.601	3.99
495.95	3.99
496.299	3.98
496.648	4
496.997	4
497.346	4.01
497.695	4.03
498.043	4.06
498.392	4.05
498.741	4.07
499.09	4.11
499.438	4.14
499.787	4.15
500.135	4.15
500.484	4.16
500.832	4.17
501.181	4.19
501.529	4.2
501.878	4.22
502.226	4.21
502.574	4.22
502.923	4.22
503.271	4.24
503.619	4.26
503.967	4.23
504.315	4.25
504.663	4.26
505.011	4.26
505.359	4.27
505.707	4.28
506.055	4.28
506.403	4.27
506.751	4.25
507.098	4.29
507.446	4.3
507.794	4.31
508.141	4.31
508.489	4.31
508.837	4.32
509.184	4.31
509.531	4.31
509.879	4.32
510.226	4.34
510.574	4.33
510.921	4.34
511.268	4.38
511.616	4.38
511.963	4.39
512.31	4.42
512.657	4.42
513.004	4.42
513.351	4.43
513.698	4.45
514.045	4.44
514.392	4.43
514.739	4.46
515.086	4.5
515.432	4.5
515.779	4.52
516.126	4.55
516.473	4.56
516.819	4.56
517.166	4.57
517.512	4.56
517.859	4.56
518.205	4.54
518.552	4.56
518.898	4.56
519.245	4.57
519.591	4.57
519.937	4.57
520.283	4.58
520.629	4.57
520.976	4.58
521.322	4.6
521.668	4.61
522.014	4.62
522.36	4.61
522.706	4.63
523.052	4.65
523.398	4.64
523.743	4.65
524.089	4.68
524.435	4.71
524.781	4.74
525.126	4.75
525.472	4.79
525.817	4.79
526.163	4.81
526.509	4.82
526.854	4.83
527.199	4.84
527.545	4.85
527.89	4.87
528.235	4.87
528.581	4.88
528.926	4.89
529.271	4.88
529.616	4.89
529.961	4.89
530.306	4.89
530.651	4.9
530.996	4.92
531.341	4.92
531.686	4.93
532.031	4.93
532.376	4.94
532.721	4.94
533.065	4.94
533.41	4.94
533.755	4.95
534.099	4.94
534.444	4.95
534.788	4.94
535.133	4.95
535.477	4.96
535.822	4.97
536.166	4.97
536.51	4.97
536.855	4.98
537.199	4.99
537.543	5.01
537.887	5.03
538.231	5.03
538.576	5.04
538.92	5.05
539.264	5.07
539.608	5.08
539.951	5.08
540.295	5.08
540.639	5.09
540.983	5.1
541.327	5.13
541.671	5.14
542.014	5.15
542.358	5.17
542.701	5.17
543.045	5.18
543.389	5.2
543.732	5.2
544.075	5.22
544.419	5.21
544.762	5.22
545.105	5.23
545.449	5.24
545.792	5.23
546.135	5.23
546.478	5.23
546.821	5.22
547.165	5.25
547.508	5.28
547.851	5.28
548.194	5.28
548.536	5.28
548.879	5.28
549.222	5.29
549.565	5.26
549.908	5.27
550.25	5.25
550.593	5.29
550.936	5.29
551.278	5.3
551.621	5.3
551.963	5.3
552.306	5.29
552.648	5.3
552.991	5.35
553.333	5.39
553.675	5.42
554.017	5.4
554.36	5.4
554.702	5.39
555.044	5.38
555.386	5.42
555.728	5.4
556.07	5.38
556.412	5.38
556.754	5.39
557.096	5.4
557.438	5.43
557.78	5.36
558.121	5.38
558.463	5.37
558.805	5.38
559.147	5.4
559.488	5.42
559.83	5.41
560.171	5.35
560.513	5.35
560.854	5.33
561.196	5.4
561.537	5.43
561.878	5.44
562.22	5.46
562.561	5.43
562.902	5.42
563.243	5.46
563.584	5.49
563.925	5.51
564.266	5.5
564.607	5.48
564.948	5.51
565.289	5.53
565.63	5.52
565.971	5.54
566.312	5.52
566.653	5.53
566.993	5.54
567.334	5.57
567.675	5.57
568.015	5.57
568.356	5.54
568.696	5.52
569.037	5.52
569.377	5.49
569.718	5.48
570.058	5.52
570.398	5.52
570.739	5.51
571.079	5.47
571.419	5.49
571.759	5.51
572.099	5.5
572.439	5.47
572.779	5.45
573.119	5.44
573.459	5.44
573.799	5.4
574.139	5.41
574.479	5.41
574.819	5.39
575.158	5.41
575.498	5.43
575.838	5.42
576.177	5.43
576.517	5.45
576.856	5.48
577.196	5.44
577.535	5.43
577.875	5.43
578.214	5.48
578.553	5.48
578.893	5.51
579.232	5.52
579.571	5.6
579.91	5.64
580.25	5.69
580.589	5.68
580.928	5.74
581.267	5.71
581.606	5.72
581.945	5.74
582.283	5.71
582.622	5.69
582.961	5.71
583.3	5.7
583.639	5.72
583.977	5.72
584.316	5.76
584.654	5.77
584.993	5.78
585.332	5.78
585.67	5.78
586.008	5.74
586.347	5.77
586.685	5.69
587.024	5.72
587.362	5.7
587.7	5.74
588.038	5.76
588.376	5.79
588.715	5.77
589.053	5.77
589.391	5.78
589.729	5.79
590.067	5.8
590.404	5.84
590.742	5.82
591.08	5.86
591.418	5.88
591.756	5.88
592.093	5.86
592.431	5.85
592.769	5.86
593.106	5.86
593.444	5.88
593.781	5.93
594.119	5.96
594.456	5.94
594.793	5.93
595.131	5.93
595.468	5.95
595.805	5.94
596.143	5.92
596.48	5.94
596.817	5.94
597.154	5.93
597.491	5.88
597.828	5.89
598.165	5.82
598.502	5.78
598.839	5.75
599.176	5.8
599.512	5.82
599.849	5.82
600.186	5.81
600.523	5.8
600.859	5.78
601.196	5.72
601.532	5.72
601.869	5.71
602.205	5.7
602.542	5.69
602.878	5.71
603.215	5.72
603.551	5.72
603.887	5.77
604.223	5.77
604.56	5.82
604.896	5.82
605.232	5.86
605.568	5.85
605.904	5.89
606.24	5.89
606.576	5.9
606.912	5.9
607.248	5.93
607.583	5.94
607.919	5.94
608.255	5.97
608.591	5.99
608.926	5.99
609.262	5.98
609.597	5.99
609.933	6.05
610.268	6.13
610.604	6.09
610.939	6.07
611.275	6.09
611.61	6.08
611.945	6.07
612.281	6.08
612.616	6.13
612.951	6.12
613.286	6.08
613.621	6.07
613.956	6.07
614.291	6.1
614.626	6.08
614.961	6.11
615.296	6.13
615.631	6.11
615.966	6.13
616.3	6.19
616.635	6.19
616.97	6.17
617.304	6.14
617.639	6.19
617.973	6.19
618.308	6.15
618.642	6.17
618.977	6.19
619.311	6.19
619.646	6.19
619.98	6.22
620.314	6.25
620.648	6.22
620.983	6.26
621.317	6.28
621.651	6.27
621.985	6.26
622.319	6.25
622.653	6.3
622.987	6.28
623.321	6.23
623.655	6.23
623.988	6.19
624.322	6.18
624.656	6.22
624.99	6.2
625.323	6.24
625.657	6.25
625.99	6.32
626.324	6.32
626.657	6.34
626.991	6.29
627.324	6.25
627.658	6.25
627.991	6.25
628.324	6.19
628.657	6.18
628.991	6.18
629.324	6.16
629.657	6.13
629.99	6.16
630.323	6.15
630.656	6.14
630.989	6.14
631.322	6.11
631.655	6.08
631.987	6.08
632.32	6.11
632.653	6.03
632.986	5.95
633.318	6
633.651	5.99
633.984	6.05
634.316	6.14
634.649	6.19
634.981	6.18
635.313	6.23
635.646	6.27
635.978	6.27
636.31	6.32
636.643	6.37
636.975	6.39
637.307	6.43
637.639	6.47
637.971	6.45
638.303	6.52
638.635	6.52
638.967	6.59
639.299	6.51
639.631	6.61
639.963	6.59
640.295	6.62
640.626	6.61
640.958	6.55
641.29	6.52
641.621	6.46
641.953	6.42
642.285	6.44
642.616	6.49
642.948	6.51
643.279	6.46
643.61	6.43
643.942	6.43
644.273	6.36
644.604	6.36
644.936	6.44
645.267	6.41
645.598	6.46
645.929	6.41
646.26	6.45
646.591	6.45
646.922	6.54
647.253	6.42
647.584	6.47
647.915	6.56
648.245	6.53
648.576	6.48
648.907	6.54
649.238	6.48
649.568	6.42
649.899	6.43
650.229	6.44
650.56	6.46
650.89	6.51
651.221	6.52
651.551	6.54
651.882	6.51
652.212	6.45
652.542	6.49
652.872	6.41
653.203	6.43
653.533	6.49
653.863	6.5
654.193	6.52
654.523	6.44
654.853	6.42
655.183	6.47
655.513	6.6
655.843	6.6
656.172	6.67
656.502	6.66
656.832	6.53
657.162	6.6
657.491	6.59
657.821	6.5
658.15	6.59
658.48	6.6
658.809	6.57
659.139	6.62
659.468	6.53
659.798	6.64
660.127	6.64
660.456	6.58
660.785	6.53
661.115	6.57
661.444	6.64
661.773	6.66
662.102	6.66
662.431	6.61
662.76	6.55
663.089	6.54
663.418	6.57
663.747	6.69
664.076	6.72
664.404	6.74
664.733	6.82
665.062	6.74
665.39	6.79
665.719	6.82
666.048	6.83
666.376	6.88
666.705	6.86
667.033	6.88
667.362	6.86
667.69	6.87
668.018	6.87
668.347	6.9
668.675	6.91
669.003	6.93
669.331	6.98
669.659	7.07
669.987	7.06
670.315	7
670.643	7.02
670.971	7.01
671.299	7.08
671.627	7.14
671.955	7.16
672.283	7.05
672.61	7.01
672.938	7.02
673.266	6.99
673.593	6.92
673.921	6.92
674.249	6.96
674.576	7.02
674.904	7.02
675.231	6.94
675.558	7
675.886	7.04
676.213	6.94
676.54	6.88
676.867	6.88
677.195	6.99
677.522	6.94
677.849	7.03
678.176	7.02
678.503	6.85
678.83	6.87
679.157	6.93
679.484	6.98
679.81	7.04
680.137	7.1
680.464	7.17
680.791	7.12
681.117	7.12
681.444	7.07
681.771	7.08
682.097	7.14
682.424	7.1
682.75	7.1
683.077	7.2
683.403	7.24
683.729	7.28
684.056	7.32
684.382	7.39
684.708	7.22
685.034	7.08
685.36	7.24
685.686	7.3
686.012	7.32
686.339	7.33
686.664	7.25
686.99	7.23
687.316	7.13
687.642	7.32
687.968	7.33
688.294	7.46
688.619	7.53
688.945	7.43
689.271	7.39
689.596	7.35
689.922	7.33
690.247	7.27
690.573	7.31
690.898	7.11
691.224	7.2
691.549	7.24
691.874	7.32
692.2	7.13
692.525	7.06
692.85	7.1
693.175	7.19
693.5	7.22
693.825	7.25
694.15	7.36
694.475	7.23
694.8	7.28
695.125	7.22
695.45	7.21
695.775	7.38
696.099	7.48
696.424	7.49
696.749	7.57
697.073	7.52
697.398	7.45
697.723	7.58
698.047	7.53
698.372	7.61
698.696	7.61
699.02	7.74
699.345	7.85
699.669	7.86
699.993	7.82
700.318	7.85
700.642	7.88
700.966	7.87
701.29	7.82
701.614	7.82
701.938	7.83
702.262	7.83
702.586	7.9
702.91	7.85
703.234	7.83
703.557	7.69
703.881	7.78
704.205	7.82
704.529	7.83
704.852	7.85
705.176	7.77
705.499	7.8
705.823	7.74
706.146	7.83
706.47	7.79
706.793	7.83
707.117	7.94
707.44	7.9
707.763	7.99
708.086	8.25
708.409	8.05
708.733	7.99
709.056	8.07
709.379	7.96
709.702	7.91
710.025	8.01
710.348	8.03
710.671	8.16
710.993	8.06
711.316	8.06
711.639	8.09
711.962	8.05
712.284	8.18
712.607	8.08
712.93	7.94
713.252	7.87
713.575	7.84
713.897	7.84
714.22	7.8
714.542	7.82
714.864	7.67
715.187	7.79
715.509	7.79
715.831	7.69
716.153	7.7
716.475	7.82
716.798	7.79
717.12	7.82
717.442	7.65
717.764	7.7
718.085	7.67
718.407	7.58
718.729	7.52
719.051	7.5
719.373	7.9
719.695	7.86
720.016	7.98
720.338	8.18
720.659	8.06
720.981	8.03
721.302	8.24
721.624	8.27
721.945	8.34
722.267	8.54
722.588	8.73
722.909	8.87
723.231	8.65
723.552	8.7
723.873	8.81
724.194	8.94
724.515	8.98
724.836	9
725.157	9.04
725.478	9.31
725.799	9.21
726.12	8.99
726.441	8.97
726.762	8.87
727.083	8.91
727.403	8.89
727.724	8.86
728.045	8.72
728.365	8.68
728.686	8.62
729.006	8.42
729.327	8.45
729.647	8.39
729.967	8.47
730.288	8.39
730.608	8.4
730.928	8.51
731.249	8.69
731.569	8.66
731.889	8.57
732.209	8.3
732.529	8.37
732.849	8.33
733.169	8.38
733.489	8.37
733.809	8.3
734.129	8.34
734.448	8.51
734.768	8.33
735.088	8.36
735.408	8.42
735.727	8.64
736.047	8.56
736.366	8.16
736.686	8.01
737.005	8.28
737.325	8.23
737.644	8.2
737.963	8.04
738.283	8.12
738.602	8.55
738.921	8.99
739.24	8.82
739.56	8.86
739.879	9
740.198	9.05
740.517	9.03
740.836	9.04
741.155	9.05
741.473	9.1
741.792	9.14
742.111	9.11
742.43	9.02
742.748	8.92
743.067	9.24
743.386	9.46
743.704	9.19
744.023	9.44
744.341	9.39
744.66	9.29
744.978	9.28
745.297	8.82
745.615	8.35
745.933	8.39
746.252	8.52
746.57	8.5
746.888	8.82
747.206	8.81
747.524	8.69
747.842	8.64
748.16	8.87
748.478	8.86
748.796	9.02
749.114	9.02
749.432	9.19
749.749	9.17
750.067	9.13
750.385	9.21
750.703	9.11
751.02	9.13
751.338	9.2
751.655	9.38
751.973	9.65
752.29	9.9
752.608	9.96
752.925	9.9
753.242	9.82
753.56	9.44
753.877	9.38
754.194	9.85
754.511	9.79
754.828	9.85
755.145	10
755.462	10.07
755.779	10.25
756.096	10.29
756.413	10.04
756.73	10.08
757.047	10.17
757.364	10.02
757.68	9.99
757.997	10.53
758.314	10.5
758.63	10.68
758.947	10.65
759.264	10.59
759.58	10.68
759.896	10.63
760.213	10.72
760.529	10.69
760.846	10.52
761.162	10.56
761.478	10.29
761.794	10.13
762.11	10.04
762.426	10.02
762.743	9.88
763.059	10.15
763.375	10.25
763.69	10.16
764.006	10.19
764.322	10.29
764.638	10.06
764.954	9.81
765.27	9.79
765.585	9.68
765.901	9.82
766.216	9.7
766.532	9.64
766.848	9.6
767.163	9.59
767.478	9.28
767.794	9.48
768.109	9.65
768.424	9.95
768.74	10.03
769.055	9.83
769.37	9.94
769.685	10.09
770	9.94
770.315	9.84
770.63	9.81
770.945	9.69
771.26	9.61
771.575	9.71
771.89	9.87
772.205	10.07
772.52	10.29
772.834	10.67
773.149	10.52
773.464	10.6
773.778	10.58
774.093	10.88
774.407	10.7
774.722	10.58
775.036	10.52
775.351	10.6
775.665	10.88
775.979	10.66
776.293	10.66
776.608	10.97
776.922	10.9
777.236	10.87
777.55	10.7
777.864	11
778.178	11.32
778.492	10.93
778.806	11.11
779.12	11.23
779.434	11.1
779.747	11.77
780.061	11.93
780.375	12.17
780.689	12.6
781.002	12.83
781.316	13.38
781.629	12.91
781.943	12.91
782.256	12.92
782.57	12.85
782.883	12.87
783.196	12.65
783.51	12.74
783.823	13.28
784.136	13.35
784.449	13.13
784.762	13.41
785.075	13.2
785.388	13.2
785.701	12.79
786.014	12.97
786.327	12.53
786.64	12.27
786.953	12.12
787.266	11.52
787.578	10.99
787.891	10.48
788.204	10.81
788.516	10.59
788.829	10.51
789.141	10.82
789.454	10.58
789.766	10.97
790.079	10.99
790.391	10.78
790.703	11.48
791.016	11.6
791.328	11.45
791.64	11.6
791.952	11.67
792.264	11.58
792.576	11.45
792.888	12.05
793.2	12.3
793.512	12.36
793.824	13.07
794.136	13.32
794.448	13.56
794.76	13.65
795.071	13.62
795.383	13.74
795.695	14.08
796.006	14.43
796.318	14.1
796.629	14.79
796.941	15.16
797.252	14.66
797.564	14.89
797.875	14.83
798.186	14.65
798.497	14.37
798.809	14.14
799.12	14.12
799.431	13.71
799.742	14.24
800.053	14.3
800.364	14.36
800.675	14.39
800.986	14.82
801.297	14.84
801.608	15.12
801.918	15.13
802.229	14.59
802.54	14.18
802.851	13.83
803.161	13.46
803.472	13.07
803.782	13.36
804.093	13.27
804.403	13.73
804.714	14
805.024	14.5
805.334	14.68
805.645	14.51
805.955	14.37
806.265	14.14
806.575	14.13
806.885	14.16
807.195	14.84
807.505	14.54
807.815	14.73
808.125	14.63
808.435	14.67
808.745	14.61
809.055	15.07
809.365	16.09
809.674	15.66
809.984	15.47
810.294	15.28
810.603	14.81
810.913	14.19
811.222	14.12
811.532	13.56
811.841	14.09
812.151	14.47
812.46	15.29
812.769	14.94
813.079	14.63
813.388	14
813.697	12.81
814.006	12.47
814.315	12.65
814.624	13.35
814.933	13.6
815.242	14.16
815.551	15.01
815.86	14.71
816.169	14.36
816.478	14.48
816.786	13.43
817.095	13.06
817.404	12.9
817.712	13.45
818.021	13.93
818.33	13.64
818.638	13.24
818.947	12.8
819.255	12.89
819.563	13.03
819.872	12.91
820.18	13.31
820.488	12.94
820.796	12.65
821.105	12.51
821.413	12.25
821.721	12.15
822.029	12.11
822.337	12.09
822.645	12.43
822.953	12.52
823.26	12.65
823.568	12.84
823.876	12.78
824.184	12.83
824.491	12.78
824.799	13.01
825.107	12.99
825.414	13.15
825.722	12.98
826.029	13.12
826.337	13.24
826.644	13.2
826.951	13.34
827.259	13.63
827.566	13.65
827.873	13.84
828.18	13.89
828.488	13.75
828.795	13.73
829.102	13.65
829.409	13.52
829.716	13.8
830.023	13.94
830.329	14.25
830.636	13.89
830.943	13.77
831.25	13.59
831.557	13.48
831.863	13.28
832.17	13.9
832.476	13.52
832.783	13.61
833.089	13.51
833.396	14.04
833.702	13.58
834.009	13.41
834.315	13.68
834.621	13.64
834.928	13.63
835.234	13.6
835.54	13.47
835.846	13.61
836.152	13.12
836.458	12.75
836.764	12.71
837.07	13.05
837.376	13.35
837.682	12.66
837.988	12.74
838.293	12.43
838.599	12.47
838.905	12.96
839.211	13.19
839.516	13.54
839.822	13.7
840.127	13.77
840.433	13.64
840.738	12.74
841.044	12.82
841.349	12.48
841.654	13.11
841.959	13.57
842.265	12.8
842.57	14.01
842.875	14.14
843.18	15.15
843.485	14.89
843.79	14.98
844.095	15.95
844.4	17.05
844.705	18.63
845.01	18.16
845.315	17.63
845.619	17.84
845.924	16.71
846.229	15.1
846.533	15.3
846.838	15.25
847.142	16.76
847.447	18.84
847.751	20.48
848.056	19.34
848.36	19.5
848.664	22.06
848.969	21.82
849.273	21.89
849.577	20.75
849.881	21.35
850.185	20.83
850.489	19.84
850.794	17.53
851.097	17.44
851.401	16.96
851.705	17.63
852.009	16.39
852.313	16.85
852.617	17.2
852.92	19.13
853.224	22.32
853.528	21.74
853.831	22.25
854.135	20.85
854.438	21.65
854.742	21.33
855.045	19.84
855.349	18.74
855.652	17.91
855.955	19.52
856.259	21.14
856.562	21.24
856.865	21.59
857.168	22.67
857.471	20.29
857.774	19.24
858.077	18.22
858.38	18.57
858.683	19.63
858.986	20.71
859.289	19.48
859.592	18.22
859.894	18.43
860.197	14.86
860.5	16.22
860.802	16.26
861.105	15.22
861.407	17.09
861.71	18.44
862.012	19.22
862.315	17.05
862.617	15.23
862.919	14.9
863.222	15.84
863.524	16.56
863.826	18.55
864.128	21.15
864.43	22.22
864.732	23.16
865.034	23.09
865.336	22.11
865.638	22.29
865.94	23.86
866.242	24.73
866.544	27.42
866.846	27.71
867.147	30.94
867.449	32.72
867.751	31.75
868.052	34.73
868.354	37.06
868.655	38.52
868.957	40.63
869.258	41.98
869.56	41.87
869.861	40.32
870.162	38.66
870.463	35.61
870.765	35.27
871.066	33.23
871.367	34.06
871.668	34.53
871.969	30.21
872.27	27.89
872.571	27.15
872.872	25.53
873.173	24.5
873.473	21.51
873.774	22.36
874.075	23.32
874.376	19.87
874.676	18.11
874.977	15.59
875.277	12.22
875.578	11.99
875.878	11.81
876.179	13.67
876.479	13.65
876.78	15.03
877.08	14.45
877.38	14.28
877.68	12.77
877.981	13.55
878.281	18.04
878.581	18.03
