Data from BA51245_Reflection_00015.txt Node
Date: Tue Nov 19 11:52:07 EST 2019
User: vgr7
Spectrometer: USB2G7710
Scans to average: 3
Trigger mode: 4
Integration Time (sec): 2.000000E-2
Electric dark correction enabled: true
Boxcar width: 10
XAxis mode: Wavelengths
Number of Pixels in Spectrum: 2048
>>>>>Begin Spectral Data<<<<<
177.721	979.23
178.105	-407.94
178.488	-701.93
178.871	292.59
179.254	149.12
179.636	148.43
180.019	941.27
180.402	33.33
180.785	-225.93
181.168	64.65
181.55	143.01
181.933	87.47
182.316	62.48
182.698	50.93
183.081	10.2
183.463	-23.91
183.846	23.88
184.228	19.68
184.611	20.11
184.993	-46.67
185.376	12.53
185.758	-17.25
186.14	-102.47
186.522	-64.13
186.904	-72.49
187.287	-78.09
187.669	-80.47
188.051	-129.86
188.433	-173.11
188.815	-159.41
189.197	-145.84
189.579	-148.09
189.961	-134.11
190.342	-107.25
190.724	-139.5
191.106	-135.45
191.488	-118.99
191.869	-108.27
192.251	-115.29
192.633	-131.64
193.014	-172.12
193.396	-249.96
193.777	-216.71
194.159	-144.95
194.54	-157.5
194.922	-145.08
195.303	-179.87
195.684	-206.44
196.065	-180.4
196.447	-155.14
196.828	-146.11
197.209	-128.79
197.59	-130.95
197.971	-100.21
198.352	-86.86
198.733	-83.63
199.114	-77.58
199.495	-94.32
199.876	-100.73
200.257	-80.46
200.638	-64.02
201.018	-64.18
201.399	-45.76
201.78	-40.96
202.16	-53.98
202.541	-40.72
202.922	-33.68
203.302	-29.33
203.683	-25.66
204.063	-22.46
204.444	-24.95
204.824	-25.62
205.204	-26
205.585	-21.69
205.965	-37.91
206.345	-26.37
206.725	-12.4
207.106	-13.74
207.486	-10.1
207.866	-5.39
208.246	-13.63
208.626	-18.92
209.006	-14.38
209.386	-19.54
209.766	-27.15
210.145	-22.79
210.525	-27.62
210.905	-32.94
211.285	-28.29
211.664	-18.57
212.044	-20.07
212.424	-28.53
212.803	-38.91
213.183	-39.85
213.562	-36.68
213.942	-28.6
214.321	-41.84
214.701	-48.99
215.08	-56.7
215.459	-51.41
215.838	-60.71
216.218	-68.56
216.597	-74.75
216.976	-122.42
217.355	-108.12
217.734	-108.26
218.113	-111.61
218.492	-129.84
218.871	-96.76
219.25	-107.7
219.629	-167.23
220.008	-157.53
220.387	-110.44
220.766	-53.26
221.144	-60.07
221.523	-46.48
221.902	-52.76
222.28	-32.97
222.659	-22.32
223.037	-20.18
223.416	-16.11
223.794	-13.48
224.173	-18.3
224.551	-8.76
224.929	-11.11
225.308	-16.77
225.686	-12.71
226.064	-17.88
226.442	-16.82
226.821	-25.26
227.199	-20.57
227.577	-20.5
227.955	-15.22
228.333	-17.29
228.711	-18.92
229.089	-17.4
229.467	-23.29
229.845	-22.44
230.222	-21.68
230.6	-24.59
230.978	-19.66
231.356	-23.89
231.733	-22.32
232.111	-16.9
232.488	-17.24
232.866	-12.34
233.243	-10.01
233.621	-10.53
233.998	-8.18
234.376	-8.44
234.753	-6.97
235.13	-6.58
235.508	-4.6
235.885	-6.09
236.262	-7.12
236.639	-7.33
237.016	-6.75
237.393	-5.29
237.77	-4.34
238.147	-4.78
238.524	-3.01
238.901	-4.38
239.278	-3.7
239.655	-3.18
240.032	-2.81
240.409	-2.83
240.785	-2.89
241.162	-2.47
241.539	-2
241.915	-1.56
242.292	-0.83
242.668	0.05
243.045	1.04
243.421	1.37
243.798	1.73
244.174	2.13
244.551	2.73
244.927	3.22
245.303	3.16
245.679	3.42
246.056	3.45
246.432	3.24
246.808	3.94
247.184	4.29
247.56	4.18
247.936	4.1
248.312	4.09
248.688	4.05
249.064	4.26
249.44	4.14
249.815	4.2
250.191	4.05
250.567	3.69
250.943	3.36
251.318	3.36
251.694	3.09
252.069	2.96
252.445	2.86
252.82	2.61
253.196	2.74
253.571	2.66
253.947	2.76
254.322	2.23
254.697	1.73
255.073	1.1
255.448	1.41
255.823	1.83
256.198	1.99
256.573	2.15
256.948	1.78
257.323	2.08
257.698	2.06
258.073	2.11
258.448	2.3
258.823	2.21
259.198	2.24
259.573	2.33
259.948	2.52
260.322	2.18
260.697	2.16
261.072	2.21
261.446	2.12
261.821	2.16
262.195	2.53
262.57	2.68
262.944	2.84
263.319	2.75
263.693	2.32
264.067	2.14
264.442	2.13
264.816	2.09
265.19	2.03
265.564	1.97
265.938	2
266.313	1.87
266.687	1.8
267.061	1.53
267.435	1.56
267.809	1.43
268.183	1.58
268.556	1.73
268.93	1.81
269.304	1.65
269.678	1.52
270.051	1.39
270.425	1.34
270.799	1.26
271.172	1.3
271.546	1.65
271.919	1.75
272.293	1.92
272.666	2.01
273.04	1.89
273.413	1.87
273.787	1.9
274.16	1.75
274.533	1.72
274.906	1.78
275.279	1.82
275.653	1.99
276.026	2.16
276.399	2.18
276.772	2.08
277.145	2.16
277.518	2.04
277.891	2.09
278.263	2.16
278.636	2.28
279.009	2.41
279.382	2.42
279.755	2.23
280.127	2.05
280.5	1.9
280.872	2.14
281.245	2.26
281.617	2.17
281.99	2.48
282.362	2.52
282.735	2.58
283.107	2.62
283.479	2.53
283.852	2.42
284.224	2.42
284.596	2.46
284.968	2.53
285.34	2.68
285.713	2.76
286.085	2.65
286.457	2.64
286.829	2.46
287.201	2.22
287.572	2.41
287.944	2.49
288.316	2.57
288.688	2.59
289.06	2.6
289.431	2.64
289.803	2.59
290.175	2.67
290.546	2.75
290.918	2.67
291.289	2.61
291.661	2.67
292.032	2.52
292.403	2.56
292.775	2.67
293.146	2.77
293.517	2.68
293.889	2.58
294.26	2.69
294.631	2.8
295.002	3.04
295.373	2.96
295.744	2.97
296.115	3.01
296.486	2.86
296.857	2.77
297.228	2.69
297.599	2.69
297.97	2.66
298.34	2.62
298.711	2.73
299.082	2.83
299.452	2.87
299.823	2.94
300.194	2.84
300.564	2.66
300.935	2.51
301.305	2.57
301.676	2.62
302.046	2.63
302.416	2.71
302.787	2.71
303.157	2.82
303.527	2.95
303.897	3.1
304.267	3.1
304.637	3.2
305.008	3.27
305.378	3.23
305.748	3.33
306.117	3.34
306.487	3.29
306.857	3.4
307.227	3.39
307.597	3.39
307.967	3.48
308.336	3.59
308.706	3.67
309.076	3.76
309.445	4.08
309.815	3.94
310.184	3.86
310.554	3.85
310.923	3.85
311.293	3.73
311.662	3.64
312.031	3.73
312.401	3.7
312.77	3.73
313.139	3.74
313.508	3.67
313.877	3.75
314.246	3.65
314.616	3.65
314.985	3.52
315.353	3.48
315.722	3.58
316.091	3.77
316.46	3.86
316.829	3.62
317.198	3.47
317.567	3.68
317.935	3.65
318.304	3.8
318.672	3.82
319.041	3.82
319.41	3.73
319.778	3.75
320.147	3.73
320.515	3.84
320.883	3.87
321.252	3.91
321.62	3.74
321.988	3.88
322.357	3.73
322.725	3.82
323.093	3.89
323.461	3.97
323.829	3.86
324.197	3.98
324.565	4.2
324.933	3.96
325.301	3.78
325.669	3.88
326.037	3.63
326.405	3.62
326.772	3.63
327.14	3.68
327.508	3.7
327.875	3.73
328.243	3.61
328.61	3.76
328.978	3.64
329.346	3.71
329.713	3.79
330.08	3.97
330.448	4.2
330.815	4.26
331.182	4.16
331.55	4.09
331.917	4.02
332.284	3.91
332.651	4.24
333.018	4.47
333.385	4.5
333.752	4.58
334.119	4.63
334.486	4.53
334.853	4.6
335.22	4.57
335.587	4.66
335.954	4.76
336.32	4.66
336.687	4.82
337.054	4.87
337.42	4.86
337.787	4.82
338.153	4.71
338.52	4.81
338.886	4.81
339.253	4.79
339.619	4.74
339.986	4.94
340.352	4.84
340.718	4.71
341.084	4.68
341.451	4.75
341.817	4.8
342.183	4.86
342.549	4.77
342.915	4.88
343.281	4.91
343.647	4.94
344.013	5.04
344.379	5.16
344.745	5.2
345.11	5.14
345.476	5.15
345.842	5.08
346.208	5.17
346.573	5.04
346.939	5.13
347.304	5.24
347.67	5.07
348.035	5.09
348.401	5.15
348.766	5.2
349.132	5.2
349.497	5.17
349.862	5.31
350.228	5.5
350.593	5.45
350.958	5.43
351.323	5.39
351.688	5.35
352.053	5.33
352.418	5.21
352.783	5.21
353.148	5.23
353.513	5.3
353.878	5.19
354.243	5.2
354.608	5.22
354.972	5.2
355.337	5.34
355.702	5.28
356.066	5.39
356.431	5.39
356.795	5.33
357.16	5.29
357.524	5.19
357.889	5.03
358.253	4.97
358.618	4.91
358.982	4.86
359.346	4.9
359.71	4.88
360.075	4.97
360.439	4.97
360.803	5.01
361.167	5
361.531	4.93
361.895	4.94
362.259	4.94
362.623	4.89
362.987	4.84
363.351	4.84
363.714	4.66
364.078	4.68
364.442	4.72
364.806	4.78
365.169	4.78
365.533	4.87
365.896	4.98
366.26	4.97
366.623	5.05
366.987	5.05
367.35	5.01
367.714	4.99
368.077	4.95
368.44	4.88
368.803	4.9
369.167	4.91
369.53	4.95
369.893	4.94
370.256	4.92
370.619	4.91
370.982	4.86
371.345	4.99
371.708	4.92
372.071	4.89
372.434	4.86
372.797	4.88
373.159	4.8
373.522	4.65
373.885	4.65
374.247	4.6
374.61	4.56
374.973	4.59
375.335	4.52
375.698	4.49
376.06	4.43
376.423	4.39
376.785	4.38
377.147	4.42
377.51	4.32
377.872	4.28
378.234	4.24
378.596	4.23
378.958	4.18
379.321	4.19
379.683	4.17
380.045	4.12
380.407	4.03
380.769	3.97
381.13	3.98
381.492	3.95
381.854	3.95
382.216	3.91
382.578	3.88
382.939	3.88
383.301	3.87
383.663	3.88
384.024	3.82
384.386	3.82
384.747	3.72
385.109	3.75
385.47	3.74
385.832	3.72
386.193	3.74
386.554	3.72
386.916	3.65
387.277	3.61
387.638	3.6
387.999	3.61
388.36	3.65
388.721	3.69
389.082	3.69
389.443	3.72
389.804	3.72
390.165	3.68
390.526	3.64
390.887	3.65
391.248	3.63
391.609	3.62
391.969	3.64
392.33	3.65
392.691	3.64
393.051	3.62
393.412	3.65
393.772	3.65
394.133	3.59
394.493	3.57
394.854	3.56
395.214	3.52
395.574	3.53
395.935	3.5
396.295	3.47
396.655	3.45
397.015	3.37
397.376	3.35
397.736	3.33
398.096	3.34
398.456	3.29
398.816	3.32
399.176	3.33
399.535	3.24
399.895	3.2
400.255	3.18
400.615	3.22
400.975	3.17
401.334	3.11
401.694	3.12
402.054	3.15
402.413	3.15
402.773	3.15
403.132	3.12
403.492	3.09
403.851	3.06
404.211	3.07
404.57	3.09
404.929	3.05
405.288	3.05
405.648	3.05
406.007	3.08
406.366	3.05
406.725	3.03
407.084	3.05
407.443	3.05
407.802	3.03
408.161	2.98
408.52	2.95
408.879	2.95
409.238	2.97
409.596	2.94
409.955	2.92
410.314	2.91
410.673	2.91
411.031	2.93
411.39	2.94
411.748	2.93
412.107	2.9
412.465	2.92
412.824	2.9
413.182	2.9
413.54	2.9
413.899	2.89
414.257	2.93
414.615	2.94
414.974	2.94
415.332	2.95
415.69	2.94
416.048	2.95
416.406	2.94
416.764	2.95
417.122	2.94
417.48	2.93
417.838	2.95
418.195	2.93
418.553	2.92
418.911	2.9
419.269	2.92
419.626	2.93
419.984	2.93
420.342	2.93
420.699	2.92
421.057	2.9
421.414	2.9
421.772	2.87
422.129	2.85
422.486	2.85
422.844	2.85
423.201	2.85
423.558	2.86
423.915	2.86
424.273	2.84
424.63	2.83
424.987	2.85
425.344	2.84
425.701	2.84
426.058	2.82
426.415	2.81
426.772	2.79
427.128	2.78
427.485	2.77
427.842	2.77
428.199	2.76
428.555	2.77
428.912	2.77
429.269	2.76
429.625	2.76
429.982	2.78
430.338	2.78
430.695	2.79
431.051	2.76
431.407	2.77
431.764	2.77
432.12	2.79
432.476	2.77
432.832	2.77
433.189	2.77
433.545	2.79
433.901	2.8
434.257	2.79
434.613	2.78
434.969	2.79
435.325	2.79
435.681	2.77
436.036	2.75
436.392	2.73
436.748	2.74
437.104	2.74
437.459	2.71
437.815	2.71
438.171	2.71
438.526	2.73
438.882	2.71
439.237	2.71
439.593	2.7
439.948	2.71
440.304	2.71
440.659	2.72
441.014	2.7
441.369	2.71
441.725	2.71
442.08	2.71
442.435	2.71
442.79	2.69
443.145	2.68
443.5	2.68
443.855	2.68
444.21	2.67
444.565	2.68
444.92	2.7
445.275	2.67
445.629	2.67
445.984	2.66
446.339	2.67
446.693	2.68
447.048	2.67
447.403	2.66
447.757	2.65
448.112	2.63
448.466	2.64
448.82	2.63
449.175	2.63
449.529	2.63
449.883	2.63
450.238	2.64
450.592	2.65
450.946	2.65
451.3	2.67
451.654	2.67
452.008	2.65
452.362	2.64
452.716	2.64
453.07	2.63
453.424	2.64
453.778	2.63
454.132	2.61
454.486	2.62
454.839	2.62
455.193	2.61
455.547	2.62
455.9	2.64
456.254	2.63
456.607	2.62
456.961	2.63
457.314	2.64
457.668	2.65
458.021	2.67
458.375	2.67
458.728	2.67
459.081	2.69
459.434	2.69
459.787	2.7
460.141	2.71
460.494	2.72
460.847	2.7
461.2	2.71
461.553	2.7
461.906	2.71
462.259	2.71
462.611	2.72
462.964	2.72
463.317	2.71
463.67	2.72
464.022	2.73
464.375	2.73
464.728	2.74
465.08	2.75
465.433	2.74
465.785	2.75
466.138	2.75
466.49	2.73
466.843	2.76
467.195	2.75
467.547	2.76
467.899	2.79
468.252	2.79
468.604	2.8
468.956	2.81
469.308	2.81
469.66	2.82
470.012	2.83
470.364	2.83
470.716	2.85
471.068	2.84
471.42	2.84
471.772	2.82
472.123	2.82
472.475	2.81
472.827	2.82
473.178	2.8
473.53	2.8
473.882	2.81
474.233	2.78
474.585	2.79
474.936	2.78
475.288	2.78
475.639	2.79
475.99	2.79
476.342	2.77
476.693	2.77
477.044	2.76
477.395	2.75
477.746	2.75
478.097	2.75
478.448	2.75
478.8	2.77
479.15	2.77
479.501	2.78
479.852	2.77
480.203	2.78
480.554	2.79
480.905	2.81
481.255	2.79
481.606	2.81
481.957	2.81
482.307	2.81
482.658	2.81
483.009	2.81
483.359	2.81
483.709	2.82
484.06	2.82
484.41	2.82
484.761	2.84
485.111	2.84
485.461	2.84
485.811	2.85
486.162	2.84
486.512	2.85
486.862	2.84
487.212	2.86
487.562	2.85
487.912	2.86
488.262	2.86
488.612	2.86
488.961	2.87
489.311	2.86
489.661	2.86
490.011	2.86
490.36	2.86
490.71	2.86
491.06	2.87
491.409	2.87
491.759	2.87
492.108	2.86
492.458	2.86
492.807	2.85
493.157	2.85
493.506	2.87
493.855	2.87
494.204	2.88
494.554	2.88
494.903	2.89
495.252	2.89
495.601	2.91
495.95	2.92
496.299	2.92
496.648	2.95
496.997	2.97
497.346	2.99
497.695	3.02
498.043	3.02
498.392	3.04
498.741	3.06
499.09	3.07
499.438	3.1
499.787	3.12
500.135	3.14
500.484	3.16
500.832	3.16
501.181	3.19
501.529	3.22
501.878	3.25
502.226	3.26
502.574	3.28
502.923	3.29
503.271	3.31
503.619	3.35
503.967	3.34
504.315	3.36
504.663	3.37
505.011	3.38
505.359	3.4
505.707	3.41
506.055	3.44
506.403	3.46
506.751	3.47
507.098	3.49
507.446	3.52
507.794	3.55
508.141	3.58
508.489	3.59
508.837	3.58
509.184	3.58
509.531	3.62
509.879	3.64
510.226	3.66
510.574	3.71
510.921	3.73
511.268	3.78
511.616	3.81
511.963	3.86
512.31	3.88
512.657	3.9
513.004	3.94
513.351	3.96
513.698	4
514.045	4.03
514.392	4.05
514.739	4.11
515.086	4.15
515.432	4.17
515.779	4.23
516.126	4.28
516.473	4.32
516.819	4.35
517.166	4.38
517.512	4.41
517.859	4.44
518.205	4.44
518.552	4.48
518.898	4.51
519.245	4.55
519.591	4.58
519.937	4.61
520.283	4.65
520.629	4.69
520.976	4.73
521.322	4.78
521.668	4.85
522.014	4.89
522.36	4.95
522.706	5
523.052	5.05
523.398	5.12
523.743	5.18
524.089	5.27
524.435	5.32
524.781	5.39
525.126	5.43
525.472	5.5
525.817	5.54
526.163	5.6
526.509	5.65
526.854	5.7
527.199	5.77
527.545	5.81
527.89	5.87
528.235	5.92
528.581	5.97
528.926	6.02
529.271	6.06
529.616	6.11
529.961	6.16
530.306	6.22
530.651	6.27
530.996	6.35
531.341	6.39
531.686	6.46
532.031	6.53
532.376	6.61
532.721	6.69
533.065	6.77
533.41	6.85
533.755	6.92
534.099	6.99
534.444	7.07
534.788	7.14
535.133	7.21
535.477	7.28
535.822	7.35
536.166	7.44
536.51	7.56
536.855	7.64
537.199	7.75
537.543	7.88
537.887	8
538.231	8.12
538.576	8.25
538.92	8.37
539.264	8.48
539.608	8.58
539.951	8.67
540.295	8.77
540.639	8.87
540.983	8.96
541.327	9.09
541.671	9.19
542.014	9.3
542.358	9.4
542.701	9.51
543.045	9.63
543.389	9.72
543.732	9.82
544.075	9.92
544.419	10.03
544.762	10.13
545.105	10.24
545.449	10.35
545.792	10.47
546.135	10.6
546.478	10.75
546.821	10.9
547.165	11.04
547.508	11.21
547.851	11.35
548.194	11.51
548.536	11.63
548.879	11.77
549.222	11.94
549.565	12.1
549.908	12.26
550.25	12.46
550.593	12.66
550.936	12.91
551.278	13.07
551.621	13.25
551.963	13.46
552.306	13.65
552.648	13.85
552.991	14.04
553.333	14.21
553.675	14.38
554.017	14.59
554.36	14.81
554.702	14.99
555.044	15.17
555.386	15.37
555.728	15.63
556.07	15.81
556.412	16.04
556.754	16.29
557.096	16.51
557.438	16.73
557.78	16.94
558.121	17.08
558.463	17.34
558.805	17.63
559.147	17.9
559.488	18.13
559.83	18.36
560.171	18.59
560.513	18.88
560.854	19.15
561.196	19.41
561.537	19.67
561.878	19.92
562.22	20.21
562.561	20.47
562.902	20.68
563.243	20.99
563.584	21.22
563.925	21.43
564.266	21.67
564.607	21.91
564.948	22.15
565.289	22.43
565.63	22.66
565.971	22.91
566.312	23.14
566.653	23.36
566.993	23.6
567.334	23.88
567.675	24.1
568.015	24.32
568.356	24.56
568.696	24.83
569.037	25.12
569.377	25.37
569.718	25.61
570.058	25.93
570.398	26.16
570.739	26.41
571.079	26.7
571.419	26.99
571.759	27.23
572.099	27.47
572.439	27.7
572.779	27.96
573.119	28.15
573.459	28.38
573.799	28.6
574.139	28.82
574.479	29.03
574.819	29.28
575.158	29.57
575.498	29.86
575.838	30.08
576.177	30.28
576.517	30.51
576.856	30.8
577.196	31.03
577.535	31.28
577.875	31.54
578.214	31.78
578.553	32.01
578.893	32.25
579.232	32.57
579.571	32.88
579.91	33.15
580.25	33.48
580.589	33.72
580.928	34.05
581.267	34.38
581.606	34.68
581.945	34.93
582.283	35.11
582.622	35.27
582.961	35.47
583.3	35.8
583.639	36.07
583.977	36.26
584.316	36.46
584.654	36.8
584.993	36.99
585.332	37.26
585.67	37.52
586.008	37.72
586.347	37.92
586.685	38.07
587.024	38.26
587.362	38.51
587.7	38.78
588.038	39.03
588.376	39.18
588.715	39.34
589.053	39.51
589.391	39.75
589.729	39.97
590.067	40.17
590.404	40.4
590.742	40.62
591.08	40.77
591.418	41
591.756	41.13
592.093	41.37
592.431	41.51
592.769	41.67
593.106	41.86
593.444	42.07
593.781	42.29
594.119	42.53
594.456	42.65
594.793	42.78
595.131	42.87
595.468	42.99
595.805	43.18
596.143	43.35
596.48	43.47
596.817	43.58
597.154	43.7
597.491	43.74
597.828	43.88
598.165	44.13
598.502	44.2
598.839	44.35
599.176	44.5
599.512	44.65
599.849	44.86
600.186	45.04
600.523	45.18
600.859	45.3
601.196	45.37
601.532	45.5
601.869	45.71
602.205	45.86
602.542	45.99
602.878	46.14
603.215	46.25
603.551	46.36
603.887	46.47
604.223	46.6
604.56	46.67
604.896	46.79
605.232	46.87
605.568	46.99
605.904	47.07
606.24	47.19
606.576	47.29
606.912	47.33
607.248	47.48
607.583	47.62
607.919	47.75
608.255	47.85
608.591	48
608.926	48.06
609.262	48.13
609.597	48.25
609.933	48.35
610.268	48.48
610.604	48.58
610.939	48.73
611.275	48.81
611.61	48.99
611.945	49.05
612.281	49.18
612.616	49.29
612.951	49.38
613.286	49.43
613.621	49.53
613.956	49.72
614.291	49.75
614.626	49.76
614.961	49.88
615.296	50.08
615.631	50.16
615.966	50.25
616.3	50.39
616.635	50.46
616.97	50.48
617.304	50.55
617.639	50.77
617.973	50.91
618.308	51.03
618.642	51.06
618.977	51.08
619.311	51.14
619.646	51.27
619.98	51.31
620.314	51.44
620.648	51.58
620.983	51.59
621.317	51.68
621.651	51.76
621.985	51.85
622.319	51.73
622.653	51.75
622.987	51.84
623.321	51.94
623.655	52.06
623.988	52.16
624.322	52.18
624.656	52.2
624.99	52.19
625.323	52.3
625.657	52.35
625.99	52.46
626.324	52.54
626.657	52.48
626.991	52.57
627.324	52.52
627.658	52.47
627.991	52.56
628.324	52.69
628.657	52.69
628.991	52.75
629.324	52.86
629.657	52.9
629.99	52.89
630.323	52.88
630.656	52.89
630.989	52.89
631.322	52.92
631.655	52.96
631.987	53.07
632.32	53.09
632.653	53.08
632.986	53.01
633.318	52.98
633.651	53.13
633.984	53.24
634.316	53.38
634.649	53.46
634.981	53.54
635.313	53.43
635.646	53.44
635.978	53.45
636.31	53.56
636.643	53.6
636.975	53.61
637.307	53.7
637.639	53.73
637.971	53.82
638.303	53.93
638.635	53.96
638.967	53.92
639.299	54
639.631	54.16
639.963	54.32
640.295	54.32
640.626	54.32
640.958	54.23
641.29	54.22
641.621	54.26
641.953	54.12
642.285	54.28
642.616	54.4
642.948	54.47
643.279	54.55
643.61	54.58
643.942	54.66
644.273	54.76
644.604	54.83
644.936	54.79
645.267	54.78
645.598	54.93
645.929	54.93
646.26	54.9
646.591	54.88
646.922	54.92
647.253	54.99
647.584	55.05
647.915	55.26
648.245	55.4
648.576	55.52
648.907	55.61
649.238	55.63
649.568	55.55
649.899	55.53
650.229	55.52
650.56	55.58
650.89	55.47
651.221	55.37
651.551	55.44
651.882	55.54
652.212	55.55
652.542	55.46
652.872	55.47
653.203	55.46
653.533	55.48
653.863	55.44
654.193	55.37
654.523	55.37
654.853	55.36
655.183	55.32
655.513	55.34
655.843	55.33
656.172	55.41
656.502	55.46
656.832	55.58
657.162	55.62
657.491	55.65
657.821	55.71
658.15	55.74
658.48	55.68
658.809	55.59
659.139	55.66
659.468	55.71
659.798	55.74
660.127	55.78
660.456	55.84
660.785	55.85
661.115	55.97
661.444	55.96
661.773	55.93
662.102	55.95
662.431	55.81
662.76	55.9
663.089	55.91
663.418	55.98
663.747	55.87
664.076	55.73
664.404	55.79
664.733	55.87
665.062	55.98
665.39	55.99
665.719	56.07
666.048	56
666.376	55.92
666.705	55.93
667.033	55.84
667.362	55.8
667.69	55.87
668.018	55.81
668.347	55.82
668.675	55.8
669.003	55.79
669.331	55.96
669.659	55.9
669.987	55.89
670.315	55.82
670.643	55.86
670.971	55.81
671.299	55.71
671.627	55.8
671.955	55.78
672.283	55.81
672.61	55.84
672.938	56.08
673.266	56
673.593	55.99
673.921	56.17
674.249	56.25
674.576	56.22
674.904	56.3
675.231	56.38
675.558	56.39
675.886	56.41
676.213	56.38
676.54	56.41
676.867	56.42
677.195	56.44
677.522	56.32
677.849	56.46
678.176	56.64
678.503	56.53
678.83	56.54
679.157	56.5
679.484	56.58
679.81	56.35
680.137	56.62
680.464	56.6
680.791	56.51
681.117	56.49
681.444	56.56
681.771	56.58
682.097	56.51
682.424	56.53
682.75	56.64
683.077	56.54
683.403	56.66
683.729	56.76
684.056	56.93
684.382	57.06
684.708	57.17
685.034	57.1
685.36	57.22
685.686	57.13
686.012	57.25
686.339	57.22
686.664	57.25
686.99	57.06
687.316	57.17
687.642	57.42
687.968	57.58
688.294	57.5
688.619	57.47
688.945	57.57
689.271	57.55
689.596	57.41
689.922	57.34
690.247	57.24
690.573	57.23
690.898	57.04
691.224	57.11
691.549	57.25
691.874	57.29
692.2	57.11
692.525	57.08
692.85	57.1
693.175	57.16
693.5	57.15
693.825	57.25
694.15	57.22
694.475	56.95
694.8	56.82
695.125	56.98
695.45	56.91
695.775	57
696.099	57.14
696.424	57.1
696.749	57.26
697.073	57.2
697.398	57.21
697.723	57.21
698.047	57.19
698.372	57.02
698.696	57.03
699.02	57.29
699.345	57.35
699.669	57.34
699.993	57.27
700.318	57.29
700.642	57.26
700.966	57.28
701.29	57.37
701.614	57.21
701.938	57.06
702.262	57.16
702.586	57.03
702.91	56.96
703.234	57.03
703.557	57.22
703.881	57.27
704.205	57.02
704.529	57.07
704.852	57.01
705.176	57
705.499	57.02
705.823	56.87
706.146	56.96
706.47	57.16
706.793	57.31
707.117	57.43
707.44	57.39
707.763	57.35
708.086	57.39
708.409	57.49
708.733	57.57
709.056	57.71
709.379	57.84
709.702	57.8
710.025	57.75
710.348	57.68
710.671	57.73
710.993	57.77
711.316	57.83
711.639	57.97
711.962	58.2
712.284	58.23
712.607	58.15
712.93	58.22
713.252	58.02
713.575	57.95
713.897	58.01
714.22	58.01
714.542	58.02
714.864	57.92
715.187	58.02
715.509	57.77
715.831	57.66
716.153	57.59
716.475	57.76
716.798	57.95
717.12	58
717.442	57.97
717.764	58.03
718.085	57.96
718.407	57.8
718.729	57.42
719.051	57.18
719.373	57.37
719.695	57.1
720.016	57.03
720.338	56.99
720.659	56.92
720.981	56.88
721.302	56.93
721.624	57.17
721.945	56.93
722.267	57.34
722.588	57.4
722.909	57.22
723.231	56.98
723.552	56.6
723.873	56.49
724.194	56.32
724.515	56.27
724.836	56.28
725.157	56.11
725.478	56.28
725.799	56.42
726.12	56.2
726.441	56.31
726.762	56.59
727.083	56.56
727.403	56.25
727.724	56.31
728.045	56.34
728.365	55.97
728.686	56.21
729.006	56.1
729.327	56
729.647	56.08
729.967	56.27
730.288	56.51
730.608	56.46
730.928	56.55
731.249	56.79
731.569	56.91
731.889	56.94
732.209	56.87
732.529	56.79
732.849	56.86
733.169	56.78
733.489	56.59
733.809	56.63
734.129	56.73
734.448	56.68
734.768	56.61
735.088	56.91
735.408	56.97
735.727	56.95
736.047	57.12
736.366	57.26
736.686	57.15
737.005	57.17
737.325	57.23
737.644	57.24
737.963	57.14
738.283	57
738.602	57.22
738.921	57.42
739.24	57.6
739.56	57.75
739.879	57.8
740.198	57.68
740.517	57.55
740.836	57.83
741.155	57.96
741.473	58.31
741.792	58.23
742.111	58.37
742.43	58.54
742.748	58.36
743.067	58.09
743.386	57.76
743.704	57.76
744.023	57.71
744.341	57.75
744.66	57.43
744.978	57.35
745.297	57.41
745.615	57.12
745.933	57.17
746.252	57.08
746.57	57.22
746.888	57.32
747.206	57.47
747.524	57.4
747.842	57.49
748.16	57.48
748.478	57.32
748.796	57.19
749.114	57.01
749.432	56.99
749.749	57.11
750.067	57.69
750.385	57.61
750.703	57.27
751.02	57.15
751.338	57.53
751.655	57.95
751.973	57.84
752.29	57.52
752.608	57.28
752.925	57.26
753.242	57.07
753.56	56.82
753.877	57.09
754.194	56.78
754.511	56.7
754.828	56.47
755.145	56.41
755.462	56.15
755.779	56.18
756.096	56.18
756.413	56.24
756.73	55.97
757.047	55.92
757.364	56.32
757.68	56.46
757.997	56.56
758.314	56.35
758.63	56.1
758.947	56.56
759.264	56.58
759.58	56.53
759.896	56.45
760.213	56.96
760.529	57.04
760.846	57.64
761.162	57.55
761.478	57.37
761.794	57.4
762.11	57.54
762.426	57.69
762.743	57.63
763.059	57.82
763.375	58
763.69	58.02
764.006	58.11
764.322	58.47
764.638	58.61
764.954	58.73
765.27	59.02
765.585	59.3
765.901	59.41
766.216	59.68
766.532	59.92
766.848	59.72
767.163	59.28
767.478	58.82
767.794	58.86
768.109	58.84
768.424	58.92
768.74	58.65
769.055	58.41
769.37	58.55
769.685	58.47
770	58.27
770.315	58.57
770.63	58.32
770.945	58.28
771.26	57.9
771.575	57.98
771.89	57.66
772.205	57.12
772.52	57.08
772.834	57.07
773.149	57.04
773.464	56.92
773.778	57.07
774.093	57.02
774.407	56.77
774.722	56.79
775.036	56.96
775.351	57.47
775.665	57.67
775.979	57.71
776.293	58
776.608	57.78
776.922	57.38
777.236	57.53
777.55	57.16
777.864	57.11
778.178	56.95
778.492	57.38
778.806	57.53
779.12	57.18
779.434	57.04
779.747	57.22
780.061	57.25
780.375	57.08
780.689	57.86
781.002	58.26
781.316	57.76
781.629	57.7
781.943	57.59
782.256	57.35
782.57	57.55
782.883	56.94
783.196	56.93
783.51	57.3
783.823	57.29
784.136	57.23
784.449	57.16
784.762	57.1
785.075	56.64
785.388	56.54
785.701	56.85
786.014	57.03
786.327	56.28
786.64	56.17
786.953	56.51
787.266	56.07
787.578	55.65
787.891	56.12
788.204	56.26
788.516	55.98
788.829	56.28
789.141	56.4
789.454	56.68
789.766	56.94
790.079	56.44
790.391	56.07
790.703	55.68
791.016	55.31
791.328	54.72
791.64	54.97
791.952	54.89
792.264	55.22
792.576	54.75
792.888	55.34
793.2	55.63
793.512	55.57
793.824	55.67
794.136	55.53
794.448	56.22
794.76	56.09
795.071	56.36
795.383	56.34
795.695	56.31
796.006	56.21
796.318	55.66
796.629	55.87
796.941	55.77
797.252	56.26
797.564	56.68
797.875	56.98
798.186	57.23
798.497	57.19
798.809	57.28
799.12	57.12
799.431	57.31
799.742	57.01
800.053	56.85
800.364	56.44
800.675	56.6
800.986	55.98
801.297	55.8
801.608	55.41
801.918	55.51
802.229	54.75
802.54	54.94
802.851	55.23
803.161	54.82
803.472	54.99
803.782	54.84
804.093	54.94
804.403	54.85
804.714	54.32
805.024	54.32
805.334	53.41
805.645	54.39
805.955	54.17
806.265	54.68
806.575	54.79
806.885	55.04
807.195	55.34
807.505	55.03
807.815	55.89
808.125	56.11
808.435	55.64
808.745	56.24
809.055	56.62
809.365	56.95
809.674	57.63
809.984	57.92
810.294	58.31
810.603	58.08
810.913	58.29
811.222	57.88
811.532	58.3
811.841	58.6
812.151	57.68
812.46	57.43
812.769	57.44
813.079	57.31
813.388	56.96
813.697	56.06
814.006	56.29
814.315	55.01
814.624	55.3
814.933	55.08
815.242	54.86
815.551	54.07
815.86	53.75
816.169	53.49
816.478	53.43
816.786	53.13
817.095	53.91
817.404	54.29
817.712	54.28
818.021	54.52
818.33	54.65
818.638	55.79
818.947	56.54
819.255	56.18
819.563	56.69
819.872	57.03
820.18	58.03
820.488	57.86
820.796	58.1
821.105	58.16
821.413	58.84
821.721	58.72
822.029	58.81
822.337	59
822.645	58.94
822.953	59.03
823.26	59.05
823.568	59.15
823.876	59.2
824.184	59.37
824.491	59.25
824.799	59.28
825.107	59.1
825.414	58.84
825.722	58.88
826.029	58.9
826.337	58.97
826.644	58.82
826.951	58.86
827.259	58.87
827.566	58.85
827.873	58.5
828.18	58.48
828.488	58.47
828.795	58.4
829.102	58.44
829.409	57.99
829.716	57.83
830.023	57.24
830.329	57.29
830.636	57.24
830.943	57.37
831.25	57.21
831.557	57.08
831.863	57.49
832.17	57.86
832.476	57.66
832.783	57.61
833.089	57.68
833.396	57.95
833.702	57.66
834.009	57.92
834.315	57.4
834.621	57.25
834.928	56.86
835.234	56.5
835.54	56.52
835.846	56.65
836.152	56.92
836.458	57.01
836.764	56.58
837.07	56.75
837.376	55.95
837.682	55.52
837.988	55.42
838.293	54.04
838.599	53.42
838.905	53.61
839.211	53.56
839.516	53.19
839.822	53.18
840.127	52.94
840.433	52.41
840.738	53.22
841.044	54.62
841.349	54.33
841.654	54.15
841.959	54.31
842.265	55.25
842.57	54.92
842.875	54.16
843.18	53.18
843.485	52.88
843.79	53.9
844.095	54.62
844.4	55.33
844.705	56.98
845.01	57.69
845.315	55.92
845.619	54.56
845.924	52.52
846.229	52.91
846.533	53.4
846.838	54
847.142	53.89
847.447	53.83
847.751	53.93
848.056	53.84
848.36	53.53
848.664	53.38
848.969	50.92
849.273	51.27
849.577	52.63
849.881	51.36
850.185	51.06
850.489	50.95
850.794	50.53
851.097	52.06
851.401	50.57
851.705	52.87
852.009	53.28
852.313	53.47
852.617	50.12
852.92	50.61
853.224	48.21
853.528	47.48
853.831	46.88
854.135	46.55
854.438	46.89
854.742	44.76
855.045	43.51
855.349	44.56
855.652	45.93
855.955	43.69
856.259	44.86
856.562	44.37
856.865	45.59
857.168	43.38
857.471	44.86
857.774	46.35
858.077	44.83
858.38	44.03
858.683	45.34
858.986	49.84
859.289	49.61
859.592	48.25
859.894	47.41
860.197	44.98
860.5	46.07
860.802	45.79
861.105	49.03
861.407	48.61
861.71	47.97
862.012	45.67
862.315	46.32
862.617	46.92
862.919	46.06
863.222	46.31
863.524	46.65
863.826	44.69
864.128	42.25
864.43	42.51
864.732	44.85
865.034	44.34
865.336	43.3
865.638	43.12
865.94	45.37
866.242	43.74
866.544	42.6
866.846	42.75
867.147	42.53
867.449	40.9
867.751	41.83
868.052	42.29
868.354	42.96
868.655	43.93
868.957	41.57
869.258	42.62
869.56	42.73
869.861	43.93
870.162	44.31
870.463	44.24
870.765	43.58
871.066	42.59
871.367	42.31
871.668	40.47
871.969	40.64
872.27	37.98
872.571	41.71
872.872	43.64
873.173	44.91
873.473	46.3
873.774	46.52
874.075	43.49
874.376	44.05
874.676	46.4
874.977	46.86
875.277	47.46
875.578	50.43
875.878	48.94
876.179	47.92
876.479	46.17
876.78	48.24
877.08	49.61
877.38	48.45
877.68	49.75
877.981	50.82
878.281	49.35
878.581	54.68
