Data from BA51245_Reflection_00007.txt Node
Date: Tue Nov 19 11:51:46 EST 2019
User: vgr7
Spectrometer: USB2G7710
Scans to average: 3
Trigger mode: 4
Integration Time (sec): 2.000000E-2
Electric dark correction enabled: true
Boxcar width: 10
XAxis mode: Wavelengths
Number of Pixels in Spectrum: 2048
>>>>>Begin Spectral Data<<<<<
177.721	474.4
178.105	-392.06
178.488	-627.05
178.871	212.96
179.254	150.88
179.636	201.14
180.019	1092.06
180.402	9.52
180.785	-96.3
181.168	-213.13
181.55	40.86
181.933	63.66
182.316	18.47
182.698	4.4
183.081	45.97
183.463	69.46
183.846	148.56
184.228	174.3
184.611	68.32
184.993	106.67
185.376	-0.47
185.758	33.84
186.14	106.17
186.522	38.24
186.904	-2.12
187.287	-6.78
187.669	2.69
188.051	-17.47
188.433	-37.83
188.815	-35.87
189.197	-28.34
189.579	-29.24
189.961	-25.07
190.342	-22.77
190.724	-45.94
191.106	-31.63
191.488	-23.33
191.869	-12.79
192.251	-12
192.633	-11.2
193.014	-46.04
193.396	-55.29
193.777	-57.17
194.159	-40.67
194.54	-27.93
194.922	-20.01
195.303	-9.24
195.684	-17.13
196.065	-15.63
196.447	-5.7
196.828	4.33
197.209	-3.72
197.59	-11.98
197.971	-12.78
198.352	-16.07
198.733	-18.27
199.114	-19.6
199.495	-25.06
199.876	-37.4
200.257	-47.39
200.638	-46.72
201.018	-21.61
201.399	-16.72
201.78	-6.16
202.16	-13.76
202.541	-11.03
202.922	-19.23
203.302	-24.11
203.683	-42.69
204.063	-49.17
204.444	-47.61
204.824	-51.25
205.204	-51.15
205.585	-41.65
205.965	-32.07
206.345	-31.86
206.725	-9.61
207.106	-1.08
207.486	-0.76
207.866	8.72
208.246	21.67
208.626	20.78
209.006	11.53
209.386	3.19
209.766	-7.48
210.145	-7.01
210.525	-7.07
210.905	9.18
211.285	6.97
211.664	11.3
212.044	12.29
212.424	9.85
212.803	5.52
213.183	-5.04
213.562	1.95
213.942	2.34
214.321	14.74
214.701	7.66
215.08	4.34
215.459	8.31
215.838	4.85
216.218	-7.67
216.597	-1.14
216.976	1.31
217.355	15.67
217.734	26.41
218.113	27.69
218.492	18.27
218.871	-16.83
219.25	-22.37
219.629	-39.28
220.008	-14.19
220.387	-11.24
220.766	2.85
221.144	15.19
221.523	11.15
221.902	5.48
222.28	1.47
222.659	11.46
223.037	9.69
223.416	4.15
223.794	3.69
224.173	2.05
224.551	-3.54
224.929	-4.24
225.308	-8.62
225.686	-8.02
226.064	-10.15
226.442	-3.42
226.821	0.77
227.199	5.47
227.577	9.78
227.955	6.09
228.333	4.27
228.711	3.75
229.089	4.4
229.467	4.18
229.845	4.04
230.222	3.24
230.6	-1.9
230.978	2.42
231.356	1.87
231.733	3.6
232.111	4.11
232.488	6.12
232.866	5.61
233.243	5.7
233.621	5.14
233.998	6.13
234.376	6.28
234.753	7.31
235.13	4.26
235.508	4.15
235.885	4.99
236.262	3.27
236.639	3.43
237.016	3.6
237.393	4.96
237.77	5.11
238.147	5.38
238.524	6.15
238.901	4.69
239.278	4.12
239.655	3.91
240.032	4.83
240.409	4.89
240.785	4.35
241.162	4.92
241.539	4.2
241.915	4.74
242.292	4.79
242.668	4.76
243.045	5.53
243.421	5.46
243.798	5.71
244.174	6
244.551	6.19
244.927	5.96
245.303	5.79
245.679	5.69
246.056	5.79
246.432	5.65
246.808	5.94
247.184	6.53
247.56	6.38
247.936	6.18
248.312	6.15
248.688	6.43
249.064	6.04
249.44	6.2
249.815	6.2
250.191	6.32
250.567	6.29
250.943	6.27
251.318	6.3
251.694	6.01
252.069	6.46
252.445	6.26
252.82	6.89
253.196	6.75
253.571	6.95
253.947	6.36
254.322	6.34
254.697	5.88
255.073	5.76
255.448	5.41
255.823	5.45
256.198	5.34
256.573	5.49
256.948	5.92
257.323	5.87
257.698	5.53
258.073	5.21
258.448	5.26
258.823	5
259.198	5.07
259.573	5.1
259.948	4.92
260.322	4.85
260.697	4.28
261.072	4.22
261.446	4.16
261.821	4.33
262.195	4.32
262.57	4.34
262.944	4.05
263.319	4.31
263.693	4.25
264.067	4.13
264.442	4.02
264.816	3.75
265.19	3.87
265.564	3.79
265.938	3.83
266.313	3.67
266.687	3.78
267.061	3.59
267.435	3.59
267.809	3.48
268.183	3.63
268.556	3.9
268.93	4.07
269.304	4.02
269.678	4.18
270.051	4.33
270.425	4.36
270.799	4.32
271.172	4.15
271.546	4.3
271.919	4.38
272.293	4.39
272.666	4.41
273.04	4.3
273.413	4.32
273.787	4.34
274.16	4.23
274.533	4.18
274.906	4.18
275.279	4.01
275.653	4.19
276.026	4.1
276.399	4.17
276.772	4.08
277.145	3.96
277.518	3.74
277.891	3.74
278.263	3.83
278.636	4.16
279.009	4.32
279.382	4.2
279.755	4.29
280.127	4.23
280.5	4.14
280.872	4.2
281.245	4.28
281.617	4.24
281.99	4.43
282.362	4.42
282.735	4.37
283.107	4.47
283.479	4.5
283.852	4.47
284.224	4.48
284.596	4.52
284.968	4.81
285.34	4.78
285.713	4.73
286.085	4.58
286.457	4.41
286.829	4.46
287.201	4.42
287.572	4.45
287.944	4.55
288.316	4.59
288.688	4.64
289.06	4.72
289.431	4.78
289.803	4.77
290.175	4.87
290.546	4.89
290.918	5.02
291.289	4.91
291.661	5.15
292.032	5.16
292.403	5.21
292.775	5.18
293.146	5.3
293.517	5.44
293.889	5.57
294.26	5.72
294.631	5.75
295.002	5.92
295.373	5.91
295.744	5.93
296.115	5.95
296.486	5.87
296.857	6.04
297.228	5.96
297.599	5.88
297.97	6.06
298.34	6.22
298.711	6.3
299.082	6.35
299.452	6.18
299.823	6.15
300.194	6.35
300.564	6.43
300.935	6.41
301.305	6.52
301.676	6.65
302.046	6.78
302.416	6.95
302.787	7.02
303.157	7.15
303.527	7.36
303.897	7.48
304.267	7.82
304.637	7.73
305.008	8.09
305.378	8.46
305.748	8.34
306.117	8.4
306.487	8.54
306.857	8.69
307.227	8.96
307.597	9.25
307.967	9.18
308.336	9.19
308.706	9.38
309.076	9.5
309.445	9.67
309.815	9.67
310.184	9.59
310.554	9.71
310.923	9.73
311.293	9.69
311.662	9.89
312.031	9.77
312.401	9.79
312.77	9.89
313.139	9.78
313.508	9.98
313.877	10.22
314.246	10.12
314.616	10.42
314.985	10.41
315.353	10.46
315.722	10.65
316.091	10.71
316.46	10.94
316.829	10.99
317.198	10.9
317.567	11.07
317.935	11.29
318.304	11.44
318.672	11.74
319.041	11.89
319.41	11.95
319.778	12.22
320.147	12.53
320.515	12.6
320.883	12.89
321.252	12.94
321.62	12.84
321.988	12.98
322.357	12.86
322.725	13.02
323.093	13.06
323.461	13.09
323.829	13.25
324.197	13.21
324.565	13.29
324.933	13.39
325.301	13.4
325.669	13.44
326.037	13.46
326.405	13.35
326.772	13.44
327.14	13.54
327.508	13.51
327.875	13.37
328.243	13.35
328.61	13.37
328.978	13.44
329.346	13.55
329.713	13.64
330.08	13.72
330.448	13.72
330.815	13.81
331.182	13.99
331.55	13.98
331.917	14.11
332.284	14.09
332.651	14.11
333.018	14.06
333.385	14.04
333.752	14.17
334.119	14.16
334.486	14.1
334.853	13.95
335.22	13.87
335.587	14.02
335.954	14.11
336.32	13.89
336.687	13.94
337.054	13.99
337.42	14.07
337.787	13.98
338.153	14.15
338.52	14.19
338.886	14.09
339.253	14.14
339.619	14.13
339.986	14.1
340.352	14.27
340.718	14.51
341.084	14.56
341.451	14.56
341.817	14.67
342.183	14.66
342.549	14.81
342.915	15.02
343.281	15.07
343.647	15.04
344.013	15.2
344.379	15.22
344.745	15.17
345.11	15.14
345.476	15.3
345.842	15.09
346.208	15.1
346.573	15.14
346.939	15.06
347.304	14.99
347.67	15.08
348.035	15.05
348.401	14.99
348.766	15.07
349.132	15.13
349.497	15.07
349.862	15.1
350.228	14.98
350.593	15.03
350.958	14.97
351.323	15.04
351.688	15.07
352.053	14.96
352.418	14.99
352.783	15
353.148	15.03
353.513	15.16
353.878	15
354.243	14.82
354.608	14.92
354.972	14.95
355.337	14.86
355.702	14.77
356.066	14.71
356.431	14.66
356.795	14.54
357.16	14.52
357.524	14.5
357.889	14.52
358.253	14.43
358.618	14.38
358.982	14.28
359.346	14.24
359.71	14.27
360.075	14.25
360.439	14.21
360.803	14.16
361.167	14.14
361.531	14.13
361.895	14.17
362.259	14.21
362.623	14.12
362.987	14.06
363.351	14.05
363.714	13.98
364.078	13.94
364.442	13.95
364.806	13.85
365.169	13.88
365.533	13.82
365.896	13.77
366.26	13.65
366.623	13.52
366.987	13.43
367.35	13.27
367.714	13.17
368.077	13.13
368.44	12.96
368.803	12.78
369.167	12.76
369.53	12.67
369.893	12.44
370.256	12.3
370.619	12.15
370.982	11.97
371.345	11.91
371.708	11.76
372.071	11.58
372.434	11.52
372.797	11.37
373.159	11.2
373.522	11.01
373.885	11.01
374.247	11.02
374.61	10.97
374.973	10.89
375.335	10.8
375.698	10.62
376.06	10.58
376.423	10.58
376.785	10.53
377.147	10.44
377.51	10.37
377.872	10.32
378.234	10.34
378.596	10.28
378.958	10.2
379.321	10.09
379.683	9.99
380.045	9.89
380.407	9.76
380.769	9.7
381.13	9.61
381.492	9.52
381.854	9.36
382.216	9.26
382.578	9.26
382.939	9.15
383.301	9.12
383.663	9.1
384.024	8.94
384.386	8.82
384.747	8.75
385.109	8.69
385.47	8.63
385.832	8.54
386.193	8.48
386.554	8.41
386.916	8.41
387.277	8.33
387.638	8.27
387.999	8.24
388.36	8.23
388.721	8.2
389.082	8.17
389.443	8.15
389.804	8.1
390.165	8.02
390.526	7.92
390.887	7.85
391.248	7.69
391.609	7.67
391.969	7.61
392.33	7.6
392.691	7.57
393.051	7.5
393.412	7.4
393.772	7.35
394.133	7.31
394.493	7.24
394.854	7.22
395.214	7.16
395.574	7.03
395.935	6.93
396.295	6.82
396.655	6.75
397.015	6.68
397.376	6.6
397.736	6.49
398.096	6.47
398.456	6.41
398.816	6.41
399.176	6.36
399.535	6.28
399.895	6.17
400.255	6.08
400.615	6.06
400.975	6.04
401.334	5.99
401.694	5.93
402.054	5.9
402.413	5.88
402.773	5.87
403.132	5.87
403.492	5.86
403.851	5.88
404.211	5.84
404.57	5.77
404.929	5.74
405.288	5.7
405.648	5.69
406.007	5.66
406.366	5.63
406.725	5.58
407.084	5.56
407.443	5.55
407.802	5.53
408.161	5.49
408.52	5.46
408.879	5.43
409.238	5.43
409.596	5.38
409.955	5.33
410.314	5.28
410.673	5.23
411.031	5.22
411.39	5.18
411.748	5.16
412.107	5.15
412.465	5.11
412.824	5.14
413.182	5.11
413.54	5.07
413.899	5.01
414.257	5.01
414.615	5.01
414.974	4.96
415.332	4.93
415.69	4.92
416.048	4.91
416.406	4.88
416.764	4.82
417.122	4.79
417.48	4.77
417.838	4.78
418.195	4.8
418.553	4.75
418.911	4.73
419.269	4.71
419.626	4.68
419.984	4.66
420.342	4.63
420.699	4.62
421.057	4.59
421.414	4.57
421.772	4.55
422.129	4.53
422.486	4.53
422.844	4.5
423.201	4.49
423.558	4.47
423.915	4.46
424.273	4.47
424.63	4.45
424.987	4.43
425.344	4.4
425.701	4.37
426.058	4.37
426.415	4.34
426.772	4.31
427.128	4.33
427.485	4.3
427.842	4.28
428.199	4.26
428.555	4.26
428.912	4.25
429.269	4.22
429.625	4.19
429.982	4.18
430.338	4.19
430.695	4.15
431.051	4.14
431.407	4.12
431.764	4.08
432.12	4.08
432.476	4.06
432.832	4.06
433.189	4.03
433.545	4.02
433.901	4.04
434.257	4.04
434.613	4.02
434.969	4.03
435.325	4.04
435.681	4.03
436.036	4.05
436.392	4.08
436.748	4.09
437.104	4.1
437.459	4.08
437.815	4.08
438.171	4.09
438.526	4.1
438.882	4.11
439.237	4.11
439.593	4.13
439.948	4.11
440.304	4.11
440.659	4.13
441.014	4.11
441.369	4.1
441.725	4.08
442.08	4.09
442.435	4.08
442.79	4.05
443.145	4.04
443.5	4.02
443.855	4
444.21	4
444.565	3.98
444.92	4
445.275	3.98
445.629	3.96
445.984	3.94
446.339	3.93
446.693	3.92
447.048	3.88
447.403	3.88
447.757	3.86
448.112	3.85
448.466	3.86
448.82	3.85
449.175	3.85
449.529	3.83
449.883	3.83
450.238	3.82
450.592	3.8
450.946	3.78
451.3	3.77
451.654	3.74
452.008	3.73
452.362	3.68
452.716	3.69
453.07	3.69
453.424	3.68
453.778	3.67
454.132	3.67
454.486	3.68
454.839	3.69
455.193	3.7
455.547	3.69
455.9	3.7
456.254	3.72
456.607	3.71
456.961	3.71
457.314	3.71
457.668	3.72
458.021	3.73
458.375	3.75
458.728	3.75
459.081	3.77
459.434	3.76
459.787	3.8
460.141	3.82
460.494	3.81
460.847	3.81
461.2	3.82
461.553	3.83
461.906	3.86
462.259	3.85
462.611	3.86
462.964	3.89
463.317	3.87
463.67	3.87
464.022	3.89
464.375	3.9
464.728	3.9
465.08	3.92
465.433	3.94
465.785	3.94
466.138	3.97
466.49	3.98
466.843	4.03
467.195	4.03
467.547	4.01
467.899	4.03
468.252	4.05
468.604	4.09
468.956	4.1
469.308	4.09
469.66	4.12
470.012	4.12
470.364	4.13
470.716	4.18
471.068	4.19
471.42	4.19
471.772	4.2
472.123	4.23
472.475	4.26
472.827	4.26
473.178	4.26
473.53	4.26
473.882	4.25
474.233	4.25
474.585	4.25
474.936	4.25
475.288	4.23
475.639	4.23
475.99	4.19
476.342	4.18
476.693	4.17
477.044	4.16
477.395	4.16
477.746	4.11
478.097	4.07
478.448	4.07
478.8	4.06
479.15	4.05
479.501	4.03
479.852	3.99
480.203	3.99
480.554	3.99
480.905	4
481.255	4
481.606	3.99
481.957	3.98
482.307	3.98
482.658	4
483.009	4
483.359	4
483.709	4.02
484.06	4.02
484.41	4.02
484.761	4.02
485.111	4.04
485.461	4.05
485.811	4.04
486.162	4.05
486.512	4.04
486.862	4.05
487.212	4.05
487.562	4.06
487.912	4.08
488.262	4.07
488.612	4.07
488.961	4.09
489.311	4.1
489.661	4.11
490.011	4.11
490.36	4.12
490.71	4.14
491.06	4.13
491.409	4.15
491.759	4.17
492.108	4.18
492.458	4.19
492.807	4.21
493.157	4.22
493.506	4.26
493.855	4.28
494.204	4.32
494.554	4.36
494.903	4.39
495.252	4.41
495.601	4.46
495.95	4.5
496.299	4.52
496.648	4.58
496.997	4.61
497.346	4.67
497.695	4.71
498.043	4.74
498.392	4.78
498.741	4.82
499.09	4.87
499.438	4.92
499.787	4.95
500.135	5
500.484	5.06
500.832	5.11
501.181	5.2
501.529	5.28
501.878	5.34
502.226	5.41
502.574	5.48
502.923	5.52
503.271	5.58
503.619	5.65
503.967	5.7
504.315	5.77
504.663	5.83
505.011	5.9
505.359	5.94
505.707	6.01
506.055	6.07
506.403	6.15
506.751	6.24
507.098	6.32
507.446	6.41
507.794	6.53
508.141	6.61
508.489	6.7
508.837	6.74
509.184	6.84
509.531	6.93
509.879	7.03
510.226	7.13
510.574	7.24
510.921	7.3
511.268	7.4
511.616	7.51
511.963	7.59
512.31	7.7
512.657	7.86
513.004	7.96
513.351	8.09
513.698	8.21
514.045	8.33
514.392	8.45
514.739	8.58
515.086	8.7
515.432	8.82
515.779	8.9
516.126	9.06
516.473	9.15
516.819	9.24
517.166	9.33
517.512	9.43
517.859	9.52
518.205	9.63
518.552	9.72
518.898	9.83
519.245	9.93
519.591	10.01
519.937	10.09
520.283	10.22
520.629	10.32
520.976	10.44
521.322	10.55
521.668	10.7
522.014	10.82
522.36	10.97
522.706	11.11
523.052	11.28
523.398	11.4
523.743	11.59
524.089	11.8
524.435	11.97
524.781	12.15
525.126	12.31
525.472	12.45
525.817	12.61
526.163	12.74
526.509	12.88
526.854	13
527.199	13.11
527.545	13.21
527.89	13.34
528.235	13.43
528.581	13.54
528.926	13.65
529.271	13.76
529.616	13.86
529.961	13.98
530.306	14.1
530.651	14.23
530.996	14.38
531.341	14.49
531.686	14.62
532.031	14.76
532.376	14.91
532.721	15.08
533.065	15.22
533.41	15.37
533.755	15.54
534.099	15.71
534.444	15.89
534.788	16.05
535.133	16.2
535.477	16.37
535.822	16.55
536.166	16.72
536.51	16.94
536.855	17.15
537.199	17.34
537.543	17.55
537.887	17.77
538.231	17.99
538.576	18.21
538.92	18.44
539.264	18.65
539.608	18.84
539.951	19.03
540.295	19.22
540.639	19.38
540.983	19.55
541.327	19.73
541.671	19.88
542.014	20.06
542.358	20.24
542.701	20.4
543.045	20.56
543.389	20.74
543.732	20.9
544.075	21.09
544.419	21.29
544.762	21.49
545.105	21.67
545.449	21.85
545.792	22.06
546.135	22.29
546.478	22.5
546.821	22.78
547.165	23.02
547.508	23.24
547.851	23.49
548.194	23.74
548.536	23.96
548.879	24.26
549.222	24.53
549.565	24.79
549.908	25.06
550.25	25.35
550.593	25.65
550.936	25.94
551.278	26.18
551.621	26.44
551.963	26.72
552.306	27.01
552.648	27.29
552.991	27.59
553.333	27.83
553.675	28.09
554.017	28.32
554.36	28.55
554.702	28.8
555.044	29.1
555.386	29.36
555.728	29.65
556.07	29.86
556.412	30.1
556.754	30.35
557.096	30.58
557.438	30.84
557.78	31.09
558.121	31.35
558.463	31.59
558.805	31.85
559.147	32.15
559.488	32.46
559.83	32.73
560.171	32.97
560.513	33.22
560.854	33.51
561.196	33.8
561.537	34.11
561.878	34.45
562.22	34.78
562.561	35.05
562.902	35.36
563.243	35.66
563.584	36.02
563.925	36.33
564.266	36.65
564.607	36.9
564.948	37.16
565.289	37.39
565.63	37.71
565.971	37.98
566.312	38.2
566.653	38.45
566.993	38.75
567.334	39.03
567.675	39.33
568.015	39.59
568.356	39.85
568.696	40.11
569.037	40.34
569.377	40.57
569.718	40.81
570.058	41.03
570.398	41.3
570.739	41.54
571.079	41.83
571.419	42.02
571.759	42.3
572.099	42.5
572.439	42.73
572.779	42.95
573.119	43.14
573.459	43.4
573.799	43.58
574.139	43.8
574.479	44.04
574.819	44.24
575.158	44.47
575.498	44.72
575.838	44.93
576.177	45.16
576.517	45.33
576.856	45.62
577.196	45.85
577.535	46.09
577.875	46.31
578.214	46.51
578.553	46.77
578.893	46.99
579.232	47.29
579.571	47.53
579.91	47.88
580.25	48.14
580.589	48.37
580.928	48.6
581.267	48.88
581.606	49.07
581.945	49.27
582.283	49.47
582.622	49.7
582.961	49.93
583.3	50.14
583.639	50.37
583.977	50.55
584.316	50.8
584.654	51.06
584.993	51.17
585.332	51.32
585.67	51.56
586.008	51.71
586.347	51.84
586.685	52.07
587.024	52.15
587.362	52.33
587.7	52.5
588.038	52.69
588.376	52.73
588.715	52.91
589.053	53.03
589.391	53.13
589.729	53.16
590.067	53.23
590.404	53.38
590.742	53.5
591.08	53.55
591.418	53.58
591.756	53.65
592.093	53.85
592.431	54.07
592.769	54.15
593.106	54.27
593.444	54.47
593.781	54.55
594.119	54.69
594.456	54.79
594.793	54.9
595.131	55
595.468	55.08
595.805	55.16
596.143	55.32
596.48	55.41
596.817	55.56
597.154	55.69
597.491	55.79
597.828	55.89
598.165	56.01
598.502	56.15
598.839	56.22
599.176	56.31
599.512	56.3
599.849	56.44
600.186	56.59
600.523	56.71
600.859	56.83
601.196	56.86
601.532	56.97
601.869	57.1
602.205	57.29
602.542	57.34
602.878	57.47
603.215	57.56
603.551	57.64
603.887	57.66
604.223	57.71
604.56	57.68
604.896	57.78
605.232	57.84
605.568	57.84
605.904	57.95
606.24	57.98
606.576	58.05
606.912	58.14
607.248	58.12
607.583	58.11
607.919	58.15
608.255	58.25
608.591	58.31
608.926	58.32
609.262	58.25
609.597	58.39
609.933	58.39
610.268	58.4
610.604	58.53
610.939	58.71
611.275	58.74
611.61	58.88
611.945	58.93
612.281	59.07
612.616	59.22
612.951	59.16
613.286	59.28
613.621	59.37
613.956	59.57
614.291	59.63
614.626	59.68
614.961	59.78
615.296	59.84
615.631	59.95
615.966	59.99
616.3	60.06
616.635	60.07
616.97	60.14
617.304	60.18
617.639	60.21
617.973	60.23
618.308	60.4
618.642	60.45
618.977	60.48
619.311	60.43
619.646	60.43
619.98	60.56
620.314	60.59
620.648	60.66
620.983	60.55
621.317	60.6
621.651	60.6
621.985	60.62
622.319	60.56
622.653	60.48
622.987	60.54
623.321	60.61
623.655	60.74
623.988	60.78
624.322	60.8
624.656	60.74
624.99	60.67
625.323	60.67
625.657	60.69
625.99	60.66
626.324	60.73
626.657	60.78
626.991	60.81
627.324	60.68
627.658	60.65
627.991	60.74
628.324	60.85
628.657	60.98
628.991	61.04
629.324	61.12
629.657	61.18
629.99	61.11
630.323	61.06
630.656	61.07
630.989	61.06
631.322	61.06
631.655	61.04
631.987	61.07
632.32	60.96
632.653	60.96
632.986	61.09
633.318	61.08
633.651	61.07
633.984	61.16
634.316	61.37
634.649	61.43
634.981	61.33
635.313	61.32
635.646	61.29
635.978	61.27
636.31	61.37
636.643	61.38
636.975	61.58
637.307	61.7
637.639	61.71
637.971	61.74
638.303	61.86
638.635	62
638.967	62.01
639.299	62.15
639.631	62.12
639.963	62.05
640.295	62.15
640.626	62.15
640.958	62.05
641.29	62.04
641.621	61.98
641.953	61.93
642.285	61.98
642.616	61.89
642.948	61.97
643.279	62
643.61	62.03
643.942	61.91
644.273	61.96
644.604	62
644.936	62.03
645.267	61.99
645.598	61.98
645.929	62.12
646.26	62.21
646.591	62.26
646.922	62.33
647.253	62.27
647.584	62.3
647.915	62.42
648.245	62.53
648.576	62.66
648.907	62.69
649.238	62.6
649.568	62.76
649.899	62.65
650.229	62.6
650.56	62.69
650.89	62.68
651.221	62.57
651.551	62.49
651.882	62.48
652.212	62.35
652.542	62.49
652.872	62.45
653.203	62.33
653.533	62.4
653.863	62.36
654.193	62.32
654.523	62.44
654.853	62.3
655.183	62.16
655.513	62.31
655.843	62.49
656.172	62.66
656.502	62.58
656.832	62.69
657.162	62.74
657.491	62.7
657.821	62.7
658.15	62.89
658.48	62.97
658.809	62.96
659.139	63.06
659.468	62.96
659.798	63.03
660.127	63.15
660.456	63.05
660.785	62.98
661.115	63.03
661.444	63
661.773	63.14
662.102	63.07
662.431	62.81
662.76	62.75
663.089	62.69
663.418	62.78
663.747	62.68
664.076	62.56
664.404	62.74
664.733	62.82
665.062	62.75
665.39	62.71
665.719	62.83
666.048	62.8
666.376	62.76
666.705	62.62
667.033	62.5
667.362	62.51
667.69	62.74
668.018	62.85
668.347	62.89
668.675	62.74
669.003	62.96
669.331	63.04
669.659	63.03
669.987	63.04
670.315	62.99
670.643	63.04
670.971	63.12
671.299	63.02
671.627	63.02
671.955	63.13
672.283	63.12
672.61	63.13
672.938	63.22
673.266	63.31
673.593	63.36
673.921	63.34
674.249	63.47
674.576	63.32
674.904	63.3
675.231	63.3
675.558	63.41
675.886	63.25
676.213	63.3
676.54	63.27
676.867	63.16
677.195	63.18
677.522	63.01
677.849	63.04
678.176	62.93
678.503	62.87
678.83	62.79
679.157	62.71
679.484	62.52
679.81	62.45
680.137	62.51
680.464	62.55
680.791	62.57
681.117	62.55
681.444	62.65
681.771	62.61
682.097	62.53
682.424	62.63
682.75	62.71
683.077	62.59
683.403	62.6
683.729	62.7
684.056	62.73
684.382	62.96
684.708	63.01
685.034	63.22
685.36	63.41
685.686	63.37
686.012	63.45
686.339	63.69
686.664	63.86
686.99	63.92
687.316	63.92
687.642	64.01
687.968	64.22
688.294	64.17
688.619	64.16
688.945	64.2
689.271	64.03
689.596	64.04
689.922	64.12
690.247	64.02
690.573	64.04
690.898	63.95
691.224	63.67
691.549	63.66
691.874	63.46
692.2	63.25
692.525	63.12
692.85	63.03
693.175	63.01
693.5	62.76
693.825	62.56
694.15	62.56
694.475	62.59
694.8	62.4
695.125	62.49
695.45	62.57
695.775	62.74
696.099	62.89
696.424	62.76
696.749	62.76
697.073	62.87
697.398	62.89
697.723	62.94
698.047	63.04
698.372	63.12
698.696	63.27
699.02	63.38
699.345	63.41
699.669	63.65
699.993	63.59
700.318	63.75
700.642	63.75
700.966	63.8
701.29	63.81
701.614	63.81
701.938	63.84
702.262	63.79
702.586	63.74
702.91	63.71
703.234	63.76
703.557	63.89
703.881	63.88
704.205	63.89
704.529	63.92
704.852	63.94
705.176	63.66
705.499	63.59
705.823	63.56
706.146	63.65
706.47	63.69
706.793	63.89
707.117	63.91
707.44	64.05
707.763	64
708.086	64.01
708.409	63.88
708.733	63.87
709.056	63.89
709.379	63.83
709.702	63.69
710.025	63.75
710.348	63.79
710.671	64.03
710.993	64.08
711.316	63.99
711.639	64.14
711.962	64.38
712.284	64.48
712.607	64.42
712.93	64.54
713.252	64.3
713.575	64.18
713.897	63.99
714.22	63.84
714.542	63.96
714.864	63.98
715.187	64.03
715.509	64.09
715.831	64.18
716.153	64.33
716.475	64.35
716.798	64.61
717.12	64.59
717.442	64.43
717.764	64.3
718.085	64.49
718.407	64.41
718.729	64.28
719.051	64.15
719.373	64.42
719.695	64.21
720.016	64.39
720.338	64.33
720.659	64.78
720.981	65.06
721.302	64.8
721.624	64.87
721.945	64.8
722.267	64.75
722.588	64.49
722.909	64.18
723.231	64.16
723.552	63.86
723.873	63.98
724.194	63.68
724.515	63.67
724.836	63.79
725.157	63.72
725.478	63.87
725.799	63.91
726.12	63.58
726.441	63.65
726.762	63.54
727.083	63.63
727.403	62.97
727.724	63.09
728.045	63.03
728.365	62.81
728.686	62.92
729.006	62.85
729.327	62.96
729.647	63.26
729.967	63.27
730.288	63.29
730.608	63.25
730.928	63.51
731.249	63.73
731.569	63.57
731.889	63.48
732.209	63.42
732.529	63.2
732.849	63.35
733.169	63.29
733.489	63.34
733.809	63.25
734.129	63.29
734.448	63.09
734.768	63.28
735.088	63.46
735.408	63.46
735.727	63.31
736.047	63.37
736.366	63.23
736.686	63.36
737.005	63.35
737.325	63.16
737.644	63.01
737.963	62.96
738.283	62.87
738.602	63.15
738.921	63.22
739.24	63.14
739.56	63.2
739.879	63.44
740.198	63.63
740.517	63.78
740.836	64.13
741.155	64.06
741.473	64.06
741.792	64.08
742.111	64.27
742.43	64.45
742.748	64.4
743.067	64.37
743.386	64.15
743.704	64.39
744.023	64.31
744.341	64.36
744.66	64.31
744.978	64.43
745.297	64.28
745.615	64.11
745.933	64.46
746.252	64.61
746.57	64.29
746.888	64.02
747.206	63.93
747.524	63.73
747.842	64.07
748.16	64.42
748.478	64.4
748.796	64.47
749.114	64.49
749.432	64.42
749.749	64.3
750.067	64.33
750.385	63.89
750.703	64.08
751.02	64.19
751.338	64.27
751.655	64.41
751.973	63.97
752.29	63.6
752.608	63.39
752.925	62.98
753.242	63.15
753.56	62.97
753.877	62.69
754.194	63.06
754.511	62.51
754.828	62.47
755.145	62.09
755.462	61.59
755.779	61.91
756.096	61.85
756.413	61.78
756.73	61.8
757.047	62.15
757.364	62.42
757.68	62.37
757.997	62.4
758.314	62.04
758.63	62.45
758.947	62.69
759.264	62.7
759.58	62.79
759.896	62.62
760.213	62.8
760.529	63.34
760.846	63.58
761.162	64.13
761.478	63.89
761.794	64.23
762.11	64.47
762.426	64.32
762.743	64.35
763.059	64.84
763.375	64.98
763.69	65.17
764.006	65.06
764.322	65.57
764.638	65.67
764.954	65.88
765.27	65.98
765.585	66.26
765.901	66.62
766.216	66.83
766.532	66.8
766.848	67.04
767.163	66.51
767.478	66.43
767.794	66.22
768.109	66.02
768.424	65.77
768.74	65.66
769.055	65.39
769.37	65.89
769.685	65.84
770	66.18
770.315	65.94
770.63	66.02
770.945	65.72
771.26	65.56
771.575	65.4
771.89	65.3
772.205	64.8
772.52	64.36
772.834	64.34
773.149	64.98
773.464	64.42
773.778	64.86
774.093	64.73
774.407	64.37
774.722	64.79
775.036	65.07
775.351	65.57
775.665	66.05
775.979	65.92
776.293	65.37
776.608	64.98
776.922	65.02
777.236	64.96
777.55	64.64
777.864	64.2
778.178	64.52
778.492	64.71
778.806	65.37
779.12	65.38
779.434	65.5
779.747	65.3
780.061	65.64
780.375	65.46
780.689	65.13
781.002	65.44
781.316	65.1
781.629	65.18
781.943	64.98
782.256	64.69
782.57	64.49
782.883	65.02
783.196	64.73
783.51	64.69
783.823	64.29
784.136	64.48
784.449	65.38
784.762	65.37
785.075	65.13
785.388	64.79
785.701	65.18
786.014	65.1
786.327	64.73
786.64	64.69
786.953	64.32
787.266	65.02
787.578	64.96
787.891	65.24
788.204	64.91
788.516	64.21
788.829	63.94
789.141	63.8
789.454	63.47
789.766	64.08
790.079	63.98
790.391	63.88
790.703	62.98
791.016	62.24
791.328	62
791.64	62.21
791.952	62.25
792.264	62.69
792.576	63.07
792.888	63.28
793.2	63.57
793.512	64.4
793.824	63.63
794.136	63.64
794.448	63.54
794.76	63.73
795.071	64.2
795.383	64.66
795.695	64.72
796.006	64.55
796.318	64.09
796.629	64.47
796.941	64.45
797.252	65.08
797.564	65.42
797.875	66.07
798.186	65.75
798.497	65.57
798.809	65.14
799.12	64.38
799.431	64.07
799.742	63.68
800.053	63.27
800.364	63.31
800.675	63.77
800.986	63.78
801.297	63.39
801.608	63.49
801.918	63.46
802.229	63.18
802.54	63.04
802.851	63.31
803.161	62.81
803.472	63.55
803.782	63.65
804.093	63.33
804.403	62.54
804.714	62.64
805.024	62.52
805.334	61.49
805.645	61.42
805.955	61.98
806.265	61.77
806.575	62.67
806.885	63.28
807.195	62.34
807.505	61.91
807.815	62.96
808.125	62.75
808.435	62.54
808.745	62.88
809.055	63.21
809.365	62.63
809.674	62.67
809.984	62.24
810.294	62.86
810.603	62.51
810.913	62.44
811.222	62.5
811.532	63
811.841	64.32
812.151	64.31
812.46	63.94
812.769	64.27
813.079	63.33
813.388	62.41
813.697	62.61
814.006	63.66
814.315	62.98
814.624	63.45
814.933	63.81
815.242	63.34
815.551	63.55
815.86	64.24
816.169	64.31
816.478	64.18
816.786	64.23
817.095	64.53
817.404	64.69
817.712	65.02
818.021	65.51
818.33	64.62
818.638	64.99
818.947	65.09
819.255	65.04
819.563	65.04
819.872	65.3
820.18	65.79
820.488	65.56
820.796	65.58
821.105	65.71
821.413	65.43
821.721	65.52
822.029	65.13
822.337	65.02
822.645	64.93
822.953	64.8
823.26	64.64
823.568	64.71
823.876	64.86
824.184	64.86
824.491	64.76
824.799	64.99
825.107	65.09
825.414	65.2
825.722	65.07
826.029	65.2
826.337	65.33
826.644	64.93
826.951	64.71
827.259	64.94
827.566	64.87
827.873	65.07
828.18	64.99
828.488	65.6
828.795	65.74
829.102	65.91
829.409	66.46
829.716	66.82
830.023	66.82
830.329	67.01
830.636	66.78
830.943	66.49
831.25	66.03
831.557	65.97
831.863	65.8
832.17	66.43
832.476	67.18
832.783	66.56
833.089	67.36
833.396	67.77
833.702	67.38
834.009	67.74
834.315	67.48
834.621	66.85
834.928	65.97
835.234	66.15
835.54	66.3
835.846	65.65
836.152	65.46
836.458	65.63
836.764	64.94
837.07	65.35
837.376	65.16
837.682	64.82
837.988	64.26
838.293	63.61
838.599	62.85
838.905	61.81
839.211	62.36
839.516	61.51
839.822	62.25
840.127	62.11
840.433	61.29
840.738	60.96
841.044	62.15
841.349	62.43
841.654	61.67
841.959	62.16
842.265	63.75
842.57	64.37
842.875	64.14
843.18	64.35
843.485	64.95
843.79	66.66
844.095	68.28
844.4	68.92
844.705	69.95
845.01	71.64
845.315	70.33
845.619	71.62
845.924	71.67
846.229	70.4
846.533	70.81
846.838	71.2
847.142	73.57
847.447	73.56
847.751	74.48
848.056	75.2
848.36	74.94
848.664	73.53
848.969	70.86
849.273	70.49
849.577	70.57
849.881	68.91
850.185	66.44
850.489	66.89
850.794	67.15
851.097	67.56
851.401	67.24
851.705	69.03
852.009	66.83
852.313	65.65
852.617	64.27
852.92	63.63
853.224	63.21
853.528	61.79
853.831	63.07
854.135	62.3
854.438	61.92
854.742	61.29
855.045	60.9
855.349	62.48
855.652	64.1
855.955	64.07
856.259	66.12
856.562	68.74
856.865	65.59
857.168	64.93
857.471	66
857.774	66.75
858.077	65.28
858.38	64.78
858.683	66.1
858.986	69.04
859.289	69.32
859.592	68.51
859.894	69.58
860.197	69.21
860.5	68.34
860.802	69.84
861.105	67.89
861.407	67.32
861.71	67.56
862.012	67.9
862.315	68.55
862.617	66.33
862.919	63.63
863.222	65.94
863.524	66.82
863.826	65.26
864.128	61.93
864.43	62.3
864.732	62.76
865.034	64.76
865.336	63.67
865.638	63.36
865.94	63.1
866.242	61.11
866.544	60.58
866.846	61.78
867.147	59.72
867.449	62.69
867.751	63.05
868.052	60.61
868.354	57.88
868.655	56.3
868.957	56.63
869.258	58.14
869.56	59.38
869.861	57.32
870.162	58.79
870.463	61.31
870.765	61.66
871.066	62.9
871.367	61.86
871.668	60.25
871.969	62.82
872.27	62.2
872.571	60.08
872.872	61.21
873.173	61.6
873.473	63.64
873.774	62.35
874.075	63.67
874.376	67.17
874.676	70.63
874.977	76.23
875.277	74.53
875.578	76.4
875.878	74.88
876.179	77.44
876.479	77.47
876.78	77.86
877.08	78.46
877.38	77.45
877.68	77.51
877.981	80.92
878.281	77.65
878.581	81.91
