Data from BA51068_Reflection_00002.txt Node
Date: Tue Nov 19 11:58:52 EST 2019
User: vgr7
Spectrometer: USB2G7710
Scans to average: 3
Trigger mode: 4
Integration Time (sec): 2.000000E-2
Electric dark correction enabled: true
Boxcar width: 10
XAxis mode: Wavelengths
Number of Pixels in Spectrum: 2048
>>>>>Begin Spectral Data<<<<<
177.721	-186.92
178.105	375.86
178.488	101.07
178.871	41.82
179.254	-3400
179.636	-239.29
180.019	152.35
180.402	105.56
180.785	44.71
181.168	-56.78
181.55	3292.31
181.933	167.57
182.316	98.66
182.698	49.32
183.081	41.01
183.463	106.2
183.846	1075.41
184.228	-108.99
184.611	-131.56
184.993	-161.59
185.376	-128.38
185.758	-124.39
186.14	-201.74
186.522	-116.83
186.904	-182.42
187.287	-103.76
187.669	-74.17
188.051	-94.99
188.433	-70.38
188.815	-159.22
189.197	-138.9
189.579	-57.33
189.961	-58.19
190.342	-78.82
190.724	-80.11
191.106	-125.66
191.488	-126.78
191.869	-117.37
192.251	-172.8
192.633	-296.81
193.014	-318.09
193.396	-4834.78
193.777	-390.71
194.159	-274.71
194.54	-307.85
194.922	-187.82
195.303	-194.94
195.684	-238.53
196.065	-193.61
196.447	-199.49
196.828	-128.88
197.209	-83.05
197.59	-218.79
197.971	589.69
198.352	186.32
198.733	119.36
199.114	130.04
199.495	402.55
199.876	255.98
200.257	114.08
200.638	118.76
201.018	257.81
201.399	277.42
201.78	288.52
202.16	-1342.86
202.541	-1518.64
202.922	-400
203.302	-1213.08
203.683	862.07
204.063	474.58
204.444	634.93
204.824	608.51
205.204	631.62
205.585	1236.36
205.965	2649.18
206.345	-872.08
206.725	-615.14
207.106	-1257.14
207.486	-307.22
207.866	-318.58
208.246	-139.75
208.626	-163.37
209.006	-205.36
209.386	-153.27
209.766	-180.43
210.145	-173.53
210.525	-192.2
210.905	-164.02
211.285	-141.15
211.664	-113.04
212.044	-94.54
212.424	-71.65
212.803	-72.54
213.183	-68.88
213.562	-58.49
213.942	-40.38
214.321	-40.49
214.701	-40.2
215.08	-43.81
215.459	-35.7
215.838	-34.34
216.218	-41.97
216.597	-34.58
216.976	-36.19
217.355	-41.12
217.734	-47.55
218.113	-41.81
218.492	-33.96
218.871	-16.81
219.25	-22.04
219.629	-32.45
220.008	-31.39
220.387	-46.12
220.766	-40.26
221.144	-36.64
221.523	-44.52
221.902	-47.25
222.28	-24.45
222.659	-14.8
223.037	-9.72
223.416	1.57
223.794	13.1
224.173	8.76
224.551	21.51
224.929	18.95
225.308	17.98
225.686	24.06
226.064	19.02
226.442	16.02
226.821	13.47
227.199	10.35
227.577	7.13
227.955	8.86
228.333	8.26
228.711	7.6
229.089	5.9
229.467	8.1
229.845	6.81
230.222	4.89
230.6	1.68
230.978	3.88
231.356	2.15
231.733	1.51
232.111	2.22
232.488	1.78
232.866	4.74
233.243	5.91
233.621	4.71
233.998	5.52
234.376	5.42
234.753	4.3
235.13	6.72
235.508	6.83
235.885	4.46
236.262	5.29
236.639	4.6
237.016	5.31
237.393	3.93
237.77	4.83
238.147	5.12
238.524	5.99
238.901	4.46
239.278	3.31
239.655	3.25
240.032	3.34
240.409	3.37
240.785	2.58
241.162	2.88
241.539	2.6
241.915	2.15
242.292	2.52
242.668	3.02
243.045	2.86
243.421	3.2
243.798	3.29
244.174	3.27
244.551	3.52
244.927	3.55
245.303	3.54
245.679	3.66
246.056	3.73
246.432	3.94
246.808	4.06
247.184	4.3
247.56	3.99
247.936	4.1
248.312	3.97
248.688	3.86
249.064	3.53
249.44	3.58
249.815	3.88
250.191	3.71
250.567	3.55
250.943	3.5
251.318	3.39
251.694	3.32
252.069	3.11
252.445	2.98
252.82	3.21
253.196	2.9
253.571	2.46
253.947	2.25
254.322	1.99
254.697	1.95
255.073	1.86
255.448	2.07
255.823	2.08
256.198	2.46
256.573	2.61
256.948	2.75
257.323	3.06
257.698	2.69
258.073	2.74
258.448	2.94
258.823	2.86
259.198	2.96
259.573	3.04
259.948	3.09
260.322	3.11
260.697	3.16
261.072	3.43
261.446	3.43
261.821	3.25
262.195	3.02
262.57	3.15
262.944	3.18
263.319	3.33
263.693	3.2
264.067	3.01
264.442	2.98
264.816	3.02
265.19	2.79
265.564	2.78
265.938	2.8
266.313	2.53
266.687	2.56
267.061	2.46
267.435	2.45
267.809	2.44
268.183	2.32
268.556	1.92
268.93	1.84
269.304	1.94
269.678	2.29
270.051	2.55
270.425	2.35
270.799	2.34
271.172	2.23
271.546	2.57
271.919	2.65
272.293	2.76
272.666	2.83
273.04	3.09
273.413	3.12
273.787	3.05
274.16	3.11
274.533	3.2
274.906	3.29
275.279	3.36
275.653	3.36
276.026	3.43
276.399	3.52
276.772	3.52
277.145	3.49
277.518	3.34
277.891	3.14
278.263	3.4
278.636	3.4
279.009	3.39
279.382	3.09
279.755	2.9
280.127	2.88
280.5	2.75
280.872	2.57
281.245	2.72
281.617	2.78
281.99	2.69
282.362	2.71
282.735	2.87
283.107	2.81
283.479	2.85
283.852	2.98
284.224	3.09
284.596	3.21
284.968	3.1
285.34	3.19
285.713	3.35
286.085	3.19
286.457	3.05
286.829	3.13
287.201	3.18
287.572	3.23
287.944	3.25
288.316	3.25
288.688	3.22
289.06	3.19
289.431	3.3
289.803	3.47
290.175	3.45
290.546	3.34
290.918	3.31
291.289	3.16
291.661	3
292.032	2.93
292.403	2.76
292.775	3.01
293.146	3.07
293.517	2.97
293.889	3.02
294.26	3.26
294.631	3.34
295.002	3.48
295.373	3.51
295.744	3.44
296.115	3.59
296.486	3.67
296.857	3.6
297.228	3.41
297.599	3.34
297.97	3.35
298.34	3.33
298.711	3.45
299.082	3.58
299.452	3.56
299.823	3.56
300.194	3.56
300.564	3.4
300.935	3.36
301.305	3.45
301.676	3.48
302.046	3.41
302.416	3.18
302.787	3.04
303.157	2.99
303.527	3.01
303.897	2.89
304.267	2.81
304.637	3.02
305.008	3.2
305.378	3.12
305.748	3.19
306.117	3.12
306.487	3.09
306.857	3.07
307.227	3.24
307.597	3.23
307.967	3.25
308.336	3.38
308.706	3.38
309.076	3.39
309.445	3.39
309.815	3.36
310.184	3.41
310.554	3.43
310.923	3.35
311.293	3.43
311.662	3.48
312.031	3.52
312.401	3.35
312.77	3.27
313.139	3.3
313.508	3.26
313.877	3.4
314.246	3.35
314.616	3.59
314.985	3.51
315.353	3.41
315.722	3.46
316.091	3.47
316.46	3.45
316.829	3.5
317.198	3.45
317.567	3.51
317.935	3.6
318.304	3.8
318.672	3.94
319.041	3.72
319.41	3.52
319.778	3.53
320.147	3.65
320.515	3.77
320.883	3.9
321.252	3.85
321.62	3.76
321.988	3.85
322.357	3.65
322.725	3.61
323.093	3.71
323.461	3.66
323.829	3.52
324.197	3.42
324.565	3.33
324.933	3.22
325.301	3.14
325.669	3.08
326.037	3.01
326.405	2.9
326.772	3.11
327.14	3.14
327.508	2.95
327.875	2.83
328.243	2.58
328.61	2.36
328.978	2.19
329.346	2.24
329.713	2.22
330.08	2.29
330.448	2.39
330.815	2.22
331.182	2.3
331.55	2.4
331.917	2.47
332.284	2.51
332.651	2.55
333.018	2.58
333.385	2.53
333.752	2.38
334.119	2.66
334.486	2.73
334.853	2.79
335.22	2.91
335.587	3.01
335.954	3.04
336.32	3.18
336.687	3.36
337.054	3.2
337.42	3.1
337.787	2.96
338.153	3.02
338.52	3.18
338.886	3.18
339.253	3.02
339.619	2.99
339.986	2.98
340.352	3.14
340.718	3.19
341.084	3.21
341.451	3.24
341.817	3.14
342.183	3.09
342.549	3.17
342.915	3.23
343.281	3.27
343.647	3.36
344.013	3.35
344.379	3.32
344.745	3.43
345.11	3.43
345.476	3.59
345.842	3.53
346.208	3.52
346.573	3.55
346.939	3.65
347.304	3.67
347.67	3.58
348.035	3.48
348.401	3.38
348.766	3.4
349.132	3.4
349.497	3.37
349.862	3.26
350.228	3.15
350.593	3.12
350.958	3.06
351.323	3.08
351.688	3.19
352.053	3.14
352.418	2.96
352.783	2.91
353.148	2.79
353.513	2.7
353.878	2.73
354.243	2.61
354.608	2.69
354.972	2.61
355.337	2.7
355.702	2.69
356.066	2.75
356.431	2.79
356.795	2.86
357.16	2.85
357.524	2.98
357.889	2.98
358.253	2.94
358.618	2.92
358.982	2.89
359.346	2.81
359.71	2.83
360.075	2.96
360.439	3.04
360.803	3.07
361.167	3.11
361.531	3
361.895	3.07
362.259	3
362.623	3.08
362.987	3.12
363.351	3.22
363.714	3.27
364.078	3.26
364.442	3.19
364.806	3.2
365.169	3.14
365.533	3.13
365.896	3.19
366.26	3.19
366.623	3.17
366.987	3.24
367.35	3.28
367.714	3.25
368.077	3.24
368.44	3.25
368.803	3.28
369.167	3.35
369.53	3.27
369.893	3.28
370.256	3.25
370.619	3.14
370.982	3.1
371.345	3.06
371.708	3.02
372.071	3.05
372.434	3.09
372.797	3.11
373.159	3.14
373.522	3.18
373.885	3.21
374.247	3.23
374.61	3.16
374.973	3.17
375.335	3.2
375.698	3.22
376.06	3.2
376.423	3.22
376.785	3.28
377.147	3.31
377.51	3.32
377.872	3.31
378.234	3.38
378.596	3.34
378.958	3.31
379.321	3.28
379.683	3.33
380.045	3.26
380.407	3.25
380.769	3.24
381.13	3.2
381.492	3.14
381.854	3.15
382.216	3.21
382.578	3.23
382.939	3.22
383.301	3.18
383.663	3.26
384.024	3.22
384.386	3.16
384.747	3.12
385.109	3.13
385.47	3.11
385.832	3.08
386.193	3.08
386.554	3.09
386.916	3.13
387.277	3.08
387.638	3.12
387.999	3.13
388.36	3.15
388.721	3.16
389.082	3.27
389.443	3.29
389.804	3.27
390.165	3.23
390.526	3.25
390.887	3.23
391.248	3.21
391.609	3.22
391.969	3.24
392.33	3.3
392.691	3.3
393.051	3.34
393.412	3.38
393.772	3.38
394.133	3.38
394.493	3.36
394.854	3.41
395.214	3.39
395.574	3.39
395.935	3.35
396.295	3.34
396.655	3.27
397.015	3.25
397.376	3.27
397.736	3.25
398.096	3.24
398.456	3.21
398.816	3.24
399.176	3.19
399.535	3.21
399.895	3.2
400.255	3.2
400.615	3.2
400.975	3.17
401.334	3.19
401.694	3.2
402.054	3.21
402.413	3.18
402.773	3.19
403.132	3.2
403.492	3.26
403.851	3.25
404.211	3.27
404.57	3.26
404.929	3.23
405.288	3.25
405.648	3.25
406.007	3.27
406.366	3.24
406.725	3.26
407.084	3.26
407.443	3.28
407.802	3.27
408.161	3.27
408.52	3.31
408.879	3.3
409.238	3.26
409.596	3.27
409.955	3.27
410.314	3.27
410.673	3.24
411.031	3.2
411.39	3.21
411.748	3.22
412.107	3.19
412.465	3.2
412.824	3.18
413.182	3.16
413.54	3.19
413.899	3.2
414.257	3.21
414.615	3.18
414.974	3.17
415.332	3.19
415.69	3.16
416.048	3.13
416.406	3.12
416.764	3.16
417.122	3.18
417.48	3.2
417.838	3.21
418.195	3.23
418.553	3.25
418.911	3.24
419.269	3.26
419.626	3.29
419.984	3.29
420.342	3.3
420.699	3.31
421.057	3.3
421.414	3.29
421.772	3.3
422.129	3.29
422.486	3.28
422.844	3.26
423.201	3.29
423.558	3.31
423.915	3.34
424.273	3.34
424.63	3.33
424.987	3.32
425.344	3.31
425.701	3.31
426.058	3.3
426.415	3.29
426.772	3.27
427.128	3.26
427.485	3.25
427.842	3.25
428.199	3.26
428.555	3.25
428.912	3.24
429.269	3.24
429.625	3.24
429.982	3.24
430.338	3.28
430.695	3.24
431.051	3.24
431.407	3.22
431.764	3.19
432.12	3.21
432.476	3.22
432.832	3.22
433.189	3.22
433.545	3.22
433.901	3.24
434.257	3.27
434.613	3.25
434.969	3.25
435.325	3.27
435.681	3.25
436.036	3.25
436.392	3.3
436.748	3.28
437.104	3.3
437.459	3.3
437.815	3.3
438.171	3.3
438.526	3.28
438.882	3.28
439.237	3.29
439.593	3.29
439.948	3.3
440.304	3.3
440.659	3.3
441.014	3.31
441.369	3.3
441.725	3.3
442.08	3.31
442.435	3.31
442.79	3.31
443.145	3.33
443.5	3.34
443.855	3.33
444.21	3.33
444.565	3.34
444.92	3.35
445.275	3.36
445.629	3.37
445.984	3.37
446.339	3.37
446.693	3.38
447.048	3.35
447.403	3.35
447.757	3.33
448.112	3.33
448.466	3.33
448.82	3.34
449.175	3.33
449.529	3.34
449.883	3.36
450.238	3.35
450.592	3.34
450.946	3.33
451.3	3.32
451.654	3.31
452.008	3.33
452.362	3.31
452.716	3.3
453.07	3.3
453.424	3.29
453.778	3.29
454.132	3.29
454.486	3.31
454.839	3.31
455.193	3.34
455.547	3.37
455.9	3.37
456.254	3.37
456.607	3.37
456.961	3.35
457.314	3.36
457.668	3.35
458.021	3.34
458.375	3.35
458.728	3.36
459.081	3.36
459.434	3.35
459.787	3.38
460.141	3.37
460.494	3.39
460.847	3.4
461.2	3.39
461.553	3.38
461.906	3.38
462.259	3.38
462.611	3.36
462.964	3.36
463.317	3.36
463.67	3.36
464.022	3.36
464.375	3.35
464.728	3.36
465.08	3.38
465.433	3.41
465.785	3.4
466.138	3.39
466.49	3.39
466.843	3.41
467.195	3.38
467.547	3.39
467.899	3.38
468.252	3.39
468.604	3.43
468.956	3.43
469.308	3.44
469.66	3.42
470.012	3.43
470.364	3.41
470.716	3.42
471.068	3.42
471.42	3.42
471.772	3.42
472.123	3.41
472.475	3.4
472.827	3.39
473.178	3.39
473.53	3.4
473.882	3.41
474.233	3.38
474.585	3.39
474.936	3.39
475.288	3.36
475.639	3.35
475.99	3.31
476.342	3.32
476.693	3.32
477.044	3.34
477.395	3.35
477.746	3.37
478.097	3.36
478.448	3.36
478.8	3.36
479.15	3.35
479.501	3.35
479.852	3.35
480.203	3.35
480.554	3.36
480.905	3.37
481.255	3.37
481.606	3.39
481.957	3.38
482.307	3.39
482.658	3.4
483.009	3.39
483.359	3.4
483.709	3.41
484.06	3.41
484.41	3.41
484.761	3.41
485.111	3.41
485.461	3.41
485.811	3.41
486.162	3.41
486.512	3.41
486.862	3.42
487.212	3.43
487.562	3.43
487.912	3.42
488.262	3.42
488.612	3.42
488.961	3.43
489.311	3.43
489.661	3.42
490.011	3.41
490.36	3.43
490.71	3.42
491.06	3.41
491.409	3.4
491.759	3.4
492.108	3.4
492.458	3.39
492.807	3.39
493.157	3.39
493.506	3.4
493.855	3.4
494.204	3.4
494.554	3.4
494.903	3.38
495.252	3.41
495.601	3.41
495.95	3.41
496.299	3.39
496.648	3.39
496.997	3.41
497.346	3.41
497.695	3.4
498.043	3.44
498.392	3.45
498.741	3.45
499.09	3.44
499.438	3.43
499.787	3.44
500.135	3.42
500.484	3.45
500.832	3.43
501.181	3.44
501.529	3.46
501.878	3.45
502.226	3.47
502.574	3.46
502.923	3.45
503.271	3.45
503.619	3.45
503.967	3.44
504.315	3.43
504.663	3.42
505.011	3.41
505.359	3.38
505.707	3.39
506.055	3.4
506.403	3.4
506.751	3.41
507.098	3.44
507.446	3.45
507.794	3.46
508.141	3.46
508.489	3.46
508.837	3.42
509.184	3.43
509.531	3.44
509.879	3.44
510.226	3.44
510.574	3.44
510.921	3.43
511.268	3.42
511.616	3.44
511.963	3.45
512.31	3.46
512.657	3.45
513.004	3.42
513.351	3.44
513.698	3.45
514.045	3.44
514.392	3.44
514.739	3.43
515.086	3.45
515.432	3.47
515.779	3.46
516.126	3.52
516.473	3.51
516.819	3.52
517.166	3.52
517.512	3.53
517.859	3.54
518.205	3.55
518.552	3.58
518.898	3.58
519.245	3.56
519.591	3.55
519.937	3.57
520.283	3.6
520.629	3.57
520.976	3.57
521.322	3.58
521.668	3.58
522.014	3.6
522.36	3.58
522.706	3.6
523.052	3.62
523.398	3.58
523.743	3.57
524.089	3.58
524.435	3.58
524.781	3.6
525.126	3.6
525.472	3.62
525.817	3.63
526.163	3.64
526.509	3.66
526.854	3.67
527.199	3.67
527.545	3.68
527.89	3.69
528.235	3.7
528.581	3.7
528.926	3.7
529.271	3.69
529.616	3.69
529.961	3.68
530.306	3.69
530.651	3.69
530.996	3.7
531.341	3.72
531.686	3.73
532.031	3.72
532.376	3.72
532.721	3.73
533.065	3.71
533.41	3.71
533.755	3.73
534.099	3.71
534.444	3.72
534.788	3.7
535.133	3.72
535.477	3.73
535.822	3.73
536.166	3.73
536.51	3.73
536.855	3.72
537.199	3.72
537.543	3.71
537.887	3.72
538.231	3.72
538.576	3.7
538.92	3.71
539.264	3.7
539.608	3.68
539.951	3.67
540.295	3.69
540.639	3.7
540.983	3.68
541.327	3.71
541.671	3.7
542.014	3.73
542.358	3.73
542.701	3.73
543.045	3.73
543.389	3.75
543.732	3.75
544.075	3.77
544.419	3.78
544.762	3.79
545.105	3.8
545.449	3.81
545.792	3.82
546.135	3.81
546.478	3.82
546.821	3.87
547.165	3.88
547.508	3.88
547.851	3.86
548.194	3.87
548.536	3.87
548.879	3.88
549.222	3.88
549.565	3.87
549.908	3.85
550.25	3.88
550.593	3.86
550.936	3.85
551.278	3.84
551.621	3.84
551.963	3.88
552.306	3.87
552.648	3.86
552.991	3.87
553.333	3.87
553.675	3.88
554.017	3.85
554.36	3.85
554.702	3.84
555.044	3.87
555.386	3.88
555.728	3.88
556.07	3.88
556.412	3.88
556.754	3.85
557.096	3.88
557.438	3.86
557.78	3.87
558.121	3.91
558.463	3.91
558.805	3.88
559.147	3.85
559.488	3.83
559.83	3.82
560.171	3.76
560.513	3.73
560.854	3.72
561.196	3.71
561.537	3.72
561.878	3.72
562.22	3.69
562.561	3.73
562.902	3.75
563.243	3.76
563.584	3.76
563.925	3.78
564.266	3.73
564.607	3.72
564.948	3.71
565.289	3.67
565.63	3.66
565.971	3.71
566.312	3.7
566.653	3.72
566.993	3.72
567.334	3.74
567.675	3.77
568.015	3.79
568.356	3.8
568.696	3.81
569.037	3.79
569.377	3.8
569.718	3.76
570.058	3.74
570.398	3.73
570.739	3.7
571.079	3.68
571.419	3.72
571.759	3.71
572.099	3.74
572.439	3.75
572.779	3.75
573.119	3.72
573.459	3.71
573.799	3.71
574.139	3.72
574.479	3.74
574.819	3.75
575.158	3.75
575.498	3.73
575.838	3.74
576.177	3.77
576.517	3.74
576.856	3.75
577.196	3.74
577.535	3.74
577.875	3.74
578.214	3.79
578.553	3.74
578.893	3.75
579.232	3.76
579.571	3.78
579.91	3.81
580.25	3.8
580.589	3.84
580.928	3.78
581.267	3.78
581.606	3.82
581.945	3.78
582.283	3.78
582.622	3.78
582.961	3.72
583.3	3.75
583.639	3.78
583.977	3.76
584.316	3.74
584.654	3.74
584.993	3.72
585.332	3.7
585.67	3.69
586.008	3.72
586.347	3.69
586.685	3.64
587.024	3.64
587.362	3.61
587.7	3.65
588.038	3.73
588.376	3.74
588.715	3.72
589.053	3.76
589.391	3.75
589.729	3.76
590.067	3.78
590.404	3.79
590.742	3.81
591.08	3.85
591.418	3.89
591.756	3.92
592.093	3.95
592.431	3.92
592.769	4
593.106	4.01
593.444	4
593.781	4.05
594.119	4.05
594.456	4.09
594.793	4.03
595.131	4
595.468	4.01
595.805	4.04
596.143	4.03
596.48	4.08
596.817	4.07
597.154	4.07
597.491	4.01
597.828	4.02
598.165	4
598.502	3.95
598.839	3.95
599.176	3.96
599.512	4
599.849	3.97
600.186	3.96
600.523	3.98
600.859	4.01
601.196	4
601.532	3.96
601.869	3.98
602.205	3.97
602.542	3.92
602.878	3.87
603.215	3.86
603.551	3.82
603.887	3.87
604.223	3.83
604.56	3.87
604.896	3.86
605.232	3.84
605.568	3.88
605.904	3.84
606.24	3.85
606.576	3.89
606.912	3.89
607.248	3.9
607.583	3.92
607.919	3.87
608.255	3.86
608.591	3.87
608.926	3.84
609.262	3.87
609.597	3.87
609.933	3.85
610.268	3.88
610.604	3.9
610.939	3.91
611.275	3.94
611.61	3.92
611.945	3.9
612.281	3.94
612.616	3.98
612.951	4.07
613.286	4.04
613.621	4.01
613.956	4.02
614.291	4
614.626	3.9
614.961	3.94
615.296	3.96
615.631	4
615.966	4.02
616.3	4.05
616.635	4.07
616.97	4.12
617.304	4.09
617.639	4.05
617.973	3.94
618.308	3.99
618.642	3.97
618.977	3.95
619.311	3.9
619.646	3.86
619.98	3.81
620.314	3.8
620.648	3.83
620.983	3.82
621.317	3.8
621.651	3.88
621.985	3.87
622.319	3.86
622.653	3.89
622.987	3.91
623.321	3.94
623.655	3.95
623.988	3.98
624.322	4.02
624.656	4.06
624.99	4.09
625.323	4.08
625.657	4.12
625.99	4.12
626.324	4.14
626.657	4.13
626.991	4.15
627.324	4.1
627.658	4.04
627.991	4.08
628.324	4.13
628.657	4.12
628.991	4.12
629.324	4.15
629.657	4.1
629.99	4.11
630.323	4.07
630.656	4.05
630.989	4.03
631.322	4.01
631.655	3.97
631.987	4.02
632.32	4.02
632.653	4.02
632.986	4.07
633.318	4.14
633.651	4.15
633.984	4.19
634.316	4.2
634.649	4.23
634.981	4.18
635.313	4.16
635.646	4.18
635.978	4.21
636.31	4.13
636.643	4.2
636.975	4.15
637.307	4.12
637.639	4.12
637.971	4.13
638.303	4.07
638.635	4.1
638.967	4.02
639.299	4.01
639.631	4.01
639.963	3.98
640.295	3.96
640.626	3.96
640.958	3.86
641.29	3.94
641.621	4.01
641.953	3.99
642.285	3.98
642.616	3.94
642.948	3.94
643.279	3.95
643.61	3.98
643.942	4.04
644.273	4.09
644.604	4.07
644.936	4.06
645.267	4.1
645.598	4.07
645.929	4.06
646.26	4.08
646.591	4.07
646.922	4.1
647.253	4
647.584	3.99
647.915	4.04
648.245	4
648.576	3.95
648.907	3.99
649.238	4.08
649.568	4.09
649.899	4.04
650.229	4.11
650.56	4.09
650.89	4.12
651.221	4.15
651.551	4.2
651.882	4.2
652.212	4.23
652.542	4.3
652.872	4.38
653.203	4.42
653.533	4.45
653.863	4.41
654.193	4.45
654.523	4.45
654.853	4.49
655.183	4.41
655.513	4.46
655.843	4.42
656.172	4.31
656.502	4.28
656.832	4.22
657.162	4.13
657.491	4.16
657.821	4.16
658.15	4.14
658.48	4.19
658.809	4.12
659.139	4.09
659.468	4.03
659.798	3.98
660.127	3.92
660.456	3.89
660.785	3.86
661.115	3.88
661.444	3.92
661.773	3.89
662.102	3.93
662.431	3.85
662.76	3.88
663.089	3.95
663.418	4.07
663.747	4.12
664.076	4.23
664.404	4.26
664.733	4.18
665.062	4.18
665.39	4.16
665.719	4.31
666.048	4.27
666.376	4.34
666.705	4.41
667.033	4.41
667.362	4.4
667.69	4.42
668.018	4.44
668.347	4.36
668.675	4.44
669.003	4.44
669.331	4.48
669.659	4.42
669.987	4.46
670.315	4.4
670.643	4.37
670.971	4.35
671.299	4.29
671.627	4.35
671.955	4.34
672.283	4.23
672.61	4.2
672.938	4.28
673.266	4.2
673.593	4.22
673.921	4.27
674.249	4.33
674.576	4.31
674.904	4.26
675.231	4.44
675.558	4.35
675.886	4.38
676.213	4.47
676.54	4.56
676.867	4.46
677.195	4.5
677.522	4.51
677.849	4.48
678.176	4.41
678.503	4.33
678.83	4.33
679.157	4.42
679.484	4.39
679.81	4.37
680.137	4.49
680.464	4.46
680.791	4.43
681.117	4.39
681.444	4.47
681.771	4.52
682.097	4.53
682.424	4.53
682.75	4.52
683.077	4.48
683.403	4.44
683.729	4.43
684.056	4.39
684.382	4.45
684.708	4.44
685.034	4.53
685.36	4.51
685.686	4.57
686.012	4.69
686.339	4.68
686.664	4.78
686.99	4.73
687.316	4.69
687.642	4.69
687.968	4.71
688.294	4.69
688.619	4.63
688.945	4.51
689.271	4.52
689.596	4.53
689.922	4.42
690.247	4.51
690.573	4.58
690.898	4.62
691.224	4.61
691.549	4.69
691.874	4.85
692.2	4.96
692.525	4.9
692.85	4.72
693.175	4.77
693.5	4.67
693.825	4.66
694.15	4.7
694.475	4.72
694.8	4.73
695.125	4.65
695.45	4.61
695.775	4.54
696.099	4.57
696.424	4.65
696.749	4.75
697.073	4.75
697.398	4.7
697.723	4.68
698.047	4.7
698.372	4.62
698.696	4.46
699.02	4.48
699.345	4.47
699.669	4.51
699.993	4.51
700.318	4.55
700.642	4.51
700.966	4.41
701.29	4.36
701.614	4.39
701.938	4.39
702.262	4.49
702.586	4.5
702.91	4.47
703.234	4.38
703.557	4.31
703.881	4.2
704.205	4.26
704.529	4.23
704.852	4.22
705.176	4.25
705.499	4.21
705.823	4.15
706.146	4.1
706.47	4.09
706.793	4.03
707.117	4.08
707.44	4.08
707.763	4.15
708.086	4.28
708.409	4.31
708.733	4.23
709.056	4.19
709.379	4.29
709.702	4.42
710.025	4.4
710.348	4.39
710.671	4.41
710.993	4.35
711.316	4.48
711.639	4.4
711.962	4.54
712.284	4.59
712.607	4.58
712.93	4.67
713.252	4.62
713.575	4.71
713.897	4.61
714.22	4.63
714.542	4.79
714.864	4.63
715.187	4.62
715.509	4.73
715.831	4.75
716.153	4.73
716.475	4.67
716.798	4.6
717.12	4.55
717.442	4.47
717.764	4.35
718.085	4.31
718.407	4.39
718.729	4.12
719.051	4.1
719.373	4.1
719.695	4.02
720.016	3.94
720.338	3.93
720.659	3.9
720.981	3.85
721.302	3.67
721.624	3.83
721.945	3.69
722.267	3.63
722.588	3.67
722.909	3.4
723.231	3.3
723.552	3.39
723.873	3.57
724.194	3.55
724.515	3.83
724.836	3.61
725.157	3.52
725.478	3.69
725.799	3.69
726.12	3.82
726.441	4.05
726.762	4.21
727.083	4.26
727.403	4.15
727.724	4.34
728.045	4.49
728.365	4.52
728.686	4.62
729.006	4.67
729.327	4.72
729.647	4.93
729.967	4.85
730.288	5.14
730.608	5.19
730.928	5.25
731.249	5.27
731.569	5.34
731.889	5.4
732.209	5.34
732.529	5.38
732.849	5.27
733.169	5
733.489	4.96
733.809	4.86
734.129	4.85
734.448	4.73
734.768	4.69
735.088	4.68
735.408	4.67
735.727	4.73
736.047	4.56
736.366	4.45
736.686	4.52
737.005	4.42
737.325	4.15
737.644	4.18
737.963	4.12
738.283	4.13
738.602	4.26
738.921	4.45
739.24	4.58
739.56	4.66
739.879	4.8
740.198	4.57
740.517	4.64
740.836	4.82
741.155	4.86
741.473	4.98
741.792	4.9
742.111	4.92
742.43	5.07
742.748	5.29
743.067	5.41
743.386	5.18
743.704	5.04
744.023	5.38
744.341	5.37
744.66	5.32
744.978	5.23
745.297	5.31
745.615	5.16
745.933	4.87
746.252	4.91
746.57	4.83
746.888	5.31
747.206	5.23
747.524	5.29
747.842	5.25
748.16	4.99
748.478	5.11
748.796	5.14
749.114	4.98
749.432	5
749.749	4.91
750.067	5.3
750.385	5.29
750.703	5.13
751.02	5.31
751.338	5.19
751.655	5.35
751.973	4.94
752.29	4.83
752.608	4.94
752.925	4.98
753.242	5.19
753.56	4.95
753.877	5.06
754.194	5.03
754.511	4.79
754.828	4.68
755.145	4.54
755.462	4.33
755.779	4.43
756.096	4.5
756.413	4.7
756.73	4.92
757.047	4.92
757.364	5.09
757.68	4.88
757.997	5.09
758.314	4.96
758.63	5.27
758.947	5.51
759.264	5.64
759.58	5.49
759.896	5.45
760.213	5.41
760.529	5.26
760.846	5.28
761.162	5.63
761.478	5.65
761.794	5.91
762.11	6.02
762.426	5.92
762.743	5.8
763.059	5.71
763.375	5.47
763.69	5.31
764.006	5.33
764.322	5.45
764.638	5.5
764.954	5.64
765.27	5.56
765.585	5.47
765.901	5.43
766.216	5.46
766.532	5.33
766.848	5.35
767.163	5.41
767.478	5.16
767.794	4.97
768.109	5.27
768.424	5.02
768.74	4.99
769.055	5.13
769.37	5.16
769.685	5
770	4.91
770.315	5.21
770.63	5.08
770.945	5.08
771.26	4.96
771.575	5
771.89	4.72
772.205	4.88
772.52	4.46
772.834	4.19
773.149	3.92
773.464	4.23
773.778	4.16
774.093	4.56
774.407	4.84
774.722	4.39
775.036	4.85
775.351	5.36
775.665	4.95
775.979	4.78
776.293	4.95
776.608	5.11
776.922	4.85
777.236	5.02
777.55	4.91
777.864	4.69
778.178	4.43
778.492	4.71
778.806	4.57
779.12	4.6
779.434	4.98
779.747	5.41
780.061	5.14
780.375	5.29
780.689	5.37
781.002	5.65
781.316	5.83
781.629	5.49
781.943	4.8
782.256	4.36
782.57	4.51
782.883	4.77
783.196	4.71
783.51	4.98
783.823	4.66
784.136	4.64
784.449	5.11
784.762	5.39
785.075	5.67
785.388	5.91
785.701	6.26
786.014	6.24
786.327	6.51
786.64	6.61
786.953	6.37
787.266	6.52
787.578	5.99
787.891	5.99
788.204	5.66
788.516	5.96
788.829	6.48
789.141	6.52
789.454	6.54
789.766	7.39
790.079	7.19
790.391	7.34
790.703	7.48
791.016	7.14
791.328	6.85
791.64	6.71
791.952	6.59
792.264	6.63
792.576	6.52
792.888	6.42
793.2	6.48
793.512	6.58
793.824	6.85
794.136	7.05
794.448	6.9
794.76	7.31
795.071	7.06
795.383	6.77
795.695	6.69
796.006	6.03
796.318	5.07
796.629	4.88
796.941	4.68
797.252	4.31
797.564	4.32
797.875	4.3
798.186	4.31
798.497	3.89
798.809	4.17
799.12	4.2
799.431	3.71
799.742	3.52
800.053	3.87
800.364	3.5
800.675	3.61
800.986	4.16
801.297	3.81
801.608	3.16
801.918	3.14
802.229	3.41
802.54	3.8
802.851	3.98
803.161	4.37
803.472	4.28
803.782	4.62
804.093	4.77
804.403	4.6
804.714	4.6
805.024	4.76
805.334	4.14
805.645	4.2
805.955	4.64
806.265	5.41
806.575	5.38
806.885	5.14
807.195	5.01
807.505	4.74
807.815	5.29
808.125	5.58
808.435	6.09
808.745	5.77
809.055	6.29
809.365	6.28
809.674	5.77
809.984	5.8
810.294	6.25
810.603	5.78
810.913	6.48
811.222	6.25
811.532	6.04
811.841	6.41
812.151	6.34
812.46	6.63
812.769	5.46
813.079	5.13
813.388	5.1
813.697	4.8
814.006	5.2
814.315	4.75
814.624	5.77
814.933	5.59
815.242	4.78
815.551	4.34
815.86	4.31
816.169	4.64
816.478	5.23
816.786	4.68
817.095	4.81
817.404	4.87
817.712	5.53
818.021	5.75
818.33	5.16
818.638	5.11
818.947	5.06
819.255	5.4
819.563	5.52
819.872	5.27
820.18	5.57
820.488	5.6
820.796	5.43
821.105	5.71
821.413	6.08
821.721	6.35
822.029	6.29
822.337	6.3
822.645	6.35
822.953	6.33
823.26	6.42
823.568	6.35
823.876	6.39
824.184	6.34
824.491	6.45
824.799	6.71
825.107	6.78
825.414	6.85
825.722	6.81
826.029	6.96
826.337	7.21
826.644	7.33
826.951	7.06
827.259	7.26
827.566	7.22
827.873	6.99
828.18	7.19
828.488	7.3
828.795	7.26
829.102	7.32
829.409	7.22
829.716	7.27
830.023	7.67
830.329	7.73
830.636	7.38
830.943	7.04
831.25	6.92
831.557	6.89
831.863	6.63
832.17	6.63
832.476	6.74
832.783	6.57
833.089	6.43
833.396	6.78
833.702	6.99
834.009	6.61
834.315	6.67
834.621	6.44
834.928	6.55
835.234	6.61
835.54	6.51
835.846	6.72
836.152	6.44
836.458	6.16
836.764	6.3
837.07	6.62
837.376	6.8
837.682	6.79
837.988	6.52
838.293	6.86
838.599	7.29
838.905	6.18
839.211	6.11
839.516	6.28
839.822	7.19
840.127	6.71
840.433	6.51
840.738	6.47
841.044	5.72
841.349	5.41
841.654	5.58
841.959	4.32
842.265	5.17
842.57	5.55
842.875	5.5
843.18	4.27
843.485	3.37
843.79	3.31
844.095	3.73
844.4	3.87
844.705	2.56
845.01	2.29
845.315	2.55
845.619	2.82
845.924	1.62
846.229	-0.29
846.533	-0.4
846.838	-0.68
847.142	-1.51
847.447	-0.94
847.751	-1.84
848.056	-2.24
848.36	1.08
848.664	-0.77
848.969	-1.37
849.273	-1.29
849.577	-0.05
849.881	1.04
850.185	1.13
850.489	1.44
850.794	3.37
851.097	2.81
851.401	1.76
851.705	1.47
852.009	0.9
852.313	1.24
852.617	2.41
852.92	3.73
853.224	3.8
853.528	4.09
853.831	6.85
854.135	8.26
854.438	8.71
854.742	9.71
855.045	9.78
855.349	9.93
855.652	9.77
855.955	8.52
856.259	10.32
856.562	11.71
856.865	9.69
857.168	7.96
857.471	9.26
857.774	10.72
858.077	12.01
858.38	12.59
858.683	10.91
858.986	11.81
859.289	11.64
859.592	12.43
859.894	12.24
860.197	10.71
860.5	11.81
860.802	11.19
861.105	8.9
861.407	8.41
861.71	9.48
862.012	9.52
862.315	8.75
862.617	5.77
862.919	3.47
863.222	3.86
863.524	4.47
863.826	4.05
864.128	3.72
864.43	5.5
864.732	4.61
865.034	6.25
865.336	2.24
865.638	1.84
865.94	1.05
866.242	1.78
866.544	2.94
866.846	2.46
867.147	4.84
867.449	4.6
867.751	5.05
868.052	4.49
868.354	4.48
868.655	5.86
868.957	8.42
869.258	10.51
869.56	10.82
869.861	8.95
870.162	9.12
870.463	8.9
870.765	5.86
871.066	6.31
871.367	3.51
871.668	4.76
871.969	2.99
872.27	3.87
872.571	4.78
872.872	4.16
873.173	1.31
873.473	-2.13
873.774	-2.33
874.075	-1.79
874.376	-3.57
874.676	-1.36
874.977	-1.99
875.277	-3.55
875.578	-3.36
875.878	-4.26
876.179	-2.9
876.479	-1.97
876.78	-3.18
877.08	-2.46
877.38	-2.28
877.68	0.8
877.981	3.16
878.281	5.01
878.581	4.14
