Data from BA51245_Reflection_00012.txt Node
Date: Tue Nov 19 11:52:00 EST 2019
User: vgr7
Spectrometer: USB2G7710
Scans to average: 3
Trigger mode: 4
Integration Time (sec): 2.000000E-2
Electric dark correction enabled: true
Boxcar width: 10
XAxis mode: Wavelengths
Number of Pixels in Spectrum: 2048
>>>>>Begin Spectral Data<<<<<
177.721	423.67
178.105	-177.78
178.488	-547.34
178.871	118.52
179.254	40.35
179.636	55.84
180.019	-217.46
180.402	2.38
180.785	181.48
181.168	74.75
181.55	121.51
181.933	44.86
182.316	-5.34
182.698	1.86
183.081	-29.38
183.463	-84.99
183.846	-123.1
184.228	-120.88
184.611	-150.69
184.993	-1033.33
185.376	81.09
185.758	71.52
186.14	80.25
186.522	61.08
186.904	21.69
187.287	15.68
187.669	17.85
188.051	-11.11
188.433	-28.92
188.815	-10.2
189.197	-22.92
189.579	-32.36
189.961	-42.01
190.342	-55.69
190.724	-64.76
191.106	-77.23
191.488	-77.96
191.869	-82.78
192.251	-96.9
192.633	-121.37
193.014	-156.82
193.396	-214.09
193.777	-169.99
194.159	-107.39
194.54	-89.31
194.922	-89.99
195.303	-131.02
195.684	-143.45
196.065	-111.09
196.447	-96.16
196.828	-108.25
197.209	-99.78
197.59	-94.88
197.971	-80.14
198.352	-50.02
198.733	-51.52
199.114	-56.18
199.495	-74.25
199.876	-66.9
200.257	-48.05
200.638	-29.02
201.018	-39.37
201.399	-38.36
201.78	-47.6
202.16	-76.34
202.541	-98.69
202.922	-106.55
203.302	-99.83
203.683	-122.54
204.063	-122.22
204.444	-116.86
204.824	-128.12
205.204	-122.38
205.585	-124.63
205.965	-121.13
206.345	-125.56
206.725	-104.2
207.106	-86.38
207.486	-59.62
207.866	-56.13
208.246	-51.38
208.626	-59.9
209.006	-45.05
209.386	-40.62
209.766	-42.11
210.145	-34.38
210.525	-31.97
210.905	-18.95
211.285	-4.35
211.664	-0.12
212.044	-0.68
212.424	-1.03
212.803	1.01
213.183	4.3
213.562	4.88
213.942	5.33
214.321	3.18
214.701	-10.67
215.08	-14.03
215.459	-16.5
215.838	-19.19
216.218	-38.64
216.597	-30.62
216.976	-31.78
217.355	-21.21
217.734	-12.86
218.113	-1.62
218.492	12.92
218.871	13.27
219.25	-1.67
219.629	-26.53
220.008	-27.31
220.387	-10.04
220.766	-2.9
221.144	-5.96
221.523	-10.69
221.902	-19.31
222.28	-14.55
222.659	9.06
223.037	12.34
223.416	15.15
223.794	16.03
224.173	24.28
224.551	17.21
224.929	8.27
225.308	9.13
225.686	4.08
226.064	-0.81
226.442	-1.91
226.821	-4.13
227.199	-9.84
227.577	-5.08
227.955	-3.47
228.333	-3.1
228.711	-0.15
229.089	1.33
229.467	0.81
229.845	3.83
230.222	8.09
230.6	2.59
230.978	2.95
231.356	0.69
231.733	1.17
232.111	-2.52
232.488	0.07
232.866	3.76
233.243	2.54
233.621	4.23
233.998	5.28
234.376	7.33
234.753	7.19
235.13	7.68
235.508	7.44
235.885	6.13
236.262	6.1
236.639	3.71
237.016	2.14
237.393	2.68
237.77	3.5
238.147	1.85
238.524	2.85
238.901	2.7
239.278	2.89
239.655	2.95
240.032	4.1
240.409	4.2
240.785	3.48
241.162	3.67
241.539	3.5
241.915	2.95
242.292	2.72
242.668	3.01
243.045	3.52
243.421	3.6
243.798	4.21
244.174	4.54
244.551	4.94
244.927	5.05
245.303	4.83
245.679	4.65
246.056	4.88
246.432	4.68
246.808	4.84
247.184	4.92
247.56	4.7
247.936	4.52
248.312	4.51
248.688	4.7
249.064	4.67
249.44	4.55
249.815	4.74
250.191	4.86
250.567	4.53
250.943	4.56
251.318	4.62
251.694	4.1
252.069	3.72
252.445	3.4
252.82	3.7
253.196	4.37
253.571	4.73
253.947	4.63
254.322	4.41
254.697	4.42
255.073	4.54
255.448	4.71
255.823	4.38
256.198	4.5
256.573	4.4
256.948	4.45
257.323	4.4
257.698	4.28
258.073	4.06
258.448	4.17
258.823	3.88
259.198	3.95
259.573	3.89
259.948	4.03
260.322	4.15
260.697	4.14
261.072	3.83
261.446	3.84
261.821	4
262.195	4.14
262.57	4.21
262.944	4.15
263.319	4.23
263.693	4.29
264.067	4.21
264.442	4.28
264.816	4.17
265.19	4.42
265.564	4.52
265.938	4.59
266.313	4.71
266.687	5.03
267.061	5.1
267.435	5.26
267.809	5.19
268.183	4.94
268.556	4.67
268.93	4.82
269.304	4.75
269.678	4.61
270.051	4.45
270.425	4.16
270.799	4.07
271.172	4.09
271.546	4.24
271.919	4
272.293	4.1
272.666	4.07
273.04	3.94
273.413	3.97
273.787	4.19
274.16	4.08
274.533	3.93
274.906	3.72
275.279	3.7
275.653	3.61
276.026	3.68
276.399	3.85
276.772	3.8
277.145	3.76
277.518	3.69
277.891	3.84
278.263	3.93
278.636	4.26
279.009	4.07
279.382	4.04
279.755	4.1
280.127	4.02
280.5	3.92
280.872	3.87
281.245	3.85
281.617	3.64
281.99	3.64
282.362	3.75
282.735	3.96
283.107	4.18
283.479	4.21
283.852	4.21
284.224	4.19
284.596	4.17
284.968	4.07
285.34	4.02
285.713	4.09
286.085	4.1
286.457	3.89
286.829	3.95
287.201	4.06
287.572	4.27
287.944	4.2
288.316	4.48
288.688	4.49
289.06	4.52
289.431	4.45
289.803	4.53
290.175	4.5
290.546	4.46
290.918	4.46
291.289	4.35
291.661	4.54
292.032	4.6
292.403	4.66
292.775	4.61
293.146	4.74
293.517	4.78
293.889	4.92
294.26	5
294.631	5.06
295.002	5.04
295.373	4.89
295.744	5.03
296.115	5
296.486	5.13
296.857	5.23
297.228	5.29
297.599	5.26
297.97	5.36
298.34	5.38
298.711	5.42
299.082	5.48
299.452	5.3
299.823	5.24
300.194	5.31
300.564	5.44
300.935	5.55
301.305	5.48
301.676	5.18
302.046	5.22
302.416	5.16
302.787	5.05
303.157	5.04
303.527	5.12
303.897	5.08
304.267	4.93
304.637	4.92
305.008	5.07
305.378	5.12
305.748	5.13
306.117	4.93
306.487	4.93
306.857	5.15
307.227	5.34
307.597	5.43
307.967	5.54
308.336	5.52
308.706	5.43
309.076	5.55
309.445	5.82
309.815	5.85
310.184	5.88
310.554	6.02
310.923	6.16
311.293	6.13
311.662	6.17
312.031	6.33
312.401	6.22
312.77	6.23
313.139	6.38
313.508	6.39
313.877	6.79
314.246	6.77
314.616	7.04
314.985	7.12
315.353	7.3
315.722	7.35
316.091	7.42
316.46	7.62
316.829	7.81
317.198	7.93
317.567	8.03
317.935	8.25
318.304	8.47
318.672	8.63
319.041	8.67
319.41	8.88
319.778	8.92
320.147	9.13
320.515	9.16
320.883	9.11
321.252	9.13
321.62	9.04
321.988	9.22
322.357	8.95
322.725	8.91
323.093	8.91
323.461	9.02
323.829	9.01
324.197	8.86
324.565	8.99
324.933	9
325.301	8.76
325.669	8.77
326.037	8.79
326.405	8.85
326.772	8.92
327.14	8.76
327.508	8.85
327.875	8.85
328.243	8.91
328.61	9.02
328.978	9.05
329.346	9.24
329.713	9.37
330.08	9.49
330.448	9.66
330.815	9.76
331.182	9.47
331.55	9.68
331.917	9.91
332.284	9.77
332.651	9.74
333.018	9.95
333.385	10.03
333.752	9.97
334.119	10.03
334.486	9.97
334.853	10.09
335.22	10.07
335.587	10.13
335.954	10.14
336.32	10.13
336.687	10.35
337.054	10.24
337.42	10.17
337.787	10.08
338.153	10.18
338.52	10.16
338.886	10.29
339.253	10.23
339.619	10.19
339.986	10.11
340.352	10.09
340.718	10.18
341.084	10.17
341.451	10.27
341.817	10.23
342.183	10.33
342.549	10.37
342.915	10.53
343.281	10.57
343.647	10.65
344.013	10.78
344.379	10.75
344.745	10.87
345.11	10.8
345.476	10.89
345.842	10.76
346.208	10.83
346.573	10.9
346.939	10.89
347.304	10.92
347.67	10.99
348.035	11.07
348.401	11.09
348.766	11.09
349.132	11.1
349.497	11.23
349.862	11.23
350.228	11.2
350.593	11.06
350.958	11.15
351.323	11.09
351.688	11.1
352.053	10.97
352.418	10.87
352.783	10.89
353.148	10.86
353.513	10.97
353.878	10.75
354.243	10.7
354.608	10.81
354.972	10.83
355.337	10.84
355.702	10.81
356.066	10.79
356.431	10.81
356.795	10.85
357.16	10.73
357.524	10.74
357.889	10.72
358.253	10.85
358.618	10.76
358.982	10.81
359.346	10.76
359.71	10.83
360.075	10.86
360.439	10.89
360.803	10.91
361.167	10.75
361.531	10.79
361.895	10.83
362.259	10.8
362.623	10.68
362.987	10.66
363.351	10.63
363.714	10.62
364.078	10.63
364.442	10.52
364.806	10.56
365.169	10.47
365.533	10.42
365.896	10.35
366.26	10.28
366.623	10.21
366.987	10.13
367.35	10.09
367.714	9.99
368.077	9.92
368.44	9.85
368.803	9.85
369.167	9.87
369.53	9.81
369.893	9.71
370.256	9.74
370.619	9.63
370.982	9.61
371.345	9.54
371.708	9.44
372.071	9.36
372.434	9.24
372.797	9.2
373.159	9.2
373.522	9.07
373.885	9.05
374.247	9.01
374.61	8.94
374.973	8.83
375.335	8.79
375.698	8.76
376.06	8.65
376.423	8.66
376.785	8.58
377.147	8.49
377.51	8.44
377.872	8.42
378.234	8.44
378.596	8.38
378.958	8.32
379.321	8.24
379.683	8.21
380.045	8.18
380.407	8.14
380.769	8.01
381.13	7.95
381.492	7.92
381.854	7.87
382.216	7.9
382.578	7.88
382.939	7.8
383.301	7.73
383.663	7.72
384.024	7.62
384.386	7.61
384.747	7.57
385.109	7.53
385.47	7.42
385.832	7.32
386.193	7.28
386.554	7.23
386.916	7.2
387.277	7.17
387.638	7.13
387.999	7.1
388.36	7.05
388.721	7.05
389.082	6.98
389.443	6.96
389.804	6.93
390.165	6.91
390.526	6.84
390.887	6.81
391.248	6.77
391.609	6.77
391.969	6.66
392.33	6.63
392.691	6.57
393.051	6.52
393.412	6.48
393.772	6.42
394.133	6.38
394.493	6.37
394.854	6.33
395.214	6.26
395.574	6.2
395.935	6.17
396.295	6.14
396.655	6.08
397.015	6.04
397.376	5.94
397.736	5.87
398.096	5.91
398.456	5.83
398.816	5.81
399.176	5.72
399.535	5.72
399.895	5.66
400.255	5.63
400.615	5.59
400.975	5.56
401.334	5.53
401.694	5.51
402.054	5.48
402.413	5.45
402.773	5.44
403.132	5.41
403.492	5.43
403.851	5.39
404.211	5.39
404.57	5.36
404.929	5.31
405.288	5.3
405.648	5.23
406.007	5.24
406.366	5.18
406.725	5.16
407.084	5.18
407.443	5.16
407.802	5.15
408.161	5.13
408.52	5.15
408.879	5.14
409.238	5.13
409.596	5.1
409.955	5.08
410.314	5.05
410.673	5.01
411.031	4.96
411.39	4.96
411.748	4.96
412.107	4.93
412.465	4.93
412.824	4.87
413.182	4.86
413.54	4.82
413.899	4.84
414.257	4.84
414.615	4.79
414.974	4.79
415.332	4.79
415.69	4.8
416.048	4.74
416.406	4.72
416.764	4.69
417.122	4.65
417.48	4.61
417.838	4.61
418.195	4.61
418.553	4.6
418.911	4.57
419.269	4.55
419.626	4.52
419.984	4.5
420.342	4.5
420.699	4.5
421.057	4.48
421.414	4.45
421.772	4.44
422.129	4.42
422.486	4.41
422.844	4.39
423.201	4.38
423.558	4.36
423.915	4.37
424.273	4.37
424.63	4.38
424.987	4.36
425.344	4.34
425.701	4.31
426.058	4.31
426.415	4.31
426.772	4.27
427.128	4.24
427.485	4.25
427.842	4.25
428.199	4.24
428.555	4.22
428.912	4.2
429.269	4.17
429.625	4.17
429.982	4.17
430.338	4.14
430.695	4.12
431.051	4.14
431.407	4.11
431.764	4.1
432.12	4.11
432.476	4.13
432.832	4.14
433.189	4.13
433.545	4.12
433.901	4.1
434.257	4.1
434.613	4.13
434.969	4.12
435.325	4.12
435.681	4.1
436.036	4.13
436.392	4.16
436.748	4.15
437.104	4.15
437.459	4.15
437.815	4.14
438.171	4.15
438.526	4.15
438.882	4.15
439.237	4.13
439.593	4.12
439.948	4.09
440.304	4.08
440.659	4.1
441.014	4.1
441.369	4.11
441.725	4.11
442.08	4.1
442.435	4.1
442.79	4.09
443.145	4.05
443.5	4.03
443.855	4.01
444.21	4.02
444.565	4.01
444.92	4.01
445.275	4.01
445.629	4
445.984	3.98
446.339	3.95
446.693	3.96
447.048	3.93
447.403	3.94
447.757	3.92
448.112	3.92
448.466	3.91
448.82	3.88
449.175	3.86
449.529	3.85
449.883	3.84
450.238	3.84
450.592	3.86
450.946	3.86
451.3	3.87
451.654	3.84
452.008	3.83
452.362	3.84
452.716	3.82
453.07	3.82
453.424	3.81
453.778	3.82
454.132	3.8
454.486	3.82
454.839	3.83
455.193	3.83
455.547	3.83
455.9	3.84
456.254	3.85
456.607	3.86
456.961	3.86
457.314	3.88
457.668	3.87
458.021	3.88
458.375	3.86
458.728	3.86
459.081	3.87
459.434	3.86
459.787	3.86
460.141	3.86
460.494	3.89
460.847	3.89
461.2	3.9
461.553	3.92
461.906	3.93
462.259	3.94
462.611	3.93
462.964	3.95
463.317	3.95
463.67	3.97
464.022	3.98
464.375	3.99
464.728	3.98
465.08	3.99
465.433	3.99
465.785	4.03
466.138	4.04
466.49	4.06
466.843	4.08
467.195	4.08
467.547	4.09
467.899	4.1
468.252	4.11
468.604	4.1
468.956	4.11
469.308	4.09
469.66	4.11
470.012	4.13
470.364	4.14
470.716	4.16
471.068	4.16
471.42	4.15
471.772	4.19
472.123	4.21
472.475	4.21
472.827	4.21
473.178	4.2
473.53	4.2
473.882	4.21
474.233	4.2
474.585	4.21
474.936	4.21
475.288	4.19
475.639	4.21
475.99	4.2
476.342	4.18
476.693	4.2
477.044	4.17
477.395	4.14
477.746	4.11
478.097	4.13
478.448	4.11
478.8	4.13
479.15	4.11
479.501	4.11
479.852	4.11
480.203	4.11
480.554	4.12
480.905	4.11
481.255	4.1
481.606	4.11
481.957	4.11
482.307	4.1
482.658	4.11
483.009	4.11
483.359	4.11
483.709	4.12
484.06	4.12
484.41	4.12
484.761	4.14
485.111	4.15
485.461	4.13
485.811	4.13
486.162	4.13
486.512	4.14
486.862	4.15
487.212	4.15
487.562	4.14
487.912	4.15
488.262	4.15
488.612	4.16
488.961	4.16
489.311	4.16
489.661	4.17
490.011	4.17
490.36	4.17
490.71	4.17
491.06	4.17
491.409	4.19
491.759	4.19
492.108	4.21
492.458	4.23
492.807	4.25
493.157	4.26
493.506	4.27
493.855	4.3
494.204	4.32
494.554	4.33
494.903	4.36
495.252	4.37
495.601	4.41
495.95	4.44
496.299	4.46
496.648	4.52
496.997	4.56
497.346	4.61
497.695	4.66
498.043	4.72
498.392	4.76
498.741	4.82
499.09	4.87
499.438	4.9
499.787	4.91
500.135	4.95
500.484	5
500.832	5.04
501.181	5.06
501.529	5.09
501.878	5.15
502.226	5.2
502.574	5.27
502.923	5.31
503.271	5.36
503.619	5.42
503.967	5.44
504.315	5.48
504.663	5.51
505.011	5.56
505.359	5.58
505.707	5.63
506.055	5.66
506.403	5.71
506.751	5.78
507.098	5.86
507.446	5.89
507.794	5.96
508.141	6.01
508.489	6.11
508.837	6.17
509.184	6.25
509.531	6.31
509.879	6.38
510.226	6.46
510.574	6.52
510.921	6.56
511.268	6.65
511.616	6.73
511.963	6.81
512.31	6.89
512.657	6.98
513.004	7.07
513.351	7.16
513.698	7.24
514.045	7.29
514.392	7.37
514.739	7.48
515.086	7.58
515.432	7.69
515.779	7.73
516.126	7.81
516.473	7.87
516.819	7.95
517.166	8.01
517.512	8.08
517.859	8.16
518.205	8.24
518.552	8.31
518.898	8.38
519.245	8.44
519.591	8.52
519.937	8.59
520.283	8.66
520.629	8.74
520.976	8.82
521.322	8.95
521.668	9.06
522.014	9.16
522.36	9.26
522.706	9.37
523.052	9.51
523.398	9.67
523.743	9.85
524.089	10
524.435	10.16
524.781	10.28
525.126	10.39
525.472	10.51
525.817	10.62
526.163	10.72
526.509	10.84
526.854	10.94
527.199	11.03
527.545	11.11
527.89	11.2
528.235	11.3
528.581	11.38
528.926	11.48
529.271	11.57
529.616	11.68
529.961	11.79
530.306	11.88
530.651	11.98
530.996	12.08
531.341	12.21
531.686	12.34
532.031	12.47
532.376	12.62
532.721	12.74
533.065	12.88
533.41	13.01
533.755	13.14
534.099	13.29
534.444	13.43
534.788	13.59
535.133	13.73
535.477	13.88
535.822	14.03
536.166	14.21
536.51	14.41
536.855	14.58
537.199	14.76
537.543	14.96
537.887	15.18
538.231	15.4
538.576	15.6
538.92	15.79
539.264	15.98
539.608	16.16
539.951	16.36
540.295	16.54
540.639	16.74
540.983	16.91
541.327	17.09
541.671	17.26
542.014	17.43
542.358	17.61
542.701	17.77
543.045	17.94
543.389	18.09
543.732	18.24
544.075	18.41
544.419	18.61
544.762	18.8
545.105	18.95
545.449	19.13
545.792	19.32
546.135	19.52
546.478	19.74
546.821	19.97
547.165	20.18
547.508	20.41
547.851	20.67
548.194	20.91
548.536	21.12
548.879	21.36
549.222	21.6
549.565	21.85
549.908	22.08
550.25	22.35
550.593	22.61
550.936	22.9
551.278	23.13
551.621	23.37
551.963	23.61
552.306	23.92
552.648	24.14
552.991	24.38
553.333	24.62
553.675	24.9
554.017	25.1
554.36	25.33
554.702	25.58
555.044	25.79
555.386	25.99
555.728	26.22
556.07	26.48
556.412	26.72
556.754	26.96
557.096	27.25
557.438	27.52
557.78	27.77
558.121	28
558.463	28.29
558.805	28.55
559.147	28.82
559.488	29.05
559.83	29.34
560.171	29.64
560.513	29.88
560.854	30.17
561.196	30.48
561.537	30.77
561.878	31.06
562.22	31.29
562.561	31.61
562.902	31.88
563.243	32.09
563.584	32.39
563.925	32.64
564.266	32.85
564.607	33.1
564.948	33.38
565.289	33.61
565.63	33.88
565.971	34.1
566.312	34.33
566.653	34.54
566.993	34.81
567.334	35
567.675	35.21
568.015	35.37
568.356	35.59
568.696	35.86
569.037	36.09
569.377	36.36
569.718	36.54
570.058	36.76
570.398	37.01
570.739	37.24
571.079	37.43
571.419	37.67
571.759	37.91
572.099	38.07
572.439	38.31
572.779	38.49
573.119	38.63
573.459	38.88
573.799	39.1
574.139	39.24
574.479	39.47
574.819	39.68
575.158	39.95
575.498	40.13
575.838	40.33
576.177	40.42
576.517	40.61
576.856	40.89
577.196	41.08
577.535	41.33
577.875	41.54
578.214	41.83
578.553	42.04
578.893	42.11
579.232	42.33
579.571	42.52
579.91	42.71
580.25	43
580.589	43.11
580.928	43.31
581.267	43.51
581.606	43.69
581.945	43.91
582.283	44
582.622	44.1
582.961	44.25
583.3	44.56
583.639	44.71
583.977	44.86
584.316	45.04
584.654	45.22
584.993	45.26
585.332	45.32
585.67	45.49
586.008	45.75
586.347	45.9
586.685	45.99
587.024	46.07
587.362	46.22
587.7	46.34
588.038	46.5
588.376	46.71
588.715	46.81
589.053	46.94
589.391	47.06
589.729	47.32
590.067	47.41
590.404	47.51
590.742	47.6
591.08	47.68
591.418	47.76
591.756	47.74
592.093	47.89
592.431	48.06
592.769	48.14
593.106	48.21
593.444	48.28
593.781	48.35
594.119	48.57
594.456	48.6
594.793	48.79
595.131	48.92
595.468	48.96
595.805	49.05
596.143	49.1
596.48	49.2
596.817	49.21
597.154	49.25
597.491	49.37
597.828	49.45
598.165	49.54
598.502	49.61
598.839	49.79
599.176	49.93
599.512	50
599.849	50.14
600.186	50.24
600.523	50.4
600.859	50.49
601.196	50.47
601.532	50.66
601.869	50.69
602.205	50.7
602.542	50.75
602.878	50.86
603.215	50.92
603.551	51
603.887	51.04
604.223	51.08
604.56	51.08
604.896	51.14
605.232	51.16
605.568	51.21
605.904	51.2
606.24	51.26
606.576	51.26
606.912	51.25
607.248	51.33
607.583	51.35
607.919	51.46
608.255	51.57
608.591	51.57
608.926	51.57
609.262	51.63
609.597	51.71
609.933	51.76
610.268	51.87
610.604	51.96
610.939	52.06
611.275	52.19
611.61	52.27
611.945	52.34
612.281	52.4
612.616	52.48
612.951	52.55
613.286	52.6
613.621	52.76
613.956	52.93
614.291	52.99
614.626	53.04
614.961	53.14
615.296	53.25
615.631	53.27
615.966	53.39
616.3	53.5
616.635	53.45
616.97	53.44
617.304	53.38
617.639	53.35
617.973	53.53
618.308	53.61
618.642	53.56
618.977	53.7
619.311	53.82
619.646	53.9
619.98	53.96
620.314	53.97
620.648	54.05
620.983	54.02
621.317	54.04
621.651	54.06
621.985	54.03
622.319	53.99
622.653	54.05
622.987	54.11
623.321	54.08
623.655	54.26
623.988	54.33
624.322	54.29
624.656	54.45
624.99	54.33
625.323	54.3
625.657	54.31
625.99	54.23
626.324	54.19
626.657	54.23
626.991	54.32
627.324	54.33
627.658	54.27
627.991	54.37
628.324	54.43
628.657	54.52
628.991	54.53
629.324	54.52
629.657	54.54
629.99	54.61
630.323	54.59
630.656	54.61
630.989	54.61
631.322	54.73
631.655	54.55
631.987	54.68
632.32	54.7
632.653	54.83
632.986	54.89
633.318	55
633.651	55.04
633.984	55.05
634.316	55.15
634.649	55.16
634.981	55.05
635.313	55.05
635.646	55.01
635.978	55.11
636.31	55.17
636.643	55.24
636.975	55.23
637.307	55.36
637.639	55.38
637.971	55.39
638.303	55.43
638.635	55.49
638.967	55.42
639.299	55.45
639.631	55.48
639.963	55.55
640.295	55.55
640.626	55.49
640.958	55.44
641.29	55.46
641.621	55.5
641.953	55.44
642.285	55.48
642.616	55.52
642.948	55.53
643.279	55.61
643.61	55.69
643.942	55.63
644.273	55.68
644.604	55.67
644.936	55.74
645.267	55.89
645.598	56.02
645.929	56.02
646.26	56.17
646.591	56.23
646.922	56.17
647.253	56.02
647.584	56.02
647.915	56.07
648.245	56.08
648.576	56.08
648.907	56.21
649.238	56.21
649.568	56.23
649.899	56.24
650.229	56.26
650.56	56.27
650.89	56.24
651.221	56.13
651.551	56.24
651.882	56.2
652.212	56.07
652.542	56.04
652.872	56.21
653.203	56.19
653.533	56.24
653.863	56.24
654.193	56.24
654.523	56.31
654.853	56.36
655.183	56.33
655.513	56.47
655.843	56.48
656.172	56.52
656.502	56.57
656.832	56.56
657.162	56.55
657.491	56.53
657.821	56.61
658.15	56.73
658.48	56.61
658.809	56.63
659.139	56.64
659.468	56.6
659.798	56.55
660.127	56.55
660.456	56.51
660.785	56.54
661.115	56.71
661.444	56.93
661.773	56.88
662.102	56.87
662.431	56.73
662.76	56.9
663.089	56.87
663.418	56.79
663.747	56.8
664.076	56.83
664.404	56.88
664.733	56.91
665.062	56.88
665.39	57.03
665.719	57.07
666.048	57.06
666.376	57.04
666.705	56.95
667.033	56.81
667.362	56.81
667.69	56.83
668.018	56.91
668.347	56.67
668.675	56.69
669.003	56.78
669.331	56.93
669.659	56.82
669.987	56.9
670.315	56.88
670.643	56.93
670.971	56.84
671.299	56.61
671.627	56.73
671.955	56.66
672.283	56.6
672.61	56.5
672.938	56.53
673.266	56.68
673.593	56.71
673.921	56.93
674.249	56.9
674.576	56.87
674.904	56.72
675.231	56.83
675.558	56.84
675.886	56.83
676.213	56.85
676.54	56.84
676.867	56.71
677.195	56.83
677.522	56.8
677.849	57.01
678.176	57.21
678.503	57.08
678.83	57.26
679.157	57.24
679.484	57.31
679.81	57.3
680.137	57.28
680.464	57.31
680.791	57.22
681.117	57.2
681.444	57.09
681.771	56.95
682.097	56.97
682.424	57.04
682.75	56.99
683.077	56.91
683.403	56.93
683.729	57.02
684.056	56.91
684.382	56.87
684.708	56.67
685.034	56.61
685.36	56.61
685.686	56.51
686.012	56.53
686.339	56.48
686.664	56.67
686.99	56.57
687.316	56.49
687.642	56.49
687.968	56.74
688.294	56.83
688.619	57.08
688.945	57.12
689.271	57.11
689.596	57.17
689.922	57.06
690.247	57.02
690.573	57.01
690.898	57.07
691.224	56.96
691.549	57.21
691.874	57.17
692.2	57.14
692.525	57.03
692.85	57.08
693.175	57.18
693.5	56.93
693.825	57.03
694.15	57.08
694.475	56.98
694.8	56.76
695.125	56.89
695.45	56.73
695.775	56.67
696.099	56.66
696.424	56.72
696.749	56.87
697.073	56.76
697.398	56.71
697.723	56.72
698.047	56.72
698.372	56.53
698.696	56.6
699.02	56.66
699.345	56.8
699.669	56.69
699.993	56.52
700.318	56.68
700.642	56.58
700.966	56.58
701.29	56.68
701.614	56.71
701.938	56.79
702.262	56.9
702.586	56.92
702.91	56.8
703.234	56.68
703.557	56.6
703.881	56.72
704.205	56.9
704.529	57.06
704.852	57.2
705.176	57.21
705.499	57.38
705.823	57.55
706.146	57.44
706.47	57.69
706.793	57.92
707.117	57.89
707.44	58
707.763	58.04
708.086	58.09
708.409	58.04
708.733	57.78
709.056	57.97
709.379	58.07
709.702	58.25
710.025	58.36
710.348	58.32
710.671	58.42
710.993	58.24
711.316	58.07
711.639	58.17
711.962	58.45
712.284	58.27
712.607	58.15
712.93	58.29
713.252	58.18
713.575	58.14
713.897	58.19
714.22	58.11
714.542	58.04
714.864	58.06
715.187	58.16
715.509	58.06
715.831	57.93
716.153	57.9
716.475	57.81
716.798	57.73
717.12	57.94
717.442	57.81
717.764	58.08
718.085	58.27
718.407	58.25
718.729	58.05
719.051	58.11
719.373	58.26
719.695	58.06
720.016	57.94
720.338	57.78
720.659	57.79
720.981	57.99
721.302	58.03
721.624	58.09
721.945	57.9
722.267	58.15
722.588	58
722.909	57.68
723.231	57.63
723.552	57.61
723.873	57.52
724.194	57.47
724.515	57.1
724.836	57.07
725.157	56.9
725.478	56.95
725.799	56.88
726.12	56.64
726.441	56.57
726.762	56.85
727.083	57.19
727.403	56.9
727.724	56.98
728.045	56.99
728.365	56.8
728.686	56.67
729.006	56.66
729.327	56.74
729.647	57.03
729.967	57.14
730.288	57.25
730.608	57.18
730.928	57.19
731.249	57.27
731.569	57.17
731.889	57.4
732.209	57.26
732.529	57.14
732.849	57.09
733.169	57.29
733.489	57.02
733.809	56.9
734.129	56.98
734.448	56.79
734.768	56.94
735.088	57.16
735.408	57.43
735.727	57.36
736.047	57.25
736.366	57.2
736.686	57.23
737.005	57.18
737.325	57.26
737.644	57.08
737.963	57.17
738.283	57.12
738.602	56.95
738.921	57.38
739.24	57.56
739.56	57.74
739.879	57.55
740.198	57.57
740.517	57.32
740.836	57.44
741.155	57.37
741.473	57.2
741.792	57.16
742.111	57.38
742.43	57.63
742.748	57.72
743.067	57.83
743.386	57.64
743.704	57.69
744.023	57.57
744.341	57.94
744.66	58.11
744.978	58.16
745.297	58.04
745.615	57.69
745.933	57.69
746.252	57.81
746.57	58
746.888	58.37
747.206	58.69
747.524	58.74
747.842	59.03
748.16	59.25
748.478	59.33
748.796	59.07
749.114	58.85
749.432	59.03
749.749	58.38
750.067	58.55
750.385	58.37
750.703	58.43
751.02	58.18
751.338	58.07
751.655	58.02
751.973	58.44
752.29	58.17
752.608	58.51
752.925	58.07
753.242	58.08
753.56	57.63
753.877	57.62
754.194	57.36
754.511	57.44
754.828	57.47
755.145	57.1
755.462	57.18
755.779	57.16
756.096	57.24
756.413	57.22
756.73	57.31
757.047	57.22
757.364	56.94
757.68	57.13
757.997	57.23
758.314	57.14
758.63	56.86
758.947	57.11
759.264	56.55
759.58	56.89
759.896	56.71
760.213	56.95
760.529	57.03
760.846	57.19
761.162	57.05
761.478	56.85
761.794	56.85
762.11	56.87
762.426	56.85
762.743	56.51
763.059	57.06
763.375	56.84
763.69	56.92
764.006	57.11
764.322	57.11
764.638	57.02
764.954	57.14
765.27	57.32
765.585	57.55
765.901	57.64
766.216	57.61
766.532	57.69
766.848	57.85
767.163	57.55
767.478	57.48
767.794	57.41
768.109	57.43
768.424	57.17
768.74	57.09
769.055	57.36
769.37	57.52
769.685	57.43
770	57.71
770.315	57.88
770.63	58.14
770.945	58.53
771.26	58.38
771.575	58.24
771.89	57.68
772.205	57.24
772.52	57.33
772.834	57.45
773.149	57.73
773.464	57.21
773.778	57.57
774.093	57.86
774.407	58
774.722	57.99
775.036	58.5
775.351	58.63
775.665	58.27
775.979	58.27
776.293	58.21
776.608	57.88
776.922	57.92
777.236	57.84
777.55	57.26
777.864	57.43
778.178	57.43
778.492	57.89
778.806	58.09
779.12	57.93
779.434	57.41
779.747	57.56
780.061	57.67
780.375	57.88
780.689	57.77
781.002	57.61
781.316	57.59
781.629	57.49
781.943	57.58
782.256	57.58
782.57	58.03
782.883	57.76
783.196	57.96
783.51	57.62
783.823	57.36
784.136	57.39
784.449	57.23
784.762	57.68
785.075	57.39
785.388	57.29
785.701	57.22
786.014	58.08
786.327	57.37
786.64	57.21
786.953	56.92
787.266	57.07
787.578	56.89
787.891	56.65
788.204	56.66
788.516	56.62
788.829	56.67
789.141	56.59
789.454	57.28
789.766	57.46
790.079	57.46
790.391	57.05
790.703	56.58
791.016	55.83
791.328	55.71
791.64	56.09
791.952	55.9
792.264	55.98
792.576	55.51
792.888	56.29
793.2	56.81
793.512	57.12
793.824	57.14
794.136	57.41
794.448	58.22
794.76	58.16
795.071	58.16
795.383	58.11
795.695	57.65
796.006	57.09
796.318	56.44
796.629	56.57
796.941	56.6
797.252	57.24
797.564	57.95
797.875	57.73
798.186	57.26
798.497	56.98
798.809	57.36
799.12	57.2
799.431	56.37
799.742	56.08
800.053	55.61
800.364	55.63
800.675	55.94
800.986	55.42
801.297	55.43
801.608	55.34
801.918	56.2
802.229	56.83
802.54	56.52
802.851	57.24
803.161	56.89
803.472	57.29
803.782	57.81
804.093	58.06
804.403	58.08
804.714	58.1
805.024	58.37
805.334	57.81
805.645	58.87
805.955	59.64
806.265	59.48
806.575	59.74
806.885	59.87
807.195	59.36
807.505	59.08
807.815	59.8
808.125	60.34
808.435	59.33
808.745	58.74
809.055	59.86
809.365	60.15
809.674	60.4
809.984	60.45
810.294	60.74
810.603	60.8
810.913	60.59
811.222	60.76
811.532	60.88
811.841	61.4
812.151	59.98
812.46	59.68
812.769	59.58
813.079	59.25
813.388	57.59
813.697	57.36
814.006	57.46
814.315	56.56
814.624	55.74
814.933	56.19
815.242	56.36
815.551	55.03
815.86	53.92
816.169	54.51
816.478	54.06
816.786	53.36
817.095	53.51
817.404	53.9
817.712	54.01
818.021	54.67
818.33	54.57
818.638	54.53
818.947	54.34
819.255	54.49
819.563	54.92
819.872	56.03
820.18	56.44
820.488	56.56
820.796	57.06
821.105	57.35
821.413	57.52
821.721	57.49
822.029	57.43
822.337	57.83
822.645	57.61
822.953	57.65
823.26	57.87
823.568	58
823.876	58.03
824.184	57.86
824.491	57.86
824.799	57.99
825.107	58.02
825.414	58.05
825.722	58.16
826.029	58.24
826.337	58.1
826.644	58.1
826.951	58.06
827.259	57.94
827.566	57.5
827.873	57.33
828.18	57.22
828.488	57.47
828.795	57.37
829.102	57.62
829.409	57.61
829.716	57.06
830.023	57.08
830.329	57.37
830.636	57.71
830.943	57.33
831.25	57.23
831.557	57.67
831.863	58.14
832.17	58.34
832.476	58.69
832.783	58.7
833.089	58.67
833.396	58.81
833.702	58.57
834.009	59.1
834.315	59.06
834.621	58.66
834.928	58.41
835.234	58.19
835.54	57.74
835.846	57.56
836.152	57.8
836.458	57.86
836.764	57.21
837.07	57.78
837.376	57.48
837.682	56.85
837.988	56.43
838.293	55.87
838.599	55.88
838.905	56.05
839.211	56.13
839.516	56.13
839.822	56.27
840.127	56.32
840.433	57.07
840.738	56.41
841.044	57.26
841.349	57.25
841.654	55.86
841.959	56.36
842.265	57.48
842.57	58.97
842.875	57.52
843.18	57.75
843.485	56.83
843.79	57.89
844.095	57.96
844.4	58.31
844.705	58.27
845.01	58.14
845.315	56.5
845.619	56.93
845.924	55.75
846.229	56.49
846.533	55.73
846.838	55.71
847.142	57.98
847.447	58.47
847.751	60.45
848.056	61.99
848.36	63.75
848.664	62.47
848.969	60.24
849.273	63.04
849.577	63.7
849.881	63.44
850.185	64.24
850.489	67.52
850.794	69.58
851.097	69.66
851.401	68.43
851.705	66.5
852.009	65.97
852.313	65.36
852.617	63.42
852.92	64.66
853.224	63.3
853.528	61.88
853.831	61.69
854.135	59.47
854.438	60.37
854.742	58.81
855.045	58.73
855.349	57.76
855.652	53.39
855.955	52.65
856.259	49.77
856.562	49.29
856.865	48.02
857.168	43.88
857.471	44.8
857.774	45.09
858.077	46.55
858.38	46.38
858.683	49.06
858.986	51.21
859.289	47.68
859.592	47.57
859.894	46.94
860.197	47.17
860.5	47.63
860.802	47.15
861.105	45.44
861.407	46.28
861.71	47.08
862.012	49.09
862.315	51.69
862.617	55.79
862.919	55.59
863.222	54.9
863.524	56.02
863.826	53.93
864.128	52.11
864.43	52.32
864.732	51.43
865.034	50.86
865.336	50.91
865.638	52.94
865.94	52.67
866.242	53.69
866.544	53.67
866.846	55.14
867.147	54.51
867.449	55.94
867.751	56.49
868.052	55.94
868.354	55.2
868.655	54.83
868.957	54.19
869.258	54.42
869.56	57.17
869.861	58.72
870.162	59.55
870.463	60.98
870.765	61.55
871.066	63.23
871.367	62.2
871.668	60.14
871.969	63.17
872.27	63.01
872.571	62.72
872.872	62.94
873.173	61.48
873.473	62.03
873.774	60.98
874.075	62.55
874.376	64.94
874.676	64.58
874.977	64.63
875.277	64.06
875.578	63.84
875.878	60.48
876.179	59.86
876.479	61.38
876.78	62.63
877.08	61.63
877.38	60.77
877.68	62.34
877.981	63.7
878.281	60.67
878.581	62.27
