Data from BA51068_Reflection_00009.txt Node
Date: Tue Nov 19 11:59:06 EST 2019
User: vgr7
Spectrometer: USB2G7710
Scans to average: 3
Trigger mode: 4
Integration Time (sec): 2.000000E-2
Electric dark correction enabled: true
Boxcar width: 10
XAxis mode: Wavelengths
Number of Pixels in Spectrum: 2048
>>>>>Begin Spectral Data<<<<<
177.721	-30.21
178.105	100
178.488	-31.69
178.871	89.09
179.254	-2600
179.636	126.79
180.019	-2.89
180.402	244.44
180.785	-150.59
181.168	-198.73
181.55	2061.54
181.933	163.71
182.316	87.94
182.698	38.73
183.081	-7.35
183.463	-7.94
183.846	222.95
184.228	-90.44
184.611	-17.9
184.993	-29.14
185.376	-23.6
185.758	-15.63
186.14	-59.13
186.522	-21.07
186.904	-101.1
187.287	-60.64
187.669	-21.19
188.051	-11.53
188.433	-31.43
188.815	-7.38
189.197	-14.56
189.579	-22.62
189.961	-5.29
190.342	10.4
190.724	-22.01
191.106	-38.44
191.488	-36.61
191.869	-48.68
192.251	-41.42
192.633	-124.82
193.014	-171.33
193.396	-2443.48
193.777	-62.54
194.159	-28.77
194.54	-89.42
194.922	-62.08
195.303	-10.13
195.684	-6.23
196.065	-6.88
196.447	57.58
196.828	61.69
197.209	133.17
197.59	432.21
197.971	-534.02
198.352	-158.96
198.733	-149.43
199.114	-233.92
199.495	-425.48
199.876	-184.26
200.257	-100.12
200.638	-181.4
201.018	-423.26
201.399	-653.46
201.78	-2088.52
202.16	3485.71
202.541	2311.86
202.922	620.92
203.302	1375.7
203.683	-944.83
204.063	-494.92
204.444	-600.87
204.824	-506.38
205.204	-332.81
205.585	-730.58
205.965	-1203.28
206.345	290.36
206.725	177.69
207.106	339.5
207.486	121.65
207.866	159.5
208.246	69.97
208.626	30.64
209.006	-0.41
209.386	2
209.766	-3.4
210.145	3.54
210.525	-39.02
210.905	-34.38
211.285	-41.98
211.664	-28.13
212.044	-24.01
212.424	-19.92
212.803	-17.96
213.183	-10.96
213.562	-20.32
213.942	-21.76
214.321	-20.86
214.701	-20.34
215.08	-22.39
215.459	-20.41
215.838	-16.47
216.218	-28.91
216.597	-29.47
216.976	-35.07
217.355	-39.08
217.734	-35.09
218.113	-28.33
218.492	-15.03
218.871	-14.45
219.25	-16.04
219.629	-23.08
220.008	-32.11
220.387	-38.94
220.766	-25.86
221.144	-35.11
221.523	-36.48
221.902	-13.04
222.28	-13.69
222.659	17.74
223.037	21.57
223.416	9
223.794	0.71
224.173	10.13
224.551	18.51
224.929	31.07
225.308	29.89
225.686	17.86
226.064	11.76
226.442	9.91
226.821	9.05
227.199	0.94
227.577	1.73
227.955	3.83
228.333	3.53
228.711	1.97
229.089	4.35
229.467	7.89
229.845	0.97
230.222	4.42
230.6	1.22
230.978	0.33
231.356	0.98
231.733	0.86
232.111	0.4
232.488	-0.67
232.866	-0.86
233.243	-2.33
233.621	-0.4
233.998	-0.47
234.376	0.05
234.753	1.95
235.13	4.97
235.508	2.94
235.885	2.58
236.262	2.4
236.639	1.54
237.016	2.3
237.393	1.76
237.77	3.37
238.147	2.91
238.524	3.15
238.901	3.34
239.278	1.91
239.655	1.98
240.032	2.23
240.409	2.27
240.785	2.25
241.162	2.7
241.539	2.5
241.915	2.52
242.292	2.65
242.668	2.6
243.045	2.56
243.421	3.55
243.798	3.57
244.174	3.71
244.551	3.4
244.927	3.53
245.303	3.19
245.679	3.38
246.056	3.55
246.432	3.58
246.808	3.62
247.184	4.16
247.56	4.05
247.936	4.34
248.312	4.69
248.688	4.44
249.064	4.45
249.44	4.12
249.815	4.33
250.191	4.23
250.567	3.97
250.943	4.11
251.318	3.88
251.694	3.73
252.069	3.99
252.445	4.51
252.82	4.39
253.196	5.05
253.571	5.13
253.947	4.96
254.322	5
254.697	4.93
255.073	4.63
255.448	4.8
255.823	4.28
256.198	3.84
256.573	3.84
256.948	3.64
257.323	3.91
257.698	3.74
258.073	3.65
258.448	3.77
258.823	3.59
259.198	3.65
259.573	3.51
259.948	3.34
260.322	3.25
260.697	3.42
261.072	3.25
261.446	3.31
261.821	3.24
262.195	3.23
262.57	3.22
262.944	3.27
263.319	3.41
263.693	3.33
264.067	3.29
264.442	3.34
264.816	3.53
265.19	3.32
265.564	3.46
265.938	3.52
266.313	3.38
266.687	3.53
267.061	3.28
267.435	3.52
267.809	3.56
268.183	3.5
268.556	3.36
268.93	3.58
269.304	3.22
269.678	3.22
270.051	3.01
270.425	2.97
270.799	2.87
271.172	2.64
271.546	2.89
271.919	3.01
272.293	3
272.666	3.02
273.04	3.19
273.413	3.03
273.787	3.02
274.16	3.11
274.533	3.11
274.906	3.2
275.279	3.17
275.653	3.09
276.026	3.05
276.399	2.92
276.772	2.74
277.145	2.97
277.518	2.88
277.891	3.01
278.263	3.09
278.636	3.11
279.009	2.98
279.382	2.94
279.755	2.87
280.127	3
280.5	2.82
280.872	2.57
281.245	2.51
281.617	2.51
281.99	2.46
282.362	2.47
282.735	2.41
283.107	2.34
283.479	2.41
283.852	2.43
284.224	2.48
284.596	2.35
284.968	2.34
285.34	2.43
285.713	2.36
286.085	2.29
286.457	2.16
286.829	2.34
287.201	2.24
287.572	2.4
287.944	2.37
288.316	2.41
288.688	2.56
289.06	2.64
289.431	2.7
289.803	2.74
290.175	2.63
290.546	2.77
290.918	2.91
291.289	2.85
291.661	2.77
292.032	2.8
292.403	2.86
292.775	2.86
293.146	2.79
293.517	2.94
293.889	3.02
294.26	3.16
294.631	3.08
295.002	3.17
295.373	3.07
295.744	3.13
296.115	3.1
296.486	3.12
296.857	3
297.228	2.92
297.599	2.89
297.97	3.02
298.34	2.92
298.711	2.97
299.082	2.98
299.452	3.08
299.823	3.06
300.194	3.17
300.564	3.04
300.935	3.11
301.305	3.12
301.676	3.04
302.046	3.07
302.416	3.17
302.787	3.15
303.157	3.12
303.527	3.15
303.897	3.14
304.267	3.13
304.637	3.43
305.008	3.35
305.378	3.34
305.748	3.24
306.117	3.26
306.487	3.19
306.857	3.26
307.227	3.41
307.597	3.62
307.967	3.57
308.336	3.68
308.706	3.63
309.076	3.71
309.445	3.84
309.815	3.9
310.184	3.86
310.554	3.83
310.923	3.79
311.293	3.73
311.662	3.86
312.031	3.92
312.401	3.84
312.77	4.03
313.139	4.18
313.508	4.34
313.877	4.39
314.246	4.33
314.616	4.46
314.985	4.27
315.353	4.19
315.722	4.39
316.091	4.47
316.46	4.45
316.829	4.49
317.198	4.52
317.567	4.53
317.935	4.57
318.304	4.64
318.672	4.86
319.041	4.95
319.41	4.93
319.778	4.82
320.147	4.73
320.515	4.67
320.883	4.56
321.252	4.49
321.62	4.55
321.988	4.54
322.357	4.56
322.725	4.7
323.093	4.62
323.461	4.53
323.829	4.48
324.197	4.62
324.565	4.44
324.933	4.29
325.301	4.09
325.669	4.08
326.037	4.09
326.405	4.18
326.772	4.17
327.14	4.16
327.508	4.23
327.875	4.33
328.243	4.41
328.61	4.32
328.978	4.3
329.346	4.18
329.713	4.32
330.08	4.31
330.448	4.34
330.815	4.45
331.182	4.26
331.55	4.35
331.917	4.28
332.284	4.43
332.651	4.56
333.018	4.55
333.385	4.57
333.752	4.6
334.119	4.56
334.486	4.63
334.853	4.65
335.22	4.62
335.587	4.63
335.954	4.61
336.32	4.74
336.687	4.83
337.054	4.8
337.42	4.68
337.787	4.7
338.153	4.64
338.52	4.59
338.886	4.84
339.253	4.78
339.619	4.73
339.986	4.63
340.352	4.59
340.718	4.77
341.084	4.9
341.451	4.84
341.817	4.85
342.183	4.69
342.549	4.76
342.915	4.91
343.281	4.86
343.647	4.86
344.013	4.75
344.379	4.64
344.745	4.73
345.11	4.78
345.476	4.68
345.842	4.73
346.208	4.76
346.573	4.65
346.939	4.67
347.304	4.77
347.67	4.78
348.035	4.74
348.401	4.66
348.766	4.49
349.132	4.6
349.497	4.55
349.862	4.62
350.228	4.6
350.593	4.44
350.958	4.37
351.323	4.27
351.688	4.41
352.053	4.47
352.418	4.44
352.783	4.39
353.148	4.35
353.513	4.35
353.878	4.28
354.243	4.2
354.608	4.15
354.972	4.12
355.337	4.16
355.702	4.1
356.066	4.09
356.431	4.1
356.795	4.08
357.16	4.05
357.524	3.94
357.889	3.89
358.253	3.89
358.618	4.01
358.982	4.09
359.346	4.06
359.71	4.06
360.075	4.05
360.439	4.06
360.803	4.06
361.167	4
361.531	4.01
361.895	4.01
362.259	4.02
362.623	3.97
362.987	3.93
363.351	3.97
363.714	3.99
364.078	4
364.442	3.97
364.806	3.95
365.169	4
365.533	3.96
365.896	3.97
366.26	3.87
366.623	3.81
366.987	3.75
367.35	3.69
367.714	3.68
368.077	3.71
368.44	3.7
368.803	3.68
369.167	3.53
369.53	3.53
369.893	3.53
370.256	3.6
370.619	3.58
370.982	3.5
371.345	3.51
371.708	3.57
372.071	3.53
372.434	3.44
372.797	3.47
373.159	3.48
373.522	3.44
373.885	3.43
374.247	3.42
374.61	3.38
374.973	3.44
375.335	3.41
375.698	3.34
376.06	3.33
376.423	3.41
376.785	3.51
377.147	3.51
377.51	3.47
377.872	3.45
378.234	3.47
378.596	3.51
378.958	3.47
379.321	3.39
379.683	3.36
380.045	3.37
380.407	3.33
380.769	3.3
381.13	3.28
381.492	3.34
381.854	3.32
382.216	3.37
382.578	3.32
382.939	3.35
383.301	3.34
383.663	3.34
384.024	3.27
384.386	3.19
384.747	3.17
385.109	3.15
385.47	3.13
385.832	3.05
386.193	3.04
386.554	3
386.916	2.99
387.277	3.01
387.638	3.03
387.999	3.04
388.36	3.05
388.721	3.06
389.082	3.02
389.443	3.01
389.804	3
390.165	2.97
390.526	2.91
390.887	2.88
391.248	2.9
391.609	2.91
391.969	2.98
392.33	3
392.691	3
393.051	2.99
393.412	3.06
393.772	3.05
394.133	3.05
394.493	3.02
394.854	3.03
395.214	2.98
395.574	2.9
395.935	2.9
396.295	2.9
396.655	2.88
397.015	2.91
397.376	2.92
397.736	2.9
398.096	2.9
398.456	2.89
398.816	2.86
399.176	2.77
399.535	2.72
399.895	2.66
400.255	2.66
400.615	2.68
400.975	2.61
401.334	2.62
401.694	2.58
402.054	2.57
402.413	2.56
402.773	2.57
403.132	2.62
403.492	2.6
403.851	2.62
404.211	2.61
404.57	2.59
404.929	2.54
405.288	2.56
405.648	2.55
406.007	2.54
406.366	2.5
406.725	2.53
407.084	2.53
407.443	2.51
407.802	2.48
408.161	2.44
408.52	2.48
408.879	2.46
409.238	2.51
409.596	2.56
409.955	2.55
410.314	2.57
410.673	2.58
411.031	2.59
411.39	2.56
411.748	2.57
412.107	2.52
412.465	2.51
412.824	2.49
413.182	2.54
413.54	2.56
413.899	2.6
414.257	2.6
414.615	2.58
414.974	2.59
415.332	2.61
415.69	2.6
416.048	2.6
416.406	2.56
416.764	2.53
417.122	2.49
417.48	2.48
417.838	2.46
418.195	2.44
418.553	2.44
418.911	2.42
419.269	2.42
419.626	2.42
419.984	2.43
420.342	2.43
420.699	2.41
421.057	2.41
421.414	2.4
421.772	2.4
422.129	2.4
422.486	2.41
422.844	2.39
423.201	2.4
423.558	2.39
423.915	2.42
424.273	2.42
424.63	2.43
424.987	2.44
425.344	2.44
425.701	2.44
426.058	2.45
426.415	2.46
426.772	2.46
427.128	2.48
427.485	2.48
427.842	2.49
428.199	2.48
428.555	2.46
428.912	2.45
429.269	2.46
429.625	2.48
429.982	2.47
430.338	2.51
430.695	2.49
431.051	2.49
431.407	2.47
431.764	2.47
432.12	2.47
432.476	2.47
432.832	2.48
433.189	2.46
433.545	2.45
433.901	2.45
434.257	2.46
434.613	2.44
434.969	2.43
435.325	2.43
435.681	2.43
436.036	2.45
436.392	2.45
436.748	2.45
437.104	2.44
437.459	2.44
437.815	2.45
438.171	2.45
438.526	2.44
438.882	2.45
439.237	2.43
439.593	2.42
439.948	2.42
440.304	2.41
440.659	2.42
441.014	2.43
441.369	2.44
441.725	2.44
442.08	2.44
442.435	2.43
442.79	2.43
443.145	2.43
443.5	2.41
443.855	2.41
444.21	2.4
444.565	2.4
444.92	2.4
445.275	2.38
445.629	2.39
445.984	2.39
446.339	2.37
446.693	2.4
447.048	2.4
447.403	2.4
447.757	2.4
448.112	2.41
448.466	2.39
448.82	2.38
449.175	2.37
449.529	2.39
449.883	2.41
450.238	2.4
450.592	2.4
450.946	2.42
451.3	2.42
451.654	2.42
452.008	2.41
452.362	2.41
452.716	2.43
453.07	2.42
453.424	2.42
453.778	2.44
454.132	2.43
454.486	2.44
454.839	2.46
455.193	2.44
455.547	2.44
455.9	2.46
456.254	2.46
456.607	2.46
456.961	2.45
457.314	2.43
457.668	2.44
458.021	2.45
458.375	2.45
458.728	2.45
459.081	2.45
459.434	2.45
459.787	2.46
460.141	2.46
460.494	2.48
460.847	2.48
461.2	2.49
461.553	2.48
461.906	2.49
462.259	2.46
462.611	2.49
462.964	2.51
463.317	2.49
463.67	2.5
464.022	2.51
464.375	2.5
464.728	2.5
465.08	2.5
465.433	2.49
465.785	2.49
466.138	2.5
466.49	2.5
466.843	2.52
467.195	2.52
467.547	2.5
467.899	2.5
468.252	2.51
468.604	2.52
468.956	2.53
469.308	2.51
469.66	2.5
470.012	2.48
470.364	2.47
470.716	2.47
471.068	2.47
471.42	2.45
471.772	2.43
472.123	2.46
472.475	2.47
472.827	2.48
473.178	2.49
473.53	2.48
473.882	2.49
474.233	2.47
474.585	2.45
474.936	2.47
475.288	2.46
475.639	2.45
475.99	2.42
476.342	2.41
476.693	2.43
477.044	2.46
477.395	2.46
477.746	2.44
478.097	2.45
478.448	2.45
478.8	2.46
479.15	2.47
479.501	2.45
479.852	2.43
480.203	2.42
480.554	2.42
480.905	2.43
481.255	2.43
481.606	2.43
481.957	2.43
482.307	2.42
482.658	2.43
483.009	2.42
483.359	2.42
483.709	2.42
484.06	2.42
484.41	2.41
484.761	2.42
485.111	2.43
485.461	2.42
485.811	2.42
486.162	2.43
486.512	2.43
486.862	2.44
487.212	2.45
487.562	2.46
487.912	2.46
488.262	2.46
488.612	2.47
488.961	2.47
489.311	2.48
489.661	2.49
490.011	2.48
490.36	2.49
490.71	2.49
491.06	2.49
491.409	2.49
491.759	2.49
492.108	2.48
492.458	2.47
492.807	2.48
493.157	2.48
493.506	2.48
493.855	2.48
494.204	2.47
494.554	2.46
494.903	2.46
495.252	2.46
495.601	2.47
495.95	2.46
496.299	2.47
496.648	2.47
496.997	2.47
497.346	2.49
497.695	2.5
498.043	2.52
498.392	2.53
498.741	2.56
499.09	2.58
499.438	2.6
499.787	2.62
500.135	2.62
500.484	2.63
500.832	2.65
501.181	2.66
501.529	2.7
501.878	2.71
502.226	2.72
502.574	2.73
502.923	2.72
503.271	2.76
503.619	2.75
503.967	2.75
504.315	2.74
504.663	2.72
505.011	2.73
505.359	2.73
505.707	2.74
506.055	2.74
506.403	2.74
506.751	2.73
507.098	2.71
507.446	2.73
507.794	2.75
508.141	2.75
508.489	2.77
508.837	2.77
509.184	2.8
509.531	2.82
509.879	2.83
510.226	2.84
510.574	2.82
510.921	2.85
511.268	2.89
511.616	2.93
511.963	2.97
512.31	2.98
512.657	3.03
513.004	3.04
513.351	3.07
513.698	3.09
514.045	3.13
514.392	3.17
514.739	3.22
515.086	3.25
515.432	3.26
515.779	3.25
516.126	3.28
516.473	3.29
516.819	3.3
517.166	3.32
517.512	3.33
517.859	3.37
518.205	3.38
518.552	3.39
518.898	3.4
519.245	3.42
519.591	3.45
519.937	3.44
520.283	3.46
520.629	3.48
520.976	3.5
521.322	3.53
521.668	3.55
522.014	3.56
522.36	3.57
522.706	3.61
523.052	3.68
523.398	3.71
523.743	3.75
524.089	3.8
524.435	3.85
524.781	3.89
525.126	3.94
525.472	3.98
525.817	4.01
526.163	4.04
526.509	4.07
526.854	4.11
527.199	4.14
527.545	4.18
527.89	4.22
528.235	4.25
528.581	4.28
528.926	4.32
529.271	4.37
529.616	4.4
529.961	4.44
530.306	4.49
530.651	4.52
530.996	4.58
531.341	4.63
531.686	4.69
532.031	4.75
532.376	4.81
532.721	4.88
533.065	4.95
533.41	5.03
533.755	5.12
534.099	5.19
534.444	5.26
534.788	5.33
535.133	5.41
535.477	5.5
535.822	5.58
536.166	5.69
536.51	5.81
536.855	5.94
537.199	6.03
537.543	6.14
537.887	6.28
538.231	6.41
538.576	6.54
538.92	6.68
539.264	6.82
539.608	6.94
539.951	7.03
540.295	7.14
540.639	7.28
540.983	7.38
541.327	7.5
541.671	7.61
542.014	7.76
542.358	7.86
542.701	8.01
543.045	8.14
543.389	8.26
543.732	8.38
544.075	8.52
544.419	8.68
544.762	8.83
545.105	9
545.449	9.17
545.792	9.35
546.135	9.54
546.478	9.74
546.821	9.92
547.165	10.16
547.508	10.41
547.851	10.58
548.194	10.85
548.536	11.07
548.879	11.34
549.222	11.57
549.565	11.83
549.908	12.03
550.25	12.28
550.593	12.53
550.936	12.81
551.278	13.08
551.621	13.37
551.963	13.67
552.306	13.96
552.648	14.2
552.991	14.45
553.333	14.72
553.675	14.99
554.017	15.24
554.36	15.53
554.702	15.73
555.044	15.99
555.386	16.22
555.728	16.49
556.07	16.8
556.412	17.07
556.754	17.33
557.096	17.66
557.438	17.95
557.78	18.23
558.121	18.56
558.463	18.84
558.805	19.09
559.147	19.38
559.488	19.6
559.83	19.95
560.171	20.26
560.513	20.54
560.854	20.83
561.196	21.2
561.537	21.51
561.878	21.89
562.22	22.22
562.561	22.5
562.902	22.79
563.243	23.07
563.584	23.37
563.925	23.7
564.266	23.96
564.607	24.21
564.948	24.5
565.289	24.75
565.63	24.97
565.971	25.26
566.312	25.51
566.653	25.84
566.993	26.09
567.334	26.34
567.675	26.6
568.015	26.82
568.356	27.06
568.696	27.32
569.037	27.52
569.377	27.73
569.718	27.99
570.058	28.24
570.398	28.47
570.739	28.72
571.079	28.94
571.419	29.17
571.759	29.45
572.099	29.7
572.439	29.94
572.779	30.2
573.119	30.42
573.459	30.63
573.799	30.82
574.139	31.05
574.479	31.25
574.819	31.49
575.158	31.78
575.498	32
575.838	32.21
576.177	32.45
576.517	32.68
576.856	32.94
577.196	33.21
577.535	33.48
577.875	33.69
578.214	33.99
578.553	34.25
578.893	34.49
579.232	34.7
579.571	34.96
579.91	35.17
580.25	35.4
580.589	35.64
580.928	35.85
581.267	36.1
581.606	36.32
581.945	36.54
582.283	36.72
582.622	36.93
582.961	37.15
583.3	37.38
583.639	37.57
583.977	37.77
584.316	37.96
584.654	38.12
584.993	38.37
585.332	38.5
585.67	38.67
586.008	38.85
586.347	39.08
586.685	39.2
587.024	39.4
587.362	39.57
587.7	39.79
588.038	39.89
588.376	40.04
588.715	40.23
589.053	40.35
589.391	40.51
589.729	40.7
590.067	40.74
590.404	40.9
590.742	41.13
591.08	41.28
591.418	41.43
591.756	41.62
592.093	41.75
592.431	41.98
592.769	42.12
593.106	42.29
593.444	42.47
593.781	42.68
594.119	42.8
594.456	42.91
594.793	43.04
595.131	43.17
595.468	43.29
595.805	43.46
596.143	43.53
596.48	43.6
596.817	43.66
597.154	43.87
597.491	44.01
597.828	44.13
598.165	44.22
598.502	44.37
598.839	44.47
599.176	44.55
599.512	44.62
599.849	44.76
600.186	44.87
600.523	44.99
600.859	45.09
601.196	45.22
601.532	45.42
601.869	45.52
602.205	45.75
602.542	45.87
602.878	45.91
603.215	46.05
603.551	46.11
603.887	46.22
604.223	46.26
604.56	46.35
604.896	46.42
605.232	46.48
605.568	46.5
605.904	46.59
606.24	46.72
606.576	46.73
606.912	46.85
607.248	46.9
607.583	46.95
607.919	47.09
608.255	47.17
608.591	47.28
608.926	47.4
609.262	47.4
609.597	47.45
609.933	47.58
610.268	47.68
610.604	47.75
610.939	47.87
611.275	47.97
611.61	47.99
611.945	47.97
612.281	48.15
612.616	48.29
612.951	48.29
613.286	48.37
613.621	48.54
613.956	48.54
614.291	48.64
614.626	48.68
614.961	48.59
615.296	48.64
615.631	48.67
615.966	48.66
616.3	48.84
616.635	48.9
616.97	48.99
617.304	49.07
617.639	49.26
617.973	49.28
618.308	49.33
618.642	49.38
618.977	49.49
619.311	49.5
619.646	49.54
619.98	49.67
620.314	49.75
620.648	49.83
620.983	49.95
621.317	50.07
621.651	50.12
621.985	50.22
622.319	50.35
622.653	50.4
622.987	50.46
623.321	50.49
623.655	50.54
623.988	50.48
624.322	50.47
624.656	50.49
624.99	50.6
625.323	50.57
625.657	50.62
625.99	50.74
626.324	50.72
626.657	50.82
626.991	50.81
627.324	50.74
627.658	50.74
627.991	50.84
628.324	50.78
628.657	50.82
628.991	50.93
629.324	51
629.657	51.02
629.99	51.07
630.323	51
630.656	51.19
630.989	51.28
631.322	51.35
631.655	51.37
631.987	51.41
632.32	51.57
632.653	51.56
632.986	51.57
633.318	51.68
633.651	51.72
633.984	51.75
634.316	51.88
634.649	51.95
634.981	52.01
635.313	52.11
635.646	52.15
635.978	52.15
636.31	52.15
636.643	52.3
636.975	52.36
637.307	52.46
637.639	52.33
637.971	52.41
638.303	52.43
638.635	52.49
638.967	52.43
639.299	52.44
639.631	52.6
639.963	52.59
640.295	52.67
640.626	52.61
640.958	52.74
641.29	52.75
641.621	52.76
641.953	52.77
642.285	52.84
642.616	52.94
642.948	52.97
643.279	52.94
643.61	52.84
643.942	52.87
644.273	52.9
644.604	52.96
644.936	53
645.267	52.96
645.598	53
645.929	53.02
646.26	53.14
646.591	53.15
646.922	53.3
647.253	53.22
647.584	53.21
647.915	53.23
648.245	53.23
648.576	53.23
648.907	53.19
649.238	53.14
649.568	53.24
649.899	53.28
650.229	53.35
650.56	53.45
650.89	53.41
651.221	53.42
651.551	53.44
651.882	53.43
652.212	53.58
652.542	53.49
652.872	53.53
653.203	53.46
653.533	53.57
653.863	53.63
654.193	53.64
654.523	53.82
654.853	53.86
655.183	53.84
655.513	53.97
655.843	53.93
656.172	53.95
656.502	53.93
656.832	53.88
657.162	53.94
657.491	54.02
657.821	54.05
658.15	54.15
658.48	54.16
658.809	54.21
659.139	54.19
659.468	54.34
659.798	54.35
660.127	54.36
660.456	54.28
660.785	54.27
661.115	54.33
661.444	54.24
661.773	54.2
662.102	54.34
662.431	54.24
662.76	54.27
663.089	54.42
663.418	54.39
663.747	54.48
664.076	54.44
664.404	54.44
664.733	54.51
665.062	54.44
665.39	54.43
665.719	54.53
666.048	54.48
666.376	54.51
666.705	54.65
667.033	54.69
667.362	54.73
667.69	54.63
668.018	54.78
668.347	54.73
668.675	54.84
669.003	54.83
669.331	54.9
669.659	54.95
669.987	54.85
670.315	54.9
670.643	54.85
670.971	54.86
671.299	54.77
671.627	54.87
671.955	54.89
672.283	55.02
672.61	54.92
672.938	55
673.266	54.91
673.593	54.71
673.921	54.78
674.249	54.72
674.576	54.68
674.904	54.57
675.231	54.66
675.558	54.62
675.886	54.73
676.213	54.7
676.54	54.82
676.867	54.81
677.195	54.96
677.522	55
677.849	55.02
678.176	54.98
678.503	54.9
678.83	54.91
679.157	54.94
679.484	54.92
679.81	54.93
680.137	54.97
680.464	55.13
680.791	55.07
681.117	55.19
681.444	55.25
681.771	55.28
682.097	55.36
682.424	55.35
682.75	55.31
683.077	55.35
683.403	55.28
683.729	55.32
684.056	55.14
684.382	55.32
684.708	55.31
685.034	55.34
685.36	55.45
685.686	55.5
686.012	55.54
686.339	55.64
686.664	55.66
686.99	55.67
687.316	55.55
687.642	55.64
687.968	55.55
688.294	55.54
688.619	55.69
688.945	55.59
689.271	55.66
689.596	55.69
689.922	55.76
690.247	55.8
690.573	55.88
690.898	56.01
691.224	55.91
691.549	56.01
691.874	56.13
692.2	56.12
692.525	56.24
692.85	56.17
693.175	55.93
693.5	55.88
693.825	56
694.15	56.07
694.475	55.93
694.8	56.02
695.125	56.13
695.45	55.94
695.775	56.06
696.099	56.19
696.424	56.1
696.749	56.16
697.073	56.18
697.398	56.01
697.723	56.06
698.047	56.06
698.372	55.97
698.696	56.03
699.02	55.95
699.345	55.87
699.669	55.88
699.993	55.96
700.318	55.97
700.642	55.86
700.966	56.12
701.29	56.23
701.614	56.36
701.938	56.25
702.262	56.3
702.586	56.25
702.91	56.11
703.234	56.11
703.557	56.2
703.881	56.3
704.205	56.48
704.529	56.38
704.852	56.29
705.176	56.58
705.499	56.63
705.823	56.63
706.146	56.75
706.47	56.79
706.793	57.07
707.117	57.19
707.44	57.43
707.763	57.4
708.086	57.46
708.409	57.14
708.733	57.31
709.056	57.25
709.379	57.18
709.702	57.2
710.025	57.18
710.348	57.04
710.671	56.91
710.993	57.05
711.316	57.22
711.639	57.25
711.962	56.97
712.284	56.98
712.607	57.12
712.93	57.04
713.252	57.08
713.575	56.89
713.897	57.06
714.22	56.83
714.542	56.71
714.864	56.69
715.187	56.9
715.509	57.05
715.831	57.18
716.153	57.26
716.475	57.35
716.798	57.43
717.12	57.48
717.442	57.58
717.764	57.57
718.085	57.45
718.407	57.35
718.729	57.27
719.051	57.22
719.373	57.26
719.695	57.46
720.016	57.23
720.338	57.44
720.659	57.41
720.981	57.71
721.302	57.59
721.624	57.58
721.945	57.59
722.267	57.38
722.588	57.32
722.909	57.26
723.231	57.24
723.552	57.05
723.873	56.98
724.194	57.02
724.515	56.68
724.836	56.62
725.157	56.87
725.478	57.1
725.799	56.89
726.12	56.91
726.441	56.72
726.762	56.94
727.083	56.73
727.403	56.73
727.724	56.39
728.045	56.43
728.365	56.39
728.686	56.33
729.006	56.53
729.327	56.61
729.647	56.75
729.967	56.66
730.288	56.92
730.608	57.01
730.928	57.06
731.249	57.36
731.569	57.41
731.889	57.47
732.209	57.77
732.529	58.1
732.849	57.76
733.169	57.8
733.489	57.71
733.809	57.92
734.129	57.88
734.448	58.28
734.768	58.34
735.088	58.38
735.408	58.36
735.727	58.44
736.047	58.32
736.366	58.29
736.686	58.49
737.005	58.33
737.325	58.14
737.644	58.24
737.963	58.2
738.283	58.12
738.602	58.2
738.921	57.91
739.24	57.75
739.56	57.92
739.879	57.83
740.198	57.66
740.517	57.57
740.836	57.27
741.155	56.94
741.473	57.09
741.792	57.27
742.111	57.38
742.43	57
742.748	57.23
743.067	57.11
743.386	57.12
743.704	57.34
744.023	57.53
744.341	56.99
744.66	56.91
744.978	57.19
745.297	57.18
745.615	57.33
745.933	57.5
746.252	57.53
746.57	57.95
746.888	58.04
747.206	57.96
747.524	58.16
747.842	58.12
748.16	57.81
748.478	57.5
748.796	57.49
749.114	57.59
749.432	57.47
749.749	57.81
750.067	57.23
750.385	57.21
750.703	57.28
751.02	57.96
751.338	57.94
751.655	57.91
751.973	57.59
752.29	57.52
752.608	57.12
752.925	57.43
753.242	57.43
753.56	57.63
753.877	57.59
754.194	57.48
754.511	57.48
754.828	57.65
755.145	58.17
755.462	58.19
755.779	58.09
756.096	58.19
756.413	58.13
756.73	58.73
757.047	58.46
757.364	58.07
757.68	57.47
757.997	57.66
758.314	57.54
758.63	57.62
758.947	57.17
759.264	57.52
759.58	57.4
759.896	57.14
760.213	56.85
760.529	56.98
760.846	57.18
761.162	57.25
761.478	57.13
761.794	56.85
762.11	56.88
762.426	56.94
762.743	56.77
763.059	56.7
763.375	56.54
763.69	56.52
764.006	56.75
764.322	57.22
764.638	57.3
764.954	57.34
765.27	57.32
765.585	57.42
765.901	57.33
766.216	57.3
766.532	57.24
766.848	57.45
767.163	57.3
767.478	57.45
767.794	57.78
768.109	57.92
768.424	57.78
768.74	57.45
769.055	57.87
769.37	57.99
769.685	58
770	57.98
770.315	58.43
770.63	58.56
770.945	58.29
771.26	58.03
771.575	57.98
771.89	58.12
772.205	58.02
772.52	57.64
772.834	57.55
773.149	58.1
773.464	58.12
773.778	58.61
774.093	58.21
774.407	57.68
774.722	57.73
775.036	57.86
775.351	58.3
775.665	57.41
775.979	57.62
776.293	57.69
776.608	57.5
776.922	57.18
777.236	56.83
777.55	56.49
777.864	56.78
778.178	56.93
778.492	57.07
778.806	57.4
779.12	57.45
779.434	57.69
779.747	57.37
780.061	57.51
780.375	56.92
780.689	57.25
781.002	57.3
781.316	56.86
781.629	56.37
781.943	56.59
782.256	56.43
782.57	56.15
782.883	56.24
783.196	56.44
783.51	56.05
783.823	56
784.136	56.18
784.449	55.71
784.762	55.38
785.075	55.13
785.388	55.72
785.701	56.41
786.014	56.18
786.327	55.94
786.64	55.83
786.953	56.54
787.266	56.45
787.578	56.8
787.891	57.28
788.204	57.97
788.516	57.58
788.829	57.9
789.141	58.14
789.454	58.34
789.766	58.88
790.079	59.3
790.391	59.36
790.703	59
791.016	59.49
791.328	59.74
791.64	59.58
791.952	58.39
792.264	58.14
792.576	58.2
792.888	58.41
793.2	58.08
793.512	57.6
793.824	58.14
794.136	57.81
794.448	57.59
794.76	57.21
795.071	56.61
795.383	56.93
795.695	56.37
796.006	56.13
796.318	55.82
796.629	56.21
796.941	56.51
797.252	56.99
797.564	56.7
797.875	57
798.186	57.03
798.497	58.09
798.809	58.19
799.12	57.6
799.431	57.48
799.742	58.26
800.053	58.67
800.364	57.96
800.675	57.65
800.986	57.35
801.297	57.76
801.608	59.23
801.918	58.9
802.229	59.69
802.54	59.16
802.851	58.89
803.161	58.5
803.472	58.55
803.782	58.86
804.093	59.11
804.403	57.96
804.714	58.05
805.024	57.35
805.334	57.58
805.645	58.19
805.955	58.52
806.265	58.1
806.575	58.17
806.885	57.91
807.195	58.52
807.505	59.02
807.815	59.57
808.125	59.35
808.435	59.51
808.745	59.33
809.055	60.27
809.365	60.38
809.674	60.36
809.984	60.17
810.294	59.51
810.603	59.29
810.913	60.43
811.222	61.14
811.532	60.3
811.841	60.42
812.151	60.73
812.46	60.61
812.769	59.98
813.079	59.03
813.388	59.42
813.697	59.2
814.006	58.07
814.315	57.66
814.624	57.23
814.933	57.7
815.242	56.77
815.551	56.73
815.86	57.81
816.169	56.94
816.478	56.44
816.786	56.05
817.095	56.58
817.404	56.15
817.712	55.73
818.021	56.3
818.33	55.26
818.638	54.86
818.947	54.75
819.255	55.52
819.563	55.72
819.872	56.16
820.18	56.28
820.488	56.85
820.796	56.47
821.105	56.5
821.413	56.51
821.721	56.48
822.029	56.3
822.337	56.03
822.645	56.35
822.953	56.62
823.26	56.91
823.568	56.76
823.876	56.63
824.184	56.68
824.491	56.91
824.799	57.26
825.107	57.46
825.414	57.5
825.722	57.52
826.029	57.6
826.337	57.44
826.644	57.35
826.951	57.49
827.259	58.13
827.566	58.13
827.873	58.32
828.18	58.74
828.488	58.98
828.795	59.49
829.102	59.66
829.409	59.86
829.716	59.48
830.023	59.92
830.329	60.34
830.636	60.55
830.943	60.17
831.25	59.78
831.557	59.21
831.863	59.33
832.17	58.75
832.476	58.43
832.783	59
833.089	59.14
833.396	58.85
833.702	57.76
834.009	57.89
834.315	57.55
834.621	57.36
834.928	57.67
835.234	57.5
835.54	57.82
835.846	57.47
836.152	57.83
836.458	56.9
836.764	56.79
837.07	57
837.376	57.85
837.682	58.31
837.988	58.62
838.293	58.99
838.599	59.94
838.905	61.25
839.211	60.79
839.516	61.68
839.822	62.03
840.127	63.26
840.433	63.42
840.738	63.5
841.044	64.08
841.349	64.34
841.654	62.07
841.959	61.34
842.265	62.5
842.57	63.32
842.875	63.91
843.18	63.99
843.485	63.18
843.79	62.14
844.095	60.42
844.4	61.62
844.705	62.3
845.01	61.37
845.315	60.3
845.619	60.55
845.924	60.03
846.229	60.22
846.533	59.51
846.838	58.95
847.142	59.54
847.447	60.27
847.751	60.07
848.056	62.47
848.36	62.38
848.664	62.5
848.969	62.18
849.273	63.85
849.577	64.86
849.881	66.35
850.185	67.46
850.489	70.05
850.794	70.6
851.097	67.22
851.401	67.57
851.705	67.48
852.009	64.99
852.313	65.52
852.617	63.96
852.92	62.62
853.224	62.36
853.528	63.71
853.831	63.35
854.135	61.69
854.438	62.1
854.742	63.62
855.045	63.26
855.349	63.82
855.652	65.65
855.955	66.6
856.259	66.94
856.562	67.29
856.865	67.21
857.168	64.45
857.471	66.69
857.774	66.37
858.077	66.86
858.38	69.27
858.683	68.88
858.986	69.5
859.289	71.73
859.592	72.82
859.894	73.6
860.197	71.34
860.5	72.74
860.802	74.51
861.105	72.62
861.407	73.53
861.71	72.9
862.012	68.81
862.315	68.76
862.617	65.33
862.919	64.05
863.222	63.44
863.524	63.75
863.826	62.17
864.128	63.19
864.43	63.75
864.732	62.87
865.034	61.96
865.336	60.68
865.638	59.52
865.94	58.99
866.242	56.66
866.544	58.14
866.846	61.36
867.147	60.22
867.449	60.39
867.751	58.44
868.052	61.8
868.354	65.97
868.655	66.58
868.957	70.51
869.258	72.26
869.56	70.06
869.861	70
870.162	71.35
870.463	72.49
870.765	70.51
871.066	70.62
871.367	71.04
871.668	72.59
871.969	69.55
872.27	69.42
872.571	68.76
872.872	66.08
873.173	64.92
873.473	62.47
873.774	64.16
874.075	66.71
874.376	62.34
874.676	58.77
874.977	59.11
875.277	54.13
875.578	52.3
875.878	54.18
876.179	54.82
876.479	54.77
876.78	53
877.08	53.69
877.38	54.16
877.68	53.48
877.981	53.95
878.281	57.8
878.581	58.18
