Data from BA51068_Reflection_00006.txt Node
Date: Tue Nov 19 11:59:00 EST 2019
User: vgr7
Spectrometer: USB2G7710
Scans to average: 3
Trigger mode: 4
Integration Time (sec): 2.000000E-2
Electric dark correction enabled: true
Boxcar width: 10
XAxis mode: Wavelengths
Number of Pixels in Spectrum: 2048
>>>>>Begin Spectral Data<<<<<
177.721	21.65
178.105	-46.55
178.488	-325.05
178.871	-152.73
179.254	9000
179.636	1242.86
180.019	-244.77
180.402	-0
180.785	282.35
181.168	294.92
181.55	-3553.85
181.933	-83.4
182.316	61.13
182.698	9.98
183.081	-102.13
183.463	-92.31
183.846	-334.43
184.228	82.17
184.611	77.63
184.993	154.97
185.376	90.34
185.758	70.96
186.14	99.13
186.522	177.29
186.904	250.55
187.287	178.58
187.669	198.68
188.051	194.84
188.433	124.34
188.815	111.93
189.197	131.08
189.579	79.28
189.961	44.56
190.342	53.06
190.724	40.19
191.106	30.99
191.488	7.57
191.869	2.36
192.251	-25.97
192.633	10.32
193.014	-24.57
193.396	2165.22
193.777	247.06
194.159	210.21
194.54	241.64
194.922	134.38
195.303	159.49
195.684	132.58
196.065	91.4
196.447	175.84
196.828	163.85
197.209	157.74
197.59	438.93
197.971	-791.75
198.352	-308.79
198.733	-213.21
199.114	-237.46
199.495	-661.15
199.876	-353.35
200.257	-138.07
200.638	-153.67
201.018	-237.21
201.399	-270.97
201.78	-727.87
202.16	942.86
202.541	600
202.922	110.46
203.302	459.81
203.683	-268.97
204.063	-122.03
204.444	-146.72
204.824	-153.19
205.204	-147.04
205.585	-366.94
205.965	-1022.95
206.345	249.75
206.725	98.01
207.106	272.27
207.486	74.23
207.866	130.27
208.246	68.06
208.626	58.75
209.006	77.86
209.386	48.89
209.766	79.15
210.145	102.33
210.525	108.29
210.905	84.34
211.285	84.22
211.664	73.66
212.044	75.95
212.424	74.13
212.803	79.16
213.183	82.19
213.562	75.66
213.942	57.08
214.321	55.02
214.701	50.91
215.08	52.7
215.459	63.69
215.838	58.54
216.218	57.03
216.597	56.31
216.976	58.04
217.355	56.86
217.734	61.51
218.113	66.94
218.492	64.45
218.871	72.61
219.25	60.06
219.629	73.96
220.008	72.64
220.387	66.92
220.766	69.57
221.144	58.41
221.523	55.35
221.902	88.51
222.28	89.49
222.659	97.1
223.037	81.27
223.416	63.41
223.794	46.73
224.173	43.34
224.551	46.98
224.929	42.11
225.308	36.44
225.686	31.08
226.064	19.52
226.442	15.17
226.821	12.7
227.199	10.18
227.577	8.7
227.955	9.12
228.333	9.63
228.711	3.89
229.089	4.79
229.467	3.55
229.845	0.77
230.222	0.28
230.6	-0.88
230.978	3.79
231.356	4.09
231.733	6.62
232.111	6.66
232.488	5.37
232.866	6.19
233.243	7.54
233.621	8.37
233.998	9.29
234.376	10.59
234.753	10.48
235.13	11.49
235.508	10.53
235.885	8.88
236.262	6.88
236.639	6.1
237.016	5.25
237.393	6.84
237.77	7.65
238.147	8.21
238.524	8.13
238.901	6.31
239.278	6.52
239.655	6.42
240.032	5.65
240.409	6.79
240.785	6.27
241.162	6.1
241.539	5.24
241.915	5.19
242.292	5.14
242.668	5.73
243.045	5.75
243.421	5.85
243.798	6.23
244.174	6.33
244.551	6.52
244.927	6.57
245.303	6.22
245.679	5.92
246.056	5.64
246.432	5.69
246.808	6.04
247.184	5.92
247.56	6.04
247.936	6.42
248.312	6.17
248.688	6.53
249.064	6.5
249.44	6.51
249.815	6.6
250.191	6.59
250.567	6.22
250.943	5.99
251.318	6.04
251.694	5.92
252.069	6.1
252.445	6.46
252.82	6.7
253.196	6.94
253.571	7.33
253.947	7.63
254.322	7.58
254.697	7.13
255.073	7.17
255.448	6.9
255.823	6.54
256.198	6.43
256.573	6.1
256.948	6.16
257.323	6.19
257.698	6.04
258.073	5.92
258.448	6.19
258.823	6.01
259.198	5.92
259.573	5.66
259.948	5.59
260.322	5.14
260.697	5.1
261.072	5.21
261.446	5.16
261.821	4.98
262.195	4.89
262.57	5.05
262.944	5.08
263.319	5.05
263.693	5.07
264.067	5.06
264.442	5
264.816	4.87
265.19	4.71
265.564	4.63
265.938	4.65
266.313	4.67
266.687	4.98
267.061	5.01
267.435	5.12
267.809	4.94
268.183	5.32
268.556	5.1
268.93	5.08
269.304	5.12
269.678	5.26
270.051	5.43
270.425	5.34
270.799	5.2
271.172	5.15
271.546	5.13
271.919	5.25
272.293	5.33
272.666	5.39
273.04	5.52
273.413	5.57
273.787	5.48
274.16	5.22
274.533	5.31
274.906	5.3
275.279	5.25
275.653	5.54
276.026	5.43
276.399	5.35
276.772	5.42
277.145	5.27
277.518	5.18
277.891	5.13
278.263	5.07
278.636	5.2
279.009	5.3
279.382	5.25
279.755	5.03
280.127	4.88
280.5	4.81
280.872	4.84
281.245	4.79
281.617	4.82
281.99	4.82
282.362	4.71
282.735	4.7
283.107	4.76
283.479	4.75
283.852	4.77
284.224	5.01
284.596	4.9
284.968	5
285.34	5.04
285.713	4.93
286.085	4.9
286.457	4.79
286.829	4.67
287.201	4.78
287.572	4.87
287.944	4.86
288.316	4.97
288.688	4.9
289.06	4.95
289.431	4.97
289.803	5.01
290.175	5.02
290.546	5.05
290.918	5.17
291.289	4.97
291.661	4.94
292.032	4.93
292.403	4.74
292.775	4.73
293.146	4.7
293.517	4.78
293.889	4.91
294.26	4.94
294.631	5
295.002	5.05
295.373	4.95
295.744	5.1
296.115	4.99
296.486	5.16
296.857	5.24
297.228	5.32
297.599	5.27
297.97	5.33
298.34	5.29
298.711	5.35
299.082	5.44
299.452	5.47
299.823	5.39
300.194	5.61
300.564	5.69
300.935	5.8
301.305	5.83
301.676	5.65
302.046	5.81
302.416	5.88
302.787	5.88
303.157	5.91
303.527	5.92
303.897	5.83
304.267	5.82
304.637	5.72
305.008	5.74
305.378	5.76
305.748	5.67
306.117	5.6
306.487	5.47
306.857	5.5
307.227	5.53
307.597	5.53
307.967	5.4
308.336	5.38
308.706	5.23
309.076	5.34
309.445	5.57
309.815	5.52
310.184	5.43
310.554	5.38
310.923	5.45
311.293	5.42
311.662	5.58
312.031	5.45
312.401	5.44
312.77	5.34
313.139	5.43
313.508	5.53
313.877	5.48
314.246	5.45
314.616	5.53
314.985	5.44
315.353	5.48
315.722	5.72
316.091	5.64
316.46	5.81
316.829	5.68
317.198	5.5
317.567	5.55
317.935	5.74
318.304	5.8
318.672	5.86
319.041	5.84
319.41	5.89
319.778	5.81
320.147	5.86
320.515	5.95
320.883	5.82
321.252	5.78
321.62	5.85
321.988	6.01
322.357	5.98
322.725	6.03
323.093	5.87
323.461	5.66
323.829	5.78
324.197	5.72
324.565	5.8
324.933	5.81
325.301	5.62
325.669	5.55
326.037	5.68
326.405	5.64
326.772	5.75
327.14	5.61
327.508	5.71
327.875	5.68
328.243	5.65
328.61	5.75
328.978	5.66
329.346	5.56
329.713	5.53
330.08	5.38
330.448	5.47
330.815	5.6
331.182	5.66
331.55	5.6
331.917	5.49
332.284	5.44
332.651	5.43
333.018	5.4
333.385	5.37
333.752	5.39
334.119	5.36
334.486	5.29
334.853	5.45
335.22	5.36
335.587	5.37
335.954	5.28
336.32	5.15
336.687	5.23
337.054	5.38
337.42	5.39
337.787	5.42
338.153	5.37
338.52	5.32
338.886	5.29
339.253	5.18
339.619	5.3
339.986	5.22
340.352	5.19
340.718	5.21
341.084	5.13
341.451	5.04
341.817	5.06
342.183	4.89
342.549	4.83
342.915	4.88
343.281	4.82
343.647	4.85
344.013	4.83
344.379	4.76
344.745	4.72
345.11	4.71
345.476	4.69
345.842	4.58
346.208	4.63
346.573	4.66
346.939	4.83
347.304	4.83
347.67	4.95
348.035	5.03
348.401	5.11
348.766	5.18
349.132	5.15
349.497	5.17
349.862	5.26
350.228	5.19
350.593	5.3
350.958	5.4
351.323	5.32
351.688	5.33
352.053	5.38
352.418	5.45
352.783	5.44
353.148	5.46
353.513	5.56
353.878	5.44
354.243	5.39
354.608	5.41
354.972	5.37
355.337	5.43
355.702	5.41
356.066	5.41
356.431	5.36
356.795	5.3
357.16	5.33
357.524	5.24
357.889	5.26
358.253	5.13
358.618	5.14
358.982	5.2
359.346	5.27
359.71	5.32
360.075	5.28
360.439	5.23
360.803	5.26
361.167	5.2
361.531	5.25
361.895	5.31
362.259	5.25
362.623	5.23
362.987	5.17
363.351	5.16
363.714	5.18
364.078	5.2
364.442	5.23
364.806	5.22
365.169	5.3
365.533	5.39
365.896	5.47
366.26	5.44
366.623	5.36
366.987	5.35
367.35	5.33
367.714	5.33
368.077	5.35
368.44	5.37
368.803	5.36
369.167	5.37
369.53	5.31
369.893	5.32
370.256	5.33
370.619	5.28
370.982	5.23
371.345	5.21
371.708	5.19
372.071	5.12
372.434	5.1
372.797	5.11
373.159	5
373.522	4.93
373.885	4.93
374.247	5.06
374.61	5.04
374.973	5.03
375.335	5.03
375.698	4.99
376.06	4.95
376.423	4.98
376.785	4.96
377.147	5
377.51	4.95
377.872	4.97
378.234	4.93
378.596	4.95
378.958	4.87
379.321	4.83
379.683	4.85
380.045	4.81
380.407	4.82
380.769	4.82
381.13	4.86
381.492	4.8
381.854	4.77
382.216	4.72
382.578	4.72
382.939	4.68
383.301	4.72
383.663	4.68
384.024	4.67
384.386	4.67
384.747	4.61
385.109	4.62
385.47	4.59
385.832	4.64
386.193	4.64
386.554	4.66
386.916	4.73
387.277	4.75
387.638	4.78
387.999	4.75
388.36	4.76
388.721	4.72
389.082	4.78
389.443	4.82
389.804	4.86
390.165	4.86
390.526	4.87
390.887	4.86
391.248	4.93
391.609	4.9
391.969	4.89
392.33	4.91
392.691	4.9
393.051	4.94
393.412	4.96
393.772	4.99
394.133	5.03
394.493	5.01
394.854	5.02
395.214	4.96
395.574	4.98
395.935	5
396.295	5.05
396.655	5.02
397.015	5
397.376	5.03
397.736	5.01
398.096	5.04
398.456	5.01
398.816	4.96
399.176	4.97
399.535	4.98
399.895	4.95
400.255	4.95
400.615	4.91
400.975	4.87
401.334	4.84
401.694	4.83
402.054	4.83
402.413	4.8
402.773	4.84
403.132	4.78
403.492	4.73
403.851	4.71
404.211	4.67
404.57	4.65
404.929	4.62
405.288	4.61
405.648	4.61
406.007	4.56
406.366	4.56
406.725	4.56
407.084	4.58
407.443	4.57
407.802	4.54
408.161	4.55
408.52	4.55
408.879	4.55
409.238	4.51
409.596	4.47
409.955	4.49
410.314	4.48
410.673	4.51
411.031	4.53
411.39	4.54
411.748	4.54
412.107	4.52
412.465	4.56
412.824	4.53
413.182	4.5
413.54	4.59
413.899	4.58
414.257	4.56
414.615	4.56
414.974	4.59
415.332	4.59
415.69	4.56
416.048	4.56
416.406	4.56
416.764	4.56
417.122	4.57
417.48	4.55
417.838	4.55
418.195	4.54
418.553	4.5
418.911	4.48
419.269	4.49
419.626	4.48
419.984	4.44
420.342	4.44
420.699	4.43
421.057	4.4
421.414	4.4
421.772	4.41
422.129	4.41
422.486	4.39
422.844	4.4
423.201	4.4
423.558	4.4
423.915	4.4
424.273	4.4
424.63	4.4
424.987	4.39
425.344	4.39
425.701	4.37
426.058	4.39
426.415	4.41
426.772	4.39
427.128	4.42
427.485	4.43
427.842	4.43
428.199	4.45
428.555	4.46
428.912	4.46
429.269	4.43
429.625	4.42
429.982	4.44
430.338	4.42
430.695	4.42
431.051	4.43
431.407	4.43
431.764	4.4
432.12	4.4
432.476	4.42
432.832	4.43
433.189	4.43
433.545	4.4
433.901	4.39
434.257	4.38
434.613	4.35
434.969	4.36
435.325	4.36
435.681	4.36
436.036	4.36
436.392	4.37
436.748	4.39
437.104	4.38
437.459	4.35
437.815	4.36
438.171	4.38
438.526	4.37
438.882	4.36
439.237	4.38
439.593	4.39
439.948	4.34
440.304	4.32
440.659	4.32
441.014	4.33
441.369	4.32
441.725	4.33
442.08	4.34
442.435	4.32
442.79	4.31
443.145	4.29
443.5	4.27
443.855	4.26
444.21	4.25
444.565	4.28
444.92	4.29
445.275	4.28
445.629	4.25
445.984	4.25
446.339	4.26
446.693	4.24
447.048	4.23
447.403	4.24
447.757	4.22
448.112	4.22
448.466	4.24
448.82	4.24
449.175	4.24
449.529	4.25
449.883	4.26
450.238	4.26
450.592	4.27
450.946	4.28
451.3	4.27
451.654	4.25
452.008	4.23
452.362	4.23
452.716	4.24
453.07	4.25
453.424	4.24
453.778	4.24
454.132	4.25
454.486	4.24
454.839	4.25
455.193	4.28
455.547	4.27
455.9	4.27
456.254	4.26
456.607	4.26
456.961	4.24
457.314	4.21
457.668	4.23
458.021	4.23
458.375	4.23
458.728	4.24
459.081	4.28
459.434	4.29
459.787	4.29
460.141	4.29
460.494	4.29
460.847	4.29
461.2	4.28
461.553	4.29
461.906	4.31
462.259	4.3
462.611	4.32
462.964	4.33
463.317	4.33
463.67	4.33
464.022	4.34
464.375	4.36
464.728	4.38
465.08	4.38
465.433	4.39
465.785	4.4
466.138	4.39
466.49	4.37
466.843	4.36
467.195	4.36
467.547	4.36
467.899	4.36
468.252	4.38
468.604	4.39
468.956	4.36
469.308	4.34
469.66	4.38
470.012	4.36
470.364	4.37
470.716	4.38
471.068	4.41
471.42	4.41
471.772	4.4
472.123	4.39
472.475	4.4
472.827	4.39
473.178	4.38
473.53	4.38
473.882	4.39
474.233	4.42
474.585	4.42
474.936	4.43
475.288	4.42
475.639	4.44
475.99	4.43
476.342	4.45
476.693	4.49
477.044	4.48
477.395	4.47
477.746	4.46
478.097	4.43
478.448	4.39
478.8	4.39
479.15	4.38
479.501	4.37
479.852	4.34
480.203	4.34
480.554	4.36
480.905	4.36
481.255	4.34
481.606	4.33
481.957	4.34
482.307	4.34
482.658	4.36
483.009	4.34
483.359	4.33
483.709	4.34
484.06	4.33
484.41	4.33
484.761	4.33
485.111	4.33
485.461	4.34
485.811	4.35
486.162	4.35
486.512	4.36
486.862	4.37
487.212	4.39
487.562	4.39
487.912	4.39
488.262	4.38
488.612	4.41
488.961	4.41
489.311	4.41
489.661	4.41
490.011	4.4
490.36	4.4
490.71	4.41
491.06	4.4
491.409	4.39
491.759	4.39
492.108	4.38
492.458	4.39
492.807	4.38
493.157	4.39
493.506	4.4
493.855	4.4
494.204	4.41
494.554	4.41
494.903	4.41
495.252	4.42
495.601	4.44
495.95	4.46
496.299	4.47
496.648	4.47
496.997	4.47
497.346	4.48
497.695	4.51
498.043	4.53
498.392	4.55
498.741	4.58
499.09	4.58
499.438	4.63
499.787	4.64
500.135	4.65
500.484	4.66
500.832	4.67
501.181	4.68
501.529	4.68
501.878	4.68
502.226	4.68
502.574	4.68
502.923	4.69
503.271	4.66
503.619	4.65
503.967	4.64
504.315	4.64
504.663	4.65
505.011	4.65
505.359	4.65
505.707	4.65
506.055	4.66
506.403	4.67
506.751	4.65
507.098	4.67
507.446	4.7
507.794	4.69
508.141	4.68
508.489	4.68
508.837	4.68
509.184	4.69
509.531	4.7
509.879	4.72
510.226	4.73
510.574	4.77
510.921	4.77
511.268	4.82
511.616	4.85
511.963	4.87
512.31	4.88
512.657	4.9
513.004	4.89
513.351	4.89
513.698	4.91
514.045	4.93
514.392	4.92
514.739	4.92
515.086	4.96
515.432	5
515.779	4.98
516.126	5.03
516.473	5.06
516.819	5.06
517.166	5.06
517.512	5.07
517.859	5.08
518.205	5.07
518.552	5.06
518.898	5.05
519.245	5.05
519.591	5.05
519.937	5.08
520.283	5.09
520.629	5.11
520.976	5.12
521.322	5.11
521.668	5.11
522.014	5.13
522.36	5.11
522.706	5.13
523.052	5.17
523.398	5.15
523.743	5.16
524.089	5.17
524.435	5.17
524.781	5.18
525.126	5.17
525.472	5.21
525.817	5.24
526.163	5.25
526.509	5.28
526.854	5.27
527.199	5.28
527.545	5.28
527.89	5.28
528.235	5.29
528.581	5.31
528.926	5.32
529.271	5.33
529.616	5.33
529.961	5.33
530.306	5.34
530.651	5.33
530.996	5.34
531.341	5.35
531.686	5.37
532.031	5.38
532.376	5.39
532.721	5.39
533.065	5.4
533.41	5.41
533.755	5.41
534.099	5.42
534.444	5.41
534.788	5.41
535.133	5.44
535.477	5.45
535.822	5.45
536.166	5.45
536.51	5.46
536.855	5.49
537.199	5.49
537.543	5.51
537.887	5.54
538.231	5.54
538.576	5.54
538.92	5.54
539.264	5.57
539.608	5.58
539.951	5.58
540.295	5.58
540.639	5.59
540.983	5.59
541.327	5.63
541.671	5.64
542.014	5.66
542.358	5.65
542.701	5.65
543.045	5.68
543.389	5.66
543.732	5.65
544.075	5.67
544.419	5.68
544.762	5.66
545.105	5.67
545.449	5.69
545.792	5.7
546.135	5.7
546.478	5.7
546.821	5.71
547.165	5.71
547.508	5.72
547.851	5.7
548.194	5.69
548.536	5.65
548.879	5.68
549.222	5.67
549.565	5.69
549.908	5.69
550.25	5.68
550.593	5.72
550.936	5.73
551.278	5.69
551.621	5.67
551.963	5.7
552.306	5.67
552.648	5.67
552.991	5.67
553.333	5.69
553.675	5.67
554.017	5.66
554.36	5.67
554.702	5.67
555.044	5.69
555.386	5.72
555.728	5.69
556.07	5.68
556.412	5.68
556.754	5.65
557.096	5.66
557.438	5.64
557.78	5.65
558.121	5.66
558.463	5.69
558.805	5.7
559.147	5.78
559.488	5.76
559.83	5.72
560.171	5.72
560.513	5.71
560.854	5.74
561.196	5.74
561.537	5.77
561.878	5.78
562.22	5.81
562.561	5.84
562.902	5.84
563.243	5.84
563.584	5.87
563.925	5.89
564.266	5.93
564.607	5.95
564.948	5.93
565.289	5.95
565.63	5.91
565.971	5.94
566.312	5.85
566.653	5.9
566.993	5.95
567.334	5.98
567.675	6.01
568.015	6.02
568.356	6.01
568.696	6
569.037	6
569.377	5.98
569.718	5.97
570.058	5.99
570.398	5.99
570.739	5.98
571.079	5.96
571.419	5.94
571.759	5.93
572.099	5.95
572.439	5.93
572.779	5.97
573.119	5.98
573.459	6
573.799	5.98
574.139	6.01
574.479	6.01
574.819	6.03
575.158	6
575.498	6.03
575.838	6.04
576.177	6.03
576.517	6.01
576.856	6.01
577.196	6.02
577.535	6.03
577.875	6.04
578.214	6.07
578.553	6.1
578.893	6.17
579.232	6.18
579.571	6.21
579.91	6.2
580.25	6.18
580.589	6.18
580.928	6.18
581.267	6.15
581.606	6.16
581.945	6.09
582.283	6.11
582.622	6.1
582.961	6.09
583.3	6.13
583.639	6.17
583.977	6.17
584.316	6.22
584.654	6.23
584.993	6.21
585.332	6.22
585.67	6.19
586.008	6.16
586.347	6.16
586.685	6.13
587.024	6.17
587.362	6.17
587.7	6.19
588.038	6.25
588.376	6.21
588.715	6.2
589.053	6.21
589.391	6.23
589.729	6.2
590.067	6.25
590.404	6.23
590.742	6.22
591.08	6.2
591.418	6.2
591.756	6.22
592.093	6.23
592.431	6.26
592.769	6.31
593.106	6.33
593.444	6.34
593.781	6.37
594.119	6.34
594.456	6.34
594.793	6.32
595.131	6.31
595.468	6.37
595.805	6.42
596.143	6.46
596.48	6.48
596.817	6.51
597.154	6.48
597.491	6.45
597.828	6.43
598.165	6.4
598.502	6.36
598.839	6.35
599.176	6.34
599.512	6.31
599.849	6.22
600.186	6.19
600.523	6.2
600.859	6.16
601.196	6.18
601.532	6.13
601.869	6.17
602.205	6.15
602.542	6.15
602.878	6.1
603.215	6.06
603.551	6.02
603.887	6.04
604.223	6.05
604.56	6.08
604.896	6.15
605.232	6.18
605.568	6.2
605.904	6.21
606.24	6.21
606.576	6.23
606.912	6.27
607.248	6.25
607.583	6.25
607.919	6.28
608.255	6.27
608.591	6.35
608.926	6.32
609.262	6.33
609.597	6.27
609.933	6.26
610.268	6.31
610.604	6.34
610.939	6.31
611.275	6.33
611.61	6.34
611.945	6.29
612.281	6.35
612.616	6.38
612.951	6.38
613.286	6.4
613.621	6.42
613.956	6.46
614.291	6.48
614.626	6.5
614.961	6.48
615.296	6.54
615.631	6.5
615.966	6.54
616.3	6.56
616.635	6.61
616.97	6.62
617.304	6.62
617.639	6.63
617.973	6.62
618.308	6.55
618.642	6.52
618.977	6.54
619.311	6.51
619.646	6.56
619.98	6.55
620.314	6.58
620.648	6.56
620.983	6.5
621.317	6.54
621.651	6.55
621.985	6.61
622.319	6.55
622.653	6.57
622.987	6.54
623.321	6.53
623.655	6.58
623.988	6.61
624.322	6.6
624.656	6.58
624.99	6.58
625.323	6.63
625.657	6.71
625.99	6.69
626.324	6.68
626.657	6.63
626.991	6.62
627.324	6.58
627.658	6.57
627.991	6.64
628.324	6.59
628.657	6.6
628.991	6.58
629.324	6.6
629.657	6.55
629.99	6.53
630.323	6.55
630.656	6.5
630.989	6.48
631.322	6.46
631.655	6.45
631.987	6.46
632.32	6.44
632.653	6.41
632.986	6.4
633.318	6.37
633.651	6.36
633.984	6.32
634.316	6.34
634.649	6.3
634.981	6.29
635.313	6.31
635.646	6.26
635.978	6.26
636.31	6.23
636.643	6.26
636.975	6.3
637.307	6.28
637.639	6.28
637.971	6.3
638.303	6.27
638.635	6.29
638.967	6.33
639.299	6.38
639.631	6.37
639.963	6.39
640.295	6.51
640.626	6.54
640.958	6.57
641.29	6.6
641.621	6.59
641.953	6.49
642.285	6.49
642.616	6.56
642.948	6.58
643.279	6.57
643.61	6.67
643.942	6.66
644.273	6.63
644.604	6.67
644.936	6.69
645.267	6.65
645.598	6.66
645.929	6.6
646.26	6.57
646.591	6.61
646.922	6.63
647.253	6.5
647.584	6.52
647.915	6.56
648.245	6.53
648.576	6.58
648.907	6.67
649.238	6.73
649.568	6.73
649.899	6.73
650.229	6.8
650.56	6.77
650.89	6.76
651.221	6.8
651.551	6.73
651.882	6.71
652.212	6.77
652.542	6.86
652.872	6.88
653.203	6.85
653.533	6.87
653.863	6.88
654.193	6.91
654.523	6.88
654.853	6.98
655.183	6.99
655.513	7.19
655.843	7.19
656.172	7.2
656.502	7.17
656.832	7.11
657.162	7.05
657.491	7.12
657.821	7.1
658.15	7.15
658.48	7.25
658.809	7.29
659.139	7.4
659.468	7.36
659.798	7.41
660.127	7.4
660.456	7.34
660.785	7.31
661.115	7.36
661.444	7.48
661.773	7.41
662.102	7.43
662.431	7.26
662.76	7.19
663.089	7.2
663.418	7.21
663.747	7.31
664.076	7.27
664.404	7.17
664.733	7.2
665.062	7.26
665.39	7.21
665.719	7.18
666.048	7.08
666.376	7.03
666.705	7.11
667.033	7.19
667.362	7.29
667.69	7.34
668.018	7.33
668.347	7.22
668.675	7.26
669.003	7.25
669.331	7.35
669.659	7.38
669.987	7.4
670.315	7.41
670.643	7.39
670.971	7.44
671.299	7.5
671.627	7.52
671.955	7.47
672.283	7.59
672.61	7.56
672.938	7.65
673.266	7.7
673.593	7.55
673.921	7.61
674.249	7.48
674.576	7.52
674.904	7.53
675.231	7.69
675.558	7.6
675.886	7.66
676.213	7.62
676.54	7.71
676.867	7.64
677.195	7.72
677.522	7.72
677.849	7.74
678.176	7.8
678.503	7.8
678.83	7.83
679.157	7.74
679.484	7.71
679.81	7.63
680.137	7.63
680.464	7.63
680.791	7.57
681.117	7.62
681.444	7.55
681.771	7.58
682.097	7.51
682.424	7.55
682.75	7.46
683.077	7.45
683.403	7.52
683.729	7.58
684.056	7.49
684.382	7.5
684.708	7.52
685.034	7.42
685.36	7.38
685.686	7.29
686.012	7.31
686.339	7.35
686.664	7.46
686.99	7.42
687.316	7.52
687.642	7.52
687.968	7.63
688.294	7.65
688.619	7.61
688.945	7.4
689.271	7.4
689.596	7.56
689.922	7.59
690.247	7.58
690.573	7.63
690.898	7.75
691.224	7.72
691.549	7.72
691.874	7.77
692.2	7.97
692.525	8.02
692.85	7.99
693.175	8.15
693.5	8.09
693.825	8.24
694.15	8.02
694.475	8.03
694.8	8
695.125	8.03
695.45	7.92
695.775	8.14
696.099	8.12
696.424	8.02
696.749	8.01
697.073	7.84
697.398	7.9
697.723	7.87
698.047	7.91
698.372	7.95
698.696	7.94
699.02	7.83
699.345	7.81
699.669	7.83
699.993	7.8
700.318	7.89
700.642	7.8
700.966	7.87
701.29	7.86
701.614	7.74
701.938	7.73
702.262	7.87
702.586	7.86
702.91	7.98
703.234	7.9
703.557	7.91
703.881	8.06
704.205	7.91
704.529	7.9
704.852	7.9
705.176	7.91
705.499	7.98
705.823	8
706.146	7.97
706.47	7.99
706.793	7.98
707.117	7.87
707.44	7.96
707.763	7.99
708.086	8.11
708.409	8.28
708.733	8.27
709.056	8.35
709.379	8.32
709.702	8.21
710.025	8.39
710.348	8.37
710.671	8.43
710.993	8.35
711.316	8.37
711.639	8.4
711.962	8.48
712.284	8.43
712.607	8.46
712.93	8.42
713.252	8.38
713.575	8.36
713.897	8.29
714.22	8.27
714.542	8.33
714.864	8.31
715.187	8.22
715.509	8.36
715.831	8.32
716.153	8.19
716.475	8.33
716.798	8.32
717.12	8.26
717.442	8.21
717.764	8.47
718.085	8.41
718.407	8.33
718.729	8.36
719.051	8.38
719.373	8.35
719.695	8.57
720.016	8.43
720.338	8.51
720.659	8.61
720.981	8.52
721.302	8.73
721.624	8.62
721.945	8.78
722.267	8.66
722.588	8.64
722.909	8.71
723.231	8.49
723.552	8.6
723.873	8.58
724.194	8.59
724.515	8.37
724.836	8.45
725.157	8.45
725.478	8.28
725.799	8.38
726.12	8.54
726.441	8.51
726.762	8.66
727.083	8.52
727.403	8.52
727.724	8.64
728.045	8.64
728.365	8.76
728.686	8.73
729.006	8.82
729.327	8.93
729.647	8.95
729.967	9.08
730.288	8.86
730.608	9.12
730.928	9.18
731.249	9.45
731.569	9.43
731.889	9.48
732.209	9.44
732.529	9.29
732.849	9.23
733.169	9.26
733.489	9.35
733.809	9.46
734.129	9.46
734.448	9.54
734.768	9.43
735.088	9.44
735.408	9.58
735.727	9.55
736.047	9.55
736.366	9.79
736.686	9.73
737.005	9.96
737.325	9.84
737.644	9.81
737.963	9.55
738.283	9.71
738.602	9.94
738.921	10.09
739.24	10.38
739.56	10.46
739.879	10.33
740.198	10.27
740.517	10.33
740.836	10.4
741.155	10.28
741.473	10.17
741.792	10.08
742.111	9.93
742.43	9.92
742.748	10.11
743.067	9.88
743.386	9.8
743.704	9.87
744.023	9.79
744.341	9.8
744.66	9.92
744.978	9.77
745.297	9.38
745.615	9.09
745.933	9.13
746.252	9.13
746.57	9.3
746.888	9.48
747.206	9.27
747.524	9.31
747.842	9.2
748.16	9.29
748.478	9.48
748.796	9.61
749.114	9.55
749.432	9.38
749.749	9.31
750.067	9.29
750.385	9.22
750.703	9.35
751.02	9.44
751.338	9.19
751.655	9.25
751.973	9.61
752.29	9.81
752.608	9.75
752.925	9.79
753.242	9.78
753.56	9.48
753.877	9.54
754.194	9.45
754.511	9.62
754.828	9.65
755.145	9.4
755.462	9.42
755.779	9.43
756.096	9.34
756.413	9.49
756.73	9.83
757.047	9.75
757.364	9.56
757.68	9.36
757.997	9.72
758.314	9.91
758.63	9.83
758.947	9.78
759.264	9.58
759.58	9.68
759.896	9.92
760.213	10.15
760.529	10.25
760.846	10.42
761.162	10.36
761.478	10.46
761.794	10.71
762.11	10.59
762.426	10.77
762.743	10.86
763.059	10.92
763.375	10.87
763.69	10.68
764.006	10.77
764.322	10.86
764.638	10.83
764.954	10.69
765.27	10.86
765.585	11.16
765.901	11.13
766.216	10.8
766.532	10.59
766.848	10.83
767.163	10.61
767.478	10.5
767.794	10.68
768.109	10.75
768.424	10.69
768.74	10.74
769.055	10.61
769.37	10.43
769.685	10.43
770	10.23
770.315	10.93
770.63	11.18
770.945	11.09
771.26	11.1
771.575	11.11
771.89	10.7
772.205	10.43
772.52	10.37
772.834	10.72
773.149	10.87
773.464	10.28
773.778	10.46
774.093	10.58
774.407	10.61
774.722	10.32
775.036	10.08
775.351	10.12
775.665	10.29
775.979	10.43
776.293	10.46
776.608	10.85
776.922	10.37
777.236	10.26
777.55	10.08
777.864	10.01
778.178	10.25
778.492	10.34
778.806	10.33
779.12	10.63
779.434	10.5
779.747	10.54
780.061	10.7
780.375	11.13
780.689	11.05
781.002	10.84
781.316	10.82
781.629	11.06
781.943	10.92
782.256	10.79
782.57	10.58
782.883	10.3
783.196	10.24
783.51	10.05
783.823	10.06
784.136	10.19
784.449	10.04
784.762	10
785.075	9.75
785.388	9.86
785.701	9.47
786.014	9.59
786.327	9.78
786.64	10.55
786.953	10.01
787.266	10.27
787.578	10.46
787.891	10.54
788.204	10.11
788.516	10.7
788.829	11.04
789.141	11.39
789.454	11.66
789.766	11.71
790.079	11.73
790.391	12.1
790.703	12.45
791.016	13.05
791.328	13.14
791.64	13.3
791.952	13.36
792.264	13.67
792.576	13.83
792.888	13.33
793.2	12.45
793.512	13.06
793.824	13.37
794.136	13.3
794.448	13.12
794.76	13.44
795.071	12.85
795.383	12.46
795.695	12.5
796.006	12.25
796.318	12.38
796.629	12.27
796.941	12.21
797.252	11.98
797.564	11.69
797.875	11.44
798.186	12.12
798.497	12.1
798.809	12.15
799.12	11.59
799.431	12.19
799.742	12.51
800.053	11.91
800.364	11.47
800.675	11.46
800.986	12.4
801.297	12.56
801.608	12.66
801.918	12.94
802.229	12.73
802.54	12.83
802.851	12.54
803.161	13.01
803.472	12.78
803.782	13.23
804.093	13.08
804.403	13.27
804.714	12.57
805.024	12.77
805.334	13.04
805.645	13.59
805.955	13.06
806.265	12.87
806.575	13.26
806.885	13.01
807.195	13.21
807.505	12.33
807.815	12.43
808.125	12.91
808.435	12.72
808.745	13.35
809.055	13.84
809.365	13.96
809.674	13.57
809.984	14.1
810.294	13.51
810.603	13.16
810.913	13.15
811.222	13.19
811.532	12.89
811.841	13.15
812.151	13.72
812.46	13.54
812.769	13.45
813.079	13.6
813.388	14.11
813.697	13.18
814.006	13.52
814.315	13.55
814.624	12.71
814.933	12.07
815.242	11.79
815.551	11.85
815.86	11.95
816.169	12.06
816.478	11.67
816.786	11.71
817.095	12.32
817.404	12.8
817.712	13.23
818.021	13.66
818.33	13.1
818.638	12.8
818.947	12.64
819.255	12.95
819.563	12.85
819.872	12.64
820.18	12.58
820.488	12.51
820.796	12.67
821.105	12.88
821.413	13.15
821.721	12.97
822.029	12.97
822.337	12.86
822.645	12.85
822.953	12.92
823.26	12.94
823.568	12.85
823.876	12.77
824.184	12.7
824.491	12.61
824.799	12.7
825.107	12.51
825.414	12.68
825.722	12.6
826.029	12.8
826.337	12.89
826.644	13.08
826.951	13.13
827.259	13.15
827.566	13.08
827.873	12.97
828.18	13.07
828.488	12.77
828.795	12.94
829.102	12.86
829.409	12.46
829.716	12.72
830.023	12.81
830.329	12.6
830.636	12.52
830.943	12.28
831.25	12.19
831.557	12.45
831.863	12.67
832.17	12.7
832.476	12.33
832.783	12.27
833.089	12.31
833.396	12.15
833.702	12.25
834.009	12.28
834.315	12.53
834.621	12.74
834.928	13.21
835.234	13.31
835.54	13.67
835.846	14.26
836.152	14.51
836.458	14.53
836.764	14.83
837.07	15.42
837.376	15.94
837.682	16.05
837.988	16.27
838.293	16.04
838.599	16.44
838.905	16.71
839.211	17.05
839.516	17.79
839.822	18.54
840.127	19.07
840.433	19.62
840.738	19.28
841.044	19.45
841.349	19.22
841.654	18.24
841.959	18.93
842.265	19.1
842.57	19.36
842.875	19.47
843.18	19.74
843.485	19.46
843.79	19.87
844.095	19.37
844.4	19.18
844.705	19.4
845.01	20.23
845.315	20.82
845.619	20.59
845.924	20.41
846.229	19.91
846.533	19.51
846.838	18.82
847.142	19.05
847.447	19.93
847.751	20.7
848.056	23.39
848.36	23.53
848.664	23.55
848.969	21.41
849.273	23.65
849.577	24.58
849.881	25.01
850.185	24.2
850.489	26.47
850.794	26.34
851.097	26.75
851.401	24.64
851.705	22.97
852.009	22.12
852.313	21.51
852.617	20.89
852.92	22.03
853.224	23.74
853.528	23.94
853.831	23.29
854.135	22.97
854.438	21.93
854.742	21.04
855.045	20.13
855.349	21.76
855.652	20.79
855.955	20.42
856.259	20.63
856.562	22.16
856.865	23.36
857.168	23.2
857.471	22.77
857.774	24.86
858.077	26
858.38	27.93
858.683	28.83
858.986	30.94
859.289	30.42
859.592	29.63
859.894	28.29
860.197	26.43
860.5	26.84
860.802	29.5
861.105	28.53
861.407	29.52
861.71	30.3
862.012	30.03
862.315	30.07
862.617	29.79
862.919	27.85
863.222	26.44
863.524	27.05
863.826	26.83
864.128	24.23
864.43	26.39
864.732	28.56
865.034	29.34
865.336	28.53
865.638	28.53
865.94	28.39
866.242	31.23
866.544	34.46
866.846	36.23
867.147	31.51
867.449	32.15
867.751	30.29
868.052	27.85
868.354	27.77
868.655	27.15
868.957	26.53
869.258	28.29
869.56	26.24
869.861	26.7
870.162	26.94
870.463	31.85
870.765	29.08
871.066	25.74
871.367	21.78
871.668	23.44
871.969	22.56
872.27	22.98
872.571	22.04
872.872	19.42
873.173	19.45
873.473	21.14
873.774	21.98
874.075	27.37
874.376	28.49
874.676	23.97
874.977	24.11
875.277	21.78
875.578	19.88
875.878	21.16
876.179	21.47
876.479	21.88
876.78	18.51
877.08	18.83
877.38	19.55
877.68	22.12
877.981	20.99
878.281	20.37
878.581	20.69
