Data from BA51245_Reflection_00006.txt Node
Date: Tue Nov 19 11:51:43 EST 2019
User: vgr7
Spectrometer: USB2G7710
Scans to average: 3
Trigger mode: 4
Integration Time (sec): 2.000000E-2
Electric dark correction enabled: true
Boxcar width: 10
XAxis mode: Wavelengths
Number of Pixels in Spectrum: 2048
>>>>>Begin Spectral Data<<<<<
177.721	561.35
178.105	-225.4
178.488	-18.36
178.871	-3.7
179.254	35.09
179.636	60.11
180.019	-50.79
180.402	7.14
180.785	170.37
181.168	468.69
181.55	621.51
181.933	176.44
182.316	100.72
182.698	111
183.081	123.59
183.463	106.11
183.846	195.8
184.228	342.97
184.611	225.34
184.993	1226.67
185.376	-262.88
185.758	-157.12
186.14	-308.64
186.522	-281.56
186.904	-208.47
187.287	-148.62
187.669	-118.52
188.051	-167.6
188.433	-198.13
188.815	-159.07
189.197	-165
189.579	-124.88
189.961	-103.51
190.342	-100.87
190.724	-129.41
191.106	-116.64
191.488	-111.85
191.869	-108.03
192.251	-96.18
192.633	-102.11
193.014	-149.83
193.396	-199.65
193.777	-183.06
194.159	-127.33
194.54	-109.77
194.922	-97.58
195.303	-128.05
195.684	-150.88
196.065	-142.28
196.447	-128.96
196.828	-119.41
197.209	-97.32
197.59	-125.42
197.971	-114.21
198.352	-82.65
198.733	-76.62
199.114	-69.66
199.495	-89.67
199.876	-89.53
200.257	-89.44
200.638	-83.35
201.018	-68.58
201.399	-65.56
201.78	-60.72
202.16	-79.57
202.541	-97.99
202.922	-98.15
203.302	-95.45
203.683	-107.43
204.063	-98.82
204.444	-83.19
204.824	-101.59
205.204	-99.11
205.585	-100.82
205.965	-90.98
206.345	-106.25
206.725	-90.69
207.106	-101.95
207.486	-91.05
207.866	-78.1
208.246	-84.79
208.626	-91.18
209.006	-77.71
209.386	-76.3
209.766	-84.55
210.145	-63.48
210.525	-59.32
210.905	-56.31
211.285	-40.65
211.664	-37.14
212.044	-43.07
212.424	-47.91
212.803	-56.82
213.183	-59.26
213.562	-53.28
213.942	-65.24
214.321	-65.74
214.701	-75.59
215.08	-74.36
215.459	-67.77
215.838	-91.33
216.218	-94.9
216.597	-94.19
216.976	-140.01
217.355	-126.7
217.734	-135.89
218.113	-146.51
218.492	-178.73
218.871	-176.05
219.25	-209.73
219.629	-265.91
220.008	-256.17
220.387	-206.43
220.766	-121.95
221.144	-108.96
221.523	-98.71
221.902	-88.84
222.28	-85.82
222.659	-63.46
223.037	-70.91
223.416	-60.93
223.794	-47.38
224.173	-43.22
224.551	-42.87
224.929	-41.42
225.308	-44.12
225.686	-42.69
226.064	-48.9
226.442	-40.89
226.821	-33.81
227.199	-31.38
227.577	-29.38
227.955	-24.06
228.333	-24.39
228.711	-22.96
229.089	-18.15
229.467	-19.26
229.845	-19.94
230.222	-17.35
230.6	-22.58
230.978	-17.5
231.356	-21.13
231.733	-18.39
232.111	-15.31
232.488	-13.06
232.866	-12.01
233.243	-11.07
233.621	-9.45
233.998	-9.83
234.376	-8.41
234.753	-7.83
235.13	-6.98
235.508	-7.53
235.885	-9.8
236.262	-11.38
236.639	-11.18
237.016	-11.54
237.393	-9.83
237.77	-8.12
238.147	-6.55
238.524	-5.31
238.901	-5.65
239.278	-4.47
239.655	-4.46
240.032	-3.83
240.409	-3.69
240.785	-2.73
241.162	-1.96
241.539	-1.59
241.915	-0.55
242.292	-0.82
242.668	-0.53
243.045	-0.04
243.421	1.05
243.798	1.95
244.174	2.41
244.551	2.56
244.927	2.58
245.303	2.54
245.679	2.93
246.056	2.68
246.432	2.87
246.808	3.04
247.184	3
247.56	2.89
247.936	2.87
248.312	3.23
248.688	3.44
249.064	3.55
249.44	3.4
249.815	3.63
250.191	3.82
250.567	3.67
250.943	3.44
251.318	2.93
251.694	2.67
252.069	2.71
252.445	2.62
252.82	2.55
253.196	2.32
253.571	1.85
253.947	1.96
254.322	1.63
254.697	1.63
255.073	1.72
255.448	2.2
255.823	2.18
256.198	1.93
256.573	2.1
256.948	2.05
257.323	2.33
257.698	2.04
258.073	2.16
258.448	2.54
258.823	2.66
259.198	3.04
259.573	2.99
259.948	3
260.322	2.85
260.697	2.95
261.072	3.07
261.446	3.22
261.821	3.24
262.195	3.35
262.57	3.41
262.944	3.45
263.319	3.25
263.693	3.1
264.067	3.09
264.442	2.9
264.816	2.97
265.19	2.77
265.564	2.83
265.938	2.59
266.313	2.15
266.687	2.26
267.061	2.1
267.435	2.24
267.809	2.3
268.183	2.49
268.556	2.52
268.93	2.68
269.304	2.6
269.678	2.83
270.051	2.84
270.425	2.85
270.799	2.85
271.172	2.99
271.546	3.08
271.919	3.25
272.293	3.35
272.666	3.25
273.04	3.29
273.413	3.17
273.787	3.17
274.16	3.29
274.533	3.15
274.906	3.24
275.279	3.09
275.653	3.11
276.026	3.02
276.399	2.84
276.772	2.84
277.145	2.8
277.518	2.52
277.891	2.61
278.263	2.74
278.636	2.83
279.009	2.71
279.382	2.72
279.755	2.53
280.127	2.38
280.5	2.33
280.872	2.54
281.245	2.68
281.617	2.7
281.99	2.64
282.362	2.75
282.735	2.55
283.107	2.66
283.479	2.61
283.852	2.88
284.224	2.96
284.596	2.94
284.968	2.95
285.34	2.94
285.713	2.92
286.085	2.81
286.457	2.76
286.829	2.83
287.201	2.84
287.572	2.96
287.944	2.98
288.316	3.03
288.688	3.12
289.06	3.08
289.431	3.28
289.803	3.41
290.175	3.38
290.546	3.43
290.918	3.42
291.289	3.41
291.661	3.2
292.032	3.17
292.403	3.12
292.775	3.01
293.146	3.1
293.517	3.15
293.889	3.15
294.26	3.18
294.631	3.22
295.002	3.28
295.373	3.32
295.744	3.34
296.115	3.34
296.486	3.17
296.857	3.24
297.228	2.97
297.599	3.01
297.97	2.95
298.34	3
298.711	3.03
299.082	2.88
299.452	2.88
299.823	2.94
300.194	3.04
300.564	3.02
300.935	3.24
301.305	3.18
301.676	3.08
302.046	2.98
302.416	2.96
302.787	2.87
303.157	2.66
303.527	2.68
303.897	2.55
304.267	2.61
304.637	2.61
305.008	2.75
305.378	2.78
305.748	2.78
306.117	2.64
306.487	2.52
306.857	2.86
307.227	3.05
307.597	3.13
307.967	3.07
308.336	3.23
308.706	3.09
309.076	3.16
309.445	3.22
309.815	3.27
310.184	3.25
310.554	3.35
310.923	3.39
311.293	3.32
311.662	3.31
312.031	3.24
312.401	3.2
312.77	3.17
313.139	3.06
313.508	2.95
313.877	3.06
314.246	3.09
314.616	2.9
314.985	2.66
315.353	2.65
315.722	2.59
316.091	2.49
316.46	2.41
316.829	2.28
317.198	2.3
317.567	2.24
317.935	2.12
318.304	2.03
318.672	2.16
319.041	2.22
319.41	2.41
319.778	2.57
320.147	2.64
320.515	2.54
320.883	2.56
321.252	2.62
321.62	2.5
321.988	2.63
322.357	2.82
322.725	3.03
323.093	2.81
323.461	2.94
323.829	2.95
324.197	2.99
324.565	2.88
324.933	2.71
325.301	2.54
325.669	2.56
326.037	2.51
326.405	2.61
326.772	2.59
327.14	2.3
327.508	2.09
327.875	2.14
328.243	2.16
328.61	2.09
328.978	2.11
329.346	2.14
329.713	2.06
330.08	2.06
330.448	1.92
330.815	1.95
331.182	1.82
331.55	1.77
331.917	1.66
332.284	1.65
332.651	1.7
333.018	1.75
333.385	1.81
333.752	1.97
334.119	1.87
334.486	1.93
334.853	2.01
335.22	2.06
335.587	2.03
335.954	2.16
336.32	2.16
336.687	2.21
337.054	2.13
337.42	2.14
337.787	1.88
338.153	1.9
338.52	2.06
338.886	2.11
339.253	2.14
339.619	2.22
339.986	2.31
340.352	2.55
340.718	2.73
341.084	2.83
341.451	2.74
341.817	2.72
342.183	2.64
342.549	2.75
342.915	2.83
343.281	2.72
343.647	2.68
344.013	2.75
344.379	2.74
344.745	2.84
345.11	2.74
345.476	2.91
345.842	2.94
346.208	2.85
346.573	2.82
346.939	2.89
347.304	2.89
347.67	2.84
348.035	2.83
348.401	2.81
348.766	2.71
349.132	2.79
349.497	2.78
349.862	2.78
350.228	2.64
350.593	2.58
350.958	2.67
351.323	2.71
351.688	2.76
352.053	2.8
352.418	2.86
352.783	3.07
353.148	3.12
353.513	3.07
353.878	3.09
354.243	3.06
354.608	3.17
354.972	3.13
355.337	3.17
355.702	3.05
356.066	3.07
356.431	3.17
356.795	3.1
357.16	3
357.524	3.07
357.889	3.18
358.253	3.18
358.618	3.17
358.982	3.17
359.346	3.07
359.71	3.07
360.075	2.98
360.439	2.98
360.803	2.97
361.167	2.97
361.531	2.99
361.895	3.08
362.259	3.06
362.623	3.07
362.987	3.03
363.351	3.11
363.714	3.05
364.078	2.93
364.442	2.93
364.806	3.03
365.169	2.98
365.533	3
365.896	3
366.26	2.94
366.623	2.95
366.987	3.02
367.35	3.06
367.714	3.12
368.077	3.11
368.44	3.16
368.803	3.15
369.167	3.17
369.53	3.15
369.893	3.1
370.256	3.07
370.619	3.09
370.982	2.99
371.345	3.01
371.708	3.09
372.071	3.08
372.434	3.09
372.797	3.13
373.159	3.06
373.522	3.04
373.885	3.13
374.247	3.07
374.61	3.06
374.973	2.93
375.335	2.99
375.698	2.95
376.06	2.84
376.423	2.92
376.785	2.89
377.147	2.86
377.51	2.82
377.872	2.85
378.234	2.89
378.596	2.96
378.958	3.01
379.321	2.97
379.683	2.99
380.045	2.89
380.407	2.9
380.769	2.91
381.13	2.92
381.492	2.88
381.854	2.91
382.216	2.95
382.578	3.05
382.939	2.94
383.301	3
383.663	3.08
384.024	3.02
384.386	3.03
384.747	3.01
385.109	3.03
385.47	3.06
385.832	3.06
386.193	3.04
386.554	2.97
386.916	3
387.277	2.98
387.638	3.03
387.999	3.05
388.36	3.08
388.721	3.13
389.082	3.17
389.443	3.17
389.804	3.15
390.165	3.14
390.526	3.22
390.887	3.18
391.248	3.17
391.609	3.19
391.969	3.22
392.33	3.19
392.691	3.19
393.051	3.12
393.412	3.11
393.772	3.08
394.133	3.1
394.493	3.1
394.854	3.09
395.214	3.11
395.574	3.04
395.935	3.07
396.295	3.08
396.655	3.07
397.015	3.1
397.376	3.15
397.736	3.15
398.096	3.1
398.456	3.05
398.816	3
399.176	2.97
399.535	2.95
399.895	3.01
400.255	3.01
400.615	3.07
400.975	3.07
401.334	3.11
401.694	3.13
402.054	3.14
402.413	3.16
402.773	3.15
403.132	3.18
403.492	3.18
403.851	3.14
404.211	3.1
404.57	3.09
404.929	3.03
405.288	3.02
405.648	3.04
406.007	3.07
406.366	3.07
406.725	3.11
407.084	3.13
407.443	3.11
407.802	3.12
408.161	3.1
408.52	3.11
408.879	3.13
409.238	3.14
409.596	3.16
409.955	3.17
410.314	3.16
410.673	3.15
411.031	3.11
411.39	3.13
411.748	3.16
412.107	3.13
412.465	3.12
412.824	3.1
413.182	3.12
413.54	3.13
413.899	3.15
414.257	3.15
414.615	3.12
414.974	3.14
415.332	3.14
415.69	3.15
416.048	3.14
416.406	3.1
416.764	3.12
417.122	3.1
417.48	3.11
417.838	3.12
418.195	3.14
418.553	3.14
418.911	3.13
419.269	3.13
419.626	3.16
419.984	3.17
420.342	3.18
420.699	3.15
421.057	3.14
421.414	3.14
421.772	3.13
422.129	3.13
422.486	3.13
422.844	3.11
423.201	3.11
423.558	3.12
423.915	3.13
424.273	3.11
424.63	3.14
424.987	3.14
425.344	3.14
425.701	3.12
426.058	3.13
426.415	3.13
426.772	3.12
427.128	3.12
427.485	3.12
427.842	3.13
428.199	3.16
428.555	3.19
428.912	3.19
429.269	3.21
429.625	3.23
429.982	3.23
430.338	3.24
430.695	3.24
431.051	3.24
431.407	3.25
431.764	3.24
432.12	3.21
432.476	3.21
432.832	3.21
433.189	3.21
433.545	3.2
433.901	3.22
434.257	3.23
434.613	3.22
434.969	3.21
435.325	3.19
435.681	3.19
436.036	3.17
436.392	3.17
436.748	3.16
437.104	3.15
437.459	3.14
437.815	3.17
438.171	3.16
438.526	3.16
438.882	3.17
439.237	3.17
439.593	3.17
439.948	3.16
440.304	3.17
440.659	3.18
441.014	3.18
441.369	3.17
441.725	3.17
442.08	3.17
442.435	3.18
442.79	3.19
443.145	3.2
443.5	3.2
443.855	3.2
444.21	3.19
444.565	3.2
444.92	3.19
445.275	3.17
445.629	3.17
445.984	3.16
446.339	3.15
446.693	3.17
447.048	3.16
447.403	3.15
447.757	3.14
448.112	3.12
448.466	3.13
448.82	3.14
449.175	3.13
449.529	3.14
449.883	3.11
450.238	3.1
450.592	3.09
450.946	3.09
451.3	3.09
451.654	3.1
452.008	3.1
452.362	3.11
452.716	3.12
453.07	3.12
453.424	3.11
453.778	3.12
454.132	3.1
454.486	3.11
454.839	3.14
455.193	3.14
455.547	3.18
455.9	3.18
456.254	3.2
456.607	3.22
456.961	3.22
457.314	3.22
457.668	3.22
458.021	3.23
458.375	3.23
458.728	3.22
459.081	3.23
459.434	3.21
459.787	3.22
460.141	3.22
460.494	3.22
460.847	3.24
461.2	3.23
461.553	3.25
461.906	3.24
462.259	3.21
462.611	3.21
462.964	3.19
463.317	3.18
463.67	3.16
464.022	3.15
464.375	3.15
464.728	3.16
465.08	3.15
465.433	3.11
465.785	3.12
466.138	3.12
466.49	3.12
466.843	3.14
467.195	3.13
467.547	3.13
467.899	3.14
468.252	3.15
468.604	3.15
468.956	3.14
469.308	3.15
469.66	3.18
470.012	3.18
470.364	3.19
470.716	3.19
471.068	3.18
471.42	3.19
471.772	3.2
472.123	3.18
472.475	3.19
472.827	3.23
473.178	3.23
473.53	3.23
473.882	3.23
474.233	3.2
474.585	3.21
474.936	3.22
475.288	3.19
475.639	3.2
475.99	3.22
476.342	3.22
476.693	3.19
477.044	3.2
477.395	3.18
477.746	3.17
478.097	3.17
478.448	3.17
478.8	3.17
479.15	3.17
479.501	3.18
479.852	3.18
480.203	3.19
480.554	3.2
480.905	3.21
481.255	3.22
481.606	3.24
481.957	3.24
482.307	3.22
482.658	3.24
483.009	3.24
483.359	3.24
483.709	3.25
484.06	3.28
484.41	3.27
484.761	3.29
485.111	3.3
485.461	3.3
485.811	3.31
486.162	3.31
486.512	3.32
486.862	3.32
487.212	3.32
487.562	3.32
487.912	3.32
488.262	3.32
488.612	3.33
488.961	3.34
489.311	3.34
489.661	3.35
490.011	3.35
490.36	3.36
490.71	3.35
491.06	3.35
491.409	3.34
491.759	3.34
492.108	3.34
492.458	3.34
492.807	3.34
493.157	3.34
493.506	3.34
493.855	3.34
494.204	3.35
494.554	3.34
494.903	3.35
495.252	3.36
495.601	3.36
495.95	3.34
496.299	3.33
496.648	3.33
496.997	3.33
497.346	3.33
497.695	3.33
498.043	3.34
498.392	3.33
498.741	3.32
499.09	3.32
499.438	3.33
499.787	3.32
500.135	3.33
500.484	3.32
500.832	3.33
501.181	3.35
501.529	3.4
501.878	3.39
502.226	3.39
502.574	3.4
502.923	3.4
503.271	3.39
503.619	3.4
503.967	3.39
504.315	3.39
504.663	3.38
505.011	3.4
505.359	3.41
505.707	3.41
506.055	3.42
506.403	3.43
506.751	3.41
507.098	3.41
507.446	3.42
507.794	3.43
508.141	3.42
508.489	3.39
508.837	3.35
509.184	3.35
509.531	3.35
509.879	3.35
510.226	3.35
510.574	3.36
510.921	3.37
511.268	3.39
511.616	3.4
511.963	3.39
512.31	3.38
512.657	3.37
513.004	3.38
513.351	3.38
513.698	3.4
514.045	3.42
514.392	3.44
514.739	3.45
515.086	3.46
515.432	3.48
515.779	3.47
516.126	3.49
516.473	3.53
516.819	3.53
517.166	3.52
517.512	3.52
517.859	3.55
518.205	3.54
518.552	3.55
518.898	3.56
519.245	3.55
519.591	3.55
519.937	3.53
520.283	3.53
520.629	3.53
520.976	3.51
521.322	3.51
521.668	3.51
522.014	3.52
522.36	3.53
522.706	3.52
523.052	3.55
523.398	3.56
523.743	3.55
524.089	3.55
524.435	3.56
524.781	3.56
525.126	3.55
525.472	3.56
525.817	3.54
526.163	3.54
526.509	3.55
526.854	3.57
527.199	3.59
527.545	3.59
527.89	3.59
528.235	3.59
528.581	3.59
528.926	3.59
529.271	3.59
529.616	3.58
529.961	3.58
530.306	3.57
530.651	3.56
530.996	3.56
531.341	3.57
531.686	3.58
532.031	3.59
532.376	3.59
532.721	3.6
533.065	3.6
533.41	3.61
533.755	3.61
534.099	3.59
534.444	3.6
534.788	3.59
535.133	3.59
535.477	3.61
535.822	3.61
536.166	3.6
536.51	3.61
536.855	3.62
537.199	3.63
537.543	3.64
537.887	3.66
538.231	3.65
538.576	3.64
538.92	3.65
539.264	3.64
539.608	3.65
539.951	3.64
540.295	3.66
540.639	3.66
540.983	3.65
541.327	3.65
541.671	3.64
542.014	3.66
542.358	3.67
542.701	3.67
543.045	3.68
543.389	3.69
543.732	3.69
544.075	3.69
544.419	3.68
544.762	3.67
545.105	3.68
545.449	3.71
545.792	3.7
546.135	3.69
546.478	3.7
546.821	3.68
547.165	3.68
547.508	3.67
547.851	3.68
548.194	3.66
548.536	3.67
548.879	3.66
549.222	3.65
549.565	3.61
549.908	3.6
550.25	3.58
550.593	3.59
550.936	3.56
551.278	3.56
551.621	3.56
551.963	3.59
552.306	3.59
552.648	3.56
552.991	3.56
553.333	3.56
553.675	3.56
554.017	3.58
554.36	3.6
554.702	3.59
555.044	3.57
555.386	3.57
555.728	3.55
556.07	3.56
556.412	3.55
556.754	3.57
557.096	3.59
557.438	3.58
557.78	3.53
558.121	3.55
558.463	3.53
558.805	3.55
559.147	3.52
559.488	3.49
559.83	3.49
560.171	3.5
560.513	3.48
560.854	3.47
561.196	3.45
561.537	3.44
561.878	3.47
562.22	3.5
562.561	3.54
562.902	3.57
563.243	3.57
563.584	3.59
563.925	3.6
564.266	3.61
564.607	3.62
564.948	3.61
565.289	3.62
565.63	3.63
565.971	3.63
566.312	3.65
566.653	3.64
566.993	3.64
567.334	3.64
567.675	3.67
568.015	3.65
568.356	3.64
568.696	3.67
569.037	3.65
569.377	3.64
569.718	3.62
570.058	3.63
570.398	3.66
570.739	3.62
571.079	3.63
571.419	3.6
571.759	3.59
572.099	3.6
572.439	3.59
572.779	3.57
573.119	3.57
573.459	3.57
573.799	3.58
574.139	3.61
574.479	3.62
574.819	3.62
575.158	3.64
575.498	3.67
575.838	3.66
576.177	3.66
576.517	3.7
576.856	3.71
577.196	3.71
577.535	3.7
577.875	3.7
578.214	3.73
578.553	3.77
578.893	3.78
579.232	3.81
579.571	3.84
579.91	3.85
580.25	3.87
580.589	3.83
580.928	3.82
581.267	3.78
581.606	3.77
581.945	3.75
582.283	3.73
582.622	3.68
582.961	3.7
583.3	3.7
583.639	3.69
583.977	3.64
584.316	3.61
584.654	3.59
584.993	3.6
585.332	3.55
585.67	3.53
586.008	3.5
586.347	3.51
586.685	3.48
587.024	3.48
587.362	3.48
587.7	3.49
588.038	3.56
588.376	3.54
588.715	3.5
589.053	3.53
589.391	3.53
589.729	3.58
590.067	3.55
590.404	3.57
590.742	3.54
591.08	3.59
591.418	3.61
591.756	3.65
592.093	3.66
592.431	3.66
592.769	3.67
593.106	3.72
593.444	3.71
593.781	3.75
594.119	3.75
594.456	3.69
594.793	3.71
595.131	3.68
595.468	3.7
595.805	3.71
596.143	3.72
596.48	3.76
596.817	3.78
597.154	3.81
597.491	3.77
597.828	3.77
598.165	3.78
598.502	3.77
598.839	3.74
599.176	3.73
599.512	3.71
599.849	3.76
600.186	3.7
600.523	3.7
600.859	3.68
601.196	3.69
601.532	3.72
601.869	3.74
602.205	3.72
602.542	3.71
602.878	3.74
603.215	3.73
603.551	3.64
603.887	3.59
604.223	3.6
604.56	3.6
604.896	3.64
605.232	3.65
605.568	3.66
605.904	3.61
606.24	3.61
606.576	3.62
606.912	3.58
607.248	3.61
607.583	3.6
607.919	3.6
608.255	3.62
608.591	3.66
608.926	3.63
609.262	3.63
609.597	3.64
609.933	3.63
610.268	3.64
610.604	3.69
610.939	3.71
611.275	3.69
611.61	3.71
611.945	3.68
612.281	3.64
612.616	3.66
612.951	3.72
613.286	3.71
613.621	3.75
613.956	3.81
614.291	3.75
614.626	3.79
614.961	3.81
615.296	3.86
615.631	3.85
615.966	3.88
616.3	3.9
616.635	3.91
616.97	3.86
617.304	3.82
617.639	3.83
617.973	3.79
618.308	3.77
618.642	3.76
618.977	3.76
619.311	3.76
619.646	3.74
619.98	3.75
620.314	3.78
620.648	3.8
620.983	3.73
621.317	3.77
621.651	3.71
621.985	3.73
622.319	3.63
622.653	3.64
622.987	3.61
623.321	3.6
623.655	3.63
623.988	3.7
624.322	3.67
624.656	3.65
624.99	3.62
625.323	3.62
625.657	3.63
625.99	3.64
626.324	3.63
626.657	3.63
626.991	3.65
627.324	3.59
627.658	3.53
627.991	3.56
628.324	3.57
628.657	3.6
628.991	3.55
629.324	3.6
629.657	3.53
629.99	3.55
630.323	3.5
630.656	3.54
630.989	3.51
631.322	3.54
631.655	3.56
631.987	3.67
632.32	3.7
632.653	3.72
632.986	3.72
633.318	3.71
633.651	3.69
633.984	3.73
634.316	3.73
634.649	3.79
634.981	3.82
635.313	3.87
635.646	3.89
635.978	3.93
636.31	3.91
636.643	3.93
636.975	3.88
637.307	3.92
637.639	3.89
637.971	3.89
638.303	3.88
638.635	3.88
638.967	3.87
639.299	3.89
639.631	3.86
639.963	3.87
640.295	3.88
640.626	3.91
640.958	3.83
641.29	3.95
641.621	3.89
641.953	3.84
642.285	3.83
642.616	3.82
642.948	3.81
643.279	3.76
643.61	3.8
643.942	3.84
644.273	3.78
644.604	3.72
644.936	3.7
645.267	3.72
645.598	3.77
645.929	3.68
646.26	3.7
646.591	3.7
646.922	3.73
647.253	3.74
647.584	3.74
647.915	3.77
648.245	3.7
648.576	3.7
648.907	3.77
649.238	3.7
649.568	3.73
649.899	3.69
650.229	3.84
650.56	3.85
650.89	3.79
651.221	3.87
651.551	3.87
651.882	3.89
652.212	3.9
652.542	3.88
652.872	3.91
653.203	3.86
653.533	3.9
653.863	3.96
654.193	3.96
654.523	3.91
654.853	3.9
655.183	3.92
655.513	3.94
655.843	3.88
656.172	3.99
656.502	3.93
656.832	3.9
657.162	3.87
657.491	3.9
657.821	4.02
658.15	4.01
658.48	4.05
658.809	4.04
659.139	4.03
659.468	4.02
659.798	4.15
660.127	4.13
660.456	4.05
660.785	3.97
661.115	3.94
661.444	3.9
661.773	3.92
662.102	3.86
662.431	3.83
662.76	3.85
663.089	3.8
663.418	3.82
663.747	3.78
664.076	3.76
664.404	3.78
664.733	3.72
665.062	3.74
665.39	3.76
665.719	3.87
666.048	3.88
666.376	3.86
666.705	3.71
667.033	3.73
667.362	3.79
667.69	3.79
668.018	3.81
668.347	3.86
668.675	3.8
669.003	3.85
669.331	3.89
669.659	3.84
669.987	3.88
670.315	3.95
670.643	3.95
670.971	3.88
671.299	3.83
671.627	3.9
671.955	3.9
672.283	3.84
672.61	3.69
672.938	3.71
673.266	3.68
673.593	3.68
673.921	3.61
674.249	3.54
674.576	3.57
674.904	3.62
675.231	3.66
675.558	3.72
675.886	3.79
676.213	3.78
676.54	3.81
676.867	3.77
677.195	3.75
677.522	3.84
677.849	3.9
678.176	3.86
678.503	3.73
678.83	3.77
679.157	3.83
679.484	3.83
679.81	3.72
680.137	3.8
680.464	3.88
680.791	3.98
681.117	4.06
681.444	3.99
681.771	4.05
682.097	4.12
682.424	4.05
682.75	4.12
683.077	4
683.403	3.97
683.729	3.95
684.056	3.99
684.382	3.95
684.708	3.96
685.034	4.1
685.36	4.22
685.686	4.18
686.012	4.09
686.339	4.18
686.664	4.3
686.99	4.24
687.316	4.15
687.642	4.09
687.968	4.1
688.294	4.21
688.619	4.1
688.945	3.92
689.271	4
689.596	3.83
689.922	3.96
690.247	4.02
690.573	4.02
690.898	3.97
691.224	3.93
691.549	3.95
691.874	3.8
692.2	3.72
692.525	3.7
692.85	3.76
693.175	3.77
693.5	3.69
693.825	3.69
694.15	3.87
694.475	3.86
694.8	3.85
695.125	3.8
695.45	3.8
695.775	3.89
696.099	3.9
696.424	3.97
696.749	4
697.073	4
697.398	3.96
697.723	3.99
698.047	4.06
698.372	4.08
698.696	4.11
699.02	4.13
699.345	4.23
699.669	4.23
699.993	4.13
700.318	4.22
700.642	4.37
700.966	4.18
701.29	4.24
701.614	4.32
701.938	4.37
702.262	4.4
702.586	4.45
702.91	4.46
703.234	4.29
703.557	4.32
703.881	4.41
704.205	4.54
704.529	4.46
704.852	4.42
705.176	4.42
705.499	4.33
705.823	4.21
706.146	4.11
706.47	4.19
706.793	4.41
707.117	4.38
707.44	4.26
707.763	4.33
708.086	4.33
708.409	4.21
708.733	4.04
709.056	4.17
709.379	4.18
709.702	4.19
710.025	4.36
710.348	4.34
710.671	4.28
710.993	4.25
711.316	4.28
711.639	4.36
711.962	4.35
712.284	4.55
712.607	4.65
712.93	4.59
713.252	4.42
713.575	4.41
713.897	4.34
714.22	4.23
714.542	4.29
714.864	4.34
715.187	4.24
715.509	4.4
715.831	4.37
716.153	4.31
716.475	4.29
716.798	4.31
717.12	4.24
717.442	4.18
717.764	4.18
718.085	4.25
718.407	4.22
718.729	4.06
719.051	3.99
719.373	4.09
719.695	4.08
720.016	4.12
720.338	4.15
720.659	4.29
720.981	4.43
721.302	4.52
721.624	4.55
721.945	4.74
722.267	4.84
722.588	4.72
722.909	4.78
723.231	4.72
723.552	4.72
723.873	4.72
724.194	4.69
724.515	4.69
724.836	4.66
725.157	4.7
725.478	4.8
725.799	4.85
726.12	4.93
726.441	4.74
726.762	4.96
727.083	4.84
727.403	4.81
727.724	4.75
728.045	4.55
728.365	4.55
728.686	4.64
729.006	4.54
729.327	4.56
729.647	4.41
729.967	4.46
730.288	4.33
730.608	4.48
730.928	4.63
731.249	4.63
731.569	4.74
731.889	4.65
732.209	4.75
732.529	4.7
732.849	4.37
733.169	4.49
733.489	4.11
733.809	4.1
734.129	4.03
734.448	4.16
734.768	4.33
735.088	4.2
735.408	4.15
735.727	4.06
736.047	4.01
736.366	4.17
736.686	4.2
737.005	4.2
737.325	3.96
737.644	3.61
737.963	3.53
738.283	3.1
738.602	3.26
738.921	3.25
739.24	3
739.56	3.21
739.879	3.32
740.198	3.42
740.517	3.42
740.836	3.61
741.155	3.27
741.473	3.19
741.792	3.21
742.111	3.13
742.43	3.43
742.748	3.54
743.067	3.44
743.386	3.15
743.704	3.33
744.023	3.6
744.341	3.77
744.66	3.66
744.978	3.95
745.297	4
745.615	3.95
745.933	4.26
746.252	4.37
746.57	4.28
746.888	4.59
747.206	4.4
747.524	4.08
747.842	4.11
748.16	4.23
748.478	4.19
748.796	4.22
749.114	3.93
749.432	3.8
749.749	3.74
750.067	3.83
750.385	3.94
750.703	3.6
751.02	3.75
751.338	3.8
751.655	3.73
751.973	3.6
752.29	3.51
752.608	3.42
752.925	3.29
753.242	3.4
753.56	3.2
753.877	3.39
754.194	3.78
754.511	3.77
754.828	3.35
755.145	3.39
755.462	3.39
755.779	3.3
756.096	3.46
756.413	3.5
756.73	3.65
757.047	3.33
757.364	3.47
757.68	3.22
757.997	3.58
758.314	3.76
758.63	3.52
758.947	3.41
759.264	3.43
759.58	3.51
759.896	3.52
760.213	3.7
760.529	3.8
760.846	3.56
761.162	3.47
761.478	3.76
761.794	3.78
762.11	3.93
762.426	3.99
762.743	3.88
763.059	4.19
763.375	4.24
763.69	4.34
764.006	4.38
764.322	4.62
764.638	4.68
764.954	4.58
765.27	4.79
765.585	5
765.901	5.07
766.216	4.98
766.532	4.88
766.848	4.94
767.163	4.78
767.478	4.82
767.794	5.05
768.109	5.16
768.424	5.12
768.74	4.87
769.055	4.79
769.37	4.97
769.685	4.81
770	4.46
770.315	4.68
770.63	4.78
770.945	4.65
771.26	4.17
771.575	4.38
771.89	4.13
772.205	3.87
772.52	3.67
772.834	3.89
773.149	3.81
773.464	3.84
773.778	4.08
774.093	4.12
774.407	4.34
774.722	4.34
775.036	4.78
775.351	4.82
775.665	5.06
775.979	4.77
776.293	4.67
776.608	5.15
776.922	4.81
777.236	4.81
777.55	4.64
777.864	4.56
778.178	4.46
778.492	4.66
778.806	4.83
779.12	4.97
779.434	4.76
779.747	5.28
780.061	5.06
780.375	4.95
780.689	5.15
781.002	4.9
781.316	4.56
781.629	4.03
781.943	3.82
782.256	3.28
782.57	3.69
782.883	3.39
783.196	3.34
783.51	3.58
783.823	3.66
784.136	3.82
784.449	3.95
784.762	4.46
785.075	4.05
785.388	4.11
785.701	4.13
786.014	4.55
786.327	4.27
786.64	4.56
786.953	4.35
787.266	4.15
787.578	3.9
787.891	4.03
788.204	4.27
788.516	4.74
788.829	5.12
789.141	4.89
789.454	5.24
789.766	5.56
790.079	5.24
790.391	4.97
790.703	5.09
791.016	5.28
791.328	4.44
791.64	5.07
791.952	4.92
792.264	4.64
792.576	4.57
792.888	4.6
793.2	4.29
793.512	4.84
793.824	4.93
794.136	5.19
794.448	5.33
794.76	5.55
795.071	5.46
795.383	5.53
795.695	5.45
796.006	5.3
796.318	4.84
796.629	4.74
796.941	4.91
797.252	4.63
797.564	4.47
797.875	4.96
798.186	5.11
798.497	5.08
798.809	5.29
799.12	5.14
799.431	4.99
799.742	5.01
800.053	4.62
800.364	4.75
800.675	5.02
800.986	5
801.297	4.79
801.608	4.65
801.918	4.32
802.229	4.28
802.54	3.83
802.851	3.55
803.161	3.93
803.472	3.98
803.782	4.36
804.093	4.61
804.403	4.22
804.714	3.95
805.024	3.67
805.334	3.15
805.645	3.37
805.955	3.52
806.265	3.12
806.575	3.57
806.885	3.18
807.195	3.45
807.505	2.71
807.815	3.41
808.125	3.35
808.435	3.85
808.745	4.16
809.055	4.42
809.365	4.85
809.674	4.99
809.984	4.49
810.294	4.3
810.603	3.54
810.913	3.55
811.222	2.66
811.532	2.99
811.841	3.37
812.151	2.8
812.46	2.3
812.769	2.07
813.079	1.46
813.388	1.56
813.697	0.33
814.006	1.75
814.315	0.96
814.624	0.4
814.933	0.16
815.242	-0.57
815.551	0.07
815.86	0.5
816.169	0.57
816.478	1.18
816.786	0.37
817.095	1.23
817.404	1.3
817.712	1.89
818.021	2.55
818.33	2.47
818.638	2.99
818.947	3.51
819.255	4.52
819.563	4.98
819.872	5.39
820.18	5.84
820.488	5.67
820.796	5.76
821.105	6.02
821.413	6.2
821.721	6.45
822.029	6.28
822.337	6.18
822.645	6.28
822.953	6.27
823.26	6.52
823.568	6.53
823.876	6.65
824.184	6.6
824.491	6.39
824.799	6.61
825.107	6.6
825.414	6.77
825.722	6.74
826.029	6.5
826.337	6.47
826.644	6.58
826.951	6.49
827.259	6.42
827.566	6.38
827.873	6.36
828.18	6.12
828.488	6.17
828.795	6.14
829.102	5.92
829.409	5.79
829.716	5.99
830.023	5.88
830.329	5.88
830.636	6.15
830.943	5.98
831.25	5.89
831.557	5.94
831.863	5.6
832.17	5.63
832.476	5.7
832.783	5.41
833.089	5.13
833.396	5.42
833.702	5.88
834.009	5.94
834.315	5.77
834.621	5.93
834.928	5.81
835.234	5.82
835.54	5.81
835.846	5.92
836.152	5.23
836.458	5.03
836.764	4.88
837.07	4.89
837.376	5.48
837.682	4.81
837.988	4.4
838.293	4.83
838.599	4.17
838.905	4.38
839.211	4.57
839.516	4.08
839.822	3.62
840.127	2.52
840.433	3.01
840.738	3.42
841.044	3.86
841.349	4.49
841.654	4.76
841.959	5.79
842.265	5.64
842.57	5.7
842.875	5.79
843.18	5.38
843.485	4.54
843.79	3.72
844.095	4.21
844.4	4.93
844.705	4.57
845.01	5.96
845.315	6.9
845.619	7.27
845.924	6.81
846.229	7.09
846.533	8.83
846.838	7.62
847.142	4.93
847.447	3.84
847.751	1.85
848.056	1.7
848.36	0.19
848.664	-0.31
848.969	0.42
849.273	-0.29
849.577	-1.44
849.881	-0.15
850.185	-0.26
850.489	1.45
850.794	2.04
851.097	1.12
851.401	-1.33
851.705	-2.6
852.009	-4.2
852.313	-5.1
852.617	-4.82
852.92	-5.66
853.224	-5.52
853.528	-4.2
853.831	-3.02
854.135	-1.15
854.438	-2.1
854.742	-2.32
855.045	-4.96
855.349	-6.74
855.652	-6.3
855.955	-5.43
856.259	-6.17
856.562	-5.99
856.865	-7.39
857.168	-7.25
857.471	-6.54
857.774	-6.22
858.077	-4.69
858.38	-4.4
858.683	-1.85
858.986	-3.31
859.289	-4.82
859.592	-4.22
859.894	-2.07
860.197	-2.56
860.5	-2.26
860.802	-2.01
861.105	-2.66
861.407	-0.63
861.71	-0.5
862.012	-0.34
862.315	0.49
862.617	0.11
862.919	-0.68
863.222	-0.67
863.524	-2.62
863.826	-3.53
864.128	-4.44
864.43	-7.26
864.732	-8.74
865.034	-10.18
865.336	-8.52
865.638	-8.6
865.94	-7.05
866.242	-8.45
866.544	-8.72
866.846	-8.88
867.147	-8.1
867.449	-7.03
867.751	-7.36
868.052	-8.16
868.354	-6.64
868.655	-6.94
868.957	-6.42
869.258	-5.2
869.56	-5.82
869.861	-7.08
870.162	-7.6
870.463	-5.52
870.765	-4.81
871.066	-4.68
871.367	-4.14
871.668	-4.59
871.969	-5.23
872.27	-6.42
872.571	-8.68
872.872	-8
873.173	-11.26
873.473	-13.46
873.774	-15.86
874.075	-13.64
874.376	-9.67
874.676	-13.24
874.977	-12.81
875.277	-12.89
875.578	-11.98
875.878	-11.2
876.179	-9.39
876.479	-9.13
876.78	-10.12
877.08	-10.19
877.38	-9.02
877.68	-7.89
877.981	-9.73
878.281	-7.24
878.581	-9
