Data from BA51245_Reflection_00011.txt Node
Date: Tue Nov 19 11:51:55 EST 2019
User: vgr7
Spectrometer: USB2G7710
Scans to average: 3
Trigger mode: 4
Integration Time (sec): 2.000000E-2
Electric dark correction enabled: true
Boxcar width: 10
XAxis mode: Wavelengths
Number of Pixels in Spectrum: 2048
>>>>>Begin Spectral Data<<<<<
177.721	459.9
178.105	-130.16
178.488	-76.33
178.871	-25.93
179.254	3.51
179.636	38.75
180.019	330.16
180.402	83.33
180.785	125.93
181.168	408.08
181.55	363.44
181.933	183.96
182.316	92.06
182.698	65.31
183.081	41.4
183.463	53.75
183.846	77.69
184.228	126.1
184.611	142.7
184.993	1026.67
185.376	-255.79
185.758	-162.14
186.14	-316.05
186.522	-246.02
186.904	-192.59
187.287	-153.35
187.669	-120.54
188.051	-165.06
188.433	-162.51
188.815	-122.11
189.197	-104.27
189.579	-87.46
189.961	-55.38
190.342	-24.3
190.724	-24.66
191.106	-14.63
191.488	-6.73
191.869	-5.58
192.251	-7.64
192.633	16.54
193.014	19.83
193.396	33.95
193.777	40.22
194.159	33.85
194.54	40.81
194.922	64.31
195.303	85.81
195.684	95.4
196.065	99.68
196.447	115.57
196.828	95.61
197.209	75.1
197.59	63.06
197.971	45.85
198.352	33.2
198.733	17.01
199.114	15.06
199.495	10.18
199.876	3.75
200.257	3.85
200.638	2.12
201.018	3.59
201.399	8.81
201.78	5.39
202.16	10.75
202.541	8.6
202.922	-5
203.302	-10.35
203.683	-22.54
204.063	-23.64
204.444	-22.19
204.824	-14.51
205.204	-14.48
205.585	-2.69
205.965	8.6
206.345	16.79
206.725	23.85
207.106	25.07
207.486	33.52
207.866	32.3
208.246	35.26
208.626	19.69
209.006	19.81
209.386	14.03
209.766	16.91
210.145	12.11
210.525	10.88
210.905	22.61
211.285	27.27
211.664	32.76
212.044	31.21
212.424	32.36
212.803	39.16
213.183	37.63
213.562	30.4
213.942	22.01
214.321	12.89
214.701	18.57
215.08	11.68
215.459	19.33
215.838	15.95
216.218	21.41
216.597	26.39
216.976	29.93
217.355	58.55
217.734	43.86
218.113	64.54
218.492	112.49
218.871	95.79
219.25	99.64
219.629	91.03
220.008	76.19
220.387	56.22
220.766	42.26
221.144	39.75
221.523	39.87
221.902	53.85
222.28	53.41
222.659	47.01
223.037	49.98
223.416	26.16
223.794	20.71
224.173	10.94
224.551	6.65
224.929	0.5
225.308	-14.65
225.686	-10.64
226.064	-23.3
226.442	-28.2
226.821	-25.74
227.199	-25.15
227.577	-22.31
227.955	-14.3
228.333	-16.38
228.711	-15.56
229.089	-14.05
229.467	-13.3
229.845	-15.06
230.222	-11.52
230.6	-12.82
230.978	-10.16
231.356	-8.27
231.733	-5.78
232.111	-2.05
232.488	0.51
232.866	2.2
233.243	3.5
233.621	5.14
233.998	7.34
234.376	7.21
234.753	6.63
235.13	9.78
235.508	10.74
235.885	9.57
236.262	10.69
236.639	10.46
237.016	8.59
237.393	9.68
237.77	9.34
238.147	8.85
238.524	9.39
238.901	8.89
239.278	8.77
239.655	7.86
240.032	7.23
240.409	7.05
240.785	7.36
241.162	7.4
241.539	6.87
241.915	6.57
242.292	6.72
242.668	6.27
243.045	6.28
243.421	6.24
243.798	6.14
244.174	6.2
244.551	5.94
244.927	5.85
245.303	5.5
245.679	5.47
246.056	5.52
246.432	5.42
246.808	5.31
247.184	5.55
247.56	5.63
247.936	5.63
248.312	5.55
248.688	5.39
249.064	5.51
249.44	5.36
249.815	5.49
250.191	5.56
250.567	5.66
250.943	5.65
251.318	5.59
251.694	5.59
252.069	5.2
252.445	5.25
252.82	5.56
253.196	5.47
253.571	5.46
253.947	5.14
254.322	5.03
254.697	5.14
255.073	4.87
255.448	4.89
255.823	5.01
256.198	5.05
256.573	5.27
256.948	4.99
257.323	5.2
257.698	5.11
258.073	4.92
258.448	4.92
258.823	4.39
259.198	4.37
259.573	4.52
259.948	4.57
260.322	4.48
260.697	4.19
261.072	4.35
261.446	4.21
261.821	4.15
262.195	4.06
262.57	4.11
262.944	4.12
263.319	4.01
263.693	3.92
264.067	3.87
264.442	3.77
264.816	3.91
265.19	3.75
265.564	3.63
265.938	3.45
266.313	3.27
266.687	3.48
267.061	3.7
267.435	3.46
267.809	3.48
268.183	3.48
268.556	3.76
268.93	3.79
269.304	3.9
269.678	4.2
270.051	4.14
270.425	4.04
270.799	3.9
271.172	4.27
271.546	4.25
271.919	4.2
272.293	4.2
272.666	4.16
273.04	4.09
273.413	4.03
273.787	4.11
274.16	4.12
274.533	4.34
274.906	4.11
275.279	4.15
275.653	4.26
276.026	4.35
276.399	4.24
276.772	4.06
277.145	4.21
277.518	4.11
277.891	4.12
278.263	4.16
278.636	4.35
279.009	4.12
279.382	4.16
279.755	4.36
280.127	4.34
280.5	4.21
280.872	4.39
281.245	4.5
281.617	4.66
281.99	4.61
282.362	4.42
282.735	4.4
283.107	4.39
283.479	4.33
283.852	4.31
284.224	4.42
284.596	4.57
284.968	4.32
285.34	4.17
285.713	4.26
286.085	4.22
286.457	4.14
286.829	4.14
287.201	4.17
287.572	4.15
287.944	4.21
288.316	4.42
288.688	4.4
289.06	4.4
289.431	4.29
289.803	4.41
290.175	4.58
290.546	4.73
290.918	4.79
291.289	4.85
291.661	4.93
292.032	5.03
292.403	4.95
292.775	5.09
293.146	5.3
293.517	5.28
293.889	5.37
294.26	5.44
294.631	5.46
295.002	5.38
295.373	5.33
295.744	5.34
296.115	5.24
296.486	5.25
296.857	5.34
297.228	5.31
297.599	5.37
297.97	5.3
298.34	5.31
298.711	5.41
299.082	5.46
299.452	5.44
299.823	5.47
300.194	5.55
300.564	5.5
300.935	5.53
301.305	5.57
301.676	5.63
302.046	5.77
302.416	5.79
302.787	5.88
303.157	5.93
303.527	5.94
303.897	5.99
304.267	6.08
304.637	5.99
305.008	6.16
305.378	6.16
305.748	6.12
306.117	6.06
306.487	6.1
306.857	6.08
307.227	6.21
307.597	6.2
307.967	6.14
308.336	6.27
308.706	6.28
309.076	6.51
309.445	6.6
309.815	6.67
310.184	6.82
310.554	6.79
310.923	6.87
311.293	6.95
311.662	7.07
312.031	7.12
312.401	7.32
312.77	7.29
313.139	7.31
313.508	7.38
313.877	7.45
314.246	7.41
314.616	7.52
314.985	7.43
315.353	7.45
315.722	7.59
316.091	7.74
316.46	7.8
316.829	7.76
317.198	7.8
317.567	7.94
317.935	8.07
318.304	8.47
318.672	8.71
319.041	8.91
319.41	9.04
319.778	9.06
320.147	9.09
320.515	9.2
320.883	9.23
321.252	9.37
321.62	9.54
321.988	9.63
322.357	9.55
322.725	9.78
323.093	9.92
323.461	10.04
323.829	9.96
324.197	10.1
324.565	9.98
324.933	10.03
325.301	9.79
325.669	9.75
326.037	9.77
326.405	9.72
326.772	9.77
327.14	9.72
327.508	9.89
327.875	9.91
328.243	10.06
328.61	10.14
328.978	10.2
329.346	10.18
329.713	10.25
330.08	10.49
330.448	10.42
330.815	10.29
331.182	10.32
331.55	10.39
331.917	10.17
332.284	10.38
332.651	10.44
333.018	10.47
333.385	10.62
333.752	10.45
334.119	10.34
334.486	10.3
334.853	10.22
335.22	10.05
335.587	9.99
335.954	9.88
336.32	10.06
336.687	10.03
337.054	10.08
337.42	10.16
337.787	10.06
338.153	10.19
338.52	10.39
338.886	10.37
339.253	10.48
339.619	10.66
339.986	10.68
340.352	10.68
340.718	10.77
341.084	10.62
341.451	10.82
341.817	10.92
342.183	10.93
342.549	11.06
342.915	11.18
343.281	11.25
343.647	11.33
344.013	11.2
344.379	11.23
344.745	11.27
345.11	11.22
345.476	11.34
345.842	11.35
346.208	11.29
346.573	11.37
346.939	11.29
347.304	11.32
347.67	11.36
348.035	11.27
348.401	11.31
348.766	11.29
349.132	11.24
349.497	11.27
349.862	11.26
350.228	11.27
350.593	11.29
350.958	11.34
351.323	11.29
351.688	11.29
352.053	11.34
352.418	11.37
352.783	11.35
353.148	11.27
353.513	11.28
353.878	11.22
354.243	11.2
354.608	11.28
354.972	11.25
355.337	11.23
355.702	11.24
356.066	11.3
356.431	11.37
356.795	11.33
357.16	11.27
357.524	11.25
357.889	11.2
358.253	11.14
358.618	11.08
358.982	11.06
359.346	11.09
359.71	11.03
360.075	10.93
360.439	10.97
360.803	10.89
361.167	10.83
361.531	10.78
361.895	10.71
362.259	10.61
362.623	10.52
362.987	10.45
363.351	10.4
363.714	10.32
364.078	10.28
364.442	10.27
364.806	10.24
365.169	10.18
365.533	10.12
365.896	10.09
366.26	10.02
366.623	10.03
366.987	10.01
367.35	9.98
367.714	9.97
368.077	9.91
368.44	9.86
368.803	9.82
369.167	9.8
369.53	9.83
369.893	9.87
370.256	9.85
370.619	9.82
370.982	9.81
371.345	9.83
371.708	9.77
372.071	9.62
372.434	9.55
372.797	9.57
373.159	9.53
373.522	9.48
373.885	9.38
374.247	9.3
374.61	9.17
374.973	9.1
375.335	9.07
375.698	8.98
376.06	8.98
376.423	8.89
376.785	8.86
377.147	8.77
377.51	8.63
377.872	8.6
378.234	8.54
378.596	8.51
378.958	8.4
379.321	8.31
379.683	8.32
380.045	8.31
380.407	8.21
380.769	8.22
381.13	8.16
381.492	8.15
381.854	8.08
382.216	8.06
382.578	8.03
382.939	7.89
383.301	7.81
383.663	7.75
384.024	7.72
384.386	7.66
384.747	7.56
385.109	7.53
385.47	7.46
385.832	7.45
386.193	7.37
386.554	7.29
386.916	7.28
387.277	7.21
387.638	7.17
387.999	7.12
388.36	7.05
388.721	7
389.082	6.97
389.443	6.95
389.804	6.92
390.165	6.88
390.526	6.88
390.887	6.86
391.248	6.81
391.609	6.75
391.969	6.68
392.33	6.66
392.691	6.67
393.051	6.64
393.412	6.6
393.772	6.54
394.133	6.5
394.493	6.46
394.854	6.43
395.214	6.35
395.574	6.31
395.935	6.25
396.295	6.23
396.655	6.14
397.015	6.06
397.376	6
397.736	5.93
398.096	5.88
398.456	5.85
398.816	5.81
399.176	5.75
399.535	5.7
399.895	5.65
400.255	5.56
400.615	5.51
400.975	5.45
401.334	5.43
401.694	5.41
402.054	5.38
402.413	5.35
402.773	5.31
403.132	5.28
403.492	5.27
403.851	5.23
404.211	5.2
404.57	5.18
404.929	5.14
405.288	5.14
405.648	5.13
406.007	5.1
406.366	5.09
406.725	5.06
407.084	5.04
407.443	5.07
407.802	5.06
408.161	5.03
408.52	5.03
408.879	5.02
409.238	5.01
409.596	4.96
409.955	4.91
410.314	4.9
410.673	4.87
411.031	4.85
411.39	4.83
411.748	4.87
412.107	4.87
412.465	4.84
412.824	4.84
413.182	4.82
413.54	4.83
413.899	4.79
414.257	4.81
414.615	4.8
414.974	4.73
415.332	4.72
415.69	4.7
416.048	4.66
416.406	4.61
416.764	4.57
417.122	4.55
417.48	4.55
417.838	4.52
418.195	4.5
418.553	4.48
418.911	4.44
419.269	4.43
419.626	4.4
419.984	4.39
420.342	4.36
420.699	4.32
421.057	4.27
421.414	4.27
421.772	4.24
422.129	4.21
422.486	4.21
422.844	4.19
423.201	4.18
423.558	4.16
423.915	4.15
424.273	4.14
424.63	4.13
424.987	4.11
425.344	4.11
425.701	4.09
426.058	4.09
426.415	4.09
426.772	4.05
427.128	4.03
427.485	4.03
427.842	4
428.199	4.01
428.555	3.98
428.912	3.95
429.269	3.95
429.625	3.96
429.982	3.97
430.338	3.94
430.695	3.93
431.051	3.94
431.407	3.92
431.764	3.91
432.12	3.91
432.476	3.91
432.832	3.9
433.189	3.9
433.545	3.88
433.901	3.87
434.257	3.88
434.613	3.86
434.969	3.85
435.325	3.86
435.681	3.88
436.036	3.9
436.392	3.9
436.748	3.91
437.104	3.93
437.459	3.89
437.815	3.89
438.171	3.89
438.526	3.88
438.882	3.91
439.237	3.92
439.593	3.92
439.948	3.92
440.304	3.91
440.659	3.92
441.014	3.91
441.369	3.92
441.725	3.92
442.08	3.91
442.435	3.92
442.79	3.88
443.145	3.88
443.5	3.86
443.855	3.85
444.21	3.83
444.565	3.82
444.92	3.83
445.275	3.83
445.629	3.82
445.984	3.81
446.339	3.78
446.693	3.77
447.048	3.76
447.403	3.75
447.757	3.76
448.112	3.75
448.466	3.73
448.82	3.72
449.175	3.71
449.529	3.71
449.883	3.69
450.238	3.7
450.592	3.68
450.946	3.68
451.3	3.69
451.654	3.68
452.008	3.67
452.362	3.65
452.716	3.64
453.07	3.64
453.424	3.64
453.778	3.65
454.132	3.65
454.486	3.66
454.839	3.65
455.193	3.64
455.547	3.64
455.9	3.67
456.254	3.68
456.607	3.69
456.961	3.7
457.314	3.71
457.668	3.72
458.021	3.72
458.375	3.73
458.728	3.73
459.081	3.74
459.434	3.76
459.787	3.78
460.141	3.78
460.494	3.78
460.847	3.79
461.2	3.77
461.553	3.77
461.906	3.77
462.259	3.8
462.611	3.82
462.964	3.82
463.317	3.82
463.67	3.82
464.022	3.83
464.375	3.83
464.728	3.85
465.08	3.84
465.433	3.87
465.785	3.88
466.138	3.87
466.49	3.9
466.843	3.9
467.195	3.9
467.547	3.91
467.899	3.93
468.252	3.98
468.604	4
468.956	4
469.308	3.99
469.66	4.02
470.012	3.99
470.364	4.02
470.716	4.01
471.068	4.02
471.42	4.02
471.772	4.04
472.123	4.04
472.475	4.05
472.827	4.03
473.178	4.04
473.53	4.05
473.882	4
474.233	4
474.585	4
474.936	3.99
475.288	3.97
475.639	3.95
475.99	3.94
476.342	3.96
476.693	3.97
477.044	3.94
477.395	3.95
477.746	3.91
478.097	3.9
478.448	3.87
478.8	3.88
479.15	3.87
479.501	3.85
479.852	3.84
480.203	3.85
480.554	3.85
480.905	3.85
481.255	3.87
481.606	3.88
481.957	3.87
482.307	3.88
482.658	3.89
483.009	3.87
483.359	3.88
483.709	3.87
484.06	3.87
484.41	3.87
484.761	3.87
485.111	3.88
485.461	3.88
485.811	3.89
486.162	3.89
486.512	3.88
486.862	3.9
487.212	3.91
487.562	3.9
487.912	3.91
488.262	3.91
488.612	3.92
488.961	3.92
489.311	3.93
489.661	3.93
490.011	3.94
490.36	3.94
490.71	3.94
491.06	3.96
491.409	3.96
491.759	3.97
492.108	3.97
492.458	3.99
492.807	4
493.157	4
493.506	4.03
493.855	4.04
494.204	4.06
494.554	4.07
494.903	4.1
495.252	4.14
495.601	4.18
495.95	4.16
496.299	4.18
496.648	4.22
496.997	4.25
497.346	4.31
497.695	4.35
498.043	4.41
498.392	4.43
498.741	4.5
499.09	4.55
499.438	4.59
499.787	4.64
500.135	4.69
500.484	4.76
500.832	4.8
501.181	4.84
501.529	4.89
501.878	4.95
502.226	4.96
502.574	5
502.923	5.06
503.271	5.14
503.619	5.22
503.967	5.26
504.315	5.33
504.663	5.35
505.011	5.42
505.359	5.46
505.707	5.51
506.055	5.57
506.403	5.6
506.751	5.68
507.098	5.74
507.446	5.8
507.794	5.84
508.141	5.93
508.489	6.01
508.837	6.05
509.184	6.11
509.531	6.18
509.879	6.23
510.226	6.28
510.574	6.31
510.921	6.34
511.268	6.42
511.616	6.49
511.963	6.56
512.31	6.61
512.657	6.68
513.004	6.76
513.351	6.82
513.698	6.92
514.045	7
514.392	7.08
514.739	7.17
515.086	7.28
515.432	7.37
515.779	7.46
516.126	7.57
516.473	7.68
516.819	7.78
517.166	7.89
517.512	7.97
517.859	8.09
518.205	8.17
518.552	8.24
518.898	8.33
519.245	8.38
519.591	8.47
519.937	8.55
520.283	8.65
520.629	8.74
520.976	8.8
521.322	8.9
521.668	9
522.014	9.11
522.36	9.22
522.706	9.33
523.052	9.45
523.398	9.56
523.743	9.67
524.089	9.85
524.435	9.95
524.781	10.1
525.126	10.22
525.472	10.34
525.817	10.45
526.163	10.55
526.509	10.68
526.854	10.78
527.199	10.88
527.545	10.97
527.89	11.05
528.235	11.15
528.581	11.23
528.926	11.32
529.271	11.41
529.616	11.51
529.961	11.6
530.306	11.71
530.651	11.82
530.996	11.93
531.341	12.05
531.686	12.2
532.031	12.32
532.376	12.45
532.721	12.59
533.065	12.72
533.41	12.87
533.755	13.01
534.099	13.16
534.444	13.31
534.788	13.45
535.133	13.62
535.477	13.8
535.822	13.98
536.166	14.18
536.51	14.38
536.855	14.58
537.199	14.79
537.543	15
537.887	15.23
538.231	15.47
538.576	15.66
538.92	15.85
539.264	16.06
539.608	16.25
539.951	16.42
540.295	16.6
540.639	16.77
540.983	16.93
541.327	17.1
541.671	17.27
542.014	17.45
542.358	17.62
542.701	17.75
543.045	17.91
543.389	18.06
543.732	18.22
544.075	18.38
544.419	18.56
544.762	18.75
545.105	18.94
545.449	19.08
545.792	19.3
546.135	19.51
546.478	19.72
546.821	19.94
547.165	20.22
547.508	20.49
547.851	20.74
548.194	21
548.536	21.26
548.879	21.52
549.222	21.76
549.565	22.02
549.908	22.28
550.25	22.55
550.593	22.81
550.936	23.13
551.278	23.45
551.621	23.71
551.963	23.96
552.306	24.24
552.648	24.59
552.991	24.86
553.333	25.08
553.675	25.31
554.017	25.56
554.36	25.78
554.702	25.98
555.044	26.2
555.386	26.45
555.728	26.72
556.07	26.98
556.412	27.28
556.754	27.5
557.096	27.82
557.438	28.12
557.78	28.37
558.121	28.61
558.463	28.82
558.805	29.09
559.147	29.37
559.488	29.62
559.83	29.84
560.171	30.07
560.513	30.35
560.854	30.69
561.196	31
561.537	31.31
561.878	31.62
562.22	31.9
562.561	32.16
562.902	32.41
563.243	32.64
563.584	32.91
563.925	33.21
564.266	33.44
564.607	33.63
564.948	33.93
565.289	34.17
565.63	34.43
565.971	34.66
566.312	34.88
566.653	35.16
566.993	35.41
567.334	35.71
567.675	35.96
568.015	36.14
568.356	36.39
568.696	36.61
569.037	36.79
569.377	37.07
569.718	37.38
570.058	37.64
570.398	37.91
570.739	38.15
571.079	38.36
571.419	38.54
571.759	38.76
572.099	38.94
572.439	39.14
572.779	39.41
573.119	39.63
573.459	39.85
573.799	39.97
574.139	40.18
574.479	40.36
574.819	40.57
575.158	40.82
575.498	41.03
575.838	41.27
576.177	41.52
576.517	41.72
576.856	41.91
577.196	42.11
577.535	42.33
577.875	42.54
578.214	42.76
578.553	42.96
578.893	43.23
579.232	43.5
579.571	43.71
579.91	43.95
580.25	44.14
580.589	44.31
580.928	44.59
581.267	44.8
581.606	45.02
581.945	45.23
582.283	45.41
582.622	45.56
582.961	45.68
583.3	45.84
583.639	45.98
583.977	46.14
584.316	46.25
584.654	46.46
584.993	46.57
585.332	46.79
585.67	47.02
586.008	47.11
586.347	47.28
586.685	47.44
587.024	47.56
587.362	47.77
587.7	48
588.038	48.15
588.376	48.31
588.715	48.5
589.053	48.63
589.391	48.75
589.729	48.9
590.067	49.08
590.404	49.22
590.742	49.38
591.08	49.46
591.418	49.59
591.756	49.68
592.093	49.82
592.431	49.9
592.769	50.01
593.106	50.17
593.444	50.29
593.781	50.41
594.119	50.52
594.456	50.54
594.793	50.68
595.131	50.74
595.468	50.77
595.805	50.84
596.143	50.96
596.48	51.07
596.817	51.18
597.154	51.23
597.491	51.4
597.828	51.47
598.165	51.59
598.502	51.67
598.839	51.79
599.176	51.91
599.512	52.08
599.849	52.23
600.186	52.39
600.523	52.53
600.859	52.62
601.196	52.64
601.532	52.83
601.869	52.87
602.205	53.05
602.542	53.14
602.878	53.19
603.215	53.26
603.551	53.34
603.887	53.35
604.223	53.44
604.56	53.43
604.896	53.47
605.232	53.49
605.568	53.62
605.904	53.67
606.24	53.74
606.576	53.76
606.912	53.85
607.248	53.82
607.583	53.84
607.919	53.94
608.255	54.02
608.591	54.05
608.926	54.13
609.262	54.13
609.597	54.24
609.933	54.29
610.268	54.36
610.604	54.41
610.939	54.55
611.275	54.66
611.61	54.75
611.945	54.88
612.281	54.98
612.616	55.01
612.951	55.12
613.286	55.17
613.621	55.23
613.956	55.28
614.291	55.5
614.626	55.49
614.961	55.62
615.296	55.73
615.631	55.8
615.966	55.91
616.3	56.07
616.635	56.11
616.97	56.15
617.304	56.14
617.639	56.24
617.973	56.29
618.308	56.28
618.642	56.37
618.977	56.47
619.311	56.55
619.646	56.57
619.98	56.6
620.314	56.55
620.648	56.55
620.983	56.55
621.317	56.51
621.651	56.53
621.985	56.49
622.319	56.47
622.653	56.54
622.987	56.42
623.321	56.43
623.655	56.61
623.988	56.68
624.322	56.65
624.656	56.66
624.99	56.7
625.323	56.75
625.657	56.72
625.99	56.72
626.324	56.69
626.657	56.71
626.991	56.76
627.324	56.8
627.658	56.86
627.991	56.98
628.324	57.06
628.657	57.16
628.991	57.23
629.324	57.28
629.657	57.28
629.99	57.4
630.323	57.35
630.656	57.32
630.989	57.37
631.322	57.52
631.655	57.46
631.987	57.5
632.32	57.5
632.653	57.54
632.986	57.6
633.318	57.66
633.651	57.73
633.984	57.75
634.316	57.87
634.649	57.94
634.981	57.87
635.313	57.87
635.646	57.81
635.978	57.86
636.31	57.9
636.643	57.86
636.975	57.95
637.307	57.95
637.639	58.01
637.971	58.02
638.303	57.99
638.635	58.03
638.967	58.04
639.299	58.11
639.631	58.12
639.963	58.03
640.295	58.14
640.626	58.13
640.958	58.16
641.29	58.13
641.621	58.11
641.953	58.12
642.285	58.12
642.616	58.21
642.948	58.2
643.279	58.46
643.61	58.53
643.942	58.57
644.273	58.73
644.604	58.77
644.936	58.75
645.267	58.73
645.598	58.93
645.929	58.95
646.26	59.03
646.591	59.14
646.922	59.32
647.253	59.27
647.584	59.31
647.915	59.4
648.245	59.43
648.576	59.58
648.907	59.59
649.238	59.57
649.568	59.62
649.899	59.64
650.229	59.47
650.56	59.48
650.89	59.4
651.221	59.28
651.551	59.22
651.882	59.28
652.212	59.33
652.542	59.29
652.872	59.27
653.203	59.26
653.533	59.42
653.863	59.32
654.193	59.3
654.523	59.29
654.853	59.21
655.183	59.29
655.513	59.29
655.843	59.41
656.172	59.4
656.502	59.36
656.832	59.32
657.162	59.37
657.491	59.37
657.821	59.35
658.15	59.44
658.48	59.42
658.809	59.33
659.139	59.4
659.468	59.32
659.798	59.34
660.127	59.28
660.456	58.99
660.785	58.91
661.115	59
661.444	59.11
661.773	59.11
662.102	59.05
662.431	58.97
662.76	58.85
663.089	58.89
663.418	59.01
663.747	58.99
664.076	58.91
664.404	58.96
664.733	58.97
665.062	58.96
665.39	59
665.719	59.14
666.048	59.04
666.376	59.03
666.705	59.06
667.033	59
667.362	59.11
667.69	59.27
668.018	59.26
668.347	59.2
668.675	59.16
669.003	59.16
669.331	59.15
669.659	59.3
669.987	59.27
670.315	59.21
670.643	59.43
670.971	59.51
671.299	59.49
671.627	59.59
671.955	59.73
672.283	59.73
672.61	59.82
672.938	59.97
673.266	60.1
673.593	59.94
673.921	59.99
674.249	60.08
674.576	60.13
674.904	60.08
675.231	60.25
675.558	60.28
675.886	60.35
676.213	60.38
676.54	60.34
676.867	60.44
677.195	60.57
677.522	60.32
677.849	60.35
678.176	60.48
678.503	60.3
678.83	60.24
679.157	60.14
679.484	59.93
679.81	59.84
680.137	59.89
680.464	59.93
680.791	59.92
681.117	59.93
681.444	59.87
681.771	59.71
682.097	59.6
682.424	59.65
682.75	59.62
683.077	59.6
683.403	59.5
683.729	59.5
684.056	59.41
684.382	59.47
684.708	59.29
685.034	59.23
685.36	59.37
685.686	59.29
686.012	59.5
686.339	59.74
686.664	59.85
686.99	59.77
687.316	59.86
687.642	60
687.968	60.05
688.294	59.9
688.619	60.23
688.945	60.15
689.271	60.29
689.596	60.34
689.922	60.28
690.247	60.31
690.573	60.32
690.898	60.13
691.224	60.22
691.549	60.57
691.874	60.64
692.2	60.64
692.525	60.55
692.85	60.3
693.175	60.32
693.5	60.18
693.825	60.18
694.15	60.19
694.475	60.07
694.8	60.01
695.125	60.2
695.45	60.17
695.775	60.15
696.099	60
696.424	59.82
696.749	59.96
697.073	59.92
697.398	60.04
697.723	60.1
698.047	60
698.372	59.89
698.696	59.88
699.02	59.89
699.345	59.91
699.669	60.11
699.993	59.92
700.318	60.08
700.642	60.03
700.966	59.99
701.29	59.98
701.614	59.92
701.938	59.94
702.262	60
702.586	59.98
702.91	59.96
703.234	60.03
703.557	60.08
703.881	60.32
704.205	60.07
704.529	60.14
704.852	60.2
705.176	60.2
705.499	60.24
705.823	60.28
706.146	60.45
706.47	60.44
706.793	60.79
707.117	60.75
707.44	60.87
707.763	60.93
708.086	61.17
708.409	61.33
708.733	61.2
709.056	60.97
709.379	61.31
709.702	61.31
710.025	61.34
710.348	61.22
710.671	61.27
710.993	61.42
711.316	61.41
711.639	61.36
711.962	61.46
712.284	61.37
712.607	61.4
712.93	61.62
713.252	61.38
713.575	61.15
713.897	61.13
714.22	60.99
714.542	60.89
714.864	60.74
715.187	60.68
715.509	60.54
715.831	60.8
716.153	60.47
716.475	60.53
716.798	60.73
717.12	60.66
717.442	60.49
717.764	60.5
718.085	60.73
718.407	60.71
718.729	60.43
719.051	60.37
719.373	60.53
719.695	60.04
720.016	60.14
720.338	60.06
720.659	60.12
720.981	60.35
721.302	60.46
721.624	60.51
721.945	60.28
722.267	60.8
722.588	60.43
722.909	60.61
723.231	60.64
723.552	60.36
723.873	60.4
724.194	60.32
724.515	60.23
724.836	60.14
725.157	60.18
725.478	60.74
725.799	60.67
726.12	60.31
726.441	60.47
726.762	60.62
727.083	60.75
727.403	60.54
727.724	60.56
728.045	60.47
728.365	60.55
728.686	60.69
729.006	60.35
729.327	60.46
729.647	60.46
729.967	60.45
730.288	60.56
730.608	60.57
730.928	60.59
731.249	60.66
731.569	60.52
731.889	60.55
732.209	60.12
732.529	60.21
732.849	60.25
733.169	60.42
733.489	60.36
733.809	60.49
734.129	60.68
734.448	60.56
734.768	60.71
735.088	60.49
735.408	60.48
735.727	60.4
736.047	60.53
736.366	60.61
736.686	60.59
737.005	60.73
737.325	61.04
737.644	60.94
737.963	60.83
738.283	61.03
738.602	61.1
738.921	61.28
739.24	61.3
739.56	61.34
739.879	61.22
740.198	61.18
740.517	61.33
740.836	61.35
741.155	61.39
741.473	61.47
741.792	61.63
742.111	61.67
742.43	62.07
742.748	61.86
743.067	61.87
743.386	61.68
743.704	61.64
744.023	61.44
744.341	61.2
744.66	61.25
744.978	60.87
745.297	61.01
745.615	60.95
745.933	60.96
746.252	61.15
746.57	60.86
746.888	61.14
747.206	60.8
747.524	60.73
747.842	60.85
748.16	60.87
748.478	61.03
748.796	61.62
749.114	61.6
749.432	61.66
749.749	61.58
750.067	61.86
750.385	61.75
750.703	61.53
751.02	62.01
751.338	61.92
751.655	62
751.973	61.8
752.29	61.56
752.608	61.52
752.925	61.48
753.242	61.6
753.56	61.03
753.877	61.13
754.194	61.08
754.511	60.96
754.828	61.07
755.145	60.87
755.462	60.51
755.779	60.8
756.096	61.07
756.413	60.83
756.73	60.66
757.047	60.74
757.364	61.04
757.68	60.89
757.997	61.11
758.314	61.34
758.63	61.28
758.947	61.52
759.264	61.25
759.58	61.16
759.896	61.42
760.213	61.82
760.529	62
760.846	62.01
761.162	62.04
761.478	61.59
761.794	61.77
762.11	61.59
762.426	61.35
762.743	61.02
763.059	61.3
763.375	61.17
763.69	60.88
764.006	60.81
764.322	60.99
764.638	61.09
764.954	60.98
765.27	61.31
765.585	61.19
765.901	61.41
766.216	61.27
766.532	61.01
766.848	60.98
767.163	60.83
767.478	60.9
767.794	60.67
768.109	61.17
768.424	60.8
768.74	60.96
769.055	60.54
769.37	60.6
769.685	60.44
770	60.95
770.315	61.4
770.63	61.55
770.945	61.38
771.26	61.61
771.575	61.54
771.89	61.09
772.205	61.42
772.52	61.42
772.834	61.95
773.149	62.26
773.464	61.87
773.778	61.87
774.093	61.68
774.407	61.78
774.722	61.21
775.036	61.16
775.351	61.31
775.665	61.88
775.979	62.18
776.293	62.43
776.608	62
776.922	62.17
777.236	62.02
777.55	62.01
777.864	61.46
778.178	61.73
778.492	62
778.806	61.59
779.12	61.36
779.434	61.33
779.747	61.61
780.061	62.09
780.375	62.24
780.689	62.63
781.002	62.92
781.316	62.84
781.629	63.58
781.943	63.49
782.256	63.79
782.57	64.29
782.883	64.07
783.196	64.15
783.51	63.94
783.823	64.16
784.136	64.18
784.449	64.19
784.762	64.21
785.075	63.72
785.388	63.69
785.701	64.41
786.014	64.51
786.327	63.97
786.64	63.89
786.953	63.15
787.266	62.71
787.578	62.87
787.891	62.75
788.204	62.35
788.516	61.95
788.829	61.24
789.141	61.18
789.454	61.66
789.766	62.14
790.079	62.07
790.391	61.8
790.703	61.28
791.016	61.45
791.328	61.25
791.64	61.45
791.952	61.74
792.264	61.32
792.576	61.61
792.888	61.98
793.2	61.98
793.512	62.57
793.824	62.64
794.136	61.96
794.448	62.58
794.76	62.67
795.071	63.32
795.383	63.2
795.695	62.33
796.006	61.59
796.318	61.12
796.629	61.07
796.941	61.2
797.252	61.43
797.564	61.2
797.875	61.05
798.186	60.92
798.497	60.79
798.809	61.33
799.12	60.76
799.431	60.23
799.742	60.13
800.053	59.89
800.364	59.78
800.675	60.06
800.986	59.86
801.297	59.5
801.608	59
801.918	59.39
802.229	59.63
802.54	59.74
802.851	59.82
803.161	59.63
803.472	59.91
803.782	60.87
804.093	61.33
804.403	62
804.714	61.88
805.024	62.35
805.334	61.55
805.645	61.53
805.955	61.76
806.265	61.77
806.575	62.28
806.885	62.38
807.195	62.68
807.505	62.6
807.815	63.13
808.125	63.74
808.435	63
808.745	63.64
809.055	63.51
809.365	63.22
809.674	63.46
809.984	62.67
810.294	62.61
810.603	62.45
810.913	61.25
811.222	60.92
811.532	60.78
811.841	60.73
812.151	60.71
812.46	60.56
812.769	60.27
813.079	60.59
813.388	60.12
813.697	59.77
814.006	60.15
814.315	60.09
814.624	59.25
814.933	60.41
815.242	60.03
815.551	60.06
815.86	59.69
816.169	59.82
816.478	60
816.786	59.45
817.095	59.6
817.404	60.02
817.712	60.5
818.021	60.93
818.33	61.17
818.638	61.62
818.947	61.67
819.255	61.99
819.563	61.53
819.872	62.39
820.18	62.92
820.488	62.85
820.796	62.72
821.105	63.02
821.413	62.79
821.721	62.57
822.029	62.73
822.337	62.76
822.645	62.66
822.953	62.75
823.26	62.88
823.568	62.78
823.876	62.66
824.184	62.63
824.491	62.46
824.799	62.35
825.107	62.28
825.414	62.35
825.722	62.24
826.029	62.33
826.337	62.15
826.644	61.89
826.951	61.76
827.259	61.75
827.566	61.57
827.873	61.36
828.18	61.26
828.488	61.25
828.795	61.52
829.102	61.66
829.409	61.42
829.716	61.42
830.023	61.49
830.329	62.28
830.636	62.51
830.943	62.98
831.25	63.28
831.557	63.36
831.863	63.3
832.17	63.37
832.476	63.31
832.783	63.17
833.089	63.09
833.396	63.32
833.702	63.24
834.009	63.11
834.315	63.5
834.621	63.61
834.928	63.24
835.234	63.31
835.54	63.48
835.846	63.32
836.152	62.78
836.458	63
836.764	62.63
837.07	63.03
837.376	62.16
837.682	61.67
837.988	61.39
838.293	60.81
838.599	61.31
838.905	61.76
839.211	61.76
839.516	61.45
839.822	61.65
840.127	60.86
840.433	61.95
840.738	62.03
841.044	62.47
841.349	62.85
841.654	61.14
841.959	60.36
842.265	61.68
842.57	62.23
842.875	60.75
843.18	60.26
843.485	59.81
843.79	60.13
844.095	60.61
844.4	60.8
844.705	62.32
845.01	61.9
845.315	60.57
845.619	59.03
845.924	58.96
846.229	58.31
846.533	61.13
846.838	61.21
847.142	61.9
847.447	61.83
847.751	62.29
848.056	63.22
848.36	64
848.664	62.39
848.969	62.5
849.273	63.47
849.577	62.92
849.881	63.36
850.185	63.8
850.489	64.57
850.794	64.44
851.097	65.74
851.401	64.13
851.705	64.53
852.009	65.5
852.313	67.58
852.617	65.8
852.92	65.7
853.224	63.76
853.528	63.64
853.831	64.54
854.135	63.77
854.438	64.12
854.742	63.12
855.045	64.68
855.349	63.63
855.652	65.06
855.955	64.45
856.259	63.06
856.562	63.56
856.865	63.29
857.168	60.74
857.471	60.63
857.774	62.99
858.077	63.69
858.38	64.98
858.683	66.49
858.986	69.04
859.289	65.59
859.592	66.26
859.894	64.55
860.197	63.67
860.5	64.05
860.802	64.14
861.105	64.17
861.407	63.42
861.71	65.32
862.012	64.82
862.315	67.29
862.617	65.05
862.919	65.3
863.222	63.05
863.524	65.77
863.826	64.41
864.128	63.37
864.43	61.27
864.732	61.93
865.034	58.38
865.336	59.1
865.638	62.51
865.94	60.57
866.242	60.48
866.544	61.81
866.846	60.55
867.147	60.74
867.449	62.89
867.751	63.45
868.052	61.21
868.354	61.45
868.655	60.02
868.957	62.68
869.258	62.77
869.56	66.74
869.861	66.8
870.162	67.41
870.463	67.21
870.765	70.25
871.066	68.57
871.367	69.8
871.668	67.43
871.969	66.28
872.27	65.65
872.571	68.33
872.872	67.2
873.173	69.08
873.473	71.05
873.774	69.37
874.075	68.89
874.376	72.68
874.676	69.86
874.977	74.36
875.277	72.41
875.578	72.17
875.878	70.65
876.179	70.95
876.479	70.74
876.78	71.73
877.08	70.05
877.38	72.43
877.68	73.5
877.981	75.48
878.281	75.1
878.581	79.18
