Data from BA51068_Reflection_00007.txt Node
Date: Tue Nov 19 11:59:02 EST 2019
User: vgr7
Spectrometer: USB2G7710
Scans to average: 3
Trigger mode: 4
Integration Time (sec): 2.000000E-2
Electric dark correction enabled: true
Boxcar width: 10
XAxis mode: Wavelengths
Number of Pixels in Spectrum: 2048
>>>>>Begin Spectral Data<<<<<
177.721	205.41
178.105	-503.45
178.488	-290.79
178.871	-329.09
179.254	11600
179.636	1153.57
180.019	-161.73
180.402	116.67
180.785	122.35
181.168	83.05
181.55	-630.77
181.933	98.07
182.316	98.66
182.698	35.7
183.081	-46.03
183.463	-50.12
183.846	190.16
184.228	-6.28
184.611	49.82
184.993	64.9
185.376	39.47
185.758	56.18
186.14	69.57
186.522	30.92
186.904	94.51
187.287	46.45
187.669	41.06
188.051	-17.6
188.433	-28.65
188.815	-81.13
189.197	-69.63
189.579	-50.62
189.961	-33.77
190.342	-27.62
190.724	-26.79
191.106	-54.53
191.488	-67.27
191.869	-34.94
192.251	-61.51
192.633	-134.64
193.014	-123.55
193.396	-1182.61
193.777	-93.5
194.159	-51.97
194.54	-62.12
194.922	-16.9
195.303	-35.44
195.684	-26.06
196.065	34.89
196.447	-29.82
196.828	-16.9
197.209	-24.08
197.59	-57.72
197.971	125.77
198.352	39.74
198.733	23.69
199.114	24.03
199.495	-132.48
199.876	-32.65
200.257	-3.43
200.638	-37.85
201.018	-91.03
201.399	-123.5
201.78	-940.98
202.16	1228.57
202.541	769.49
202.922	139.75
203.302	553.27
203.683	-172.41
204.063	-54.24
204.444	-190.39
204.824	-285.11
205.204	-340.71
205.585	-1019.83
205.965	-2219.67
206.345	726.9
206.725	699.6
207.106	1566.39
207.486	360.82
207.866	313.99
208.246	157.67
208.626	124.93
209.006	137.59
209.386	100.38
209.766	85.11
210.145	114.45
210.525	126.83
210.905	93.81
211.285	75.21
211.664	68.03
212.044	63.8
212.424	51.47
212.803	39.62
213.183	35.62
213.562	21.37
213.942	18.97
214.321	18.4
214.701	4.68
215.08	-3.96
215.459	4.88
215.838	11.37
216.218	10.87
216.597	11.4
216.976	8.14
217.355	10.65
217.734	5.73
218.113	2.38
218.492	-4.16
218.871	0.34
219.25	-3.09
219.629	-4.35
220.008	-7.47
220.387	-3.02
220.766	6.19
221.144	1.3
221.523	-5.16
221.902	-8.77
222.28	-6.85
222.659	2.59
223.037	11.28
223.416	0.39
223.794	4.6
224.173	-6.64
224.551	-9.97
224.929	-9.9
225.308	-16.85
225.686	-9.12
226.064	-8.76
226.442	-3.58
226.821	-9.05
227.199	-7.8
227.577	-3.1
227.955	-1.85
228.333	-2.94
228.711	-2.83
229.089	-2.08
229.467	0.17
229.845	-1.8
230.222	-2.45
230.6	-2.7
230.978	-1.84
231.356	-1.63
231.733	-1.7
232.111	-1.11
232.488	-1.67
232.866	-2.02
233.243	-0.06
233.621	1.6
233.998	0.67
234.376	0.19
234.753	2.89
235.13	4.3
235.508	3.27
235.885	3.88
236.262	4.73
236.639	2
237.016	1.28
237.393	1.86
237.77	3.05
238.147	3.75
238.524	3.34
238.901	2.99
239.278	2.93
239.655	2.04
240.032	2.85
240.409	3.07
240.785	3.28
241.162	3.8
241.539	3.47
241.915	3.88
242.292	4.08
242.668	3.72
243.045	3.68
243.421	3.82
243.798	3.67
244.174	3.49
244.551	3.93
244.927	4.18
245.303	4.02
245.679	4.06
246.056	3.95
246.432	3.97
246.808	3.98
247.184	3.89
247.56	3.79
247.936	3.92
248.312	4.13
248.688	4.11
249.064	3.93
249.44	3.53
249.815	3.44
250.191	3.62
250.567	3.5
250.943	3.62
251.318	3.34
251.694	3.3
252.069	3.3
252.445	3.06
252.82	3.36
253.196	3.5
253.571	3.49
253.947	3.66
254.322	3.75
254.697	3.98
255.073	3.8
255.448	4.07
255.823	3.64
256.198	3.51
256.573	3.58
256.948	3.51
257.323	3.74
257.698	3.79
258.073	3.5
258.448	3.57
258.823	3.24
259.198	3.44
259.573	3.38
259.948	3.61
260.322	3.8
260.697	3.54
261.072	3.52
261.446	3.39
261.821	3.25
262.195	3.11
262.57	3.01
262.944	3.12
263.319	3.07
263.693	3.27
264.067	3.4
264.442	3.51
264.816	3.33
265.19	3.24
265.564	3.19
265.938	3.32
266.313	3.12
266.687	3.22
267.061	3.21
267.435	3.35
267.809	3.12
268.183	2.85
268.556	2.78
268.93	2.77
269.304	2.85
269.678	3.09
270.051	3.32
270.425	3.43
270.799	3.32
271.172	3.39
271.546	3.4
271.919	3.29
272.293	3.22
272.666	3.5
273.04	3.59
273.413	3.61
273.787	3.44
274.16	3.51
274.533	3.71
274.906	3.7
275.279	3.67
275.653	3.77
276.026	3.87
276.399	3.97
276.772	4.09
277.145	4.01
277.518	3.84
277.891	3.76
278.263	3.66
278.636	3.81
279.009	3.79
279.382	3.78
279.755	3.88
280.127	3.97
280.5	3.84
280.872	3.92
281.245	4.01
281.617	4.25
281.99	4.22
282.362	4
282.735	3.89
283.107	3.86
283.479	3.77
283.852	3.87
284.224	3.82
284.596	3.65
284.968	3.71
285.34	3.68
285.713	3.73
286.085	3.68
286.457	3.6
286.829	3.56
287.201	3.52
287.572	3.45
287.944	3.34
288.316	3.23
288.688	3.21
289.06	3.19
289.431	3.1
289.803	3.3
290.175	3.36
290.546	3.43
290.918	3.47
291.289	3.43
291.661	3.37
292.032	3.49
292.403	3.51
292.775	3.6
293.146	3.68
293.517	3.66
293.889	3.74
294.26	3.71
294.631	3.75
295.002	3.76
295.373	3.66
295.744	3.75
296.115	3.86
296.486	3.82
296.857	3.88
297.228	3.84
297.599	3.65
297.97	3.71
298.34	3.65
298.711	3.68
299.082	3.74
299.452	3.67
299.823	3.56
300.194	3.57
300.564	3.5
300.935	3.51
301.305	3.49
301.676	3.49
302.046	3.61
302.416	3.56
302.787	3.57
303.157	3.82
303.527	3.8
303.897	3.76
304.267	3.86
304.637	3.65
305.008	3.67
305.378	3.88
305.748	3.84
306.117	3.91
306.487	4.02
306.857	4
307.227	4.17
307.597	4.31
307.967	4.3
308.336	4.55
308.706	4.46
309.076	4.51
309.445	4.81
309.815	4.71
310.184	4.78
310.554	4.7
310.923	4.53
311.293	4.58
311.662	4.69
312.031	4.66
312.401	4.77
312.77	4.75
313.139	4.63
313.508	4.64
313.877	4.69
314.246	4.63
314.616	4.91
314.985	4.86
315.353	4.82
315.722	5.04
316.091	4.88
316.46	4.98
316.829	5.02
317.198	4.77
317.567	4.97
317.935	5.07
318.304	5.2
318.672	5.49
319.041	5.58
319.41	5.67
319.778	5.74
320.147	5.79
320.515	5.91
320.883	5.88
321.252	5.96
321.62	5.98
321.988	6.01
322.357	5.66
322.725	5.71
323.093	5.48
323.461	5.49
323.829	5.56
324.197	5.59
324.565	5.48
324.933	5.44
325.301	5.36
325.669	5.24
326.037	5.28
326.405	5.04
326.772	4.89
327.14	4.81
327.508	4.85
327.875	4.99
328.243	5.06
328.61	5.25
328.978	5.11
329.346	5.21
329.713	5.21
330.08	5.4
330.448	5.33
330.815	5.61
331.182	5.39
331.55	5.26
331.917	5.15
332.284	5.17
332.651	5.14
333.018	5.15
333.385	5.25
333.752	5.19
334.119	5.32
334.486	5.3
334.853	5.29
335.22	5.21
335.587	5.15
335.954	5.09
336.32	4.89
336.687	4.89
337.054	4.79
337.42	4.78
337.787	4.72
338.153	4.83
338.52	4.89
338.886	5.04
339.253	4.9
339.619	5.05
339.986	5.08
340.352	5.18
340.718	5.25
341.084	5.27
341.451	5.25
341.817	5.22
342.183	5.2
342.549	5.16
342.915	5.29
343.281	5.18
343.647	5.22
344.013	5.37
344.379	5.5
344.745	5.58
345.11	5.55
345.476	5.55
345.842	5.36
346.208	5.44
346.573	5.47
346.939	5.72
347.304	5.69
347.67	5.68
348.035	5.66
348.401	5.69
348.766	5.67
349.132	5.74
349.497	5.89
349.862	5.95
350.228	5.95
350.593	5.8
350.958	5.95
351.323	5.91
351.688	5.87
352.053	5.82
352.418	5.75
352.783	5.77
353.148	5.74
353.513	5.84
353.878	5.65
354.243	5.57
354.608	5.49
354.972	5.4
355.337	5.42
355.702	5.37
356.066	5.36
356.431	5.36
356.795	5.34
357.16	5.2
357.524	5.18
357.889	5.14
358.253	5.12
358.618	4.96
358.982	4.98
359.346	4.95
359.71	4.97
360.075	4.96
360.439	4.95
360.803	5
361.167	5.03
361.531	5.06
361.895	5.01
362.259	5.03
362.623	5.04
362.987	5.03
363.351	5.05
363.714	5
364.078	4.98
364.442	4.96
364.806	4.99
365.169	4.99
365.533	5
365.896	5.02
366.26	5.06
366.623	5.11
366.987	5.11
367.35	5.14
367.714	5.08
368.077	5
368.44	4.93
368.803	4.84
369.167	4.73
369.53	4.74
369.893	4.72
370.256	4.7
370.619	4.64
370.982	4.51
371.345	4.47
371.708	4.41
372.071	4.4
372.434	4.35
372.797	4.33
373.159	4.33
373.522	4.35
373.885	4.35
374.247	4.26
374.61	4.28
374.973	4.18
375.335	4.2
375.698	4.15
376.06	4.16
376.423	4.14
376.785	4.2
377.147	4.17
377.51	4.12
377.872	4.07
378.234	4.08
378.596	4.11
378.958	4.17
379.321	4.11
379.683	4.1
380.045	4.08
380.407	4.08
380.769	4.09
381.13	4
381.492	3.98
381.854	3.95
382.216	3.87
382.578	3.91
382.939	3.9
383.301	3.99
383.663	3.95
384.024	3.9
384.386	3.92
384.747	3.91
385.109	3.9
385.47	3.96
385.832	3.93
386.193	3.92
386.554	3.83
386.916	3.87
387.277	3.8
387.638	3.77
387.999	3.73
388.36	3.66
388.721	3.72
389.082	3.74
389.443	3.75
389.804	3.77
390.165	3.72
390.526	3.71
390.887	3.63
391.248	3.65
391.609	3.71
391.969	3.67
392.33	3.67
392.691	3.67
393.051	3.64
393.412	3.64
393.772	3.64
394.133	3.64
394.493	3.62
394.854	3.66
395.214	3.67
395.574	3.68
395.935	3.68
396.295	3.66
396.655	3.62
397.015	3.56
397.376	3.54
397.736	3.5
398.096	3.47
398.456	3.47
398.816	3.44
399.176	3.38
399.535	3.38
399.895	3.35
400.255	3.35
400.615	3.31
400.975	3.29
401.334	3.3
401.694	3.3
402.054	3.3
402.413	3.27
402.773	3.28
403.132	3.25
403.492	3.25
403.851	3.21
404.211	3.21
404.57	3.22
404.929	3.23
405.288	3.28
405.648	3.28
406.007	3.28
406.366	3.25
406.725	3.25
407.084	3.23
407.443	3.21
407.802	3.2
408.161	3.21
408.52	3.25
408.879	3.21
409.238	3.22
409.596	3.23
409.955	3.21
410.314	3.19
410.673	3.17
411.031	3.17
411.39	3.16
411.748	3.14
412.107	3.12
412.465	3.1
412.824	3.08
413.182	3.08
413.54	3.09
413.899	3.07
414.257	3.09
414.615	3.08
414.974	3.1
415.332	3.08
415.69	3.08
416.048	3.03
416.406	3
416.764	3
417.122	3.01
417.48	3
417.838	3.02
418.195	3.03
418.553	3.02
418.911	3.03
419.269	3.03
419.626	3.04
419.984	3.05
420.342	3.04
420.699	3.03
421.057	3.03
421.414	3.04
421.772	3.04
422.129	3.03
422.486	3.02
422.844	3.01
423.201	3.01
423.558	3
423.915	3.04
424.273	3.03
424.63	3.03
424.987	3.03
425.344	3.03
425.701	3.03
426.058	3.03
426.415	3
426.772	2.99
427.128	2.99
427.485	2.97
427.842	2.98
428.199	3
428.555	2.96
428.912	2.95
429.269	2.94
429.625	2.95
429.982	2.94
430.338	2.97
430.695	2.96
431.051	2.98
431.407	2.94
431.764	2.93
432.12	2.91
432.476	2.92
432.832	2.92
433.189	2.91
433.545	2.93
433.901	2.95
434.257	2.95
434.613	2.95
434.969	2.94
435.325	2.94
435.681	2.92
436.036	2.93
436.392	2.93
436.748	2.92
437.104	2.91
437.459	2.92
437.815	2.91
438.171	2.9
438.526	2.89
438.882	2.89
439.237	2.89
439.593	2.9
439.948	2.89
440.304	2.87
440.659	2.86
441.014	2.86
441.369	2.83
441.725	2.85
442.08	2.85
442.435	2.85
442.79	2.83
443.145	2.83
443.5	2.82
443.855	2.82
444.21	2.83
444.565	2.84
444.92	2.85
445.275	2.84
445.629	2.83
445.984	2.83
446.339	2.84
446.693	2.84
447.048	2.82
447.403	2.82
447.757	2.83
448.112	2.83
448.466	2.83
448.82	2.84
449.175	2.83
449.529	2.83
449.883	2.82
450.238	2.85
450.592	2.83
450.946	2.84
451.3	2.86
451.654	2.84
452.008	2.83
452.362	2.84
452.716	2.84
453.07	2.85
453.424	2.84
453.778	2.83
454.132	2.83
454.486	2.85
454.839	2.84
455.193	2.85
455.547	2.86
455.9	2.87
456.254	2.88
456.607	2.86
456.961	2.88
457.314	2.9
457.668	2.88
458.021	2.88
458.375	2.89
458.728	2.87
459.081	2.87
459.434	2.89
459.787	2.87
460.141	2.86
460.494	2.88
460.847	2.88
461.2	2.89
461.553	2.9
461.906	2.89
462.259	2.88
462.611	2.87
462.964	2.87
463.317	2.84
463.67	2.85
464.022	2.85
464.375	2.86
464.728	2.84
465.08	2.83
465.433	2.83
465.785	2.82
466.138	2.83
466.49	2.84
466.843	2.87
467.195	2.86
467.547	2.87
467.899	2.86
468.252	2.86
468.604	2.88
468.956	2.87
469.308	2.86
469.66	2.87
470.012	2.87
470.364	2.88
470.716	2.91
471.068	2.91
471.42	2.95
471.772	2.94
472.123	2.95
472.475	2.96
472.827	2.97
473.178	2.98
473.53	2.97
473.882	2.97
474.233	2.94
474.585	2.97
474.936	2.98
475.288	2.97
475.639	2.99
475.99	2.94
476.342	2.93
476.693	2.93
477.044	2.92
477.395	2.92
477.746	2.89
478.097	2.88
478.448	2.87
478.8	2.86
479.15	2.84
479.501	2.83
479.852	2.81
480.203	2.81
480.554	2.82
480.905	2.82
481.255	2.82
481.606	2.82
481.957	2.82
482.307	2.82
482.658	2.83
483.009	2.83
483.359	2.84
483.709	2.85
484.06	2.86
484.41	2.87
484.761	2.87
485.111	2.88
485.461	2.89
485.811	2.88
486.162	2.88
486.512	2.89
486.862	2.9
487.212	2.91
487.562	2.91
487.912	2.9
488.262	2.9
488.612	2.91
488.961	2.92
489.311	2.93
489.661	2.93
490.011	2.9
490.36	2.9
490.71	2.91
491.06	2.9
491.409	2.91
491.759	2.91
492.108	2.9
492.458	2.9
492.807	2.9
493.157	2.9
493.506	2.91
493.855	2.92
494.204	2.92
494.554	2.93
494.903	2.95
495.252	2.96
495.601	2.99
495.95	2.96
496.299	2.96
496.648	2.98
496.997	2.98
497.346	3.03
497.695	3.05
498.043	3.07
498.392	3.08
498.741	3.09
499.09	3.11
499.438	3.13
499.787	3.14
500.135	3.15
500.484	3.17
500.832	3.17
501.181	3.19
501.529	3.21
501.878	3.24
502.226	3.22
502.574	3.23
502.923	3.23
503.271	3.27
503.619	3.28
503.967	3.28
504.315	3.29
504.663	3.28
505.011	3.29
505.359	3.3
505.707	3.33
506.055	3.33
506.403	3.35
506.751	3.35
507.098	3.38
507.446	3.4
507.794	3.41
508.141	3.43
508.489	3.42
508.837	3.43
509.184	3.44
509.531	3.47
509.879	3.49
510.226	3.5
510.574	3.53
510.921	3.56
511.268	3.58
511.616	3.62
511.963	3.65
512.31	3.69
512.657	3.7
513.004	3.7
513.351	3.73
513.698	3.72
514.045	3.77
514.392	3.8
514.739	3.84
515.086	3.86
515.432	3.89
515.779	3.93
516.126	3.98
516.473	3.99
516.819	4.02
517.166	4.04
517.512	4.07
517.859	4.08
518.205	4.08
518.552	4.11
518.898	4.14
519.245	4.17
519.591	4.2
519.937	4.25
520.283	4.29
520.629	4.32
520.976	4.38
521.322	4.41
521.668	4.44
522.014	4.47
522.36	4.53
522.706	4.57
523.052	4.62
523.398	4.68
523.743	4.74
524.089	4.8
524.435	4.86
524.781	4.93
525.126	4.99
525.472	5.05
525.817	5.09
526.163	5.12
526.509	5.17
526.854	5.22
527.199	5.26
527.545	5.31
527.89	5.36
528.235	5.4
528.581	5.45
528.926	5.49
529.271	5.54
529.616	5.58
529.961	5.62
530.306	5.68
530.651	5.73
530.996	5.79
531.341	5.87
531.686	5.94
532.031	6
532.376	6.07
532.721	6.16
533.065	6.25
533.41	6.34
533.755	6.42
534.099	6.52
534.444	6.59
534.788	6.65
535.133	6.74
535.477	6.84
535.822	6.94
536.166	7.06
536.51	7.19
536.855	7.36
537.199	7.5
537.543	7.64
537.887	7.8
538.231	7.96
538.576	8.13
538.92	8.3
539.264	8.45
539.608	8.59
539.951	8.72
540.295	8.86
540.639	9.01
540.983	9.13
541.327	9.28
541.671	9.45
542.014	9.6
542.358	9.75
542.701	9.87
543.045	10.03
543.389	10.18
543.732	10.33
544.075	10.48
544.419	10.64
544.762	10.83
545.105	11.02
545.449	11.2
545.792	11.37
546.135	11.57
546.478	11.79
546.821	12.08
547.165	12.32
547.508	12.57
547.851	12.83
548.194	13.09
548.536	13.31
548.879	13.57
549.222	13.85
549.565	14.12
549.908	14.4
550.25	14.66
550.593	14.94
550.936	15.22
551.278	15.55
551.621	15.84
551.963	16.11
552.306	16.43
552.648	16.74
552.991	17.05
553.333	17.37
553.675	17.67
554.017	17.97
554.36	18.28
554.702	18.53
555.044	18.81
555.386	19.11
555.728	19.4
556.07	19.7
556.412	20.03
556.754	20.31
557.096	20.69
557.438	21.03
557.78	21.38
558.121	21.73
558.463	22.02
558.805	22.36
559.147	22.77
559.488	23.08
559.83	23.44
560.171	23.78
560.513	24.06
560.854	24.43
561.196	24.76
561.537	25.09
561.878	25.48
562.22	25.83
562.561	26.2
562.902	26.55
563.243	26.89
563.584	27.22
563.925	27.58
564.266	27.93
564.607	28.25
564.948	28.51
565.289	28.83
565.63	29.09
565.971	29.4
566.312	29.61
566.653	29.91
566.993	30.15
567.334	30.43
567.675	30.74
568.015	31.05
568.356	31.34
568.696	31.67
569.037	31.91
569.377	32.2
569.718	32.45
570.058	32.72
570.398	33.01
570.739	33.3
571.079	33.53
571.419	33.73
571.759	34.04
572.099	34.31
572.439	34.55
572.779	34.83
573.119	35.13
573.459	35.38
573.799	35.59
574.139	35.87
574.479	36.06
574.819	36.34
575.158	36.53
575.498	36.74
575.838	36.94
576.177	37.24
576.517	37.46
576.856	37.74
577.196	38.02
577.535	38.27
577.875	38.5
578.214	38.8
578.553	39.08
578.893	39.31
579.232	39.58
579.571	39.83
579.91	40.04
580.25	40.18
580.589	40.45
580.928	40.7
581.267	40.9
581.606	41.24
581.945	41.4
582.283	41.57
582.622	41.71
582.961	41.89
583.3	41.97
583.639	42.17
583.977	42.32
584.316	42.53
584.654	42.73
584.993	42.83
585.332	42.97
585.67	43.16
586.008	43.27
586.347	43.43
586.685	43.62
587.024	43.85
587.362	43.99
587.7	44.14
588.038	44.31
588.376	44.46
588.715	44.53
589.053	44.73
589.391	44.87
589.729	45.11
590.067	45.29
590.404	45.5
590.742	45.72
591.08	45.89
591.418	46.02
591.756	46.23
592.093	46.51
592.431	46.86
592.769	47.06
593.106	47.34
593.444	47.54
593.781	47.68
594.119	47.83
594.456	47.99
594.793	48.18
595.131	48.29
595.468	48.46
595.805	48.71
596.143	48.72
596.48	48.92
596.817	49.04
597.154	49.19
597.491	49.3
597.828	49.38
598.165	49.49
598.502	49.59
598.839	49.67
599.176	49.77
599.512	49.76
599.849	49.81
600.186	49.91
600.523	50.06
600.859	50.13
601.196	50.29
601.532	50.44
601.869	50.54
602.205	50.81
602.542	50.92
602.878	50.9
603.215	51.05
603.551	51.1
603.887	51.2
604.223	51.25
604.56	51.38
604.896	51.55
605.232	51.68
605.568	51.73
605.904	51.85
606.24	51.99
606.576	52.08
606.912	52.2
607.248	52.23
607.583	52.38
607.919	52.64
608.255	52.72
608.591	52.85
608.926	52.94
609.262	52.96
609.597	53.01
609.933	53.14
610.268	53.2
610.604	53.27
610.939	53.29
611.275	53.43
611.61	53.49
611.945	53.43
612.281	53.56
612.616	53.68
612.951	53.65
613.286	53.64
613.621	53.66
613.956	53.79
614.291	53.88
614.626	53.8
614.961	53.63
615.296	53.65
615.631	53.63
615.966	53.62
616.3	53.64
616.635	53.79
616.97	53.8
617.304	53.88
617.639	54.07
617.973	54.23
618.308	54.27
618.642	54.24
618.977	54.38
619.311	54.36
619.646	54.5
619.98	54.61
620.314	54.75
620.648	54.92
620.983	55.01
621.317	55.04
621.651	54.99
621.985	55.22
622.319	55.32
622.653	55.51
622.987	55.61
623.321	55.8
623.655	55.77
623.988	55.86
624.322	56
624.656	55.94
624.99	56
625.323	56.04
625.657	56.16
625.99	56.23
626.324	56.3
626.657	56.33
626.991	56.33
627.324	56.37
627.658	56.3
627.991	56.3
628.324	56.41
628.657	56.48
628.991	56.46
629.324	56.48
629.657	56.43
629.99	56.5
630.323	56.35
630.656	56.48
630.989	56.56
631.322	56.53
631.655	56.5
631.987	56.63
632.32	56.71
632.653	56.63
632.986	56.65
633.318	56.73
633.651	56.8
633.984	56.81
634.316	56.79
634.649	56.9
634.981	56.95
635.313	56.97
635.646	57.16
635.978	57.18
636.31	57.4
636.643	57.52
636.975	57.5
637.307	57.56
637.639	57.51
637.971	57.48
638.303	57.48
638.635	57.63
638.967	57.46
639.299	57.39
639.631	57.62
639.963	57.64
640.295	57.57
640.626	57.48
640.958	57.53
641.29	57.57
641.621	57.63
641.953	57.62
642.285	57.71
642.616	57.76
642.948	57.72
643.279	57.4
643.61	57.43
643.942	57.47
644.273	57.5
644.604	57.51
644.936	57.62
645.267	57.64
645.598	57.76
645.929	57.94
646.26	58.12
646.591	58.2
646.922	58.25
647.253	58.28
647.584	58.33
647.915	58.45
648.245	58.49
648.576	58.4
648.907	58.37
649.238	58.36
649.568	58.37
649.899	58.5
650.229	58.61
650.56	58.59
650.89	58.71
651.221	58.82
651.551	58.91
651.882	58.87
652.212	59.03
652.542	58.9
652.872	58.8
653.203	58.68
653.533	58.63
653.863	58.76
654.193	58.83
654.523	58.84
654.853	58.93
655.183	58.95
655.513	59.05
655.843	59.17
656.172	59.18
656.502	59.25
656.832	59.24
657.162	59.38
657.491	59.57
657.821	59.49
658.15	59.55
658.48	59.56
658.809	59.67
659.139	59.61
659.468	59.73
659.798	59.72
660.127	59.87
660.456	59.87
660.785	59.77
661.115	59.8
661.444	59.8
661.773	59.69
662.102	59.76
662.431	59.75
662.76	59.86
663.089	59.91
663.418	59.78
663.747	59.86
664.076	59.84
664.404	59.78
664.733	59.81
665.062	59.64
665.39	59.7
665.719	59.7
666.048	59.79
666.376	59.76
666.705	59.88
667.033	59.82
667.362	59.99
667.69	60.15
668.018	60.22
668.347	60.26
668.675	60.39
669.003	60.29
669.331	60.34
669.659	60.29
669.987	60.32
670.315	60.4
670.643	60.31
670.971	60.38
671.299	60.28
671.627	60.37
671.955	60.52
672.283	60.48
672.61	60.52
672.938	60.47
673.266	60.5
673.593	60.46
673.921	60.62
674.249	60.53
674.576	60.54
674.904	60.54
675.231	60.62
675.558	60.66
675.886	60.87
676.213	60.95
676.54	60.93
676.867	60.94
677.195	60.97
677.522	61.03
677.849	61.08
678.176	61.16
678.503	61.23
678.83	61.2
679.157	61.21
679.484	61.18
679.81	61.14
680.137	61.17
680.464	61.2
680.791	61.09
681.117	61.08
681.444	60.98
681.771	60.85
682.097	60.9
682.424	60.86
682.75	60.89
683.077	60.85
683.403	60.83
683.729	60.88
684.056	60.79
684.382	60.91
684.708	60.83
685.034	60.8
685.36	60.63
685.686	60.58
686.012	60.79
686.339	60.81
686.664	61.01
686.99	60.99
687.316	60.97
687.642	61.02
687.968	61.06
688.294	61.03
688.619	61.1
688.945	60.97
689.271	61.03
689.596	60.96
689.922	60.91
690.247	60.82
690.573	60.86
690.898	61
691.224	60.95
691.549	61
691.874	61.08
692.2	61.27
692.525	61.38
692.85	61.34
693.175	61.31
693.5	61.23
693.825	61.19
694.15	61.5
694.475	61.28
694.8	61.26
695.125	61.37
695.45	61.5
695.775	61.56
696.099	61.6
696.424	61.52
696.749	61.74
697.073	61.89
697.398	61.9
697.723	62
698.047	61.94
698.372	61.98
698.696	61.99
699.02	61.96
699.345	62.15
699.669	61.92
699.993	61.91
700.318	61.87
700.642	61.93
700.966	61.77
701.29	61.97
701.614	62.17
701.938	62.17
702.262	62.16
702.586	62.09
702.91	62.08
703.234	62.2
703.557	61.93
703.881	61.82
704.205	61.8
704.529	61.62
704.852	61.57
705.176	61.62
705.499	61.55
705.823	61.42
706.146	61.33
706.47	61.52
706.793	61.51
707.117	61.69
707.44	61.79
707.763	61.93
708.086	61.74
708.409	61.37
708.733	61.43
709.056	61.35
709.379	61.49
709.702	61.68
710.025	61.5
710.348	61.55
710.671	61.58
710.993	61.52
711.316	61.52
711.639	61.55
711.962	61.41
712.284	61.52
712.607	61.65
712.93	61.55
713.252	61.56
713.575	61.68
713.897	61.95
714.22	61.99
714.542	61.96
714.864	62.03
715.187	62.04
715.509	62.04
715.831	62.18
716.153	62.28
716.475	62.06
716.798	62.29
717.12	62.33
717.442	62.4
717.764	62.57
718.085	62.76
718.407	62.77
718.729	62.82
719.051	62.81
719.373	62.76
719.695	62.81
720.016	62.79
720.338	63.13
720.659	62.73
720.981	62.64
721.302	62.67
721.624	63.05
721.945	63.15
722.267	63.14
722.588	62.96
722.909	62.92
723.231	63.18
723.552	62.97
723.873	62.85
724.194	62.98
724.515	62.73
724.836	62.97
725.157	63.12
725.478	63.3
725.799	63.28
726.12	63.15
726.441	63.05
726.762	63.09
727.083	62.64
727.403	62.69
727.724	62.59
728.045	62.66
728.365	62.52
728.686	62.37
729.006	62.4
729.327	62.53
729.647	62.57
729.967	62.3
730.288	62.66
730.608	63.01
730.928	62.94
731.249	62.85
731.569	62.46
731.889	62.55
732.209	62.66
732.529	62.77
732.849	62.84
733.169	63.05
733.489	63.1
733.809	63.35
734.129	63.21
734.448	63.41
734.768	63.29
735.088	63.15
735.408	63.45
735.727	63.47
736.047	63.29
736.366	63.32
736.686	63.33
737.005	62.99
737.325	62.9
737.644	62.81
737.963	63.21
738.283	63.66
738.602	63.64
738.921	63.24
739.24	63.15
739.56	63.32
739.879	63.2
740.198	63.14
740.517	63.03
740.836	63.06
741.155	63.3
741.473	63.45
741.792	63.81
742.111	63.48
742.43	63.29
742.748	63.75
743.067	63.73
743.386	63.95
743.704	63.94
744.023	63.82
744.341	63.85
744.66	63.47
744.978	63.31
745.297	63.29
745.615	63.3
745.933	63.31
746.252	63.12
746.57	63.02
746.888	63.24
747.206	63
747.524	63.09
747.842	62.54
748.16	62.33
748.478	61.9
748.796	62.15
749.114	62.6
749.432	62.27
749.749	62.06
750.067	61.77
750.385	62.03
750.703	62.21
751.02	62.72
751.338	63.22
751.655	63.29
751.973	63.2
752.29	63.52
752.608	63.61
752.925	63.82
753.242	63.83
753.56	64.03
753.877	64.03
754.194	64.06
754.511	64.31
754.828	64.84
755.145	65.18
755.462	65.44
755.779	65.12
756.096	65.23
756.413	65.19
756.73	65.33
757.047	65.25
757.364	65.14
757.68	64.74
757.997	64.2
758.314	64.04
758.63	64.07
758.947	63.99
759.264	64.21
759.58	64.1
759.896	64.49
760.213	63.97
760.529	64.48
760.846	64.66
761.162	64.7
761.478	64.28
761.794	64.11
762.11	64.04
762.426	64.06
762.743	64.1
763.059	64.34
763.375	64.47
763.69	64.61
764.006	64.77
764.322	65.04
764.638	64.97
764.954	64.89
765.27	64.85
765.585	64.79
765.901	64.76
766.216	64.72
766.532	64.21
766.848	64.4
767.163	64.01
767.478	63.9
767.794	63.82
768.109	64.07
768.424	64.12
768.74	63.95
769.055	64.3
769.37	64.26
769.685	64.11
770	64.01
770.315	63.98
770.63	63.65
770.945	63.48
771.26	63.63
771.575	63.6
771.89	63.5
772.205	63.28
772.52	62.81
772.834	63.37
773.149	64.31
773.464	64.13
773.778	64.43
774.093	64.68
774.407	64.88
774.722	64.74
775.036	65.03
775.351	65.19
775.665	64.65
775.979	64.8
776.293	65.04
776.608	65.27
776.922	64.82
777.236	64.87
777.55	64.08
777.864	64
778.178	64.41
778.492	64.75
778.806	65.11
779.12	65.75
779.434	64.88
779.747	63.98
780.061	64.28
780.375	64.35
780.689	64.15
781.002	64.11
781.316	63.92
781.629	63.52
781.943	63.39
782.256	63.64
782.57	63.49
782.883	63.46
783.196	63.12
783.51	63.59
783.823	63.59
784.136	64.2
784.449	64.56
784.762	64.31
785.075	64.12
785.388	64.78
785.701	64.28
786.014	64.98
786.327	65.44
786.64	65.47
786.953	65.25
787.266	64.87
787.578	65.04
787.891	64.88
788.204	64.97
788.516	65.42
788.829	65.47
789.141	65.38
789.454	65.62
789.766	65.71
790.079	65.51
790.391	65.75
790.703	66.13
791.016	66.3
791.328	66.03
791.64	65.86
791.952	64.8
792.264	64.22
792.576	63.95
792.888	64.21
793.2	63.96
793.512	63.85
793.824	64.52
794.136	64.35
794.448	64.63
794.76	65.4
795.071	64.88
795.383	64.72
795.695	65.15
796.006	64.65
796.318	65.01
796.629	65.44
796.941	65.37
797.252	65.28
797.564	64.97
797.875	65.42
798.186	65.55
798.497	66.1
798.809	66.65
799.12	66.2
799.431	65.72
799.742	65.94
800.053	66.22
800.364	66.23
800.675	65.94
800.986	66.24
801.297	65.71
801.608	66.13
801.918	66.17
802.229	66.3
802.54	65.92
802.851	65.65
803.161	64.96
803.472	65.19
803.782	65.07
804.093	65.36
804.403	64.91
804.714	65.2
805.024	65.18
805.334	65.49
805.645	66.47
805.955	66.99
806.265	67.07
806.575	66.9
806.885	66.45
807.195	67.07
807.505	67.01
807.815	66.65
808.125	66.27
808.435	66.14
808.745	65.97
809.055	67.22
809.365	67.16
809.674	67.37
809.984	67.43
810.294	67.52
810.603	67.17
810.913	67.74
811.222	67.81
811.532	67.4
811.841	67.22
812.151	66.49
812.46	66.86
812.769	66.24
813.079	66.17
813.388	66.4
813.697	65.68
814.006	65.18
814.315	65.59
814.624	65.32
814.933	65.55
815.242	65.52
815.551	64.5
815.86	64.78
816.169	65.03
816.478	64.46
816.786	64.19
817.095	65.19
817.404	63.9
817.712	63.92
818.021	63.98
818.33	64.27
818.638	64.64
818.947	64.09
819.255	64.25
819.563	64.79
819.872	64.46
820.18	64.13
820.488	64.2
820.796	63.9
821.105	64.31
821.413	64.28
821.721	63.89
822.029	64.33
822.337	64.5
822.645	64.73
822.953	64.91
823.26	64.85
823.568	64.63
823.876	64.82
824.184	64.6
824.491	64.81
824.799	65.02
825.107	65.03
825.414	65.05
825.722	65.16
826.029	65.12
826.337	65.03
826.644	65.26
826.951	65.26
827.259	65.71
827.566	65.67
827.873	65.72
828.18	66.39
828.488	66.01
828.795	65.88
829.102	65.77
829.409	65.84
829.716	66.25
830.023	66.45
830.329	66.76
830.636	67.31
830.943	67.05
831.25	66.82
831.557	66.18
831.863	66.41
832.17	66.5
832.476	66.39
832.783	66.94
833.089	67.19
833.396	67.47
833.702	66.9
834.009	66.88
834.315	67.62
834.621	67.07
834.928	66.98
835.234	67.18
835.54	66.69
835.846	66.09
836.152	66.03
836.458	65.54
836.764	65.56
837.07	65.36
837.376	66.05
837.682	65.73
837.988	66.72
838.293	66.63
838.599	67.34
838.905	67.88
839.211	68.41
839.516	68.7
839.822	69.42
840.127	70.29
840.433	70.2
840.738	69.24
841.044	69.29
841.349	70.74
841.654	70.38
841.959	71.85
842.265	72.86
842.57	71.54
842.875	71.69
843.18	72.6
843.485	73.25
843.79	71.01
844.095	70.01
844.4	70.47
844.705	69.34
845.01	67.84
845.315	67.13
845.619	66.48
845.924	66.76
846.229	66.2
846.533	64.78
846.838	65.78
847.142	65.9
847.447	67.63
847.751	67.55
848.056	69.45
848.36	67.96
848.664	68.74
848.969	69.9
849.273	72.35
849.577	70.24
849.881	69.36
850.185	71.38
850.489	73.53
850.794	73.34
851.097	74.81
851.401	74.02
851.705	72.49
852.009	72.38
852.313	72.48
852.617	70.52
852.92	71.93
853.224	71.73
853.528	74.56
853.831	71.53
854.135	69.93
854.438	67.84
854.742	68.19
855.045	67.06
855.349	67.46
855.652	67.37
855.955	69.33
856.259	72.98
856.562	73.62
856.865	73.8
857.168	72.56
857.471	71.79
857.774	72.24
858.077	73.39
858.38	74.26
858.683	71.7
858.986	73.44
859.289	73.6
859.592	71.9
859.894	69.29
860.197	70.19
860.5	69.82
860.802	69.84
861.105	69.08
861.407	69.57
861.71	70.65
862.012	68.95
862.315	68.69
862.617	64.84
862.919	62.94
863.222	60.7
863.524	60.56
863.826	62.52
864.128	63.12
864.43	64.1
864.732	63.67
865.034	67.79
865.336	66.01
865.638	64.21
865.94	66.35
866.242	67.21
866.544	68.44
866.846	70.86
867.147	69.89
867.449	71.27
867.751	69.57
868.052	68.49
868.354	71.39
868.655	70.64
868.957	72.76
869.258	74.8
869.56	78.09
869.861	76.66
870.162	75.86
870.463	77.01
870.765	77.71
871.066	76.73
871.367	73.58
871.668	74.7
871.969	75.54
872.27	72.94
872.571	73.2
872.872	71.27
873.173	73.45
873.473	74.44
873.774	72.88
874.075	76.8
874.376	76.9
874.676	72.88
874.977	72.87
875.277	67.61
875.578	65.89
875.878	64.05
876.179	66.03
876.479	66.01
876.78	64.77
877.08	62.63
877.38	62.25
877.68	61.74
877.981	62.02
878.281	62.31
878.581	64.11
