Data from BA53411_Reflection_00005.txt Node
Date: Tue Nov 19 11:53:38 EST 2019
User: vgr7
Spectrometer: USB2G7710
Scans to average: 3
Trigger mode: 4
Integration Time (sec): 2.000000E-2
Electric dark correction enabled: true
Boxcar width: 10
XAxis mode: Wavelengths
Number of Pixels in Spectrum: 2048
>>>>>Begin Spectral Data<<<<<
177.721	95.62
178.105	28.84
178.488	37.19
178.871	35.03
179.254	27.64
179.636	43.09
180.019	30.89
180.402	55.56
180.785	-113.73
181.168	71.26
181.55	-17.08
181.933	13.09
182.316	-113.62
182.698	-86.63
183.081	-69.71
183.463	-91.56
183.846	-73.89
184.228	-73.89
184.611	-96.04
184.993	-111.11
185.376	-45.91
185.758	-5.06
186.14	71.26
186.522	-1161.9
186.904	-1022.22
187.287	246.77
187.669	235.9
188.051	86.64
188.433	107.42
188.815	128.74
189.197	214.99
189.579	338.4
189.961	627.21
190.342	628.37
190.724	233.05
191.106	11044.44
191.488	-532.28
191.869	-199.59
192.251	-103.84
192.633	-129.43
193.014	-108.13
193.396	-81.88
193.777	-34.99
194.159	-7.22
194.54	17.1
194.922	47.49
195.303	57.97
195.684	331.18
196.065	76.79
196.447	293.12
196.828	277.25
197.209	3451.85
197.59	252.33
197.971	686.02
198.352	-1696.3
198.733	-66.67
199.114	-62.55
199.495	-167.58
199.876	-84.48
200.257	-28.06
200.638	-68.41
201.018	-32.73
201.399	-117.3
201.78	-88.47
202.16	666.67
202.541	86.59
202.922	35.7
203.302	153.11
203.683	-580.95
204.063	-3666.67
204.444	-930.86
204.824	-809.52
205.204	-712.93
205.585	-1544.93
205.965	-306.81
206.345	2084.85
206.725	-246.85
207.106	-164.01
207.486	-298.55
207.866	-431.96
208.246	-147.59
208.626	1249.12
209.006	-3733.33
209.386	375.1
209.766	350.88
210.145	127
210.525	91.16
210.905	98.95
211.285	46.57
211.664	9.93
212.044	-18.15
212.424	-29.8
212.803	-50.06
213.183	-47.15
213.562	-44.96
213.942	-11.42
214.321	-6.7
214.701	29.52
215.08	-6.46
215.459	-28.9
215.838	-18.22
216.218	19.75
216.597	-371.01
216.976	214.38
217.355	136.8
217.734	272.51
218.113	-544.14
218.492	-890.2
218.871	-318.52
219.25	-231.65
219.629	-849.61
220.008	-13511.11
220.387	-374.6
220.766	-127.8
221.144	-154.86
221.523	-181.85
221.902	-180.44
222.28	-99.42
222.659	-27.22
223.037	11.66
223.416	22.22
223.794	20.65
224.173	24.87
224.551	37.72
224.929	24.74
225.308	6.98
225.686	13.35
226.064	14.74
226.442	9.63
226.821	12.49
227.199	15.04
227.577	19.71
227.955	19.67
228.333	15.93
228.711	13.91
229.089	12.54
229.467	13.47
229.845	12.17
230.222	14.06
230.6	8.07
230.978	3.46
231.356	1.75
231.733	1.83
232.111	1.81
232.488	0.02
232.866	4.24
233.243	7.16
233.621	9.97
233.998	10.48
234.376	9.67
234.753	5.83
235.13	6.93
235.508	5.5
235.885	6.79
236.262	6.81
236.639	5.54
237.016	8.29
237.393	8.53
237.77	9.79
238.147	8.59
238.524	8.24
238.901	8.78
239.278	8.95
239.655	10.04
240.032	9.51
240.409	9.37
240.785	8.48
241.162	9.14
241.539	7.66
241.915	7.11
242.292	7.98
242.668	8.25
243.045	8.37
243.421	8.72
243.798	8.74
244.174	8.73
244.551	8.89
244.927	8.54
245.303	8.36
245.679	8.31
246.056	8.51
246.432	8.78
246.808	8.47
247.184	8.41
247.56	7.89
247.936	8.38
248.312	8.61
248.688	8.58
249.064	8.37
249.44	8.37
249.815	8.63
250.191	8.25
250.567	8.18
250.943	8.19
251.318	8.25
251.694	8.03
252.069	8.12
252.445	8.2
252.82	8.26
253.196	8.28
253.571	8.23
253.947	7.86
254.322	7.84
254.697	8.21
255.073	7.89
255.448	8.14
255.823	7.69
256.198	7.18
256.573	7.08
256.948	7.07
257.323	7.34
257.698	7.35
258.073	7.4
258.448	7.27
258.823	6.98
259.198	6.85
259.573	6.77
259.948	6.79
260.322	6.64
260.697	6.52
261.072	6.55
261.446	6.4
261.821	6.45
262.195	6.36
262.57	6.36
262.944	6.37
263.319	6.38
263.693	6.37
264.067	6.66
264.442	6.71
264.816	6.55
265.19	6.48
265.564	6.29
265.938	6.28
266.313	6.38
266.687	6.5
267.061	6.64
267.435	6.78
267.809	6.66
268.183	6.81
268.556	6.91
268.93	6.99
269.304	7.14
269.678	7.05
270.051	6.99
270.425	6.74
270.799	6.81
271.172	6.75
271.546	6.92
271.919	6.79
272.293	6.88
272.666	7.05
273.04	7.05
273.413	7.2
273.787	7.26
274.16	7.18
274.533	7.26
274.906	7.16
275.279	6.99
275.653	6.96
276.026	6.88
276.399	6.63
276.772	6.67
277.145	6.59
277.518	6.45
277.891	6.54
278.263	6.65
278.636	6.69
279.009	6.66
279.382	6.27
279.755	6.35
280.127	6.31
280.5	6.07
280.872	6.05
281.245	5.94
281.617	5.99
281.99	6.1
282.362	6.12
282.735	6.16
283.107	6.14
283.479	6.26
283.852	6.3
284.224	6.6
284.596	6.53
284.968	6.57
285.34	6.62
285.713	6.51
286.085	6.4
286.457	6.43
286.829	6.42
287.201	6.57
287.572	6.56
287.944	6.68
288.316	6.8
288.688	6.85
289.06	6.86
289.431	6.92
289.803	6.98
290.175	6.97
290.546	6.97
290.918	7.03
291.289	7.03
291.661	7.08
292.032	6.95
292.403	7
292.775	7.04
293.146	7.22
293.517	7.32
293.889	7.38
294.26	7.34
294.631	7.45
295.002	7.41
295.373	7.29
295.744	7.24
296.115	7.37
296.486	7.33
296.857	7.43
297.228	7.36
297.599	7.16
297.97	7.14
298.34	7.1
298.711	7.19
299.082	7.18
299.452	7.13
299.823	7.18
300.194	7.12
300.564	7.1
300.935	7.15
301.305	7.16
301.676	7.16
302.046	7.28
302.416	7.26
302.787	7.43
303.157	7.56
303.527	7.45
303.897	7.28
304.267	7.41
304.637	7.47
305.008	7.38
305.378	7.53
305.748	7.49
306.117	7.51
306.487	7.4
306.857	7.47
307.227	7.52
307.597	7.42
307.967	7.58
308.336	7.63
308.706	7.48
309.076	7.52
309.445	7.58
309.815	7.43
310.184	7.24
310.554	7.14
310.923	7.13
311.293	7.16
311.662	7.23
312.031	7.06
312.401	6.94
312.77	6.97
313.139	6.98
313.508	6.99
313.877	7.04
314.246	7
314.616	6.93
314.985	6.92
315.353	7
315.722	6.88
316.091	6.88
316.46	7.05
316.829	7.03
317.198	6.93
317.567	7.07
317.935	7.23
318.304	7.37
318.672	7.38
319.041	7.47
319.41	7.55
319.778	7.68
320.147	7.52
320.515	7.64
320.883	7.74
321.252	7.73
321.62	7.8
321.988	7.83
322.357	7.9
322.725	7.87
323.093	7.6
323.461	7.61
323.829	7.58
324.197	7.36
324.565	7.46
324.933	7.53
325.301	7.26
325.669	7.22
326.037	7.19
326.405	7.15
326.772	7.16
327.14	7.11
327.508	6.97
327.875	7.17
328.243	7.04
328.61	7.08
328.978	7
329.346	7
329.713	7.05
330.08	7.06
330.448	6.9
330.815	7.21
331.182	7.07
331.55	6.93
331.917	7.01
332.284	6.83
332.651	6.79
333.018	6.97
333.385	7.04
333.752	6.99
334.119	7.12
334.486	7.06
334.853	6.99
335.22	7.04
335.587	6.99
335.954	6.99
336.32	6.84
336.687	6.8
337.054	6.85
337.42	6.86
337.787	6.8
338.153	7.02
338.52	6.94
338.886	7.03
339.253	7.1
339.619	6.99
339.986	7
340.352	7.13
340.718	7.05
341.084	7.13
341.451	7.25
341.817	7.19
342.183	7.29
342.549	7.32
342.915	7.39
343.281	7.47
343.647	7.48
344.013	7.47
344.379	7.62
344.745	7.54
345.11	7.52
345.476	7.63
345.842	7.55
346.208	7.53
346.573	7.47
346.939	7.46
347.304	7.64
347.67	7.76
348.035	7.65
348.401	7.77
348.766	7.68
349.132	7.6
349.497	7.61
349.862	7.53
350.228	7.49
350.593	7.5
350.958	7.51
351.323	7.51
351.688	7.51
352.053	7.47
352.418	7.49
352.783	7.44
353.148	7.35
353.513	7.34
353.878	7.34
354.243	7.39
354.608	7.47
354.972	7.35
355.337	7.26
355.702	7.29
356.066	7.23
356.431	7.24
356.795	7.18
357.16	7.2
357.524	7.29
357.889	7.31
358.253	7.26
358.618	7.26
358.982	7.27
359.346	7.3
359.71	7.38
360.075	7.37
360.439	7.48
360.803	7.53
361.167	7.54
361.531	7.57
361.895	7.55
362.259	7.46
362.623	7.46
362.987	7.49
363.351	7.49
363.714	7.51
364.078	7.54
364.442	7.61
364.806	7.56
365.169	7.49
365.533	7.56
365.896	7.62
366.26	7.59
366.623	7.56
366.987	7.6
367.35	7.63
367.714	7.67
368.077	7.64
368.44	7.6
368.803	7.55
369.167	7.47
369.53	7.46
369.893	7.48
370.256	7.44
370.619	7.32
370.982	7.3
371.345	7.32
371.708	7.32
372.071	7.29
372.434	7.25
372.797	7.38
373.159	7.27
373.522	7.18
373.885	7.13
374.247	7.16
374.61	7.14
374.973	7.08
375.335	7.01
375.698	6.99
376.06	6.91
376.423	6.98
376.785	7.04
377.147	7.05
377.51	7.04
377.872	7.11
378.234	7.22
378.596	7.26
378.958	7.25
379.321	7.23
379.683	7.28
380.045	7.31
380.407	7.27
380.769	7.27
381.13	7.38
381.492	7.38
381.854	7.41
382.216	7.41
382.578	7.4
382.939	7.4
383.301	7.35
383.663	7.4
384.024	7.36
384.386	7.31
384.747	7.31
385.109	7.34
385.47	7.4
385.832	7.41
386.193	7.38
386.554	7.33
386.916	7.31
387.277	7.25
387.638	7.3
387.999	7.24
388.36	7.29
388.721	7.24
389.082	7.3
389.443	7.27
389.804	7.29
390.165	7.27
390.526	7.28
390.887	7.3
391.248	7.27
391.609	7.31
391.969	7.36
392.33	7.38
392.691	7.4
393.051	7.34
393.412	7.35
393.772	7.36
394.133	7.43
394.493	7.45
394.854	7.48
395.214	7.46
395.574	7.47
395.935	7.47
396.295	7.45
396.655	7.41
397.015	7.42
397.376	7.4
397.736	7.41
398.096	7.42
398.456	7.41
398.816	7.42
399.176	7.41
399.535	7.35
399.895	7.32
400.255	7.31
400.615	7.34
400.975	7.34
401.334	7.32
401.694	7.28
402.054	7.25
402.413	7.21
402.773	7.21
403.132	7.2
403.492	7.18
403.851	7.21
404.211	7.24
404.57	7.25
404.929	7.26
405.288	7.24
405.648	7.21
406.007	7.24
406.366	7.24
406.725	7.23
407.084	7.25
407.443	7.25
407.802	7.27
408.161	7.24
408.52	7.22
408.879	7.26
409.238	7.26
409.596	7.26
409.955	7.3
410.314	7.29
410.673	7.3
411.031	7.3
411.39	7.3
411.748	7.28
412.107	7.3
412.465	7.26
412.824	7.25
413.182	7.29
413.54	7.27
413.899	7.27
414.257	7.3
414.615	7.3
414.974	7.29
415.332	7.29
415.69	7.26
416.048	7.26
416.406	7.23
416.764	7.25
417.122	7.25
417.48	7.25
417.838	7.24
418.195	7.24
418.553	7.25
418.911	7.24
419.269	7.23
419.626	7.22
419.984	7.23
420.342	7.26
420.699	7.23
421.057	7.24
421.414	7.24
421.772	7.25
422.129	7.22
422.486	7.23
422.844	7.21
423.201	7.23
423.558	7.24
423.915	7.25
424.273	7.25
424.63	7.26
424.987	7.25
425.344	7.26
425.701	7.25
426.058	7.22
426.415	7.24
426.772	7.24
427.128	7.22
427.485	7.23
427.842	7.23
428.199	7.25
428.555	7.25
428.912	7.25
429.269	7.23
429.625	7.24
429.982	7.22
430.338	7.24
430.695	7.22
431.051	7.21
431.407	7.2
431.764	7.2
432.12	7.19
432.476	7.2
432.832	7.19
433.189	7.2
433.545	7.18
433.901	7.17
434.257	7.14
434.613	7.15
434.969	7.14
435.325	7.11
435.681	7.09
436.036	7.09
436.392	7.08
436.748	7.08
437.104	7.1
437.459	7.12
437.815	7.15
438.171	7.14
438.526	7.15
438.882	7.14
439.237	7.14
439.593	7.13
439.948	7.13
440.304	7.09
440.659	7.1
441.014	7.1
441.369	7.1
441.725	7.1
442.08	7.12
442.435	7.12
442.79	7.12
443.145	7.13
443.5	7.12
443.855	7.13
444.21	7.13
444.565	7.13
444.92	7.11
445.275	7.08
445.629	7.08
445.984	7.09
446.339	7.09
446.693	7.09
447.048	7.07
447.403	7.06
447.757	7.07
448.112	7.06
448.466	7.07
448.82	7.07
449.175	7.09
449.529	7.07
449.883	7.06
450.238	7.07
450.592	7.07
450.946	7.07
451.3	7.1
451.654	7.08
452.008	7.06
452.362	7.05
452.716	7.07
453.07	7.05
453.424	7.02
453.778	7
454.132	6.99
454.486	7.02
454.839	7.03
455.193	7.01
455.547	7.03
455.9	7.03
456.254	7.04
456.607	7.03
456.961	7.05
457.314	7.06
457.668	7.05
458.021	7.05
458.375	7.05
458.728	7.04
459.081	7.06
459.434	7.07
459.787	7.1
460.141	7.09
460.494	7.11
460.847	7.11
461.2	7.13
461.553	7.14
461.906	7.15
462.259	7.15
462.611	7.17
462.964	7.17
463.317	7.17
463.67	7.19
464.022	7.2
464.375	7.2
464.728	7.2
465.08	7.19
465.433	7.19
465.785	7.22
466.138	7.19
466.49	7.19
466.843	7.2
467.195	7.21
467.547	7.22
467.899	7.21
468.252	7.24
468.604	7.24
468.956	7.25
469.308	7.24
469.66	7.22
470.012	7.23
470.364	7.24
470.716	7.24
471.068	7.23
471.42	7.26
471.772	7.29
472.123	7.29
472.475	7.31
472.827	7.32
473.178	7.31
473.53	7.33
473.882	7.32
474.233	7.29
474.585	7.29
474.936	7.29
475.288	7.32
475.639	7.32
475.99	7.32
476.342	7.33
476.693	7.33
477.044	7.37
477.395	7.36
477.746	7.33
478.097	7.34
478.448	7.33
478.8	7.31
479.15	7.28
479.501	7.29
479.852	7.28
480.203	7.29
480.554	7.29
480.905	7.29
481.255	7.32
481.606	7.34
481.957	7.35
482.307	7.36
482.658	7.37
483.009	7.37
483.359	7.38
483.709	7.38
484.06	7.39
484.41	7.38
484.761	7.4
485.111	7.42
485.461	7.42
485.811	7.43
486.162	7.43
486.512	7.44
486.862	7.45
487.212	7.45
487.562	7.44
487.912	7.45
488.262	7.46
488.612	7.44
488.961	7.44
489.311	7.44
489.661	7.43
490.011	7.41
490.36	7.41
490.71	7.42
491.06	7.41
491.409	7.4
491.759	7.4
492.108	7.39
492.458	7.39
492.807	7.4
493.157	7.4
493.506	7.4
493.855	7.4
494.204	7.42
494.554	7.44
494.903	7.47
495.252	7.47
495.601	7.49
495.95	7.5
496.299	7.51
496.648	7.52
496.997	7.54
497.346	7.54
497.695	7.54
498.043	7.55
498.392	7.57
498.741	7.58
499.09	7.6
499.438	7.62
499.787	7.63
500.135	7.62
500.484	7.64
500.832	7.65
501.181	7.68
501.529	7.65
501.878	7.66
502.226	7.65
502.574	7.66
502.923	7.66
503.271	7.68
503.619	7.67
503.967	7.66
504.315	7.67
504.663	7.69
505.011	7.7
505.359	7.69
505.707	7.67
506.055	7.67
506.403	7.67
506.751	7.67
507.098	7.66
507.446	7.67
507.794	7.66
508.141	7.67
508.489	7.7
508.837	7.71
509.184	7.71
509.531	7.72
509.879	7.72
510.226	7.7
510.574	7.71
510.921	7.72
511.268	7.74
511.616	7.78
511.963	7.79
512.31	7.81
512.657	7.82
513.004	7.84
513.351	7.84
513.698	7.87
514.045	7.87
514.392	7.9
514.739	7.91
515.086	7.95
515.432	7.93
515.779	7.92
516.126	7.95
516.473	7.94
516.819	7.93
517.166	7.95
517.512	7.96
517.859	7.97
518.205	7.95
518.552	7.95
518.898	7.93
519.245	7.93
519.591	7.95
519.937	7.94
520.283	7.96
520.629	7.98
520.976	7.94
521.322	7.96
521.668	7.96
522.014	7.97
522.36	7.98
522.706	8
523.052	7.99
523.398	8.01
523.743	8.02
524.089	8.05
524.435	8.04
524.781	8.08
525.126	8.08
525.472	8.11
525.817	8.13
526.163	8.14
526.509	8.15
526.854	8.16
527.199	8.17
527.545	8.18
527.89	8.19
528.235	8.19
528.581	8.2
528.926	8.2
529.271	8.2
529.616	8.2
529.961	8.2
530.306	8.2
530.651	8.19
530.996	8.2
531.341	8.2
531.686	8.22
532.031	8.22
532.376	8.23
532.721	8.24
533.065	8.22
533.41	8.22
533.755	8.22
534.099	8.24
534.444	8.24
534.788	8.23
535.133	8.22
535.477	8.24
535.822	8.24
536.166	8.25
536.51	8.25
536.855	8.25
537.199	8.24
537.543	8.27
537.887	8.26
538.231	8.26
538.576	8.26
538.92	8.29
539.264	8.27
539.608	8.28
539.951	8.29
540.295	8.3
540.639	8.31
540.983	8.31
541.327	8.28
541.671	8.29
542.014	8.31
542.358	8.33
542.701	8.33
543.045	8.32
543.389	8.33
543.732	8.34
544.075	8.34
544.419	8.36
544.762	8.36
545.105	8.37
545.449	8.37
545.792	8.38
546.135	8.36
546.478	8.37
546.821	8.36
547.165	8.34
547.508	8.33
547.851	8.31
548.194	8.31
548.536	8.33
548.879	8.31
549.222	8.3
549.565	8.28
549.908	8.26
550.25	8.28
550.593	8.3
550.936	8.3
551.278	8.29
551.621	8.31
551.963	8.34
552.306	8.33
552.648	8.36
552.991	8.35
553.333	8.34
553.675	8.35
554.017	8.38
554.36	8.41
554.702	8.43
555.044	8.47
555.386	8.48
555.728	8.46
556.07	8.46
556.412	8.43
556.754	8.41
557.096	8.44
557.438	8.43
557.78	8.38
558.121	8.39
558.463	8.38
558.805	8.38
559.147	8.39
559.488	8.39
559.83	8.38
560.171	8.37
560.513	8.39
560.854	8.36
561.196	8.35
561.537	8.34
561.878	8.33
562.22	8.31
562.561	8.34
562.902	8.36
563.243	8.38
563.584	8.42
563.925	8.45
564.266	8.42
564.607	8.45
564.948	8.49
565.289	8.48
565.63	8.48
565.971	8.48
566.312	8.48
566.653	8.47
566.993	8.44
567.334	8.49
567.675	8.49
568.015	8.5
568.356	8.52
568.696	8.51
569.037	8.53
569.377	8.52
569.718	8.48
570.058	8.52
570.398	8.53
570.739	8.52
571.079	8.52
571.419	8.53
571.759	8.51
572.099	8.52
572.439	8.52
572.779	8.56
573.119	8.57
573.459	8.55
573.799	8.58
574.139	8.59
574.479	8.6
574.819	8.61
575.158	8.66
575.498	8.65
575.838	8.66
576.177	8.63
576.517	8.69
576.856	8.7
577.196	8.68
577.535	8.7
577.875	8.73
578.214	8.71
578.553	8.7
578.893	8.72
579.232	8.67
579.571	8.69
579.91	8.69
580.25	8.67
580.589	8.67
580.928	8.65
581.267	8.67
581.606	8.63
581.945	8.59
582.283	8.57
582.622	8.53
582.961	8.54
583.3	8.57
583.639	8.51
583.977	8.53
584.316	8.53
584.654	8.55
584.993	8.53
585.332	8.57
585.67	8.67
586.008	8.69
586.347	8.73
586.685	8.7
587.024	8.74
587.362	8.71
587.7	8.75
588.038	8.75
588.376	8.74
588.715	8.71
589.053	8.74
589.391	8.74
589.729	8.78
590.067	8.77
590.404	8.77
590.742	8.79
591.08	8.8
591.418	8.79
591.756	8.74
592.093	8.74
592.431	8.76
592.769	8.68
593.106	8.68
593.444	8.7
593.781	8.74
594.119	8.7
594.456	8.72
594.793	8.66
595.131	8.67
595.468	8.73
595.805	8.73
596.143	8.7
596.48	8.69
596.817	8.7
597.154	8.7
597.491	8.74
597.828	8.71
598.165	8.71
598.502	8.73
598.839	8.75
599.176	8.77
599.512	8.7
599.849	8.78
600.186	8.75
600.523	8.72
600.859	8.72
601.196	8.72
601.532	8.74
601.869	8.76
602.205	8.74
602.542	8.71
602.878	8.71
603.215	8.71
603.551	8.73
603.887	8.7
604.223	8.71
604.56	8.72
604.896	8.75
605.232	8.73
605.568	8.73
605.904	8.71
606.24	8.71
606.576	8.79
606.912	8.69
607.248	8.76
607.583	8.8
607.919	8.8
608.255	8.84
608.591	8.84
608.926	8.84
609.262	8.86
609.597	8.85
609.933	8.86
610.268	8.9
610.604	8.89
610.939	8.93
611.275	8.97
611.61	8.94
611.945	8.91
612.281	8.95
612.616	8.96
612.951	9.02
613.286	9.01
613.621	8.97
613.956	9.06
614.291	9.04
614.626	9.09
614.961	9.11
615.296	9.08
615.631	9.1
615.966	9.13
616.3	9.12
616.635	9.13
616.97	9.17
617.304	9.16
617.639	9.19
617.973	9.18
618.308	9.13
618.642	9.1
618.977	9.11
619.311	9.09
619.646	9.09
619.98	9.03
620.314	9.01
620.648	9.06
620.983	9.05
621.317	9.02
621.651	8.98
621.985	8.96
622.319	8.89
622.653	8.86
622.987	8.83
623.321	8.85
623.655	8.9
623.988	8.86
624.322	8.86
624.656	8.88
624.99	8.86
625.323	8.85
625.657	8.9
625.99	8.94
626.324	8.92
626.657	8.91
626.991	8.94
627.324	8.95
627.658	8.91
627.991	8.95
628.324	8.94
628.657	8.94
628.991	8.95
629.324	9.04
629.657	9.06
629.99	9.1
630.323	9.14
630.656	9.13
630.989	9.16
631.322	9.16
631.655	9.15
631.987	9.2
632.32	9.22
632.653	9.18
632.986	9.2
633.318	9.19
633.651	9.17
633.984	9.19
634.316	9.19
634.649	9.18
634.981	9.15
635.313	9.21
635.646	9.26
635.978	9.36
636.31	9.38
636.643	9.36
636.975	9.29
637.307	9.3
637.639	9.26
637.971	9.23
638.303	9.29
638.635	9.34
638.967	9.33
639.299	9.4
639.631	9.4
639.963	9.42
640.295	9.47
640.626	9.47
640.958	9.5
641.29	9.51
641.621	9.51
641.953	9.47
642.285	9.44
642.616	9.37
642.948	9.3
643.279	9.25
643.61	9.24
643.942	9.29
644.273	9.3
644.604	9.35
644.936	9.35
645.267	9.31
645.598	9.25
645.929	9.24
646.26	9.2
646.591	9.24
646.922	9.25
647.253	9.21
647.584	9.27
647.915	9.15
648.245	9.14
648.576	9.14
648.907	9.21
649.238	9.21
649.568	9.26
649.899	9.2
650.229	9.19
650.56	9.21
650.89	9.23
651.221	9.18
651.551	9.15
651.882	9.14
652.212	9.18
652.542	9.19
652.872	9.23
653.203	9.29
653.533	9.3
653.863	9.28
654.193	9.32
654.523	9.3
654.853	9.39
655.183	9.48
655.513	9.54
655.843	9.51
656.172	9.58
656.502	9.6
656.832	9.66
657.162	9.7
657.491	9.72
657.821	9.72
658.15	9.84
658.48	9.9
658.809	9.96
659.139	9.96
659.468	9.93
659.798	9.92
660.127	9.84
660.456	9.81
660.785	9.83
661.115	9.81
661.444	9.81
661.773	9.79
662.102	9.72
662.431	9.76
662.76	9.84
663.089	9.83
663.418	9.85
663.747	9.81
664.076	9.72
664.404	9.79
664.733	9.76
665.062	9.73
665.39	9.69
665.719	9.72
666.048	9.71
666.376	9.75
666.705	9.72
667.033	9.81
667.362	9.87
667.69	9.87
668.018	9.85
668.347	9.83
668.675	9.81
669.003	9.8
669.331	9.79
669.659	9.77
669.987	9.77
670.315	9.76
670.643	9.73
670.971	9.89
671.299	9.79
671.627	9.78
671.955	9.66
672.283	9.68
672.61	9.57
672.938	9.61
673.266	9.6
673.593	9.61
673.921	9.6
674.249	9.58
674.576	9.62
674.904	9.68
675.231	9.77
675.558	9.81
675.886	9.84
676.213	9.76
676.54	9.69
676.867	9.74
677.195	9.73
677.522	9.81
677.849	9.64
678.176	9.75
678.503	9.81
678.83	9.9
679.157	9.92
679.484	9.9
679.81	9.85
680.137	9.93
680.464	9.93
680.791	9.9
681.117	9.9
681.444	9.91
681.771	9.99
682.097	10.01
682.424	10.01
682.75	10
683.077	10.03
683.403	10.14
683.729	10.05
684.056	10.07
684.382	10.04
684.708	10.12
685.034	10.03
685.36	9.94
685.686	9.92
686.012	9.96
686.339	9.99
686.664	10.01
686.99	9.83
687.316	9.93
687.642	9.89
687.968	9.97
688.294	9.91
688.619	9.89
688.945	9.84
689.271	9.85
689.596	9.96
689.922	9.99
690.247	9.91
690.573	9.95
690.898	9.93
691.224	10.01
691.549	10.07
691.874	10.08
692.2	10.17
692.525	10.01
692.85	9.87
693.175	10.02
693.5	9.93
693.825	10.21
694.15	10.06
694.475	10.12
694.8	10.04
695.125	10.08
695.45	9.95
695.775	10
696.099	10.09
696.424	9.96
696.749	10.01
697.073	9.94
697.398	9.89
697.723	9.93
698.047	9.88
698.372	9.83
698.696	9.83
699.02	9.91
699.345	10.09
699.669	10.2
699.993	10.1
700.318	10.18
700.642	10.04
700.966	10.03
701.29	10.05
701.614	10.09
701.938	10
702.262	10.06
702.586	10.03
702.91	10.06
703.234	10.25
703.557	10.3
703.881	10.47
704.205	10.57
704.529	10.44
704.852	10.38
705.176	10.48
705.499	10.46
705.823	10.32
706.146	10.29
706.47	10.25
706.793	10.39
707.117	10.36
707.44	10.39
707.763	10.49
708.086	10.48
708.409	10.37
708.733	10.48
709.056	10.58
709.379	10.64
709.702	10.57
710.025	10.53
710.348	10.39
710.671	10.37
710.993	10.39
711.316	10.6
711.639	10.65
711.962	10.65
712.284	10.72
712.607	10.73
712.93	10.65
713.252	10.61
713.575	10.61
713.897	10.67
714.22	10.82
714.542	10.81
714.864	10.74
715.187	10.79
715.509	10.77
715.831	10.91
716.153	10.7
716.475	10.76
716.798	10.72
717.12	10.83
717.442	10.75
717.764	10.69
718.085	10.68
718.407	10.8
718.729	10.78
719.051	10.7
719.373	10.77
719.695	10.92
720.016	11.11
720.338	11.22
720.659	11.22
720.981	11.08
721.302	11.22
721.624	11.3
721.945	11.23
722.267	11.14
722.588	10.97
722.909	11.11
723.231	10.85
723.552	10.8
723.873	10.82
724.194	10.89
724.515	10.92
724.836	10.81
725.157	10.71
725.478	10.64
725.799	10.84
726.12	10.66
726.441	10.48
726.762	10.49
727.083	10.42
727.403	10.44
727.724	10.61
728.045	10.54
728.365	10.73
728.686	10.83
729.006	10.91
729.327	10.69
729.647	10.65
729.967	10.87
730.288	10.86
730.608	10.91
730.928	10.85
731.249	11.13
731.569	11.15
731.889	11.12
732.209	11.08
732.529	11.01
732.849	11.13
733.169	11.16
733.489	11.11
733.809	11.21
734.129	11.01
734.448	10.89
734.768	10.77
735.088	10.52
735.408	10.58
735.727	10.66
736.047	10.99
736.366	11.01
736.686	10.93
737.005	10.98
737.325	10.83
737.644	10.77
737.963	10.53
738.283	10.42
738.602	10.58
738.921	10.71
739.24	10.83
739.56	10.85
739.879	10.91
740.198	10.82
740.517	10.54
740.836	10.76
741.155	10.85
741.473	10.99
741.792	11.14
742.111	11.26
742.43	11.22
742.748	11.07
743.067	11.17
743.386	11
743.704	10.94
744.023	10.97
744.341	10.89
744.66	10.81
744.978	11
745.297	10.85
745.615	10.6
745.933	10.59
746.252	10.81
746.57	10.83
746.888	11.07
747.206	11.1
747.524	11.02
747.842	10.9
748.16	11.02
748.478	10.98
748.796	10.91
749.114	10.98
749.432	10.94
749.749	10.92
750.067	10.94
750.385	11.04
750.703	11.02
751.02	11.17
751.338	11.26
751.655	11.29
751.973	11.38
752.29	11.37
752.608	11.19
752.925	10.99
753.242	11.19
753.56	10.98
753.877	11
754.194	11.18
754.511	11.36
754.828	11.16
755.145	11.14
755.462	11.12
755.779	10.97
756.096	10.94
756.413	10.83
756.73	11.14
757.047	11.08
757.364	11.05
757.68	11.02
757.997	11.17
758.314	11.23
758.63	11.24
758.947	11.85
759.264	11.66
759.58	11.7
759.896	11.45
760.213	11.59
760.529	11.53
760.846	11.52
761.162	11.25
761.478	11.26
761.794	11.3
762.11	11.31
762.426	11.34
762.743	11.4
763.059	11.59
763.375	11.52
763.69	11.61
764.006	11.67
764.322	11.79
764.638	11.64
764.954	11.56
765.27	11.65
765.585	11.35
765.901	11.4
766.216	11.36
766.532	11.73
766.848	11.67
767.163	11.85
767.478	11.91
767.794	11.99
768.109	11.81
768.424	12.05
768.74	11.91
769.055	11.96
769.37	11.69
769.685	11.55
770	11.38
770.315	11.53
770.63	11.49
770.945	11.65
771.26	11.5
771.575	11.55
771.89	11.29
772.205	11.2
772.52	11.61
772.834	11.6
773.149	10.97
773.464	10.89
773.778	10.89
774.093	10.97
774.407	11.4
774.722	11.6
775.036	11.42
775.351	11.84
775.665	12.32
775.979	12.8
776.293	12.8
776.608	12.95
776.922	12.74
777.236	12.71
777.55	12.52
777.864	12.95
778.178	12.86
778.492	13.18
778.806	13.25
779.12	12.92
779.434	13.15
779.747	13.51
780.061	13.52
780.375	13.62
780.689	13.47
781.002	13.19
781.316	13.49
781.629	13.89
781.943	13.73
782.256	13.25
782.57	13.4
782.883	13.66
783.196	13.88
783.51	13.9
783.823	14.38
784.136	14.37
784.449	13.63
784.762	13.72
785.075	13.71
785.388	14.21
785.701	14.26
786.014	14.55
786.327	14.64
786.64	14.92
786.953	14.84
787.266	14.82
787.578	15.39
787.891	14.92
788.204	14.53
788.516	14.63
788.829	14.77
789.141	14.63
789.454	14.68
789.766	14.73
790.079	14.99
790.391	14.67
790.703	14.73
791.016	15.69
791.328	15.39
791.64	14.79
791.952	14.61
792.264	14.58
792.576	14.54
792.888	14.74
793.2	14.69
793.512	14.72
793.824	15.29
794.136	14.66
794.448	15.07
794.76	15.19
795.071	15.12
795.383	15.12
795.695	15.22
796.006	14.9
796.318	14.89
796.629	14.04
796.941	14.58
797.252	14.74
797.564	14.3
797.875	14.64
798.186	15.28
798.497	15.13
798.809	15.13
799.12	14.83
799.431	14.42
799.742	14.66
800.053	14.63
800.364	13.76
800.675	14.12
800.986	14.02
801.297	13.69
801.608	13.54
801.918	13.5
802.229	13.22
802.54	13.26
802.851	13.34
803.161	14.08
803.472	13.5
803.782	13.22
804.093	13.53
804.403	13.63
804.714	13.37
805.024	13.59
805.334	13.8
805.645	13.91
805.955	13.98
806.265	13.88
806.575	13.93
806.885	14.17
807.195	14.33
807.505	14.2
807.815	14.39
808.125	14.37
808.435	14.23
808.745	14.77
809.055	15.18
809.365	14.81
809.674	15.11
809.984	15.43
810.294	15.42
810.603	14.92
810.913	15.15
811.222	15.48
811.532	15
811.841	15.78
812.151	15.89
812.46	15.82
812.769	14.88
813.079	15.56
813.388	15.75
813.697	15.25
814.006	15.31
814.315	15.52
814.624	15.64
814.933	15.97
815.242	16.11
815.551	16.35
815.86	16.9
816.169	16.58
816.478	16
816.786	15.79
817.095	15.74
817.404	14.73
817.712	14.61
818.021	14.88
818.33	13.87
818.638	14.24
818.947	14.42
819.255	14.3
819.563	13.77
819.872	13.37
820.18	13.42
820.488	13.95
820.796	13.74
821.105	13.84
821.413	13.69
821.721	13.54
822.029	13.48
822.337	13.27
822.645	13.56
822.953	13.56
823.26	13.71
823.568	13.83
823.876	13.98
824.184	13.96
824.491	13.9
824.799	13.92
825.107	13.81
825.414	13.81
825.722	14.07
826.029	14.07
826.337	14.18
826.644	14.17
826.951	14.04
827.259	14.16
827.566	14.13
827.873	14.29
828.18	14.25
828.488	14.19
828.795	14.27
829.102	13.83
829.409	13.89
829.716	13.7
830.023	13.86
830.329	14
830.636	13.92
830.943	13.96
831.25	14.42
831.557	14.13
831.863	14.3
832.17	14.41
832.476	14.73
832.783	14.57
833.089	14.88
833.396	14.99
833.702	14.73
834.009	14.52
834.315	14.31
834.621	14.81
834.928	14.9
835.234	15.12
835.54	15.35
835.846	15.6
836.152	15.87
836.458	16.05
836.764	16.23
837.07	16.09
837.376	16.44
837.682	15.96
837.988	16.18
838.293	16.15
838.599	16.08
838.905	15.98
839.211	16.71
839.516	16.36
839.822	16.49
840.127	17.06
840.433	17.83
840.738	18.28
841.044	17.88
841.349	18.42
841.654	18.7
841.959	18.73
842.265	19.14
842.57	19.03
842.875	18.65
843.18	17.99
843.485	18.49
843.79	17.71
844.095	18.69
844.4	19.65
844.705	19.26
845.01	20.49
845.315	20.13
845.619	20.88
845.924	22.16
846.229	21.37
846.533	21.32
846.838	22.38
847.142	22.72
847.447	23.73
847.751	23.29
848.056	22.07
848.36	23.34
848.664	22.43
848.969	22.8
849.273	21.62
849.577	22.48
849.881	22.58
850.185	23.95
850.489	22.4
850.794	23.51
851.097	24.15
851.401	22.35
851.705	22.68
852.009	23.36
852.313	20.11
852.617	19.2
852.92	20.36
853.224	19.91
853.528	17.23
853.831	15.43
854.135	15.2
854.438	15.4
854.742	14.99
855.045	13.26
855.349	13.5
855.652	12.95
855.955	12.81
856.259	14.27
856.562	11.78
856.865	11.89
857.168	8.57
857.471	8.34
857.774	7.55
858.077	7.64
858.38	5.81
858.683	8.59
858.986	9.01
859.289	10.08
859.592	7.68
859.894	10.17
860.197	10.31
860.5	10.55
860.802	13.09
861.105	12.06
861.407	13.45
861.71	13.95
862.012	15.46
862.315	15.26
862.617	13.07
862.919	15.85
863.222	17.05
863.524	17.51
863.826	15.45
864.128	18.16
864.43	18.41
864.732	16.84
865.034	17.16
865.336	16.61
865.638	15.97
865.94	18.45
866.242	18.81
866.544	19.3
866.846	17.45
867.147	15.55
867.449	15.45
867.751	15.96
868.052	14.88
868.354	13.26
868.655	12.16
868.957	13.92
869.258	11.94
869.56	13.6
869.861	12.51
870.162	13.64
870.463	11.77
870.765	11.68
871.066	14.82
871.367	15.42
871.668	16.56
871.969	16.61
872.27	15.45
872.571	15.39
872.872	16.26
873.173	17.21
873.473	18.16
873.774	18.51
874.075	17.23
874.376	17.84
874.676	19.89
874.977	22.69
875.277	23.45
875.578	23.89
875.878	22.56
876.179	25.01
876.479	25.91
876.78	26.46
877.08	26.62
877.38	25.28
877.68	23.69
877.981	24.69
878.281	23.19
878.581	24.26
