Data from BA53509_Reflection_00010.txt Node
Date: Tue Nov 19 11:46:41 EST 2019
User: vgr7
Spectrometer: USB2G7710
Scans to average: 3
Trigger mode: 4
Integration Time (sec): 2.000000E-2
Electric dark correction enabled: true
Boxcar width: 10
XAxis mode: Wavelengths
Number of Pixels in Spectrum: 2048
>>>>>Begin Spectral Data<<<<<
177.721	-241.22
178.105	-1066.67
178.488	-368.19
178.871	-780.95
179.254	-686.67
179.636	-243.5
180.019	-373.12
180.402	275
180.785	-107.84
181.168	376.73
181.55	62.17
181.933	97.82
182.316	80.51
182.698	74.05
183.081	246.89
183.463	506.5
183.846	-243.92
184.228	-318.44
184.611	1160.61
184.993	-71.01
185.376	-71.84
185.758	-107.95
186.14	-154.9
186.522	-82.59
186.904	-359.26
187.287	-252.2
187.669	-58.73
188.051	8.93
188.433	62.96
188.815	85.74
189.197	82.35
189.579	44.29
189.961	35.99
190.342	27.28
190.724	25.22
191.106	14.97
191.488	5.03
191.869	2.26
192.251	-1.24
192.633	-8.02
193.014	-4.81
193.396	-16.74
193.777	-19.14
194.159	-7.3
194.54	-15.69
194.922	-18.54
195.303	-31.34
195.684	-40.89
196.065	-36
196.447	-40.87
196.828	-52.22
197.209	-50.45
197.59	-43.56
197.971	-42.57
198.352	-66.96
198.733	-126.53
199.114	-97.42
199.495	-80.58
199.876	-83.7
200.257	-72.63
200.638	-82.56
201.018	-88.86
201.399	-82.39
201.78	-100.19
202.16	-122.22
202.541	-142.42
202.922	-86.85
203.302	-59.3
203.683	-33.33
204.063	-52.38
204.444	-27.92
204.824	-11.11
205.204	-16.54
205.585	-12.69
205.965	-23.53
206.345	-15.56
206.725	5.45
207.106	1.21
207.486	-0.31
207.866	7.52
208.246	24.22
208.626	21.94
209.006	9.2
209.386	7.24
209.766	8.55
210.145	-5.4
210.525	-21.76
210.905	-24.13
211.285	-16.73
211.664	-15.4
212.044	-27.09
212.424	-19.85
212.803	-14.88
213.183	-16.22
213.562	-1.96
213.942	20.77
214.321	19.68
214.701	14.79
215.08	8.69
215.459	31.62
215.838	11.07
216.218	-16.13
216.597	-6.9
216.976	-13.19
217.355	12.66
217.734	17.35
218.113	12.63
218.492	22.66
218.871	9.76
219.25	-4.95
219.629	-26.95
220.008	-9.88
220.387	-17.99
220.766	-25.95
221.144	-18.85
221.523	-30.65
221.902	-42.02
222.28	-27.54
222.659	-12.94
223.037	-11.93
223.416	-16.09
223.794	-12.11
224.173	-7.54
224.551	-14.84
224.929	-14.61
225.308	-23.74
225.686	-24.42
226.064	-26.11
226.442	-19.15
226.821	-9.83
227.199	-4.51
227.577	1.13
227.955	-0.98
228.333	-6.37
228.711	-2.51
229.089	-4.77
229.467	-2.87
229.845	-5.89
230.222	-6.11
230.6	-8.91
230.978	-8.01
231.356	-8.38
231.733	-8.6
232.111	-7.14
232.488	-6.52
232.866	-3.91
233.243	-1.37
233.621	-0.4
233.998	2.41
234.376	0.76
234.753	-0.04
235.13	-0.03
235.508	-1.99
235.885	-1.48
236.262	-0.15
236.639	-0.54
237.016	-0.44
237.393	1.11
237.77	4.28
238.147	5.68
238.524	5.47
238.901	5.35
239.278	5.04
239.655	4.77
240.032	4.62
240.409	5.23
240.785	5.9
241.162	5.36
241.539	5.17
241.915	5.26
242.292	4.92
242.668	5.38
243.045	5.48
243.421	5.91
243.798	5.73
244.174	5.32
244.551	5.12
244.927	5.04
245.303	4.7
245.679	4.19
246.056	3.44
246.432	3.53
246.808	3.62
247.184	3.86
247.56	4.08
247.936	4.21
248.312	4.41
248.688	4.02
249.064	4.07
249.44	4.04
249.815	3.99
250.191	4.16
250.567	3.83
250.943	3.75
251.318	3.56
251.694	3.43
252.069	3.72
252.445	3.8
252.82	3.97
253.196	3.73
253.571	4.23
253.947	4.91
254.322	4.81
254.697	4.71
255.073	4.56
255.448	4.1
255.823	4.13
256.198	3.54
256.573	3.62
256.948	3.58
257.323	3.73
257.698	3.79
258.073	3.62
258.448	3.87
258.823	3.61
259.198	3.74
259.573	3.88
259.948	3.84
260.322	3.72
260.697	3.78
261.072	3.84
261.446	3.66
261.821	3.48
262.195	3.47
262.57	3.29
262.944	3.38
263.319	3.65
263.693	3.57
264.067	3.88
264.442	3.77
264.816	3.54
265.19	3.4
265.564	3.29
265.938	3.48
266.313	3.26
266.687	3.31
267.061	3.22
267.435	3.34
267.809	3.45
268.183	3.21
268.556	2.98
268.93	3.01
269.304	3.09
269.678	3.25
270.051	3.33
270.425	3.49
270.799	2.98
271.172	2.86
271.546	2.83
271.919	2.57
272.293	2.78
272.666	3.07
273.04	2.98
273.413	3.01
273.787	2.82
274.16	2.77
274.533	2.86
274.906	2.75
275.279	2.54
275.653	2.5
276.026	2.61
276.399	2.76
276.772	2.66
277.145	2.68
277.518	2.74
277.891	2.64
278.263	2.72
278.636	3.18
279.009	3.38
279.382	3.5
279.755	3.57
280.127	3.29
280.5	3.24
280.872	3.46
281.245	3.46
281.617	3.67
281.99	3.62
282.362	3.68
282.735	3.82
283.107	3.84
283.479	3.76
283.852	3.83
284.224	3.91
284.596	4.03
284.968	4.05
285.34	3.95
285.713	4.08
286.085	4.06
286.457	4.11
286.829	3.94
287.201	3.88
287.572	3.9
287.944	4.14
288.316	4.07
288.688	3.99
289.06	3.97
289.431	4.05
289.803	4.31
290.175	4.17
290.546	4.1
290.918	4.1
291.289	3.92
291.661	4.05
292.032	3.77
292.403	3.75
292.775	3.87
293.146	3.83
293.517	3.74
293.889	3.7
294.26	3.6
294.631	3.6
295.002	3.59
295.373	3.69
295.744	3.64
296.115	3.8
296.486	3.8
296.857	3.85
297.228	3.75
297.599	3.67
297.97	3.84
298.34	3.87
298.711	3.99
299.082	4.25
299.452	4.28
299.823	4.49
300.194	4.54
300.564	4.33
300.935	4.49
301.305	4.57
301.676	4.61
302.046	4.65
302.416	4.73
302.787	4.62
303.157	4.61
303.527	4.57
303.897	4.31
304.267	4.37
304.637	4.48
305.008	4.42
305.378	4.39
305.748	4.43
306.117	4.53
306.487	4.56
306.857	4.66
307.227	4.55
307.597	4.36
307.967	4.33
308.336	4.35
308.706	4.18
309.076	4.15
309.445	4.28
309.815	4.34
310.184	4.31
310.554	4.41
310.923	4.21
311.293	4.33
311.662	4.49
312.031	4.57
312.401	4.34
312.77	4.43
313.139	4.44
313.508	4.36
313.877	4.37
314.246	4.26
314.616	4.26
314.985	4.31
315.353	4.44
315.722	4.44
316.091	4.46
316.46	4.55
316.829	4.6
317.198	4.71
317.567	4.87
317.935	5
318.304	5.34
318.672	5.47
319.041	5.47
319.41	5.5
319.778	5.43
320.147	5.77
320.515	5.7
320.883	5.65
321.252	5.81
321.62	5.85
321.988	6.01
322.357	5.84
322.725	5.79
323.093	5.7
323.461	5.83
323.829	5.92
324.197	6.05
324.565	6.05
324.933	5.9
325.301	5.78
325.669	5.77
326.037	5.57
326.405	5.51
326.772	5.43
327.14	5.39
327.508	5.5
327.875	5.42
328.243	5.44
328.61	5.49
328.978	5.43
329.346	5.45
329.713	5.43
330.08	5.49
330.448	5.64
330.815	5.66
331.182	5.51
331.55	5.52
331.917	5.42
332.284	5.53
332.651	5.54
333.018	5.55
333.385	5.54
333.752	5.59
334.119	5.87
334.486	6.01
334.853	5.86
335.22	5.76
335.587	5.59
335.954	5.59
336.32	5.65
336.687	5.69
337.054	5.69
337.42	5.6
337.787	5.7
338.153	5.6
338.52	5.68
338.886	5.82
339.253	5.7
339.619	5.69
339.986	5.5
340.352	5.32
340.718	5.3
341.084	5.4
341.451	5.34
341.817	5.18
342.183	5.02
342.549	5.24
342.915	5.29
343.281	5.38
343.647	5.46
344.013	5.48
344.379	5.37
344.745	5.34
345.11	5.36
345.476	5.38
345.842	5.23
346.208	5.18
346.573	5.16
346.939	5.24
347.304	5.33
347.67	5.37
348.035	5.45
348.401	5.45
348.766	5.33
349.132	5.36
349.497	5.4
349.862	5.39
350.228	5.37
350.593	5.32
350.958	5.4
351.323	5.41
351.688	5.43
352.053	5.5
352.418	5.52
352.783	5.55
353.148	5.46
353.513	5.62
353.878	5.77
354.243	5.71
354.608	5.76
354.972	5.67
355.337	5.74
355.702	5.77
356.066	5.74
356.431	5.78
356.795	5.85
357.16	5.78
357.524	5.78
357.889	5.78
358.253	5.82
358.618	5.78
358.982	5.82
359.346	5.77
359.71	5.7
360.075	5.7
360.439	5.73
360.803	5.71
361.167	5.71
361.531	5.63
361.895	5.62
362.259	5.55
362.623	5.54
362.987	5.55
363.351	5.57
363.714	5.59
364.078	5.58
364.442	5.53
364.806	5.59
365.169	5.64
365.533	5.61
365.896	5.62
366.26	5.66
366.623	5.54
366.987	5.57
367.35	5.63
367.714	5.56
368.077	5.52
368.44	5.53
368.803	5.48
369.167	5.37
369.53	5.4
369.893	5.48
370.256	5.42
370.619	5.36
370.982	5.33
371.345	5.28
371.708	5.22
372.071	5.11
372.434	5.04
372.797	5.02
373.159	4.93
373.522	4.96
373.885	4.93
374.247	4.96
374.61	5
374.973	4.96
375.335	4.99
375.698	4.93
376.06	4.93
376.423	4.94
376.785	5
377.147	4.98
377.51	4.93
377.872	4.94
378.234	4.97
378.596	4.91
378.958	4.96
379.321	4.99
379.683	5.05
380.045	5.04
380.407	5.05
380.769	5.08
381.13	4.97
381.492	4.94
381.854	4.94
382.216	4.85
382.578	4.86
382.939	4.85
383.301	4.83
383.663	4.8
384.024	4.8
384.386	4.78
384.747	4.75
385.109	4.71
385.47	4.7
385.832	4.62
386.193	4.61
386.554	4.55
386.916	4.59
387.277	4.59
387.638	4.63
387.999	4.62
388.36	4.57
388.721	4.57
389.082	4.57
389.443	4.6
389.804	4.62
390.165	4.58
390.526	4.56
390.887	4.55
391.248	4.57
391.609	4.53
391.969	4.53
392.33	4.51
392.691	4.52
393.051	4.54
393.412	4.58
393.772	4.64
394.133	4.66
394.493	4.57
394.854	4.53
395.214	4.49
395.574	4.46
395.935	4.46
396.295	4.44
396.655	4.41
397.015	4.37
397.376	4.33
397.736	4.33
398.096	4.3
398.456	4.31
398.816	4.23
399.176	4.23
399.535	4.23
399.895	4.25
400.255	4.22
400.615	4.2
400.975	4.14
401.334	4.08
401.694	4.08
402.054	4.1
402.413	4.1
402.773	4.1
403.132	4.08
403.492	4.08
403.851	4.08
404.211	4.07
404.57	4.03
404.929	4.02
405.288	4.03
405.648	4.01
406.007	3.98
406.366	4
406.725	4.01
407.084	3.98
407.443	3.98
407.802	3.97
408.161	3.97
408.52	3.99
408.879	3.99
409.238	3.98
409.596	3.93
409.955	3.92
410.314	3.91
410.673	3.92
411.031	3.92
411.39	3.92
411.748	3.94
412.107	3.94
412.465	3.95
412.824	3.91
413.182	3.9
413.54	3.92
413.899	3.9
414.257	3.88
414.615	3.88
414.974	3.88
415.332	3.91
415.69	3.88
416.048	3.89
416.406	3.88
416.764	3.84
417.122	3.85
417.48	3.84
417.838	3.83
418.195	3.82
418.553	3.81
418.911	3.79
419.269	3.78
419.626	3.77
419.984	3.74
420.342	3.75
420.699	3.75
421.057	3.75
421.414	3.77
421.772	3.77
422.129	3.77
422.486	3.74
422.844	3.72
423.201	3.72
423.558	3.7
423.915	3.69
424.273	3.7
424.63	3.7
424.987	3.71
425.344	3.7
425.701	3.69
426.058	3.67
426.415	3.68
426.772	3.66
427.128	3.67
427.485	3.68
427.842	3.67
428.199	3.67
428.555	3.65
428.912	3.63
429.269	3.63
429.625	3.66
429.982	3.64
430.338	3.66
430.695	3.64
431.051	3.63
431.407	3.63
431.764	3.62
432.12	3.63
432.476	3.63
432.832	3.64
433.189	3.66
433.545	3.68
433.901	3.69
434.257	3.71
434.613	3.7
434.969	3.69
435.325	3.68
435.681	3.67
436.036	3.66
436.392	3.66
436.748	3.66
437.104	3.64
437.459	3.64
437.815	3.63
438.171	3.62
438.526	3.63
438.882	3.63
439.237	3.64
439.593	3.64
439.948	3.63
440.304	3.61
440.659	3.6
441.014	3.58
441.369	3.57
441.725	3.57
442.08	3.56
442.435	3.56
442.79	3.54
443.145	3.54
443.5	3.54
443.855	3.52
444.21	3.52
444.565	3.51
444.92	3.53
445.275	3.52
445.629	3.52
445.984	3.52
446.339	3.51
446.693	3.51
447.048	3.5
447.403	3.5
447.757	3.5
448.112	3.5
448.466	3.5
448.82	3.5
449.175	3.48
449.529	3.5
449.883	3.49
450.238	3.52
450.592	3.51
450.946	3.52
451.3	3.54
451.654	3.52
452.008	3.53
452.362	3.5
452.716	3.53
453.07	3.53
453.424	3.53
453.778	3.51
454.132	3.48
454.486	3.49
454.839	3.49
455.193	3.48
455.547	3.49
455.9	3.5
456.254	3.5
456.607	3.49
456.961	3.48
457.314	3.49
457.668	3.47
458.021	3.48
458.375	3.47
458.728	3.47
459.081	3.48
459.434	3.47
459.787	3.5
460.141	3.49
460.494	3.49
460.847	3.47
461.2	3.5
461.553	3.52
461.906	3.53
462.259	3.54
462.611	3.54
462.964	3.55
463.317	3.54
463.67	3.55
464.022	3.57
464.375	3.56
464.728	3.58
465.08	3.6
465.433	3.6
465.785	3.61
466.138	3.6
466.49	3.61
466.843	3.63
467.195	3.61
467.547	3.59
467.899	3.6
468.252	3.63
468.604	3.64
468.956	3.63
469.308	3.61
469.66	3.61
470.012	3.62
470.364	3.6
470.716	3.62
471.068	3.62
471.42	3.65
471.772	3.66
472.123	3.64
472.475	3.65
472.827	3.66
473.178	3.64
473.53	3.63
473.882	3.61
474.233	3.6
474.585	3.59
474.936	3.61
475.288	3.6
475.639	3.6
475.99	3.59
476.342	3.6
476.693	3.6
477.044	3.6
477.395	3.61
477.746	3.6
478.097	3.58
478.448	3.58
478.8	3.56
479.15	3.56
479.501	3.58
479.852	3.57
480.203	3.56
480.554	3.58
480.905	3.59
481.255	3.61
481.606	3.62
481.957	3.63
482.307	3.62
482.658	3.63
483.009	3.63
483.359	3.64
483.709	3.64
484.06	3.64
484.41	3.64
484.761	3.64
485.111	3.66
485.461	3.68
485.811	3.68
486.162	3.69
486.512	3.69
486.862	3.68
487.212	3.7
487.562	3.7
487.912	3.72
488.262	3.72
488.612	3.71
488.961	3.71
489.311	3.71
489.661	3.72
490.011	3.72
490.36	3.71
490.71	3.71
491.06	3.71
491.409	3.72
491.759	3.73
492.108	3.72
492.458	3.7
492.807	3.71
493.157	3.71
493.506	3.7
493.855	3.72
494.204	3.73
494.554	3.73
494.903	3.76
495.252	3.75
495.601	3.76
495.95	3.78
496.299	3.81
496.648	3.84
496.997	3.85
497.346	3.88
497.695	3.9
498.043	3.93
498.392	3.94
498.741	3.96
499.09	3.98
499.438	4
499.787	4.02
500.135	4.01
500.484	4.03
500.832	4.06
501.181	4.07
501.529	4.12
501.878	4.12
502.226	4.13
502.574	4.18
502.923	4.19
503.271	4.23
503.619	4.25
503.967	4.25
504.315	4.28
504.663	4.29
505.011	4.33
505.359	4.33
505.707	4.37
506.055	4.4
506.403	4.39
506.751	4.44
507.098	4.47
507.446	4.55
507.794	4.59
508.141	4.63
508.489	4.67
508.837	4.66
509.184	4.7
509.531	4.72
509.879	4.73
510.226	4.77
510.574	4.79
510.921	4.83
511.268	4.87
511.616	4.91
511.963	4.96
512.31	4.99
512.657	5.04
513.004	5.05
513.351	5.11
513.698	5.18
514.045	5.21
514.392	5.27
514.739	5.29
515.086	5.35
515.432	5.4
515.779	5.45
516.126	5.52
516.473	5.55
516.819	5.6
517.166	5.66
517.512	5.72
517.859	5.77
518.205	5.81
518.552	5.87
518.898	5.92
519.245	6
519.591	6.06
519.937	6.12
520.283	6.21
520.629	6.27
520.976	6.34
521.322	6.4
521.668	6.47
522.014	6.56
522.36	6.63
522.706	6.74
523.052	6.83
523.398	6.95
523.743	7.09
524.089	7.19
524.435	7.27
524.781	7.4
525.126	7.47
525.472	7.57
525.817	7.63
526.163	7.71
526.509	7.77
526.854	7.84
527.199	7.9
527.545	7.96
527.89	8.03
528.235	8.09
528.581	8.16
528.926	8.24
529.271	8.31
529.616	8.4
529.961	8.47
530.306	8.55
530.651	8.63
530.996	8.71
531.341	8.81
531.686	8.94
532.031	9.03
532.376	9.15
532.721	9.26
533.065	9.38
533.41	9.5
533.755	9.64
534.099	9.76
534.444	9.9
534.788	10.05
535.133	10.19
535.477	10.35
535.822	10.53
536.166	10.7
536.51	10.88
536.855	11.05
537.199	11.24
537.543	11.45
537.887	11.65
538.231	11.85
538.576	12.04
538.92	12.23
539.264	12.44
539.608	12.63
539.951	12.8
540.295	12.99
540.639	13.15
540.983	13.31
541.327	13.51
541.671	13.68
542.014	13.84
542.358	13.99
542.701	14.15
543.045	14.33
543.389	14.5
543.732	14.66
544.075	14.84
544.419	15.01
544.762	15.2
545.105	15.41
545.449	15.62
545.792	15.85
546.135	16.06
546.478	16.26
546.821	16.51
547.165	16.79
547.508	17.05
547.851	17.33
548.194	17.56
548.536	17.78
548.879	18.07
549.222	18.32
549.565	18.6
549.908	18.86
550.25	19.1
550.593	19.35
550.936	19.66
551.278	19.96
551.621	20.24
551.963	20.49
552.306	20.74
552.648	20.97
552.991	21.25
553.333	21.52
553.675	21.81
554.017	22.04
554.36	22.3
554.702	22.55
555.044	22.79
555.386	23.09
555.728	23.35
556.07	23.62
556.412	23.94
556.754	24.22
557.096	24.53
557.438	24.82
557.78	25.16
558.121	25.37
558.463	25.62
558.805	25.93
559.147	26.25
559.488	26.59
559.83	26.92
560.171	27.16
560.513	27.43
560.854	27.68
561.196	27.98
561.537	28.23
561.878	28.5
562.22	28.8
562.561	29.1
562.902	29.37
563.243	29.58
563.584	29.82
563.925	30.09
564.266	30.34
564.607	30.63
564.948	30.82
565.289	31.1
565.63	31.35
565.971	31.59
566.312	31.74
566.653	31.99
566.993	32.19
567.334	32.44
567.675	32.71
568.015	32.95
568.356	33.22
568.696	33.46
569.037	33.67
569.377	33.83
569.718	34.08
570.058	34.32
570.398	34.5
570.739	34.7
571.079	34.93
571.419	35.13
571.759	35.29
572.099	35.48
572.439	35.66
572.779	35.88
573.119	36.11
573.459	36.4
573.799	36.54
574.139	36.77
574.479	36.99
574.819	37.15
575.158	37.33
575.498	37.4
575.838	37.6
576.177	37.78
576.517	38.01
576.856	38.16
577.196	38.32
577.535	38.55
577.875	38.7
578.214	38.86
578.553	39.02
578.893	39.26
579.232	39.43
579.571	39.68
579.91	39.79
580.25	39.91
580.589	39.99
580.928	40.13
581.267	40.23
581.606	40.34
581.945	40.49
582.283	40.7
582.622	40.93
582.961	41.15
583.3	41.33
583.639	41.48
583.977	41.59
584.316	41.76
584.654	41.94
584.993	42.1
585.332	42.26
585.67	42.42
586.008	42.55
586.347	42.73
586.685	42.8
587.024	42.99
587.362	43.18
587.7	43.31
588.038	43.45
588.376	43.63
588.715	43.75
589.053	43.88
589.391	43.94
589.729	44.08
590.067	44.21
590.404	44.28
590.742	44.35
591.08	44.52
591.418	44.6
591.756	44.76
592.093	44.91
592.431	44.96
592.769	45.1
593.106	45.19
593.444	45.31
593.781	45.46
594.119	45.45
594.456	45.51
594.793	45.59
595.131	45.73
595.468	45.83
595.805	45.92
596.143	46.05
596.48	46.1
596.817	46.26
597.154	46.35
597.491	46.44
597.828	46.6
598.165	46.65
598.502	46.77
598.839	46.89
599.176	46.96
599.512	47.04
599.849	47.22
600.186	47.31
600.523	47.42
600.859	47.46
601.196	47.68
601.532	47.72
601.869	47.91
602.205	47.98
602.542	48.02
602.878	48.12
603.215	48.27
603.551	48.32
603.887	48.35
604.223	48.34
604.56	48.48
604.896	48.54
605.232	48.62
605.568	48.79
605.904	48.77
606.24	48.87
606.576	49.04
606.912	48.97
607.248	49.07
607.583	49.16
607.919	49.26
608.255	49.27
608.591	49.42
608.926	49.39
609.262	49.46
609.597	49.54
609.933	49.58
610.268	49.53
610.604	49.62
610.939	49.72
611.275	49.76
611.61	49.74
611.945	49.76
612.281	49.8
612.616	49.7
612.951	49.75
613.286	49.83
613.621	49.82
613.956	49.9
614.291	49.87
614.626	49.9
614.961	49.92
615.296	49.95
615.631	49.95
615.966	50.06
616.3	50.12
616.635	50.25
616.97	50.24
617.304	50.25
617.639	50.41
617.973	50.38
618.308	50.46
618.642	50.59
618.977	50.65
619.311	50.65
619.646	50.8
619.98	50.8
620.314	50.89
620.648	50.93
620.983	51.02
621.317	51.1
621.651	51.13
621.985	51.2
622.319	51.31
622.653	51.44
622.987	51.5
623.321	51.57
623.655	51.56
623.988	51.72
624.322	51.95
624.656	52.01
624.99	52.02
625.323	52.11
625.657	52.16
625.99	52.24
626.324	52.36
626.657	52.41
626.991	52.47
627.324	52.45
627.658	52.49
627.991	52.5
628.324	52.56
628.657	52.62
628.991	52.71
629.324	52.79
629.657	52.75
629.99	52.78
630.323	52.8
630.656	52.81
630.989	52.75
631.322	52.6
631.655	52.49
631.987	52.61
632.32	52.68
632.653	52.66
632.986	52.61
633.318	52.61
633.651	52.6
633.984	52.66
634.316	52.71
634.649	52.72
634.981	52.8
635.313	52.87
635.646	52.85
635.978	52.84
636.31	52.86
636.643	52.96
636.975	52.98
637.307	53.05
637.639	53.08
637.971	53.16
638.303	53.26
638.635	53.33
638.967	53.22
639.299	53.27
639.631	53.32
639.963	53.38
640.295	53.41
640.626	53.45
640.958	53.5
641.29	53.6
641.621	53.65
641.953	53.64
642.285	53.6
642.616	53.61
642.948	53.68
643.279	53.71
643.61	53.78
643.942	53.78
644.273	53.71
644.604	53.8
644.936	53.95
645.267	53.96
645.598	54.13
645.929	54.23
646.26	54.06
646.591	54.08
646.922	54.12
647.253	54.24
647.584	54.26
647.915	54.2
648.245	54.12
648.576	54.2
648.907	54.23
649.238	54.22
649.568	54.27
649.899	54.3
650.229	54.33
650.56	54.23
650.89	54.35
651.221	54.54
651.551	54.61
651.882	54.55
652.212	54.54
652.542	54.46
652.872	54.51
653.203	54.59
653.533	54.62
653.863	54.69
654.193	54.68
654.523	54.75
654.853	54.86
655.183	54.81
655.513	54.74
655.843	54.69
656.172	54.76
656.502	54.84
656.832	54.92
657.162	54.93
657.491	55.01
657.821	54.99
658.15	54.84
658.48	54.84
658.809	54.91
659.139	55.02
659.468	55.13
659.798	55.21
660.127	55.22
660.456	55.23
660.785	55.2
661.115	55.12
661.444	55.07
661.773	55.01
662.102	55.13
662.431	55.28
662.76	55.45
663.089	55.46
663.418	55.49
663.747	55.45
664.076	55.44
664.404	55.49
664.733	55.58
665.062	55.69
665.39	55.59
665.719	55.62
666.048	55.62
666.376	55.63
666.705	55.62
667.033	55.8
667.362	55.85
667.69	55.91
668.018	56.03
668.347	56.11
668.675	56.26
669.003	56.2
669.331	56.24
669.659	56.2
669.987	56.28
670.315	56.31
670.643	56.41
670.971	56.52
671.299	56.47
671.627	56.46
671.955	56.44
672.283	56.53
672.61	56.4
672.938	56.4
673.266	56.4
673.593	56.33
673.921	56.2
674.249	56.28
674.576	56.2
674.904	56.14
675.231	56.22
675.558	56.26
675.886	56.38
676.213	56.33
676.54	56.31
676.867	56.33
677.195	56.38
677.522	56.24
677.849	56.27
678.176	56.42
678.503	56.41
678.83	56.57
679.157	56.63
679.484	56.75
679.81	56.84
680.137	56.96
680.464	56.92
680.791	56.93
681.117	56.81
681.444	56.98
681.771	57.16
682.097	57.18
682.424	57.27
682.75	57.29
683.077	57.27
683.403	57.34
683.729	57.4
684.056	57.35
684.382	57.54
684.708	57.48
685.034	57.53
685.36	57.55
685.686	57.34
686.012	57.33
686.339	57.3
686.664	57.24
686.99	57.21
687.316	57.22
687.642	57.26
687.968	57.41
688.294	57.31
688.619	57.19
688.945	57.11
689.271	56.96
689.596	56.94
689.922	57.03
690.247	57.01
690.573	56.86
690.898	56.74
691.224	56.76
691.549	56.77
691.874	56.67
692.2	56.63
692.525	56.86
692.85	56.94
693.175	56.99
693.5	57.07
693.825	56.93
694.15	57.23
694.475	57.24
694.8	57.08
695.125	57.15
695.45	57.3
695.775	57.35
696.099	57.47
696.424	57.6
696.749	57.62
697.073	57.69
697.398	57.89
697.723	58.04
698.047	58.04
698.372	58.16
698.696	58.01
699.02	58.06
699.345	58.05
699.669	57.91
699.993	57.79
700.318	57.79
700.642	57.83
700.966	57.79
701.29	57.84
701.614	58.11
701.938	58.1
702.262	57.98
702.586	57.99
702.91	57.94
703.234	57.84
703.557	57.8
703.881	57.78
704.205	57.74
704.529	57.8
704.852	57.7
705.176	57.48
705.499	57.78
705.823	57.75
706.146	57.68
706.47	57.79
706.793	57.97
707.117	57.89
707.44	58.02
707.763	58.17
708.086	58.3
708.409	58.15
708.733	58.27
709.056	58.33
709.379	58.43
709.702	58.26
710.025	58.37
710.348	58.53
710.671	58.61
710.993	58.67
711.316	58.63
711.639	58.54
711.962	58.71
712.284	58.81
712.607	59.05
712.93	58.95
713.252	58.98
713.575	59.15
713.897	59.31
714.22	59.38
714.542	59.33
714.864	59.19
715.187	59.14
715.509	59.06
715.831	59.02
716.153	59.21
716.475	59.49
716.798	59.38
717.12	59.32
717.442	59.2
717.764	59.12
718.085	59.19
718.407	59.5
718.729	59.49
719.051	59.42
719.373	59.37
719.695	59.53
720.016	59.59
720.338	59.42
720.659	59.23
720.981	59.14
721.302	59.14
721.624	59.2
721.945	59.57
722.267	59.73
722.588	60.16
722.909	60.01
723.231	59.86
723.552	59.88
723.873	59.99
724.194	59.82
724.515	59.72
724.836	59.59
725.157	59.34
725.478	59.25
725.799	59.08
726.12	58.87
726.441	59
726.762	58.96
727.083	59.24
727.403	59.65
727.724	59.64
728.045	59.52
728.365	59.66
728.686	59.32
729.006	59.48
729.327	59.53
729.647	59.5
729.967	59.54
730.288	59.6
730.608	59.64
730.928	59.93
731.249	59.79
731.569	59.97
731.889	60.22
732.209	60.2
732.529	60.27
732.849	60.24
733.169	60.06
733.489	60.09
733.809	59.67
734.129	59.28
734.448	59.37
734.768	59.44
735.088	59.39
735.408	59.59
735.727	59.54
736.047	59.26
736.366	59.15
736.686	59.49
737.005	59.57
737.325	59.66
737.644	59.62
737.963	59.93
738.283	59.84
738.602	59.66
738.921	59.99
739.24	60.49
739.56	60.47
739.879	60.75
740.198	60.88
740.517	61.26
740.836	61.36
741.155	61.46
741.473	61.48
741.792	61.43
742.111	61.22
742.43	61.1
742.748	60.9
743.067	61.24
743.386	60.92
743.704	61.06
744.023	60.95
744.341	61.13
744.66	61.1
744.978	61.16
745.297	61.16
745.615	60.9
745.933	60.26
746.252	60.63
746.57	60.45
746.888	60.8
747.206	61.06
747.524	61.38
747.842	61.19
748.16	61.23
748.478	61.27
748.796	61.47
749.114	61.82
749.432	61.91
749.749	61.66
750.067	61.67
750.385	61.53
750.703	61.39
751.02	61.4
751.338	61.61
751.655	61.86
751.973	61.94
752.29	62.15
752.608	62.36
752.925	62.47
753.242	62.72
753.56	62.42
753.877	61.96
754.194	61.81
754.511	61.9
754.828	61.83
755.145	61.96
755.462	62.06
755.779	61.69
756.096	61.75
756.413	61.8
756.73	61.85
757.047	61.8
757.364	61.73
757.68	61.93
757.997	61.9
758.314	61.8
758.63	61.87
758.947	61.66
759.264	61.5
759.58	61.49
759.896	61.55
760.213	61.57
760.529	61.65
760.846	61.82
761.162	61.89
761.478	62.02
761.794	61.81
762.11	61.67
762.426	61.95
762.743	62.28
763.059	62.35
763.375	62.54
763.69	62.7
764.006	63.12
764.322	63.03
764.638	62.94
764.954	63.03
765.27	63
765.585	63.11
765.901	63.17
766.216	63.11
766.532	62.83
766.848	62.68
767.163	62.66
767.478	62.59
767.794	62.57
768.109	62.49
768.424	63.01
768.74	63.24
769.055	62.66
769.37	62.29
769.685	61.93
770	61.31
770.315	61.36
770.63	60.9
770.945	60.76
771.26	60.89
771.575	60.48
771.89	60.54
772.205	60.82
772.52	61.23
772.834	61.08
773.149	61.18
773.464	61.31
773.778	61.5
774.093	61.25
774.407	61.54
774.722	61.46
775.036	60.93
775.351	60.83
775.665	61.28
775.979	61.59
776.293	61.87
776.608	62.67
776.922	62.2
777.236	62.23
777.55	62.02
777.864	61.96
778.178	61.92
778.492	62.14
778.806	61.81
779.12	61.65
779.434	62.13
779.747	62.66
780.061	62.78
780.375	62.81
780.689	63.23
781.002	62.89
781.316	63.04
781.629	62.59
781.943	62.43
782.256	62.84
782.57	62.24
782.883	62.1
783.196	62.08
783.51	62.16
783.823	62.18
784.136	61.91
784.449	61.95
784.762	62.48
785.075	62.04
785.388	62.32
785.701	62.53
786.014	62.05
786.327	62.27
786.64	62.16
786.953	62.05
787.266	61.92
787.578	61.65
787.891	61.52
788.204	61.54
788.516	62.01
788.829	61.78
789.141	61.96
789.454	62.38
789.766	62.4
790.079	62.01
790.391	62.42
790.703	62.9
791.016	63.13
791.328	63.01
791.64	63.26
791.952	62.98
792.264	62.2
792.576	61.99
792.888	61.82
793.2	61.88
793.512	61.88
793.824	61.82
794.136	62.25
794.448	62.83
794.76	63.37
795.071	62.82
795.383	62.75
795.695	62.89
796.006	62.67
796.318	62.11
796.629	62.81
796.941	62.38
797.252	62.19
797.564	61.88
797.875	62
798.186	61.72
798.497	61.79
798.809	62.22
799.12	62.08
799.431	61.97
799.742	62.38
800.053	62.48
800.364	62.65
800.675	62.46
800.986	61.53
801.297	61.7
801.608	62.17
801.918	62.29
802.229	62.51
802.54	62.46
802.851	62.62
803.161	62.81
803.472	62.42
803.782	62.22
804.093	62.14
804.403	62.52
804.714	62.25
805.024	61.94
805.334	61.09
805.645	61.58
805.955	61.74
806.265	61.69
806.575	62.3
806.885	62.35
807.195	62.17
807.505	63.12
807.815	63.03
808.125	62.05
808.435	62.09
808.745	61.84
809.055	61.45
809.365	62.11
809.674	61.38
809.984	61.86
810.294	61.61
810.603	61.16
810.913	60.34
811.222	60.14
811.532	59.95
811.841	60.47
812.151	60.94
812.46	60.43
812.769	60.11
813.079	59.78
813.388	59.73
813.697	60.32
814.006	59.61
814.315	59.67
814.624	60.74
814.933	60.46
815.242	60.78
815.551	61.59
815.86	60.89
816.169	61.7
816.478	62.07
816.786	62.74
817.095	63.64
817.404	63.73
817.712	65.42
818.021	66.07
818.33	66.62
818.638	65.99
818.947	65.78
819.255	65.44
819.563	64.98
819.872	64.58
820.18	64.33
820.488	64.67
820.796	64.72
821.105	64.71
821.413	64.44
821.721	64.62
822.029	64.34
822.337	64.3
822.645	64.21
822.953	64.2
823.26	63.93
823.568	63.95
823.876	64
824.184	63.67
824.491	63.55
824.799	63.49
825.107	63.61
825.414	63.56
825.722	63.65
826.029	63.71
826.337	63.81
826.644	63.77
826.951	63.77
827.259	63.68
827.566	63.7
827.873	63.87
828.18	63.49
828.488	63.53
828.795	63.69
829.102	63.84
829.409	63.92
829.716	64.46
830.023	64.63
830.329	64.35
830.636	64.8
830.943	64.64
831.25	64.73
831.557	64.7
831.863	65.12
832.17	65.09
832.476	65.37
832.783	65.4
833.089	65.39
833.396	65.36
833.702	64.73
834.009	64.73
834.315	64.66
834.621	65.05
834.928	65.45
835.234	65.9
835.54	65.27
835.846	64.87
836.152	64.24
836.458	64
836.764	64.78
837.07	64.43
837.376	64.82
837.682	65.33
837.988	65.37
838.293	65.23
838.599	65.74
838.905	65.37
839.211	65.21
839.516	65.38
839.822	65.19
840.127	65.34
840.433	64.16
840.738	64.74
841.044	64.61
841.349	63.19
841.654	60.97
841.959	61.65
842.265	61.76
842.57	62.73
842.875	62.74
843.18	59.91
843.485	59.93
843.79	60.13
844.095	59.23
844.4	57.98
844.705	58.22
845.01	57.06
845.315	56.01
845.619	56.63
845.924	56.56
846.229	56.87
846.533	58.45
846.838	58.98
847.142	59.61
847.447	60.82
847.751	62.63
848.056	65.61
848.36	64.97
848.664	64.67
848.969	63.63
849.273	62.63
849.577	66.16
849.881	66.02
850.185	65.81
850.489	66
850.794	67.89
851.097	65.99
851.401	64.2
851.705	67.59
852.009	65.64
852.313	66.9
852.617	65.77
852.92	65.12
853.224	67.68
853.528	65.65
853.831	63.23
854.135	63.72
854.438	63.63
854.742	64.13
855.045	62.82
855.349	63.12
855.652	63.11
855.955	62.14
856.259	61.52
856.562	61.11
856.865	60.23
857.168	60.47
857.471	61.12
857.774	63.74
858.077	60.84
858.38	63.12
858.683	60.88
858.986	61.76
859.289	64.3
859.592	60.46
859.894	60.46
860.197	62.52
860.5	61.94
860.802	61.03
861.105	61.41
861.407	62
861.71	62.44
862.012	63.41
862.315	64.42
862.617	64.97
862.919	65.39
863.222	65.58
863.524	65.47
863.826	66.78
864.128	67.6
864.43	66.52
864.732	64.13
865.034	65.83
865.336	65.79
865.638	63.42
865.94	63.91
866.242	64.02
866.544	63.84
866.846	63.31
867.147	65.91
867.449	65.05
867.751	64.26
868.052	63.38
868.354	60.82
868.655	60.43
868.957	59.3
869.258	59.29
869.56	57.43
869.861	54.16
870.162	52.21
870.463	51.08
870.765	52.5
871.066	53.13
871.367	52.66
871.668	51.61
871.969	51.06
872.27	55.32
872.571	56.27
872.872	52.34
873.173	51.68
873.473	47.16
873.774	48.63
874.075	49.77
874.376	50.22
874.676	51.36
874.977	52.83
875.277	52.61
875.578	54.15
875.878	55.58
876.179	57.67
876.479	58.42
876.78	58.07
877.08	57.85
877.38	58.48
877.68	57.9
877.981	58.79
878.281	60.22
878.581	54.3
