Data from BA53509_Reflection_00014.txt Node
Date: Tue Nov 19 11:46:49 EST 2019
User: vgr7
Spectrometer: USB2G7710
Scans to average: 3
Trigger mode: 4
Integration Time (sec): 2.000000E-2
Electric dark correction enabled: true
Boxcar width: 10
XAxis mode: Wavelengths
Number of Pixels in Spectrum: 2048
>>>>>Begin Spectral Data<<<<<
177.721	-1.58
178.105	-191.67
178.488	-13.23
178.871	161.9
179.254	53.33
179.636	-78.86
180.019	159.14
180.402	-166.67
180.785	192.16
181.168	-76.1
181.55	16.08
181.933	42.27
182.316	30.8
182.698	47.11
183.081	51.98
183.463	104.07
183.846	-45.5
184.228	-158.87
184.611	-248.48
184.993	72.46
185.376	49.28
185.758	254.43
186.14	333.33
186.522	207.22
186.904	851.85
187.287	625.16
187.669	260.32
188.051	213.84
188.433	177.34
188.815	99.11
189.197	30.94
189.579	18.69
189.961	7.32
190.342	21.18
190.724	21.8
191.106	18.36
191.488	15.4
191.869	-1.2
192.251	27.03
192.633	14.93
193.014	18.8
193.396	27.4
193.777	24.88
194.159	21.46
194.54	24.89
194.922	27.33
195.303	30.34
195.684	36.46
196.065	32.21
196.447	48.63
196.828	45.45
197.209	56.04
197.59	74.2
197.971	93.79
198.352	90.79
198.733	138.33
199.114	129.23
199.495	120.03
199.876	127.72
200.257	105.34
200.638	133.82
201.018	119.36
201.399	123.81
201.78	139.19
202.16	173.86
202.541	252.68
202.922	121.67
203.302	143.51
203.683	113.94
204.063	150.48
204.444	99.53
204.824	120.89
205.204	146.05
205.585	127.97
205.965	112.08
206.345	127.72
206.725	101.5
207.106	93.95
207.486	94.19
207.866	122.43
208.246	119.24
208.626	128.47
209.006	121.63
209.386	99.7
209.766	85.55
210.145	80.08
210.525	69.86
210.905	76.37
211.285	81.3
211.664	88.74
212.044	102.49
212.424	114.18
212.803	104.81
213.183	74.93
213.562	86.27
213.942	86.13
214.321	89.39
214.701	118.06
215.08	112.82
215.459	117.42
215.838	79.06
216.218	86.5
216.597	60.24
216.976	60.67
217.355	63.24
217.734	44.26
218.113	45.84
218.492	48.32
218.871	69.36
219.25	49.61
219.629	35.9
220.008	26.03
220.387	32.45
220.766	48.74
221.144	64.9
221.523	50.57
221.902	50.93
222.28	40.17
222.659	39.07
223.037	37.92
223.416	45.11
223.794	46.1
224.173	38.35
224.551	44.55
224.929	47.02
225.308	40.01
225.686	44.9
226.064	39.23
226.442	33.86
226.821	29.38
227.199	28.6
227.577	35.74
227.955	32.35
228.333	25.33
228.711	20.19
229.089	22.3
229.467	20.72
229.845	17.41
230.222	17.93
230.6	15.99
230.978	16.9
231.356	14.54
231.733	17.33
232.111	15.64
232.488	12.56
232.866	15.82
233.243	17.8
233.621	19.58
233.998	19.21
234.376	19.36
234.753	18.25
235.13	16.16
235.508	14.72
235.885	13.68
236.262	12.64
236.639	14.96
237.016	12.57
237.393	12.04
237.77	12.83
238.147	12.42
238.524	12.96
238.901	12.6
239.278	11.11
239.655	10.59
240.032	10.68
240.409	11.18
240.785	10.15
241.162	9.99
241.539	8.93
241.915	9.13
242.292	9.03
242.668	8.91
243.045	9.07
243.421	8.71
243.798	8.84
244.174	9
244.551	8.46
244.927	8.56
245.303	8.41
245.679	8.1
246.056	8.17
246.432	7.66
246.808	7.53
247.184	7.74
247.56	7.72
247.936	7.54
248.312	7.27
248.688	7.4
249.064	6.94
249.44	6.89
249.815	7.14
250.191	7.21
250.567	7.2
250.943	7.08
251.318	6.92
251.694	6.93
252.069	6.94
252.445	7.32
252.82	7.41
253.196	7.5
253.571	8.17
253.947	8.25
254.322	8.49
254.697	8.49
255.073	8.34
255.448	8.16
255.823	8.14
256.198	8.26
256.573	8.15
256.948	8.24
257.323	8.35
257.698	8.35
258.073	8.06
258.448	8.1
258.823	8.02
259.198	8.15
259.573	7.94
259.948	7.91
260.322	7.77
260.697	7.65
261.072	7.56
261.446	7.07
261.821	7.07
262.195	7.01
262.57	6.95
262.944	7
263.319	7.16
263.693	7.07
264.067	7.21
264.442	7.06
264.816	7.09
265.19	6.91
265.564	6.49
265.938	6.57
266.313	6.4
266.687	6.63
267.061	6.57
267.435	6.81
267.809	6.57
268.183	6.49
268.556	6.51
268.93	6.89
269.304	7.1
269.678	6.87
270.051	6.87
270.425	6.81
270.799	6.61
271.172	6.38
271.546	6.35
271.919	6.2
272.293	6.17
272.666	6.26
273.04	6.23
273.413	6.23
273.787	6.25
274.16	6.34
274.533	6.29
274.906	6.37
275.279	6.4
275.653	6.55
276.026	6.67
276.399	6.62
276.772	6.2
277.145	5.93
277.518	5.92
277.891	5.99
278.263	6.14
278.636	6.59
279.009	6.69
279.382	6.82
279.755	6.69
280.127	6.81
280.5	6.74
280.872	6.86
281.245	7.08
281.617	7.09
281.99	6.96
282.362	6.86
282.735	6.82
283.107	6.81
283.479	6.68
283.852	6.64
284.224	6.75
284.596	6.89
284.968	6.94
285.34	7
285.713	7.12
286.085	7.03
286.457	6.86
286.829	6.84
287.201	6.91
287.572	7.08
287.944	7.05
288.316	7.12
288.688	7.19
289.06	7.27
289.431	7.39
289.803	7.51
290.175	7.55
290.546	7.53
290.918	7.47
291.289	7.69
291.661	7.76
292.032	7.79
292.403	7.78
292.775	7.99
293.146	8
293.517	7.95
293.889	8.07
294.26	8.17
294.631	8.19
295.002	8.25
295.373	8.31
295.744	8.41
296.115	8.54
296.486	8.46
296.857	8.51
297.228	8.4
297.599	8.36
297.97	8.61
298.34	8.71
298.711	8.88
299.082	8.9
299.452	8.83
299.823	9
300.194	9.25
300.564	9.34
300.935	9.39
301.305	9.36
301.676	9.45
302.046	9.54
302.416	9.74
302.787	9.84
303.157	9.98
303.527	10.19
303.897	10.15
304.267	10.49
304.637	10.55
305.008	10.69
305.378	10.82
305.748	10.58
306.117	10.63
306.487	10.67
306.857	10.83
307.227	11.13
307.597	11.05
307.967	11.05
308.336	11.19
308.706	11.48
309.076	11.59
309.445	11.74
309.815	11.75
310.184	11.84
310.554	11.87
310.923	11.84
311.293	11.84
311.662	11.92
312.031	11.88
312.401	11.75
312.77	11.86
313.139	11.96
313.508	12.16
313.877	12.38
314.246	12.41
314.616	12.55
314.985	12.51
315.353	12.74
315.722	12.89
316.091	12.82
316.46	12.8
316.829	12.94
317.198	12.88
317.567	13.09
317.935	13.19
318.304	13.35
318.672	13.55
319.041	13.63
319.41	13.69
319.778	13.78
320.147	14.1
320.515	14.22
320.883	14.25
321.252	14.18
321.62	14.08
321.988	14.07
322.357	14.14
322.725	14.34
323.093	14.38
323.461	14.42
323.829	14.42
324.197	14.44
324.565	14.62
324.933	14.72
325.301	14.58
325.669	14.62
326.037	14.68
326.405	14.61
326.772	14.69
327.14	14.79
327.508	14.89
327.875	14.87
328.243	14.87
328.61	14.93
328.978	15.12
329.346	15.19
329.713	15.4
330.08	15.46
330.448	15.39
330.815	15.41
331.182	15.43
331.55	15.66
331.917	15.71
332.284	15.77
332.651	15.76
333.018	15.96
333.385	16
333.752	15.96
334.119	16.06
334.486	16.03
334.853	16.13
335.22	16.07
335.587	16.12
335.954	16.17
336.32	16.18
336.687	16.15
337.054	16.26
337.42	16.28
337.787	16.23
338.153	16.42
338.52	16.5
338.886	16.64
339.253	16.48
339.619	16.59
339.986	16.44
340.352	16.63
340.718	16.62
341.084	16.71
341.451	16.79
341.817	16.84
342.183	16.82
342.549	16.67
342.915	16.76
343.281	16.75
343.647	16.89
344.013	16.97
344.379	16.97
344.745	16.89
345.11	16.84
345.476	16.79
345.842	16.65
346.208	16.57
346.573	16.4
346.939	16.51
347.304	16.47
347.67	16.49
348.035	16.41
348.401	16.49
348.766	16.36
349.132	16.39
349.497	16.48
349.862	16.52
350.228	16.53
350.593	16.43
350.958	16.45
351.323	16.35
351.688	16.39
352.053	16.4
352.418	16.42
352.783	16.35
353.148	16.34
353.513	16.4
353.878	16.39
354.243	16.39
354.608	16.39
354.972	16.42
355.337	16.47
355.702	16.39
356.066	16.21
356.431	16.22
356.795	16.14
357.16	16.04
357.524	16.06
357.889	16.16
358.253	16.14
358.618	16.13
358.982	16.05
359.346	16.05
359.71	16
360.075	16.06
360.439	16.13
360.803	16.13
361.167	16.08
361.531	16.08
361.895	16.08
362.259	16.07
362.623	16.06
362.987	16.03
363.351	15.94
363.714	15.9
364.078	15.9
364.442	15.93
364.806	15.95
365.169	15.9
365.533	15.8
365.896	15.84
366.26	15.73
366.623	15.63
366.987	15.51
367.35	15.52
367.714	15.44
368.077	15.3
368.44	15.26
368.803	15.14
369.167	14.96
369.53	14.88
369.893	14.74
370.256	14.57
370.619	14.41
370.982	14.45
371.345	14.42
371.708	14.33
372.071	14.18
372.434	13.96
372.797	13.91
373.159	13.82
373.522	13.75
373.885	13.76
374.247	13.72
374.61	13.6
374.973	13.49
375.335	13.41
375.698	13.31
376.06	13.34
376.423	13.32
376.785	13.34
377.147	13.29
377.51	13.3
377.872	13.31
378.234	13.3
378.596	13.19
378.958	13.16
379.321	13.14
379.683	13.15
380.045	13.13
380.407	13.06
380.769	12.96
381.13	12.88
381.492	12.86
381.854	12.82
382.216	12.84
382.578	12.82
382.939	12.76
383.301	12.66
383.663	12.52
384.024	12.38
384.386	12.32
384.747	12.2
385.109	12.08
385.47	11.99
385.832	11.93
386.193	11.94
386.554	11.86
386.916	11.81
387.277	11.7
387.638	11.61
387.999	11.52
388.36	11.52
388.721	11.43
389.082	11.3
389.443	11.24
389.804	11.12
390.165	11.02
390.526	10.92
390.887	10.88
391.248	10.82
391.609	10.79
391.969	10.7
392.33	10.65
392.691	10.59
393.051	10.56
393.412	10.51
393.772	10.41
394.133	10.32
394.493	10.21
394.854	10.12
395.214	10.07
395.574	10
395.935	9.9
396.295	9.8
396.655	9.74
397.015	9.65
397.376	9.58
397.736	9.51
398.096	9.43
398.456	9.38
398.816	9.29
399.176	9.21
399.535	9.14
399.895	9.03
400.255	8.97
400.615	8.87
400.975	8.84
401.334	8.76
401.694	8.69
402.054	8.65
402.413	8.6
402.773	8.58
403.132	8.54
403.492	8.53
403.851	8.52
404.211	8.49
404.57	8.51
404.929	8.44
405.288	8.44
405.648	8.43
406.007	8.39
406.366	8.37
406.725	8.34
407.084	8.32
407.443	8.31
407.802	8.3
408.161	8.28
408.52	8.19
408.879	8.2
409.238	8.19
409.596	8.16
409.955	8.13
410.314	8.09
410.673	8.06
411.031	8.02
411.39	8
411.748	7.92
412.107	7.84
412.465	7.83
412.824	7.77
413.182	7.72
413.54	7.7
413.899	7.65
414.257	7.63
414.615	7.57
414.974	7.54
415.332	7.5
415.69	7.43
416.048	7.4
416.406	7.32
416.764	7.29
417.122	7.24
417.48	7.2
417.838	7.17
418.195	7.13
418.553	7.09
418.911	7.06
419.269	7.04
419.626	7.03
419.984	7.01
420.342	7
420.699	6.98
421.057	6.95
421.414	6.93
421.772	6.93
422.129	6.91
422.486	6.9
422.844	6.87
423.201	6.88
423.558	6.87
423.915	6.86
424.273	6.84
424.63	6.85
424.987	6.84
425.344	6.82
425.701	6.81
426.058	6.79
426.415	6.77
426.772	6.74
427.128	6.76
427.485	6.73
427.842	6.71
428.199	6.68
428.555	6.67
428.912	6.68
429.269	6.64
429.625	6.63
429.982	6.6
430.338	6.58
430.695	6.54
431.051	6.5
431.407	6.49
431.764	6.47
432.12	6.44
432.476	6.44
432.832	6.46
433.189	6.43
433.545	6.42
433.901	6.41
434.257	6.42
434.613	6.38
434.969	6.37
435.325	6.37
435.681	6.39
436.036	6.39
436.392	6.38
436.748	6.39
437.104	6.38
437.459	6.36
437.815	6.38
438.171	6.36
438.526	6.38
438.882	6.38
439.237	6.37
439.593	6.38
439.948	6.38
440.304	6.36
440.659	6.37
441.014	6.34
441.369	6.33
441.725	6.33
442.08	6.31
442.435	6.3
442.79	6.26
443.145	6.21
443.5	6.17
443.855	6.14
444.21	6.11
444.565	6.09
444.92	6.09
445.275	6.08
445.629	6.06
445.984	6.04
446.339	6.03
446.693	6.02
447.048	5.98
447.403	5.96
447.757	5.97
448.112	5.94
448.466	5.95
448.82	5.94
449.175	5.89
449.529	5.88
449.883	5.85
450.238	5.86
450.592	5.87
450.946	5.87
451.3	5.87
451.654	5.88
452.008	5.87
452.362	5.86
452.716	5.85
453.07	5.84
453.424	5.84
453.778	5.83
454.132	5.81
454.486	5.82
454.839	5.79
455.193	5.77
455.547	5.78
455.9	5.77
456.254	5.77
456.607	5.79
456.961	5.79
457.314	5.84
457.668	5.82
458.021	5.82
458.375	5.82
458.728	5.83
459.081	5.82
459.434	5.83
459.787	5.83
460.141	5.83
460.494	5.83
460.847	5.84
461.2	5.86
461.553	5.86
461.906	5.87
462.259	5.89
462.611	5.89
462.964	5.9
463.317	5.94
463.67	5.94
464.022	5.97
464.375	5.98
464.728	5.96
465.08	5.99
465.433	6.01
465.785	6
466.138	6.02
466.49	6.04
466.843	6.07
467.195	6.11
467.547	6.11
467.899	6.11
468.252	6.13
468.604	6.14
468.956	6.16
469.308	6.16
469.66	6.18
470.012	6.19
470.364	6.2
470.716	6.22
471.068	6.24
471.42	6.28
471.772	6.28
472.123	6.31
472.475	6.33
472.827	6.32
473.178	6.35
473.53	6.36
473.882	6.34
474.233	6.3
474.585	6.25
474.936	6.27
475.288	6.29
475.639	6.31
475.99	6.3
476.342	6.32
476.693	6.32
477.044	6.3
477.395	6.31
477.746	6.27
478.097	6.24
478.448	6.24
478.8	6.2
479.15	6.18
479.501	6.16
479.852	6.14
480.203	6.13
480.554	6.13
480.905	6.12
481.255	6.13
481.606	6.13
481.957	6.15
482.307	6.13
482.658	6.12
483.009	6.12
483.359	6.12
483.709	6.12
484.06	6.12
484.41	6.13
484.761	6.15
485.111	6.16
485.461	6.17
485.811	6.17
486.162	6.18
486.512	6.19
486.862	6.21
487.212	6.22
487.562	6.22
487.912	6.24
488.262	6.25
488.612	6.26
488.961	6.28
489.311	6.29
489.661	6.31
490.011	6.33
490.36	6.34
490.71	6.35
491.06	6.36
491.409	6.37
491.759	6.38
492.108	6.37
492.458	6.38
492.807	6.39
493.157	6.42
493.506	6.43
493.855	6.44
494.204	6.46
494.554	6.51
494.903	6.54
495.252	6.57
495.601	6.62
495.95	6.67
496.299	6.69
496.648	6.73
496.997	6.78
497.346	6.84
497.695	6.9
498.043	6.97
498.392	7.02
498.741	7.09
499.09	7.17
499.438	7.23
499.787	7.31
500.135	7.36
500.484	7.42
500.832	7.49
501.181	7.57
501.529	7.65
501.878	7.72
502.226	7.81
502.574	7.88
502.923	7.95
503.271	8.03
503.619	8.12
503.967	8.18
504.315	8.25
504.663	8.31
505.011	8.38
505.359	8.41
505.707	8.49
506.055	8.56
506.403	8.63
506.751	8.73
507.098	8.81
507.446	8.94
507.794	9.04
508.141	9.13
508.489	9.23
508.837	9.3
509.184	9.37
509.531	9.45
509.879	9.55
510.226	9.63
510.574	9.69
510.921	9.77
511.268	9.89
511.616	10
511.963	10.1
512.31	10.21
512.657	10.32
513.004	10.41
513.351	10.53
513.698	10.66
514.045	10.74
514.392	10.83
514.739	10.92
515.086	11.05
515.432	11.16
515.779	11.28
516.126	11.42
516.473	11.53
516.819	11.67
517.166	11.78
517.512	11.91
517.859	12.03
518.205	12.15
518.552	12.24
518.898	12.35
519.245	12.46
519.591	12.55
519.937	12.68
520.283	12.8
520.629	12.94
520.976	13.06
521.322	13.19
521.668	13.34
522.014	13.48
522.36	13.62
522.706	13.79
523.052	13.95
523.398	14.1
523.743	14.28
524.089	14.42
524.435	14.57
524.781	14.73
525.126	14.9
525.472	15.04
525.817	15.18
526.163	15.28
526.509	15.37
526.854	15.47
527.199	15.59
527.545	15.71
527.89	15.81
528.235	15.92
528.581	16.04
528.926	16.17
529.271	16.29
529.616	16.41
529.961	16.53
530.306	16.62
530.651	16.74
530.996	16.89
531.341	17.04
531.686	17.22
532.031	17.37
532.376	17.51
532.721	17.68
533.065	17.82
533.41	18.01
533.755	18.23
534.099	18.44
534.444	18.64
534.788	18.8
535.133	18.96
535.477	19.14
535.822	19.33
536.166	19.53
536.51	19.74
536.855	19.94
537.199	20.15
537.543	20.41
537.887	20.65
538.231	20.87
538.576	21.07
538.92	21.25
539.264	21.42
539.608	21.62
539.951	21.78
540.295	22.01
540.639	22.18
540.983	22.35
541.327	22.54
541.671	22.67
542.014	22.86
542.358	23.02
542.701	23.18
543.045	23.33
543.389	23.5
543.732	23.68
544.075	23.88
544.419	24.1
544.762	24.29
545.105	24.51
545.449	24.71
545.792	24.95
546.135	25.2
546.478	25.46
546.821	25.72
547.165	25.99
547.508	26.22
547.851	26.49
548.194	26.72
548.536	26.94
548.879	27.23
549.222	27.53
549.565	27.79
549.908	28.09
550.25	28.35
550.593	28.65
550.936	28.97
551.278	29.21
551.621	29.4
551.963	29.7
552.306	29.93
552.648	30.22
552.991	30.5
553.333	30.78
553.675	31.09
554.017	31.33
554.36	31.64
554.702	31.88
555.044	32.18
555.386	32.46
555.728	32.76
556.07	33.05
556.412	33.28
556.754	33.65
557.096	33.9
557.438	34.16
557.78	34.43
558.121	34.68
558.463	34.98
558.805	35.31
559.147	35.57
559.488	35.85
559.83	36.19
560.171	36.5
560.513	36.77
560.854	37
561.196	37.33
561.537	37.62
561.878	37.97
562.22	38.28
562.561	38.55
562.902	38.88
563.243	39.14
563.584	39.39
563.925	39.67
564.266	40.02
564.607	40.35
564.948	40.6
565.289	40.8
565.63	41.04
565.971	41.33
566.312	41.62
566.653	41.89
566.993	42.09
567.334	42.38
567.675	42.67
568.015	42.95
568.356	43.22
568.696	43.43
569.037	43.65
569.377	43.87
569.718	44.18
570.058	44.42
570.398	44.61
570.739	44.91
571.079	45.09
571.419	45.31
571.759	45.57
572.099	45.85
572.439	46.13
572.779	46.46
573.119	46.65
573.459	46.88
573.799	47.12
574.139	47.34
574.479	47.54
574.819	47.78
575.158	48.01
575.498	48.21
575.838	48.47
576.177	48.71
576.517	48.95
576.856	49.11
577.196	49.31
577.535	49.64
577.875	49.91
578.214	50.18
578.553	50.38
578.893	50.69
579.232	50.9
579.571	51.13
579.91	51.22
580.25	51.49
580.589	51.66
580.928	51.81
581.267	52.06
581.606	52.25
581.945	52.42
582.283	52.63
582.622	52.83
582.961	53.09
583.3	53.31
583.639	53.53
583.977	53.8
584.316	54.06
584.654	54.26
584.993	54.4
585.332	54.6
585.67	54.83
586.008	54.89
586.347	55.01
586.685	55.13
587.024	55.37
587.362	55.54
587.7	55.78
588.038	55.98
588.376	56.09
588.715	56.26
589.053	56.4
589.391	56.57
589.729	56.79
590.067	56.92
590.404	57.12
590.742	57.22
591.08	57.3
591.418	57.36
591.756	57.44
592.093	57.55
592.431	57.6
592.769	57.69
593.106	57.75
593.444	57.9
593.781	58.02
594.119	58.04
594.456	58.18
594.793	58.25
595.131	58.3
595.468	58.47
595.805	58.55
596.143	58.63
596.48	58.66
596.817	58.72
597.154	58.74
597.491	58.79
597.828	58.85
598.165	58.95
598.502	59.08
598.839	59.22
599.176	59.27
599.512	59.43
599.849	59.57
600.186	59.74
600.523	59.81
600.859	59.91
601.196	60.07
601.532	60.16
601.869	60.22
602.205	60.35
602.542	60.4
602.878	60.57
603.215	60.72
603.551	60.83
603.887	60.86
604.223	60.91
604.56	61.01
604.896	61.06
605.232	61.15
605.568	61.2
605.904	61.19
606.24	61.32
606.576	61.44
606.912	61.38
607.248	61.45
607.583	61.61
607.919	61.76
608.255	61.82
608.591	61.89
608.926	62.01
609.262	62.09
609.597	62.17
609.933	62.08
610.268	62.04
610.604	62.12
610.939	62.23
611.275	62.3
611.61	62.28
611.945	62.31
612.281	62.33
612.616	62.35
612.951	62.32
613.286	62.34
613.621	62.32
613.956	62.42
614.291	62.43
614.626	62.45
614.961	62.43
615.296	62.41
615.631	62.4
615.966	62.44
616.3	62.48
616.635	62.47
616.97	62.54
617.304	62.64
617.639	62.72
617.973	62.72
618.308	62.82
618.642	63.03
618.977	63.19
619.311	63.21
619.646	63.28
619.98	63.45
620.314	63.45
620.648	63.47
620.983	63.51
621.317	63.61
621.651	63.55
621.985	63.63
622.319	63.8
622.653	63.85
622.987	63.88
623.321	63.9
623.655	63.92
623.988	64.07
624.322	64.18
624.656	64.21
624.99	64.13
625.323	64.11
625.657	64.03
625.99	64.02
626.324	64.16
626.657	64.13
626.991	64.13
627.324	64.25
627.658	64.37
627.991	64.41
628.324	64.45
628.657	64.59
628.991	64.62
629.324	64.6
629.657	64.64
629.99	64.63
630.323	64.78
630.656	64.93
630.989	64.85
631.322	64.84
631.655	64.75
631.987	64.91
632.32	65.05
632.653	65.05
632.986	65.07
633.318	64.96
633.651	65.11
633.984	65.29
634.316	65.31
634.649	65.3
634.981	65.37
635.313	65.42
635.646	65.4
635.978	65.44
636.31	65.47
636.643	65.46
636.975	65.5
637.307	65.44
637.639	65.37
637.971	65.43
638.303	65.4
638.635	65.58
638.967	65.5
639.299	65.38
639.631	65.49
639.963	65.61
640.295	65.68
640.626	65.58
640.958	65.5
641.29	65.6
641.621	65.64
641.953	65.55
642.285	65.52
642.616	65.57
642.948	65.52
643.279	65.6
643.61	65.75
643.942	65.81
644.273	65.88
644.604	65.96
644.936	66.07
645.267	66.22
645.598	66.15
645.929	66.33
646.26	66.34
646.591	66.28
646.922	66.21
647.253	66.29
647.584	66.37
647.915	66.24
648.245	66.09
648.576	66.11
648.907	66.27
649.238	66.29
649.568	66.2
649.899	66.21
650.229	66.28
650.56	66.14
650.89	66.18
651.221	66.18
651.551	66.19
651.882	66.2
652.212	66.11
652.542	66.2
652.872	66.12
653.203	66.16
653.533	66.27
653.863	66.35
654.193	66.24
654.523	66.36
654.853	66.49
655.183	66.55
655.513	66.53
655.843	66.51
656.172	66.55
656.502	66.57
656.832	66.54
657.162	66.43
657.491	66.42
657.821	66.39
658.15	66.3
658.48	66.29
658.809	66.41
659.139	66.49
659.468	66.44
659.798	66.52
660.127	66.52
660.456	66.41
660.785	66.45
661.115	66.5
661.444	66.44
661.773	66.47
662.102	66.49
662.431	66.49
662.76	66.54
663.089	66.51
663.418	66.57
663.747	66.68
664.076	66.65
664.404	66.75
664.733	66.83
665.062	66.95
665.39	66.92
665.719	66.79
666.048	66.76
666.376	66.82
666.705	66.87
667.033	66.98
667.362	66.98
667.69	67.03
668.018	67.11
668.347	67.17
668.675	67.27
669.003	67.32
669.331	67.36
669.659	67.38
669.987	67.36
670.315	67.39
670.643	67.55
670.971	67.82
671.299	67.72
671.627	67.63
671.955	67.6
672.283	67.58
672.61	67.43
672.938	67.46
673.266	67.49
673.593	67.53
673.921	67.47
674.249	67.6
674.576	67.58
674.904	67.42
675.231	67.3
675.558	67.27
675.886	67.29
676.213	67.25
676.54	67.2
676.867	67.34
677.195	67.38
677.522	67.22
677.849	67.04
678.176	67.15
678.503	67.04
678.83	66.96
679.157	67
679.484	67.17
679.81	67.08
680.137	67.11
680.464	67.03
680.791	67.09
681.117	67.03
681.444	66.98
681.771	67.01
682.097	67.08
682.424	67
682.75	66.94
683.077	66.88
683.403	66.85
683.729	66.78
684.056	66.73
684.382	66.82
684.708	66.88
685.034	66.83
685.36	67.03
685.686	67.14
686.012	67.18
686.339	67
686.664	67.03
686.99	66.98
687.316	66.94
687.642	66.91
687.968	66.88
688.294	66.75
688.619	66.89
688.945	66.83
689.271	66.94
689.596	67
689.922	66.95
690.247	66.9
690.573	66.8
690.898	66.75
691.224	66.65
691.549	66.58
691.874	66.74
692.2	66.67
692.525	66.72
692.85	66.68
693.175	66.85
693.5	66.85
693.825	66.84
694.15	66.97
694.475	66.89
694.8	66.89
695.125	67.11
695.45	66.97
695.775	67.16
696.099	67.08
696.424	67.15
696.749	67.24
697.073	67.41
697.398	67.53
697.723	67.57
698.047	67.62
698.372	67.82
698.696	67.75
699.02	67.79
699.345	67.92
699.669	67.88
699.993	67.83
700.318	67.84
700.642	67.81
700.966	67.65
701.29	67.81
701.614	67.87
701.938	67.89
702.262	67.97
702.586	67.81
702.91	67.81
703.234	67.72
703.557	67.66
703.881	67.55
704.205	67.66
704.529	67.86
704.852	67.74
705.176	67.58
705.499	67.68
705.823	67.6
706.146	67.36
706.47	67.61
706.793	67.78
707.117	67.81
707.44	67.73
707.763	68.09
708.086	68.14
708.409	68.18
708.733	68.14
709.056	68.04
709.379	68.15
709.702	68.12
710.025	68.17
710.348	68.47
710.671	68.56
710.993	68.4
711.316	68.19
711.639	68.13
711.962	68.16
712.284	68.14
712.607	68.31
712.93	68.21
713.252	68.08
713.575	68.11
713.897	68.12
714.22	68.42
714.542	68.3
714.864	68.34
715.187	68.43
715.509	68.26
715.831	68.28
716.153	68.37
716.475	68.59
716.798	68.68
717.12	68.56
717.442	68.56
717.764	68.7
718.085	68.99
718.407	69.21
718.729	69.16
719.051	69.02
719.373	69.12
719.695	69.25
720.016	69.25
720.338	69.09
720.659	68.9
720.981	68.72
721.302	68.82
721.624	68.46
721.945	68.25
722.267	68.22
722.588	68.56
722.909	68.48
723.231	68.05
723.552	67.97
723.873	67.89
724.194	67.68
724.515	67.37
724.836	67.14
725.157	67.29
725.478	67.48
725.799	67.47
726.12	67.26
726.441	67.61
726.762	67.65
727.083	67.81
727.403	68.16
727.724	68.15
728.045	67.91
728.365	68.17
728.686	68.27
729.006	68.55
729.327	68.47
729.647	68.37
729.967	68.8
730.288	68.74
730.608	68.64
730.928	68.78
731.249	68.88
731.569	69.07
731.889	69.02
732.209	68.77
732.529	68.95
732.849	68.96
733.169	68.6
733.489	68.61
733.809	68.53
734.129	68.14
734.448	68.3
734.768	68.44
735.088	68.43
735.408	68.48
735.727	68.45
736.047	68.43
736.366	68.56
736.686	68.2
737.005	68.25
737.325	68.56
737.644	68.51
737.963	68.58
738.283	68.46
738.602	68.41
738.921	68.76
739.24	68.71
739.56	68.57
739.879	68.74
740.198	68.87
740.517	68.8
740.836	69.27
741.155	69.14
741.473	69.1
741.792	69.09
742.111	68.69
742.43	68.43
742.748	68.35
743.067	68.19
743.386	68.26
743.704	68.54
744.023	68.6
744.341	68.93
744.66	69.05
744.978	68.93
745.297	68.77
745.615	68.73
745.933	68.67
746.252	68.83
746.57	68.86
746.888	68.8
747.206	68.94
747.524	69.02
747.842	69.23
748.16	69.34
748.478	69.3
748.796	69.84
749.114	69.99
749.432	70.02
749.749	69.8
750.067	70.03
750.385	69.94
750.703	69.7
751.02	69.37
751.338	69.54
751.655	69.52
751.973	69.65
752.29	69.72
752.608	69.58
752.925	69.82
753.242	69.77
753.56	69.34
753.877	69.43
754.194	69.6
754.511	69.57
754.828	69.41
755.145	69.52
755.462	69.53
755.779	69.56
756.096	69.81
756.413	69.99
756.73	70.12
757.047	69.94
757.364	69.68
757.68	69.99
757.997	69.37
758.314	69.88
758.63	69.71
758.947	69.39
759.264	69.21
759.58	69.36
759.896	69.01
760.213	69.22
760.529	69.15
760.846	68.91
761.162	68.82
761.478	68.77
761.794	68.63
762.11	68.14
762.426	68.2
762.743	68.08
763.059	68
763.375	67.93
763.69	67.8
764.006	68.19
764.322	68.28
764.638	68.52
764.954	68.48
765.27	68.55
765.585	68.76
765.901	68.89
766.216	68.41
766.532	68.61
766.848	68.77
767.163	68.6
767.478	68.75
767.794	68.78
768.109	68.89
768.424	68.98
768.74	69.3
769.055	69.54
769.37	69.23
769.685	69.59
770	69.73
770.315	70.19
770.63	70.08
770.945	70.18
771.26	70.39
771.575	70.25
771.89	70.29
772.205	70.36
772.52	70.58
772.834	71.21
773.149	71.54
773.464	71.31
773.778	71.44
774.093	70.95
774.407	70.88
774.722	70.95
775.036	70.95
775.351	71.13
775.665	70.99
775.979	71.42
776.293	71.32
776.608	70.91
776.922	70.33
777.236	70.53
777.55	70.01
777.864	69.77
778.178	69.74
778.492	69.68
778.806	69.16
779.12	69.27
779.434	69.06
779.747	69.23
780.061	69.24
780.375	69.26
780.689	69.83
781.002	69.22
781.316	69.05
781.629	69.39
781.943	69.24
782.256	69.15
782.57	69.15
782.883	69.13
783.196	69.9
783.51	69.85
783.823	69.38
784.136	69.4
784.449	69.67
784.762	69.49
785.075	69.92
785.388	70.3
785.701	70.39
786.014	70.22
786.327	69.84
786.64	70.18
786.953	70
787.266	69.6
787.578	69.81
787.891	69.96
788.204	69.34
788.516	69.67
788.829	69.58
789.141	69.77
789.454	70.74
789.766	70.32
790.079	70.6
790.391	70.72
790.703	70.74
791.016	71.46
791.328	71.37
791.64	71.39
791.952	71.46
792.264	70.81
792.576	70.95
792.888	70.47
793.2	70.37
793.512	70.56
793.824	70.99
794.136	71.19
794.448	71.73
794.76	71.54
795.071	71.45
795.383	71.4
795.695	71.11
796.006	69.97
796.318	69.52
796.629	69.57
796.941	69.16
797.252	69.27
797.564	68.41
797.875	68.52
798.186	68.32
798.497	67.67
798.809	67.47
799.12	67.02
799.431	67.1
799.742	67.16
800.053	67.09
800.364	66.47
800.675	66.39
800.986	65.84
801.297	66.41
801.608	66.15
801.918	66.43
802.229	66.08
802.54	66.2
802.851	65.9
803.161	65.87
803.472	66.65
803.782	66.3
804.093	65.94
804.403	65.87
804.714	65.87
805.024	66.05
805.334	66.55
805.645	67.02
805.955	67.4
806.265	67.31
806.575	67.47
806.885	67.74
807.195	67.94
807.505	68.59
807.815	68.35
808.125	68.86
808.435	69.29
808.745	70.2
809.055	70.01
809.365	70.9
809.674	71.42
809.984	71.33
810.294	71.24
810.603	71.35
810.913	71.5
811.222	71.94
811.532	72.15
811.841	71.94
812.151	72.37
812.46	72.66
812.769	72.99
813.079	72.99
813.388	73.13
813.697	73.67
814.006	73.2
814.315	73.09
814.624	72.6
814.933	71.2
815.242	71.33
815.551	72.54
815.86	72.76
816.169	71.73
816.478	71
816.786	71.74
817.095	71.74
817.404	72.09
817.712	71.63
818.021	72.01
818.33	71.57
818.638	71.82
818.947	70.54
819.255	69.62
819.563	69.36
819.872	69.11
820.18	68.68
820.488	68.6
820.796	69.1
821.105	68.87
821.413	69.13
821.721	68.94
822.029	68.63
822.337	68.31
822.645	68.48
822.953	68.52
823.26	68.25
823.568	68.17
823.876	68.11
824.184	67.87
824.491	67.78
824.799	67.75
825.107	67.53
825.414	67.47
825.722	67.55
826.029	67.51
826.337	67.33
826.644	67.3
826.951	67.25
827.259	66.97
827.566	67.3
827.873	67.37
828.18	67.27
828.488	67.06
828.795	67.18
829.102	66.78
829.409	66.9
829.716	67.28
830.023	67.43
830.329	66.93
830.636	67.47
830.943	67.31
831.25	67.76
831.557	67.9
831.863	68.9
832.17	68.61
832.476	68.51
832.783	69.27
833.089	68.97
833.396	68.8
833.702	68.45
834.009	68.12
834.315	68.13
834.621	68.23
834.928	69.09
835.234	69.15
835.54	69.75
835.846	69.66
836.152	69.35
836.458	69.83
836.764	70.42
837.07	70.22
837.376	69.87
837.682	70.08
837.988	69.78
838.293	69.3
838.599	70.73
838.905	71.24
839.211	70.97
839.516	71.2
839.822	71.68
840.127	72.08
840.433	71.8
840.738	70.77
841.044	70.5
841.349	69.76
841.654	69.09
841.959	69.32
842.265	69.2
842.57	69.25
842.875	69.06
843.18	68.24
843.485	67.91
843.79	69.6
844.095	69.01
844.4	69.2
844.705	70.72
845.01	70.67
845.315	70.14
845.619	70.53
845.924	71.36
846.229	70.24
846.533	70.72
846.838	71.27
847.142	72.21
847.447	73.24
847.751	72.24
848.056	73.29
848.36	71.57
848.664	71.57
848.969	72.61
849.273	71.66
849.577	72.73
849.881	72.74
850.185	72.13
850.489	72.39
850.794	71.57
851.097	70.92
851.401	68.68
851.705	70.02
852.009	68.83
852.313	69.99
852.617	72.95
852.92	72.87
853.224	71.89
853.528	70.35
853.831	69.18
854.135	70.06
854.438	70.75
854.742	71.37
855.045	69.72
855.349	68.55
855.652	69.94
855.955	70.49
856.259	71.5
856.562	72.76
856.865	69.57
857.168	70.95
857.471	71.46
857.774	72.36
858.077	70.64
858.38	70.69
858.683	68.66
858.986	67.56
859.289	69.86
859.592	68.92
859.894	72.16
860.197	72.97
860.5	72.79
860.802	74.62
861.105	77.57
861.407	76.75
861.71	76.81
862.012	74.84
862.315	75.72
862.617	76.15
862.919	74.17
863.222	79.27
863.524	78.8
863.826	78.28
864.128	78.68
864.43	79.53
864.732	81.67
865.034	84.4
865.336	83.6
865.638	81.2
865.94	81.77
866.242	76.8
866.544	78.92
866.846	81.26
867.147	80.72
867.449	80.11
867.751	81.3
868.052	81.51
868.354	81.42
868.655	77.92
868.957	76.76
869.258	77.15
869.56	74.01
869.861	72.54
870.162	72.03
870.463	70.98
870.765	72.01
871.066	69.7
871.367	70.02
871.668	71.14
871.969	70.77
872.27	71.2
872.571	77.07
872.872	74.33
873.173	71.01
873.473	69.19
873.774	69.63
874.075	71.82
874.376	69.3
874.676	68.22
874.977	69.64
875.277	70.27
875.578	70.38
875.878	71.84
876.179	73.68
876.479	72.19
876.78	72.45
877.08	71.78
877.38	73.07
877.68	71.23
877.981	69.83
878.281	69.81
878.581	70.86
