Data from BA53509_Reflection_00013.txt Node
Date: Tue Nov 19 11:46:47 EST 2019
User: vgr7
Spectrometer: USB2G7710
Scans to average: 3
Trigger mode: 4
Integration Time (sec): 2.000000E-2
Electric dark correction enabled: true
Boxcar width: 10
XAxis mode: Wavelengths
Number of Pixels in Spectrum: 2048
>>>>>Begin Spectral Data<<<<<
177.721	165.09
178.105	-150
178.488	-6.87
178.871	257.14
179.254	-100
179.636	-150
180.019	-125.81
180.402	300
180.785	158.82
181.168	-50.94
181.55	7.8
181.933	41.18
182.316	18.13
182.698	58.08
183.081	116.95
183.463	75.61
183.846	-90.48
184.228	-282.98
184.611	1645.45
184.993	-134.78
185.376	-111.18
185.758	-193.58
186.14	-417.65
186.522	-212.1
186.904	-722.22
187.287	-975.47
187.669	-576.19
188.051	-326.23
188.433	-370.59
188.815	-333.16
189.197	-195.95
189.579	-183.02
189.961	-154.36
190.342	-116.4
190.724	-92.89
191.106	-92.67
191.488	-93.64
191.869	-82.57
192.251	-103.55
192.633	-76.63
193.014	-74.09
193.396	-69.32
193.777	-40.6
194.159	-30.97
194.54	-38.58
194.922	-35.9
195.303	-38.92
195.684	-41.29
196.065	-50.19
196.447	-53.43
196.828	-41.01
197.209	-53.74
197.59	-48.05
197.971	-72.88
198.352	-78.25
198.733	-129.97
199.114	-123.23
199.495	-109.78
199.876	-102.4
200.257	-101.51
200.638	-156.72
201.018	-186.12
201.399	-166.85
201.78	-180.45
202.16	-296.08
202.541	-501.4
202.922	-303.59
203.302	-201.2
203.683	-176.36
204.063	-225.71
204.444	-121.29
204.824	-145.33
205.204	-110.27
205.585	-89.13
205.965	-61.49
206.345	-50.3
206.725	-41.83
207.106	-28.11
207.486	-41.28
207.866	-63.56
208.246	-33.21
208.626	-47.79
209.006	-53.56
209.386	-61.58
209.766	-75.22
210.145	-51.29
210.525	-31.74
210.905	-33.17
211.285	-20.84
211.664	-13.1
212.044	-5.83
212.424	-17.17
212.803	-20.54
213.183	-30.97
213.562	-19.33
213.942	-30.73
214.321	-41.14
214.701	-71.78
215.08	-80.11
215.459	-49.9
215.838	-46.3
216.218	-56.31
216.597	-27.96
216.976	-17.15
217.355	-19.4
217.734	-35.4
218.113	-34.65
218.492	-49.9
218.871	-57.58
219.25	-77.1
219.629	-91.37
220.008	-95.21
220.387	-84.07
220.766	-84.53
221.144	-70.81
221.523	-89.27
221.902	-73.68
222.28	-67.7
222.659	-33.88
223.037	-43.76
223.416	-50.25
223.794	-44.28
224.173	-50.43
224.551	-47.78
224.929	-57.55
225.308	-53.51
225.686	-50.12
226.064	-46.57
226.442	-40.95
226.821	-37.99
227.199	-42.61
227.577	-39.46
227.955	-34.24
228.333	-30.96
228.711	-29.1
229.089	-25.79
229.467	-20.63
229.845	-22.73
230.222	-20
230.6	-19.1
230.978	-13.76
231.356	-14.47
231.733	-16.03
232.111	-11.87
232.488	-13.71
232.866	-10.95
233.243	-9.79
233.621	-6.87
233.998	-5.45
234.376	-5.7
234.753	-5.24
235.13	-3.24
235.508	-1.66
235.885	-0.18
236.262	-2.52
236.639	-1.32
237.016	-2.4
237.393	-1.15
237.77	0.5
238.147	1.85
238.524	1.35
238.901	0.51
239.278	1.29
239.655	1.53
240.032	2.45
240.409	2.8
240.785	3.01
241.162	3.08
241.539	3.08
241.915	3.17
242.292	3.56
242.668	4.22
243.045	4.22
243.421	4.43
243.798	4.74
244.174	5.69
244.551	5.8
244.927	6.13
245.303	5.69
245.679	5.6
246.056	5.25
246.432	5.2
246.808	5.58
247.184	5.62
247.56	5.47
247.936	5.49
248.312	5.57
248.688	5.72
249.064	5.78
249.44	5.71
249.815	5.79
250.191	5.75
250.567	5.86
250.943	6.01
251.318	5.72
251.694	5.41
252.069	5.17
252.445	5.15
252.82	5.24
253.196	5.34
253.571	5.45
253.947	5.45
254.322	5.46
254.697	5.29
255.073	5.43
255.448	5.92
255.823	5.99
256.198	6.23
256.573	6.22
256.948	6.01
257.323	6.36
257.698	6.31
258.073	6.08
258.448	5.86
258.823	5.74
259.198	6.01
259.573	5.99
259.948	6.11
260.322	6.09
260.697	5.97
261.072	5.97
261.446	5.98
261.821	6.02
262.195	6.02
262.57	6.02
262.944	5.99
263.319	5.86
263.693	5.84
264.067	5.8
264.442	5.6
264.816	5.61
265.19	5.43
265.564	5.35
265.938	5.61
266.313	5.57
266.687	5.8
267.061	5.72
267.435	5.6
267.809	5.4
268.183	5.3
268.556	5.13
268.93	5.31
269.304	5.22
269.678	5.27
270.051	5.38
270.425	5.46
270.799	5.25
271.172	5.35
271.546	5.38
271.919	5.34
272.293	5.58
272.666	5.71
273.04	5.67
273.413	5.62
273.787	5.48
274.16	5.36
274.533	5.29
274.906	5.23
275.279	5.26
275.653	5.19
276.026	5.18
276.399	5.36
276.772	5.42
277.145	5.49
277.518	5.42
277.891	5.29
278.263	5.26
278.636	5.57
279.009	5.5
279.382	5.37
279.755	5.42
280.127	5.39
280.5	5.41
280.872	5.5
281.245	5.45
281.617	5.54
281.99	5.86
282.362	5.74
282.735	5.75
283.107	5.8
283.479	5.96
283.852	6.15
284.224	6.21
284.596	6.15
284.968	6.26
285.34	6.24
285.713	6.48
286.085	6.5
286.457	6.41
286.829	6.49
287.201	6.68
287.572	6.63
287.944	6.55
288.316	6.54
288.688	6.67
289.06	6.77
289.431	6.9
289.803	6.85
290.175	7.05
290.546	7.09
290.918	7.09
291.289	7.03
291.661	7.03
292.032	6.83
292.403	6.83
292.775	6.85
293.146	7.01
293.517	6.9
293.889	6.9
294.26	7.07
294.631	7.27
295.002	7.26
295.373	7.38
295.744	7.51
296.115	7.73
296.486	7.61
296.857	7.81
297.228	7.73
297.599	7.75
297.97	7.76
298.34	7.91
298.711	8.08
299.082	8.22
299.452	8.25
299.823	8.47
300.194	8.56
300.564	8.58
300.935	8.72
301.305	8.91
301.676	8.87
302.046	8.94
302.416	9.04
302.787	9.14
303.157	9.11
303.527	9.23
303.897	8.99
304.267	9.14
304.637	9.1
305.008	9.29
305.378	9.31
305.748	9.4
306.117	9.35
306.487	9.48
306.857	9.57
307.227	9.92
307.597	10.13
307.967	10.39
308.336	10.5
308.706	10.49
309.076	10.55
309.445	10.76
309.815	10.82
310.184	10.73
310.554	10.78
310.923	10.91
311.293	10.91
311.662	11.1
312.031	11.2
312.401	11.1
312.77	11.17
313.139	11.39
313.508	11.38
313.877	11.42
314.246	11.42
314.616	11.6
314.985	11.45
315.353	11.45
315.722	11.48
316.091	11.66
316.46	11.64
316.829	11.84
317.198	11.86
317.567	12.04
317.935	12.3
318.304	12.29
318.672	12.48
319.041	12.39
319.41	12.47
319.778	12.62
320.147	12.92
320.515	12.94
320.883	13.13
321.252	13.46
321.62	13.54
321.988	13.69
322.357	13.57
322.725	13.55
323.093	13.48
323.461	13.36
323.829	13.17
324.197	13.29
324.565	13.18
324.933	13.31
325.301	13.15
325.669	13.04
326.037	13.11
326.405	13.07
326.772	13.26
327.14	13.22
327.508	13.2
327.875	13.24
328.243	13.15
328.61	13
328.978	12.88
329.346	12.96
329.713	13.04
330.08	13.07
330.448	13.13
330.815	13.26
331.182	13.35
331.55	13.58
331.917	13.56
332.284	13.69
332.651	13.67
333.018	13.53
333.385	13.64
333.752	13.7
334.119	13.75
334.486	13.78
334.853	13.92
335.22	13.86
335.587	13.87
335.954	13.97
336.32	13.99
336.687	14.03
337.054	14.2
337.42	14.15
337.787	14.36
338.153	14.48
338.52	14.61
338.886	14.68
339.253	14.62
339.619	14.8
339.986	14.75
340.352	14.76
340.718	15.07
341.084	15.08
341.451	15.07
341.817	15.1
342.183	15.18
342.549	15.13
342.915	15.17
343.281	15.25
343.647	15.43
344.013	15.45
344.379	15.54
344.745	15.61
345.11	15.55
345.476	15.53
345.842	15.47
346.208	15.37
346.573	15.37
346.939	15.43
347.304	15.38
347.67	15.47
348.035	15.54
348.401	15.65
348.766	15.51
349.132	15.58
349.497	15.54
349.862	15.41
350.228	15.52
350.593	15.53
350.958	15.49
351.323	15.39
351.688	15.4
352.053	15.34
352.418	15.11
352.783	15.18
353.148	15.13
353.513	15.11
353.878	15.18
354.243	15.11
354.608	15.16
354.972	15.06
355.337	14.98
355.702	14.95
356.066	14.81
356.431	14.81
356.795	14.77
357.16	14.81
357.524	14.81
357.889	14.76
358.253	14.71
358.618	14.66
358.982	14.61
359.346	14.56
359.71	14.51
360.075	14.56
360.439	14.48
360.803	14.5
361.167	14.41
361.531	14.3
361.895	14.28
362.259	14.26
362.623	14.28
362.987	14.23
363.351	14.16
363.714	14.11
364.078	14.2
364.442	14.06
364.806	13.99
365.169	14
365.533	13.99
365.896	13.98
366.26	13.93
366.623	13.91
366.987	13.91
367.35	13.85
367.714	13.81
368.077	13.82
368.44	13.62
368.803	13.59
369.167	13.5
369.53	13.39
369.893	13.32
370.256	13.16
370.619	12.97
370.982	12.93
371.345	12.84
371.708	12.75
372.071	12.66
372.434	12.59
372.797	12.52
373.159	12.38
373.522	12.38
373.885	12.39
374.247	12.29
374.61	12.15
374.973	12.13
375.335	12.06
375.698	11.9
376.06	11.99
376.423	11.9
376.785	11.94
377.147	11.87
377.51	11.77
377.872	11.78
378.234	11.82
378.596	11.74
378.958	11.68
379.321	11.63
379.683	11.64
380.045	11.6
380.407	11.58
380.769	11.54
381.13	11.44
381.492	11.31
381.854	11.24
382.216	11.24
382.578	11.18
382.939	11.1
383.301	11.11
383.663	10.94
384.024	10.99
384.386	10.9
384.747	10.89
385.109	10.81
385.47	10.78
385.832	10.71
386.193	10.7
386.554	10.6
386.916	10.53
387.277	10.45
387.638	10.37
387.999	10.27
388.36	10.17
388.721	10.12
389.082	10.07
389.443	10.03
389.804	9.93
390.165	9.84
390.526	9.8
390.887	9.72
391.248	9.73
391.609	9.63
391.969	9.56
392.33	9.5
392.691	9.46
393.051	9.35
393.412	9.3
393.772	9.23
394.133	9.19
394.493	9.1
394.854	9.06
395.214	9.02
395.574	8.95
395.935	8.89
396.295	8.83
396.655	8.75
397.015	8.71
397.376	8.65
397.736	8.6
398.096	8.51
398.456	8.42
398.816	8.35
399.176	8.28
399.535	8.21
399.895	8.15
400.255	8.16
400.615	8.15
400.975	8.12
401.334	8.06
401.694	8.03
402.054	8.02
402.413	8.02
402.773	7.97
403.132	7.93
403.492	7.91
403.851	7.85
404.211	7.84
404.57	7.79
404.929	7.76
405.288	7.77
405.648	7.74
406.007	7.73
406.366	7.73
406.725	7.71
407.084	7.69
407.443	7.68
407.802	7.58
408.161	7.55
408.52	7.51
408.879	7.49
409.238	7.44
409.596	7.39
409.955	7.32
410.314	7.31
410.673	7.31
411.031	7.26
411.39	7.23
411.748	7.19
412.107	7.16
412.465	7.13
412.824	7.07
413.182	7.03
413.54	6.99
413.899	6.93
414.257	6.88
414.615	6.85
414.974	6.82
415.332	6.8
415.69	6.77
416.048	6.73
416.406	6.7
416.764	6.68
417.122	6.66
417.48	6.66
417.838	6.62
418.195	6.58
418.553	6.56
418.911	6.54
419.269	6.52
419.626	6.5
419.984	6.46
420.342	6.42
420.699	6.4
421.057	6.4
421.414	6.38
421.772	6.36
422.129	6.35
422.486	6.33
422.844	6.29
423.201	6.27
423.558	6.25
423.915	6.25
424.273	6.24
424.63	6.23
424.987	6.21
425.344	6.19
425.701	6.16
426.058	6.15
426.415	6.14
426.772	6.13
427.128	6.11
427.485	6.1
427.842	6.1
428.199	6.09
428.555	6.06
428.912	6.06
429.269	6.03
429.625	6.01
429.982	5.98
430.338	5.99
430.695	5.97
431.051	5.97
431.407	5.94
431.764	5.93
432.12	5.9
432.476	5.89
432.832	5.87
433.189	5.89
433.545	5.89
433.901	5.87
434.257	5.85
434.613	5.84
434.969	5.83
435.325	5.84
435.681	5.84
436.036	5.84
436.392	5.82
436.748	5.84
437.104	5.8
437.459	5.8
437.815	5.81
438.171	5.82
438.526	5.81
438.882	5.8
439.237	5.79
439.593	5.8
439.948	5.79
440.304	5.78
440.659	5.77
441.014	5.76
441.369	5.76
441.725	5.76
442.08	5.75
442.435	5.74
442.79	5.73
443.145	5.72
443.5	5.7
443.855	5.67
444.21	5.66
444.565	5.67
444.92	5.65
445.275	5.63
445.629	5.61
445.984	5.59
446.339	5.58
446.693	5.57
447.048	5.53
447.403	5.52
447.757	5.51
448.112	5.52
448.466	5.5
448.82	5.49
449.175	5.47
449.529	5.48
449.883	5.47
450.238	5.45
450.592	5.44
450.946	5.41
451.3	5.42
451.654	5.38
452.008	5.38
452.362	5.37
452.716	5.36
453.07	5.36
453.424	5.35
453.778	5.33
454.132	5.32
454.486	5.32
454.839	5.31
455.193	5.33
455.547	5.3
455.9	5.3
456.254	5.31
456.607	5.32
456.961	5.3
457.314	5.29
457.668	5.3
458.021	5.29
458.375	5.3
458.728	5.31
459.081	5.32
459.434	5.32
459.787	5.33
460.141	5.35
460.494	5.36
460.847	5.36
461.2	5.36
461.553	5.38
461.906	5.4
462.259	5.41
462.611	5.41
462.964	5.43
463.317	5.44
463.67	5.45
464.022	5.46
464.375	5.46
464.728	5.47
465.08	5.49
465.433	5.51
465.785	5.53
466.138	5.54
466.49	5.56
466.843	5.58
467.195	5.6
467.547	5.6
467.899	5.61
468.252	5.63
468.604	5.65
468.956	5.66
469.308	5.68
469.66	5.68
470.012	5.7
470.364	5.7
470.716	5.7
471.068	5.71
471.42	5.75
471.772	5.8
472.123	5.84
472.475	5.84
472.827	5.86
473.178	5.85
473.53	5.83
473.882	5.82
474.233	5.83
474.585	5.82
474.936	5.81
475.288	5.81
475.639	5.84
475.99	5.82
476.342	5.84
476.693	5.83
477.044	5.84
477.395	5.81
477.746	5.79
478.097	5.79
478.448	5.75
478.8	5.72
479.15	5.68
479.501	5.67
479.852	5.66
480.203	5.65
480.554	5.68
480.905	5.7
481.255	5.69
481.606	5.69
481.957	5.69
482.307	5.69
482.658	5.7
483.009	5.68
483.359	5.69
483.709	5.67
484.06	5.66
484.41	5.66
484.761	5.67
485.111	5.68
485.461	5.69
485.811	5.7
486.162	5.71
486.512	5.73
486.862	5.73
487.212	5.74
487.562	5.75
487.912	5.75
488.262	5.74
488.612	5.76
488.961	5.77
489.311	5.79
489.661	5.81
490.011	5.81
490.36	5.83
490.71	5.84
491.06	5.87
491.409	5.89
491.759	5.91
492.108	5.93
492.458	5.94
492.807	5.96
493.157	6
493.506	6.02
493.855	6.01
494.204	6.04
494.554	6.08
494.903	6.12
495.252	6.15
495.601	6.2
495.95	6.24
496.299	6.27
496.648	6.3
496.997	6.33
497.346	6.37
497.695	6.43
498.043	6.48
498.392	6.53
498.741	6.58
499.09	6.64
499.438	6.72
499.787	6.76
500.135	6.79
500.484	6.84
500.832	6.9
501.181	6.99
501.529	7.08
501.878	7.15
502.226	7.22
502.574	7.28
502.923	7.32
503.271	7.38
503.619	7.46
503.967	7.54
504.315	7.63
504.663	7.69
505.011	7.77
505.359	7.83
505.707	7.92
506.055	7.98
506.403	8.05
506.751	8.1
507.098	8.22
507.446	8.31
507.794	8.39
508.141	8.46
508.489	8.55
508.837	8.61
509.184	8.7
509.531	8.79
509.879	8.87
510.226	8.97
510.574	9.09
510.921	9.18
511.268	9.28
511.616	9.38
511.963	9.49
512.31	9.6
512.657	9.71
513.004	9.77
513.351	9.89
513.698	10.01
514.045	10.11
514.392	10.21
514.739	10.35
515.086	10.45
515.432	10.55
515.779	10.66
516.126	10.78
516.473	10.89
516.819	10.99
517.166	11.11
517.512	11.23
517.859	11.31
518.205	11.41
518.552	11.51
518.898	11.61
519.245	11.71
519.591	11.8
519.937	11.87
520.283	12.03
520.629	12.14
520.976	12.28
521.322	12.43
521.668	12.61
522.014	12.72
522.36	12.87
522.706	13.04
523.052	13.21
523.398	13.36
523.743	13.54
524.089	13.7
524.435	13.84
524.781	14.01
525.126	14.17
525.472	14.31
525.817	14.43
526.163	14.55
526.509	14.67
526.854	14.8
527.199	14.92
527.545	15.03
527.89	15.14
528.235	15.25
528.581	15.37
528.926	15.46
529.271	15.58
529.616	15.69
529.961	15.8
530.306	15.92
530.651	16.05
530.996	16.17
531.341	16.32
531.686	16.48
532.031	16.61
532.376	16.74
532.721	16.89
533.065	17.06
533.41	17.21
533.755	17.39
534.099	17.55
534.444	17.73
534.788	17.87
535.133	18.03
535.477	18.19
535.822	18.36
536.166	18.56
536.51	18.72
536.855	18.94
537.199	19.14
537.543	19.38
537.887	19.59
538.231	19.81
538.576	20.02
538.92	20.23
539.264	20.39
539.608	20.62
539.951	20.82
540.295	20.99
540.639	21.15
540.983	21.3
541.327	21.48
541.671	21.63
542.014	21.82
542.358	21.99
542.701	22.14
543.045	22.3
543.389	22.48
543.732	22.67
544.075	22.83
544.419	23.03
544.762	23.18
545.105	23.37
545.449	23.57
545.792	23.79
546.135	24.02
546.478	24.28
546.821	24.53
547.165	24.79
547.508	25.03
547.851	25.32
548.194	25.57
548.536	25.81
548.879	26.1
549.222	26.37
549.565	26.65
549.908	26.91
550.25	27.18
550.593	27.46
550.936	27.77
551.278	28.07
551.621	28.31
551.963	28.62
552.306	28.89
552.648	29.15
552.991	29.42
553.333	29.72
553.675	30.05
554.017	30.26
554.36	30.52
554.702	30.78
555.044	31.04
555.386	31.29
555.728	31.6
556.07	31.87
556.412	32.12
556.754	32.38
557.096	32.73
557.438	33
557.78	33.26
558.121	33.53
558.463	33.82
558.805	34.12
559.147	34.42
559.488	34.72
559.83	35.03
560.171	35.31
560.513	35.54
560.854	35.81
561.196	36.15
561.537	36.37
561.878	36.71
562.22	36.98
562.561	37.3
562.902	37.58
563.243	37.77
563.584	38.08
563.925	38.35
564.266	38.59
564.607	38.88
564.948	39.05
565.289	39.29
565.63	39.51
565.971	39.74
566.312	39.97
566.653	40.24
566.993	40.45
567.334	40.68
567.675	40.93
568.015	41.14
568.356	41.35
568.696	41.61
569.037	41.78
569.377	42.07
569.718	42.29
570.058	42.5
570.398	42.8
570.739	43.01
571.079	43.23
571.419	43.5
571.759	43.72
572.099	44.01
572.439	44.24
572.779	44.5
573.119	44.76
573.459	44.96
573.799	45.15
574.139	45.38
574.479	45.62
574.819	45.9
575.158	46.16
575.498	46.39
575.838	46.62
576.177	46.94
576.517	47.12
576.856	47.37
577.196	47.63
577.535	47.87
577.875	48.15
578.214	48.46
578.553	48.63
578.893	48.94
579.232	49.21
579.571	49.49
579.91	49.73
580.25	49.99
580.589	50.22
580.928	50.45
581.267	50.74
581.606	50.97
581.945	51.12
582.283	51.29
582.622	51.51
582.961	51.79
583.3	51.93
583.639	52.21
583.977	52.4
584.316	52.56
584.654	52.77
584.993	52.93
585.332	53.01
585.67	53.2
586.008	53.28
586.347	53.48
586.685	53.67
587.024	53.83
587.362	53.99
587.7	54.21
588.038	54.3
588.376	54.35
588.715	54.42
589.053	54.54
589.391	54.72
589.729	54.91
590.067	55.02
590.404	55.19
590.742	55.24
591.08	55.36
591.418	55.43
591.756	55.5
592.093	55.64
592.431	55.73
592.769	55.81
593.106	55.85
593.444	55.9
593.781	55.92
594.119	56.01
594.456	56.09
594.793	56.11
595.131	56.19
595.468	56.38
595.805	56.51
596.143	56.65
596.48	56.75
596.817	56.84
597.154	57.01
597.491	57.05
597.828	57.18
598.165	57.25
598.502	57.4
598.839	57.64
599.176	57.68
599.512	57.79
599.849	57.91
600.186	57.98
600.523	58.08
600.859	58.23
601.196	58.31
601.532	58.33
601.869	58.47
602.205	58.59
602.542	58.67
602.878	58.76
603.215	58.86
603.551	58.9
603.887	58.93
604.223	58.89
604.56	58.98
604.896	59.01
605.232	59.03
605.568	59.08
605.904	59
606.24	59.03
606.576	59.12
606.912	59.13
607.248	59.31
607.583	59.39
607.919	59.45
608.255	59.55
608.591	59.66
608.926	59.78
609.262	59.91
609.597	59.94
609.933	59.98
610.268	59.96
610.604	60.01
610.939	60.14
611.275	60.18
611.61	60.29
611.945	60.36
612.281	60.41
612.616	60.46
612.951	60.55
613.286	60.65
613.621	60.73
613.956	60.88
614.291	60.86
614.626	60.98
614.961	61.06
615.296	61.07
615.631	61.17
615.966	61.18
616.3	61.23
616.635	61.26
616.97	61.34
617.304	61.45
617.639	61.53
617.973	61.56
618.308	61.71
618.642	61.8
618.977	61.87
619.311	61.95
619.646	62.03
619.98	62.14
620.314	62.16
620.648	62.09
620.983	62.18
621.317	62.23
621.651	62.16
621.985	62.12
622.319	62.18
622.653	62.21
622.987	62.23
623.321	62.25
623.655	62.18
623.988	62.19
624.322	62.1
624.656	62.06
624.99	61.93
625.323	61.87
625.657	61.76
625.99	61.76
626.324	61.87
626.657	61.93
626.991	61.92
627.324	61.98
627.658	62.16
627.991	62.13
628.324	62.2
628.657	62.28
628.991	62.38
629.324	62.36
629.657	62.4
629.99	62.52
630.323	62.65
630.656	62.78
630.989	62.78
631.322	62.86
631.655	62.97
631.987	63.12
632.32	63.25
632.653	63.32
632.986	63.32
633.318	63.26
633.651	63.23
633.984	63.32
634.316	63.42
634.649	63.35
634.981	63.42
635.313	63.46
635.646	63.5
635.978	63.46
636.31	63.56
636.643	63.64
636.975	63.54
637.307	63.54
637.639	63.63
637.971	63.68
638.303	63.77
638.635	63.84
638.967	63.7
639.299	63.66
639.631	63.82
639.963	63.86
640.295	64.01
640.626	64.03
640.958	64.04
641.29	64.01
641.621	64.04
641.953	64.06
642.285	64.04
642.616	64.03
642.948	64.07
643.279	64.11
643.61	64.19
643.942	64.24
644.273	64.19
644.604	64.18
644.936	64.28
645.267	64.34
645.598	64.35
645.929	64.56
646.26	64.58
646.591	64.46
646.922	64.55
647.253	64.5
647.584	64.4
647.915	64.36
648.245	64.36
648.576	64.42
648.907	64.45
649.238	64.49
649.568	64.44
649.899	64.46
650.229	64.43
650.56	64.36
650.89	64.38
651.221	64.36
651.551	64.36
651.882	64.29
652.212	64.24
652.542	64.23
652.872	64.23
653.203	64.06
653.533	64.11
653.863	64.12
654.193	64.07
654.523	64.18
654.853	64.21
655.183	64.2
655.513	64.1
655.843	64
656.172	63.86
656.502	63.9
656.832	63.85
657.162	63.84
657.491	63.75
657.821	63.76
658.15	63.72
658.48	63.62
658.809	63.82
659.139	63.83
659.468	63.8
659.798	63.85
660.127	63.96
660.456	63.92
660.785	63.88
661.115	63.99
661.444	63.98
661.773	63.88
662.102	63.9
662.431	63.99
662.76	64.02
663.089	64.23
663.418	64.37
663.747	64.38
664.076	64.3
664.404	64.27
664.733	64.33
665.062	64.35
665.39	64.37
665.719	64.33
666.048	64.37
666.376	64.44
666.705	64.34
667.033	64.47
667.362	64.4
667.69	64.4
668.018	64.3
668.347	64.34
668.675	64.4
669.003	64.35
669.331	64.45
669.659	64.48
669.987	64.46
670.315	64.28
670.643	64.37
670.971	64.68
671.299	64.79
671.627	64.64
671.955	64.7
672.283	64.84
672.61	64.75
672.938	64.82
673.266	64.85
673.593	64.89
673.921	64.79
674.249	64.96
674.576	65
674.904	64.98
675.231	64.94
675.558	64.95
675.886	65
676.213	64.98
676.54	64.9
676.867	64.91
677.195	65.06
677.522	64.9
677.849	64.63
678.176	64.57
678.503	64.65
678.83	64.45
679.157	64.32
679.484	64.4
679.81	64.32
680.137	64.29
680.464	64.27
680.791	64.26
681.117	64.14
681.444	64.1
681.771	64.21
682.097	64.2
682.424	64.18
682.75	64.13
683.077	63.96
683.403	63.96
683.729	63.88
684.056	63.82
684.382	63.92
684.708	63.86
685.034	63.8
685.36	63.76
685.686	63.83
686.012	63.82
686.339	63.71
686.664	63.54
686.99	63.48
687.316	63.3
687.642	63.32
687.968	63.38
688.294	63.4
688.619	63.33
688.945	63.28
689.271	63.22
689.596	63.25
689.922	63.17
690.247	63.2
690.573	63.13
690.898	62.93
691.224	62.94
691.549	63.05
691.874	63.32
692.2	63.25
692.525	63.44
692.85	63.58
693.175	63.58
693.5	63.68
693.825	63.65
694.15	63.81
694.475	63.68
694.8	63.65
695.125	63.64
695.45	63.67
695.775	63.65
696.099	63.82
696.424	63.79
696.749	63.9
697.073	63.94
697.398	64.04
697.723	64.28
698.047	64.35
698.372	64.27
698.696	64.1
699.02	64.17
699.345	64.07
699.669	64
699.993	63.93
700.318	63.96
700.642	64.02
700.966	64.15
701.29	64.33
701.614	64.36
701.938	64.4
702.262	64.47
702.586	64.63
702.91	64.51
703.234	64.67
703.557	64.88
703.881	64.95
704.205	65.22
704.529	65.12
704.852	64.92
705.176	65.03
705.499	65.12
705.823	65.07
706.146	65.17
706.47	65.34
706.793	65.28
707.117	65.25
707.44	65.04
707.763	64.94
708.086	64.77
708.409	64.76
708.733	64.81
709.056	64.69
709.379	64.83
709.702	64.63
710.025	64.47
710.348	64.25
710.671	64.26
710.993	63.95
711.316	63.97
711.639	63.98
711.962	64.13
712.284	64.16
712.607	64.31
712.93	64.19
713.252	64.13
713.575	64.22
713.897	64.28
714.22	64.41
714.542	64.26
714.864	64.23
715.187	64.15
715.509	63.85
715.831	63.92
716.153	63.61
716.475	64
716.798	64.02
717.12	64
717.442	63.76
717.764	63.97
718.085	63.98
718.407	64.19
718.729	64.12
719.051	63.96
719.373	63.98
719.695	64.18
720.016	63.99
720.338	63.93
720.659	63.79
720.981	63.89
721.302	64.03
721.624	64.17
721.945	64.46
722.267	64.84
722.588	65.01
722.909	65.23
723.231	64.99
723.552	64.92
723.873	65.06
724.194	65.17
724.515	64.69
724.836	64.52
725.157	64.55
725.478	64.38
725.799	64.48
726.12	64.32
726.441	64.18
726.762	64.25
727.083	64.57
727.403	64.5
727.724	64.21
728.045	64.09
728.365	63.93
728.686	63.67
729.006	63.61
729.327	63.55
729.647	63.38
729.967	63.47
730.288	63.57
730.608	63.55
730.928	63.74
731.249	63.83
731.569	64.02
731.889	63.85
732.209	63.92
732.529	63.95
732.849	64
733.169	64.01
733.489	64.12
733.809	63.8
734.129	63.87
734.448	63.9
734.768	64.04
735.088	64.08
735.408	63.83
735.727	63.86
736.047	63.72
736.366	63.77
736.686	63.88
737.005	63.93
737.325	63.93
737.644	63.8
737.963	63.85
738.283	63.75
738.602	63.87
738.921	64.07
739.24	64.25
739.56	64.2
739.879	64.25
740.198	64.19
740.517	64.29
740.836	64.34
741.155	64.55
741.473	64.73
741.792	64.8
742.111	65.31
742.43	65.17
742.748	64.93
743.067	65.2
743.386	64.81
743.704	64.85
744.023	65.15
744.341	64.98
744.66	65.08
744.978	64.99
745.297	64.93
745.615	64.84
745.933	64.48
746.252	64.8
746.57	64.71
746.888	64.62
747.206	64.83
747.524	65.05
747.842	65.07
748.16	65.01
748.478	65.05
748.796	64.92
749.114	65.15
749.432	65.24
749.749	64.56
750.067	64.93
750.385	64.62
750.703	64.26
751.02	64.56
751.338	64.64
751.655	65.15
751.973	64.92
752.29	65.16
752.608	64.96
752.925	64.65
753.242	64.81
753.56	64.78
753.877	64.45
754.194	64.23
754.511	64.13
754.828	63.73
755.145	63.82
755.462	63.61
755.779	63.45
756.096	63.37
756.413	63.75
756.73	63.54
757.047	63.37
757.364	63.17
757.68	63.24
757.997	62.82
758.314	62.54
758.63	62.64
758.947	62.24
759.264	62.47
759.58	62.38
759.896	61.96
760.213	62.25
760.529	62.46
760.846	62.31
761.162	62.24
761.478	62.38
761.794	62.25
762.11	62.19
762.426	62.04
762.743	62.15
763.059	61.98
763.375	61.81
763.69	61.94
764.006	62.34
764.322	62.16
764.638	62.47
764.954	62.41
765.27	62.38
765.585	62.51
765.901	62.39
766.216	62.41
766.532	62.56
766.848	62.35
767.163	62.42
767.478	62.86
767.794	63.1
768.109	63.32
768.424	63.52
768.74	63.88
769.055	63.92
769.37	63.81
769.685	63.97
770	64.46
770.315	64.91
770.63	64.48
770.945	64.4
771.26	64.57
771.575	64.37
771.89	64.21
772.205	64.4
772.52	64.74
772.834	65.03
773.149	65.42
773.464	65.33
773.778	65.33
774.093	65.39
774.407	65.34
774.722	65.26
775.036	65.13
775.351	65.41
775.665	65.65
775.979	66.07
776.293	66.64
776.608	66.59
776.922	66.53
777.236	66.7
777.55	66.72
777.864	66.68
778.178	66.96
778.492	67.57
778.806	67.09
779.12	66.89
779.434	67.08
779.747	66.78
780.061	66.73
780.375	66.7
780.689	66.45
781.002	66.09
781.316	65.79
781.629	65.48
781.943	65.3
782.256	65.77
782.57	65.43
782.883	65.55
783.196	65.68
783.51	65.53
783.823	65.49
784.136	65.38
784.449	65.1
784.762	64.76
785.075	64.61
785.388	64.82
785.701	64.86
786.014	64.59
786.327	64.47
786.64	64.9
786.953	65.37
787.266	64.94
787.578	64.69
787.891	64.69
788.204	65.19
788.516	65.3
788.829	64.06
789.141	64.25
789.454	64.31
789.766	63.71
790.079	63.74
790.391	63.9
790.703	64.13
791.016	64.09
791.328	64.44
791.64	64.27
791.952	64.18
792.264	64.05
792.576	64.16
792.888	64.84
793.2	64.76
793.512	63.78
793.824	64.23
794.136	64.92
794.448	65.25
794.76	64.37
795.071	63.86
795.383	64.3
795.695	64.22
796.006	63.66
796.318	63.98
796.629	64.04
796.941	63.69
797.252	63.64
797.564	63.41
797.875	63.68
798.186	63.35
798.497	63.01
798.809	62.71
799.12	62.43
799.431	61.49
799.742	61.07
800.053	61.35
800.364	61.18
800.675	60.7
800.986	60.38
801.297	60.73
801.608	60.94
801.918	61.3
802.229	61.21
802.54	60.86
802.851	60.3
803.161	60.2
803.472	60.67
803.782	60.61
804.093	60.83
804.403	60.63
804.714	60.61
805.024	61.03
805.334	61.34
805.645	61.3
805.955	61.78
806.265	62.1
806.575	62.5
806.885	62.77
807.195	62.87
807.505	63.61
807.815	63.63
808.125	62.99
808.435	63.33
808.745	63.83
809.055	63.74
809.365	64.41
809.674	64.62
809.984	64.77
810.294	64.24
810.603	64.35
810.913	63.79
811.222	64.31
811.532	63.81
811.841	63.58
812.151	63.27
812.46	63.59
812.769	64.44
813.079	63.92
813.388	63.72
813.697	64.16
814.006	63.44
814.315	63.18
814.624	63.03
814.933	62.36
815.242	61.85
815.551	62.09
815.86	62.93
816.169	62.26
816.478	62.43
816.786	62.97
817.095	62.8
817.404	63.28
817.712	63.47
818.021	63.13
818.33	63.13
818.638	63.48
818.947	62.38
819.255	62.29
819.563	61.53
819.872	60.92
820.18	60.52
820.488	60.32
820.796	60.56
821.105	60.81
821.413	60.87
821.721	61.2
822.029	60.99
822.337	60.67
822.645	60.76
822.953	60.68
823.26	60.57
823.568	60.63
823.876	60.76
824.184	60.63
824.491	60.67
824.799	60.47
825.107	60.37
825.414	60.46
825.722	60.31
826.029	60.55
826.337	60.54
826.644	60.6
826.951	60.84
827.259	60.8
827.566	60.68
827.873	60.7
828.18	60.1
828.488	60.1
828.795	60.32
829.102	60.29
829.409	60.06
829.716	60.2
830.023	59.91
830.329	59.29
830.636	59.41
830.943	59
831.25	59.29
831.557	59.36
831.863	59.46
832.17	59.09
832.476	58.94
832.783	59.27
833.089	59.16
833.396	58.79
833.702	58.68
834.009	59.43
834.315	59.72
834.621	60.18
834.928	60.76
835.234	61.08
835.54	61.06
835.846	61.21
836.152	61.38
836.458	61.74
836.764	62.2
837.07	61.49
837.376	62.18
837.682	62.1
837.988	61.48
838.293	60.85
838.599	61.19
838.905	60.7
839.211	60.94
839.516	60.87
839.822	60.99
840.127	60.97
840.433	59.76
840.738	59.32
841.044	59.75
841.349	59.29
841.654	57.73
841.959	58.75
842.265	57.82
842.57	57.4
842.875	58.46
843.18	57.24
843.485	57.75
843.79	57.56
844.095	57.74
844.4	57.94
844.705	60.15
845.01	61.1
845.315	62.44
845.619	62.81
845.924	63.22
846.229	62.61
846.533	63.26
846.838	61.96
847.142	61.98
847.447	61.36
847.751	61.83
848.056	61.83
848.36	58.25
848.664	59.86
848.969	59.85
849.273	57.04
849.577	58.13
849.881	58.49
850.185	57.82
850.489	58.11
850.794	60.48
851.097	57.81
851.401	56.41
851.705	54.72
852.009	53.01
852.313	54.84
852.617	55.55
852.92	55.9
853.224	57.7
853.528	57.13
853.831	59.5
854.135	58.16
854.438	60.79
854.742	61.99
855.045	59.54
855.349	59.63
855.652	60.73
855.955	62.66
856.259	63.83
856.562	64.38
856.865	62.67
857.168	62.75
857.471	64.87
857.774	67.12
858.077	69.26
858.38	68.5
858.683	66.73
858.986	67.59
859.289	66.66
859.592	66.37
859.894	65.99
860.197	64.28
860.5	67.76
860.802	66.28
861.105	67.04
861.407	68.21
861.71	68.37
862.012	67.66
862.315	66.84
862.617	67.41
862.919	67.22
863.222	69.39
863.524	67.6
863.826	65.39
864.128	65.77
864.43	64.94
864.732	65.58
865.034	65.31
865.336	65.49
865.638	65.09
865.94	67.38
866.242	66.14
866.544	67.02
866.846	63.24
867.147	64.54
867.449	63.91
867.751	62.01
868.052	59.13
868.354	57.73
868.655	57.81
868.957	55.89
869.258	57.32
869.56	54.27
869.861	54.3
870.162	54.82
870.463	51.42
870.765	50.34
871.066	51.41
871.367	53.21
871.668	49.86
871.969	47.24
872.27	45.02
872.571	44.97
872.872	42.1
873.173	41.88
873.473	37.57
873.774	35.81
874.075	39.06
874.376	38.01
874.676	41.15
874.977	41.77
875.277	43.53
875.578	43.03
875.878	45.33
876.179	45.21
876.479	44.91
876.78	44.5
877.08	44.76
877.38	43.21
877.68	39.94
877.981	42.04
878.281	46.28
878.581	46.57
