Data from BA53411_Reflection_00011.txt Node
Date: Tue Nov 19 11:53:52 EST 2019
User: vgr7
Spectrometer: USB2G7710
Scans to average: 3
Trigger mode: 4
Integration Time (sec): 2.000000E-2
Electric dark correction enabled: true
Boxcar width: 10
XAxis mode: Wavelengths
Number of Pixels in Spectrum: 2048
>>>>>Begin Spectral Data<<<<<
177.721	-53.14
178.105	-8.61
178.488	3.02
178.871	12.43
179.254	-13.01
179.636	5.34
180.019	242.28
180.402	66.67
180.785	-74.51
181.168	-0.57
181.55	-6.06
181.933	51.94
182.316	116.43
182.698	71.06
183.081	59.67
183.463	50.9
183.846	28.4
184.228	32.4
184.611	20.18
184.993	131.62
185.376	76.36
185.758	115.01
186.14	128.74
186.522	-1923.81
186.904	-177.78
187.287	12.94
187.669	-51.28
188.051	-21.66
188.433	-32.93
188.815	-27.26
189.197	23.77
189.579	140.08
189.961	327.89
190.342	188.65
190.724	84.59
191.106	822.22
191.488	97.35
191.869	37.63
192.251	6.44
192.633	53.28
193.014	99.17
193.396	86.86
193.777	121.87
194.159	188.11
194.54	141.01
194.922	303.2
195.303	124.64
195.684	643.01
196.065	351.05
196.447	335.45
196.828	287.83
197.209	3748.15
197.59	496.06
197.971	1643.01
198.352	-5325.93
198.733	2325.49
199.114	-330.04
199.495	-210.4
199.876	-158.27
200.257	-100.13
200.638	-66.67
201.018	-120.56
201.399	-163.71
201.78	-150.78
202.16	-2666.67
202.541	-242.91
202.922	-134.91
203.302	-139.93
203.683	266.67
204.063	1066.67
204.444	427.16
204.824	238.1
205.204	198.64
205.585	223.19
205.965	108.96
206.345	-66.67
206.725	311.71
207.106	125.07
207.486	107.25
207.866	152.51
208.246	110.6
208.626	-522.81
209.006	933.33
209.386	-211.24
209.766	-87.72
210.145	-49.91
210.525	2.72
210.905	-5.87
211.285	-33.17
211.664	-18.44
212.044	-7.2
212.424	22.43
212.803	24.01
213.183	91.06
213.562	114.73
213.942	139.59
214.321	69.14
214.701	95.85
215.08	65.49
215.459	56.49
215.838	45.21
216.218	100.88
216.597	136.23
216.976	-14.38
217.355	37.23
217.734	50.29
218.113	95.5
218.492	854.9
218.871	585.19
219.25	320.54
219.629	793.8
220.008	12044.44
220.387	326.98
220.766	144.41
221.144	233.78
221.523	298.08
221.902	410.38
222.28	232.75
222.659	164.58
223.037	177.89
223.416	157.09
223.794	129.79
224.173	145.39
224.551	123.4
224.929	91.52
225.308	74.24
225.686	66.12
226.064	51.59
226.442	35.99
226.821	33.45
227.199	25.54
227.577	20.65
227.955	20.02
228.333	23.07
228.711	24.77
229.089	21.04
229.467	24.6
229.845	18.71
230.222	18.93
230.6	20.78
230.978	20.86
231.356	21.08
231.733	20.09
232.111	17.71
232.488	17.57
232.866	19.2
233.243	18.21
233.621	18.44
233.998	19.9
234.376	18.91
234.753	15.27
235.13	15.85
235.508	14.32
235.885	12.74
236.262	10.47
236.639	10.01
237.016	10.18
237.393	7.01
237.77	8.77
238.147	7.22
238.524	7.52
238.901	6.78
239.278	5.33
239.655	5.08
240.032	6.52
240.409	6.43
240.785	6.01
241.162	6.26
241.539	5.96
241.915	5.58
242.292	5.41
242.668	5.41
243.045	5.6
243.421	5.93
243.798	6.47
244.174	6.84
244.551	7.05
244.927	7.04
245.303	6.98
245.679	6.47
246.056	6.68
246.432	6.65
246.808	6.52
247.184	6.84
247.56	6.86
247.936	6.74
248.312	6.76
248.688	6.82
249.064	6.69
249.44	6.72
249.815	6.86
250.191	6.97
250.567	6.87
250.943	6.69
251.318	6.89
251.694	6.54
252.069	6.42
252.445	6.09
252.82	6.21
253.196	6.32
253.571	6.62
253.947	6.36
254.322	5.92
254.697	6.27
255.073	6.09
255.448	5.85
255.823	5.99
256.198	5.71
256.573	5.69
256.948	5.9
257.323	5.92
257.698	5.72
258.073	5.37
258.448	5.53
258.823	5.53
259.198	5.53
259.573	5.36
259.948	5.43
260.322	5.48
260.697	5.27
261.072	5.32
261.446	5.19
261.821	5.31
262.195	5.5
262.57	5.43
262.944	5.6
263.319	5.64
263.693	5.62
264.067	5.8
264.442	5.72
264.816	5.43
265.19	5.29
265.564	5.43
265.938	5.68
266.313	5.67
266.687	5.68
267.061	5.83
267.435	6.16
267.809	5.87
268.183	5.88
268.556	6.02
268.93	6.06
269.304	6.11
269.678	6.08
270.051	5.97
270.425	5.96
270.799	5.8
271.172	5.66
271.546	5.58
271.919	5.61
272.293	5.65
272.666	5.73
273.04	5.77
273.413	5.74
273.787	5.72
274.16	5.55
274.533	5.7
274.906	5.59
275.279	5.53
275.653	5.75
276.026	5.83
276.399	5.89
276.772	5.92
277.145	6.05
277.518	6.13
277.891	6.24
278.263	6.24
278.636	6.39
279.009	6.71
279.382	6.79
279.755	6.56
280.127	6.53
280.5	6.51
280.872	6.63
281.245	6.64
281.617	6.72
281.99	6.79
282.362	6.56
282.735	6.27
283.107	6.43
283.479	6.32
283.852	6.36
284.224	6.27
284.596	6.11
284.968	6
285.34	5.9
285.713	5.79
286.085	5.81
286.457	5.56
286.829	5.48
287.201	5.44
287.572	5.64
287.944	5.73
288.316	5.78
288.688	5.74
289.06	5.72
289.431	5.69
289.803	5.82
290.175	5.83
290.546	5.89
290.918	5.76
291.289	5.78
291.661	5.78
292.032	5.74
292.403	5.8
292.775	5.77
293.146	5.78
293.517	5.92
293.889	5.9
294.26	6.06
294.631	6.12
295.002	6.12
295.373	6.11
295.744	6.17
296.115	6.2
296.486	6.18
296.857	6.19
297.228	6.29
297.599	6.19
297.97	6.23
298.34	6.42
298.711	6.28
299.082	6.47
299.452	6.42
299.823	6.44
300.194	6.48
300.564	6.41
300.935	6.43
301.305	6.32
301.676	6.41
302.046	6.22
302.416	6.13
302.787	5.97
303.157	5.97
303.527	5.95
303.897	5.87
304.267	5.92
304.637	6.04
305.008	6.02
305.378	6.07
305.748	6.16
306.117	5.97
306.487	6.31
306.857	6.03
307.227	6.21
307.597	6.44
307.967	6.51
308.336	6.67
308.706	6.73
309.076	6.75
309.445	6.82
309.815	6.98
310.184	7.03
310.554	7.15
310.923	6.97
311.293	6.88
311.662	6.96
312.031	6.96
312.401	6.93
312.77	6.94
313.139	7.01
313.508	7.04
313.877	7.2
314.246	7.01
314.616	7.2
314.985	6.96
315.353	6.74
315.722	6.68
316.091	6.69
316.46	6.7
316.829	6.77
317.198	6.63
317.567	6.66
317.935	6.68
318.304	7.01
318.672	7.08
319.041	7.2
319.41	7.29
319.778	7.31
320.147	7.48
320.515	7.5
320.883	7.42
321.252	7.5
321.62	7.52
321.988	7.67
322.357	7.62
322.725	7.66
323.093	7.77
323.461	7.9
323.829	7.92
324.197	7.81
324.565	7.83
324.933	7.84
325.301	7.71
325.669	7.79
326.037	7.54
326.405	7.62
326.772	7.68
327.14	7.55
327.508	7.5
327.875	7.26
328.243	7.36
328.61	7.34
328.978	7.2
329.346	7.22
329.713	7.22
330.08	7.16
330.448	7.17
330.815	7.2
331.182	7.14
331.55	7.18
331.917	7.32
332.284	7.36
332.651	7.45
333.018	7.41
333.385	7.48
333.752	7.48
334.119	7.38
334.486	7.34
334.853	7.31
335.22	7.2
335.587	7.31
335.954	7.26
336.32	7.33
336.687	7.35
337.054	7.3
337.42	7.31
337.787	7.52
338.153	7.57
338.52	7.51
338.886	7.49
339.253	7.39
339.619	7.36
339.986	7.27
340.352	7.18
340.718	7.36
341.084	7.16
341.451	7.28
341.817	7.32
342.183	7.32
342.549	7.58
342.915	7.63
343.281	7.63
343.647	7.58
344.013	7.62
344.379	7.63
344.745	7.72
345.11	7.72
345.476	7.6
345.842	7.62
346.208	7.61
346.573	7.66
346.939	7.74
347.304	7.66
347.67	7.71
348.035	7.81
348.401	7.84
348.766	7.81
349.132	7.77
349.497	7.84
349.862	7.71
350.228	7.58
350.593	7.59
350.958	7.59
351.323	7.68
351.688	7.66
352.053	7.65
352.418	7.6
352.783	7.52
353.148	7.58
353.513	7.58
353.878	7.53
354.243	7.49
354.608	7.47
354.972	7.51
355.337	7.46
355.702	7.37
356.066	7.32
356.431	7.44
356.795	7.42
357.16	7.39
357.524	7.5
357.889	7.42
358.253	7.42
358.618	7.37
358.982	7.29
359.346	7.28
359.71	7.31
360.075	7.32
360.439	7.4
360.803	7.36
361.167	7.35
361.531	7.29
361.895	7.27
362.259	7.23
362.623	7.23
362.987	7.25
363.351	7.25
363.714	7.22
364.078	7.15
364.442	7.13
364.806	7.12
365.169	7.11
365.533	7.12
365.896	7.19
366.26	7.25
366.623	7.27
366.987	7.24
367.35	7.26
367.714	7.16
368.077	7.07
368.44	7.05
368.803	7.07
369.167	7.09
369.53	7.13
369.893	7.21
370.256	7.24
370.619	7.22
370.982	7.19
371.345	7.23
371.708	7.27
372.071	7.17
372.434	7.13
372.797	7.07
373.159	7
373.522	6.97
373.885	6.85
374.247	6.8
374.61	6.86
374.973	6.81
375.335	6.83
375.698	6.77
376.06	6.76
376.423	6.69
376.785	6.73
377.147	6.65
377.51	6.57
377.872	6.48
378.234	6.45
378.596	6.44
378.958	6.38
379.321	6.3
379.683	6.38
380.045	6.37
380.407	6.32
380.769	6.37
381.13	6.29
381.492	6.3
381.854	6.31
382.216	6.26
382.578	6.23
382.939	6.2
383.301	6.18
383.663	6.15
384.024	6.11
384.386	6.06
384.747	6.03
385.109	6
385.47	6.04
385.832	5.99
386.193	5.96
386.554	5.88
386.916	5.88
387.277	5.84
387.638	5.83
387.999	5.83
388.36	5.79
388.721	5.8
389.082	5.84
389.443	5.81
389.804	5.79
390.165	5.78
390.526	5.77
390.887	5.79
391.248	5.79
391.609	5.81
391.969	5.82
392.33	5.78
392.691	5.78
393.051	5.72
393.412	5.75
393.772	5.76
394.133	5.8
394.493	5.79
394.854	5.81
395.214	5.77
395.574	5.76
395.935	5.72
396.295	5.68
396.655	5.62
397.015	5.59
397.376	5.54
397.736	5.49
398.096	5.5
398.456	5.49
398.816	5.45
399.176	5.37
399.535	5.35
399.895	5.38
400.255	5.42
400.615	5.44
400.975	5.43
401.334	5.37
401.694	5.39
402.054	5.42
402.413	5.37
402.773	5.35
403.132	5.36
403.492	5.37
403.851	5.4
404.211	5.39
404.57	5.37
404.929	5.36
405.288	5.37
405.648	5.35
406.007	5.31
406.366	5.29
406.725	5.27
407.084	5.25
407.443	5.22
407.802	5.14
408.161	5.11
408.52	5.09
408.879	5.11
409.238	5.06
409.596	5.02
409.955	5.02
410.314	5.05
410.673	5.04
411.031	5.05
411.39	5.02
411.748	5.06
412.107	5.06
412.465	5.04
412.824	5.04
413.182	5.01
413.54	5.03
413.899	5.02
414.257	5.02
414.615	5.01
414.974	5.02
415.332	5.04
415.69	5.03
416.048	5.03
416.406	4.99
416.764	5
417.122	5.03
417.48	5.02
417.838	5.01
418.195	5.01
418.553	5
418.911	4.99
419.269	4.99
419.626	4.99
419.984	5
420.342	4.99
420.699	5
421.057	4.99
421.414	4.99
421.772	4.99
422.129	5
422.486	5
422.844	4.98
423.201	5
423.558	5.01
423.915	5.03
424.273	5.03
424.63	5.02
424.987	5.01
425.344	5.02
425.701	5
426.058	5.01
426.415	4.99
426.772	4.98
427.128	4.98
427.485	4.98
427.842	4.96
428.199	4.94
428.555	4.91
428.912	4.93
429.269	4.92
429.625	4.92
429.982	4.92
430.338	4.94
430.695	4.91
431.051	4.89
431.407	4.89
431.764	4.88
432.12	4.87
432.476	4.87
432.832	4.88
433.189	4.89
433.545	4.86
433.901	4.87
434.257	4.86
434.613	4.84
434.969	4.83
435.325	4.84
435.681	4.84
436.036	4.84
436.392	4.82
436.748	4.83
437.104	4.81
437.459	4.81
437.815	4.84
438.171	4.83
438.526	4.83
438.882	4.81
439.237	4.81
439.593	4.83
439.948	4.82
440.304	4.79
440.659	4.8
441.014	4.79
441.369	4.8
441.725	4.81
442.08	4.81
442.435	4.82
442.79	4.82
443.145	4.83
443.5	4.84
443.855	4.84
444.21	4.85
444.565	4.86
444.92	4.85
445.275	4.83
445.629	4.83
445.984	4.83
446.339	4.83
446.693	4.83
447.048	4.8
447.403	4.79
447.757	4.79
448.112	4.78
448.466	4.79
448.82	4.78
449.175	4.77
449.529	4.78
449.883	4.78
450.238	4.78
450.592	4.78
450.946	4.81
451.3	4.83
451.654	4.79
452.008	4.78
452.362	4.77
452.716	4.77
453.07	4.76
453.424	4.75
453.778	4.76
454.132	4.74
454.486	4.74
454.839	4.77
455.193	4.77
455.547	4.78
455.9	4.78
456.254	4.8
456.607	4.82
456.961	4.79
457.314	4.77
457.668	4.78
458.021	4.78
458.375	4.77
458.728	4.75
459.081	4.79
459.434	4.78
459.787	4.79
460.141	4.8
460.494	4.81
460.847	4.82
461.2	4.81
461.553	4.82
461.906	4.84
462.259	4.81
462.611	4.82
462.964	4.81
463.317	4.81
463.67	4.82
464.022	4.79
464.375	4.79
464.728	4.82
465.08	4.81
465.433	4.8
465.785	4.78
466.138	4.8
466.49	4.8
466.843	4.84
467.195	4.84
467.547	4.81
467.899	4.81
468.252	4.82
468.604	4.84
468.956	4.9
469.308	4.86
469.66	4.89
470.012	4.9
470.364	4.91
470.716	4.92
471.068	4.9
471.42	4.92
471.772	4.95
472.123	4.95
472.475	4.95
472.827	4.96
473.178	4.96
473.53	4.96
473.882	4.96
474.233	4.92
474.585	4.92
474.936	4.95
475.288	4.96
475.639	4.95
475.99	4.94
476.342	4.89
476.693	4.92
477.044	4.9
477.395	4.88
477.746	4.85
478.097	4.85
478.448	4.86
478.8	4.88
479.15	4.86
479.501	4.86
479.852	4.87
480.203	4.88
480.554	4.89
480.905	4.89
481.255	4.89
481.606	4.9
481.957	4.9
482.307	4.9
482.658	4.89
483.009	4.9
483.359	4.9
483.709	4.9
484.06	4.9
484.41	4.9
484.761	4.91
485.111	4.94
485.461	4.95
485.811	4.95
486.162	4.95
486.512	4.95
486.862	4.95
487.212	4.95
487.562	4.95
487.912	4.94
488.262	4.95
488.612	4.96
488.961	4.96
489.311	4.97
489.661	4.97
490.011	4.98
490.36	4.98
490.71	4.99
491.06	5
491.409	5
491.759	5.01
492.108	5.02
492.458	5.02
492.807	5.03
493.157	5.03
493.506	5.04
493.855	5.04
494.204	5.07
494.554	5.09
494.903	5.09
495.252	5.1
495.601	5.12
495.95	5.13
496.299	5.13
496.648	5.17
496.997	5.18
497.346	5.2
497.695	5.22
498.043	5.26
498.392	5.3
498.741	5.33
499.09	5.36
499.438	5.36
499.787	5.34
500.135	5.37
500.484	5.37
500.832	5.37
501.181	5.41
501.529	5.41
501.878	5.42
502.226	5.48
502.574	5.49
502.923	5.48
503.271	5.5
503.619	5.53
503.967	5.53
504.315	5.57
504.663	5.59
505.011	5.6
505.359	5.58
505.707	5.57
506.055	5.59
506.403	5.59
506.751	5.62
507.098	5.67
507.446	5.65
507.794	5.69
508.141	5.71
508.489	5.74
508.837	5.75
509.184	5.78
509.531	5.78
509.879	5.81
510.226	5.84
510.574	5.89
510.921	5.93
511.268	5.95
511.616	5.97
511.963	5.99
512.31	6.05
512.657	6.1
513.004	6.14
513.351	6.18
513.698	6.24
514.045	6.25
514.392	6.28
514.739	6.35
515.086	6.41
515.432	6.47
515.779	6.5
516.126	6.59
516.473	6.63
516.819	6.68
517.166	6.71
517.512	6.76
517.859	6.79
518.205	6.79
518.552	6.82
518.898	6.85
519.245	6.89
519.591	6.9
519.937	6.95
520.283	7
520.629	7.04
520.976	7.08
521.322	7.16
521.668	7.25
522.014	7.3
522.36	7.35
522.706	7.41
523.052	7.5
523.398	7.56
523.743	7.67
524.089	7.76
524.435	7.85
524.781	7.94
525.126	8
525.472	8.09
525.817	8.16
526.163	8.24
526.509	8.31
526.854	8.37
527.199	8.43
527.545	8.49
527.89	8.55
528.235	8.62
528.581	8.68
528.926	8.73
529.271	8.81
529.616	8.88
529.961	8.94
530.306	9
530.651	9.07
530.996	9.15
531.341	9.23
531.686	9.31
532.031	9.42
532.376	9.52
532.721	9.63
533.065	9.74
533.41	9.84
533.755	9.97
534.099	10.09
534.444	10.21
534.788	10.32
535.133	10.46
535.477	10.57
535.822	10.7
536.166	10.86
536.51	11
536.855	11.14
537.199	11.32
537.543	11.53
537.887	11.7
538.231	11.88
538.576	12.09
538.92	12.25
539.264	12.4
539.608	12.6
539.951	12.77
540.295	12.95
540.639	13.11
540.983	13.25
541.327	13.42
541.671	13.57
542.014	13.72
542.358	13.85
542.701	14.04
543.045	14.19
543.389	14.37
543.732	14.53
544.075	14.74
544.419	14.92
544.762	15.07
545.105	15.27
545.449	15.46
545.792	15.67
546.135	15.92
546.478	16.15
546.821	16.39
547.165	16.61
547.508	16.85
547.851	17.12
548.194	17.33
548.536	17.58
548.879	17.88
549.222	18.16
549.565	18.43
549.908	18.67
550.25	18.94
550.593	19.21
550.936	19.48
551.278	19.73
551.621	20.02
551.963	20.37
552.306	20.66
552.648	20.93
552.991	21.19
553.333	21.43
553.675	21.73
554.017	22
554.36	22.27
554.702	22.51
555.044	22.81
555.386	23.09
555.728	23.35
556.07	23.58
556.412	23.84
556.754	24.15
557.096	24.45
557.438	24.78
557.78	25.05
558.121	25.37
558.463	25.7
558.805	25.97
559.147	26.21
559.488	26.5
559.83	26.84
560.171	27.11
560.513	27.39
560.854	27.68
561.196	27.97
561.537	28.25
561.878	28.57
562.22	28.82
562.561	29.14
562.902	29.41
563.243	29.73
563.584	29.99
563.925	30.22
564.266	30.49
564.607	30.75
564.948	31
565.289	31.24
565.63	31.47
565.971	31.77
566.312	32.02
566.653	32.27
566.993	32.52
567.334	32.79
567.675	33.05
568.015	33.27
568.356	33.52
568.696	33.81
569.037	34.03
569.377	34.22
569.718	34.44
570.058	34.7
570.398	34.95
570.739	35.2
571.079	35.46
571.419	35.66
571.759	35.85
572.099	36.1
572.439	36.33
572.779	36.57
573.119	36.76
573.459	36.94
573.799	37.14
574.139	37.36
574.479	37.55
574.819	37.8
575.158	38
575.498	38.19
575.838	38.38
576.177	38.58
576.517	38.87
576.856	39.04
577.196	39.3
577.535	39.59
577.875	39.76
578.214	39.98
578.553	40.27
578.893	40.47
579.232	40.65
579.571	40.91
579.91	41.09
580.25	41.27
580.589	41.57
580.928	41.74
581.267	41.87
581.606	42.09
581.945	42.2
582.283	42.49
582.622	42.62
582.961	42.83
583.3	42.99
583.639	43.14
583.977	43.41
584.316	43.51
584.654	43.63
584.993	43.84
585.332	44.06
585.67	44.16
586.008	44.38
586.347	44.62
586.685	44.73
587.024	44.94
587.362	45.08
587.7	45.19
588.038	45.4
588.376	45.58
588.715	45.72
589.053	45.89
589.391	46.01
589.729	46.22
590.067	46.37
590.404	46.56
590.742	46.66
591.08	46.84
591.418	47.05
591.756	47.17
592.093	47.33
592.431	47.48
592.769	47.62
593.106	47.75
593.444	47.88
593.781	48.03
594.119	48.07
594.456	48.23
594.793	48.33
595.131	48.4
595.468	48.44
595.805	48.6
596.143	48.73
596.48	48.8
596.817	48.94
597.154	49.04
597.491	49.17
597.828	49.31
598.165	49.34
598.502	49.37
598.839	49.48
599.176	49.63
599.512	49.73
599.849	49.94
600.186	50.1
600.523	50.13
600.859	50.17
601.196	50.31
601.532	50.47
601.869	50.67
602.205	50.81
602.542	51.02
602.878	51.11
603.215	51.17
603.551	51.32
603.887	51.35
604.223	51.49
604.56	51.52
604.896	51.58
605.232	51.68
605.568	51.85
605.904	51.86
606.24	51.87
606.576	51.95
606.912	51.92
607.248	51.91
607.583	52.09
607.919	52.2
608.255	52.28
608.591	52.28
608.926	52.28
609.262	52.33
609.597	52.39
609.933	52.39
610.268	52.47
610.604	52.51
610.939	52.67
611.275	52.63
611.61	52.72
611.945	52.84
612.281	52.98
612.616	53
612.951	53.22
613.286	53.4
613.621	53.34
613.956	53.51
614.291	53.68
614.626	53.74
614.961	53.86
615.296	54.07
615.631	54.32
615.966	54.4
616.3	54.53
616.635	54.64
616.97	54.76
617.304	54.76
617.639	54.78
617.973	54.73
618.308	54.77
618.642	54.85
618.977	54.95
619.311	54.97
619.646	54.99
619.98	54.95
620.314	54.83
620.648	55.06
620.983	55.03
621.317	55.14
621.651	55.26
621.985	55.28
622.319	55.2
622.653	55.17
622.987	55.25
623.321	55.27
623.655	55.29
623.988	55.38
624.322	55.45
624.656	55.46
624.99	55.57
625.323	55.78
625.657	55.8
625.99	55.73
626.324	55.76
626.657	55.8
626.991	55.94
627.324	56.04
627.658	56.01
627.991	56.15
628.324	56.14
628.657	56.1
628.991	56.17
629.324	56.26
629.657	56.28
629.99	56.33
630.323	56.39
630.656	56.45
630.989	56.45
631.322	56.5
631.655	56.64
631.987	56.62
632.32	56.63
632.653	56.68
632.986	56.78
633.318	56.78
633.651	56.84
633.984	56.87
634.316	56.91
634.649	57.04
634.981	56.98
635.313	56.95
635.646	57.01
635.978	57.03
636.31	56.99
636.643	56.94
636.975	56.94
637.307	56.95
637.639	56.99
637.971	56.93
638.303	56.96
638.635	56.89
638.967	56.94
639.299	56.92
639.631	56.9
639.963	56.88
640.295	56.93
640.626	56.96
640.958	56.9
641.29	57.02
641.621	56.95
641.953	56.98
642.285	57.05
642.616	57.13
642.948	57.22
643.279	57.34
643.61	57.44
643.942	57.47
644.273	57.42
644.604	57.35
644.936	57.4
645.267	57.48
645.598	57.69
645.929	57.72
646.26	57.78
646.591	57.85
646.922	57.91
647.253	57.92
647.584	57.9
647.915	57.94
648.245	57.97
648.576	58.12
648.907	58.19
649.238	58.19
649.568	58.2
649.899	58.13
650.229	58.17
650.56	58.26
650.89	58.31
651.221	58.31
651.551	58.33
651.882	58.41
652.212	58.41
652.542	58.31
652.872	58.35
653.203	58.48
653.533	58.61
653.863	58.63
654.193	58.73
654.523	59
654.853	59.14
655.183	59.03
655.513	58.95
655.843	59.05
656.172	59.06
656.502	59.02
656.832	59.04
657.162	58.97
657.491	59.05
657.821	59.15
658.15	59.31
658.48	59.44
658.809	59.46
659.139	59.49
659.468	59.51
659.798	59.56
660.127	59.49
660.456	59.4
660.785	59.51
661.115	59.4
661.444	59.26
661.773	59.17
662.102	59.21
662.431	59.23
662.76	59.31
663.089	59.36
663.418	59.45
663.747	59.54
664.076	59.78
664.404	59.73
664.733	59.68
665.062	59.54
665.39	59.55
665.719	59.66
666.048	59.61
666.376	59.77
666.705	59.77
667.033	59.79
667.362	59.86
667.69	59.73
668.018	59.88
668.347	59.74
668.675	59.76
669.003	59.74
669.331	59.74
669.659	59.64
669.987	59.59
670.315	59.63
670.643	59.8
670.971	59.59
671.299	59.59
671.627	59.62
671.955	59.7
672.283	59.65
672.61	59.7
672.938	59.75
673.266	59.54
673.593	59.56
673.921	59.59
674.249	59.37
674.576	59.47
674.904	59.39
675.231	59.57
675.558	59.61
675.886	59.79
676.213	59.92
676.54	60
676.867	60.22
677.195	60.21
677.522	60.2
677.849	60.26
678.176	60.41
678.503	60.41
678.83	60.46
679.157	60.51
679.484	60.51
679.81	60.58
680.137	60.8
680.464	60.86
680.791	60.77
681.117	60.93
681.444	60.93
681.771	61
682.097	61.05
682.424	61.16
682.75	61.12
683.077	61.2
683.403	61.15
683.729	61.07
684.056	61.07
684.382	61.01
684.708	60.98
685.034	60.88
685.36	60.91
685.686	60.88
686.012	60.92
686.339	60.95
686.664	60.99
686.99	60.9
687.316	61.12
687.642	61.16
687.968	61.3
688.294	61.41
688.619	61.48
688.945	61.31
689.271	61.3
689.596	61.35
689.922	61.18
690.247	61.33
690.573	61.41
690.898	61.57
691.224	61.63
691.549	61.78
691.874	61.81
692.2	61.87
692.525	62.05
692.85	61.87
693.175	61.72
693.5	61.65
693.825	61.87
694.15	61.64
694.475	61.77
694.8	61.81
695.125	61.65
695.45	61.44
695.775	61.63
696.099	61.62
696.424	61.62
696.749	61.74
697.073	61.69
697.398	61.64
697.723	61.41
698.047	61.5
698.372	61.46
698.696	61.32
699.02	61.26
699.345	61.16
699.669	61.27
699.993	61.5
700.318	61.49
700.642	61.18
700.966	61.2
701.29	61.15
701.614	61.23
701.938	61.26
702.262	61.43
702.586	61.47
702.91	61.57
703.234	61.66
703.557	61.59
703.881	61.68
704.205	61.61
704.529	61.71
704.852	61.59
705.176	61.71
705.499	61.92
705.823	61.96
706.146	62.05
706.47	62.19
706.793	62.09
707.117	62.08
707.44	62.29
707.763	62.34
708.086	62.18
708.409	61.89
708.733	62.25
709.056	62.41
709.379	62.46
709.702	62.18
710.025	62.24
710.348	62.4
710.671	62.33
710.993	62.41
711.316	62.47
711.639	62.64
711.962	62.55
712.284	62.66
712.607	62.59
712.93	62.59
713.252	62.63
713.575	62.48
713.897	62.47
714.22	62.46
714.542	62.42
714.864	62.6
715.187	62.68
715.509	62.49
715.831	62.55
716.153	62.52
716.475	62.55
716.798	62.39
717.12	62.2
717.442	62.07
717.764	62.13
718.085	62.23
718.407	62.06
718.729	62.11
719.051	61.88
719.373	62.06
719.695	62.08
720.016	62.03
720.338	62.38
720.659	62.45
720.981	62.6
721.302	62.54
721.624	62.58
721.945	62.69
722.267	62.62
722.588	62.24
722.909	62.18
723.231	62.24
723.552	62.24
723.873	62.29
724.194	62.36
724.515	62.1
724.836	61.74
725.157	61.72
725.478	61.7
725.799	61.93
726.12	62.21
726.441	62.37
726.762	62.18
727.083	62.2
727.403	62.21
727.724	62.24
728.045	62.3
728.365	62.29
728.686	62.21
729.006	62.3
729.327	62.62
729.647	62.82
729.967	63.08
730.288	63.09
730.608	63.22
730.928	63.5
731.249	63.7
731.569	63.99
731.889	64.02
732.209	63.93
732.529	64
732.849	63.71
733.169	63.57
733.489	63.72
733.809	63.51
734.129	63.49
734.448	63.11
734.768	63.09
735.088	63.17
735.408	63.39
735.727	63.37
736.047	63.53
736.366	63.5
736.686	63.18
737.005	63.45
737.325	63.64
737.644	63.38
737.963	63.37
738.283	63.5
738.602	63.71
738.921	63.72
739.24	63.7
739.56	63.67
739.879	64
740.198	63.94
740.517	63.81
740.836	63.77
741.155	64.3
741.473	64.34
741.792	64.43
742.111	64.58
742.43	64.53
742.748	64.25
743.067	64.18
743.386	64.23
743.704	63.86
744.023	63.65
744.341	63.7
744.66	63.49
744.978	63.33
745.297	62.88
745.615	63.06
745.933	63.12
746.252	62.93
746.57	62.82
746.888	62.82
747.206	63.16
747.524	63.41
747.842	63.22
748.16	63.53
748.478	63.25
748.796	62.91
749.114	63.09
749.432	63.08
749.749	62.71
750.067	62.78
750.385	62.85
750.703	62.74
751.02	62.51
751.338	62.78
751.655	62.93
751.973	63.32
752.29	62.97
752.608	62.73
752.925	63.19
753.242	63.01
753.56	63.08
753.877	62.99
754.194	62.65
754.511	62.68
754.828	62.52
755.145	62.51
755.462	62.51
755.779	62.72
756.096	62.42
756.413	62.22
756.73	62.57
757.047	62.64
757.364	62.64
757.68	63.03
757.997	62.8
758.314	62.68
758.63	63.08
758.947	63.51
759.264	63.67
759.58	63.51
759.896	63.34
760.213	63.38
760.529	63.22
760.846	63.81
761.162	63.79
761.478	63.87
761.794	63.81
762.11	63.69
762.426	63.6
762.743	63.92
763.059	64.22
763.375	63.97
763.69	64.21
764.006	64.19
764.322	64.32
764.638	64.64
764.954	64.69
765.27	64.23
765.585	64.27
765.901	64.18
766.216	64.31
766.532	64.63
766.848	64.54
767.163	64.63
767.478	64.31
767.794	64.43
768.109	64.25
768.424	64.23
768.74	64.52
769.055	64.39
769.37	64.31
769.685	64.49
770	64.51
770.315	64.57
770.63	64.78
770.945	64.71
771.26	64.67
771.575	64.46
771.89	64.56
772.205	64.73
772.52	64.49
772.834	64.39
773.149	64.23
773.464	64.19
773.778	64.35
774.093	64.77
774.407	64.73
774.722	64.53
775.036	65.08
775.351	64.78
775.665	64.95
775.979	65.12
776.293	64.91
776.608	65.15
776.922	64.77
777.236	64.61
777.55	64.28
777.864	64.32
778.178	64.35
778.492	64.75
778.806	64.6
779.12	65.02
779.434	64.67
779.747	64.4
780.061	64.74
780.375	64.4
780.689	64.18
781.002	63.86
781.316	64.25
781.629	64.26
781.943	64.39
782.256	64.83
782.57	65.01
782.883	65.62
783.196	65.29
783.51	65.11
783.823	65.6
784.136	65.46
784.449	65.45
784.762	65.47
785.075	65.23
785.388	64.88
785.701	65.08
786.014	65.25
786.327	65.76
786.64	65.65
786.953	66.2
787.266	66.1
787.578	66.08
787.891	65.93
788.204	65.61
788.516	65.87
788.829	65.48
789.141	65.16
789.454	64.5
789.766	64.82
790.079	65.17
790.391	64.72
790.703	65.36
791.016	65.6
791.328	65.12
791.64	65.55
791.952	65.6
792.264	65.13
792.576	64.89
792.888	64.62
793.2	64.63
793.512	63.81
793.824	64.01
794.136	64.33
794.448	64.58
794.76	64.78
795.071	64.99
795.383	65.29
795.695	65.68
796.006	65.31
796.318	65.22
796.629	65.27
796.941	65.65
797.252	65.13
797.564	65.24
797.875	65.78
798.186	65.4
798.497	65.93
798.809	65.75
799.12	66.06
799.431	66.34
799.742	66.23
800.053	67.12
800.364	66.8
800.675	66.91
800.986	66.38
801.297	66.72
801.608	66.68
801.918	66.48
802.229	66.4
802.54	66.85
802.851	67.14
803.161	66.87
803.472	66.3
803.782	66.75
804.093	66.43
804.403	66.37
804.714	65.95
805.024	64.97
805.334	65.64
805.645	65.55
805.955	65.49
806.265	66.21
806.575	65.78
806.885	65.67
807.195	66.21
807.505	66.43
807.815	66.05
808.125	66.35
808.435	66.33
808.745	66.14
809.055	66.11
809.365	66.51
809.674	66.24
809.984	66.39
810.294	66.23
810.603	66.16
810.913	66.86
811.222	67.14
811.532	68
811.841	68.42
812.151	69.25
812.46	69.52
812.769	69.32
813.079	69.92
813.388	70.57
813.697	70.02
814.006	70.16
814.315	70.87
814.624	69.46
814.933	70.3
815.242	70.29
815.551	70.91
815.86	70.78
816.169	71.35
816.478	70.89
816.786	70.99
817.095	71.04
817.404	70.59
817.712	70.67
818.021	70.67
818.33	69.8
818.638	69.75
818.947	69
819.255	68.26
819.563	67.64
819.872	67.54
820.18	67.11
820.488	66.8
820.796	66.37
821.105	66.55
821.413	66.51
821.721	66.38
822.029	66.2
822.337	66.07
822.645	66.26
822.953	66.67
823.26	66.44
823.568	66.5
823.876	66.49
824.184	66.38
824.491	66.18
824.799	66.2
825.107	65.91
825.414	65.83
825.722	65.99
826.029	66.24
826.337	66.14
826.644	66.38
826.951	66.49
827.259	66.52
827.566	66.56
827.873	66.31
828.18	66.67
828.488	66.85
828.795	66.52
829.102	66.38
829.409	66.15
829.716	66.18
830.023	66.25
830.329	66.46
830.636	66.77
830.943	67.27
831.25	67.7
831.557	67.66
831.863	67.92
832.17	67.72
832.476	67.68
832.783	67.62
833.089	67.37
833.396	67.77
833.702	68.31
834.009	68.38
834.315	68.3
834.621	68.1
834.928	67.83
835.234	68.07
835.54	68.14
835.846	68.04
836.152	68.67
836.458	67.68
836.764	67.77
837.07	67.61
837.376	67.4
837.682	66.82
837.988	67.54
838.293	67.29
838.599	67.15
838.905	66.86
839.211	67.03
839.516	67.34
839.822	66.88
840.127	66.4
840.433	66.48
840.738	66.7
841.044	66.96
841.349	67.11
841.654	67.36
841.959	66.28
842.265	67.08
842.57	66.04
842.875	67.66
843.18	67.54
843.485	67.98
843.79	66.85
844.095	67.45
844.4	67.88
844.705	69.16
845.01	70.28
845.315	70
845.619	69.85
845.924	68.86
846.229	68.85
846.533	69.51
846.838	70.19
847.142	70.77
847.447	69.3
847.751	71.8
848.056	73.15
848.36	76.02
848.664	74.1
848.969	75.5
849.273	75.69
849.577	73.08
849.881	73.05
850.185	75.24
850.489	72.88
850.794	73.88
851.097	73.77
851.401	72.89
851.705	72.38
852.009	73.8
852.313	74.74
852.617	73.88
852.92	75.08
853.224	76.41
853.528	74.33
853.831	76.11
854.135	76.74
854.438	77.04
854.742	76.04
855.045	76.44
855.349	75.37
855.652	74.36
855.955	76.23
856.259	77.29
856.562	79.72
856.865	80.32
857.168	76.98
857.471	76.98
857.774	74.33
858.077	75.44
858.38	74.64
858.683	76.25
858.986	77.37
859.289	76.92
859.592	74.71
859.894	73.91
860.197	73.79
860.5	70.63
860.802	70.69
861.105	71.31
861.407	71.4
861.71	70.23
862.012	71.99
862.315	71.27
862.617	69.04
862.919	69.37
863.222	72.52
863.524	71.63
863.826	73.54
864.128	79.85
864.43	78.35
864.732	77.59
865.034	76.65
865.336	78.62
865.638	75.46
865.94	74.57
866.242	76.28
866.544	77.59
866.846	76.9
867.147	76.27
867.449	76.24
867.751	79.12
868.052	81.44
868.354	78.2
868.655	80.04
868.957	81.81
869.258	77.61
869.56	74.1
869.861	72.44
870.162	70.27
870.463	68.06
870.765	65.5
871.066	66.11
871.367	66.94
871.668	64.54
871.969	63.64
872.27	65.45
872.571	64.69
872.872	62.62
873.173	62.51
873.473	62.59
873.774	61.51
874.075	59.14
874.376	59.46
874.676	60.12
874.977	58.17
875.277	57.05
875.578	57.16
875.878	58
876.179	60.29
876.479	60.25
876.78	59.07
877.08	62.29
877.38	61.91
877.68	59.08
877.981	60.33
878.281	62.57
878.581	61.51
