Data from BA53509_Reflection_00012.txt Node
Date: Tue Nov 19 11:46:45 EST 2019
User: vgr7
Spectrometer: USB2G7710
Scans to average: 3
Trigger mode: 4
Integration Time (sec): 2.000000E-2
Electric dark correction enabled: true
Boxcar width: 10
XAxis mode: Wavelengths
Number of Pixels in Spectrum: 2048
>>>>>Begin Spectral Data<<<<<
177.721	-35.11
178.105	16.67
178.488	-31.04
178.871	23.81
179.254	106.67
179.636	47.15
180.019	105.38
180.402	216.67
180.785	66.67
181.168	-157.86
181.55	20.8
181.933	53.16
182.316	151.66
182.698	164.87
183.081	419.21
183.463	437.4
183.846	-262.43
184.228	-513.48
184.611	1993.94
184.993	-246.38
185.376	-141.2
185.758	-155.35
186.14	-262.75
186.522	-128.24
186.904	-474.07
187.287	-538.36
187.669	-222.22
188.051	-150.46
188.433	-186.49
188.815	-198.57
189.197	-123.78
189.579	-80.14
189.961	-81.63
190.342	-39.33
190.724	-24.26
191.106	-30.03
191.488	-32.55
191.869	-40.85
192.251	-48.36
192.633	-55.54
193.014	-64.42
193.396	-77.76
193.777	-66.67
194.159	-57.69
194.54	-68.33
194.922	-51.57
195.303	-42.32
195.684	-49.61
196.065	-54.99
196.447	-53.21
196.828	-42.09
197.209	-47.86
197.59	-50.52
197.971	-50.27
198.352	-56.57
198.733	-95.95
199.114	-61.35
199.495	-60.56
199.876	-29.93
200.257	-29.63
200.638	-19.4
201.018	12.65
201.399	51.93
201.78	89.14
202.16	132.03
202.541	234.03
202.922	105.23
203.302	76.57
203.683	82.42
204.063	169.52
204.444	55.65
204.824	76.44
205.204	93.07
205.585	90.94
205.965	73.43
206.345	90.31
206.725	96.71
207.106	77.37
207.486	89.3
207.866	83.78
208.246	94.97
208.626	86.88
209.006	72.88
209.386	59.01
209.766	40.12
210.145	33.69
210.525	27.15
210.905	36.09
211.285	39.79
211.664	46.44
212.044	41.88
212.424	53.72
212.803	35.77
213.183	25.96
213.562	22.97
213.942	35.77
214.321	17.67
214.701	0.14
215.08	2.75
215.459	5.65
215.838	2.18
216.218	-23.98
216.597	-16.64
216.976	-33.84
217.355	-37.37
217.734	-46.55
218.113	-55.89
218.492	-47.5
218.871	-59.26
219.25	-57.13
219.629	-64.79
220.008	-65.44
220.387	-46.61
220.766	-57.88
221.144	-58.93
221.523	-48.78
221.902	-54.45
222.28	-41.41
222.659	-28.56
223.037	-25.74
223.416	-35.16
223.794	-25.21
224.173	-23.78
224.551	-21.34
224.929	-20.33
225.308	-21.28
225.686	-14.71
226.064	-7.46
226.442	-8.47
226.821	0.41
227.199	-3.47
227.577	-2.49
227.955	4.38
228.333	-0.22
228.711	6.11
229.089	4.5
229.467	3.91
229.845	5.08
230.222	5.94
230.6	5.03
230.978	7.29
231.356	8.35
231.733	6.58
232.111	8.09
232.488	12.65
232.866	16.89
233.243	18.12
233.621	15.54
233.998	12.38
234.376	11.29
234.753	8.06
235.13	8.92
235.508	8.98
235.885	7.49
236.262	6.94
236.639	5.23
237.016	5.22
237.393	7.37
237.77	7.13
238.147	6.32
238.524	6.17
238.901	4.35
239.278	4.32
239.655	4.94
240.032	4.52
240.409	2.9
240.785	2.64
241.162	2.03
241.539	1.89
241.915	2.05
242.292	2.99
242.668	3.8
243.045	3.98
243.421	3.62
243.798	3.48
244.174	3.63
244.551	3.83
244.927	3.8
245.303	3.39
245.679	3.31
246.056	3.38
246.432	3.26
246.808	3.82
247.184	4.02
247.56	3.97
247.936	4.01
248.312	4.14
248.688	4.01
249.064	4.14
249.44	4.32
249.815	4.72
250.191	4.52
250.567	4.4
250.943	4.61
251.318	4.43
251.694	4.58
252.069	4.88
252.445	4.85
252.82	4.81
253.196	4.89
253.571	5.16
253.947	5.25
254.322	5.46
254.697	5.26
255.073	4.96
255.448	4.8
255.823	4.55
256.198	4.53
256.573	4.37
256.948	4.4
257.323	4.43
257.698	4.37
258.073	4.35
258.448	4.35
258.823	4.13
259.198	4.13
259.573	3.8
259.948	3.76
260.322	3.61
260.697	3.79
261.072	3.91
261.446	3.88
261.821	3.67
262.195	3.77
262.57	3.49
262.944	3.6
263.319	3.72
263.693	3.85
264.067	3.82
264.442	4
264.816	4.03
265.19	4.08
265.564	4
265.938	3.85
266.313	3.84
266.687	3.83
267.061	4.13
267.435	4.39
267.809	4.18
268.183	4.4
268.556	4.44
268.93	4.35
269.304	4.36
269.678	4.58
270.051	4.52
270.425	4.57
270.799	4.44
271.172	4.26
271.546	4.43
271.919	4.56
272.293	4.56
272.666	4.4
273.04	4.29
273.413	4.25
273.787	4.27
274.16	3.89
274.533	3.89
274.906	3.93
275.279	4.02
275.653	4.13
276.026	4.1
276.399	3.9
276.772	3.84
277.145	3.7
277.518	3.38
277.891	3.3
278.263	3.48
278.636	3.49
279.009	3.57
279.382	3.38
279.755	3.34
280.127	3.29
280.5	3.41
280.872	3.39
281.245	3.54
281.617	3.52
281.99	3.82
282.362	3.76
282.735	3.62
283.107	3.68
283.479	3.71
283.852	3.65
284.224	3.81
284.596	3.79
284.968	3.94
285.34	4.1
285.713	4.22
286.085	4.1
286.457	4.3
286.829	4.28
287.201	4.28
287.572	4.23
287.944	4.3
288.316	4.21
288.688	4.3
289.06	4.11
289.431	4.11
289.803	4.11
290.175	4.19
290.546	4.24
290.918	4.01
291.289	3.89
291.661	3.96
292.032	3.86
292.403	3.89
292.775	3.92
293.146	3.89
293.517	3.83
293.889	4
294.26	3.93
294.631	3.97
295.002	4.08
295.373	4.05
295.744	4.03
296.115	4.09
296.486	4.11
296.857	4.26
297.228	4.32
297.599	4.37
297.97	4.51
298.34	4.72
298.711	4.86
299.082	5
299.452	5.03
299.823	5.1
300.194	5.2
300.564	5.07
300.935	5.17
301.305	5.07
301.676	4.99
302.046	4.97
302.416	4.97
302.787	4.79
303.157	4.82
303.527	4.79
303.897	4.79
304.267	4.75
304.637	4.71
305.008	4.9
305.378	4.82
305.748	4.7
306.117	4.35
306.487	4.43
306.857	4.39
307.227	4.44
307.597	4.55
307.967	4.38
308.336	4.42
308.706	4.29
309.076	4.44
309.445	4.67
309.815	4.59
310.184	4.55
310.554	4.66
310.923	4.63
311.293	4.55
311.662	4.68
312.031	4.66
312.401	4.6
312.77	4.49
313.139	4.52
313.508	4.57
313.877	4.67
314.246	4.52
314.616	4.56
314.985	4.56
315.353	4.55
315.722	4.81
316.091	4.88
316.46	4.97
316.829	4.82
317.198	4.65
317.567	4.75
317.935	4.73
318.304	4.89
318.672	5.1
319.041	5.25
319.41	5.27
319.778	5.33
320.147	5.41
320.515	5.49
320.883	5.54
321.252	5.61
321.62	5.53
321.988	5.67
322.357	5.59
322.725	5.48
323.093	5.35
323.461	5.22
323.829	5.22
324.197	5.23
324.565	5.28
324.933	5.31
325.301	5.11
325.669	5.26
326.037	5.17
326.405	5.11
326.772	5.11
327.14	5
327.508	4.98
327.875	5.03
328.243	4.92
328.61	4.89
328.978	4.77
329.346	4.79
329.713	4.78
330.08	4.96
330.448	5.01
330.815	5.02
331.182	4.87
331.55	4.98
331.917	4.96
332.284	5.06
332.651	5.07
333.018	5.25
333.385	5.34
333.752	5.39
334.119	5.39
334.486	5.3
334.853	5.2
335.22	5.18
335.587	5.14
335.954	5.18
336.32	5.18
336.687	5.27
337.054	5.31
337.42	5.27
337.787	5.14
338.153	5.29
338.52	5.34
338.886	5.55
339.253	5.43
339.619	5.5
339.986	5.45
340.352	5.44
340.718	5.46
341.084	5.35
341.451	5.25
341.817	5.4
342.183	5.41
342.549	5.56
342.915	5.61
343.281	5.64
343.647	5.82
344.013	5.84
344.379	5.89
344.745	5.89
345.11	5.86
345.476	5.99
345.842	5.87
346.208	5.95
346.573	5.84
346.939	5.8
347.304	5.8
347.67	5.78
348.035	5.78
348.401	5.8
348.766	5.83
349.132	5.95
349.497	5.92
349.862	5.93
350.228	5.98
350.593	5.95
350.958	6.04
351.323	5.89
351.688	5.9
352.053	5.88
352.418	5.9
352.783	5.93
353.148	5.87
353.513	5.85
353.878	5.89
354.243	5.91
354.608	5.99
354.972	5.96
355.337	6.05
355.702	6.04
356.066	5.91
356.431	5.89
356.795	5.83
357.16	5.82
357.524	5.82
357.889	5.79
358.253	5.8
358.618	5.77
358.982	5.77
359.346	5.77
359.71	5.73
360.075	5.72
360.439	5.79
360.803	5.8
361.167	5.85
361.531	5.78
361.895	5.76
362.259	5.76
362.623	5.73
362.987	5.71
363.351	5.63
363.714	5.69
364.078	5.75
364.442	5.68
364.806	5.62
365.169	5.61
365.533	5.53
365.896	5.53
366.26	5.48
366.623	5.54
366.987	5.55
367.35	5.59
367.714	5.61
368.077	5.5
368.44	5.45
368.803	5.4
369.167	5.33
369.53	5.34
369.893	5.28
370.256	5.23
370.619	5.18
370.982	5.21
371.345	5.21
371.708	5.16
372.071	5.18
372.434	5.16
372.797	5.16
373.159	5.19
373.522	5.13
373.885	5.12
374.247	5.08
374.61	5.03
374.973	5.02
375.335	4.99
375.698	5
376.06	5.09
376.423	5.08
376.785	5.13
377.147	5.07
377.51	5.04
377.872	5.09
378.234	5.05
378.596	5.06
378.958	5.07
379.321	4.95
379.683	5.02
380.045	5.03
380.407	5.05
380.769	5
381.13	4.98
381.492	4.96
381.854	4.89
382.216	4.82
382.578	4.84
382.939	4.78
383.301	4.78
383.663	4.72
384.024	4.73
384.386	4.73
384.747	4.72
385.109	4.7
385.47	4.72
385.832	4.74
386.193	4.72
386.554	4.66
386.916	4.77
387.277	4.71
387.638	4.66
387.999	4.62
388.36	4.61
388.721	4.62
389.082	4.61
389.443	4.62
389.804	4.67
390.165	4.57
390.526	4.58
390.887	4.56
391.248	4.55
391.609	4.56
391.969	4.53
392.33	4.54
392.691	4.55
393.051	4.49
393.412	4.49
393.772	4.49
394.133	4.47
394.493	4.38
394.854	4.39
395.214	4.44
395.574	4.43
395.935	4.45
396.295	4.47
396.655	4.44
397.015	4.43
397.376	4.41
397.736	4.41
398.096	4.45
398.456	4.43
398.816	4.39
399.176	4.29
399.535	4.26
399.895	4.24
400.255	4.18
400.615	4.19
400.975	4.15
401.334	4.14
401.694	4.15
402.054	4.17
402.413	4.14
402.773	4.08
403.132	4.09
403.492	4.07
403.851	4.07
404.211	4.04
404.57	4.09
404.929	4.02
405.288	4.07
405.648	4.04
406.007	4.04
406.366	4.05
406.725	4.06
407.084	4.06
407.443	4.07
407.802	4.08
408.161	4.1
408.52	4.11
408.879	4.11
409.238	4.14
409.596	4.1
409.955	4.09
410.314	4.07
410.673	4.04
411.031	4.04
411.39	4.03
411.748	4.05
412.107	3.98
412.465	4.03
412.824	3.99
413.182	3.93
413.54	3.88
413.899	3.84
414.257	3.84
414.615	3.87
414.974	3.85
415.332	3.86
415.69	3.81
416.048	3.8
416.406	3.78
416.764	3.75
417.122	3.74
417.48	3.76
417.838	3.77
418.195	3.79
418.553	3.76
418.911	3.74
419.269	3.75
419.626	3.74
419.984	3.74
420.342	3.73
420.699	3.75
421.057	3.78
421.414	3.79
421.772	3.79
422.129	3.76
422.486	3.75
422.844	3.74
423.201	3.76
423.558	3.77
423.915	3.75
424.273	3.75
424.63	3.76
424.987	3.75
425.344	3.74
425.701	3.71
426.058	3.72
426.415	3.71
426.772	3.68
427.128	3.69
427.485	3.68
427.842	3.68
428.199	3.68
428.555	3.65
428.912	3.65
429.269	3.63
429.625	3.64
429.982	3.66
430.338	3.66
430.695	3.65
431.051	3.65
431.407	3.66
431.764	3.64
432.12	3.66
432.476	3.66
432.832	3.65
433.189	3.64
433.545	3.64
433.901	3.66
434.257	3.66
434.613	3.63
434.969	3.63
435.325	3.64
435.681	3.63
436.036	3.64
436.392	3.64
436.748	3.66
437.104	3.67
437.459	3.64
437.815	3.63
438.171	3.64
438.526	3.63
438.882	3.63
439.237	3.63
439.593	3.62
439.948	3.63
440.304	3.63
440.659	3.64
441.014	3.64
441.369	3.63
441.725	3.64
442.08	3.65
442.435	3.66
442.79	3.64
443.145	3.64
443.5	3.63
443.855	3.61
444.21	3.6
444.565	3.59
444.92	3.61
445.275	3.6
445.629	3.6
445.984	3.6
446.339	3.59
446.693	3.59
447.048	3.58
447.403	3.56
447.757	3.55
448.112	3.54
448.466	3.53
448.82	3.54
449.175	3.52
449.529	3.52
449.883	3.52
450.238	3.52
450.592	3.51
450.946	3.49
451.3	3.5
451.654	3.49
452.008	3.46
452.362	3.44
452.716	3.44
453.07	3.42
453.424	3.41
453.778	3.41
454.132	3.42
454.486	3.45
454.839	3.45
455.193	3.46
455.547	3.46
455.9	3.47
456.254	3.48
456.607	3.48
456.961	3.48
457.314	3.47
457.668	3.49
458.021	3.5
458.375	3.53
458.728	3.51
459.081	3.53
459.434	3.57
459.787	3.58
460.141	3.62
460.494	3.63
460.847	3.63
461.2	3.64
461.553	3.64
461.906	3.63
462.259	3.62
462.611	3.62
462.964	3.62
463.317	3.62
463.67	3.62
464.022	3.61
464.375	3.6
464.728	3.63
465.08	3.62
465.433	3.64
465.785	3.63
466.138	3.65
466.49	3.66
466.843	3.66
467.195	3.67
467.547	3.64
467.899	3.64
468.252	3.66
468.604	3.67
468.956	3.66
469.308	3.65
469.66	3.67
470.012	3.69
470.364	3.71
470.716	3.7
471.068	3.71
471.42	3.73
471.772	3.75
472.123	3.72
472.475	3.71
472.827	3.69
473.178	3.7
473.53	3.7
473.882	3.69
474.233	3.67
474.585	3.67
474.936	3.65
475.288	3.65
475.639	3.64
475.99	3.63
476.342	3.64
476.693	3.65
477.044	3.65
477.395	3.62
477.746	3.61
478.097	3.63
478.448	3.62
478.8	3.61
479.15	3.6
479.501	3.6
479.852	3.62
480.203	3.63
480.554	3.64
480.905	3.64
481.255	3.64
481.606	3.66
481.957	3.66
482.307	3.67
482.658	3.67
483.009	3.67
483.359	3.67
483.709	3.66
484.06	3.67
484.41	3.69
484.761	3.7
485.111	3.71
485.461	3.7
485.811	3.7
486.162	3.71
486.512	3.72
486.862	3.73
487.212	3.73
487.562	3.73
487.912	3.73
488.262	3.73
488.612	3.73
488.961	3.73
489.311	3.74
489.661	3.74
490.011	3.74
490.36	3.75
490.71	3.76
491.06	3.78
491.409	3.78
491.759	3.78
492.108	3.77
492.458	3.78
492.807	3.8
493.157	3.82
493.506	3.82
493.855	3.82
494.204	3.83
494.554	3.85
494.903	3.87
495.252	3.88
495.601	3.91
495.95	3.95
496.299	3.96
496.648	3.97
496.997	3.98
497.346	4.02
497.695	4.03
498.043	4.05
498.392	4.08
498.741	4.1
499.09	4.1
499.438	4.12
499.787	4.15
500.135	4.15
500.484	4.16
500.832	4.18
501.181	4.2
501.529	4.23
501.878	4.25
502.226	4.28
502.574	4.3
502.923	4.32
503.271	4.34
503.619	4.36
503.967	4.38
504.315	4.39
504.663	4.41
505.011	4.45
505.359	4.44
505.707	4.44
506.055	4.49
506.403	4.53
506.751	4.56
507.098	4.57
507.446	4.62
507.794	4.66
508.141	4.71
508.489	4.75
508.837	4.76
509.184	4.78
509.531	4.82
509.879	4.86
510.226	4.88
510.574	4.94
510.921	4.99
511.268	5.03
511.616	5.09
511.963	5.13
512.31	5.17
512.657	5.23
513.004	5.28
513.351	5.31
513.698	5.34
514.045	5.4
514.392	5.49
514.739	5.52
515.086	5.57
515.432	5.63
515.779	5.69
516.126	5.77
516.473	5.84
516.819	5.89
517.166	5.95
517.512	6
517.859	6.04
518.205	6.08
518.552	6.14
518.898	6.18
519.245	6.22
519.591	6.27
519.937	6.35
520.283	6.4
520.629	6.46
520.976	6.53
521.322	6.6
521.668	6.66
522.014	6.74
522.36	6.82
522.706	6.9
523.052	7
523.398	7.09
523.743	7.18
524.089	7.3
524.435	7.37
524.781	7.46
525.126	7.54
525.472	7.65
525.817	7.75
526.163	7.83
526.509	7.92
526.854	8.01
527.199	8.07
527.545	8.15
527.89	8.22
528.235	8.31
528.581	8.39
528.926	8.46
529.271	8.56
529.616	8.64
529.961	8.73
530.306	8.82
530.651	8.9
530.996	9
531.341	9.08
531.686	9.21
532.031	9.33
532.376	9.46
532.721	9.57
533.065	9.69
533.41	9.81
533.755	9.95
534.099	10.08
534.444	10.21
534.788	10.37
535.133	10.51
535.477	10.64
535.822	10.78
536.166	10.96
536.51	11.15
536.855	11.36
537.199	11.55
537.543	11.74
537.887	11.95
538.231	12.15
538.576	12.38
538.92	12.58
539.264	12.77
539.608	12.93
539.951	13.1
540.295	13.3
540.639	13.48
540.983	13.64
541.327	13.83
541.671	14
542.014	14.16
542.358	14.31
542.701	14.51
543.045	14.68
543.389	14.86
543.732	15.02
544.075	15.18
544.419	15.36
544.762	15.56
545.105	15.78
545.449	16
545.792	16.21
546.135	16.4
546.478	16.65
546.821	16.94
547.165	17.21
547.508	17.44
547.851	17.71
548.194	17.97
548.536	18.22
548.879	18.52
549.222	18.82
549.565	19.11
549.908	19.33
550.25	19.61
550.593	19.86
550.936	20.2
551.278	20.47
551.621	20.76
551.963	21.06
552.306	21.33
552.648	21.6
552.991	21.85
553.333	22.15
553.675	22.42
554.017	22.65
554.36	22.91
554.702	23.17
555.044	23.45
555.386	23.72
555.728	23.97
556.07	24.26
556.412	24.52
556.754	24.85
557.096	25.16
557.438	25.42
557.78	25.67
558.121	25.87
558.463	26.16
558.805	26.43
559.147	26.76
559.488	27
559.83	27.32
560.171	27.58
560.513	27.88
560.854	28.18
561.196	28.48
561.537	28.74
561.878	29.09
562.22	29.3
562.561	29.57
562.902	29.86
563.243	30.03
563.584	30.26
563.925	30.52
564.266	30.77
564.607	31.01
564.948	31.25
565.289	31.54
565.63	31.79
565.971	32.02
566.312	32.19
566.653	32.42
566.993	32.57
567.334	32.85
567.675	33.06
568.015	33.27
568.356	33.51
568.696	33.75
569.037	33.92
569.377	34.16
569.718	34.38
570.058	34.61
570.398	34.87
570.739	35.1
571.079	35.34
571.419	35.59
571.759	35.83
572.099	36.07
572.439	36.29
572.779	36.49
573.119	36.68
573.459	36.92
573.799	37.13
574.139	37.33
574.479	37.53
574.819	37.74
575.158	37.9
575.498	38.05
575.838	38.21
576.177	38.39
576.517	38.57
576.856	38.8
577.196	38.96
577.535	39.16
577.875	39.38
578.214	39.52
578.553	39.64
578.893	39.87
579.232	40.02
579.571	40.17
579.91	40.35
580.25	40.56
580.589	40.67
580.928	40.84
581.267	41.01
581.606	41.15
581.945	41.27
582.283	41.49
582.622	41.67
582.961	41.9
583.3	42.08
583.639	42.29
583.977	42.37
584.316	42.57
584.654	42.75
584.993	42.93
585.332	43.09
585.67	43.26
586.008	43.38
586.347	43.52
586.685	43.64
587.024	43.84
587.362	43.99
587.7	44.18
588.038	44.27
588.376	44.43
588.715	44.53
589.053	44.67
589.391	44.79
589.729	45.01
590.067	45.15
590.404	45.3
590.742	45.4
591.08	45.59
591.418	45.64
591.756	45.8
592.093	45.92
592.431	46.01
592.769	46.11
593.106	46.26
593.444	46.39
593.781	46.57
594.119	46.61
594.456	46.72
594.793	46.85
595.131	47
595.468	47.15
595.805	47.27
596.143	47.36
596.48	47.39
596.817	47.47
597.154	47.6
597.491	47.68
597.828	47.75
598.165	47.79
598.502	47.93
598.839	48.03
599.176	48.04
599.512	48.18
599.849	48.36
600.186	48.49
600.523	48.64
600.859	48.68
601.196	48.81
601.532	48.84
601.869	48.96
602.205	48.99
602.542	49.1
602.878	49.21
603.215	49.4
603.551	49.48
603.887	49.55
604.223	49.58
604.56	49.66
604.896	49.73
605.232	49.82
605.568	49.85
605.904	49.85
606.24	50.03
606.576	50.11
606.912	50.03
607.248	50
607.583	50.08
607.919	50.13
608.255	50.15
608.591	50.28
608.926	50.3
609.262	50.45
609.597	50.47
609.933	50.48
610.268	50.46
610.604	50.56
610.939	50.57
611.275	50.6
611.61	50.64
611.945	50.73
612.281	50.75
612.616	50.83
612.951	50.82
613.286	50.79
613.621	50.75
613.956	50.91
614.291	51.01
614.626	50.98
614.961	51.04
615.296	51.16
615.631	51.22
615.966	51.22
616.3	51.28
616.635	51.32
616.97	51.39
617.304	51.42
617.639	51.5
617.973	51.61
618.308	51.63
618.642	51.7
618.977	51.71
619.311	51.77
619.646	51.85
619.98	52.02
620.314	52.11
620.648	52.21
620.983	52.2
621.317	52.26
621.651	52.28
621.985	52.36
622.319	52.44
622.653	52.47
622.987	52.49
623.321	52.54
623.655	52.57
623.988	52.63
624.322	52.71
624.656	52.65
624.99	52.61
625.323	52.7
625.657	52.79
625.99	52.89
626.324	53.02
626.657	53.14
626.991	53.16
627.324	53.17
627.658	53.21
627.991	53.3
628.324	53.42
628.657	53.53
628.991	53.6
629.324	53.64
629.657	53.74
629.99	53.82
630.323	53.84
630.656	53.85
630.989	53.92
631.322	53.83
631.655	53.87
631.987	53.95
632.32	54.02
632.653	53.96
632.986	53.98
633.318	53.98
633.651	53.93
633.984	53.91
634.316	54.07
634.649	54.11
634.981	54.18
635.313	54.16
635.646	54.16
635.978	54.2
636.31	54.24
636.643	54.33
636.975	54.33
637.307	54.39
637.639	54.44
637.971	54.42
638.303	54.63
638.635	54.85
638.967	54.76
639.299	54.7
639.631	54.78
639.963	54.84
640.295	54.91
640.626	55
640.958	55.01
641.29	55.02
641.621	55.03
641.953	54.98
642.285	54.99
642.616	55.05
642.948	54.94
643.279	54.88
643.61	54.81
643.942	54.86
644.273	54.8
644.604	54.94
644.936	55.1
645.267	55.05
645.598	54.95
645.929	55.13
646.26	55.1
646.591	55.06
646.922	55.05
647.253	55.03
647.584	55
647.915	55.05
648.245	54.99
648.576	55.06
648.907	55.17
649.238	55.24
649.568	55.23
649.899	55.33
650.229	55.49
650.56	55.43
650.89	55.42
651.221	55.58
651.551	55.5
651.882	55.51
652.212	55.53
652.542	55.64
652.872	55.7
653.203	55.94
653.533	56.01
653.863	56.08
654.193	56.13
654.523	56.29
654.853	56.4
655.183	56.27
655.513	56.33
655.843	56.33
656.172	56.42
656.502	56.51
656.832	56.6
657.162	56.65
657.491	56.75
657.821	56.78
658.15	56.85
658.48	56.89
658.809	57.07
659.139	57.21
659.468	57.2
659.798	57.29
660.127	57.11
660.456	57.14
660.785	57.22
661.115	57.15
661.444	57.01
661.773	57.03
662.102	57.09
662.431	57.09
662.76	57.06
663.089	57.02
663.418	57.01
663.747	56.99
664.076	56.75
664.404	56.79
664.733	56.93
665.062	56.83
665.39	56.81
665.719	56.6
666.048	56.52
666.376	56.57
666.705	56.47
667.033	56.62
667.362	56.52
667.69	56.47
668.018	56.49
668.347	56.48
668.675	56.48
669.003	56.53
669.331	56.48
669.659	56.47
669.987	56.46
670.315	56.38
670.643	56.39
670.971	56.76
671.299	56.83
671.627	56.85
671.955	56.82
672.283	56.88
672.61	56.85
672.938	56.99
673.266	57.16
673.593	57.2
673.921	57.18
674.249	57.4
674.576	57.31
674.904	57.41
675.231	57.57
675.558	57.66
675.886	57.77
676.213	57.77
676.54	57.87
676.867	57.91
677.195	58
677.522	58.04
677.849	57.86
678.176	57.86
678.503	57.91
678.83	57.98
679.157	58.09
679.484	58.2
679.81	58.2
680.137	58.11
680.464	58.15
680.791	58.24
681.117	58.22
681.444	58.31
681.771	58.36
682.097	58.37
682.424	58.38
682.75	58.4
683.077	58.57
683.403	58.6
683.729	58.58
684.056	58.7
684.382	58.75
684.708	58.81
685.034	58.71
685.36	58.58
685.686	58.56
686.012	58.44
686.339	58.37
686.664	58.31
686.99	58.3
687.316	58.38
687.642	58.34
687.968	58.35
688.294	58.19
688.619	58.15
688.945	58.19
689.271	58.14
689.596	58.21
689.922	58.14
690.247	58.16
690.573	58.2
690.898	58
691.224	58.07
691.549	58
691.874	58.16
692.2	58.18
692.525	58.23
692.85	58.33
693.175	58.49
693.5	58.54
693.825	58.55
694.15	58.47
694.475	58.45
694.8	58.5
695.125	58.7
695.45	58.86
695.775	58.88
696.099	58.96
696.424	58.97
696.749	59.01
697.073	59.05
697.398	59.18
697.723	59.34
698.047	59.42
698.372	59.51
698.696	59.42
699.02	59.52
699.345	59.54
699.669	59.47
699.993	59.45
700.318	59.38
700.642	59.4
700.966	59.42
701.29	59.48
701.614	59.33
701.938	59.37
702.262	59.28
702.586	59.19
702.91	59.05
703.234	58.92
703.557	58.85
703.881	58.93
704.205	58.9
704.529	59.09
704.852	58.89
705.176	58.8
705.499	58.94
705.823	58.78
706.146	58.88
706.47	58.96
706.793	58.98
707.117	59.1
707.44	58.98
707.763	59.09
708.086	59.11
708.409	59.4
708.733	59.52
709.056	59.55
709.379	59.65
709.702	59.86
710.025	59.93
710.348	60.11
710.671	60.24
710.993	60.04
711.316	59.78
711.639	59.8
711.962	59.9
712.284	59.94
712.607	60.21
712.93	60.24
713.252	60.31
713.575	60.27
713.897	60.44
714.22	60.54
714.542	60.66
714.864	60.75
715.187	60.63
715.509	60.39
715.831	60.43
716.153	60.6
716.475	60.71
716.798	60.8
717.12	60.64
717.442	60.42
717.764	60.53
718.085	60.59
718.407	60.77
718.729	60.87
719.051	60.92
719.373	60.86
719.695	60.81
720.016	60.97
720.338	60.99
720.659	60.58
720.981	60.69
721.302	60.63
721.624	60.93
721.945	61.2
722.267	61.59
722.588	61.74
722.909	61.54
723.231	61.3
723.552	61.36
723.873	61.52
724.194	61.33
724.515	61.31
724.836	61.47
725.157	61.4
725.478	61.33
725.799	61.18
726.12	61.27
726.441	61.45
726.762	61.4
727.083	61.63
727.403	61.85
727.724	61.73
728.045	61.64
728.365	61.32
728.686	61.37
729.006	61.26
729.327	61.31
729.647	61.4
729.967	61.51
730.288	61.27
730.608	61.2
730.928	61.24
731.249	61
731.569	60.73
731.889	60.61
732.209	60.65
732.529	60.59
732.849	60.32
733.169	60.24
733.489	60.17
733.809	59.72
734.129	59.76
734.448	59.82
734.768	59.86
735.088	59.94
735.408	59.66
735.727	59.54
736.047	59.28
736.366	59.27
736.686	59.45
737.005	59.81
737.325	59.75
737.644	59.87
737.963	60.31
738.283	60.74
738.602	61.02
738.921	61.13
739.24	61.28
739.56	61.61
739.879	61.77
740.198	61.78
740.517	62.43
740.836	62.41
741.155	62.54
741.473	62.36
741.792	62.26
742.111	62.36
742.43	62.55
742.748	62.6
743.067	62.85
743.386	62.43
743.704	62.25
744.023	62.39
744.341	62.39
744.66	62.29
744.978	62.16
745.297	62.07
745.615	62.14
745.933	62.02
746.252	61.85
746.57	61.56
746.888	61.62
747.206	61.07
747.524	61.12
747.842	60.81
748.16	61.04
748.478	60.98
748.796	60.9
749.114	60.93
749.432	60.84
749.749	60.5
750.067	60.73
750.385	60.73
750.703	60.64
751.02	60.63
751.338	60.66
751.655	60.83
751.973	60.79
752.29	60.72
752.608	60.85
752.925	60.85
753.242	60.99
753.56	61.09
753.877	61.48
754.194	61.3
754.511	61.44
754.828	61.65
755.145	61.93
755.462	61.98
755.779	62.02
756.096	62.32
756.413	62.54
756.73	62.34
757.047	62.26
757.364	62.14
757.68	62.5
757.997	62.41
758.314	62.62
758.63	62.97
758.947	62.42
759.264	62.3
759.58	62.28
759.896	62.3
760.213	62.3
760.529	62.23
760.846	62.61
761.162	62.78
761.478	62.6
761.794	62.55
762.11	62.69
762.426	62.7
762.743	62.78
763.059	62.42
763.375	62.44
763.69	62.56
764.006	63.06
764.322	62.97
764.638	63.16
764.954	63.08
765.27	62.96
765.585	63.36
765.901	63.17
766.216	63.06
766.532	63.11
766.848	63.27
767.163	63.33
767.478	63.45
767.794	63.58
768.109	63.6
768.424	63.41
768.74	63.28
769.055	63.25
769.37	63.08
769.685	63.16
770	63.2
770.315	63.38
770.63	62.74
770.945	62.67
771.26	62.68
771.575	62.57
771.89	62.09
772.205	61.96
772.52	62.64
772.834	63.22
773.149	62.94
773.464	62.87
773.778	63.07
774.093	62.68
774.407	62.7
774.722	62.47
775.036	62.86
775.351	63.25
775.665	63.29
775.979	63.37
776.293	63.92
776.608	64.31
776.922	64.21
777.236	64.68
777.55	64.44
777.864	63.96
778.178	63.3
778.492	64.21
778.806	64.25
779.12	64.1
779.434	64.38
779.747	64.55
780.061	64.03
780.375	63.72
780.689	63.49
781.002	63.77
781.316	63.81
781.629	63.57
781.943	63.65
782.256	63.67
782.57	64.24
782.883	64.07
783.196	63.9
783.51	64.03
783.823	64.27
784.136	65.02
784.449	65.15
784.762	65.6
785.075	64.94
785.388	64.87
785.701	65.04
786.014	64.34
786.327	64.56
786.64	65.07
786.953	65.67
787.266	66.37
787.578	65.11
787.891	65.15
788.204	65.16
788.516	65.18
788.829	64.97
789.141	64.95
789.454	65.43
789.766	65.89
790.079	65.48
790.391	65.2
790.703	64.51
791.016	65.36
791.328	65.81
791.64	65.87
791.952	65.52
792.264	64.97
792.576	65.12
792.888	65.47
793.2	65.48
793.512	64.46
793.824	64.46
794.136	65.25
794.448	65.9
794.76	65.62
795.071	65.11
795.383	65.46
795.695	64.92
796.006	64.09
796.318	63.39
796.629	63.86
796.941	63.74
797.252	63.88
797.564	63.1
797.875	63
798.186	62.99
798.497	63.75
798.809	63.5
799.12	62.99
799.431	62.42
799.742	62.37
800.053	63.04
800.364	62.92
800.675	62.26
800.986	62.09
801.297	62.46
801.608	62.45
801.918	62.24
802.229	62.6
802.54	63.45
802.851	63.71
803.161	63.66
803.472	63.75
803.782	64.01
804.093	63.79
804.403	63.49
804.714	63.39
805.024	63.24
805.334	63.56
805.645	64.28
805.955	64.68
806.265	65.34
806.575	64.67
806.885	64.2
807.195	64.76
807.505	64.8
807.815	64.6
808.125	64.58
808.435	64.59
808.745	64.82
809.055	63.87
809.365	62.91
809.674	62.94
809.984	62.97
810.294	62.3
810.603	62.52
810.913	62.54
811.222	62.98
811.532	62.65
811.841	63.04
812.151	62.67
812.46	62.66
812.769	62.24
813.079	63.11
813.388	63.28
813.697	63.91
814.006	63.13
814.315	62.87
814.624	62.85
814.933	62.88
815.242	61.47
815.551	61.65
815.86	63.01
816.169	62.65
816.478	62.63
816.786	63.37
817.095	63.69
817.404	64.4
817.712	64.32
818.021	64.36
818.33	64.88
818.638	65.51
818.947	65.35
819.255	65.14
819.563	64.86
819.872	64.68
820.18	64.45
820.488	64.75
820.796	64.96
821.105	64.73
821.413	64.75
821.721	65.12
822.029	64.96
822.337	64.96
822.645	64.85
822.953	65.05
823.26	64.89
823.568	64.93
823.876	64.78
824.184	64.72
824.491	64.76
824.799	64.67
825.107	64.4
825.414	64.37
825.722	64.14
826.029	64.09
826.337	64.16
826.644	64.09
826.951	64.14
827.259	64.16
827.566	64.59
827.873	64.69
828.18	64.68
828.488	64.56
828.795	64.55
829.102	64.65
829.409	64.28
829.716	64.79
830.023	64.65
830.329	64.49
830.636	64.54
830.943	64.15
831.25	63.75
831.557	63.83
831.863	63.58
832.17	63.48
832.476	63.38
832.783	63.39
833.089	62.88
833.396	62.41
833.702	62.07
834.009	61.84
834.315	61.58
834.621	61.31
834.928	62.2
835.234	61.85
835.54	61.92
835.846	62.03
836.152	61.26
836.458	61.35
836.764	61.26
837.07	61.36
837.376	61.67
837.682	62.35
837.988	62.49
838.293	62.63
838.599	63.87
838.905	63.49
839.211	63.07
839.516	63.56
839.822	63.48
840.127	63.05
840.433	62.5
840.738	62.48
841.044	61.94
841.349	61.24
841.654	60.3
841.959	60.54
842.265	60.71
842.57	60.56
842.875	60.6
843.18	60.64
843.485	60.8
843.79	60.62
844.095	59
844.4	58.7
844.705	58.2
845.01	56.82
845.315	56.9
845.619	57.78
845.924	57.52
846.229	58.61
846.533	61.05
846.838	58.96
847.142	59.73
847.447	62.42
847.751	61.71
848.056	62.94
848.36	60.91
848.664	60.2
848.969	60.85
849.273	59.18
849.577	58.66
849.881	57.36
850.185	57.17
850.489	58.99
850.794	58.97
851.097	60.6
851.401	60.48
851.705	61.6
852.009	59.6
852.313	61.25
852.617	60.37
852.92	58.36
853.224	61.29
853.528	58.63
853.831	55.5
854.135	55.44
854.438	56.57
854.742	58.26
855.045	55.98
855.349	55.09
855.652	55.95
855.955	58.18
856.259	57.93
856.562	56.19
856.865	53.66
857.168	53.18
857.471	54.06
857.774	53.76
858.077	54.74
858.38	54.4
858.683	53.37
858.986	53.48
859.289	54.77
859.592	54.46
859.894	55.82
860.197	58.02
860.5	59.27
860.802	59.16
861.105	60.74
861.407	61.34
861.71	61.58
862.012	62.14
862.315	60.86
862.617	62.02
862.919	64.09
863.222	66.84
863.524	66.53
863.826	62.58
864.128	65.15
864.43	64.76
864.732	64.31
865.034	64.68
865.336	62.66
865.638	62.29
865.94	60.99
866.242	59.18
866.544	57.51
866.846	57.62
867.147	58.31
867.449	56.47
867.751	55.97
868.052	52.79
868.354	53.02
868.655	54.67
868.957	53.62
869.258	55.03
869.56	55.13
869.861	54.94
870.162	56.49
870.463	52.47
870.765	50.59
871.066	52.06
871.367	53.25
871.668	54.29
871.969	50.4
872.27	54.22
872.571	55.57
872.872	57.16
873.173	55.62
873.473	54.21
873.774	52.99
874.075	57.27
874.376	60.99
874.676	61.91
874.977	60.92
875.277	61.79
875.578	58.53
875.878	57.71
876.179	58.67
876.479	58.16
876.78	60.28
877.08	61.95
877.38	62.29
877.68	60.25
877.981	61.34
878.281	66.87
878.581	61
