Data from BA53411_Reflection_00002.txt Node
Date: Tue Nov 19 11:53:31 EST 2019
User: vgr7
Spectrometer: USB2G7710
Scans to average: 3
Trigger mode: 4
Integration Time (sec): 2.000000E-2
Electric dark correction enabled: true
Boxcar width: 10
XAxis mode: Wavelengths
Number of Pixels in Spectrum: 2048
>>>>>Begin Spectral Data<<<<<
177.721	52.27
178.105	15.73
178.488	10.79
178.871	35.59
179.254	31.71
179.636	56.45
180.019	417.07
180.402	355.56
180.785	-123.53
181.168	-201.72
181.55	-48.76
181.933	1.84
182.316	43.66
182.698	22.16
183.081	-23.29
183.463	-16.18
183.846	-51.62
184.228	-70.28
184.611	-95.4
184.993	-115.38
185.376	-97.23
185.758	-132.23
186.14	-182.76
186.522	4814.29
186.904	2766.67
187.287	-571.64
187.669	-546.15
188.051	-144.73
188.433	-78.14
188.815	-97.04
189.197	-93.8
189.579	-26.58
189.961	-104.08
190.342	-155.32
190.724	-51.26
191.106	100
191.488	163.49
191.869	69.33
192.251	29.37
192.633	41.42
193.014	30.35
193.396	17.01
193.777	41.18
194.159	36.31
194.54	10.99
194.922	-64.38
195.303	-91.3
195.684	-29.03
196.065	11.39
196.447	52.38
196.828	-42.86
197.209	877.78
197.59	207.53
197.971	325.81
198.352	-1677.78
198.733	276.47
199.114	25.93
199.495	-0.92
199.876	92.37
200.257	53.67
200.638	147.12
201.018	141.92
201.399	353.16
201.78	212.15
202.16	3700
202.541	306.9
202.922	178.74
203.302	209.89
203.683	-728.57
204.063	-6500
204.444	-900
204.824	-442.86
205.204	-348.98
205.585	-552.17
205.965	-72.04
206.345	1100
206.725	-143.24
207.106	46.9
207.486	-30.43
207.866	31.51
208.246	47.98
208.626	-57.89
209.006	-185.71
209.386	-44.58
209.766	68.42
210.145	-6.15
210.525	-26.53
210.905	-25.79
211.285	-48.33
211.664	-27.66
212.044	-31.46
212.424	-47.47
212.803	-22.61
213.183	41.46
213.562	62.79
213.942	61.33
214.321	78.84
214.701	109.95
215.08	139.65
215.459	104.93
215.838	82.7
216.218	115.87
216.597	-247.83
216.976	-37.25
217.355	9.09
217.734	82.46
218.113	-386.49
218.492	-1370.59
218.871	-322.22
219.25	-132.32
219.629	-341.86
220.008	-2900
220.387	-90.48
220.766	-14.19
221.144	82.06
221.523	73.82
221.902	82.04
222.28	78.95
222.659	88.4
223.037	86.95
223.416	56.32
223.794	53.98
224.173	31.35
224.551	28.73
224.929	4.76
225.308	-6
225.686	-0.1
226.064	-6.53
226.442	4.18
226.821	1.06
227.199	-0.82
227.577	3.88
227.955	3.92
228.333	-0.37
228.711	-3
229.089	-9.67
229.467	-7.8
229.845	-12
230.222	-12.73
230.6	-12.31
230.978	-8.91
231.356	-6.23
231.733	-6.92
232.111	-5.6
232.488	-6.84
232.866	-3.95
233.243	-4.32
233.621	-2.79
233.998	-0.4
234.376	-0.24
234.753	-0.64
235.13	-4.63
235.508	-4.88
235.885	-3.46
236.262	-4.41
236.639	-4.81
237.016	-3.12
237.393	-0.42
237.77	2.34
238.147	2.23
238.524	1.38
238.901	2.65
239.278	3.12
239.655	3.77
240.032	3.86
240.409	4.42
240.785	3.74
241.162	4.66
241.539	5.18
241.915	5.04
242.292	4.78
242.668	4.95
243.045	6.31
243.421	6.43
243.798	6.2
244.174	6.6
244.551	6.48
244.927	6.24
245.303	5.62
245.679	5.44
246.056	5.59
246.432	5.45
246.808	5.28
247.184	4.94
247.56	4.54
247.936	4.61
248.312	4.86
248.688	4.97
249.064	4.82
249.44	4.37
249.815	4.36
250.191	4.3
250.567	4.13
250.943	3.84
251.318	3.77
251.694	3.35
252.069	3.28
252.445	3.11
252.82	3.4
253.196	3.62
253.571	3.77
253.947	3.55
254.322	3.66
254.697	3.67
255.073	3.63
255.448	3.94
255.823	3.96
256.198	3.77
256.573	3.7
256.948	3.81
257.323	4.13
257.698	4.2
258.073	4.26
258.448	4.38
258.823	4.26
259.198	4.35
259.573	4.44
259.948	4.56
260.322	4.59
260.697	4.18
261.072	4.12
261.446	3.94
261.821	3.8
262.195	3.67
262.57	3.58
262.944	3.8
263.319	3.85
263.693	3.7
264.067	3.59
264.442	3.65
264.816	3.75
265.19	3.62
265.564	3.43
265.938	3.39
266.313	3.21
266.687	3.27
267.061	3.35
267.435	3.5
267.809	3.28
268.183	3.3
268.556	3.57
268.93	3.61
269.304	3.78
269.678	3.96
270.051	4.27
270.425	4.32
270.799	4.12
271.172	4.1
271.546	4.28
271.919	4.36
272.293	4.36
272.666	4.37
273.04	4.54
273.413	4.54
273.787	4.7
274.16	4.74
274.533	4.71
274.906	4.73
275.279	4.68
275.653	4.84
276.026	4.87
276.399	4.85
276.772	4.82
277.145	4.9
277.518	4.94
277.891	4.92
278.263	5.05
278.636	5.13
279.009	5.22
279.382	5.24
279.755	5.37
280.127	5.39
280.5	5.48
280.872	5.33
281.245	5.25
281.617	5.07
281.99	4.98
282.362	5.13
282.735	4.98
283.107	4.9
283.479	4.69
283.852	4.73
284.224	4.8
284.596	4.77
284.968	4.75
285.34	4.7
285.713	4.65
286.085	4.61
286.457	4.55
286.829	4.58
287.201	4.59
287.572	4.59
287.944	4.59
288.316	4.34
288.688	4.52
289.06	4.59
289.431	4.8
289.803	4.91
290.175	4.88
290.546	4.84
290.918	4.81
291.289	4.78
291.661	4.8
292.032	4.79
292.403	4.84
292.775	4.82
293.146	4.76
293.517	4.68
293.889	4.62
294.26	4.64
294.631	4.59
295.002	4.64
295.373	4.45
295.744	4.42
296.115	4.64
296.486	4.51
296.857	4.55
297.228	4.26
297.599	4.33
297.97	4.27
298.34	4.24
298.711	4.3
299.082	4.44
299.452	4.47
299.823	4.37
300.194	4.34
300.564	4.13
300.935	4.12
301.305	4.11
301.676	4.18
302.046	4.21
302.416	4.08
302.787	4.09
303.157	4.27
303.527	4.33
303.897	4.13
304.267	4.21
304.637	4.22
305.008	4.36
305.378	4.39
305.748	4.35
306.117	4.37
306.487	4.36
306.857	4.28
307.227	4.33
307.597	4.45
307.967	4.5
308.336	4.74
308.706	4.85
309.076	4.98
309.445	5.08
309.815	5.08
310.184	5.11
310.554	5.13
310.923	5.02
311.293	4.89
311.662	4.98
312.031	4.93
312.401	4.87
312.77	4.79
313.139	4.74
313.508	4.77
313.877	4.76
314.246	4.74
314.616	4.82
314.985	4.76
315.353	4.76
315.722	4.95
316.091	4.8
316.46	4.76
316.829	4.59
317.198	4.4
317.567	4.67
317.935	4.67
318.304	4.68
318.672	4.76
319.041	4.8
319.41	4.68
319.778	4.69
320.147	4.67
320.515	4.76
320.883	4.69
321.252	4.74
321.62	4.83
321.988	4.97
322.357	4.91
322.725	4.76
323.093	4.69
323.461	4.66
323.829	4.77
324.197	4.68
324.565	4.79
324.933	4.77
325.301	4.5
325.669	4.55
326.037	4.52
326.405	4.5
326.772	4.39
327.14	4.36
327.508	4.31
327.875	4.39
328.243	4.29
328.61	4.34
328.978	4.27
329.346	4.4
329.713	4.44
330.08	4.33
330.448	4.4
330.815	4.5
331.182	4.31
331.55	4.35
331.917	4.37
332.284	4.36
332.651	4.52
333.018	4.54
333.385	4.55
333.752	4.61
334.119	4.59
334.486	4.78
334.853	4.8
335.22	4.78
335.587	4.61
335.954	4.72
336.32	4.63
336.687	4.75
337.054	4.55
337.42	4.49
337.787	4.67
338.153	4.67
338.52	4.71
338.886	4.73
339.253	4.69
339.619	4.74
339.986	4.72
340.352	4.63
340.718	4.71
341.084	4.72
341.451	4.64
341.817	4.62
342.183	4.57
342.549	4.56
342.915	4.63
343.281	4.74
343.647	4.67
344.013	4.72
344.379	4.8
344.745	4.89
345.11	4.82
345.476	4.7
345.842	4.81
346.208	4.8
346.573	4.8
346.939	4.73
347.304	4.71
347.67	4.69
348.035	4.62
348.401	4.52
348.766	4.49
349.132	4.45
349.497	4.56
349.862	4.59
350.228	4.59
350.593	4.58
350.958	4.63
351.323	4.65
351.688	4.63
352.053	4.53
352.418	4.53
352.783	4.6
353.148	4.64
353.513	4.59
353.878	4.55
354.243	4.42
354.608	4.56
354.972	4.54
355.337	4.58
355.702	4.58
356.066	4.6
356.431	4.53
356.795	4.54
357.16	4.5
357.524	4.45
357.889	4.56
358.253	4.59
358.618	4.56
358.982	4.58
359.346	4.67
359.71	4.67
360.075	4.65
360.439	4.69
360.803	4.7
361.167	4.67
361.531	4.68
361.895	4.78
362.259	4.79
362.623	4.92
362.987	4.91
363.351	4.93
363.714	4.98
364.078	5.11
364.442	5.16
364.806	5.14
365.169	5.21
365.533	5.21
365.896	5.17
366.26	5.11
366.623	5.15
366.987	5.07
367.35	5.05
367.714	5.07
368.077	5.03
368.44	5
368.803	5.01
369.167	4.9
369.53	4.85
369.893	4.79
370.256	4.66
370.619	4.69
370.982	4.75
371.345	4.71
371.708	4.66
372.071	4.64
372.434	4.62
372.797	4.62
373.159	4.54
373.522	4.48
373.885	4.53
374.247	4.48
374.61	4.49
374.973	4.59
375.335	4.62
375.698	4.64
376.06	4.65
376.423	4.63
376.785	4.72
377.147	4.77
377.51	4.74
377.872	4.72
378.234	4.7
378.596	4.68
378.958	4.71
379.321	4.69
379.683	4.7
380.045	4.73
380.407	4.72
380.769	4.76
381.13	4.77
381.492	4.79
381.854	4.83
382.216	4.83
382.578	4.73
382.939	4.69
383.301	4.63
383.663	4.67
384.024	4.69
384.386	4.69
384.747	4.67
385.109	4.68
385.47	4.73
385.832	4.74
386.193	4.74
386.554	4.65
386.916	4.65
387.277	4.63
387.638	4.64
387.999	4.64
388.36	4.6
388.721	4.62
389.082	4.6
389.443	4.64
389.804	4.65
390.165	4.71
390.526	4.7
390.887	4.68
391.248	4.66
391.609	4.7
391.969	4.69
392.33	4.69
392.691	4.7
393.051	4.72
393.412	4.7
393.772	4.69
394.133	4.71
394.493	4.69
394.854	4.66
395.214	4.67
395.574	4.67
395.935	4.68
396.295	4.73
396.655	4.73
397.015	4.71
397.376	4.69
397.736	4.63
398.096	4.63
398.456	4.69
398.816	4.68
399.176	4.59
399.535	4.59
399.895	4.6
400.255	4.57
400.615	4.57
400.975	4.58
401.334	4.57
401.694	4.6
402.054	4.65
402.413	4.66
402.773	4.65
403.132	4.63
403.492	4.63
403.851	4.63
404.211	4.64
404.57	4.67
404.929	4.63
405.288	4.68
405.648	4.7
406.007	4.67
406.366	4.71
406.725	4.76
407.084	4.77
407.443	4.75
407.802	4.79
408.161	4.76
408.52	4.75
408.879	4.81
409.238	4.81
409.596	4.78
409.955	4.77
410.314	4.76
410.673	4.76
411.031	4.77
411.39	4.74
411.748	4.73
412.107	4.67
412.465	4.72
412.824	4.69
413.182	4.71
413.54	4.71
413.899	4.67
414.257	4.68
414.615	4.68
414.974	4.7
415.332	4.67
415.69	4.65
416.048	4.69
416.406	4.64
416.764	4.65
417.122	4.63
417.48	4.67
417.838	4.68
418.195	4.66
418.553	4.65
418.911	4.64
419.269	4.65
419.626	4.67
419.984	4.66
420.342	4.68
420.699	4.67
421.057	4.66
421.414	4.67
421.772	4.67
422.129	4.66
422.486	4.66
422.844	4.68
423.201	4.69
423.558	4.69
423.915	4.71
424.273	4.7
424.63	4.7
424.987	4.69
425.344	4.7
425.701	4.7
426.058	4.74
426.415	4.74
426.772	4.73
427.128	4.74
427.485	4.74
427.842	4.73
428.199	4.73
428.555	4.75
428.912	4.78
429.269	4.76
429.625	4.78
429.982	4.79
430.338	4.8
430.695	4.8
431.051	4.78
431.407	4.76
431.764	4.76
432.12	4.77
432.476	4.78
432.832	4.76
433.189	4.78
433.545	4.74
433.901	4.73
434.257	4.76
434.613	4.76
434.969	4.75
435.325	4.75
435.681	4.73
436.036	4.72
436.392	4.7
436.748	4.71
437.104	4.73
437.459	4.73
437.815	4.72
438.171	4.73
438.526	4.75
438.882	4.76
439.237	4.76
439.593	4.75
439.948	4.76
440.304	4.74
440.659	4.74
441.014	4.74
441.369	4.75
441.725	4.74
442.08	4.72
442.435	4.73
442.79	4.72
443.145	4.75
443.5	4.76
443.855	4.74
444.21	4.74
444.565	4.73
444.92	4.73
445.275	4.71
445.629	4.7
445.984	4.69
446.339	4.69
446.693	4.7
447.048	4.71
447.403	4.7
447.757	4.71
448.112	4.71
448.466	4.74
448.82	4.76
449.175	4.74
449.529	4.75
449.883	4.73
450.238	4.76
450.592	4.74
450.946	4.74
451.3	4.77
451.654	4.76
452.008	4.73
452.362	4.72
452.716	4.74
453.07	4.76
453.424	4.77
453.778	4.75
454.132	4.75
454.486	4.75
454.839	4.76
455.193	4.77
455.547	4.78
455.9	4.76
456.254	4.73
456.607	4.76
456.961	4.76
457.314	4.78
457.668	4.78
458.021	4.79
458.375	4.77
458.728	4.76
459.081	4.78
459.434	4.8
459.787	4.81
460.141	4.82
460.494	4.8
460.847	4.78
461.2	4.8
461.553	4.81
461.906	4.82
462.259	4.81
462.611	4.81
462.964	4.8
463.317	4.82
463.67	4.85
464.022	4.85
464.375	4.85
464.728	4.85
465.08	4.82
465.433	4.81
465.785	4.85
466.138	4.86
466.49	4.86
466.843	4.87
467.195	4.87
467.547	4.85
467.899	4.87
468.252	4.88
468.604	4.87
468.956	4.85
469.308	4.83
469.66	4.83
470.012	4.83
470.364	4.83
470.716	4.82
471.068	4.8
471.42	4.79
471.772	4.82
472.123	4.82
472.475	4.84
472.827	4.82
473.178	4.81
473.53	4.79
473.882	4.78
474.233	4.8
474.585	4.78
474.936	4.78
475.288	4.76
475.639	4.78
475.99	4.77
476.342	4.77
476.693	4.77
477.044	4.75
477.395	4.74
477.746	4.74
478.097	4.76
478.448	4.76
478.8	4.77
479.15	4.74
479.501	4.74
479.852	4.76
480.203	4.79
480.554	4.81
480.905	4.82
481.255	4.82
481.606	4.81
481.957	4.83
482.307	4.84
482.658	4.86
483.009	4.86
483.359	4.87
483.709	4.88
484.06	4.9
484.41	4.9
484.761	4.92
485.111	4.93
485.461	4.93
485.811	4.93
486.162	4.93
486.512	4.94
486.862	4.96
487.212	4.97
487.562	4.97
487.912	4.95
488.262	4.95
488.612	4.97
488.961	4.97
489.311	4.97
489.661	4.97
490.011	4.96
490.36	4.96
490.71	4.96
491.06	4.97
491.409	4.96
491.759	4.96
492.108	4.95
492.458	4.93
492.807	4.93
493.157	4.94
493.506	4.94
493.855	4.93
494.204	4.93
494.554	4.92
494.903	4.92
495.252	4.93
495.601	4.94
495.95	4.95
496.299	4.95
496.648	4.96
496.997	4.96
497.346	4.96
497.695	4.97
498.043	4.97
498.392	4.94
498.741	4.95
499.09	4.97
499.438	5
499.787	5.02
500.135	5.01
500.484	5
500.832	4.99
501.181	5.01
501.529	5.03
501.878	5.03
502.226	5.06
502.574	5.08
502.923	5.06
503.271	5.03
503.619	5.03
503.967	5.03
504.315	5.04
504.663	5.03
505.011	5.04
505.359	5.04
505.707	5.05
506.055	5.06
506.403	5.07
506.751	5.04
507.098	5.06
507.446	5.09
507.794	5.09
508.141	5.11
508.489	5.12
508.837	5.09
509.184	5.1
509.531	5.08
509.879	5.06
510.226	5.05
510.574	5.09
510.921	5.11
511.268	5.11
511.616	5.13
511.963	5.16
512.31	5.15
512.657	5.15
513.004	5.15
513.351	5.12
513.698	5.12
514.045	5.12
514.392	5.09
514.739	5.1
515.086	5.11
515.432	5.12
515.779	5.1
516.126	5.14
516.473	5.14
516.819	5.16
517.166	5.17
517.512	5.17
517.859	5.2
518.205	5.17
518.552	5.17
518.898	5.18
519.245	5.16
519.591	5.19
519.937	5.19
520.283	5.2
520.629	5.22
520.976	5.22
521.322	5.24
521.668	5.24
522.014	5.25
522.36	5.25
522.706	5.23
523.052	5.23
523.398	5.21
523.743	5.19
524.089	5.18
524.435	5.17
524.781	5.2
525.126	5.17
525.472	5.18
525.817	5.19
526.163	5.18
526.509	5.19
526.854	5.18
527.199	5.18
527.545	5.19
527.89	5.2
528.235	5.2
528.581	5.21
528.926	5.2
529.271	5.2
529.616	5.2
529.961	5.2
530.306	5.21
530.651	5.2
530.996	5.21
531.341	5.22
531.686	5.22
532.031	5.22
532.376	5.23
532.721	5.25
533.065	5.25
533.41	5.23
533.755	5.22
534.099	5.22
534.444	5.23
534.788	5.24
535.133	5.23
535.477	5.24
535.822	5.23
536.166	5.24
536.51	5.25
536.855	5.25
537.199	5.26
537.543	5.26
537.887	5.29
538.231	5.28
538.576	5.28
538.92	5.3
539.264	5.29
539.608	5.27
539.951	5.27
540.295	5.27
540.639	5.28
540.983	5.31
541.327	5.31
541.671	5.31
542.014	5.3
542.358	5.31
542.701	5.32
543.045	5.32
543.389	5.31
543.732	5.32
544.075	5.33
544.419	5.35
544.762	5.34
545.105	5.35
545.449	5.37
545.792	5.38
546.135	5.38
546.478	5.39
546.821	5.39
547.165	5.39
547.508	5.39
547.851	5.39
548.194	5.36
548.536	5.36
548.879	5.37
549.222	5.37
549.565	5.37
549.908	5.37
550.25	5.39
550.593	5.44
550.936	5.43
551.278	5.42
551.621	5.4
551.963	5.44
552.306	5.43
552.648	5.43
552.991	5.42
553.333	5.38
553.675	5.4
554.017	5.42
554.36	5.46
554.702	5.46
555.044	5.46
555.386	5.49
555.728	5.52
556.07	5.46
556.412	5.48
556.754	5.48
557.096	5.48
557.438	5.47
557.78	5.44
558.121	5.43
558.463	5.43
558.805	5.44
559.147	5.41
559.488	5.39
559.83	5.38
560.171	5.38
560.513	5.41
560.854	5.4
561.196	5.37
561.537	5.35
561.878	5.33
562.22	5.36
562.561	5.4
562.902	5.36
563.243	5.4
563.584	5.4
563.925	5.43
564.266	5.43
564.607	5.42
564.948	5.42
565.289	5.42
565.63	5.43
565.971	5.43
566.312	5.41
566.653	5.41
566.993	5.41
567.334	5.41
567.675	5.44
568.015	5.42
568.356	5.42
568.696	5.42
569.037	5.43
569.377	5.43
569.718	5.4
570.058	5.41
570.398	5.42
570.739	5.4
571.079	5.39
571.419	5.39
571.759	5.38
572.099	5.38
572.439	5.41
572.779	5.41
573.119	5.39
573.459	5.41
573.799	5.43
574.139	5.43
574.479	5.43
574.819	5.41
575.158	5.44
575.498	5.45
575.838	5.43
576.177	5.43
576.517	5.42
576.856	5.41
577.196	5.41
577.535	5.43
577.875	5.41
578.214	5.41
578.553	5.43
578.893	5.45
579.232	5.51
579.571	5.45
579.91	5.45
580.25	5.46
580.589	5.46
580.928	5.45
581.267	5.46
581.606	5.47
581.945	5.42
582.283	5.4
582.622	5.42
582.961	5.41
583.3	5.43
583.639	5.4
583.977	5.41
584.316	5.41
584.654	5.4
584.993	5.43
585.332	5.43
585.67	5.4
586.008	5.43
586.347	5.37
586.685	5.38
587.024	5.39
587.362	5.39
587.7	5.36
588.038	5.37
588.376	5.39
588.715	5.38
589.053	5.43
589.391	5.46
589.729	5.44
590.067	5.48
590.404	5.47
590.742	5.49
591.08	5.49
591.418	5.49
591.756	5.51
592.093	5.49
592.431	5.52
592.769	5.53
593.106	5.49
593.444	5.53
593.781	5.58
594.119	5.58
594.456	5.63
594.793	5.65
595.131	5.64
595.468	5.67
595.805	5.67
596.143	5.67
596.48	5.66
596.817	5.68
597.154	5.7
597.491	5.7
597.828	5.71
598.165	5.73
598.502	5.72
598.839	5.7
599.176	5.71
599.512	5.69
599.849	5.7
600.186	5.69
600.523	5.69
600.859	5.68
601.196	5.7
601.532	5.67
601.869	5.67
602.205	5.66
602.542	5.65
602.878	5.68
603.215	5.67
603.551	5.67
603.887	5.65
604.223	5.62
604.56	5.59
604.896	5.65
605.232	5.62
605.568	5.65
605.904	5.66
606.24	5.71
606.576	5.66
606.912	5.67
607.248	5.7
607.583	5.71
607.919	5.74
608.255	5.76
608.591	5.77
608.926	5.76
609.262	5.76
609.597	5.75
609.933	5.73
610.268	5.77
610.604	5.77
610.939	5.79
611.275	5.77
611.61	5.77
611.945	5.7
612.281	5.75
612.616	5.77
612.951	5.76
613.286	5.72
613.621	5.73
613.956	5.73
614.291	5.73
614.626	5.65
614.961	5.58
615.296	5.6
615.631	5.59
615.966	5.66
616.3	5.68
616.635	5.67
616.97	5.64
617.304	5.6
617.639	5.57
617.973	5.55
618.308	5.56
618.642	5.58
618.977	5.61
619.311	5.61
619.646	5.62
619.98	5.64
620.314	5.65
620.648	5.65
620.983	5.66
621.317	5.65
621.651	5.72
621.985	5.76
622.319	5.65
622.653	5.61
622.987	5.52
623.321	5.56
623.655	5.59
623.988	5.65
624.322	5.72
624.656	5.81
624.99	5.85
625.323	5.87
625.657	5.87
625.99	5.87
626.324	5.84
626.657	5.8
626.991	5.82
627.324	5.81
627.658	5.8
627.991	5.81
628.324	5.82
628.657	5.84
628.991	5.84
629.324	5.87
629.657	5.85
629.99	5.9
630.323	5.91
630.656	5.91
630.989	5.9
631.322	5.85
631.655	5.83
631.987	5.8
632.32	5.79
632.653	5.79
632.986	5.8
633.318	5.79
633.651	5.81
633.984	5.82
634.316	5.8
634.649	5.84
634.981	5.78
635.313	5.72
635.646	5.66
635.978	5.72
636.31	5.75
636.643	5.82
636.975	5.86
637.307	5.81
637.639	5.79
637.971	5.74
638.303	5.72
638.635	5.7
638.967	5.79
639.299	5.79
639.631	5.8
639.963	5.78
640.295	5.84
640.626	5.85
640.958	5.84
641.29	5.88
641.621	5.83
641.953	5.83
642.285	5.91
642.616	5.99
642.948	5.94
643.279	5.93
643.61	5.98
643.942	5.95
644.273	5.95
644.604	6.02
644.936	6.09
645.267	6.1
645.598	6.08
645.929	5.98
646.26	5.97
646.591	6.04
646.922	6.08
647.253	6.04
647.584	5.98
647.915	5.94
648.245	5.99
648.576	6.09
648.907	6.16
649.238	6.11
649.568	6.09
649.899	6.1
650.229	6.16
650.56	6.14
650.89	6.14
651.221	6.17
651.551	6.14
651.882	6.08
652.212	6.05
652.542	6.07
652.872	6.14
653.203	6.17
653.533	6.2
653.863	6.24
654.193	6.22
654.523	6.17
654.853	6.2
655.183	6.15
655.513	6.15
655.843	6.15
656.172	6.19
656.502	6.08
656.832	6.02
657.162	5.95
657.491	5.95
657.821	5.88
658.15	5.9
658.48	5.88
658.809	5.9
659.139	5.96
659.468	5.94
659.798	5.97
660.127	6
660.456	5.91
660.785	5.86
661.115	5.81
661.444	5.97
661.773	5.97
662.102	5.93
662.431	5.9
662.76	5.85
663.089	5.91
663.418	6
663.747	6.02
664.076	6.12
664.404	6.14
664.733	6.2
665.062	6.15
665.39	6.17
665.719	6.24
666.048	6.2
666.376	6.19
666.705	6.1
667.033	6.04
667.362	6.08
667.69	6.11
668.018	6.22
668.347	6.18
668.675	6.21
669.003	6.23
669.331	6.27
669.659	6.2
669.987	6.11
670.315	6.16
670.643	6.17
670.971	6.13
671.299	6.05
671.627	6.08
671.955	6.07
672.283	6.04
672.61	6.04
672.938	6.11
673.266	6.16
673.593	6.18
673.921	6.22
674.249	6.23
674.576	6.28
674.904	6.13
675.231	6.15
675.558	6.18
675.886	6.17
676.213	6.13
676.54	6.26
676.867	6.33
677.195	6.33
677.522	6.39
677.849	6.41
678.176	6.37
678.503	6.42
678.83	6.44
679.157	6.45
679.484	6.39
679.81	6.32
680.137	6.37
680.464	6.35
680.791	6.39
681.117	6.4
681.444	6.37
681.771	6.46
682.097	6.34
682.424	6.32
682.75	6.35
683.077	6.32
683.403	6.36
683.729	6.29
684.056	6.32
684.382	6.34
684.708	6.25
685.034	6.3
685.36	6.2
685.686	6.14
686.012	6.14
686.339	6.14
686.664	6.17
686.99	6.06
687.316	6.05
687.642	6.03
687.968	6.04
688.294	5.96
688.619	6.01
688.945	6
689.271	6.03
689.596	6.07
689.922	6.14
690.247	6
690.573	6.07
690.898	5.95
691.224	5.88
691.549	5.95
691.874	6.01
692.2	6.07
692.525	6.13
692.85	6.1
693.175	6.15
693.5	6.18
693.825	6.33
694.15	6.36
694.475	6.31
694.8	6.27
695.125	6.3
695.45	6.25
695.775	6.31
696.099	6.29
696.424	6.24
696.749	6.24
697.073	6.22
697.398	6.23
697.723	6.28
698.047	6.28
698.372	6.29
698.696	6.27
699.02	6.25
699.345	6.29
699.669	6.32
699.993	6.45
700.318	6.43
700.642	6.38
700.966	6.4
701.29	6.41
701.614	6.35
701.938	6.38
702.262	6.45
702.586	6.47
702.91	6.46
703.234	6.41
703.557	6.42
703.881	6.54
704.205	6.51
704.529	6.36
704.852	6.29
705.176	6.41
705.499	6.47
705.823	6.52
706.146	6.56
706.47	6.54
706.793	6.42
707.117	6.43
707.44	6.35
707.763	6.4
708.086	6.46
708.409	6.62
708.733	6.64
709.056	6.69
709.379	6.56
709.702	6.66
710.025	6.84
710.348	6.87
710.671	6.93
710.993	6.82
711.316	7.06
711.639	7.11
711.962	7.12
712.284	7.11
712.607	7.1
712.93	7.07
713.252	7.02
713.575	7.06
713.897	7.03
714.22	7.03
714.542	7.05
714.864	6.9
715.187	6.68
715.509	6.75
715.831	6.78
716.153	6.81
716.475	6.67
716.798	6.68
717.12	6.59
717.442	6.47
717.764	6.57
718.085	6.52
718.407	6.68
718.729	6.6
719.051	6.49
719.373	6.52
719.695	6.59
720.016	6.59
720.338	6.66
720.659	6.68
720.981	6.84
721.302	6.96
721.624	7.12
721.945	7.22
722.267	7.22
722.588	7.12
722.909	7.28
723.231	7.26
723.552	7.15
723.873	7.22
724.194	7.38
724.515	7.44
724.836	7.35
725.157	7.3
725.478	7.28
725.799	7.52
726.12	7.44
726.441	7.36
726.762	7.29
727.083	7.25
727.403	7.15
727.724	7.24
728.045	6.95
728.365	6.89
728.686	6.91
729.006	6.81
729.327	6.76
729.647	6.68
729.967	6.82
730.288	6.94
730.608	6.97
730.928	7.05
731.249	7.21
731.569	7.11
731.889	6.86
732.209	6.82
732.529	6.74
732.849	6.83
733.169	6.91
733.489	6.9
733.809	6.85
734.129	7.17
734.448	6.92
734.768	6.79
735.088	6.82
735.408	6.87
735.727	6.83
736.047	6.88
736.366	6.92
736.686	6.66
737.005	6.65
737.325	6.68
737.644	6.33
737.963	6.09
738.283	6.19
738.602	6.41
738.921	6.41
739.24	6.4
739.56	6.47
739.879	6.13
740.198	6.21
740.517	6.16
740.836	5.86
741.155	6.08
741.473	6.42
741.792	6.52
742.111	6.59
742.43	6.88
742.748	7.04
743.067	7.14
743.386	7.19
743.704	7.03
744.023	7.1
744.341	7.41
744.66	7.2
744.978	7.34
745.297	7.21
745.615	7.31
745.933	7.2
746.252	7.13
746.57	7.44
746.888	7.72
747.206	7.72
747.524	7.74
747.842	7.6
748.16	7.71
748.478	7.62
748.796	7.43
749.114	7.4
749.432	7.23
749.749	7.1
750.067	7.07
750.385	7.04
750.703	6.83
751.02	6.97
751.338	7.01
751.655	6.91
751.973	6.88
752.29	6.88
752.608	6.88
752.925	6.67
753.242	6.63
753.56	6.38
753.877	6.24
754.194	6.52
754.511	6.32
754.828	5.99
755.145	5.98
755.462	6.18
755.779	6.15
756.096	6.49
756.413	6.69
756.73	7
757.047	7
757.364	6.94
757.68	6.64
757.997	7.02
758.314	7.15
758.63	7.32
758.947	7.65
759.264	7.87
759.58	8.07
759.896	8.04
760.213	8.25
760.529	8.47
760.846	8.36
761.162	8.28
761.478	8.29
761.794	8.7
762.11	8.74
762.426	8.48
762.743	8.22
763.059	8.01
763.375	7.93
763.69	8.07
764.006	8.22
764.322	8.38
764.638	8.46
764.954	8.61
765.27	8.65
765.585	8.4
765.901	8.22
766.216	8.08
766.532	8.35
766.848	8.07
767.163	7.84
767.478	7.77
767.794	7.96
768.109	8.03
768.424	7.58
768.74	7.59
769.055	7.8
769.37	7.76
769.685	7.9
770	7.69
770.315	7.8
770.63	7.52
770.945	7.28
771.26	7.17
771.575	6.72
771.89	6.69
772.205	6.91
772.52	6.7
772.834	7.18
773.149	7.08
773.464	7.5
773.778	7.71
774.093	7.58
774.407	7.58
774.722	7.82
775.036	8.19
775.351	8.17
775.665	8.29
775.979	8.18
776.293	8.16
776.608	8.34
776.922	8.11
777.236	8.43
777.55	8.21
777.864	7.93
778.178	8.32
778.492	8.1
778.806	8.26
779.12	8.61
779.434	8.28
779.747	8.41
780.061	7.9
780.375	8.51
780.689	8.67
781.002	8.93
781.316	9.1
781.629	8.75
781.943	8.85
782.256	8.52
782.57	8.92
782.883	9.12
783.196	9.35
783.51	9.22
783.823	9.21
784.136	9.91
784.449	10.21
784.762	9.95
785.075	10.05
785.388	9.61
785.701	9.84
786.014	9.94
786.327	9.73
786.64	10.28
786.953	9.07
787.266	8.96
787.578	8.58
787.891	8.02
788.204	8.2
788.516	8.05
788.829	7.96
789.141	8.36
789.454	8.14
789.766	8.39
790.079	8.43
790.391	8.55
790.703	8.44
791.016	8.52
791.328	8.21
791.64	8.06
791.952	8.15
792.264	7.86
792.576	7.67
792.888	7.29
793.2	7.02
793.512	7.67
793.824	7.62
794.136	8.25
794.448	8.21
794.76	8.26
795.071	8.2
795.383	8.65
795.695	7.75
796.006	7.46
796.318	7.28
796.629	7.27
796.941	7.08
797.252	6.53
797.564	6.76
797.875	7.05
798.186	7.78
798.497	7.74
798.809	7.78
799.12	8.24
799.431	8.07
799.742	8.73
800.053	8.66
800.364	9.27
800.675	8.82
800.986	9.33
801.297	9.04
801.608	8.3
801.918	8.16
802.229	8.44
802.54	8.61
802.851	8.86
803.161	9.1
803.472	9.43
803.782	10.34
804.093	9.73
804.403	9.55
804.714	9.24
805.024	9.29
805.334	9.12
805.645	8.89
805.955	9.18
806.265	8.59
806.575	8.52
806.885	8.51
807.195	8.85
807.505	9.08
807.815	9.29
808.125	10.32
808.435	9.99
808.745	9.82
809.055	10.27
809.365	10.2
809.674	9.89
809.984	9.81
810.294	9.45
810.603	8.68
810.913	9
811.222	8.39
811.532	8.59
811.841	8.8
812.151	9
812.46	9.2
812.769	9.23
813.079	9.74
813.388	9.59
813.697	9.05
814.006	8.15
814.315	7.15
814.624	6.75
814.933	6.71
815.242	7.23
815.551	7.13
815.86	6.88
816.169	6.86
816.478	6.61
816.786	6.23
817.095	7.36
817.404	7.5
817.712	8.16
818.021	8.33
818.33	8.18
818.638	8.2
818.947	8.22
819.255	8.09
819.563	7.84
819.872	7.52
820.18	8.07
820.488	8.44
820.796	9.11
821.105	9.23
821.413	9.59
821.721	9.47
822.029	9.36
822.337	9.3
822.645	9.42
822.953	9.3
823.26	9.41
823.568	9.57
823.876	9.51
824.184	9.38
824.491	9.21
824.799	9.15
825.107	9.21
825.414	9.23
825.722	9.38
826.029	9.53
826.337	9.69
826.644	9.49
826.951	9.46
827.259	9.37
827.566	9.3
827.873	8.87
828.18	8.97
828.488	9.01
828.795	8.7
829.102	8.67
829.409	8.7
829.716	8.63
830.023	8.38
830.329	8.48
830.636	8.59
830.943	8.63
831.25	9.34
831.557	8.69
831.863	9.16
832.17	9.14
832.476	8.94
832.783	8.96
833.089	9.3
833.396	9.18
833.702	9.14
834.009	9.03
834.315	9.62
834.621	9.8
834.928	9.68
835.234	10.17
835.54	10.01
835.846	10.54
836.152	10.62
836.458	10.96
836.764	11.69
837.07	11.69
837.376	12.19
837.682	11.57
837.988	12.2
838.293	11.63
838.599	11.15
838.905	10.67
839.211	10.74
839.516	10.48
839.822	10.66
840.127	10.89
840.433	11.71
840.738	12.47
841.044	12.08
841.349	11.69
841.654	11.63
841.959	12.02
842.265	11.19
842.57	11.05
842.875	10.22
843.18	8.27
843.485	8.7
843.79	8.29
844.095	7.9
844.4	8.53
844.705	9.67
845.01	10.52
845.315	12.22
845.619	12.64
845.924	12.18
846.229	12.58
846.533	12.4
846.838	12.93
847.142	10.82
847.447	10.81
847.751	12.58
848.056	13.33
848.36	14.87
848.664	14.83
848.969	14.92
849.273	13.62
849.577	13.61
849.881	13.7
850.185	11.46
850.489	12.26
850.794	13.62
851.097	11.31
851.401	10.85
851.705	9.65
852.009	9.43
852.313	9.05
852.617	7.95
852.92	8.32
853.224	8.65
853.528	7.78
853.831	10.32
854.135	11.81
854.438	10.29
854.742	8.31
855.045	7.97
855.349	7.31
855.652	10.17
855.955	11.37
856.259	13.06
856.562	14.8
856.865	16.76
857.168	12.43
857.471	14.27
857.774	14.87
858.077	16.91
858.38	16.95
858.683	17.81
858.986	16.8
859.289	15.42
859.592	13.62
859.894	12.78
860.197	7.63
860.5	5.16
860.802	6.67
861.105	6.38
861.407	6.72
861.71	7.26
862.012	3.22
862.315	3.61
862.617	2.08
862.919	2.8
863.222	-1.13
863.524	-0.29
863.826	-1.04
864.128	0.89
864.43	0.67
864.732	0.49
865.034	2.05
865.336	4.58
865.638	6.32
865.94	7.57
866.242	10.62
866.544	12.83
866.846	14.37
867.147	13.8
867.449	14.93
867.751	18.83
868.052	21.01
868.354	21.44
868.655	20.09
868.957	18.73
869.258	17.8
869.56	20.15
869.861	17.93
870.162	18.23
870.463	16.29
870.765	15.83
871.066	15.75
871.367	12.94
871.668	11.07
871.969	7.73
872.27	6.06
872.571	7.83
872.872	7.35
873.173	6.84
873.473	6.81
873.774	8.01
874.075	5.93
874.376	3.67
874.676	5.62
874.977	6.72
875.277	6.81
875.578	7.64
875.878	7.58
876.179	9.87
876.479	8.33
876.78	7.64
877.08	7.43
877.38	6.42
877.68	8.4
877.981	10.09
878.281	13.93
878.581	14.72
