Data from BA53509_Reflection_00007.txt Node
Date: Tue Nov 19 11:46:33 EST 2019
User: vgr7
Spectrometer: USB2G7710
Scans to average: 3
Trigger mode: 4
Integration Time (sec): 2.000000E-2
Electric dark correction enabled: true
Boxcar width: 10
XAxis mode: Wavelengths
Number of Pixels in Spectrum: 2048
>>>>>Begin Spectral Data<<<<<
177.721	341.62
178.105	1808.33
178.488	231.04
178.871	-38.1
179.254	-106.67
179.636	24.8
180.019	-2.15
180.402	166.67
180.785	-113.73
181.168	244.65
181.55	23.17
181.933	35.73
182.316	24.95
182.698	-12.77
183.081	-117.51
183.463	-66.67
183.846	256.08
184.228	181.56
184.611	-1430.3
184.993	220.29
185.376	173.5
185.758	272.78
186.14	215.69
186.522	79.83
186.904	7.41
187.287	-16.35
187.669	31.75
188.051	28.05
188.433	-38.34
188.815	-23.89
189.197	-6.44
189.579	-35.22
189.961	-35.08
190.342	-25.95
190.724	-34.29
191.106	-38.63
191.488	-48.22
191.869	-60.67
192.251	-71.51
192.633	-61.57
193.014	-51.37
193.396	-63.77
193.777	-57.91
194.159	-48.31
194.54	-40.03
194.922	-40.62
195.303	-43.91
195.684	-56.11
196.065	-57.91
196.447	-38.85
196.828	-28.29
197.209	-28.58
197.59	-20.01
197.971	-17.98
198.352	-21.51
198.733	3.96
199.114	31.28
199.495	40.6
199.876	39.55
200.257	37.54
200.638	40.91
201.018	8.88
201.399	26.77
201.78	65.53
202.16	138.56
202.541	154.78
202.922	135.13
203.302	127.44
203.683	153.94
204.063	264.76
204.444	121.94
204.824	110.22
205.204	89.81
205.585	83.06
205.965	66.53
206.345	63.59
206.725	49.43
207.106	32.76
207.486	28.13
207.866	27.19
208.246	53.52
208.626	47.86
209.006	55.82
209.386	44.05
209.766	30.68
210.145	13.51
210.525	15.97
210.905	19.65
211.285	15.95
211.664	18.39
212.044	7.51
212.424	8.24
212.803	-12.34
213.183	-8.26
213.562	7.28
213.942	2.94
214.321	6.77
214.701	-10.77
215.08	0.25
215.459	24.72
215.838	34.31
216.218	-3.89
216.597	4.95
216.976	-8.94
217.355	-3.1
217.734	-27.51
218.113	-40.34
218.492	-42.03
218.871	-59.93
219.25	-48.78
219.629	-65.42
220.008	-56.84
220.387	-61.36
220.766	-28.59
221.144	-13.05
221.523	-20.96
221.902	-15.56
222.28	-8.28
222.659	9.2
223.037	0.14
223.416	2.32
223.794	4.31
224.173	10.91
224.551	10.09
224.929	13.65
225.308	12.26
225.686	17.01
226.064	16.13
226.442	9.74
226.821	9.32
227.199	6.53
227.577	4.41
227.955	3.33
228.333	3.79
228.711	1.24
229.089	-0.47
229.467	0.55
229.845	-0.74
230.222	-0.22
230.6	-5.16
230.978	-0.96
231.356	-4.93
231.733	-5.23
232.111	0.91
232.488	1.51
232.866	2.42
233.243	1.84
233.621	5.19
233.998	6.08
234.376	8.57
234.753	9.7
235.13	9.68
235.508	11.91
235.885	9.77
236.262	8.03
236.639	7.53
237.016	7.75
237.393	7.16
237.77	7.23
238.147	6.4
238.524	6.85
238.901	5.95
239.278	5.49
239.655	5.83
240.032	3.98
240.409	3.83
240.785	3.6
241.162	3.35
241.539	2.94
241.915	2.78
242.292	3.08
242.668	3.19
243.045	3.92
243.421	4.29
243.798	5.03
244.174	5.49
244.551	5.5
244.927	5.54
245.303	5.59
245.679	5.72
246.056	5.93
246.432	5.98
246.808	6.2
247.184	6.48
247.56	6.24
247.936	6.66
248.312	6.86
248.688	6.73
249.064	7
249.44	6.66
249.815	6.78
250.191	6.79
250.567	6.54
250.943	6.32
251.318	6.12
251.694	5.69
252.069	5.57
252.445	5.54
252.82	5.42
253.196	5.2
253.571	5.01
253.947	5.03
254.322	4.73
254.697	4.49
255.073	4.78
255.448	4.92
255.823	4.7
256.198	4.72
256.573	4.94
256.948	4.7
257.323	5.11
257.698	5.03
258.073	5.02
258.448	5.31
258.823	5.12
259.198	5.11
259.573	5.23
259.948	5.37
260.322	5.25
260.697	5.34
261.072	5.53
261.446	5.56
261.821	5.39
262.195	5.66
262.57	5.68
262.944	5.67
263.319	5.53
263.693	5.47
264.067	5.56
264.442	5.42
264.816	5.35
265.19	5.33
265.564	5.36
265.938	5.08
266.313	4.9
266.687	5.04
267.061	5.09
267.435	5.32
267.809	5.14
268.183	5.3
268.556	5.13
268.93	4.99
269.304	4.98
269.678	5.06
270.051	5.06
270.425	5.02
270.799	4.83
271.172	4.87
271.546	4.8
271.919	4.71
272.293	4.96
272.666	5.11
273.04	4.95
273.413	4.86
273.787	4.93
274.16	4.88
274.533	4.92
274.906	4.85
275.279	4.85
275.653	4.8
276.026	4.72
276.399	4.78
276.772	4.82
277.145	4.74
277.518	4.57
277.891	4.54
278.263	4.57
278.636	4.64
279.009	4.77
279.382	4.86
279.755	4.72
280.127	4.64
280.5	4.52
280.872	4.74
281.245	4.74
281.617	4.91
281.99	4.85
282.362	4.87
282.735	5.04
283.107	4.91
283.479	5.02
283.852	5.11
284.224	5.15
284.596	5.16
284.968	5.1
285.34	5.3
285.713	5.38
286.085	5.28
286.457	5.26
286.829	5.13
287.201	5.15
287.572	5.31
287.944	5.32
288.316	5.33
288.688	5.31
289.06	5.37
289.431	5.47
289.803	5.8
290.175	5.81
290.546	5.56
290.918	5.54
291.289	5.52
291.661	5.46
292.032	5.59
292.403	5.67
292.775	5.87
293.146	5.86
293.517	5.71
293.889	5.82
294.26	5.83
294.631	5.99
295.002	6.1
295.373	6.08
295.744	6.14
296.115	6.32
296.486	6.37
296.857	6.55
297.228	6.39
297.599	6.23
297.97	6.27
298.34	6.51
298.711	6.56
299.082	6.66
299.452	6.81
299.823	6.71
300.194	6.67
300.564	6.65
300.935	6.61
301.305	6.77
301.676	6.81
302.046	6.9
302.416	6.87
302.787	6.75
303.157	6.81
303.527	6.94
303.897	6.88
304.267	6.83
304.637	6.72
305.008	6.81
305.378	7.04
305.748	7.08
306.117	7.05
306.487	7.27
306.857	7.24
307.227	7.27
307.597	7.32
307.967	7.49
308.336	7.63
308.706	7.73
309.076	7.8
309.445	7.93
309.815	7.94
310.184	7.99
310.554	8.09
310.923	8.12
311.293	8.1
311.662	8.29
312.031	8.36
312.401	8.35
312.77	8.43
313.139	8.21
313.508	8.34
313.877	8.34
314.246	8.37
314.616	8.56
314.985	8.66
315.353	8.92
315.722	9.01
316.091	9.09
316.46	9.2
316.829	9.37
317.198	9.53
317.567	9.67
317.935	9.68
318.304	9.9
318.672	10.03
319.041	10.18
319.41	10.3
319.778	10.37
320.147	10.67
320.515	10.87
320.883	11.3
321.252	11.39
321.62	11.41
321.988	11.46
322.357	11.34
322.725	11.27
323.093	11.16
323.461	11.1
323.829	10.99
324.197	11
324.565	10.96
324.933	10.82
325.301	10.73
325.669	10.74
326.037	10.65
326.405	10.78
326.772	10.72
327.14	10.59
327.508	10.78
327.875	10.71
328.243	10.83
328.61	10.77
328.978	10.65
329.346	10.73
329.713	10.75
330.08	10.99
330.448	11.13
330.815	11.26
331.182	11.07
331.55	11.37
331.917	11.44
332.284	11.52
332.651	11.64
333.018	11.81
333.385	11.93
333.752	11.97
334.119	11.97
334.486	12.16
334.853	12.28
335.22	12.15
335.587	12.11
335.954	11.88
336.32	12.01
336.687	12.19
337.054	12.27
337.42	12.23
337.787	12.08
338.153	12.05
338.52	12.12
338.886	12.34
339.253	12.22
339.619	12.22
339.986	12.21
340.352	12.28
340.718	12.24
341.084	12.32
341.451	12.35
341.817	12.25
342.183	12.06
342.549	12.12
342.915	12.16
343.281	12.28
343.647	12.44
344.013	12.35
344.379	12.33
344.745	12.42
345.11	12.59
345.476	12.71
345.842	12.71
346.208	12.61
346.573	12.65
346.939	12.68
347.304	12.78
347.67	12.65
348.035	12.67
348.401	12.64
348.766	12.6
349.132	12.65
349.497	12.7
349.862	12.91
350.228	12.88
350.593	12.83
350.958	12.82
351.323	12.7
351.688	12.77
352.053	12.71
352.418	12.68
352.783	12.49
353.148	12.53
353.513	12.56
353.878	12.52
354.243	12.45
354.608	12.55
354.972	12.45
355.337	12.58
355.702	12.45
356.066	12.51
356.431	12.59
356.795	12.56
357.16	12.56
357.524	12.44
357.889	12.37
358.253	12.34
358.618	12.34
358.982	12.31
359.346	12.32
359.71	12.27
360.075	12.21
360.439	12.26
360.803	12.13
361.167	12.13
361.531	12.18
361.895	12.12
362.259	12
362.623	12.03
362.987	11.94
363.351	11.88
363.714	11.84
364.078	11.78
364.442	11.69
364.806	11.67
365.169	11.65
365.533	11.74
365.896	11.84
366.26	11.72
366.623	11.74
366.987	11.58
367.35	11.65
367.714	11.66
368.077	11.56
368.44	11.53
368.803	11.52
369.167	11.46
369.53	11.46
369.893	11.46
370.256	11.33
370.619	11.27
370.982	11.29
371.345	11.25
371.708	11.15
372.071	11.09
372.434	10.96
372.797	10.91
373.159	10.78
373.522	10.6
373.885	10.6
374.247	10.54
374.61	10.58
374.973	10.48
375.335	10.4
375.698	10.34
376.06	10.3
376.423	10.18
376.785	10.1
377.147	10.04
377.51	9.99
377.872	9.93
378.234	9.97
378.596	10.01
378.958	9.98
379.321	9.95
379.683	9.95
380.045	9.92
380.407	9.84
380.769	9.77
381.13	9.74
381.492	9.68
381.854	9.68
382.216	9.63
382.578	9.61
382.939	9.56
383.301	9.56
383.663	9.54
384.024	9.46
384.386	9.4
384.747	9.33
385.109	9.26
385.47	9.3
385.832	9.22
386.193	9.09
386.554	8.96
386.916	8.97
387.277	8.91
387.638	8.91
387.999	8.91
388.36	8.86
388.721	8.88
389.082	8.88
389.443	8.8
389.804	8.73
390.165	8.66
390.526	8.61
390.887	8.53
391.248	8.45
391.609	8.47
391.969	8.46
392.33	8.44
392.691	8.4
393.051	8.31
393.412	8.25
393.772	8.24
394.133	8.24
394.493	8.19
394.854	8.13
395.214	8.01
395.574	8
395.935	7.93
396.295	7.87
396.655	7.8
397.015	7.78
397.376	7.71
397.736	7.65
398.096	7.61
398.456	7.58
398.816	7.57
399.176	7.49
399.535	7.44
399.895	7.38
400.255	7.34
400.615	7.34
400.975	7.28
401.334	7.2
401.694	7.18
402.054	7.15
402.413	7.14
402.773	7.17
403.132	7.09
403.492	7.06
403.851	7.01
404.211	7.02
404.57	6.96
404.929	6.92
405.288	6.88
405.648	6.85
406.007	6.81
406.366	6.8
406.725	6.79
407.084	6.76
407.443	6.76
407.802	6.72
408.161	6.67
408.52	6.66
408.879	6.64
409.238	6.61
409.596	6.56
409.955	6.58
410.314	6.55
410.673	6.53
411.031	6.51
411.39	6.5
411.748	6.45
412.107	6.44
412.465	6.46
412.824	6.43
413.182	6.42
413.54	6.41
413.899	6.37
414.257	6.36
414.615	6.33
414.974	6.29
415.332	6.28
415.69	6.26
416.048	6.22
416.406	6.19
416.764	6.17
417.122	6.15
417.48	6.1
417.838	6.09
418.195	6.08
418.553	6.04
418.911	5.99
419.269	5.95
419.626	5.93
419.984	5.9
420.342	5.9
420.699	5.85
421.057	5.83
421.414	5.8
421.772	5.78
422.129	5.75
422.486	5.75
422.844	5.74
423.201	5.71
423.558	5.69
423.915	5.69
424.273	5.66
424.63	5.65
424.987	5.63
425.344	5.59
425.701	5.56
426.058	5.55
426.415	5.53
426.772	5.52
427.128	5.5
427.485	5.48
427.842	5.46
428.199	5.47
428.555	5.47
428.912	5.45
429.269	5.42
429.625	5.43
429.982	5.41
430.338	5.38
430.695	5.39
431.051	5.4
431.407	5.37
431.764	5.36
432.12	5.37
432.476	5.38
432.832	5.39
433.189	5.38
433.545	5.39
433.901	5.4
434.257	5.4
434.613	5.4
434.969	5.4
435.325	5.4
435.681	5.4
436.036	5.37
436.392	5.39
436.748	5.39
437.104	5.37
437.459	5.36
437.815	5.39
438.171	5.38
438.526	5.39
438.882	5.39
439.237	5.38
439.593	5.37
439.948	5.36
440.304	5.36
440.659	5.37
441.014	5.35
441.369	5.34
441.725	5.35
442.08	5.34
442.435	5.35
442.79	5.34
443.145	5.32
443.5	5.33
443.855	5.3
444.21	5.29
444.565	5.29
444.92	5.29
445.275	5.26
445.629	5.26
445.984	5.23
446.339	5.22
446.693	5.24
447.048	5.22
447.403	5.2
447.757	5.18
448.112	5.18
448.466	5.21
448.82	5.2
449.175	5.17
449.529	5.17
449.883	5.14
450.238	5.14
450.592	5.14
450.946	5.13
451.3	5.15
451.654	5.14
452.008	5.13
452.362	5.09
452.716	5.09
453.07	5.1
453.424	5.09
453.778	5.09
454.132	5.04
454.486	5.04
454.839	5.03
455.193	5.05
455.547	5.05
455.9	5.02
456.254	5.02
456.607	5.02
456.961	5.02
457.314	5.03
457.668	5.01
458.021	5.01
458.375	5
458.728	5
459.081	5
459.434	4.99
459.787	5.01
460.141	5.02
460.494	5.02
460.847	5.04
461.2	5.03
461.553	5.05
461.906	5.06
462.259	5.08
462.611	5.06
462.964	5.07
463.317	5.09
463.67	5.11
464.022	5.14
464.375	5.14
464.728	5.14
465.08	5.16
465.433	5.16
465.785	5.2
466.138	5.22
466.49	5.24
466.843	5.28
467.195	5.31
467.547	5.3
467.899	5.31
468.252	5.34
468.604	5.36
468.956	5.38
469.308	5.38
469.66	5.36
470.012	5.4
470.364	5.4
470.716	5.39
471.068	5.39
471.42	5.39
471.772	5.42
472.123	5.45
472.475	5.47
472.827	5.47
473.178	5.47
473.53	5.47
473.882	5.48
474.233	5.49
474.585	5.49
474.936	5.49
475.288	5.5
475.639	5.49
475.99	5.47
476.342	5.5
476.693	5.49
477.044	5.51
477.395	5.48
477.746	5.47
478.097	5.47
478.448	5.46
478.8	5.41
479.15	5.38
479.501	5.36
479.852	5.35
480.203	5.34
480.554	5.32
480.905	5.31
481.255	5.31
481.606	5.31
481.957	5.31
482.307	5.33
482.658	5.33
483.009	5.33
483.359	5.33
483.709	5.32
484.06	5.34
484.41	5.34
484.761	5.35
485.111	5.35
485.461	5.36
485.811	5.35
486.162	5.36
486.512	5.38
486.862	5.39
487.212	5.39
487.562	5.4
487.912	5.42
488.262	5.44
488.612	5.45
488.961	5.45
489.311	5.45
489.661	5.44
490.011	5.45
490.36	5.45
490.71	5.47
491.06	5.48
491.409	5.48
491.759	5.49
492.108	5.5
492.458	5.5
492.807	5.53
493.157	5.57
493.506	5.61
493.855	5.61
494.204	5.63
494.554	5.65
494.903	5.68
495.252	5.68
495.601	5.72
495.95	5.76
496.299	5.81
496.648	5.85
496.997	5.92
497.346	5.96
497.695	6.01
498.043	6.05
498.392	6.12
498.741	6.15
499.09	6.19
499.438	6.25
499.787	6.32
500.135	6.34
500.484	6.37
500.832	6.42
501.181	6.52
501.529	6.6
501.878	6.66
502.226	6.73
502.574	6.82
502.923	6.87
503.271	6.9
503.619	6.95
503.967	7
504.315	7.06
504.663	7.13
505.011	7.22
505.359	7.25
505.707	7.29
506.055	7.38
506.403	7.47
506.751	7.54
507.098	7.61
507.446	7.67
507.794	7.75
508.141	7.82
508.489	7.9
508.837	7.96
509.184	8.07
509.531	8.15
509.879	8.24
510.226	8.33
510.574	8.41
510.921	8.51
511.268	8.6
511.616	8.67
511.963	8.72
512.31	8.8
512.657	8.93
513.004	9.01
513.351	9.09
513.698	9.2
514.045	9.28
514.392	9.4
514.739	9.53
515.086	9.66
515.432	9.77
515.779	9.86
516.126	9.99
516.473	10.08
516.819	10.17
517.166	10.25
517.512	10.33
517.859	10.43
518.205	10.5
518.552	10.6
518.898	10.7
519.245	10.85
519.591	10.94
519.937	11.04
520.283	11.17
520.629	11.28
520.976	11.39
521.322	11.54
521.668	11.64
522.014	11.77
522.36	11.86
522.706	11.98
523.052	12.13
523.398	12.26
523.743	12.39
524.089	12.55
524.435	12.71
524.781	12.86
525.126	13
525.472	13.15
525.817	13.26
526.163	13.38
526.509	13.47
526.854	13.58
527.199	13.7
527.545	13.81
527.89	13.91
528.235	14.02
528.581	14.12
528.926	14.24
529.271	14.36
529.616	14.47
529.961	14.6
530.306	14.72
530.651	14.86
530.996	15.02
531.341	15.19
531.686	15.36
532.031	15.53
532.376	15.69
532.721	15.86
533.065	16.03
533.41	16.23
533.755	16.42
534.099	16.62
534.444	16.8
534.788	16.96
535.133	17.15
535.477	17.34
535.822	17.54
536.166	17.75
536.51	17.97
536.855	18.21
537.199	18.47
537.543	18.72
537.887	18.97
538.231	19.18
538.576	19.38
538.92	19.59
539.264	19.79
539.608	20.01
539.951	20.21
540.295	20.42
540.639	20.58
540.983	20.77
541.327	20.98
541.671	21.17
542.014	21.38
542.358	21.58
542.701	21.77
543.045	21.93
543.389	22.12
543.732	22.31
544.075	22.52
544.419	22.72
544.762	22.91
545.105	23.14
545.449	23.37
545.792	23.63
546.135	23.9
546.478	24.2
546.821	24.48
547.165	24.76
547.508	25.04
547.851	25.35
548.194	25.63
548.536	25.85
548.879	26.14
549.222	26.41
549.565	26.69
549.908	26.96
550.25	27.3
550.593	27.58
550.936	27.88
551.278	28.14
551.621	28.39
551.963	28.68
552.306	28.95
552.648	29.24
552.991	29.53
553.333	29.8
553.675	30.04
554.017	30.26
554.36	30.53
554.702	30.8
555.044	31.07
555.386	31.3
555.728	31.63
556.07	31.87
556.412	32.14
556.754	32.43
557.096	32.7
557.438	32.97
557.78	33.2
558.121	33.49
558.463	33.78
558.805	34.1
559.147	34.39
559.488	34.66
559.83	34.96
560.171	35.16
560.513	35.41
560.854	35.67
561.196	35.92
561.537	36.12
561.878	36.39
562.22	36.67
562.561	36.96
562.902	37.15
563.243	37.34
563.584	37.56
563.925	37.83
564.266	38.07
564.607	38.3
564.948	38.57
565.289	38.78
565.63	38.97
565.971	39.17
566.312	39.33
566.653	39.52
566.993	39.64
567.334	39.86
567.675	40.02
568.015	40.18
568.356	40.4
568.696	40.6
569.037	40.76
569.377	40.91
569.718	41.08
570.058	41.3
570.398	41.55
570.739	41.73
571.079	41.84
571.419	42
571.759	42.11
572.099	42.26
572.439	42.4
572.779	42.61
573.119	42.77
573.459	42.99
573.799	43.13
574.139	43.31
574.479	43.52
574.819	43.72
575.158	43.97
575.498	44.06
575.838	44.25
576.177	44.43
576.517	44.59
576.856	44.74
577.196	44.83
577.535	44.99
577.875	45.17
578.214	45.38
578.553	45.51
578.893	45.78
579.232	45.98
579.571	46.13
579.91	46.22
580.25	46.39
580.589	46.44
580.928	46.61
581.267	46.73
581.606	46.74
581.945	46.8
582.283	46.8
582.622	47.01
582.961	47.18
583.3	47.28
583.639	47.39
583.977	47.47
584.316	47.65
584.654	47.73
584.993	47.78
585.332	47.83
585.67	48.04
586.008	48.01
586.347	48.04
586.685	48.15
587.024	48.23
587.362	48.38
587.7	48.51
588.038	48.52
588.376	48.57
588.715	48.73
589.053	48.84
589.391	48.94
589.729	49.02
590.067	49.06
590.404	49.18
590.742	49.26
591.08	49.4
591.418	49.44
591.756	49.46
592.093	49.61
592.431	49.71
592.769	49.67
593.106	49.77
593.444	49.85
593.781	49.93
594.119	49.98
594.456	49.97
594.793	50.05
595.131	50.14
595.468	50.3
595.805	50.38
596.143	50.48
596.48	50.57
596.817	50.62
597.154	50.74
597.491	50.76
597.828	50.81
598.165	50.85
598.502	50.97
598.839	51.15
599.176	51.13
599.512	51.16
599.849	51.26
600.186	51.3
600.523	51.31
600.859	51.33
601.196	51.48
601.532	51.55
601.869	51.57
602.205	51.65
602.542	51.63
602.878	51.65
603.215	51.75
603.551	51.85
603.887	51.92
604.223	51.92
604.56	51.96
604.896	52.01
605.232	52
605.568	52.03
605.904	52.04
606.24	52.13
606.576	52.16
606.912	52.15
607.248	52.2
607.583	52.34
607.919	52.47
608.255	52.44
608.591	52.47
608.926	52.53
609.262	52.54
609.597	52.6
609.933	52.61
610.268	52.58
610.604	52.54
610.939	52.6
611.275	52.54
611.61	52.54
611.945	52.55
612.281	52.58
612.616	52.52
612.951	52.49
613.286	52.5
613.621	52.49
613.956	52.58
614.291	52.65
614.626	52.68
614.961	52.61
615.296	52.67
615.631	52.72
615.966	52.73
616.3	52.77
616.635	52.79
616.97	52.88
617.304	52.94
617.639	52.97
617.973	52.93
618.308	53.08
618.642	53.19
618.977	53.21
619.311	53.23
619.646	53.34
619.98	53.39
620.314	53.43
620.648	53.52
620.983	53.56
621.317	53.56
621.651	53.54
621.985	53.55
622.319	53.48
622.653	53.53
622.987	53.63
623.321	53.74
623.655	53.76
623.988	53.83
624.322	53.85
624.656	53.81
624.99	53.75
625.323	53.79
625.657	53.78
625.99	53.94
626.324	54.02
626.657	54.06
626.991	54.09
627.324	54.06
627.658	54.12
627.991	54.08
628.324	54.17
628.657	54.21
628.991	54.28
629.324	54.38
629.657	54.46
629.99	54.44
630.323	54.47
630.656	54.49
630.989	54.39
631.322	54.4
631.655	54.51
631.987	54.61
632.32	54.67
632.653	54.68
632.986	54.63
633.318	54.69
633.651	54.68
633.984	54.71
634.316	54.83
634.649	54.8
634.981	54.93
635.313	54.94
635.646	54.9
635.978	54.97
636.31	54.97
636.643	55
636.975	54.98
637.307	54.88
637.639	54.92
637.971	55.06
638.303	55.08
638.635	55.13
638.967	55.09
639.299	55.12
639.631	55.22
639.963	55.22
640.295	55.14
640.626	55.17
640.958	55.17
641.29	55.12
641.621	55.09
641.953	55.07
642.285	55.05
642.616	55.02
642.948	54.93
643.279	55.02
643.61	54.93
643.942	54.99
644.273	55.01
644.604	55.03
644.936	55.08
645.267	55.01
645.598	54.99
645.929	55.06
646.26	54.93
646.591	54.88
646.922	54.93
647.253	54.96
647.584	54.89
647.915	54.89
648.245	54.81
648.576	54.78
648.907	54.83
649.238	54.78
649.568	54.75
649.899	54.77
650.229	54.78
650.56	54.77
650.89	54.74
651.221	54.88
651.551	54.82
651.882	54.8
652.212	54.79
652.542	54.81
652.872	54.8
653.203	54.88
653.533	54.98
653.863	55.04
654.193	55.05
654.523	55.14
654.853	55.24
655.183	55.34
655.513	55.51
655.843	55.52
656.172	55.58
656.502	55.78
656.832	55.77
657.162	55.69
657.491	55.7
657.821	55.76
658.15	55.64
658.48	55.58
658.809	55.59
659.139	55.63
659.468	55.62
659.798	55.72
660.127	55.69
660.456	55.68
660.785	55.5
661.115	55.47
661.444	55.36
661.773	55.27
662.102	55.29
662.431	55.22
662.76	55.2
663.089	55.2
663.418	55.1
663.747	55.14
664.076	55.18
664.404	55.19
664.733	55.21
665.062	55.24
665.39	55.31
665.719	55.25
666.048	55.32
666.376	55.28
666.705	55.3
667.033	55.38
667.362	55.18
667.69	55.29
668.018	55.44
668.347	55.54
668.675	55.55
669.003	55.5
669.331	55.51
669.659	55.55
669.987	55.55
670.315	55.5
670.643	55.46
670.971	55.59
671.299	55.56
671.627	55.62
671.955	55.59
672.283	55.69
672.61	55.64
672.938	55.67
673.266	55.79
673.593	55.72
673.921	55.59
674.249	55.74
674.576	55.85
674.904	55.63
675.231	55.7
675.558	55.72
675.886	55.86
676.213	55.85
676.54	55.85
676.867	55.94
677.195	56.06
677.522	56.06
677.849	56.08
678.176	56.17
678.503	56.22
678.83	56.28
679.157	56.22
679.484	56.35
679.81	56.34
680.137	56.42
680.464	56.52
680.791	56.55
681.117	56.53
681.444	56.64
681.771	56.92
682.097	56.96
682.424	56.96
682.75	56.84
683.077	56.85
683.403	56.75
683.729	56.67
684.056	56.67
684.382	56.77
684.708	56.7
685.034	56.78
685.36	56.66
685.686	56.6
686.012	56.58
686.339	56.57
686.664	56.51
686.99	56.38
687.316	56.14
687.642	56.25
687.968	56.4
688.294	56.24
688.619	56.14
688.945	56.1
689.271	56.19
689.596	56.29
689.922	56.32
690.247	56.47
690.573	56.42
690.898	56.43
691.224	56.39
691.549	56.33
691.874	56.23
692.2	56.23
692.525	56.42
692.85	56.47
693.175	56.45
693.5	56.38
693.825	56.44
694.15	56.65
694.475	56.51
694.8	56.38
695.125	56.38
695.45	56.31
695.775	56.31
696.099	56.25
696.424	56.36
696.749	56.46
697.073	56.5
697.398	56.62
697.723	56.58
698.047	56.71
698.372	56.75
698.696	56.74
699.02	56.69
699.345	56.76
699.669	56.79
699.993	56.8
700.318	57
700.642	56.91
700.966	56.84
701.29	56.99
701.614	56.99
701.938	57.05
702.262	57.14
702.586	57.24
702.91	57.15
703.234	57.08
703.557	57.14
703.881	57.2
704.205	57.18
704.529	57.18
704.852	56.9
705.176	57.05
705.499	57.1
705.823	57.13
706.146	57.08
706.47	57.1
706.793	57.2
707.117	57.01
707.44	57.08
707.763	57.31
708.086	57.15
708.409	57.23
708.733	57.2
709.056	57.18
709.379	57.16
709.702	57.3
710.025	57.19
710.348	57.22
710.671	57.16
710.993	57.16
711.316	57.13
711.639	57.24
711.962	57.13
712.284	57.41
712.607	57.55
712.93	57.43
713.252	57.42
713.575	57.49
713.897	57.45
714.22	57.45
714.542	57.26
714.864	57.49
715.187	57.33
715.509	57.24
715.831	57.13
716.153	57.24
716.475	57.46
716.798	57.64
717.12	57.48
717.442	57.4
717.764	57.51
718.085	57.64
718.407	57.83
718.729	57.79
719.051	57.5
719.373	57.58
719.695	57.82
720.016	57.69
720.338	57.36
720.659	57.56
720.981	57.68
721.302	58.08
721.624	57.8
721.945	58.14
722.267	58.33
722.588	58.64
722.909	58.43
723.231	58.14
723.552	58.11
723.873	58.25
724.194	58.28
724.515	58
724.836	57.78
725.157	57.8
725.478	57.88
725.799	57.99
726.12	58.08
726.441	57.9
726.762	57.83
727.083	58.09
727.403	58.15
727.724	58.09
728.045	57.75
728.365	57.95
728.686	57.91
729.006	57.76
729.327	57.79
729.647	57.79
729.967	57.98
730.288	58.1
730.608	57.83
730.928	57.86
731.249	57.91
731.569	58.24
731.889	58.35
732.209	58.28
732.529	58.29
732.849	58.31
733.169	58.07
733.489	58.2
733.809	57.99
734.129	57.85
734.448	57.87
734.768	57.99
735.088	58.07
735.408	57.97
735.727	58.16
736.047	58.07
736.366	58.11
736.686	57.92
737.005	57.87
737.325	58.03
737.644	57.85
737.963	57.88
738.283	57.79
738.602	57.63
738.921	58.12
739.24	58.13
739.56	57.94
739.879	58.24
740.198	58.36
740.517	58.68
740.836	58.72
741.155	58.54
741.473	58.38
741.792	57.96
742.111	57.79
742.43	57.56
742.748	57.4
743.067	57.45
743.386	57.33
743.704	57.08
744.023	57.47
744.341	57.93
744.66	57.96
744.978	57.83
745.297	57.69
745.615	57.36
745.933	56.94
746.252	57.12
746.57	57.06
746.888	57.2
747.206	57
747.524	57.16
747.842	57.34
748.16	57.66
748.478	57.97
748.796	58.15
749.114	58.29
749.432	58.5
749.749	58.04
750.067	58.23
750.385	58.69
750.703	58.19
751.02	57.86
751.338	58.12
751.655	58.18
751.973	58.16
752.29	58.23
752.608	58.49
752.925	58.28
753.242	58.33
753.56	58.04
753.877	58.4
754.194	58.19
754.511	58.65
754.828	58.78
755.145	58.95
755.462	58.69
755.779	58.67
756.096	58.67
756.413	59
756.73	59.06
757.047	58.8
757.364	58.96
757.68	59.21
757.997	58.93
758.314	59.17
758.63	59.37
758.947	59.01
759.264	58.96
759.58	59.06
759.896	59.14
760.213	59.28
760.529	58.88
760.846	58.85
761.162	58.37
761.478	58.05
761.794	57.72
762.11	58.12
762.426	57.82
762.743	57.67
763.059	57.57
763.375	57.46
763.69	57.3
764.006	57.48
764.322	57.44
764.638	57.51
764.954	57.39
765.27	57.32
765.585	57.47
765.901	57.56
766.216	57.32
766.532	57.47
766.848	57.51
767.163	57.92
767.478	58.02
767.794	58
768.109	57.81
768.424	57.66
768.74	57.71
769.055	57.84
769.37	57.88
769.685	58
770	58.05
770.315	58.34
770.63	58.2
770.945	58.64
771.26	58.83
771.575	58.54
771.89	57.73
772.205	57.86
772.52	57.76
772.834	57.88
773.149	57.81
773.464	57.65
773.778	57.47
774.093	57.72
774.407	58.42
774.722	58.54
775.036	59.35
775.351	59.2
775.665	59.66
775.979	59.89
776.293	60.36
776.608	60.83
776.922	60.71
777.236	60.36
777.55	59.32
777.864	59.22
778.178	59.7
778.492	60.41
778.806	60.13
779.12	60.11
779.434	60.5
779.747	60.29
780.061	60.4
780.375	60.54
780.689	60.24
781.002	59.62
781.316	59.75
781.629	59.28
781.943	59.38
782.256	59.31
782.57	59.22
782.883	59.02
783.196	59.01
783.51	58.83
783.823	59
784.136	59.28
784.449	58.98
784.762	58.51
785.075	58.98
785.388	58.99
785.701	59.2
786.014	58.89
786.327	58.96
786.64	58.94
786.953	59.02
787.266	58.98
787.578	58.33
787.891	58.24
788.204	58.23
788.516	58.24
788.829	58.15
789.141	58.34
789.454	58.11
789.766	58.27
790.079	58.47
790.391	58.65
790.703	58.26
791.016	58.9
791.328	58.94
791.64	58.81
791.952	58.69
792.264	57.85
792.576	57.87
792.888	57.74
793.2	58.16
793.512	57.71
793.824	57.63
794.136	58.18
794.448	58.3
794.76	58.24
795.071	57.87
795.383	58.07
795.695	57.41
796.006	57.52
796.318	56.67
796.629	56.7
796.941	56.69
797.252	57.09
797.564	56.85
797.875	57.04
798.186	56.64
798.497	56.64
798.809	57.29
799.12	57.04
799.431	56.65
799.742	56.07
800.053	56.38
800.364	56.14
800.675	55.99
800.986	55.76
801.297	56.23
801.608	55.82
801.918	56.11
802.229	56.03
802.54	56.2
802.851	56.78
803.161	56.59
803.472	56.76
803.782	56.71
804.093	56.52
804.403	56.78
804.714	56.9
805.024	56.53
805.334	56.42
805.645	56.93
805.955	58.01
806.265	58.27
806.575	57.61
806.885	58.05
807.195	58.72
807.505	59
807.815	58.85
808.125	59.36
808.435	58.94
808.745	59.97
809.055	59.7
809.365	59
809.674	58.56
809.984	58.73
810.294	58.57
810.603	57.87
810.913	57.37
811.222	57.31
811.532	57.83
811.841	57.85
812.151	56.58
812.46	55.73
812.769	55.42
813.079	56.15
813.388	56.13
813.697	56.36
814.006	56.88
814.315	56.16
814.624	55.56
814.933	55.17
815.242	54.46
815.551	54.65
815.86	55.29
816.169	56.18
816.478	55.38
816.786	56.1
817.095	56.42
817.404	57.3
817.712	58
818.021	58.32
818.33	58.26
818.638	59.28
818.947	59.6
819.255	60.16
819.563	59.19
819.872	58.74
820.18	58.46
820.488	58.21
820.796	58.57
821.105	58.61
821.413	58.61
821.721	58.85
822.029	58.67
822.337	58.3
822.645	58.27
822.953	58.58
823.26	58.43
823.568	58.74
823.876	58.78
824.184	58.7
824.491	58.69
824.799	58.74
825.107	58.56
825.414	58.51
825.722	58.33
826.029	58.53
826.337	58.57
826.644	58.52
826.951	58.55
827.259	58.58
827.566	58.78
827.873	59.03
828.18	58.88
828.488	59.02
828.795	59.53
829.102	59.79
829.409	59.74
829.716	60.03
830.023	60.16
830.329	59.41
830.636	59.69
830.943	59.48
831.25	59.69
831.557	59.91
831.863	60.24
832.17	60.29
832.476	60.25
832.783	60.42
833.089	60.17
833.396	59.81
833.702	59.52
834.009	59.3
834.315	59.76
834.621	59.84
834.928	59.79
835.234	59.83
835.54	59.47
835.846	59.06
836.152	59
836.458	58.83
836.764	59.95
837.07	59.47
837.376	59.63
837.682	59.55
837.988	59.71
838.293	58.93
838.599	59.32
838.905	59.5
839.211	59.63
839.516	60.24
839.822	61.11
840.127	60.4
840.433	60.04
840.738	59.83
841.044	59.58
841.349	59.6
841.654	58.54
841.959	57.8
842.265	57.37
842.57	56.31
842.875	55.4
843.18	53.17
843.485	53.14
843.79	53.39
844.095	53.17
844.4	53.08
844.705	52.71
845.01	52.49
845.315	51.42
845.619	51.52
845.924	51.14
846.229	51.04
846.533	52.87
846.838	52.73
847.142	50.99
847.447	51.94
847.751	51.37
848.056	52.96
848.36	55.27
848.664	56.82
848.969	57.23
849.273	56.69
849.577	58.1
849.881	59.96
850.185	60.66
850.489	60.3
850.794	60.79
851.097	62.79
851.401	60.77
851.705	64.07
852.009	64.46
852.313	65.31
852.617	64.71
852.92	62.41
853.224	63.66
853.528	63.72
853.831	62.95
854.135	65.47
854.438	64.09
854.742	62.34
855.045	61.21
855.349	62.26
855.652	63.2
855.955	65.38
856.259	62.01
856.562	61.6
856.865	60.91
857.168	60.17
857.471	60.22
857.774	62.22
858.077	60.13
858.38	60.39
858.683	59.8
858.986	60.68
859.289	62.79
859.592	61.16
859.894	59.56
860.197	58.36
860.5	55.96
860.802	56.43
861.105	59.61
861.407	58.34
861.71	59.24
862.012	58.36
862.315	58.31
862.617	60.69
862.919	60.42
863.222	62.02
863.524	63.6
863.826	62.72
864.128	61.78
864.43	63.18
864.732	61.63
865.034	62.6
865.336	61.25
865.638	61.12
865.94	62.47
866.242	62.6
866.544	62.86
866.846	62.55
867.147	64.07
867.449	61.31
867.751	61.54
868.052	60.85
868.354	59.42
868.655	56.72
868.957	56.27
869.258	53.69
869.56	53.21
869.861	52.23
870.162	51.91
870.463	53.22
870.765	52.6
871.066	52.41
871.367	53.39
871.668	52.55
871.969	50.96
872.27	53.09
872.571	51.98
872.872	54.22
873.173	55.54
873.473	53.47
873.774	54.68
874.075	57.42
874.376	57.39
874.676	57.64
874.977	59.75
875.277	60.37
875.578	62.21
875.878	62.44
876.179	62.67
876.479	62.32
876.78	61.13
877.08	60.27
877.38	62.09
877.68	59.42
877.981	61.53
878.281	64.06
878.581	60.5
