Data from BA53411_Reflection_00006.txt Node
Date: Tue Nov 19 11:53:40 EST 2019
User: vgr7
Spectrometer: USB2G7710
Scans to average: 3
Trigger mode: 4
Integration Time (sec): 2.000000E-2
Electric dark correction enabled: true
Boxcar width: 10
XAxis mode: Wavelengths
Number of Pixels in Spectrum: 2048
>>>>>Begin Spectral Data<<<<<
177.721	34.37
178.105	-1.12
178.488	4.79
178.871	10.17
179.254	0
179.636	51.22
180.019	526.83
180.402	277.78
180.785	-388.24
181.168	-305.17
181.55	-85.95
181.933	4.91
182.316	92.96
182.698	25.15
183.081	-7.31
183.463	-26.56
183.846	-10.11
184.228	17.96
184.611	-9.2
184.993	-133.33
185.376	-123.18
185.758	-134.6
186.14	-96.55
186.522	2171.43
186.904	1600
187.287	-310.45
187.669	-553.85
188.051	-167.93
188.433	-104.45
188.815	-89.66
189.197	-97.67
189.579	-235.44
189.961	-481.63
190.342	-719.15
190.724	-273.95
191.106	-8066.67
191.488	282.54
191.869	84.66
192.251	75.84
192.633	81.17
193.014	62.69
193.396	35.68
193.777	25.34
194.159	141.4
194.54	134.03
194.922	93.15
195.303	17.39
195.684	-206.45
196.065	-146.84
196.447	-19.05
196.828	-130.16
197.209	-733.33
197.59	-131.18
197.971	-561.29
198.352	3266.67
198.733	-1223.53
199.114	266.67
199.495	251.38
199.876	256.49
200.257	128.96
200.638	128.8
201.018	210.78
201.399	232.91
201.78	67.29
202.16	2800
202.541	255.17
202.922	64.57
203.302	39.56
203.683	114.29
204.063	200
204.444	7.41
204.824	-57.14
205.204	69.39
205.585	513.04
205.965	105.38
206.345	-1309.09
206.725	491.89
207.106	157.52
207.486	200
207.866	421.92
208.246	247.4
208.626	-1031.58
209.006	2028.57
209.386	-14.46
209.766	84.21
210.145	2.23
210.525	-20.41
210.905	-41.51
211.285	-60.29
211.664	-89.36
212.044	-71.36
212.424	-68.2
212.803	-55.17
213.183	-87.8
213.562	-46.51
213.942	-101.66
214.321	-82.54
214.701	-26.87
215.08	-47.58
215.459	-104.43
215.838	-43.6
216.218	33.86
216.597	78.26
216.976	-86.27
217.355	67.53
217.734	21.05
218.113	5.41
218.492	-400
218.871	-333.33
219.25	-187.88
219.629	-934.88
220.008	-11066.67
220.387	-361.9
220.766	-78.2
221.144	-130.94
221.523	-174.87
221.902	-214.37
222.28	-129.82
222.659	-58.93
223.037	-57.96
223.416	-50.57
223.794	-17.7
224.173	-8.7
224.551	3.89
224.929	12.15
225.308	13.79
225.686	3.47
226.064	-1.01
226.442	4.56
226.821	9.89
227.199	7.69
227.577	13.72
227.955	13.05
228.333	12.96
228.711	7.78
229.089	5
229.467	5.5
229.845	5.62
230.222	9.6
230.6	5.3
230.978	3.58
231.356	-3.53
231.733	-2.74
232.111	-2.88
232.488	-3.28
232.866	-4.4
233.243	-1.03
233.621	1.77
233.998	-1.32
234.376	-0.91
234.753	-0
235.13	-1.25
235.508	-1.88
235.885	-0.79
236.262	-2.54
236.639	-1.61
237.016	0.31
237.393	2.95
237.77	4.04
238.147	3.33
238.524	3.32
238.901	2.96
239.278	4.96
239.655	4.53
240.032	4.86
240.409	5.17
240.785	5.82
241.162	5.78
241.539	5.94
241.915	6.72
242.292	7.17
242.668	7.62
243.045	8.38
243.421	8.59
243.798	8.71
244.174	9.25
244.551	9.32
244.927	9.13
245.303	8.44
245.679	8.48
246.056	8.58
246.432	8.82
246.808	8.87
247.184	8.6
247.56	8.31
247.936	8.39
248.312	8.82
248.688	8.42
249.064	8.57
249.44	8.38
249.815	8.42
250.191	8.31
250.567	7.74
250.943	7.61
251.318	7.37
251.694	6.83
252.069	6.6
252.445	6.65
252.82	6.63
253.196	7.06
253.571	7.11
253.947	7.33
254.322	7.08
254.697	7.35
255.073	7.41
255.448	7.42
255.823	7.13
256.198	6.44
256.573	6.95
256.948	6.63
257.323	6.67
257.698	6.53
258.073	6.34
258.448	6.48
258.823	6.42
259.198	6.54
259.573	6.42
259.948	6.45
260.322	6.15
260.697	6.18
261.072	6.11
261.446	5.99
261.821	5.74
262.195	5.75
262.57	5.59
262.944	5.72
263.319	5.91
263.693	5.93
264.067	6.05
264.442	5.81
264.816	5.73
265.19	5.68
265.564	5.66
265.938	5.76
266.313	5.79
266.687	5.77
267.061	5.73
267.435	6.27
267.809	6.24
268.183	6.4
268.556	6.06
268.93	6.1
269.304	6
269.678	6.21
270.051	6.47
270.425	6.59
270.799	6.34
271.172	6.29
271.546	6.35
271.919	6.21
272.293	6.26
272.666	6.31
273.04	6.29
273.413	6.37
273.787	6.48
274.16	6.42
274.533	6.43
274.906	6.17
275.279	5.93
275.653	5.95
276.026	5.93
276.399	6.39
276.772	6.53
277.145	6.71
277.518	6.49
277.891	6.24
278.263	6.23
278.636	6.46
279.009	6.47
279.382	6.49
279.755	6.63
280.127	6.64
280.5	6.69
280.872	6.79
281.245	6.76
281.617	6.62
281.99	6.83
282.362	6.96
282.735	7.02
283.107	7.08
283.479	7.13
283.852	6.9
284.224	6.89
284.596	6.66
284.968	6.59
285.34	6.63
285.713	6.55
286.085	6.46
286.457	6.35
286.829	6.47
287.201	6.34
287.572	6.31
287.944	6.31
288.316	6.31
288.688	6.37
289.06	6.41
289.431	6.55
289.803	6.35
290.175	6.23
290.546	6.29
290.918	6.37
291.289	6.24
291.661	6.39
292.032	6.29
292.403	6.43
292.775	6.42
293.146	6.61
293.517	6.77
293.889	6.75
294.26	6.74
294.631	6.64
295.002	6.65
295.373	6.66
295.744	6.63
296.115	6.62
296.486	6.58
296.857	6.42
297.228	6.12
297.599	6.08
297.97	6
298.34	6.02
298.711	5.94
299.082	6
299.452	6.09
299.823	6.14
300.194	6.15
300.564	6
300.935	5.81
301.305	5.66
301.676	5.65
302.046	5.74
302.416	5.79
302.787	5.77
303.157	5.82
303.527	5.89
303.897	6.02
304.267	6.03
304.637	6.11
305.008	6.2
305.378	6.44
305.748	6.56
306.117	6.42
306.487	6.49
306.857	6.72
307.227	6.75
307.597	6.62
307.967	6.71
308.336	6.92
308.706	6.93
309.076	7.09
309.445	7.22
309.815	7.09
310.184	7.17
310.554	7.21
310.923	7.13
311.293	7.08
311.662	6.93
312.031	6.91
312.401	6.9
312.77	6.99
313.139	6.91
313.508	6.78
313.877	7.03
314.246	6.99
314.616	6.83
314.985	6.74
315.353	6.77
315.722	6.69
316.091	6.64
316.46	6.64
316.829	6.5
317.198	6.55
317.567	6.75
317.935	6.53
318.304	6.69
318.672	6.77
319.041	6.79
319.41	6.81
319.778	6.85
320.147	6.94
320.515	6.94
320.883	6.9
321.252	7.08
321.62	6.88
321.988	6.86
322.357	6.85
322.725	6.77
323.093	6.89
323.461	6.73
323.829	6.72
324.197	6.88
324.565	6.95
324.933	6.88
325.301	6.66
325.669	6.77
326.037	6.73
326.405	6.83
326.772	6.82
327.14	6.84
327.508	6.6
327.875	6.52
328.243	6.51
328.61	6.66
328.978	6.54
329.346	6.59
329.713	6.8
330.08	6.87
330.448	7.02
330.815	6.8
331.182	6.83
331.55	6.86
331.917	6.68
332.284	6.64
332.651	6.56
333.018	6.71
333.385	6.55
333.752	6.36
334.119	6.18
334.486	6.13
334.853	6.19
335.22	6.31
335.587	6.43
335.954	6.47
336.32	6.26
336.687	6.37
337.054	6.42
337.42	6.23
337.787	6.15
338.153	6.02
338.52	6.13
338.886	6.1
339.253	6
339.619	6.15
339.986	6.13
340.352	6.21
340.718	6.06
341.084	6.13
341.451	6.27
341.817	6.31
342.183	6.28
342.549	6.38
342.915	6.42
343.281	6.28
343.647	6.1
344.013	6.08
344.379	6
344.745	6.02
345.11	6.1
345.476	6.08
345.842	6.12
346.208	6.1
346.573	6.11
346.939	6.09
347.304	6.07
347.67	6.05
348.035	5.98
348.401	6.01
348.766	6
349.132	5.98
349.497	5.96
349.862	6.04
350.228	5.96
350.593	6.05
350.958	6.22
351.323	6.36
351.688	6.46
352.053	6.47
352.418	6.49
352.783	6.4
353.148	6.49
353.513	6.37
353.878	6.4
354.243	6.37
354.608	6.41
354.972	6.41
355.337	6.44
355.702	6.46
356.066	6.47
356.431	6.53
356.795	6.52
357.16	6.54
357.524	6.53
357.889	6.49
358.253	6.45
358.618	6.37
358.982	6.34
359.346	6.42
359.71	6.46
360.075	6.46
360.439	6.52
360.803	6.53
361.167	6.63
361.531	6.65
361.895	6.68
362.259	6.75
362.623	6.72
362.987	6.7
363.351	6.69
363.714	6.76
364.078	6.72
364.442	6.72
364.806	6.7
365.169	6.72
365.533	6.73
365.896	6.73
366.26	6.73
366.623	6.73
366.987	6.66
367.35	6.61
367.714	6.55
368.077	6.57
368.44	6.54
368.803	6.5
369.167	6.43
369.53	6.45
369.893	6.46
370.256	6.51
370.619	6.53
370.982	6.49
371.345	6.55
371.708	6.5
372.071	6.53
372.434	6.5
372.797	6.51
373.159	6.47
373.522	6.45
373.885	6.44
374.247	6.52
374.61	6.53
374.973	6.58
375.335	6.59
375.698	6.53
376.06	6.58
376.423	6.61
376.785	6.67
377.147	6.65
377.51	6.6
377.872	6.58
378.234	6.61
378.596	6.69
378.958	6.62
379.321	6.54
379.683	6.56
380.045	6.58
380.407	6.58
380.769	6.66
381.13	6.67
381.492	6.71
381.854	6.72
382.216	6.65
382.578	6.62
382.939	6.63
383.301	6.62
383.663	6.57
384.024	6.52
384.386	6.46
384.747	6.49
385.109	6.51
385.47	6.49
385.832	6.48
386.193	6.47
386.554	6.44
386.916	6.56
387.277	6.56
387.638	6.62
387.999	6.54
388.36	6.5
388.721	6.54
389.082	6.51
389.443	6.47
389.804	6.56
390.165	6.53
390.526	6.56
390.887	6.61
391.248	6.62
391.609	6.67
391.969	6.72
392.33	6.72
392.691	6.73
393.051	6.76
393.412	6.71
393.772	6.71
394.133	6.78
394.493	6.78
394.854	6.76
395.214	6.71
395.574	6.75
395.935	6.72
396.295	6.7
396.655	6.7
397.015	6.72
397.376	6.68
397.736	6.73
398.096	6.71
398.456	6.71
398.816	6.71
399.176	6.62
399.535	6.57
399.895	6.57
400.255	6.56
400.615	6.55
400.975	6.61
401.334	6.61
401.694	6.56
402.054	6.58
402.413	6.57
402.773	6.59
403.132	6.57
403.492	6.61
403.851	6.58
404.211	6.61
404.57	6.59
404.929	6.57
405.288	6.58
405.648	6.6
406.007	6.56
406.366	6.57
406.725	6.64
407.084	6.65
407.443	6.64
407.802	6.65
408.161	6.66
408.52	6.67
408.879	6.63
409.238	6.66
409.596	6.64
409.955	6.65
410.314	6.68
410.673	6.72
411.031	6.73
411.39	6.73
411.748	6.71
412.107	6.71
412.465	6.7
412.824	6.67
413.182	6.65
413.54	6.68
413.899	6.7
414.257	6.72
414.615	6.73
414.974	6.75
415.332	6.73
415.69	6.75
416.048	6.71
416.406	6.74
416.764	6.69
417.122	6.65
417.48	6.64
417.838	6.64
418.195	6.6
418.553	6.61
418.911	6.6
419.269	6.6
419.626	6.6
419.984	6.61
420.342	6.62
420.699	6.63
421.057	6.63
421.414	6.62
421.772	6.6
422.129	6.59
422.486	6.58
422.844	6.58
423.201	6.57
423.558	6.57
423.915	6.59
424.273	6.61
424.63	6.65
424.987	6.64
425.344	6.63
425.701	6.64
426.058	6.64
426.415	6.65
426.772	6.64
427.128	6.67
427.485	6.67
427.842	6.67
428.199	6.68
428.555	6.68
428.912	6.69
429.269	6.68
429.625	6.69
429.982	6.73
430.338	6.74
430.695	6.73
431.051	6.73
431.407	6.73
431.764	6.72
432.12	6.7
432.476	6.72
432.832	6.72
433.189	6.73
433.545	6.72
433.901	6.71
434.257	6.7
434.613	6.66
434.969	6.64
435.325	6.64
435.681	6.62
436.036	6.62
436.392	6.61
436.748	6.61
437.104	6.61
437.459	6.6
437.815	6.59
438.171	6.6
438.526	6.6
438.882	6.57
439.237	6.57
439.593	6.58
439.948	6.56
440.304	6.56
440.659	6.55
441.014	6.56
441.369	6.55
441.725	6.57
442.08	6.57
442.435	6.56
442.79	6.54
443.145	6.54
443.5	6.53
443.855	6.53
444.21	6.54
444.565	6.55
444.92	6.53
445.275	6.52
445.629	6.51
445.984	6.51
446.339	6.51
446.693	6.48
447.048	6.46
447.403	6.47
447.757	6.47
448.112	6.47
448.466	6.46
448.82	6.47
449.175	6.47
449.529	6.5
449.883	6.51
450.238	6.53
450.592	6.52
450.946	6.52
451.3	6.51
451.654	6.49
452.008	6.48
452.362	6.45
452.716	6.46
453.07	6.44
453.424	6.43
453.778	6.43
454.132	6.42
454.486	6.43
454.839	6.43
455.193	6.46
455.547	6.47
455.9	6.46
456.254	6.47
456.607	6.48
456.961	6.46
457.314	6.46
457.668	6.46
458.021	6.46
458.375	6.46
458.728	6.45
459.081	6.45
459.434	6.44
459.787	6.47
460.141	6.48
460.494	6.53
460.847	6.54
461.2	6.57
461.553	6.6
461.906	6.6
462.259	6.59
462.611	6.59
462.964	6.59
463.317	6.61
463.67	6.6
464.022	6.61
464.375	6.61
464.728	6.62
465.08	6.62
465.433	6.62
465.785	6.63
466.138	6.66
466.49	6.67
466.843	6.68
467.195	6.69
467.547	6.68
467.899	6.65
468.252	6.63
468.604	6.62
468.956	6.62
469.308	6.61
469.66	6.66
470.012	6.65
470.364	6.64
470.716	6.64
471.068	6.66
471.42	6.65
471.772	6.66
472.123	6.67
472.475	6.66
472.827	6.68
473.178	6.67
473.53	6.66
473.882	6.66
474.233	6.65
474.585	6.64
474.936	6.63
475.288	6.63
475.639	6.65
475.99	6.62
476.342	6.63
476.693	6.67
477.044	6.65
477.395	6.62
477.746	6.6
478.097	6.6
478.448	6.58
478.8	6.58
479.15	6.59
479.501	6.58
479.852	6.59
480.203	6.59
480.554	6.63
480.905	6.63
481.255	6.65
481.606	6.66
481.957	6.67
482.307	6.68
482.658	6.7
483.009	6.7
483.359	6.71
483.709	6.71
484.06	6.71
484.41	6.71
484.761	6.73
485.111	6.74
485.461	6.74
485.811	6.74
486.162	6.75
486.512	6.75
486.862	6.76
487.212	6.76
487.562	6.76
487.912	6.75
488.262	6.76
488.612	6.75
488.961	6.75
489.311	6.76
489.661	6.77
490.011	6.76
490.36	6.75
490.71	6.76
491.06	6.75
491.409	6.74
491.759	6.74
492.108	6.73
492.458	6.74
492.807	6.74
493.157	6.75
493.506	6.75
493.855	6.75
494.204	6.75
494.554	6.76
494.903	6.78
495.252	6.78
495.601	6.79
495.95	6.8
496.299	6.82
496.648	6.82
496.997	6.82
497.346	6.83
497.695	6.85
498.043	6.86
498.392	6.87
498.741	6.88
499.09	6.92
499.438	6.93
499.787	6.95
500.135	6.95
500.484	6.95
500.832	6.97
501.181	6.99
501.529	6.98
501.878	6.99
502.226	6.99
502.574	7.02
502.923	7.03
503.271	7.04
503.619	7.05
503.967	7.05
504.315	7.05
504.663	7.06
505.011	7.07
505.359	7.05
505.707	7.04
506.055	7.07
506.403	7.05
506.751	7.06
507.098	7.06
507.446	7.08
507.794	7.09
508.141	7.1
508.489	7.1
508.837	7.13
509.184	7.13
509.531	7.14
509.879	7.14
510.226	7.13
510.574	7.14
510.921	7.13
511.268	7.13
511.616	7.14
511.963	7.14
512.31	7.13
512.657	7.14
513.004	7.15
513.351	7.15
513.698	7.16
514.045	7.16
514.392	7.15
514.739	7.17
515.086	7.19
515.432	7.17
515.779	7.18
516.126	7.2
516.473	7.19
516.819	7.19
517.166	7.2
517.512	7.19
517.859	7.22
518.205	7.25
518.552	7.25
518.898	7.28
519.245	7.28
519.591	7.3
519.937	7.31
520.283	7.33
520.629	7.33
520.976	7.33
521.322	7.34
521.668	7.33
522.014	7.34
522.36	7.33
522.706	7.35
523.052	7.36
523.398	7.35
523.743	7.36
524.089	7.37
524.435	7.36
524.781	7.38
525.126	7.37
525.472	7.35
525.817	7.35
526.163	7.35
526.509	7.36
526.854	7.35
527.199	7.36
527.545	7.36
527.89	7.36
528.235	7.36
528.581	7.35
528.926	7.36
529.271	7.36
529.616	7.37
529.961	7.38
530.306	7.37
530.651	7.38
530.996	7.4
531.341	7.41
531.686	7.41
532.031	7.41
532.376	7.42
532.721	7.43
533.065	7.44
533.41	7.45
533.755	7.46
534.099	7.46
534.444	7.47
534.788	7.45
535.133	7.46
535.477	7.47
535.822	7.48
536.166	7.5
536.51	7.48
536.855	7.48
537.199	7.48
537.543	7.49
537.887	7.49
538.231	7.47
538.576	7.44
538.92	7.44
539.264	7.44
539.608	7.42
539.951	7.43
540.295	7.42
540.639	7.41
540.983	7.42
541.327	7.45
541.671	7.46
542.014	7.48
542.358	7.49
542.701	7.5
543.045	7.51
543.389	7.53
543.732	7.55
544.075	7.55
544.419	7.56
544.762	7.54
545.105	7.56
545.449	7.58
545.792	7.59
546.135	7.62
546.478	7.64
546.821	7.68
547.165	7.68
547.508	7.71
547.851	7.72
548.194	7.71
548.536	7.68
548.879	7.68
549.222	7.68
549.565	7.65
549.908	7.64
550.25	7.63
550.593	7.6
550.936	7.58
551.278	7.6
551.621	7.6
551.963	7.63
552.306	7.62
552.648	7.64
552.991	7.65
553.333	7.61
553.675	7.61
554.017	7.64
554.36	7.66
554.702	7.64
555.044	7.65
555.386	7.68
555.728	7.69
556.07	7.69
556.412	7.69
556.754	7.69
557.096	7.72
557.438	7.74
557.78	7.75
558.121	7.77
558.463	7.77
558.805	7.79
559.147	7.79
559.488	7.76
559.83	7.74
560.171	7.72
560.513	7.73
560.854	7.71
561.196	7.69
561.537	7.67
561.878	7.7
562.22	7.69
562.561	7.67
562.902	7.66
563.243	7.67
563.584	7.7
563.925	7.76
564.266	7.74
564.607	7.72
564.948	7.72
565.289	7.75
565.63	7.73
565.971	7.75
566.312	7.75
566.653	7.77
566.993	7.75
567.334	7.76
567.675	7.79
568.015	7.8
568.356	7.79
568.696	7.79
569.037	7.77
569.377	7.76
569.718	7.75
570.058	7.76
570.398	7.76
570.739	7.75
571.079	7.67
571.419	7.66
571.759	7.65
572.099	7.67
572.439	7.64
572.779	7.63
573.119	7.64
573.459	7.64
573.799	7.63
574.139	7.65
574.479	7.66
574.819	7.67
575.158	7.66
575.498	7.67
575.838	7.68
576.177	7.67
576.517	7.67
576.856	7.7
577.196	7.71
577.535	7.76
577.875	7.74
578.214	7.83
578.553	7.87
578.893	7.9
579.232	7.89
579.571	7.89
579.91	7.9
580.25	7.9
580.589	7.9
580.928	7.93
581.267	7.96
581.606	7.98
581.945	7.97
582.283	7.96
582.622	7.97
582.961	7.99
583.3	8.05
583.639	8.04
583.977	8.02
584.316	7.99
584.654	7.94
584.993	7.94
585.332	7.94
585.67	7.9
586.008	7.91
586.347	7.91
586.685	7.88
587.024	7.92
587.362	7.92
587.7	7.96
588.038	7.94
588.376	7.95
588.715	7.97
589.053	7.95
589.391	7.93
589.729	7.91
590.067	7.94
590.404	7.94
590.742	7.96
591.08	7.99
591.418	8.01
591.756	8.03
592.093	8.06
592.431	8.06
592.769	8.03
593.106	8.01
593.444	8.04
593.781	8.07
594.119	8.03
594.456	8
594.793	7.98
595.131	8.01
595.468	8.02
595.805	8.01
596.143	8.01
596.48	8.01
596.817	8.02
597.154	7.98
597.491	7.96
597.828	7.96
598.165	7.92
598.502	7.9
598.839	7.87
599.176	7.91
599.512	7.89
599.849	7.97
600.186	7.98
600.523	7.95
600.859	7.94
601.196	7.99
601.532	8.02
601.869	8.01
602.205	8
602.542	8
602.878	8
603.215	8
603.551	8
603.887	7.96
604.223	7.97
604.56	7.95
604.896	7.97
605.232	8
605.568	8.01
605.904	8.02
606.24	8
606.576	8
606.912	7.96
607.248	7.96
607.583	7.98
607.919	7.98
608.255	7.95
608.591	7.96
608.926	7.96
609.262	7.94
609.597	7.9
609.933	7.85
610.268	7.89
610.604	7.89
610.939	8
611.275	8.02
611.61	8.05
611.945	8.02
612.281	8.05
612.616	8.07
612.951	8.11
613.286	8.1
613.621	8.12
613.956	8.18
614.291	8.2
614.626	8.22
614.961	8.22
615.296	8.24
615.631	8.26
615.966	8.23
616.3	8.27
616.635	8.31
616.97	8.32
617.304	8.28
617.639	8.34
617.973	8.26
618.308	8.24
618.642	8.26
618.977	8.3
619.311	8.29
619.646	8.28
619.98	8.29
620.314	8.28
620.648	8.28
620.983	8.25
621.317	8.27
621.651	8.26
621.985	8.3
622.319	8.26
622.653	8.27
622.987	8.3
623.321	8.31
623.655	8.26
623.988	8.31
624.322	8.37
624.656	8.32
624.99	8.34
625.323	8.37
625.657	8.36
625.99	8.33
626.324	8.31
626.657	8.36
626.991	8.34
627.324	8.37
627.658	8.37
627.991	8.39
628.324	8.33
628.657	8.34
628.991	8.31
629.324	8.31
629.657	8.29
629.99	8.31
630.323	8.29
630.656	8.32
630.989	8.33
631.322	8.32
631.655	8.34
631.987	8.36
632.32	8.36
632.653	8.35
632.986	8.38
633.318	8.44
633.651	8.41
633.984	8.41
634.316	8.41
634.649	8.43
634.981	8.39
635.313	8.44
635.646	8.51
635.978	8.53
636.31	8.57
636.643	8.58
636.975	8.57
637.307	8.57
637.639	8.57
637.971	8.53
638.303	8.51
638.635	8.51
638.967	8.48
639.299	8.45
639.631	8.46
639.963	8.52
640.295	8.44
640.626	8.39
640.958	8.42
641.29	8.42
641.621	8.35
641.953	8.34
642.285	8.36
642.616	8.34
642.948	8.37
643.279	8.34
643.61	8.35
643.942	8.46
644.273	8.48
644.604	8.49
644.936	8.49
645.267	8.47
645.598	8.49
645.929	8.42
646.26	8.46
646.591	8.43
646.922	8.4
647.253	8.41
647.584	8.45
647.915	8.49
648.245	8.61
648.576	8.6
648.907	8.59
649.238	8.52
649.568	8.44
649.899	8.45
650.229	8.44
650.56	8.47
650.89	8.4
651.221	8.39
651.551	8.41
651.882	8.5
652.212	8.59
652.542	8.56
652.872	8.6
653.203	8.63
653.533	8.69
653.863	8.68
654.193	8.67
654.523	8.66
654.853	8.65
655.183	8.46
655.513	8.56
655.843	8.57
656.172	8.7
656.502	8.72
656.832	8.62
657.162	8.63
657.491	8.61
657.821	8.61
658.15	8.64
658.48	8.71
658.809	8.65
659.139	8.57
659.468	8.63
659.798	8.7
660.127	8.71
660.456	8.61
660.785	8.59
661.115	8.62
661.444	8.67
661.773	8.57
662.102	8.55
662.431	8.52
662.76	8.53
663.089	8.48
663.418	8.47
663.747	8.56
664.076	8.58
664.404	8.63
664.733	8.59
665.062	8.53
665.39	8.53
665.719	8.6
666.048	8.69
666.376	8.68
666.705	8.65
667.033	8.57
667.362	8.58
667.69	8.68
668.018	8.69
668.347	8.67
668.675	8.77
669.003	8.95
669.331	8.95
669.659	8.93
669.987	8.95
670.315	8.96
670.643	8.9
670.971	8.87
671.299	8.9
671.627	8.88
671.955	8.93
672.283	8.8
672.61	8.78
672.938	8.86
673.266	8.84
673.593	8.88
673.921	8.91
674.249	8.93
674.576	8.93
674.904	8.94
675.231	8.95
675.558	8.93
675.886	8.92
676.213	8.9
676.54	9.01
676.867	8.92
677.195	8.96
677.522	9.01
677.849	9.05
678.176	8.97
678.503	8.95
678.83	8.95
679.157	8.96
679.484	8.97
679.81	8.84
680.137	8.86
680.464	8.84
680.791	8.88
681.117	8.93
681.444	8.87
681.771	8.91
682.097	8.89
682.424	8.89
682.75	8.84
683.077	8.89
683.403	8.88
683.729	9
684.056	8.97
684.382	8.93
684.708	9.03
685.034	9.08
685.36	9.14
685.686	9.17
686.012	9.25
686.339	9.22
686.664	9.25
686.99	9.17
687.316	9.15
687.642	9.18
687.968	9.15
688.294	9.09
688.619	9.03
688.945	9.06
689.271	9.11
689.596	9.04
689.922	8.96
690.247	8.88
690.573	8.82
690.898	8.86
691.224	8.96
691.549	8.84
691.874	8.8
692.2	8.84
692.525	8.86
692.85	8.82
693.175	8.77
693.5	8.76
693.825	8.72
694.15	8.67
694.475	8.74
694.8	8.79
695.125	8.79
695.45	8.7
695.775	8.62
696.099	8.72
696.424	8.8
696.749	8.85
697.073	8.88
697.398	9.03
697.723	9.08
698.047	9.07
698.372	9.04
698.696	9.01
699.02	8.96
699.345	8.99
699.669	9.06
699.993	9.1
700.318	9.21
700.642	9.31
700.966	9.35
701.29	9.25
701.614	9.31
701.938	9.38
702.262	9.45
702.586	9.54
702.91	9.47
703.234	9.41
703.557	9.47
703.881	9.46
704.205	9.35
704.529	9.15
704.852	9.1
705.176	9.24
705.499	9.28
705.823	9.46
706.146	9.45
706.47	9.43
706.793	9.49
707.117	9.43
707.44	9.41
707.763	9.39
708.086	9.36
708.409	9.36
708.733	9.32
709.056	9.47
709.379	9.49
709.702	9.39
710.025	9.63
710.348	9.61
710.671	9.6
710.993	9.48
711.316	9.67
711.639	9.72
711.962	9.65
712.284	9.69
712.607	9.59
712.93	9.5
713.252	9.51
713.575	9.42
713.897	9.35
714.22	9.33
714.542	9.37
714.864	9.39
715.187	9.29
715.509	9.42
715.831	9.3
716.153	9.12
716.475	9.11
716.798	9
717.12	8.9
717.442	8.82
717.764	9.04
718.085	8.98
718.407	8.96
718.729	9
719.051	8.99
719.373	9.03
719.695	9.01
720.016	8.97
720.338	9.17
720.659	9.33
720.981	9.41
721.302	9.6
721.624	9.8
721.945	9.72
722.267	9.64
722.588	9.59
722.909	9.81
723.231	9.82
723.552	9.6
723.873	9.73
724.194	9.81
724.515	9.76
724.836	9.72
725.157	9.81
725.478	9.77
725.799	9.7
726.12	9.78
726.441	9.93
726.762	10.05
727.083	9.97
727.403	9.92
727.724	9.89
728.045	9.89
728.365	9.87
728.686	10.03
729.006	10.03
729.327	10.14
729.647	10.09
729.967	10.38
730.288	10.52
730.608	10.42
730.928	10.57
731.249	10.33
731.569	10.29
731.889	10.28
732.209	10.22
732.529	10.36
732.849	10.3
733.169	10.19
733.489	10.21
733.809	10.19
734.129	10.09
734.448	10.04
734.768	9.85
735.088	9.79
735.408	9.83
735.727	9.89
736.047	9.93
736.366	9.81
736.686	9.59
737.005	9.57
737.325	9.74
737.644	9.57
737.963	9.65
738.283	9.64
738.602	9.76
738.921	9.96
739.24	9.94
739.56	9.93
739.879	9.86
740.198	9.56
740.517	9.66
740.836	9.81
741.155	9.89
741.473	9.81
741.792	9.83
742.111	9.93
742.43	9.92
742.748	10.06
743.067	10.48
743.386	10.5
743.704	10.55
744.023	10.7
744.341	10.95
744.66	10.84
744.978	11.06
745.297	10.86
745.615	10.66
745.933	10.72
746.252	10.6
746.57	10.93
746.888	11.3
747.206	11.25
747.524	11.07
747.842	10.91
748.16	11.43
748.478	11.34
748.796	11.31
749.114	11.6
749.432	11.49
749.749	11.26
750.067	11.12
750.385	11.22
750.703	10.98
751.02	11.02
751.338	11.19
751.655	11.07
751.973	11.06
752.29	11
752.608	10.74
752.925	10.69
753.242	10.63
753.56	10.26
753.877	10.08
754.194	10.12
754.511	10.3
754.828	9.86
755.145	9.68
755.462	9.58
755.779	9.14
756.096	9.32
756.413	9.37
756.73	9.55
757.047	9.41
757.364	9.37
757.68	9.3
757.997	9.64
758.314	9.81
758.63	9.59
758.947	9.75
759.264	10.02
759.58	10.16
759.896	10.18
760.213	10.26
760.529	10.24
760.846	10.3
761.162	10.26
761.478	10.33
761.794	10.44
762.11	10.44
762.426	10.45
762.743	10.44
763.059	10.59
763.375	10.56
763.69	10.68
764.006	10.6
764.322	10.54
764.638	10.5
764.954	10.57
765.27	10.82
765.585	10.73
765.901	10.7
766.216	10.73
766.532	10.61
766.848	10.69
767.163	10.96
767.478	11.07
767.794	11.04
768.109	11.21
768.424	11.29
768.74	11.2
769.055	11.68
769.37	11.6
769.685	11.5
770	11.51
770.315	11.54
770.63	11.88
770.945	12.05
771.26	11.75
771.575	11.72
771.89	11.46
772.205	11.73
772.52	11.58
772.834	11.74
773.149	11.92
773.464	12.05
773.778	11.92
774.093	11.64
774.407	11.62
774.722	11.44
775.036	11.61
775.351	12.03
775.665	11.47
775.979	11.51
776.293	11.66
776.608	11.83
776.922	11.8
777.236	11.77
777.55	11.46
777.864	11.5
778.178	11.3
778.492	11.73
778.806	11.64
779.12	12.1
779.434	11.94
779.747	11.87
780.061	11.71
780.375	11.65
780.689	11.91
781.002	12.18
781.316	12.15
781.629	11.96
781.943	11.82
782.256	12.06
782.57	12.12
782.883	11.85
783.196	11.72
783.51	11.56
783.823	11.66
784.136	12.03
784.449	11.85
784.762	11.89
785.075	12.14
785.388	12.28
785.701	11.98
786.014	11.78
786.327	11.71
786.64	12.02
786.953	12.02
787.266	12.02
787.578	11.72
787.891	11.75
788.204	11.99
788.516	11.75
788.829	11.47
789.141	11.09
789.454	11.32
789.766	11.41
790.079	11.4
790.391	11.09
790.703	11.21
791.016	12.06
791.328	11.58
791.64	11.27
791.952	11.26
792.264	11.17
792.576	11.56
792.888	11.7
793.2	11.25
793.512	10.88
793.824	10.93
794.136	11.23
794.448	11.71
794.76	11.67
795.071	11.22
795.383	11.67
795.695	11.92
796.006	11.46
796.318	11.48
796.629	11.7
796.941	11.75
797.252	11.53
797.564	11.47
797.875	12.02
798.186	12.35
798.497	12.31
798.809	12.21
799.12	11.8
799.431	11.32
799.742	11.59
800.053	11.92
800.364	12.15
800.675	11.88
800.986	11.88
801.297	11.72
801.608	12.4
801.918	12.03
802.229	12.43
802.54	12.36
802.851	12.21
803.161	11.86
803.472	12.15
803.782	12.8
804.093	11.65
804.403	12.09
804.714	11.67
805.024	11.44
805.334	12.02
805.645	12.05
805.955	12.69
806.265	12.87
806.575	13.14
806.885	12.81
807.195	13.36
807.505	13.11
807.815	13.75
808.125	13.32
808.435	13.18
808.745	13.23
809.055	13.57
809.365	13.68
809.674	14.4
809.984	14.03
810.294	13.77
810.603	14.57
810.913	14.15
811.222	14.33
811.532	14.63
811.841	15.14
812.151	15.71
812.46	15.3
812.769	15.58
813.079	15.65
813.388	15.43
813.697	14.99
814.006	15.33
814.315	14.22
814.624	15.94
814.933	16.55
815.242	15.44
815.551	15.32
815.86	15.47
816.169	14.73
816.478	14.93
816.786	13.58
817.095	13.77
817.404	13.65
817.712	13.5
818.021	13.21
818.33	12.51
818.638	12.71
818.947	13.33
819.255	12.67
819.563	12.6
819.872	12.78
820.18	12.35
820.488	12.21
820.796	12.28
821.105	12.07
821.413	12.09
821.721	12.26
822.029	12.14
822.337	12.26
822.645	12.56
822.953	12.56
823.26	12.81
823.568	12.77
823.876	12.97
824.184	12.87
824.491	12.96
824.799	12.86
825.107	12.78
825.414	12.66
825.722	12.68
826.029	12.81
826.337	12.73
826.644	12.95
826.951	12.96
827.259	13.11
827.566	12.97
827.873	12.9
828.18	12.91
828.488	13.14
828.795	13.06
829.102	12.85
829.409	12.78
829.716	12.97
830.023	13
830.329	12.85
830.636	12.7
830.943	12.65
831.25	12.99
831.557	13.02
831.863	13.23
832.17	13.47
832.476	12.91
832.783	13.22
833.089	13.02
833.396	13.05
833.702	13.27
834.009	13.43
834.315	13.34
834.621	13.44
834.928	13.29
835.234	13.06
835.54	13.45
835.846	13.34
836.152	12.83
836.458	13.11
836.764	13.23
837.07	13.89
837.376	13.7
837.682	13.53
837.988	13.34
838.293	13.29
838.599	13.64
838.905	13.68
839.211	13.26
839.516	14.21
839.822	14.43
840.127	13.49
840.433	13.76
840.738	14.47
841.044	14.33
841.349	13.97
841.654	13.18
841.959	12.73
842.265	12.83
842.57	12.91
842.875	11.83
843.18	11.56
843.485	11.34
843.79	10.98
844.095	11.59
844.4	10.52
844.705	10.74
845.01	10.59
845.315	11.62
845.619	12.71
845.924	10.59
846.229	11.52
846.533	11.89
846.838	9.66
847.142	8.25
847.447	8.84
847.751	9.75
848.056	12.24
848.36	11.34
848.664	12.28
848.969	13.55
849.273	12.97
849.577	12.05
849.881	12.5
850.185	13.44
850.489	11.02
850.794	13.33
851.097	11.99
851.401	9.37
851.705	8.95
852.009	8.71
852.313	9.58
852.617	6.98
852.92	9.52
853.224	12.72
853.528	13.14
853.831	13.3
854.135	13.71
854.438	10.84
854.742	10.41
855.045	8.54
855.349	6.29
855.652	9.6
855.955	8.7
856.259	8.97
856.562	10.21
856.865	11.97
857.168	10.71
857.471	10.94
857.774	12.3
858.077	11.8
858.38	11.59
858.683	12.51
858.986	13.55
859.289	12.4
859.592	13.51
859.894	14.44
860.197	15.44
860.5	17.9
860.802	20.21
861.105	20.71
861.407	24.46
861.71	26.23
862.012	25.53
862.315	27.6
862.617	27.53
862.919	28.08
863.222	29.52
863.524	28.6
863.826	27.58
864.128	29.97
864.43	31.82
864.732	32.77
865.034	33.01
865.336	31.07
865.638	30.22
865.94	29.63
866.242	29.08
866.544	27.87
866.846	24.88
867.147	26.86
867.449	25.11
867.751	23.07
868.052	21.62
868.354	20.11
868.655	17.97
868.957	16.3
869.258	13.82
869.56	11.15
869.861	9.62
870.162	11.05
870.463	11.37
870.765	9.55
871.066	10.03
871.367	11.1
871.668	14.66
871.969	15.46
872.27	14.33
872.571	15.24
872.872	14
873.173	12.97
873.473	10.13
873.774	12.51
874.075	12.62
874.376	15.29
874.676	15.94
874.977	16.76
875.277	15.69
875.578	16.76
875.878	18.13
876.179	22.12
876.479	22.66
876.78	21.62
877.08	21.24
877.38	19.63
877.68	17.89
877.981	14.97
878.281	14.71
878.581	14.07
