Data from BA53411_Reflection_00014.txt Node
Date: Tue Nov 19 11:53:59 EST 2019
User: vgr7
Spectrometer: USB2G7710
Scans to average: 3
Trigger mode: 4
Integration Time (sec): 2.000000E-2
Electric dark correction enabled: true
Boxcar width: 10
XAxis mode: Wavelengths
Number of Pixels in Spectrum: 2048
>>>>>Begin Spectral Data<<<<<
177.721	77.33
178.105	71.91
178.488	64.71
178.871	81.36
179.254	78.05
179.636	56.45
180.019	160.98
180.402	266.67
180.785	141.18
181.168	56.9
181.55	13.22
181.933	11.04
182.316	36.62
182.698	-22.75
183.081	-25.57
183.463	35.68
183.846	15.16
184.228	21.05
184.611	44.44
184.993	30.77
185.376	-5.54
185.758	-44.55
186.14	-34.48
186.522	1171.43
186.904	1333.33
187.287	-295.52
187.669	-230.77
188.051	-20.25
188.433	-3.24
188.815	-20.69
189.197	-4.65
189.579	-45.57
189.961	48.98
190.342	-144.68
190.724	-13.45
191.106	1266.67
191.488	-50.79
191.869	-68.71
192.251	-24.54
192.633	35.15
193.014	82.59
193.396	23.24
193.777	29.86
194.159	52.23
194.54	65.97
194.922	-30.14
195.303	-43.48
195.684	-270.97
196.065	-121.52
196.447	-98.41
196.828	-50.79
197.209	-622.22
197.59	-77.42
197.971	-335.48
198.352	2711.11
198.733	-1694.12
199.114	316.05
199.495	177.98
199.876	172.52
200.257	78.76
200.638	196.86
201.018	288.62
201.399	346.84
201.78	216.82
202.16	4200
202.541	301.15
202.922	206.3
203.302	281.32
203.683	-685.71
204.063	-3000
204.444	-251.85
204.824	-285.71
205.204	-93.88
205.585	-139.13
205.965	-34.41
206.345	-309.09
206.725	59.46
207.106	86.73
207.486	43.48
207.866	243.84
208.246	108.67
208.626	-1505.26
209.006	3742.86
209.386	-255.42
209.766	-263.16
210.145	-182.12
210.525	-163.27
210.905	-293.08
211.285	-237.32
211.664	-238.3
212.044	-230.99
212.424	-220.28
212.803	-158.62
213.183	-204.88
213.562	-251.16
213.942	-339.23
214.321	-352.38
214.701	-345.27
215.08	-281.06
215.459	-306.4
215.838	-223.53
216.218	-288.89
216.597	2121.74
216.976	-968.63
217.355	-451.95
217.734	-400
218.113	410.81
218.492	482.35
218.871	-22.22
219.25	-26.26
219.629	-97.67
220.008	-733.33
220.387	-19.05
220.766	4.84
221.144	26.01
221.523	-23.04
221.902	-58.68
222.28	-17.54
222.659	1.39
223.037	-24.02
223.416	4.6
223.794	-5.31
224.173	5.03
224.551	19.01
224.929	13.79
225.308	15.07
225.686	15.73
226.064	24.12
226.442	29.66
226.821	32.51
227.199	34.78
227.577	30.58
227.955	24.02
228.333	18.71
228.711	20.39
229.089	15.1
229.467	10.46
229.845	14.1
230.222	10.44
230.6	5.3
230.978	7.31
231.356	3.31
231.733	2.61
232.111	4.16
232.488	5.7
232.866	6.75
233.243	6.97
233.621	7.02
233.998	5.02
234.376	1.49
234.753	-1.03
235.13	-2.5
235.508	-3.08
235.885	0.14
236.262	1.62
236.639	3.14
237.016	4.23
237.393	6.22
237.77	4.52
238.147	4.51
238.524	5.2
238.901	4.67
239.278	4.51
239.655	4.84
240.032	4.39
240.409	3.76
240.785	3.29
241.162	3.08
241.539	2.74
241.915	3.77
242.292	3.73
242.668	4.75
243.045	5.21
243.421	5.52
243.798	5.14
244.174	4.86
244.551	4.76
244.927	4.55
245.303	4.51
245.679	4.64
246.056	4.61
246.432	4.98
246.808	5.35
247.184	5.87
247.56	5.58
247.936	6.02
248.312	6.15
248.688	6.28
249.064	6.57
249.44	6.63
249.815	6.49
250.191	6.74
250.567	6.72
250.943	6.66
251.318	6.42
251.694	6.23
252.069	6.29
252.445	6.52
252.82	6.73
253.196	6.55
253.571	6.72
253.947	6.82
254.322	6.82
254.697	6.52
255.073	6.08
255.448	6.14
255.823	5.69
256.198	5.4
256.573	5.32
256.948	5.31
257.323	5.62
257.698	5.69
258.073	5.5
258.448	5.39
258.823	5.02
259.198	5.26
259.573	5.4
259.948	5.54
260.322	5.5
260.697	5.58
261.072	5.52
261.446	5.44
261.821	5.34
262.195	5.2
262.57	5.31
262.944	5.32
263.319	5.5
263.693	5.44
264.067	5.59
264.442	5.73
264.816	5.81
265.19	5.58
265.564	5.17
265.938	5.05
266.313	4.91
266.687	5.04
267.061	5.03
267.435	5.43
267.809	5.22
268.183	5.06
268.556	4.94
268.93	5.22
269.304	5.33
269.678	5.37
270.051	5.45
270.425	5.34
270.799	5.11
271.172	4.93
271.546	5.04
271.919	5
272.293	4.97
272.666	4.83
273.04	4.89
273.413	5.08
273.787	5.37
274.16	5.34
274.533	5.55
274.906	5.42
275.279	5.15
275.653	5.3
276.026	5.39
276.399	5.41
276.772	5.27
277.145	5.16
277.518	5.18
277.891	5.15
278.263	5.17
278.636	5.29
279.009	5.48
279.382	5.39
279.755	5.26
280.127	5.25
280.5	5.08
280.872	5.06
281.245	4.98
281.617	4.85
281.99	4.96
282.362	4.8
282.735	4.82
283.107	4.76
283.479	4.86
283.852	4.77
284.224	4.93
284.596	4.86
284.968	4.76
285.34	4.74
285.713	4.79
286.085	4.81
286.457	4.85
286.829	4.83
287.201	4.8
287.572	4.97
287.944	5.05
288.316	5.29
288.688	5.46
289.06	5.5
289.431	5.59
289.803	5.65
290.175	5.65
290.546	5.63
290.918	5.75
291.289	5.73
291.661	5.78
292.032	5.69
292.403	5.85
292.775	6.15
293.146	6.27
293.517	6.3
293.889	6.34
294.26	6.56
294.631	6.52
295.002	6.51
295.373	6.41
295.744	6.49
296.115	6.44
296.486	6.3
296.857	6.29
297.228	6.21
297.599	6.1
297.97	6.23
298.34	6.29
298.711	6.37
299.082	6.36
299.452	6.42
299.823	6.54
300.194	6.71
300.564	6.57
300.935	6.68
301.305	6.68
301.676	6.7
302.046	6.66
302.416	6.75
302.787	6.85
303.157	7.04
303.527	6.93
303.897	6.99
304.267	7.2
304.637	7.36
305.008	7.47
305.378	7.57
305.748	7.49
306.117	7.53
306.487	7.55
306.857	7.56
307.227	7.72
307.597	7.74
307.967	7.67
308.336	7.86
308.706	7.77
309.076	7.72
309.445	7.82
309.815	7.85
310.184	7.92
310.554	7.99
310.923	8.03
311.293	8.25
311.662	8.44
312.031	8.51
312.401	8.47
312.77	8.66
313.139	8.67
313.508	8.75
313.877	8.82
314.246	8.74
314.616	8.79
314.985	8.74
315.353	8.71
315.722	8.79
316.091	8.89
316.46	9.1
316.829	9.36
317.198	9.48
317.567	9.61
317.935	9.67
318.304	9.94
318.672	9.94
319.041	9.84
319.41	9.77
319.778	9.64
320.147	9.77
320.515	9.7
320.883	9.86
321.252	9.99
321.62	10.1
321.988	10.24
322.357	10.3
322.725	10.43
323.093	10.34
323.461	10.39
323.829	10.24
324.197	10.2
324.565	10.24
324.933	10.11
325.301	10.03
325.669	9.99
326.037	9.98
326.405	10.07
326.772	10.11
327.14	10.12
327.508	10.26
327.875	10.22
328.243	10.24
328.61	10.31
328.978	10.49
329.346	10.54
329.713	10.59
330.08	10.66
330.448	10.71
330.815	11.02
331.182	10.97
331.55	11.05
331.917	11.18
332.284	11.2
332.651	11.39
333.018	11.42
333.385	11.66
333.752	11.66
334.119	11.77
334.486	11.95
334.853	12.01
335.22	11.99
335.587	12.1
335.954	12.27
336.32	12.3
336.687	12.22
337.054	12.28
337.42	12.24
337.787	12.32
338.153	12.3
338.52	12.23
338.886	12.36
339.253	12.37
339.619	12.32
339.986	12.4
340.352	12.42
340.718	12.48
341.084	12.5
341.451	12.59
341.817	12.53
342.183	12.39
342.549	12.34
342.915	12.31
343.281	12.3
343.647	12.15
344.013	12.2
344.379	12.04
344.745	12.02
345.11	12.08
345.476	12.01
345.842	11.96
346.208	11.96
346.573	11.94
346.939	11.88
347.304	11.9
347.67	11.84
348.035	11.86
348.401	11.95
348.766	11.84
349.132	11.77
349.497	11.83
349.862	11.88
350.228	11.92
350.593	11.95
350.958	12.01
351.323	11.97
351.688	11.96
352.053	12.13
352.418	12.03
352.783	12
353.148	11.99
353.513	11.96
353.878	11.88
354.243	11.7
354.608	11.77
354.972	11.75
355.337	11.7
355.702	11.62
356.066	11.44
356.431	11.45
356.795	11.43
357.16	11.25
357.524	11.21
357.889	11.14
358.253	11.14
358.618	11.05
358.982	11.11
359.346	11.06
359.71	10.96
360.075	11.01
360.439	11.02
360.803	11.01
361.167	11.01
361.531	11.06
361.895	11.08
362.259	11.08
362.623	11.09
362.987	11.08
363.351	11.03
363.714	11.11
364.078	11.02
364.442	10.91
364.806	10.95
365.169	10.91
365.533	10.89
365.896	10.83
366.26	10.81
366.623	10.71
366.987	10.61
367.35	10.59
367.714	10.52
368.077	10.47
368.44	10.41
368.803	10.37
369.167	10.17
369.53	10.15
369.893	10.16
370.256	10
370.619	9.95
370.982	9.88
371.345	9.77
371.708	9.68
372.071	9.71
372.434	9.59
372.797	9.47
373.159	9.45
373.522	9.38
373.885	9.31
374.247	9.29
374.61	9.22
374.973	9.16
375.335	9.16
375.698	9.07
376.06	8.99
376.423	8.85
376.785	8.87
377.147	8.78
377.51	8.68
377.872	8.64
378.234	8.54
378.596	8.53
378.958	8.43
379.321	8.44
379.683	8.41
380.045	8.38
380.407	8.36
380.769	8.28
381.13	8.24
381.492	8.2
381.854	8.05
382.216	8.12
382.578	8.12
382.939	8
383.301	7.95
383.663	7.98
384.024	7.96
384.386	7.98
384.747	7.91
385.109	7.85
385.47	7.88
385.832	7.84
386.193	7.77
386.554	7.76
386.916	7.68
387.277	7.57
387.638	7.54
387.999	7.49
388.36	7.45
388.721	7.4
389.082	7.38
389.443	7.41
389.804	7.34
390.165	7.33
390.526	7.28
390.887	7.24
391.248	7.17
391.609	7.2
391.969	7.12
392.33	7.12
392.691	7.07
393.051	6.97
393.412	6.93
393.772	6.89
394.133	6.84
394.493	6.77
394.854	6.77
395.214	6.73
395.574	6.7
395.935	6.66
396.295	6.61
396.655	6.59
397.015	6.52
397.376	6.42
397.736	6.34
398.096	6.31
398.456	6.29
398.816	6.24
399.176	6.14
399.535	6.11
399.895	6.04
400.255	6.02
400.615	6.03
400.975	6
401.334	6
401.694	5.99
402.054	5.99
402.413	5.94
402.773	5.91
403.132	5.89
403.492	5.89
403.851	5.89
404.211	5.83
404.57	5.85
404.929	5.83
405.288	5.81
405.648	5.82
406.007	5.79
406.366	5.75
406.725	5.74
407.084	5.75
407.443	5.73
407.802	5.69
408.161	5.65
408.52	5.64
408.879	5.62
409.238	5.62
409.596	5.62
409.955	5.62
410.314	5.6
410.673	5.59
411.031	5.57
411.39	5.58
411.748	5.6
412.107	5.57
412.465	5.57
412.824	5.55
413.182	5.51
413.54	5.49
413.899	5.49
414.257	5.47
414.615	5.41
414.974	5.41
415.332	5.38
415.69	5.36
416.048	5.36
416.406	5.3
416.764	5.3
417.122	5.26
417.48	5.24
417.838	5.25
418.195	5.24
418.553	5.22
418.911	5.21
419.269	5.18
419.626	5.15
419.984	5.15
420.342	5.15
420.699	5.13
421.057	5.13
421.414	5.13
421.772	5.11
422.129	5.11
422.486	5.13
422.844	5.12
423.201	5.13
423.558	5.11
423.915	5.1
424.273	5.08
424.63	5.1
424.987	5.11
425.344	5.09
425.701	5.08
426.058	5.07
426.415	5.05
426.772	5.05
427.128	5.06
427.485	5.05
427.842	5.03
428.199	5.04
428.555	5.03
428.912	5.02
429.269	5.03
429.625	5.01
429.982	4.99
430.338	5.01
430.695	4.99
431.051	5.01
431.407	5.02
431.764	4.99
432.12	4.98
432.476	4.97
432.832	4.96
433.189	4.96
433.545	4.97
433.901	4.96
434.257	4.94
434.613	4.94
434.969	4.92
435.325	4.94
435.681	4.93
436.036	4.93
436.392	4.91
436.748	4.89
437.104	4.9
437.459	4.89
437.815	4.89
438.171	4.88
438.526	4.86
438.882	4.86
439.237	4.85
439.593	4.85
439.948	4.83
440.304	4.82
440.659	4.81
441.014	4.79
441.369	4.78
441.725	4.79
442.08	4.77
442.435	4.76
442.79	4.74
443.145	4.75
443.5	4.73
443.855	4.72
444.21	4.72
444.565	4.7
444.92	4.71
445.275	4.71
445.629	4.7
445.984	4.71
446.339	4.72
446.693	4.73
447.048	4.7
447.403	4.72
447.757	4.73
448.112	4.73
448.466	4.75
448.82	4.75
449.175	4.75
449.529	4.77
449.883	4.77
450.238	4.77
450.592	4.75
450.946	4.74
451.3	4.76
451.654	4.75
452.008	4.74
452.362	4.72
452.716	4.72
453.07	4.75
453.424	4.73
453.778	4.7
454.132	4.7
454.486	4.72
454.839	4.69
455.193	4.67
455.547	4.68
455.9	4.67
456.254	4.67
456.607	4.66
456.961	4.66
457.314	4.67
457.668	4.66
458.021	4.67
458.375	4.67
458.728	4.67
459.081	4.69
459.434	4.72
459.787	4.71
460.141	4.72
460.494	4.7
460.847	4.72
461.2	4.72
461.553	4.73
461.906	4.74
462.259	4.74
462.611	4.74
462.964	4.75
463.317	4.75
463.67	4.75
464.022	4.74
464.375	4.72
464.728	4.74
465.08	4.75
465.433	4.76
465.785	4.78
466.138	4.78
466.49	4.79
466.843	4.81
467.195	4.84
467.547	4.83
467.899	4.82
468.252	4.83
468.604	4.85
468.956	4.85
469.308	4.84
469.66	4.86
470.012	4.86
470.364	4.88
470.716	4.89
471.068	4.9
471.42	4.92
471.772	4.94
472.123	4.95
472.475	4.95
472.827	4.96
473.178	4.95
473.53	4.95
473.882	4.97
474.233	4.93
474.585	4.9
474.936	4.91
475.288	4.9
475.639	4.89
475.99	4.85
476.342	4.86
476.693	4.88
477.044	4.89
477.395	4.88
477.746	4.87
478.097	4.88
478.448	4.86
478.8	4.84
479.15	4.82
479.501	4.8
479.852	4.81
480.203	4.81
480.554	4.8
480.905	4.8
481.255	4.81
481.606	4.82
481.957	4.83
482.307	4.84
482.658	4.86
483.009	4.85
483.359	4.86
483.709	4.87
484.06	4.86
484.41	4.87
484.761	4.89
485.111	4.89
485.461	4.89
485.811	4.9
486.162	4.92
486.512	4.93
486.862	4.94
487.212	4.96
487.562	4.95
487.912	4.97
488.262	4.99
488.612	4.99
488.961	4.99
489.311	4.99
489.661	5
490.011	5
490.36	5.02
490.71	5.03
491.06	5.03
491.409	5.04
491.759	5.03
492.108	5.03
492.458	5.05
492.807	5.06
493.157	5.08
493.506	5.09
493.855	5.12
494.204	5.14
494.554	5.15
494.903	5.17
495.252	5.17
495.601	5.17
495.95	5.19
496.299	5.22
496.648	5.24
496.997	5.28
497.346	5.31
497.695	5.31
498.043	5.38
498.392	5.41
498.741	5.44
499.09	5.47
499.438	5.5
499.787	5.52
500.135	5.55
500.484	5.57
500.832	5.59
501.181	5.61
501.529	5.63
501.878	5.68
502.226	5.73
502.574	5.77
502.923	5.82
503.271	5.85
503.619	5.91
503.967	5.97
504.315	6.01
504.663	6.03
505.011	6.07
505.359	6.08
505.707	6.1
506.055	6.17
506.403	6.2
506.751	6.23
507.098	6.28
507.446	6.33
507.794	6.38
508.141	6.41
508.489	6.48
508.837	6.54
509.184	6.57
509.531	6.61
509.879	6.66
510.226	6.73
510.574	6.78
510.921	6.83
511.268	6.87
511.616	6.96
511.963	7.02
512.31	7.09
512.657	7.15
513.004	7.19
513.351	7.22
513.698	7.32
514.045	7.41
514.392	7.52
514.739	7.61
515.086	7.67
515.432	7.75
515.779	7.85
516.126	7.92
516.473	8
516.819	8.11
517.166	8.2
517.512	8.25
517.859	8.33
518.205	8.4
518.552	8.46
518.898	8.5
519.245	8.58
519.591	8.66
519.937	8.74
520.283	8.86
520.629	8.95
520.976	9.03
521.322	9.15
521.668	9.22
522.014	9.3
522.36	9.42
522.706	9.55
523.052	9.64
523.398	9.78
523.743	9.96
524.089	10.1
524.435	10.19
524.781	10.34
525.126	10.47
525.472	10.59
525.817	10.72
526.163	10.84
526.509	10.93
526.854	11.03
527.199	11.12
527.545	11.21
527.89	11.33
528.235	11.43
528.581	11.5
528.926	11.59
529.271	11.69
529.616	11.81
529.961	11.92
530.306	12.03
530.651	12.13
530.996	12.23
531.341	12.34
531.686	12.51
532.031	12.64
532.376	12.8
532.721	12.94
533.065	13.09
533.41	13.25
533.755	13.43
534.099	13.59
534.444	13.77
534.788	13.95
535.133	14.09
535.477	14.28
535.822	14.48
536.166	14.69
536.51	14.92
536.855	15.12
537.199	15.36
537.543	15.61
537.887	15.88
538.231	16.13
538.576	16.37
538.92	16.62
539.264	16.83
539.608	17.03
539.951	17.22
540.295	17.42
540.639	17.64
540.983	17.83
541.327	18.05
541.671	18.24
542.014	18.42
542.358	18.64
542.701	18.83
543.045	19.02
543.389	19.22
543.732	19.42
544.075	19.63
544.419	19.83
544.762	20.03
545.105	20.25
545.449	20.49
545.792	20.75
546.135	21
546.478	21.29
546.821	21.56
547.165	21.86
547.508	22.16
547.851	22.43
548.194	22.7
548.536	22.97
548.879	23.29
549.222	23.64
549.565	23.93
549.908	24.24
550.25	24.55
550.593	24.87
550.936	25.17
551.278	25.51
551.621	25.79
551.963	26.13
552.306	26.44
552.648	26.72
552.991	27.02
553.333	27.33
553.675	27.6
554.017	27.95
554.36	28.26
554.702	28.52
555.044	28.82
555.386	29.14
555.728	29.41
556.07	29.68
556.412	29.94
556.754	30.22
557.096	30.55
557.438	30.83
557.78	31.11
558.121	31.39
558.463	31.69
558.805	32.08
559.147	32.38
559.488	32.65
559.83	32.97
560.171	33.25
560.513	33.53
560.854	33.85
561.196	34.16
561.537	34.48
561.878	34.79
562.22	35.1
562.561	35.37
562.902	35.73
563.243	36.05
563.584	36.31
563.925	36.59
564.266	36.87
564.607	37.16
564.948	37.38
565.289	37.7
565.63	37.96
565.971	38.21
566.312	38.53
566.653	38.85
566.993	39.09
567.334	39.38
567.675	39.64
568.015	39.89
568.356	40.09
568.696	40.32
569.037	40.62
569.377	40.86
569.718	41.13
570.058	41.36
570.398	41.61
570.739	41.93
571.079	42.19
571.419	42.4
571.759	42.61
572.099	42.93
572.439	43.11
572.779	43.35
573.119	43.58
573.459	43.73
573.799	43.88
574.139	44.12
574.479	44.35
574.819	44.58
575.158	44.77
575.498	45.04
575.838	45.28
576.177	45.44
576.517	45.73
576.856	45.92
577.196	46.16
577.535	46.4
577.875	46.56
578.214	46.81
578.553	47.06
578.893	47.29
579.232	47.49
579.571	47.74
579.91	47.98
580.25	48.16
580.589	48.4
580.928	48.65
581.267	48.83
581.606	49.1
581.945	49.25
582.283	49.5
582.622	49.72
582.961	49.95
583.3	50.21
583.639	50.36
583.977	50.57
584.316	50.65
584.654	50.85
584.993	51.03
585.332	51.19
585.67	51.31
586.008	51.49
586.347	51.7
586.685	51.92
587.024	52.14
587.362	52.27
587.7	52.45
588.038	52.63
588.376	52.81
588.715	52.8
589.053	52.99
589.391	53.16
589.729	53.26
590.067	53.46
590.404	53.6
590.742	53.73
591.08	53.88
591.418	54.09
591.756	54.17
592.093	54.33
592.431	54.47
592.769	54.64
593.106	54.84
593.444	54.97
593.781	55.08
594.119	55.15
594.456	55.3
594.793	55.36
595.131	55.47
595.468	55.58
595.805	55.79
596.143	55.91
596.48	56.02
596.817	56.07
597.154	56.05
597.491	56.07
597.828	56.13
598.165	56.15
598.502	56.2
598.839	56.34
599.176	56.4
599.512	56.5
599.849	56.64
600.186	56.69
600.523	56.68
600.859	56.82
601.196	56.87
601.532	56.96
601.869	57.1
602.205	57.21
602.542	57.35
602.878	57.35
603.215	57.38
603.551	57.4
603.887	57.46
604.223	57.6
604.56	57.72
604.896	57.87
605.232	57.94
605.568	58.01
605.904	58.02
606.24	58.03
606.576	58.09
606.912	58.07
607.248	58.16
607.583	58.28
607.919	58.28
608.255	58.39
608.591	58.4
608.926	58.46
609.262	58.48
609.597	58.52
609.933	58.61
610.268	58.65
610.604	58.7
610.939	58.8
611.275	58.8
611.61	58.88
611.945	58.92
612.281	59.08
612.616	59.19
612.951	59.37
613.286	59.54
613.621	59.6
613.956	59.73
614.291	59.9
614.626	60.05
614.961	60.23
615.296	60.34
615.631	60.56
615.966	60.64
616.3	60.71
616.635	60.78
616.97	60.91
617.304	60.97
617.639	61.09
617.973	61.2
618.308	61.23
618.642	61.3
618.977	61.34
619.311	61.31
619.646	61.38
619.98	61.45
620.314	61.38
620.648	61.46
620.983	61.5
621.317	61.49
621.651	61.56
621.985	61.54
622.319	61.52
622.653	61.49
622.987	61.44
623.321	61.45
623.655	61.5
623.988	61.51
624.322	61.53
624.656	61.63
624.99	61.63
625.323	61.78
625.657	61.77
625.99	61.72
626.324	61.74
626.657	61.76
626.991	61.74
627.324	61.82
627.658	61.89
627.991	61.89
628.324	61.87
628.657	61.9
628.991	61.9
629.324	61.98
629.657	62.01
629.99	62.19
630.323	62.33
630.656	62.36
630.989	62.35
631.322	62.46
631.655	62.42
631.987	62.47
632.32	62.47
632.653	62.55
632.986	62.62
633.318	62.79
633.651	62.86
633.984	62.93
634.316	63.04
634.649	63.06
634.981	63.17
635.313	63.21
635.646	63.18
635.978	63.28
636.31	63.28
636.643	63.31
636.975	63.18
637.307	63.21
637.639	63.17
637.971	63.2
638.303	63.28
638.635	63.29
638.967	63.3
639.299	63.28
639.631	63.21
639.963	63.18
640.295	63.16
640.626	63.15
640.958	63.16
641.29	63.14
641.621	63.08
641.953	63
642.285	62.95
642.616	63.08
642.948	63.05
643.279	63.07
643.61	63.03
643.942	63.09
644.273	63
644.604	63.11
644.936	63.05
645.267	62.87
645.598	62.96
645.929	62.99
646.26	63.01
646.591	63.11
646.922	63.18
647.253	63.1
647.584	63.08
647.915	63.03
648.245	63.16
648.576	63.24
648.907	63.15
649.238	63.19
649.568	63.11
649.899	63.11
650.229	63.24
650.56	63.36
650.89	63.39
651.221	63.41
651.551	63.33
651.882	63.49
652.212	63.68
652.542	63.51
652.872	63.41
653.203	63.56
653.533	63.54
653.863	63.53
654.193	63.52
654.523	63.53
654.853	63.66
655.183	63.49
655.513	63.48
655.843	63.68
656.172	63.67
656.502	63.66
656.832	63.54
657.162	63.33
657.491	63.3
657.821	63.37
658.15	63.42
658.48	63.47
658.809	63.48
659.139	63.41
659.468	63.43
659.798	63.62
660.127	63.51
660.456	63.49
660.785	63.52
661.115	63.51
661.444	63.58
661.773	63.31
662.102	63.4
662.431	63.4
662.76	63.49
663.089	63.64
663.418	63.76
663.747	63.89
664.076	64.13
664.404	64.18
664.733	64.1
665.062	63.96
665.39	63.99
665.719	63.99
666.048	63.89
666.376	64.03
666.705	63.94
667.033	64.05
667.362	64.11
667.69	64.24
668.018	64.42
668.347	64.39
668.675	64.56
669.003	64.65
669.331	64.69
669.659	64.59
669.987	64.46
670.315	64.37
670.643	64.35
670.971	64.31
671.299	64.35
671.627	64.38
671.955	64.6
672.283	64.52
672.61	64.61
672.938	64.76
673.266	64.68
673.593	64.63
673.921	64.52
674.249	64.32
674.576	64.16
674.904	64.09
675.231	64.17
675.558	64.28
675.886	64.37
676.213	64.3
676.54	64.27
676.867	64.19
677.195	64.3
677.522	64.48
677.849	64.3
678.176	64.28
678.503	64.31
678.83	64.16
679.157	64.1
679.484	63.97
679.81	63.95
680.137	64.05
680.464	64.02
680.791	64
681.117	64.05
681.444	64.13
681.771	64.15
682.097	64.09
682.424	64.02
682.75	63.8
683.077	63.85
683.403	63.97
683.729	64.09
684.056	63.86
684.382	63.77
684.708	63.65
685.034	63.5
685.36	63.42
685.686	63.47
686.012	63.53
686.339	63.5
686.664	63.53
686.99	63.47
687.316	63.69
687.642	63.7
687.968	63.7
688.294	63.66
688.619	63.61
688.945	63.45
689.271	63.52
689.596	63.58
689.922	63.4
690.247	63.37
690.573	63.4
690.898	63.53
691.224	63.55
691.549	63.88
691.874	64.03
692.2	64.08
692.525	64.23
692.85	64.2
693.175	64.16
693.5	64.26
693.825	64.34
694.15	64.22
694.475	64.34
694.8	64.51
695.125	64.4
695.45	64.31
695.775	64.43
696.099	64.27
696.424	64.14
696.749	64.14
697.073	64.07
697.398	64.1
697.723	64.29
698.047	64.16
698.372	64.06
698.696	64.02
699.02	63.96
699.345	63.92
699.669	63.87
699.993	64.13
700.318	64.1
700.642	64
700.966	63.9
701.29	63.71
701.614	63.57
701.938	63.6
702.262	63.8
702.586	63.71
702.91	63.68
703.234	63.84
703.557	64.04
703.881	64.17
704.205	64.27
704.529	64.06
704.852	64.27
705.176	64.47
705.499	64.46
705.823	64.6
706.146	64.65
706.47	64.94
706.793	64.77
707.117	64.69
707.44	64.79
707.763	64.81
708.086	64.71
708.409	64.81
708.733	64.9
709.056	64.8
709.379	64.95
709.702	65.08
710.025	65.27
710.348	65.25
710.671	65.09
710.993	64.7
711.316	64.68
711.639	64.69
711.962	64.79
712.284	64.79
712.607	64.75
712.93	64.5
713.252	64.36
713.575	64.25
713.897	64.06
714.22	64.01
714.542	64.12
714.864	64.43
715.187	64.27
715.509	64.24
715.831	64.3
716.153	64.37
716.475	64.11
716.798	63.78
717.12	63.71
717.442	63.6
717.764	64
718.085	64.02
718.407	63.8
718.729	63.54
719.051	63.48
719.373	63.5
719.695	63.65
720.016	63.61
720.338	64.02
720.659	64.4
720.981	64.56
721.302	64.41
721.624	64.19
721.945	64.48
722.267	64.58
722.588	64.2
722.909	63.89
723.231	64.14
723.552	64.16
723.873	64.07
724.194	64.25
724.515	63.94
724.836	63.85
725.157	63.67
725.478	63.82
725.799	63.91
726.12	63.87
726.441	63.81
726.762	63.84
727.083	63.61
727.403	63.22
727.724	63.13
728.045	63.25
728.365	63.47
728.686	63.43
729.006	63.32
729.327	63.5
729.647	63.67
729.967	63.58
730.288	63.42
730.608	63.55
730.928	63.65
731.249	63.78
731.569	63.89
731.889	64.08
732.209	63.89
732.529	63.98
732.849	63.85
733.169	64.04
733.489	64.04
733.809	64.04
734.129	64.33
734.448	64.36
734.768	64.46
735.088	64.58
735.408	64.5
735.727	64.69
736.047	65.02
736.366	65
736.686	65.11
737.005	65.32
737.325	65.44
737.644	65.48
737.963	65.32
738.283	65.1
738.602	65.23
738.921	65.31
739.24	65.15
739.56	65.4
739.879	65.39
740.198	65.5
740.517	65.32
740.836	65.47
741.155	65.57
741.473	65.43
741.792	65.47
742.111	65.84
742.43	65.68
742.748	65.47
743.067	65.32
743.386	65.55
743.704	65.67
744.023	65.75
744.341	65.7
744.66	65.57
744.978	65.82
745.297	65.26
745.615	65.12
745.933	65.1
746.252	64.93
746.57	65.16
746.888	65.24
747.206	65.48
747.524	65.16
747.842	65.21
748.16	65.18
748.478	64.45
748.796	63.87
749.114	63.87
749.432	63.6
749.749	63.72
750.067	63.42
750.385	63.49
750.703	62.95
751.02	62.98
751.338	63.17
751.655	63.12
751.973	63.64
752.29	63.49
752.608	63.87
752.925	64.06
753.242	63.75
753.56	63.83
753.877	63.91
754.194	63.73
754.511	63.32
754.828	63.56
755.145	63.89
755.462	64.36
755.779	64.45
756.096	64.3
756.413	64.28
756.73	64.26
757.047	64.08
757.364	64.15
757.68	63.78
757.997	63.52
758.314	63.4
758.63	63.66
758.947	63.68
759.264	63.41
759.58	63.03
759.896	62.48
760.213	62.19
760.529	61.85
760.846	61.97
761.162	62.1
761.478	62.1
761.794	62.04
762.11	61.93
762.426	61.87
762.743	61.79
763.059	61.85
763.375	61.84
763.69	61.8
764.006	61.97
764.322	62.39
764.638	62.85
764.954	63.01
765.27	62.55
765.585	62.7
765.901	62.61
766.216	62.88
766.532	63.57
766.848	63.59
767.163	63.52
767.478	63.52
767.794	63.6
768.109	63.33
768.424	63.3
768.74	63.62
769.055	63.69
769.37	63.84
769.685	64.04
770	64.13
770.315	64.22
770.63	64.45
770.945	64.61
771.26	64.35
771.575	64.35
771.89	65.19
772.205	65.27
772.52	65.2
772.834	65.18
773.149	64.89
773.464	65.03
773.778	64.85
774.093	65.45
774.407	65.24
774.722	65.93
775.036	66.2
775.351	65.58
775.665	65.33
775.979	65.76
776.293	65.37
776.608	65.9
776.922	66.08
777.236	65.96
777.55	65.46
777.864	66.03
778.178	65.83
778.492	65.22
778.806	65.27
779.12	65.89
779.434	66.3
779.747	66.3
780.061	66.47
780.375	67.03
780.689	67.18
781.002	67.2
781.316	66.36
781.629	66.96
781.943	67.2
782.256	67.39
782.57	67.88
782.883	68.82
783.196	68.64
783.51	68.86
783.823	69.06
784.136	68.67
784.449	67.44
784.762	68.03
785.075	68.34
785.388	68.35
785.701	68.11
786.014	67.1
786.327	66.77
786.64	66.78
786.953	66.94
787.266	66.57
787.578	66.55
787.891	66.96
788.204	66.94
788.516	66.85
788.829	67.23
789.141	66.73
789.454	66.15
789.766	66.35
790.079	65.58
790.391	65.09
790.703	65.51
791.016	66.15
791.328	65.46
791.64	65.27
791.952	65.15
792.264	64.59
792.576	65.05
792.888	64.91
793.2	64.97
793.512	64.33
793.824	64.13
794.136	64.13
794.448	64.2
794.76	63.71
795.071	63.96
795.383	63.43
795.695	63.66
796.006	63.52
796.318	63.42
796.629	64.02
796.941	64.69
797.252	64.11
797.564	64.09
797.875	64.37
798.186	64.81
798.497	64.74
798.809	64.75
799.12	64.37
799.431	64.34
799.742	63.97
800.053	64.93
800.364	65.35
800.675	65.45
800.986	65.38
801.297	65.08
801.608	64.55
801.918	65.29
802.229	65.15
802.54	65.05
802.851	64.93
803.161	64.61
803.472	63.92
803.782	64.63
804.093	64.85
804.403	65.06
804.714	65.43
805.024	65.39
805.334	66.13
805.645	66.84
805.955	67.12
806.265	67.62
806.575	66.79
806.885	66.22
807.195	66.71
807.505	66.29
807.815	67.15
808.125	67.11
808.435	65.96
808.745	65.63
809.055	65.84
809.365	65.03
809.674	65.42
809.984	65.51
810.294	64.84
810.603	65.13
810.913	64.86
811.222	63.74
811.532	64.42
811.841	64.08
812.151	63.95
812.46	64.04
812.769	63.86
813.079	63.96
813.388	63.57
813.697	62.97
814.006	62.64
814.315	62.14
814.624	62.08
814.933	62.91
815.242	62.93
815.551	63.57
815.86	64.36
816.169	64.32
816.478	64.02
816.786	64.26
817.095	63.38
817.404	63.68
817.712	63.64
818.021	63.98
818.33	63.53
818.638	63.38
818.947	62.55
819.255	61.51
819.563	61.74
819.872	61.64
820.18	61.11
820.488	61.43
820.796	61.15
821.105	61.39
821.413	61.53
821.721	61.55
822.029	61.35
822.337	61.39
822.645	61.66
822.953	61.7
823.26	61.57
823.568	61.84
823.876	61.69
824.184	61.66
824.491	61.34
824.799	61.28
825.107	61.36
825.414	61.49
825.722	61.91
826.029	61.8
826.337	62.13
826.644	62.56
826.951	62.59
827.259	62.82
827.566	62.89
827.873	62.88
828.18	62.99
828.488	63.09
828.795	62.99
829.102	62.77
829.409	62.71
829.716	62.62
830.023	62.14
830.329	62.3
830.636	62.67
830.943	63.12
831.25	63.53
831.557	63.08
831.863	63.71
832.17	63.09
832.476	63.52
832.783	62.99
833.089	62.71
833.396	63.2
833.702	62.75
834.009	62.11
834.315	61.8
834.621	62.12
834.928	62.08
835.234	61.79
835.54	61.82
835.846	62.39
836.152	63.42
836.458	63.55
836.764	63.84
837.07	63.45
837.376	63.1
837.682	63.09
837.988	63.61
838.293	63.02
838.599	63.47
838.905	63.57
839.211	63.6
839.516	64.28
839.822	64.58
840.127	65.27
840.433	66.07
840.738	67.17
841.044	67.27
841.349	67.89
841.654	68.74
841.959	67.5
842.265	68.13
842.57	67.31
842.875	68.56
843.18	68.36
843.485	69.85
843.79	69.1
844.095	68.46
844.4	69.77
844.705	70.37
845.01	71.66
845.315	70.76
845.619	71.45
845.924	69.09
846.229	66.83
846.533	67.42
846.838	68.62
847.142	68.22
847.447	68.77
847.751	69.65
848.056	70.08
848.36	73.03
848.664	72.46
848.969	73.8
849.273	72.29
849.577	72.09
849.881	70.22
850.185	72.53
850.489	74.35
850.794	72.46
851.097	73.12
851.401	72.82
851.705	74.12
852.009	75.16
852.313	77
852.617	78.55
852.92	79.59
853.224	80.3
853.528	76.23
853.831	73.82
854.135	73.99
854.438	73.44
854.742	72.65
855.045	70.66
855.349	70.96
855.652	71.77
855.955	72.9
856.259	74.41
856.562	73.05
856.865	71.36
857.168	71.16
857.471	71.85
857.774	70.25
858.077	71.51
858.38	70.68
858.683	76.86
858.986	74.39
859.289	75.72
859.592	73.31
859.894	74.94
860.197	74.16
860.5	73.13
860.802	78.54
861.105	82.07
861.407	83.82
861.71	79.92
862.012	79.91
862.315	79.08
862.617	74.98
862.919	77.98
863.222	79.09
863.524	78.52
863.826	77.87
864.128	79.77
864.43	75.97
864.732	76.81
865.034	73.51
865.336	76.14
865.638	72.98
865.94	74.98
866.242	76.45
866.544	79.81
866.846	78.84
867.147	73.02
867.449	69.21
867.751	70.08
868.052	71.74
868.354	70.87
868.655	69.01
868.957	74.32
869.258	75.47
869.56	73.26
869.861	70.62
870.162	70.67
870.463	68.46
870.765	69.85
871.066	69.93
871.367	70.04
871.668	68.42
871.969	68.96
872.27	68.01
872.571	67.67
872.872	66.28
873.173	64.35
873.473	65.7
873.774	65.08
874.075	62.82
874.376	66.81
874.676	65.5
874.977	65.25
875.277	63.21
875.578	60.01
875.878	62.02
876.179	64.64
876.479	63.76
876.78	64.87
877.08	64.81
877.38	63.65
877.68	60.92
877.981	62.7
878.281	61.66
878.581	62.28
