Data from BA53411_Reflection_00007.txt Node
Date: Tue Nov 19 11:53:43 EST 2019
User: vgr7
Spectrometer: USB2G7710
Scans to average: 3
Trigger mode: 4
Integration Time (sec): 2.000000E-2
Electric dark correction enabled: true
Boxcar width: 10
XAxis mode: Wavelengths
Number of Pixels in Spectrum: 2048
>>>>>Begin Spectral Data<<<<<
177.721	12.49
178.105	-19.85
178.488	-13.63
178.871	-35.03
179.254	-39.84
179.636	-3.37
180.019	327.64
180.402	277.78
180.785	-186.27
181.168	-60.92
181.55	-43.25
181.933	-12.47
182.316	-130.05
182.698	-105.59
183.081	-88.74
183.463	-83.96
183.846	-45.61
184.228	-21.78
184.611	-20.05
184.993	-65.81
185.376	-67.24
185.758	-105.37
186.14	-191.95
186.522	3147.62
186.904	1522.22
187.287	-322.89
187.669	-212.82
188.051	-87.06
188.433	-75.44
188.815	-39.57
189.197	-119.64
189.579	-43.46
189.961	-131.29
190.342	-34.75
190.724	-3.64
191.106	2322.22
191.488	-21.69
191.869	40.7
192.251	45.48
192.633	97.21
193.014	121.56
193.396	64.04
193.777	74.36
194.159	19.32
194.54	96.51
194.922	159.36
195.303	128.99
195.684	788.17
196.065	483.97
196.447	724.34
196.828	898.94
197.209	4914.81
197.59	651.97
197.971	2046.24
198.352	-7714.81
198.733	3472.55
199.114	-793
199.495	-481.04
199.876	-375.83
200.257	-167.7
200.638	-210.65
201.018	-183.43
201.399	-473.84
201.78	-379.75
202.16	-8166.67
202.541	-421.07
202.922	-241.21
203.302	-321.25
203.683	509.52
204.063	366.67
204.444	-406.17
204.824	-690.48
205.204	-362.59
205.585	-1059.42
205.965	-358.78
206.345	2524.24
206.725	-458.56
207.106	-118.29
207.486	-88.41
207.866	-128.31
208.246	-48.36
208.626	714.04
209.006	-566.67
209.386	11.65
209.766	128.07
210.145	14.34
210.525	33.33
210.905	-65.62
211.285	-30.78
211.664	-148.23
212.044	-173.87
212.424	-210.29
212.803	-196.3
213.183	-291.87
213.562	-348.06
213.942	-426.7
214.321	-420.28
214.701	-394.2
215.08	-342
215.459	-399.18
215.838	-288.7
216.218	-399.12
216.597	3549.28
216.976	-1671.24
217.355	-1138.1
217.734	-1625.15
218.113	2649.55
218.492	5825.49
218.871	2218.52
219.25	1022.56
219.629	2037.98
220.008	27544.44
220.387	779.37
220.766	288
221.144	343.65
221.523	305.93
221.902	287.62
222.28	118.71
222.659	103.09
223.037	85.2
223.416	66.28
223.794	43.95
224.173	77.88
224.551	66.16
224.929	23.37
225.308	4.64
225.686	4.32
226.064	-4.19
226.442	-9.25
226.821	-14.96
227.199	-13.84
227.577	-12.24
227.955	-2.7
228.333	-5.94
228.711	-4.4
229.089	-1.81
229.467	-6.75
229.845	1.98
230.222	7.03
230.6	2.75
230.978	8.74
231.356	10.45
231.733	12.57
232.111	11.15
232.488	10.91
232.866	17.85
233.243	19.5
233.621	18.85
233.998	19.77
234.376	23.84
234.753	24.67
235.13	25.24
235.508	24.54
235.885	20.98
236.262	20.67
236.639	19.19
237.016	18.71
237.393	21.84
237.77	19.5
238.147	17.47
238.524	16.97
238.901	15.88
239.278	14.66
239.655	12.73
240.032	12.57
240.409	12.47
240.785	10.78
241.162	10.08
241.539	9.85
241.915	8.98
242.292	9.14
242.668	8.44
243.045	8.7
243.421	8.73
243.798	8.57
244.174	8.45
244.551	8.43
244.927	8.47
245.303	7.92
245.679	7.96
246.056	8.29
246.432	8.39
246.808	8.3
247.184	8.24
247.56	8.36
247.936	8.39
248.312	8.19
248.688	8.19
249.064	8.21
249.44	8.1
249.815	7.95
250.191	7.84
250.567	7.6
250.943	7.72
251.318	7.91
251.694	7.91
252.069	8.09
252.445	8.36
252.82	8.33
253.196	8.7
253.571	8.48
253.947	8.12
254.322	7.92
254.697	8.17
255.073	8.25
255.448	8.22
255.823	8.08
256.198	8.02
256.573	7.99
256.948	8.03
257.323	8.17
257.698	8.31
258.073	8.15
258.448	8.25
258.823	7.74
259.198	7.48
259.573	7.35
259.948	7.44
260.322	7.17
260.697	7.07
261.072	7.07
261.446	7.16
261.821	7.26
262.195	7.22
262.57	7.07
262.944	7.01
263.319	7.01
263.693	6.92
264.067	6.88
264.442	6.82
264.816	6.73
265.19	6.88
265.564	6.95
265.938	6.89
266.313	6.79
266.687	6.91
267.061	7.03
267.435	7.39
267.809	6.87
268.183	7.14
268.556	6.95
268.93	6.8
269.304	6.66
269.678	6.57
270.051	6.56
270.425	6.53
270.799	6.49
271.172	6.31
271.546	6.4
271.919	6.59
272.293	6.77
272.666	6.85
273.04	6.75
273.413	6.62
273.787	6.59
274.16	6.87
274.533	6.92
274.906	6.87
275.279	6.48
275.653	6.76
276.026	6.51
276.399	6.44
276.772	6.52
277.145	6.65
277.518	6.53
277.891	6.47
278.263	6.5
278.636	6.48
279.009	6.72
279.382	6.66
279.755	6.56
280.127	6.41
280.5	6.18
280.872	6.09
281.245	6.07
281.617	6.07
281.99	6.05
282.362	5.97
282.735	6.04
283.107	6.29
283.479	6.29
283.852	6.44
284.224	6.78
284.596	6.67
284.968	6.56
285.34	6.51
285.713	6.5
286.085	6.53
286.457	6.66
286.829	6.61
287.201	6.74
287.572	6.85
287.944	6.96
288.316	7.14
288.688	7.26
289.06	7.54
289.431	7.71
289.803	7.65
290.175	7.79
290.546	7.76
290.918	7.84
291.289	7.82
291.661	7.92
292.032	7.94
292.403	8.01
292.775	8.16
293.146	8.43
293.517	8.46
293.889	8.41
294.26	8.49
294.631	8.51
295.002	8.46
295.373	8.32
295.744	8.3
296.115	8.26
296.486	8.34
296.857	8.27
297.228	8.3
297.599	8.39
297.97	8.45
298.34	8.55
298.711	8.53
299.082	8.63
299.452	8.65
299.823	8.67
300.194	8.8
300.564	8.54
300.935	8.66
301.305	8.77
301.676	8.7
302.046	8.52
302.416	8.55
302.787	8.59
303.157	8.78
303.527	8.84
303.897	9.04
304.267	8.94
304.637	9.07
305.008	9.01
305.378	9
305.748	9
306.117	9.16
306.487	9.29
306.857	9.28
307.227	9.48
307.597	9.56
307.967	9.78
308.336	10.08
308.706	10
309.076	10.22
309.445	10.41
309.815	10.7
310.184	10.94
310.554	11.06
310.923	11.16
311.293	11.3
311.662	11.35
312.031	11.39
312.401	11.17
312.77	11.19
313.139	11.46
313.508	11.53
313.877	11.51
314.246	11.57
314.616	11.76
314.985	11.78
315.353	11.8
315.722	11.74
316.091	11.84
316.46	11.8
316.829	11.79
317.198	11.87
317.567	11.93
317.935	11.82
318.304	12.17
318.672	12.23
319.041	12.33
319.41	12.29
319.778	12.44
320.147	12.67
320.515	13.05
320.883	12.85
321.252	13.24
321.62	13.34
321.988	13.35
322.357	13.37
322.725	13.35
323.093	13.54
323.461	13.54
323.829	13.67
324.197	13.75
324.565	13.68
324.933	13.72
325.301	13.62
325.669	13.69
326.037	13.63
326.405	13.48
326.772	13.46
327.14	13.55
327.508	13.61
327.875	13.79
328.243	13.77
328.61	14.01
328.978	13.84
329.346	13.81
329.713	14.06
330.08	14.06
330.448	14.05
330.815	14.01
331.182	14.16
331.55	14.2
331.917	14.43
332.284	14.63
332.651	14.75
333.018	14.86
333.385	14.95
333.752	14.77
334.119	14.86
334.486	14.93
334.853	14.86
335.22	14.93
335.587	14.75
335.954	14.74
336.32	14.73
336.687	14.82
337.054	14.92
337.42	14.85
337.787	14.85
338.153	14.75
338.52	14.66
338.886	14.63
339.253	14.64
339.619	14.56
339.986	14.45
340.352	14.62
340.718	14.75
341.084	14.69
341.451	14.82
341.817	14.92
342.183	14.9
342.549	15.05
342.915	15.01
343.281	15.08
343.647	14.96
344.013	14.98
344.379	14.8
344.745	14.8
345.11	14.71
345.476	14.88
345.842	15.02
346.208	15.13
346.573	15.22
346.939	15.21
347.304	15.32
347.67	15.35
348.035	15.22
348.401	15.17
348.766	15.27
349.132	15.18
349.497	15.31
349.862	15.28
350.228	15.36
350.593	15.38
350.958	15.49
351.323	15.59
351.688	15.58
352.053	15.64
352.418	15.61
352.783	15.6
353.148	15.47
353.513	15.39
353.878	15.31
354.243	15.15
354.608	15.07
354.972	14.98
355.337	14.95
355.702	15.02
356.066	14.97
356.431	14.91
356.795	14.97
357.16	14.77
357.524	14.75
357.889	14.7
358.253	14.64
358.618	14.54
358.982	14.44
359.346	14.39
359.71	14.38
360.075	14.31
360.439	14.31
360.803	14.35
361.167	14.34
361.531	14.31
361.895	14.31
362.259	14.27
362.623	14.19
362.987	14.16
363.351	14.08
363.714	13.98
364.078	13.97
364.442	13.85
364.806	13.81
365.169	13.79
365.533	13.62
365.896	13.64
366.26	13.57
366.623	13.58
366.987	13.43
367.35	13.38
367.714	13.41
368.077	13.3
368.44	13.13
368.803	13.08
369.167	13
369.53	12.97
369.893	12.89
370.256	12.86
370.619	12.78
370.982	12.7
371.345	12.63
371.708	12.56
372.071	12.48
372.434	12.48
372.797	12.39
373.159	12.36
373.522	12.25
373.885	12.16
374.247	12.03
374.61	11.98
374.973	11.89
375.335	11.82
375.698	11.66
376.06	11.66
376.423	11.55
376.785	11.5
377.147	11.38
377.51	11.33
377.872	11.27
378.234	11.16
378.596	11
378.958	10.89
379.321	10.81
379.683	10.78
380.045	10.65
380.407	10.57
380.769	10.47
381.13	10.36
381.492	10.33
381.854	10.27
382.216	10.24
382.578	10.19
382.939	10.05
383.301	10.1
383.663	9.93
384.024	9.88
384.386	9.85
384.747	9.81
385.109	9.73
385.47	9.69
385.832	9.69
386.193	9.69
386.554	9.62
386.916	9.48
387.277	9.4
387.638	9.36
387.999	9.29
388.36	9.27
388.721	9.25
389.082	9.21
389.443	9.16
389.804	9.07
390.165	8.98
390.526	8.95
390.887	8.87
391.248	8.85
391.609	8.82
391.969	8.75
392.33	8.65
392.691	8.6
393.051	8.55
393.412	8.5
393.772	8.45
394.133	8.44
394.493	8.43
394.854	8.41
395.214	8.36
395.574	8.32
395.935	8.25
396.295	8.17
396.655	8.07
397.015	8.05
397.376	8.01
397.736	7.98
398.096	7.95
398.456	7.89
398.816	7.87
399.176	7.76
399.535	7.67
399.895	7.66
400.255	7.63
400.615	7.57
400.975	7.54
401.334	7.43
401.694	7.43
402.054	7.35
402.413	7.3
402.773	7.28
403.132	7.2
403.492	7.22
403.851	7.19
404.211	7.19
404.57	7.14
404.929	7.1
405.288	7.05
405.648	6.97
406.007	6.96
406.366	6.91
406.725	6.93
407.084	6.91
407.443	6.9
407.802	6.87
408.161	6.87
408.52	6.81
408.879	6.84
409.238	6.79
409.596	6.82
409.955	6.79
410.314	6.75
410.673	6.75
411.031	6.65
411.39	6.64
411.748	6.62
412.107	6.56
412.465	6.52
412.824	6.53
413.182	6.46
413.54	6.4
413.899	6.34
414.257	6.27
414.615	6.23
414.974	6.2
415.332	6.17
415.69	6.11
416.048	6.09
416.406	6.04
416.764	6.01
417.122	5.94
417.48	5.91
417.838	5.88
418.195	5.85
418.553	5.84
418.911	5.8
419.269	5.75
419.626	5.75
419.984	5.75
420.342	5.71
420.699	5.7
421.057	5.7
421.414	5.68
421.772	5.67
422.129	5.66
422.486	5.65
422.844	5.63
423.201	5.63
423.558	5.62
423.915	5.61
424.273	5.58
424.63	5.59
424.987	5.58
425.344	5.57
425.701	5.54
426.058	5.53
426.415	5.53
426.772	5.52
427.128	5.5
427.485	5.48
427.842	5.47
428.199	5.47
428.555	5.45
428.912	5.45
429.269	5.45
429.625	5.45
429.982	5.41
430.338	5.41
430.695	5.37
431.051	5.36
431.407	5.33
431.764	5.35
432.12	5.35
432.476	5.34
432.832	5.34
433.189	5.36
433.545	5.35
433.901	5.34
434.257	5.35
434.613	5.35
434.969	5.37
435.325	5.36
435.681	5.36
436.036	5.36
436.392	5.37
436.748	5.37
437.104	5.37
437.459	5.38
437.815	5.35
438.171	5.33
438.526	5.31
438.882	5.32
439.237	5.31
439.593	5.29
439.948	5.28
440.304	5.28
440.659	5.27
441.014	5.25
441.369	5.24
441.725	5.23
442.08	5.22
442.435	5.2
442.79	5.2
443.145	5.19
443.5	5.18
443.855	5.15
444.21	5.14
444.565	5.12
444.92	5.12
445.275	5.1
445.629	5.12
445.984	5.13
446.339	5.11
446.693	5.11
447.048	5.1
447.403	5.09
447.757	5.07
448.112	5.06
448.466	5.05
448.82	5.06
449.175	5.05
449.529	5.05
449.883	5.05
450.238	5.03
450.592	5.02
450.946	5.03
451.3	5.05
451.654	5
452.008	4.98
452.362	4.97
452.716	4.98
453.07	4.97
453.424	4.97
453.778	4.96
454.132	4.95
454.486	4.93
454.839	4.95
455.193	4.94
455.547	4.96
455.9	4.98
456.254	4.97
456.607	4.98
456.961	4.98
457.314	4.96
457.668	4.97
458.021	4.98
458.375	4.95
458.728	4.94
459.081	4.97
459.434	4.98
459.787	4.99
460.141	5.01
460.494	5
460.847	5.01
461.2	5.01
461.553	5.02
461.906	5.05
462.259	5.05
462.611	5.06
462.964	5.05
463.317	5.05
463.67	5.06
464.022	5.06
464.375	5.04
464.728	5.06
465.08	5.08
465.433	5.09
465.785	5.12
466.138	5.14
466.49	5.17
466.843	5.19
467.195	5.19
467.547	5.2
467.899	5.23
468.252	5.25
468.604	5.27
468.956	5.29
469.308	5.3
469.66	5.31
470.012	5.32
470.364	5.32
470.716	5.35
471.068	5.36
471.42	5.35
471.772	5.35
472.123	5.34
472.475	5.35
472.827	5.34
473.178	5.34
473.53	5.35
473.882	5.33
474.233	5.32
474.585	5.34
474.936	5.35
475.288	5.34
475.639	5.34
475.99	5.31
476.342	5.29
476.693	5.27
477.044	5.23
477.395	5.24
477.746	5.23
478.097	5.22
478.448	5.22
478.8	5.21
479.15	5.22
479.501	5.22
479.852	5.2
480.203	5.21
480.554	5.21
480.905	5.21
481.255	5.2
481.606	5.2
481.957	5.19
482.307	5.19
482.658	5.2
483.009	5.19
483.359	5.2
483.709	5.21
484.06	5.22
484.41	5.23
484.761	5.24
485.111	5.25
485.461	5.25
485.811	5.24
486.162	5.25
486.512	5.27
486.862	5.29
487.212	5.29
487.562	5.28
487.912	5.28
488.262	5.27
488.612	5.29
488.961	5.29
489.311	5.3
489.661	5.31
490.011	5.31
490.36	5.32
490.71	5.32
491.06	5.33
491.409	5.33
491.759	5.34
492.108	5.35
492.458	5.37
492.807	5.39
493.157	5.41
493.506	5.43
493.855	5.45
494.204	5.46
494.554	5.48
494.903	5.53
495.252	5.57
495.601	5.63
495.95	5.67
496.299	5.72
496.648	5.76
496.997	5.8
497.346	5.85
497.695	5.9
498.043	5.96
498.392	6.03
498.741	6.05
499.09	6.09
499.438	6.13
499.787	6.17
500.135	6.19
500.484	6.24
500.832	6.28
501.181	6.34
501.529	6.41
501.878	6.47
502.226	6.52
502.574	6.59
502.923	6.64
503.271	6.68
503.619	6.74
503.967	6.8
504.315	6.85
504.663	6.88
505.011	6.95
505.359	7.01
505.707	7.07
506.055	7.16
506.403	7.22
506.751	7.27
507.098	7.35
507.446	7.42
507.794	7.49
508.141	7.54
508.489	7.62
508.837	7.71
509.184	7.77
509.531	7.85
509.879	7.91
510.226	7.96
510.574	8.01
510.921	8.08
511.268	8.17
511.616	8.26
511.963	8.34
512.31	8.39
512.657	8.49
513.004	8.55
513.351	8.65
513.698	8.78
514.045	8.9
514.392	9.03
514.739	9.15
515.086	9.26
515.432	9.39
515.779	9.51
516.126	9.59
516.473	9.7
516.819	9.79
517.166	9.9
517.512	10.03
517.859	10.16
518.205	10.26
518.552	10.35
518.898	10.45
519.245	10.59
519.591	10.71
519.937	10.8
520.283	10.92
520.629	11.02
520.976	11.11
521.322	11.23
521.668	11.33
522.014	11.46
522.36	11.6
522.706	11.77
523.052	11.9
523.398	12.07
523.743	12.25
524.089	12.42
524.435	12.57
524.781	12.74
525.126	12.89
525.472	13.02
525.817	13.16
526.163	13.28
526.509	13.4
526.854	13.51
527.199	13.64
527.545	13.77
527.89	13.89
528.235	14.02
528.581	14.13
528.926	14.26
529.271	14.38
529.616	14.5
529.961	14.61
530.306	14.76
530.651	14.88
530.996	15.02
531.341	15.18
531.686	15.35
532.031	15.51
532.376	15.66
532.721	15.86
533.065	16.04
533.41	16.22
533.755	16.41
534.099	16.65
534.444	16.85
534.788	17.03
535.133	17.23
535.477	17.41
535.822	17.64
536.166	17.85
536.51	18.11
536.855	18.39
537.199	18.64
537.543	18.89
537.887	19.16
538.231	19.44
538.576	19.72
538.92	19.98
539.264	20.24
539.608	20.52
539.951	20.72
540.295	20.96
540.639	21.2
540.983	21.43
541.327	21.62
541.671	21.83
542.014	22.05
542.358	22.28
542.701	22.53
543.045	22.75
543.389	22.99
543.732	23.2
544.075	23.39
544.419	23.63
544.762	23.87
545.105	24.15
545.449	24.39
545.792	24.68
546.135	24.98
546.478	25.27
546.821	25.55
547.165	25.88
547.508	26.2
547.851	26.5
548.194	26.81
548.536	27.13
548.879	27.47
549.222	27.81
549.565	28.12
549.908	28.39
550.25	28.68
550.593	28.96
550.936	29.33
551.278	29.67
551.621	30.04
551.963	30.46
552.306	30.77
552.648	31.14
552.991	31.47
553.333	31.77
553.675	32.06
554.017	32.43
554.36	32.77
554.702	33.07
555.044	33.43
555.386	33.69
555.728	34
556.07	34.26
556.412	34.55
556.754	34.79
557.096	35.12
557.438	35.44
557.78	35.74
558.121	36.03
558.463	36.43
558.805	36.7
559.147	36.96
559.488	37.24
559.83	37.57
560.171	37.76
560.513	38.09
560.854	38.42
561.196	38.67
561.537	38.98
561.878	39.29
562.22	39.48
562.561	39.79
562.902	40.06
563.243	40.34
563.584	40.57
563.925	40.9
564.266	41.14
564.607	41.44
564.948	41.74
565.289	42.06
565.63	42.26
565.971	42.49
566.312	42.74
566.653	43.02
566.993	43.27
567.334	43.62
567.675	43.81
568.015	44.09
568.356	44.31
568.696	44.5
569.037	44.73
569.377	44.98
569.718	45.2
570.058	45.49
570.398	45.71
570.739	45.99
571.079	46.2
571.419	46.47
571.759	46.64
572.099	46.87
572.439	47.03
572.779	47.25
573.119	47.51
573.459	47.73
573.799	47.88
574.139	48.05
574.479	48.22
574.819	48.49
575.158	48.67
575.498	48.86
575.838	49.15
576.177	49.34
576.517	49.56
576.856	49.77
577.196	49.95
577.535	50.25
577.875	50.51
578.214	50.75
578.553	50.97
578.893	51.22
579.232	51.43
579.571	51.63
579.91	51.86
580.25	52.01
580.589	52.22
580.928	52.38
581.267	52.55
581.606	52.79
581.945	52.88
582.283	53.12
582.622	53.23
582.961	53.35
583.3	53.51
583.639	53.66
583.977	53.81
584.316	53.98
584.654	54.08
584.993	54.18
585.332	54.36
585.67	54.55
586.008	54.7
586.347	54.82
586.685	54.99
587.024	55.04
587.362	55.21
587.7	55.26
588.038	55.47
588.376	55.66
588.715	55.74
589.053	55.92
589.391	56.04
589.729	56.26
590.067	56.38
590.404	56.59
590.742	56.8
591.08	56.94
591.418	57.01
591.756	57.1
592.093	57.27
592.431	57.31
592.769	57.36
593.106	57.55
593.444	57.67
593.781	57.73
594.119	57.89
594.456	58.01
594.793	58.1
595.131	58.19
595.468	58.27
595.805	58.4
596.143	58.47
596.48	58.51
596.817	58.55
597.154	58.56
597.491	58.58
597.828	58.63
598.165	58.76
598.502	58.8
598.839	58.88
599.176	58.94
599.512	59.12
599.849	59.28
600.186	59.31
600.523	59.28
600.859	59.42
601.196	59.46
601.532	59.49
601.869	59.61
602.205	59.66
602.542	59.71
602.878	59.79
603.215	59.84
603.551	59.9
603.887	59.97
604.223	60.11
604.56	60.12
604.896	60.2
605.232	60.17
605.568	60.31
605.904	60.37
606.24	60.42
606.576	60.45
606.912	60.4
607.248	60.47
607.583	60.65
607.919	60.7
608.255	60.82
608.591	60.93
608.926	60.92
609.262	61.03
609.597	61.1
609.933	61.14
610.268	61.22
610.604	61.29
610.939	61.39
611.275	61.38
611.61	61.46
611.945	61.49
612.281	61.63
612.616	61.63
612.951	61.7
613.286	61.83
613.621	61.79
613.956	62
614.291	62.13
614.626	62.17
614.961	62.27
615.296	62.31
615.631	62.37
615.966	62.52
616.3	62.46
616.635	62.45
616.97	62.47
617.304	62.46
617.639	62.54
617.973	62.65
618.308	62.75
618.642	62.84
618.977	62.98
619.311	62.97
619.646	63.07
619.98	63.12
620.314	62.94
620.648	63.14
620.983	63.07
621.317	63.02
621.651	63.09
621.985	63.08
622.319	63.19
622.653	63.21
622.987	63.21
623.321	63.38
623.655	63.56
623.988	63.65
624.322	63.71
624.656	63.71
624.99	63.64
625.323	63.78
625.657	63.8
625.99	63.68
626.324	63.75
626.657	63.71
626.991	63.75
627.324	63.9
627.658	63.78
627.991	63.78
628.324	63.85
628.657	63.89
628.991	63.9
629.324	63.91
629.657	63.91
629.99	63.96
630.323	64.01
630.656	63.93
630.989	63.95
631.322	63.98
631.655	64.04
631.987	64.12
632.32	64.07
632.653	64.17
632.986	64.24
633.318	64.25
633.651	64.34
633.984	64.39
634.316	64.41
634.649	64.52
634.981	64.69
635.313	64.63
635.646	64.63
635.978	64.73
636.31	64.73
636.643	64.83
636.975	64.89
637.307	64.87
637.639	64.96
637.971	64.92
638.303	65.03
638.635	64.94
638.967	64.9
639.299	64.97
639.631	64.94
639.963	65.01
640.295	65.15
640.626	65.29
640.958	65.32
641.29	65.47
641.621	65.54
641.953	65.43
642.285	65.57
642.616	65.59
642.948	65.55
643.279	65.72
643.61	65.68
643.942	65.71
644.273	65.62
644.604	65.59
644.936	65.57
645.267	65.49
645.598	65.67
645.929	65.66
646.26	65.53
646.591	65.55
646.922	65.61
647.253	65.54
647.584	65.46
647.915	65.55
648.245	65.46
648.576	65.25
648.907	65.35
649.238	65.33
649.568	65.25
649.899	65.23
650.229	65.16
650.56	65.19
650.89	65.26
651.221	65.33
651.551	65.49
651.882	65.64
652.212	65.68
652.542	65.56
652.872	65.69
653.203	65.84
653.533	65.86
653.863	65.82
654.193	65.71
654.523	65.82
654.853	65.85
655.183	65.84
655.513	65.99
655.843	66.02
656.172	66.06
656.502	66.1
656.832	66.02
657.162	65.95
657.491	66.05
657.821	65.98
658.15	66.03
658.48	65.98
658.809	65.93
659.139	65.84
659.468	65.8
659.798	65.71
660.127	65.69
660.456	65.65
660.785	65.64
661.115	65.71
661.444	65.62
661.773	65.54
662.102	65.57
662.431	65.61
662.76	65.58
663.089	65.46
663.418	65.47
663.747	65.59
664.076	65.69
664.404	65.6
664.733	65.56
665.062	65.4
665.39	65.4
665.719	65.47
666.048	65.54
666.376	65.62
666.705	65.74
667.033	65.77
667.362	65.91
667.69	65.77
668.018	65.92
668.347	65.9
668.675	65.85
669.003	65.85
669.331	65.84
669.659	65.9
669.987	65.97
670.315	66.03
670.643	66.11
670.971	66.02
671.299	65.98
671.627	66.13
671.955	66.31
672.283	66.35
672.61	66.33
672.938	66.39
673.266	66.33
673.593	66.22
673.921	66.11
674.249	65.73
674.576	65.97
674.904	65.8
675.231	65.82
675.558	65.9
675.886	66.02
676.213	65.95
676.54	65.86
676.867	65.94
677.195	65.97
677.522	65.96
677.849	65.97
678.176	66.01
678.503	65.97
678.83	66
679.157	65.87
679.484	65.82
679.81	65.71
680.137	65.86
680.464	66.09
680.791	66.11
681.117	66.2
681.444	66.16
681.771	66.29
682.097	66.25
682.424	66.17
682.75	66.05
683.077	66.15
683.403	66.19
683.729	66.2
684.056	66.2
684.382	66.22
684.708	66.24
685.034	66.3
685.36	66.34
685.686	66.12
686.012	66.16
686.339	66.16
686.664	66.22
686.99	66.29
687.316	66.19
687.642	66.22
687.968	66.31
688.294	66.43
688.619	66.29
688.945	66.21
689.271	66.25
689.596	66.3
689.922	66.18
690.247	66.23
690.573	66.27
690.898	66.27
691.224	66.24
691.549	66.34
691.874	66.47
692.2	66.32
692.525	66.58
692.85	66.65
693.175	66.69
693.5	66.93
693.825	66.86
694.15	66.86
694.475	66.93
694.8	67.12
695.125	66.9
695.45	66.86
695.775	66.79
696.099	66.74
696.424	66.91
696.749	67.01
697.073	66.95
697.398	66.94
697.723	67.13
698.047	67.14
698.372	67.11
698.696	66.97
699.02	67.07
699.345	66.99
699.669	67.06
699.993	67.12
700.318	66.96
700.642	66.94
700.966	67.04
701.29	66.96
701.614	66.94
701.938	66.99
702.262	67.09
702.586	67.51
702.91	67.77
703.234	67.73
703.557	67.83
703.881	68.09
704.205	68.27
704.529	67.96
704.852	68.04
705.176	68.3
705.499	68.23
705.823	68.28
706.146	68.36
706.47	68.52
706.793	68.53
707.117	68.55
707.44	68.75
707.763	68.58
708.086	68.5
708.409	68.45
708.733	68.55
709.056	68.74
709.379	68.61
709.702	68.43
710.025	68.34
710.348	68.24
710.671	68.16
710.993	67.97
711.316	68.2
711.639	68.16
711.962	67.97
712.284	68.3
712.607	68.31
712.93	68.23
713.252	68.12
713.575	68.14
713.897	68.19
714.22	67.89
714.542	68.17
714.864	68.24
715.187	68.15
715.509	68.05
715.831	67.86
716.153	67.97
716.475	67.82
716.798	68.06
717.12	68.14
717.442	68.11
717.764	68.3
718.085	68.19
718.407	68.28
718.729	68.06
719.051	67.79
719.373	67.73
719.695	67.85
720.016	67.62
720.338	67.93
720.659	67.96
720.981	68.02
721.302	67.31
721.624	67.42
721.945	67.71
722.267	67.79
722.588	68.05
722.909	68.01
723.231	68.11
723.552	67.67
723.873	67.61
724.194	67.49
724.515	67.06
724.836	66.96
725.157	67.01
725.478	67.31
725.799	67.62
726.12	67.66
726.441	67.63
726.762	67.61
727.083	66.95
727.403	66.81
727.724	66.98
728.045	67.21
728.365	67.23
728.686	67.15
729.006	67.32
729.327	67.18
729.647	67.07
729.967	67.22
730.288	67.61
730.608	67.7
730.928	68
731.249	68.33
731.569	68.34
731.889	68.17
732.209	68.13
732.529	67.9
732.849	67.88
733.169	67.85
733.489	68.04
733.809	68.44
734.129	68.57
734.448	68.41
734.768	68.45
735.088	68.7
735.408	68.68
735.727	68.55
736.047	68.52
736.366	68.66
736.686	68.62
737.005	68.45
737.325	68.32
737.644	67.84
737.963	67.65
738.283	67.7
738.602	67.89
738.921	68.01
739.24	67.97
739.56	68.06
739.879	68.09
740.198	68
740.517	68.1
740.836	68.21
741.155	68.69
741.473	68.87
741.792	68.66
742.111	69.12
742.43	69.11
742.748	69.11
743.067	69.08
743.386	69.06
743.704	69.07
744.023	69.25
744.341	69.83
744.66	69.53
744.978	69.62
745.297	69.31
745.615	69.28
745.933	69.38
746.252	69.21
746.57	69.77
746.888	69.84
747.206	69.85
747.524	69.85
747.842	69.68
748.16	69.74
748.478	69.73
748.796	69.06
749.114	69.29
749.432	69.18
749.749	69.31
750.067	68.97
750.385	68.82
750.703	68.86
751.02	68.64
751.338	69.06
751.655	69.08
751.973	69.37
752.29	69.11
752.608	69.39
752.925	69.63
753.242	69.05
753.56	69.24
753.877	68.98
754.194	68.63
754.511	68.43
754.828	68.51
755.145	68.64
755.462	68.98
755.779	68.84
756.096	68.6
756.413	68.15
756.73	68.42
757.047	68.49
757.364	68.4
757.68	68.49
757.997	68.4
758.314	68.38
758.63	68.24
758.947	68.51
759.264	67.97
759.58	67.77
759.896	67.41
760.213	67.5
760.529	67.35
760.846	67.62
761.162	67.77
761.478	68.02
761.794	67.75
762.11	67.76
762.426	67.62
762.743	67.82
763.059	67.98
763.375	67.91
763.69	67.82
764.006	67.88
764.322	67.73
764.638	67.67
764.954	67.64
765.27	67.5
765.585	67.44
765.901	67.71
766.216	67.9
766.532	68.43
766.848	68.21
767.163	68.45
767.478	68.12
767.794	68.11
768.109	67.4
768.424	67.77
768.74	67.83
769.055	67.91
769.37	67.88
769.685	67.85
770	67.85
770.315	68.08
770.63	68.29
770.945	68.4
771.26	68.52
771.575	68.89
771.89	69.49
772.205	69.68
772.52	69.27
772.834	68.83
773.149	68.34
773.464	68.54
773.778	68.5
774.093	69.04
774.407	68.73
774.722	69.03
775.036	68.82
775.351	68.24
775.665	68.81
775.979	69.07
776.293	68.99
776.608	69.62
776.922	69.82
777.236	69.49
777.55	69.53
777.864	69.95
778.178	69.46
778.492	69.05
778.806	69
779.12	69.65
779.434	69.77
779.747	69.85
780.061	69.67
780.375	69.36
780.689	69.45
781.002	69.52
781.316	69.94
781.629	70.19
781.943	70.72
782.256	70.44
782.57	70.88
782.883	71.7
783.196	71.02
783.51	70.4
783.823	70.84
784.136	71.06
784.449	70.62
784.762	70.92
785.075	71.01
785.388	70.99
785.701	70.67
786.014	70.94
786.327	71.26
786.64	71.24
786.953	71.8
787.266	71.71
787.578	71.72
787.891	71.32
788.204	70.78
788.516	70.69
788.829	70.67
789.141	70.76
789.454	69.99
789.766	70.58
790.079	70.37
790.391	70.04
790.703	69.81
791.016	69.65
791.328	69.06
791.64	69.37
791.952	68.98
792.264	68.79
792.576	68.87
792.888	68.8
793.2	68.68
793.512	68.04
793.824	67.87
794.136	68.3
794.448	68.54
794.76	68.75
795.071	69.06
795.383	68.78
795.695	68.74
796.006	69.45
796.318	69.28
796.629	70.16
796.941	70.7
797.252	70.79
797.564	71
797.875	72.42
798.186	72.34
798.497	72.95
798.809	73.16
799.12	72.43
799.431	72.81
799.742	73.23
800.053	73.56
800.364	74.41
800.675	74.74
800.986	74.35
801.297	74.2
801.608	73.78
801.918	74.3
802.229	73.71
802.54	73.08
802.851	73.44
803.161	73.23
803.472	72.76
803.782	72.53
804.093	72.75
804.403	72.03
804.714	71.83
805.024	71.06
805.334	71.24
805.645	72
805.955	71.32
806.265	71.12
806.575	71.44
806.885	70.77
807.195	70.49
807.505	69.69
807.815	70.39
808.125	70.78
808.435	70.23
808.745	70.26
809.055	70.92
809.365	70.83
809.674	71.17
809.984	71.05
810.294	71.35
810.603	71.47
810.913	71.44
811.222	71.2
811.532	71.73
811.841	72.1
812.151	72.09
812.46	72.86
812.769	73.16
813.079	72.76
813.388	73.09
813.697	72.56
814.006	73.18
814.315	72.65
814.624	72.48
814.933	72.84
815.242	72.4
815.551	72
815.86	71.58
816.169	70.89
816.478	70.38
816.786	70.41
817.095	70.34
817.404	69.6
817.712	69.95
818.021	70.39
818.33	69.66
818.638	69.99
818.947	69.6
819.255	68.89
819.563	68.68
819.872	68.26
820.18	67.79
820.488	68.01
820.796	67.64
821.105	67.37
821.413	67.44
821.721	67.38
822.029	67.08
822.337	67.06
822.645	67.18
822.953	67.5
823.26	67.3
823.568	67.15
823.876	67.17
824.184	67.07
824.491	66.64
824.799	66.53
825.107	66.31
825.414	66.24
825.722	66.43
826.029	66.64
826.337	66.69
826.644	66.87
826.951	66.84
827.259	67
827.566	66.88
827.873	66.63
828.18	66.92
828.488	67.07
828.795	67.09
829.102	67.33
829.409	67.15
829.716	67.34
830.023	67.55
830.329	67.91
830.636	68.12
830.943	68.88
831.25	69.23
831.557	68.77
831.863	69.55
832.17	69.23
832.476	69.31
832.783	69.52
833.089	69.35
833.396	69.74
833.702	69.88
834.009	70.02
834.315	69.83
834.621	69.43
834.928	69.12
835.234	68.88
835.54	68.39
835.846	67.93
836.152	68.42
836.458	68.02
836.764	68.13
837.07	68.26
837.376	68.27
837.682	68.37
837.988	69.1
838.293	67.86
838.599	69.07
838.905	68.38
839.211	67.68
839.516	68.23
839.822	67.54
840.127	67.53
840.433	68.3
840.738	69.44
841.044	70.24
841.349	72.8
841.654	73.33
841.959	72.55
842.265	73.77
842.57	73.24
842.875	74.37
843.18	73.95
843.485	73.98
843.79	73.44
844.095	73.12
844.4	73.61
844.705	74
845.01	73.57
845.315	75.02
845.619	76.63
845.924	76.26
846.229	77.41
846.533	76.87
846.838	76.95
847.142	75.69
847.447	75.67
847.751	73.83
848.056	75.58
848.36	76.45
848.664	75.78
848.969	74.32
849.273	76.71
849.577	76.67
849.881	76.83
850.185	77.41
850.489	79.08
850.794	81.32
851.097	82.79
851.401	80.5
851.705	79.08
852.009	78.19
852.313	79.51
852.617	77.87
852.92	79.99
853.224	80.7
853.528	82.77
853.831	83.51
854.135	86.46
854.438	85.97
854.742	85.9
855.045	87.29
855.349	88.01
855.652	84.99
855.955	84.49
856.259	85.82
856.562	88.55
856.865	87.45
857.168	84.22
857.471	81.46
857.774	80.46
858.077	83.96
858.38	84.56
858.683	86.08
858.986	85.54
859.289	84.41
859.592	85.01
859.894	82.63
860.197	80.06
860.5	76.95
860.802	75.86
861.105	77.97
861.407	80.21
861.71	80.99
862.012	80.54
862.315	83.42
862.617	80.32
862.919	79.46
863.222	79.27
863.524	78.94
863.826	82
864.128	84.28
864.43	80.53
864.732	80.27
865.034	80.54
865.336	82.34
865.638	82.06
865.94	83.81
866.242	87.35
866.544	90.31
866.846	88.43
867.147	90.56
867.449	87.62
867.751	87.48
868.052	86.75
868.354	86.54
868.655	85.15
868.957	88.33
869.258	88.01
869.56	86.9
869.861	86.45
870.162	84.51
870.463	84.01
870.765	85.07
871.066	86.69
871.367	84.92
871.668	85.47
871.969	85.36
872.27	82.59
872.571	82.44
872.872	77.91
873.173	77.75
873.473	76.72
873.774	76.96
874.075	72.16
874.376	74.44
874.676	74.23
874.977	72.83
875.277	71.24
875.578	70.34
875.878	71.99
876.179	73.22
876.479	74.04
876.78	74.02
877.08	73.23
877.38	70.55
877.68	69.35
877.981	68.34
878.281	68.44
878.581	67.96
