Data from BA53411_Reflection_00012.txt Node
Date: Tue Nov 19 11:53:54 EST 2019
User: vgr7
Spectrometer: USB2G7710
Scans to average: 3
Trigger mode: 4
Integration Time (sec): 2.000000E-2
Electric dark correction enabled: true
Boxcar width: 10
XAxis mode: Wavelengths
Number of Pixels in Spectrum: 2048
>>>>>Begin Spectral Data<<<<<
177.721	220.92
178.105	135.58
178.488	83.13
178.871	80.79
179.254	64.23
179.636	64
180.019	579.67
180.402	122.22
180.785	9.8
181.168	148.85
181.55	61.43
181.933	83.64
182.316	217.37
182.698	102
183.081	28.46
183.463	-31.4
183.846	-39.59
184.228	-56.86
184.611	-71.14
184.993	-118.8
185.376	-78.78
185.758	-92.73
186.14	-90.8
186.522	2766.67
186.904	1211.11
187.287	-327.86
187.669	-264.1
188.051	-92.69
188.433	-64.64
188.815	-95.4
189.197	-191.99
189.579	-338.82
189.961	-464.63
190.342	-488.65
190.724	-224.93
191.106	-6788.89
191.488	285.19
191.869	104.09
192.251	54.15
192.633	77.68
193.014	98.34
193.396	57.12
193.777	116.59
194.159	187.05
194.54	171.55
194.922	163.93
195.303	1.45
195.684	89.25
196.065	7.17
196.447	78.84
196.828	47.09
197.209	-492.59
197.59	-75.63
197.971	-168.82
198.352	470.37
198.733	-566.67
199.114	153.5
199.495	103.06
199.876	41.48
200.257	43.37
200.638	70.33
201.018	119.96
201.399	218.14
201.78	159.19
202.16	3366.67
202.541	345.21
202.922	102.62
203.302	125.64
203.683	-309.52
204.063	-4166.67
204.444	-986.42
204.824	-623.81
205.204	-233.33
205.585	-305.8
205.965	10.39
206.345	-415.15
206.725	307.21
207.106	167.85
207.486	131.88
207.866	191.32
208.246	86.51
208.626	-671.93
209.006	2623.81
209.386	-293.57
209.766	-275.44
210.145	-127.19
210.525	-102.72
210.905	-111.74
211.285	-94.58
211.664	-119.86
212.044	-166.04
212.424	-198
212.803	-113.28
213.183	-83.74
213.562	-107.75
213.942	-97.05
214.321	-35.8
214.701	7.13
215.08	70.63
215.459	72.09
215.838	45.79
216.218	43.56
216.597	85.51
216.976	-11.11
217.355	0.43
217.734	70.76
218.113	199.1
218.492	786.27
218.871	448.15
219.25	157.24
219.629	68.99
220.008	-1344.44
220.387	-141.27
220.766	-22.26
221.144	35.72
221.523	-11.69
221.902	-9.78
222.28	46.2
222.659	80.67
223.037	96.52
223.416	78.54
223.794	62.24
224.173	78.64
224.551	69.04
224.929	61.69
225.308	51.04
225.686	44.5
226.064	28.31
226.442	22.94
226.821	27.68
227.199	26.7
227.577	25.61
227.955	27.76
228.333	28.73
228.711	29.94
229.089	25.77
229.467	27.23
229.845	25.33
230.222	22.2
230.6	15.73
230.978	18.94
231.356	19.58
231.733	20.04
232.111	19.25
232.488	18.14
232.866	18.85
233.243	13.02
233.621	11.76
233.998	12.2
234.376	11.67
234.753	10.6
235.13	12.31
235.508	14.28
235.885	14.1
236.262	13.07
236.639	10.6
237.016	9.95
237.393	8.8
237.77	8.42
238.147	8.52
238.524	9.91
238.901	8.35
239.278	7.66
239.655	7.01
240.032	6.88
240.409	6.5
240.785	5.34
241.162	6.4
241.539	6.24
241.915	6.8
242.292	6.04
242.668	5.93
243.045	5.81
243.421	5.92
243.798	5.96
244.174	5.91
244.551	6.7
244.927	6.45
245.303	6.16
245.679	6.34
246.056	6.08
246.432	5.86
246.808	6.01
247.184	5.99
247.56	5.75
247.936	5.77
248.312	5.93
248.688	6.14
249.064	6.07
249.44	6.19
249.815	6.08
250.191	6.55
250.567	6.59
250.943	6.83
251.318	6.69
251.694	6.65
252.069	7.09
252.445	6.91
252.82	7.36
253.196	7.68
253.571	7.64
253.947	7.62
254.322	7.45
254.697	7.64
255.073	7.63
255.448	7.83
255.823	7.93
256.198	7.44
256.573	7.49
256.948	7.53
257.323	7.62
257.698	7.34
258.073	6.93
258.448	6.81
258.823	6.37
259.198	6.2
259.573	6.03
259.948	5.95
260.322	5.92
260.697	5.98
261.072	6.02
261.446	6.03
261.821	5.98
262.195	6.06
262.57	5.91
262.944	6.05
263.319	5.95
263.693	5.88
264.067	6.17
264.442	5.99
264.816	6.07
265.19	5.83
265.564	5.94
265.938	6.05
266.313	6
266.687	6.33
267.061	6.49
267.435	6.63
267.809	6.45
268.183	6.44
268.556	6.12
268.93	6.1
269.304	6.09
269.678	6.14
270.051	6.1
270.425	6.23
270.799	5.93
271.172	6.01
271.546	5.99
271.919	5.72
272.293	5.72
272.666	5.54
273.04	5.46
273.413	5.39
273.787	5.26
274.16	5.29
274.533	5.24
274.906	5.31
275.279	5.15
275.653	5.23
276.026	5.24
276.399	5.47
276.772	5.69
277.145	5.85
277.518	6.03
277.891	5.85
278.263	5.8
278.636	6.06
279.009	6.05
279.382	6.07
279.755	6.09
280.127	6.2
280.5	6.23
280.872	6.57
281.245	6.65
281.617	6.75
281.99	6.65
282.362	6.76
282.735	6.74
283.107	6.8
283.479	6.68
283.852	6.7
284.224	6.61
284.596	6.34
284.968	6.2
285.34	6.11
285.713	6.3
286.085	6.05
286.457	6
286.829	5.89
287.201	5.85
287.572	5.92
287.944	5.89
288.316	5.95
288.688	5.91
289.06	5.92
289.431	5.94
289.803	6.12
290.175	5.96
290.546	5.8
290.918	5.85
291.289	5.99
291.661	5.87
292.032	5.86
292.403	5.88
292.775	6.04
293.146	6.08
293.517	6.05
293.889	6.29
294.26	6.29
294.631	6.28
295.002	6.23
295.373	6.25
295.744	6.3
296.115	6.27
296.486	6.21
296.857	6.16
297.228	6.1
297.599	5.95
297.97	5.96
298.34	5.96
298.711	6.03
299.082	6.05
299.452	6.13
299.823	6.1
300.194	6.22
300.564	5.99
300.935	6.13
301.305	6.04
301.676	5.92
302.046	5.99
302.416	6.23
302.787	6.31
303.157	6.38
303.527	6.39
303.897	6.33
304.267	6.36
304.637	6.53
305.008	6.67
305.378	6.91
305.748	6.84
306.117	7.15
306.487	7.2
306.857	7.14
307.227	7.21
307.597	7.25
307.967	7.12
308.336	7.29
308.706	7.3
309.076	7.41
309.445	7.57
309.815	7.68
310.184	7.51
310.554	7.5
310.923	7.57
311.293	7.45
311.662	7.59
312.031	7.53
312.401	7.36
312.77	7.29
313.139	7.18
313.508	7.29
313.877	7.18
314.246	7.08
314.616	7.23
314.985	7.08
315.353	7.28
315.722	7.48
316.091	7.53
316.46	7.53
316.829	7.54
317.198	7.56
317.567	7.38
317.935	7.47
318.304	7.64
318.672	7.56
319.041	7.78
319.41	7.72
319.778	7.74
320.147	7.83
320.515	7.86
320.883	7.86
321.252	7.96
321.62	7.84
321.988	7.79
322.357	7.68
322.725	7.78
323.093	7.64
323.461	7.67
323.829	7.64
324.197	7.46
324.565	7.54
324.933	7.53
325.301	7.47
325.669	7.63
326.037	7.63
326.405	7.71
326.772	7.65
327.14	7.56
327.508	7.57
327.875	7.54
328.243	7.65
328.61	7.62
328.978	7.6
329.346	7.72
329.713	7.93
330.08	7.93
330.448	8.04
330.815	8.11
331.182	8.04
331.55	8.01
331.917	7.96
332.284	7.98
332.651	7.85
333.018	7.96
333.385	7.89
333.752	7.85
334.119	7.89
334.486	7.97
334.853	8.13
335.22	8.13
335.587	8.14
335.954	8.2
336.32	8.2
336.687	8.14
337.054	8.11
337.42	8.09
337.787	8.02
338.153	8.02
338.52	8.08
338.886	8
339.253	8.06
339.619	8.29
339.986	8.28
340.352	8.35
340.718	8.52
341.084	8.49
341.451	8.61
341.817	8.53
342.183	8.5
342.549	8.49
342.915	8.48
343.281	8.56
343.647	8.45
344.013	8.5
344.379	8.56
344.745	8.56
345.11	8.57
345.476	8.69
345.842	8.54
346.208	8.47
346.573	8.54
346.939	8.49
347.304	8.44
347.67	8.41
348.035	8.41
348.401	8.26
348.766	8.26
349.132	8.19
349.497	8.22
349.862	8.18
350.228	8.1
350.593	8.19
350.958	8.21
351.323	8.18
351.688	8.23
352.053	8.23
352.418	8.26
352.783	8.23
353.148	8.25
353.513	8.36
353.878	8.36
354.243	8.31
354.608	8.39
354.972	8.35
355.337	8.36
355.702	8.38
356.066	8.44
356.431	8.32
356.795	8.35
357.16	8.32
357.524	8.35
357.889	8.34
358.253	8.29
358.618	8.23
358.982	8.2
359.346	8.2
359.71	8.12
360.075	8.15
360.439	8.16
360.803	8.15
361.167	8.07
361.531	7.97
361.895	7.98
362.259	7.91
362.623	7.88
362.987	7.86
363.351	7.78
363.714	7.72
364.078	7.8
364.442	7.7
364.806	7.74
365.169	7.71
365.533	7.68
365.896	7.66
366.26	7.62
366.623	7.69
366.987	7.6
367.35	7.7
367.714	7.64
368.077	7.6
368.44	7.49
368.803	7.49
369.167	7.51
369.53	7.51
369.893	7.53
370.256	7.5
370.619	7.5
370.982	7.53
371.345	7.48
371.708	7.41
372.071	7.38
372.434	7.28
372.797	7.27
373.159	7.2
373.522	7.16
373.885	7.14
374.247	7.08
374.61	7.09
374.973	7.01
375.335	6.98
375.698	6.9
376.06	6.91
376.423	6.86
376.785	6.82
377.147	6.76
377.51	6.64
377.872	6.62
378.234	6.57
378.596	6.58
378.958	6.53
379.321	6.54
379.683	6.59
380.045	6.53
380.407	6.48
380.769	6.52
381.13	6.48
381.492	6.49
381.854	6.48
382.216	6.44
382.578	6.43
382.939	6.39
383.301	6.35
383.663	6.31
384.024	6.38
384.386	6.33
384.747	6.29
385.109	6.29
385.47	6.29
385.832	6.28
386.193	6.23
386.554	6.22
386.916	6.22
387.277	6.15
387.638	6.17
387.999	6.21
388.36	6.17
388.721	6.16
389.082	6.13
389.443	6.11
389.804	6.08
390.165	6.04
390.526	5.99
390.887	6
391.248	5.97
391.609	5.97
391.969	6.01
392.33	6.04
392.691	6.06
393.051	6.06
393.412	6.03
393.772	6.05
394.133	6.05
394.493	5.98
394.854	5.97
395.214	5.94
395.574	5.89
395.935	5.89
396.295	5.87
396.655	5.83
397.015	5.8
397.376	5.8
397.736	5.8
398.096	5.8
398.456	5.77
398.816	5.72
399.176	5.65
399.535	5.58
399.895	5.53
400.255	5.53
400.615	5.45
400.975	5.48
401.334	5.44
401.694	5.38
402.054	5.4
402.413	5.39
402.773	5.39
403.132	5.4
403.492	5.37
403.851	5.37
404.211	5.41
404.57	5.41
404.929	5.37
405.288	5.35
405.648	5.36
406.007	5.37
406.366	5.4
406.725	5.41
407.084	5.44
407.443	5.46
407.802	5.46
408.161	5.47
408.52	5.41
408.879	5.4
409.238	5.44
409.596	5.42
409.955	5.4
410.314	5.39
410.673	5.4
411.031	5.39
411.39	5.39
411.748	5.38
412.107	5.38
412.465	5.38
412.824	5.35
413.182	5.33
413.54	5.36
413.899	5.36
414.257	5.33
414.615	5.33
414.974	5.35
415.332	5.33
415.69	5.33
416.048	5.35
416.406	5.33
416.764	5.33
417.122	5.33
417.48	5.34
417.838	5.31
418.195	5.27
418.553	5.24
418.911	5.23
419.269	5.21
419.626	5.2
419.984	5.19
420.342	5.2
420.699	5.19
421.057	5.16
421.414	5.14
421.772	5.14
422.129	5.14
422.486	5.13
422.844	5.13
423.201	5.12
423.558	5.13
423.915	5.12
424.273	5.11
424.63	5.11
424.987	5.1
425.344	5.12
425.701	5.12
426.058	5.14
426.415	5.14
426.772	5.13
427.128	5.14
427.485	5.14
427.842	5.13
428.199	5.15
428.555	5.16
428.912	5.17
429.269	5.18
429.625	5.16
429.982	5.14
430.338	5.14
430.695	5.12
431.051	5.09
431.407	5.12
431.764	5.13
432.12	5.13
432.476	5.17
432.832	5.17
433.189	5.15
433.545	5.14
433.901	5.14
434.257	5.14
434.613	5.12
434.969	5.12
435.325	5.14
435.681	5.13
436.036	5.13
436.392	5.13
436.748	5.13
437.104	5.12
437.459	5.12
437.815	5.12
438.171	5.17
438.526	5.16
438.882	5.15
439.237	5.15
439.593	5.16
439.948	5.13
440.304	5.1
440.659	5.13
441.014	5.14
441.369	5.14
441.725	5.14
442.08	5.15
442.435	5.14
442.79	5.13
443.145	5.13
443.5	5.13
443.855	5.11
444.21	5.1
444.565	5.11
444.92	5.12
445.275	5.13
445.629	5.09
445.984	5.1
446.339	5.09
446.693	5.09
447.048	5.05
447.403	5.03
447.757	5.03
448.112	5.02
448.466	5.02
448.82	5.02
449.175	5.02
449.529	5.03
449.883	5.03
450.238	5.01
450.592	4.98
450.946	4.98
451.3	4.99
451.654	4.97
452.008	4.97
452.362	4.95
452.716	4.92
453.07	4.95
453.424	4.95
453.778	4.96
454.132	4.95
454.486	4.97
454.839	5.01
455.193	5.01
455.547	5.02
455.9	5.02
456.254	5.03
456.607	5.03
456.961	5.02
457.314	5.03
457.668	5.07
458.021	5.08
458.375	5.08
458.728	5.07
459.081	5.08
459.434	5.07
459.787	5.06
460.141	5.07
460.494	5.08
460.847	5.07
461.2	5.06
461.553	5.07
461.906	5.07
462.259	5.06
462.611	5.06
462.964	5.07
463.317	5.06
463.67	5.07
464.022	5.07
464.375	5.06
464.728	5.05
465.08	5.04
465.433	5.04
465.785	5.06
466.138	5.1
466.49	5.11
466.843	5.12
467.195	5.14
467.547	5.12
467.899	5.14
468.252	5.15
468.604	5.17
468.956	5.17
469.308	5.18
469.66	5.17
470.012	5.17
470.364	5.16
470.716	5.17
471.068	5.15
471.42	5.16
471.772	5.17
472.123	5.2
472.475	5.2
472.827	5.2
473.178	5.19
473.53	5.19
473.882	5.2
474.233	5.2
474.585	5.2
474.936	5.22
475.288	5.2
475.639	5.21
475.99	5.19
476.342	5.19
476.693	5.17
477.044	5.17
477.395	5.17
477.746	5.16
478.097	5.16
478.448	5.15
478.8	5.15
479.15	5.14
479.501	5.12
479.852	5.11
480.203	5.12
480.554	5.14
480.905	5.13
481.255	5.12
481.606	5.13
481.957	5.15
482.307	5.15
482.658	5.14
483.009	5.14
483.359	5.16
483.709	5.16
484.06	5.17
484.41	5.17
484.761	5.19
485.111	5.19
485.461	5.2
485.811	5.19
486.162	5.19
486.512	5.2
486.862	5.21
487.212	5.2
487.562	5.21
487.912	5.2
488.262	5.2
488.612	5.2
488.961	5.2
489.311	5.18
489.661	5.18
490.011	5.19
490.36	5.18
490.71	5.17
491.06	5.17
491.409	5.18
491.759	5.17
492.108	5.16
492.458	5.15
492.807	5.16
493.157	5.17
493.506	5.19
493.855	5.2
494.204	5.21
494.554	5.23
494.903	5.24
495.252	5.24
495.601	5.25
495.95	5.28
496.299	5.29
496.648	5.33
496.997	5.34
497.346	5.35
497.695	5.37
498.043	5.4
498.392	5.4
498.741	5.42
499.09	5.47
499.438	5.5
499.787	5.52
500.135	5.51
500.484	5.54
500.832	5.53
501.181	5.55
501.529	5.56
501.878	5.56
502.226	5.57
502.574	5.6
502.923	5.64
503.271	5.68
503.619	5.71
503.967	5.7
504.315	5.72
504.663	5.76
505.011	5.77
505.359	5.78
505.707	5.82
506.055	5.81
506.403	5.82
506.751	5.82
507.098	5.86
507.446	5.88
507.794	5.9
508.141	5.96
508.489	6
508.837	6.03
509.184	6.08
509.531	6.12
509.879	6.14
510.226	6.15
510.574	6.16
510.921	6.17
511.268	6.2
511.616	6.25
511.963	6.28
512.31	6.35
512.657	6.42
513.004	6.45
513.351	6.49
513.698	6.55
514.045	6.61
514.392	6.64
514.739	6.71
515.086	6.78
515.432	6.82
515.779	6.84
516.126	6.92
516.473	6.96
516.819	7
517.166	7.05
517.512	7.11
517.859	7.14
518.205	7.19
518.552	7.25
518.898	7.3
519.245	7.34
519.591	7.39
519.937	7.42
520.283	7.47
520.629	7.55
520.976	7.57
521.322	7.63
521.668	7.73
522.014	7.79
522.36	7.83
522.706	7.91
523.052	8
523.398	8.06
523.743	8.17
524.089	8.25
524.435	8.32
524.781	8.42
525.126	8.5
525.472	8.59
525.817	8.66
526.163	8.74
526.509	8.79
526.854	8.85
527.199	8.92
527.545	8.97
527.89	9.03
528.235	9.11
528.581	9.17
528.926	9.21
529.271	9.27
529.616	9.35
529.961	9.41
530.306	9.48
530.651	9.56
530.996	9.64
531.341	9.74
531.686	9.84
532.031	9.95
532.376	10.05
532.721	10.16
533.065	10.26
533.41	10.35
533.755	10.47
534.099	10.58
534.444	10.68
534.788	10.81
535.133	10.95
535.477	11.08
535.822	11.23
536.166	11.39
536.51	11.58
536.855	11.75
537.199	11.92
537.543	12.11
537.887	12.29
538.231	12.5
538.576	12.69
538.92	12.89
539.264	13.05
539.608	13.22
539.951	13.36
540.295	13.54
540.639	13.73
540.983	13.91
541.327	14.08
541.671	14.26
542.014	14.46
542.358	14.61
542.701	14.8
543.045	14.97
543.389	15.15
543.732	15.31
544.075	15.5
544.419	15.72
544.762	15.91
545.105	16.15
545.449	16.34
545.792	16.56
546.135	16.8
546.478	17.06
546.821	17.32
547.165	17.6
547.508	17.84
547.851	18.08
548.194	18.32
548.536	18.61
548.879	18.91
549.222	19.16
549.565	19.43
549.908	19.67
550.25	19.96
550.593	20.24
550.936	20.55
551.278	20.83
551.621	21.06
551.963	21.39
552.306	21.69
552.648	21.98
552.991	22.24
553.333	22.5
553.675	22.8
554.017	23.11
554.36	23.39
554.702	23.65
555.044	23.94
555.386	24.24
555.728	24.52
556.07	24.75
556.412	25.03
556.754	25.31
557.096	25.63
557.438	25.93
557.78	26.18
558.121	26.5
558.463	26.78
558.805	27.13
559.147	27.44
559.488	27.68
559.83	27.98
560.171	28.27
560.513	28.64
560.854	28.91
561.196	29.21
561.537	29.53
561.878	29.89
562.22	30.2
562.561	30.49
562.902	30.73
563.243	31.04
563.584	31.28
563.925	31.58
564.266	31.84
564.607	32.16
564.948	32.51
565.289	32.75
565.63	33.01
565.971	33.24
566.312	33.48
566.653	33.78
566.993	34.06
567.334	34.34
567.675	34.58
568.015	34.86
568.356	35.12
568.696	35.35
569.037	35.57
569.377	35.84
569.718	36.07
570.058	36.37
570.398	36.62
570.739	36.91
571.079	37.14
571.419	37.42
571.759	37.6
572.099	37.82
572.439	38.07
572.779	38.27
573.119	38.5
573.459	38.72
573.799	38.87
574.139	39.09
574.479	39.32
574.819	39.5
575.158	39.71
575.498	39.92
575.838	40.12
576.177	40.31
576.517	40.55
576.856	40.74
577.196	40.95
577.535	41.21
577.875	41.39
578.214	41.58
578.553	41.77
578.893	41.98
579.232	42.12
579.571	42.39
579.91	42.62
580.25	42.83
580.589	43.01
580.928	43.2
581.267	43.37
581.606	43.55
581.945	43.73
582.283	43.94
582.622	44.09
582.961	44.33
583.3	44.47
583.639	44.57
583.977	44.8
584.316	44.94
584.654	45.1
584.993	45.32
585.332	45.55
585.67	45.74
586.008	45.93
586.347	46.14
586.685	46.26
587.024	46.45
587.362	46.61
587.7	46.76
588.038	47
588.376	47.22
588.715	47.3
589.053	47.52
589.391	47.69
589.729	47.86
590.067	47.97
590.404	48.26
590.742	48.44
591.08	48.61
591.418	48.85
591.756	49
592.093	49.09
592.431	49.31
592.769	49.39
593.106	49.56
593.444	49.74
593.781	49.81
594.119	49.97
594.456	50.19
594.793	50.34
595.131	50.44
595.468	50.55
595.805	50.77
596.143	50.82
596.48	50.9
596.817	51
597.154	51.12
597.491	51.15
597.828	51.23
598.165	51.33
598.502	51.32
598.839	51.48
599.176	51.65
599.512	51.67
599.849	51.84
600.186	51.9
600.523	51.98
600.859	52.14
601.196	52.18
601.532	52.25
601.869	52.37
602.205	52.47
602.542	52.56
602.878	52.65
603.215	52.73
603.551	52.79
603.887	52.93
604.223	53.08
604.56	53.19
604.896	53.32
605.232	53.37
605.568	53.44
605.904	53.42
606.24	53.47
606.576	53.55
606.912	53.61
607.248	53.74
607.583	53.86
607.919	53.92
608.255	54.01
608.591	54.02
608.926	54.06
609.262	54.17
609.597	54.2
609.933	54.2
610.268	54.26
610.604	54.33
610.939	54.37
611.275	54.33
611.61	54.33
611.945	54.28
612.281	54.43
612.616	54.53
612.951	54.63
613.286	54.74
613.621	54.75
613.956	54.88
614.291	54.93
614.626	54.99
614.961	55.06
615.296	55.1
615.631	55.24
615.966	55.27
616.3	55.28
616.635	55.33
616.97	55.4
617.304	55.53
617.639	55.54
617.973	55.62
618.308	55.65
618.642	55.76
618.977	55.99
619.311	55.92
619.646	55.97
619.98	56.05
620.314	56.02
620.648	56.15
620.983	56.09
621.317	56.2
621.651	56.26
621.985	56.25
622.319	56.36
622.653	56.38
622.987	56.48
623.321	56.56
623.655	56.74
623.988	56.83
624.322	56.85
624.656	56.95
624.99	56.93
625.323	57.11
625.657	57.14
625.99	57.06
626.324	57.14
626.657	57.23
626.991	57.24
627.324	57.37
627.658	57.33
627.991	57.39
628.324	57.41
628.657	57.43
628.991	57.53
629.324	57.56
629.657	57.53
629.99	57.52
630.323	57.57
630.656	57.53
630.989	57.6
631.322	57.64
631.655	57.68
631.987	57.78
632.32	57.69
632.653	57.83
632.986	57.88
633.318	57.83
633.651	57.86
633.984	57.94
634.316	57.94
634.649	57.98
634.981	58.03
635.313	58.03
635.646	58.03
635.978	58.13
636.31	58.17
636.643	58.32
636.975	58.47
637.307	58.45
637.639	58.48
637.971	58.39
638.303	58.45
638.635	58.51
638.967	58.51
639.299	58.58
639.631	58.51
639.963	58.51
640.295	58.68
640.626	58.76
640.958	58.77
641.29	58.82
641.621	58.8
641.953	58.87
642.285	58.84
642.616	58.99
642.948	58.92
643.279	58.95
643.61	59.06
643.942	59.05
644.273	59.12
644.604	59.02
644.936	59.04
645.267	59.04
645.598	59.02
645.929	59.01
646.26	59.03
646.591	59.16
646.922	59.21
647.253	59.23
647.584	59.19
647.915	59.2
648.245	59.21
648.576	59.28
648.907	59.19
649.238	59.28
649.568	59.2
649.899	59.29
650.229	59.31
650.56	59.24
650.89	59.16
651.221	59.11
651.551	59.22
651.882	59.33
652.212	59.34
652.542	59.33
652.872	59.38
653.203	59.52
653.533	59.47
653.863	59.49
654.193	59.5
654.523	59.58
654.853	59.69
655.183	59.73
655.513	59.89
655.843	60.15
656.172	60.21
656.502	60.3
656.832	60.33
657.162	60.2
657.491	60.26
657.821	60.38
658.15	60.57
658.48	60.67
658.809	60.67
659.139	60.61
659.468	60.65
659.798	60.65
660.127	60.54
660.456	60.56
660.785	60.64
661.115	60.56
661.444	60.57
661.773	60.49
662.102	60.49
662.431	60.42
662.76	60.41
663.089	60.5
663.418	60.51
663.747	60.52
664.076	60.73
664.404	60.78
664.733	60.64
665.062	60.44
665.39	60.34
665.719	60.49
666.048	60.52
666.376	60.58
666.705	60.58
667.033	60.8
667.362	60.82
667.69	60.69
668.018	60.98
668.347	60.93
668.675	60.93
669.003	60.85
669.331	60.81
669.659	60.77
669.987	60.66
670.315	60.65
670.643	60.61
670.971	60.53
671.299	60.47
671.627	60.5
671.955	60.62
672.283	60.63
672.61	60.58
672.938	60.71
673.266	60.61
673.593	60.51
673.921	60.33
674.249	60.15
674.576	60.3
674.904	60.06
675.231	60.17
675.558	60.27
675.886	60.63
676.213	60.79
676.54	60.84
676.867	60.84
677.195	60.69
677.522	60.75
677.849	60.73
678.176	60.93
678.503	61.05
678.83	61
679.157	61.05
679.484	61.15
679.81	61.09
680.137	61.21
680.464	61.44
680.791	61.47
681.117	61.5
681.444	61.57
681.771	61.72
682.097	61.7
682.424	61.71
682.75	61.5
683.077	61.41
683.403	61.43
683.729	61.52
684.056	61.77
684.382	61.87
684.708	61.87
685.034	61.96
685.36	61.99
685.686	62.03
686.012	61.97
686.339	61.95
686.664	62.03
686.99	62.16
687.316	62.26
687.642	62.31
687.968	62.37
688.294	62.39
688.619	62.36
688.945	62.29
689.271	62.28
689.596	62.31
689.922	62.22
690.247	62.15
690.573	62.22
690.898	62.18
691.224	62.06
691.549	62.15
691.874	61.99
692.2	62.02
692.525	62.16
692.85	62.2
693.175	62.11
693.5	62.12
693.825	62.03
694.15	61.86
694.475	61.86
694.8	62.06
695.125	61.98
695.45	61.92
695.775	62.01
696.099	62.04
696.424	62.03
696.749	62.11
697.073	62.11
697.398	62.13
697.723	62.18
698.047	62.47
698.372	62.5
698.696	62.47
699.02	62.49
699.345	62.4
699.669	62.46
699.993	62.54
700.318	62.55
700.642	62.51
700.966	62.54
701.29	62.63
701.614	62.68
701.938	62.61
702.262	62.71
702.586	62.69
702.91	62.63
703.234	62.76
703.557	62.97
703.881	63.05
704.205	62.95
704.529	62.63
704.852	62.35
705.176	62.44
705.499	62.24
705.823	62.17
706.146	62.44
706.47	62.68
706.793	62.61
707.117	62.47
707.44	62.62
707.763	62.64
708.086	62.43
708.409	62.14
708.733	62.17
709.056	62.12
709.379	62.2
709.702	62.19
710.025	62.22
710.348	62.2
710.671	62.29
710.993	62.18
711.316	62.61
711.639	62.64
711.962	62.65
712.284	62.91
712.607	62.97
712.93	62.68
713.252	62.6
713.575	62.61
713.897	62.75
714.22	62.86
714.542	62.93
714.864	63.01
715.187	63.25
715.509	63.39
715.831	63.38
716.153	63.49
716.475	63.54
716.798	63.39
717.12	63.33
717.442	63.11
717.764	63.4
718.085	63.18
718.407	63.18
718.729	63.01
719.051	62.95
719.373	62.93
719.695	63.24
720.016	63.12
720.338	63.17
720.659	63.14
720.981	62.94
721.302	62.9
721.624	62.98
721.945	63.11
722.267	63.11
722.588	62.96
722.909	62.71
723.231	62.79
723.552	62.72
723.873	62.72
724.194	62.7
724.515	62.43
724.836	62.64
725.157	62.58
725.478	62.97
725.799	63.14
726.12	63.15
726.441	63.11
726.762	62.95
727.083	63.1
727.403	63.07
727.724	63.1
728.045	63.07
728.365	62.83
728.686	63
729.006	63.04
729.327	63.5
729.647	63.72
729.967	63.86
730.288	64.05
730.608	64.04
730.928	64.42
731.249	64.51
731.569	64.44
731.889	64.47
732.209	64.33
732.529	64.24
732.849	64.4
733.169	64.52
733.489	64.78
733.809	64.83
734.129	64.85
734.448	64.93
734.768	64.81
735.088	65.42
735.408	65.17
735.727	65.26
736.047	65.31
736.366	65.15
736.686	64.77
737.005	64.96
737.325	65.15
737.644	64.79
737.963	64.81
738.283	64.7
738.602	64.75
738.921	64.75
739.24	64.8
739.56	64.46
739.879	64.2
740.198	64.34
740.517	63.93
740.836	64.05
741.155	64.21
741.473	64.33
741.792	63.96
742.111	64.28
742.43	63.93
742.748	63.88
743.067	64.15
743.386	64.49
743.704	64.34
744.023	64.25
744.341	64.68
744.66	64.49
744.978	64.55
745.297	64.26
745.615	64
745.933	64.01
746.252	64.19
746.57	64.33
746.888	64.26
747.206	65.05
747.524	65.07
747.842	65.04
748.16	65.3
748.478	65.27
748.796	64.78
749.114	65.04
749.432	64.82
749.749	64.52
750.067	64.6
750.385	64.52
750.703	64.48
751.02	64.23
751.338	64.4
751.655	64.54
751.973	65.06
752.29	64.89
752.608	64.92
752.925	65.11
753.242	65.27
753.56	65.28
753.877	64.85
754.194	64.75
754.511	64.41
754.828	64.37
755.145	64.46
755.462	64.58
755.779	64.72
756.096	64.49
756.413	64.44
756.73	64.56
757.047	64.76
757.364	64.39
757.68	64.39
757.997	64.39
758.314	64.02
758.63	63.85
758.947	64.17
759.264	64.37
759.58	64.48
759.896	63.92
760.213	64.07
760.529	64.21
760.846	64.36
761.162	64.58
761.478	64.82
761.794	65.03
762.11	65.12
762.426	65.13
762.743	65.08
763.059	65.16
763.375	65.03
763.69	65.09
764.006	65.28
764.322	65.49
764.638	65.67
764.954	65.82
765.27	66
765.585	66.16
765.901	66
766.216	65.89
766.532	66.41
766.848	66.12
767.163	65.87
767.478	65.76
767.794	65.67
768.109	65.58
768.424	65.15
768.74	65.17
769.055	65.2
769.37	65.55
769.685	65.8
770	65.88
770.315	66.04
770.63	66.41
770.945	66.57
771.26	66.42
771.575	66.67
771.89	66.5
772.205	66.67
772.52	66.39
772.834	66.01
773.149	65.97
773.464	66.11
773.778	65.85
774.093	66.15
774.407	66.33
774.722	66.04
775.036	66.42
775.351	66.01
775.665	65.84
775.979	65.76
776.293	65.23
776.608	65.25
776.922	64.91
777.236	64.72
777.55	64.2
777.864	64.61
778.178	64.34
778.492	64.25
778.806	64.14
779.12	64.9
779.434	65.2
779.747	64.85
780.061	64.93
780.375	65.45
780.689	66.05
781.002	65.71
781.316	65.44
781.629	65.83
781.943	66.02
782.256	66.19
782.57	66.67
782.883	67.6
783.196	67.58
783.51	67.67
783.823	68.03
784.136	68.24
784.449	67.98
784.762	68.52
785.075	68.48
785.388	69.06
785.701	68.7
786.014	68.57
786.327	68.69
786.64	68.65
786.953	68.5
787.266	67.98
787.578	68.23
787.891	68.06
788.204	67.12
788.516	67.34
788.829	66.81
789.141	66.01
789.454	65.48
789.766	65.5
790.079	64.48
790.391	64.16
790.703	64.27
791.016	64.2
791.328	63.11
791.64	62.88
791.952	61.8
792.264	61.79
792.576	62.2
792.888	62.49
793.2	62.65
793.512	62.95
793.824	62.61
794.136	62.51
794.448	63.07
794.76	63.54
795.071	63.28
795.383	63.71
795.695	64.19
796.006	64.61
796.318	64.93
796.629	66.44
796.941	66.54
797.252	66.25
797.564	66.56
797.875	67.3
798.186	67.76
798.497	67.73
798.809	67.55
799.12	67.18
799.431	67.08
799.742	66.72
800.053	66.41
800.364	66.84
800.675	67.16
800.986	66.42
801.297	66.97
801.608	67.94
801.918	68.44
802.229	68.85
802.54	68.57
802.851	68.66
803.161	67.68
803.472	67.5
803.782	68.07
804.093	68.37
804.403	68.42
804.714	67.78
805.024	68.02
805.334	68.05
805.645	68.67
805.955	69.01
806.265	69.76
806.575	68.99
806.885	69
807.195	69.23
807.505	69.71
807.815	70.06
808.125	69.49
808.435	68.65
808.745	68.23
809.055	68.09
809.365	67.22
809.674	67.33
809.984	67
810.294	66.65
810.603	66.02
810.913	66.66
811.222	67.45
811.532	67.33
811.841	67.88
812.151	67.71
812.46	67.22
812.769	66.73
813.079	68.14
813.388	67.86
813.697	67.78
814.006	67.58
814.315	66.75
814.624	66.67
814.933	67.03
815.242	66.4
815.551	67.28
815.86	68.06
816.169	68.63
816.478	68.48
816.786	69.22
817.095	69.17
817.404	68.46
817.712	68.16
818.021	68.53
818.33	68.02
818.638	68.19
818.947	67.83
819.255	67.03
819.563	66.1
819.872	66.08
820.18	65.51
820.488	65.66
820.796	65.48
821.105	65.58
821.413	65.89
821.721	65.82
822.029	65.55
822.337	65.59
822.645	65.87
822.953	66.05
823.26	65.68
823.568	65.88
823.876	66.13
824.184	66.18
824.491	66.16
824.799	66.05
825.107	66.1
825.414	66.15
825.722	66.45
826.029	66.74
826.337	66.7
826.644	67.02
826.951	67.19
827.259	67.36
827.566	67.03
827.873	66.69
828.18	66.86
828.488	66.76
828.795	66.51
829.102	66.3
829.409	66.12
829.716	66.43
830.023	66.69
830.329	66.3
830.636	66.44
830.943	66.17
831.25	66.63
831.557	65.81
831.863	65.85
832.17	65.81
832.476	65.76
832.783	65.93
833.089	65.73
833.396	65.78
833.702	65.7
834.009	66.29
834.315	66.49
834.621	67.44
834.928	67.78
835.234	67.88
835.54	68.14
835.846	68.26
836.152	68.52
836.458	67.76
836.764	67.86
837.07	68.09
837.376	68.18
837.682	68.08
837.988	68.74
838.293	68.53
838.599	68.74
838.905	68.64
839.211	68.51
839.516	68.97
839.822	69.3
840.127	69.76
840.433	70.65
840.738	71.83
841.044	72.14
841.349	73.28
841.654	73.83
841.959	72.11
842.265	72.91
842.57	72.57
842.875	73.36
843.18	74.2
843.485	73.35
843.79	74.28
844.095	73.86
844.4	74.02
844.705	75.18
845.01	74.39
845.315	74.93
845.619	74.21
845.924	73.82
846.229	72.37
846.533	72.84
846.838	70.77
847.142	70.12
847.447	67.86
847.751	67.08
848.056	68.09
848.36	71.85
848.664	70.73
848.969	70.54
849.273	70.65
849.577	69.55
849.881	68.59
850.185	68.22
850.489	69.8
850.794	70.76
851.097	69.27
851.401	71.27
851.705	72.35
852.009	74.58
852.313	74.49
852.617	74.49
852.92	74.17
853.224	77.91
853.528	76.93
853.831	77.84
854.135	80.72
854.438	79.65
854.742	78.22
855.045	81.88
855.349	80.79
855.652	81.87
855.955	82.94
856.259	87.3
856.562	87.21
856.865	84.96
857.168	82.23
857.471	82.69
857.774	79.64
858.077	79.04
858.38	78.93
858.683	79.15
858.986	80.47
859.289	79.79
859.592	77.78
859.894	76.74
860.197	74.2
860.5	72.74
860.802	72.85
861.105	72.18
861.407	71.81
861.71	73.52
862.012	69.52
862.315	66.63
862.617	62.78
862.919	65.43
863.222	66.95
863.524	69.34
863.826	70.95
864.128	75.02
864.43	74.86
864.732	75.22
865.034	76.38
865.336	77.62
865.638	78.78
865.94	79.71
866.242	83.87
866.544	87.06
866.846	83.95
867.147	84.78
867.449	83.86
867.751	80.78
868.052	83.63
868.354	82.27
868.655	86.97
868.957	87.39
869.258	84.25
869.56	82.68
869.861	78.84
870.162	76.31
870.463	74.97
870.765	76.04
871.066	75.81
871.367	74.73
871.668	73.41
871.969	73.42
872.27	72.84
872.571	69.12
872.872	67.95
873.173	67.03
873.473	66.72
873.774	66.09
874.075	67.08
874.376	64.45
874.676	67.43
874.977	64.37
875.277	66.71
875.578	67.71
875.878	68.13
876.179	70.76
876.479	71.88
876.78	70.14
877.08	68.97
877.38	68.48
877.68	67.4
877.981	67.18
878.281	65.05
878.581	64.87
