Data from BA53411_Reflection_00004.txt Node
Date: Tue Nov 19 11:53:36 EST 2019
User: vgr7
Spectrometer: USB2G7710
Scans to average: 3
Trigger mode: 4
Integration Time (sec): 2.000000E-2
Electric dark correction enabled: true
Boxcar width: 10
XAxis mode: Wavelengths
Number of Pixels in Spectrum: 2048
>>>>>Begin Spectral Data<<<<<
177.721	-8.59
178.105	26.97
178.488	24.77
178.871	61.02
179.254	29.27
179.636	56.45
180.019	-424.39
180.402	355.56
180.785	-211.76
181.168	-331.03
181.55	-69.42
181.933	-38.04
182.316	121.13
182.698	13.17
183.081	-2.74
183.463	-5.81
183.846	29.6
184.228	21.05
184.611	-16.86
184.993	-61.54
185.376	-98.96
185.758	-196.21
186.14	-317.24
186.522	8171.43
186.904	4733.33
187.287	-922.39
187.669	-1000
188.051	-218.57
188.433	-278.54
188.815	-301.48
189.197	-431.01
189.579	-805.06
189.961	-1318.37
190.342	-1634.04
190.724	-551.26
191.106	-20066.67
191.488	853.97
191.869	452.76
192.251	295.17
192.633	282.01
193.014	346.27
193.396	268.05
193.777	256.11
194.159	389.81
194.54	317.28
194.922	654.79
195.303	417.39
195.684	1374.19
196.065	549.37
196.447	663.49
196.828	726.98
197.209	6266.67
197.59	621.51
197.971	1503.23
198.352	-4733.33
198.733	2717.65
199.114	-572.84
199.495	-473.39
199.876	-247.33
200.257	-133.59
200.638	-211.52
201.018	-214.37
201.399	-463.29
201.78	-353.27
202.16	-6200
202.541	-285.06
202.922	-250.39
203.302	-400
203.683	1085.71
204.063	7800
204.444	896.3
204.824	657.14
205.204	395.92
205.585	1252.17
205.965	395.7
206.345	-3490.91
206.725	1059.46
207.106	423.01
207.486	400
207.866	709.59
208.246	322.54
208.626	-2715.79
209.006	5600
209.386	-363.86
209.766	-294.74
210.145	-204.47
210.525	-155.1
210.905	-236.48
211.285	-184.69
211.664	-191.49
212.044	-207.51
212.424	-252.53
212.803	-189.27
213.183	-190.24
213.562	-144.19
213.942	-129.28
214.321	-146.03
214.701	-106.47
215.08	-74.01
215.459	-124.14
215.838	-85.12
216.218	-71.96
216.597	600
216.976	-282.35
217.355	-270.13
217.734	-382.46
218.113	1113.51
218.492	2952.94
218.871	1133.33
219.25	478.79
219.629	925.58
220.008	15600
220.387	457.14
220.766	188.24
221.144	277.13
221.523	275.39
221.902	348.5
222.28	168.42
222.659	135.96
223.037	145.69
223.416	121.84
223.794	97.35
224.173	135.47
224.551	137.8
224.929	110.67
225.308	95.53
225.686	69.87
226.064	41.21
226.442	22.05
226.821	19.79
227.199	18.4
227.577	22.15
227.955	17.75
228.333	12.96
228.711	13.56
229.089	13.18
229.467	12.27
229.845	10.98
230.222	17.95
230.6	17.32
230.978	19.62
231.356	18.44
231.733	15.64
232.111	16.32
232.488	13.75
232.866	18.2
233.243	14.4
233.621	17.24
233.998	18.23
234.376	18.02
234.753	17.25
235.13	17.77
235.508	16.65
235.885	14.98
236.262	16.1
236.639	15.31
237.016	14.43
237.393	16.59
237.77	17.43
238.147	15.13
238.524	14.58
238.901	12.24
239.278	11.44
239.655	11.61
240.032	11.73
240.409	12.31
240.785	10.63
241.162	10.78
241.539	10.37
241.915	10.36
242.292	10.23
242.668	10.09
243.045	9.68
243.421	9.23
243.798	9.17
244.174	8.83
244.551	8.74
244.927	8.37
245.303	7.93
245.679	7.7
246.056	7.7
246.432	7.37
246.808	7.68
247.184	7.63
247.56	7.23
247.936	7.16
248.312	7.15
248.688	7.12
249.064	6.87
249.44	6.85
249.815	6.79
250.191	6.99
250.567	6.89
250.943	7.02
251.318	7.26
251.694	7.06
252.069	7.06
252.445	7.13
252.82	7.45
253.196	7.47
253.571	7.5
253.947	7.47
254.322	7.67
254.697	7.49
255.073	7.34
255.448	7.69
255.823	7.67
256.198	7.46
256.573	7.57
256.948	7.72
257.323	7.67
257.698	7.34
258.073	7.02
258.448	7.17
258.823	6.76
259.198	6.8
259.573	6.78
259.948	6.98
260.322	6.78
260.697	6.9
261.072	6.87
261.446	6.85
261.821	6.68
262.195	6.75
262.57	6.69
262.944	6.76
263.319	6.8
263.693	6.68
264.067	6.74
264.442	6.5
264.816	6.29
265.19	6.28
265.564	6.53
265.938	6.69
266.313	6.57
266.687	6.98
267.061	7.1
267.435	7.08
267.809	6.78
268.183	7.03
268.556	6.81
268.93	6.98
269.304	6.66
269.678	6.87
270.051	6.72
270.425	6.65
270.799	6.42
271.172	6.44
271.546	6.59
271.919	6.61
272.293	6.72
272.666	6.98
273.04	6.86
273.413	6.73
273.787	6.77
274.16	6.75
274.533	6.65
274.906	6.48
275.279	6.61
275.653	6.72
276.026	6.87
276.399	6.73
276.772	6.66
277.145	6.96
277.518	6.88
277.891	6.92
278.263	7.07
278.636	7.34
279.009	7.44
279.382	7.23
279.755	7.09
280.127	7.17
280.5	6.88
280.872	6.93
281.245	7
281.617	6.92
281.99	6.9
282.362	6.81
282.735	6.57
283.107	6.58
283.479	6.57
283.852	6.3
284.224	6.45
284.596	6.32
284.968	6.17
285.34	6.18
285.713	6.16
286.085	6.11
286.457	6.1
286.829	6.08
287.201	6.14
287.572	6.06
287.944	6.01
288.316	6.19
288.688	6.3
289.06	6.31
289.431	6.5
289.803	6.54
290.175	6.71
290.546	6.87
290.918	6.84
291.289	6.73
291.661	6.75
292.032	6.67
292.403	6.7
292.775	6.68
293.146	6.65
293.517	6.77
293.889	6.86
294.26	6.84
294.631	6.78
295.002	6.86
295.373	6.9
295.744	6.97
296.115	6.9
296.486	6.96
296.857	7.11
297.228	6.89
297.599	6.73
297.97	6.91
298.34	7.01
298.711	7.13
299.082	7.26
299.452	7.23
299.823	7.27
300.194	7.35
300.564	7.52
300.935	7.65
301.305	7.7
301.676	7.51
302.046	7.51
302.416	7.6
302.787	7.45
303.157	7.65
303.527	7.68
303.897	7.67
304.267	7.62
304.637	7.44
305.008	7.69
305.378	7.96
305.748	7.73
306.117	7.56
306.487	7.41
306.857	7.5
307.227	7.67
307.597	7.75
307.967	7.57
308.336	7.53
308.706	7.5
309.076	7.57
309.445	7.68
309.815	7.71
310.184	7.66
310.554	7.7
310.923	7.53
311.293	7.49
311.662	7.56
312.031	7.62
312.401	7.55
312.77	7.25
313.139	7.1
313.508	7.12
313.877	7.24
314.246	7.21
314.616	7.07
314.985	6.97
315.353	6.97
315.722	7.27
316.091	7.28
316.46	7.28
316.829	7.06
317.198	7.19
317.567	7.27
317.935	7.43
318.304	7.67
318.672	7.67
319.041	7.63
319.41	7.67
319.778	7.54
320.147	7.63
320.515	7.83
320.883	7.94
321.252	7.82
321.62	7.87
321.988	7.97
322.357	7.96
322.725	8.06
323.093	7.81
323.461	7.61
323.829	7.63
324.197	7.6
324.565	7.61
324.933	7.56
325.301	7.42
325.669	7.24
326.037	7.14
326.405	7.28
326.772	7.46
327.14	7.41
327.508	7.34
327.875	7.32
328.243	7.43
328.61	7.46
328.978	7.53
329.346	7.53
329.713	7.59
330.08	7.5
330.448	7.36
330.815	7.57
331.182	7.69
331.55	7.81
331.917	7.82
332.284	7.85
332.651	7.8
333.018	7.93
333.385	7.96
333.752	7.84
334.119	7.82
334.486	7.71
334.853	7.73
335.22	7.79
335.587	7.91
335.954	7.7
336.32	7.56
336.687	7.56
337.054	7.41
337.42	7.33
337.787	7.32
338.153	7.34
338.52	7.32
338.886	7.25
339.253	7.14
339.619	7.12
339.986	7.08
340.352	7.11
340.718	7.13
341.084	7.11
341.451	7.14
341.817	7.14
342.183	7.12
342.549	7.07
342.915	7.12
343.281	6.97
343.647	7.07
344.013	7.15
344.379	7.03
344.745	7.12
345.11	7.04
345.476	7.19
345.842	7.19
346.208	7.18
346.573	7.18
346.939	7.2
347.304	7.11
347.67	7.11
348.035	6.95
348.401	6.89
348.766	6.83
349.132	6.91
349.497	6.97
349.862	7
350.228	7.06
350.593	7.09
350.958	7.19
351.323	7.08
351.688	7.09
352.053	7.2
352.418	7.23
352.783	7.4
353.148	7.31
353.513	7.32
353.878	7.24
354.243	7.23
354.608	7.17
354.972	7.18
355.337	7.25
355.702	7.25
356.066	7.2
356.431	7.25
356.795	7.16
357.16	7.1
357.524	7.16
357.889	7.14
358.253	7.05
358.618	6.99
358.982	7.04
359.346	7.06
359.71	6.99
360.075	6.91
360.439	6.88
360.803	6.9
361.167	6.91
361.531	6.94
361.895	6.96
362.259	7.06
362.623	7.15
362.987	7.08
363.351	7.14
363.714	7.13
364.078	7.07
364.442	7.05
364.806	7.1
365.169	7.09
365.533	7.12
365.896	7.21
366.26	7.22
366.623	7.22
366.987	7.17
367.35	7.26
367.714	7.37
368.077	7.35
368.44	7.37
368.803	7.37
369.167	7.31
369.53	7.31
369.893	7.26
370.256	7.22
370.619	7.35
370.982	7.32
371.345	7.41
371.708	7.44
372.071	7.51
372.434	7.48
372.797	7.46
373.159	7.38
373.522	7.34
373.885	7.34
374.247	7.32
374.61	7.38
374.973	7.38
375.335	7.36
375.698	7.33
376.06	7.35
376.423	7.34
376.785	7.43
377.147	7.44
377.51	7.4
377.872	7.41
378.234	7.43
378.596	7.46
378.958	7.46
379.321	7.48
379.683	7.49
380.045	7.45
380.407	7.42
380.769	7.41
381.13	7.41
381.492	7.38
381.854	7.44
382.216	7.45
382.578	7.41
382.939	7.4
383.301	7.44
383.663	7.44
384.024	7.43
384.386	7.41
384.747	7.36
385.109	7.34
385.47	7.32
385.832	7.22
386.193	7.26
386.554	7.15
386.916	7.18
387.277	7.17
387.638	7.17
387.999	7.15
388.36	7.2
388.721	7.21
389.082	7.24
389.443	7.23
389.804	7.2
390.165	7.24
390.526	7.24
390.887	7.19
391.248	7.19
391.609	7.23
391.969	7.23
392.33	7.24
392.691	7.25
393.051	7.27
393.412	7.29
393.772	7.29
394.133	7.34
394.493	7.29
394.854	7.27
395.214	7.26
395.574	7.28
395.935	7.27
396.295	7.24
396.655	7.25
397.015	7.23
397.376	7.25
397.736	7.22
398.096	7.2
398.456	7.3
398.816	7.28
399.176	7.24
399.535	7.22
399.895	7.19
400.255	7.16
400.615	7.14
400.975	7.12
401.334	7.09
401.694	7.09
402.054	7.13
402.413	7.1
402.773	7.1
403.132	7.11
403.492	7.15
403.851	7.16
404.211	7.15
404.57	7.16
404.929	7.12
405.288	7.06
405.648	7.03
406.007	6.97
406.366	7
406.725	7
407.084	7.01
407.443	7.05
407.802	7.11
408.161	7.11
408.52	7.11
408.879	7.14
409.238	7.14
409.596	7.13
409.955	7.18
410.314	7.17
410.673	7.18
411.031	7.1
411.39	7.05
411.748	7.06
412.107	7.05
412.465	7.06
412.824	7.11
413.182	7.12
413.54	7.13
413.899	7.12
414.257	7.09
414.615	7.08
414.974	7.07
415.332	7.05
415.69	7.04
416.048	7.03
416.406	6.99
416.764	6.98
417.122	6.96
417.48	6.94
417.838	6.96
418.195	6.95
418.553	6.96
418.911	6.98
419.269	6.97
419.626	6.99
419.984	7
420.342	6.99
420.699	7
421.057	7
421.414	6.98
421.772	6.99
422.129	6.99
422.486	6.97
422.844	6.96
423.201	6.96
423.558	6.98
423.915	6.99
424.273	6.99
424.63	6.99
424.987	7
425.344	6.98
425.701	6.97
426.058	6.97
426.415	6.97
426.772	6.98
427.128	6.98
427.485	6.97
427.842	6.98
428.199	6.97
428.555	6.96
428.912	6.95
429.269	6.94
429.625	6.94
429.982	6.97
430.338	7.01
430.695	7.01
431.051	7.02
431.407	7.03
431.764	7.01
432.12	7.03
432.476	7.05
432.832	7.08
433.189	7.09
433.545	7.12
433.901	7.15
434.257	7.12
434.613	7.1
434.969	7.09
435.325	7.07
435.681	7.05
436.036	7.05
436.392	7.06
436.748	7.1
437.104	7.08
437.459	7.06
437.815	7.03
438.171	7.01
438.526	7
438.882	7
439.237	6.99
439.593	6.99
439.948	6.97
440.304	6.94
440.659	6.94
441.014	6.92
441.369	6.9
441.725	6.92
442.08	6.93
442.435	6.94
442.79	6.94
443.145	6.94
443.5	6.94
443.855	6.94
444.21	6.93
444.565	6.94
444.92	6.95
445.275	6.94
445.629	6.97
445.984	6.94
446.339	6.94
446.693	6.95
447.048	6.93
447.403	6.92
447.757	6.95
448.112	6.95
448.466	6.93
448.82	6.94
449.175	6.92
449.529	6.91
449.883	6.89
450.238	6.9
450.592	6.92
450.946	6.92
451.3	6.92
451.654	6.91
452.008	6.91
452.362	6.89
452.716	6.9
453.07	6.87
453.424	6.86
453.778	6.87
454.132	6.85
454.486	6.87
454.839	6.88
455.193	6.89
455.547	6.88
455.9	6.89
456.254	6.88
456.607	6.91
456.961	6.94
457.314	6.94
457.668	6.94
458.021	6.91
458.375	6.91
458.728	6.89
459.081	6.89
459.434	6.89
459.787	6.91
460.141	6.91
460.494	6.93
460.847	6.94
461.2	6.95
461.553	6.96
461.906	6.97
462.259	6.93
462.611	6.94
462.964	6.96
463.317	6.93
463.67	6.94
464.022	6.94
464.375	6.92
464.728	6.94
465.08	6.94
465.433	6.97
465.785	6.99
466.138	7.02
466.49	7.05
466.843	7.06
467.195	7.09
467.547	7.07
467.899	7.08
468.252	7.08
468.604	7.09
468.956	7.1
469.308	7.08
469.66	7.14
470.012	7.14
470.364	7.13
470.716	7.2
471.068	7.2
471.42	7.2
471.772	7.21
472.123	7.22
472.475	7.24
472.827	7.21
473.178	7.21
473.53	7.19
473.882	7.2
474.233	7.18
474.585	7.16
474.936	7.17
475.288	7.19
475.639	7.21
475.99	7.2
476.342	7.19
476.693	7.21
477.044	7.18
477.395	7.14
477.746	7.14
478.097	7.11
478.448	7.09
478.8	7.1
479.15	7.09
479.501	7.07
479.852	7.05
480.203	7.08
480.554	7.1
480.905	7.1
481.255	7.09
481.606	7.1
481.957	7.11
482.307	7.12
482.658	7.12
483.009	7.12
483.359	7.12
483.709	7.13
484.06	7.14
484.41	7.14
484.761	7.16
485.111	7.16
485.461	7.17
485.811	7.19
486.162	7.19
486.512	7.2
486.862	7.21
487.212	7.22
487.562	7.22
487.912	7.23
488.262	7.24
488.612	7.24
488.961	7.24
489.311	7.24
489.661	7.23
490.011	7.25
490.36	7.25
490.71	7.25
491.06	7.26
491.409	7.27
491.759	7.28
492.108	7.28
492.458	7.28
492.807	7.27
493.157	7.26
493.506	7.28
493.855	7.29
494.204	7.29
494.554	7.3
494.903	7.3
495.252	7.31
495.601	7.31
495.95	7.34
496.299	7.36
496.648	7.36
496.997	7.38
497.346	7.37
497.695	7.38
498.043	7.4
498.392	7.44
498.741	7.43
499.09	7.46
499.438	7.47
499.787	7.5
500.135	7.51
500.484	7.55
500.832	7.53
501.181	7.52
501.529	7.54
501.878	7.55
502.226	7.58
502.574	7.58
502.923	7.6
503.271	7.61
503.619	7.6
503.967	7.64
504.315	7.66
504.663	7.63
505.011	7.67
505.359	7.67
505.707	7.66
506.055	7.7
506.403	7.71
506.751	7.72
507.098	7.73
507.446	7.74
507.794	7.74
508.141	7.77
508.489	7.8
508.837	7.79
509.184	7.8
509.531	7.8
509.879	7.81
510.226	7.81
510.574	7.8
510.921	7.83
511.268	7.82
511.616	7.82
511.963	7.85
512.31	7.85
512.657	7.86
513.004	7.86
513.351	7.87
513.698	7.86
514.045	7.85
514.392	7.84
514.739	7.87
515.086	7.86
515.432	7.86
515.779	7.85
516.126	7.89
516.473	7.88
516.819	7.89
517.166	7.9
517.512	7.91
517.859	7.94
518.205	7.92
518.552	7.94
518.898	7.94
519.245	7.96
519.591	7.96
519.937	7.94
520.283	7.95
520.629	7.94
520.976	7.96
521.322	7.99
521.668	7.99
522.014	7.98
522.36	7.99
522.706	7.99
523.052	8.01
523.398	7.98
523.743	8.01
524.089	8
524.435	7.98
524.781	7.99
525.126	7.97
525.472	7.99
525.817	7.99
526.163	7.99
526.509	7.97
526.854	7.97
527.199	7.99
527.545	7.99
527.89	7.99
528.235	7.99
528.581	7.97
528.926	7.98
529.271	7.99
529.616	8.01
529.961	8.01
530.306	8.03
530.651	8.04
530.996	8.04
531.341	8.05
531.686	8.07
532.031	8.07
532.376	8.08
532.721	8.08
533.065	8.07
533.41	8.09
533.755	8.1
534.099	8.12
534.444	8.12
534.788	8.13
535.133	8.14
535.477	8.16
535.822	8.19
536.166	8.2
536.51	8.21
536.855	8.21
537.199	8.22
537.543	8.21
537.887	8.21
538.231	8.22
538.576	8.23
538.92	8.27
539.264	8.26
539.608	8.26
539.951	8.29
540.295	8.3
540.639	8.32
540.983	8.34
541.327	8.34
541.671	8.35
542.014	8.36
542.358	8.38
542.701	8.39
543.045	8.4
543.389	8.4
543.732	8.41
544.075	8.41
544.419	8.43
544.762	8.44
545.105	8.47
545.449	8.49
545.792	8.49
546.135	8.48
546.478	8.52
546.821	8.55
547.165	8.55
547.508	8.57
547.851	8.56
548.194	8.58
548.536	8.61
548.879	8.6
549.222	8.6
549.565	8.56
549.908	8.56
550.25	8.55
550.593	8.56
550.936	8.57
551.278	8.57
551.621	8.58
551.963	8.62
552.306	8.63
552.648	8.64
552.991	8.68
553.333	8.68
553.675	8.67
554.017	8.68
554.36	8.73
554.702	8.74
555.044	8.77
555.386	8.78
555.728	8.79
556.07	8.82
556.412	8.8
556.754	8.83
557.096	8.87
557.438	8.84
557.78	8.87
558.121	8.89
558.463	8.9
558.805	8.91
559.147	8.88
559.488	8.89
559.83	8.91
560.171	8.89
560.513	8.89
560.854	8.9
561.196	8.91
561.537	8.91
561.878	8.86
562.22	8.84
562.561	8.84
562.902	8.86
563.243	8.85
563.584	8.86
563.925	8.84
564.266	8.84
564.607	8.88
564.948	8.85
565.289	8.85
565.63	8.85
565.971	8.85
566.312	8.84
566.653	8.83
566.993	8.82
567.334	8.83
567.675	8.83
568.015	8.84
568.356	8.81
568.696	8.78
569.037	8.8
569.377	8.84
569.718	8.82
570.058	8.79
570.398	8.77
570.739	8.78
571.079	8.81
571.419	8.8
571.759	8.78
572.099	8.8
572.439	8.77
572.779	8.77
573.119	8.77
573.459	8.76
573.799	8.75
574.139	8.73
574.479	8.71
574.819	8.75
575.158	8.77
575.498	8.79
575.838	8.82
576.177	8.82
576.517	8.85
576.856	8.91
577.196	8.94
577.535	8.96
577.875	9.01
578.214	9.03
578.553	9.03
578.893	9.08
579.232	9.09
579.571	9.14
579.91	9.17
580.25	9.16
580.589	9.21
580.928	9.28
581.267	9.36
581.606	9.43
581.945	9.4
582.283	9.41
582.622	9.4
582.961	9.44
583.3	9.46
583.639	9.39
583.977	9.36
584.316	9.4
584.654	9.43
584.993	9.39
585.332	9.4
585.67	9.43
586.008	9.41
586.347	9.42
586.685	9.4
587.024	9.42
587.362	9.45
587.7	9.44
588.038	9.45
588.376	9.4
588.715	9.4
589.053	9.43
589.391	9.44
589.729	9.45
590.067	9.44
590.404	9.4
590.742	9.39
591.08	9.36
591.418	9.33
591.756	9.3
592.093	9.3
592.431	9.32
592.769	9.31
593.106	9.3
593.444	9.3
593.781	9.31
594.119	9.28
594.456	9.28
594.793	9.29
595.131	9.26
595.468	9.33
595.805	9.28
596.143	9.26
596.48	9.26
596.817	9.29
597.154	9.25
597.491	9.31
597.828	9.36
598.165	9.38
598.502	9.34
598.839	9.33
599.176	9.3
599.512	9.25
599.849	9.26
600.186	9.25
600.523	9.27
600.859	9.28
601.196	9.27
601.532	9.26
601.869	9.29
602.205	9.29
602.542	9.25
602.878	9.29
603.215	9.29
603.551	9.24
603.887	9.22
604.223	9.24
604.56	9.24
604.896	9.23
605.232	9.21
605.568	9.26
605.904	9.27
606.24	9.33
606.576	9.33
606.912	9.31
607.248	9.35
607.583	9.34
607.919	9.31
608.255	9.33
608.591	9.4
608.926	9.35
609.262	9.35
609.597	9.35
609.933	9.31
610.268	9.36
610.604	9.42
610.939	9.43
611.275	9.45
611.61	9.42
611.945	9.41
612.281	9.5
612.616	9.54
612.951	9.61
613.286	9.58
613.621	9.65
613.956	9.7
614.291	9.73
614.626	9.74
614.961	9.82
615.296	9.82
615.631	9.77
615.966	9.81
616.3	9.83
616.635	9.83
616.97	9.88
617.304	9.82
617.639	9.87
617.973	9.85
618.308	9.89
618.642	9.94
618.977	9.96
619.311	9.85
619.646	9.81
619.98	9.78
620.314	9.77
620.648	9.72
620.983	9.7
621.317	9.63
621.651	9.59
621.985	9.62
622.319	9.57
622.653	9.53
622.987	9.51
623.321	9.52
623.655	9.57
623.988	9.57
624.322	9.56
624.656	9.49
624.99	9.51
625.323	9.48
625.657	9.48
625.99	9.47
626.324	9.51
626.657	9.5
626.991	9.46
627.324	9.44
627.658	9.44
627.991	9.43
628.324	9.44
628.657	9.51
628.991	9.47
629.324	9.51
629.657	9.51
629.99	9.52
630.323	9.5
630.656	9.45
630.989	9.43
631.322	9.46
631.655	9.5
631.987	9.51
632.32	9.52
632.653	9.53
632.986	9.59
633.318	9.62
633.651	9.67
633.984	9.72
634.316	9.74
634.649	9.79
634.981	9.83
635.313	9.87
635.646	9.86
635.978	9.88
636.31	9.87
636.643	9.95
636.975	9.99
637.307	10.02
637.639	10.07
637.971	10.11
638.303	10.12
638.635	10.11
638.967	10.13
639.299	10.12
639.631	10.15
639.963	10.12
640.295	10.19
640.626	10.17
640.958	10.18
641.29	10.27
641.621	10.27
641.953	10.21
642.285	10.21
642.616	10.19
642.948	10.21
643.279	10.27
643.61	10.21
643.942	10.13
644.273	10.12
644.604	10.12
644.936	10.09
645.267	10.11
645.598	10.11
645.929	10.05
646.26	10.03
646.591	9.99
646.922	10.08
647.253	10.03
647.584	10.01
647.915	10
648.245	9.91
648.576	9.85
648.907	9.94
649.238	9.93
649.568	9.9
649.899	9.91
650.229	9.88
650.56	9.93
650.89	10.07
651.221	10.04
651.551	10.07
651.882	10.05
652.212	10
652.542	10.05
652.872	10.11
653.203	10.2
653.533	10.24
653.863	10.15
654.193	10.12
654.523	10.16
654.853	10.2
655.183	10.25
655.513	10.22
655.843	10.2
656.172	10.27
656.502	10.34
656.832	10.26
657.162	10.28
657.491	10.26
657.821	10.17
658.15	10.21
658.48	10.21
658.809	10.24
659.139	10.29
659.468	10.22
659.798	10.23
660.127	10.17
660.456	10.16
660.785	10.17
661.115	10.18
661.444	10.19
661.773	10.17
662.102	10.18
662.431	10.26
662.76	10.26
663.089	10.24
663.418	10.2
663.747	10.25
664.076	10.17
664.404	10.13
664.733	10.14
665.062	10.19
665.39	10.15
665.719	10.22
666.048	10.16
666.376	10.21
666.705	10.13
667.033	10.11
667.362	10.14
667.69	10.2
668.018	10.26
668.347	10.26
668.675	10.21
669.003	10.12
669.331	10.14
669.659	10.13
669.987	10.14
670.315	10.16
670.643	10.26
670.971	10.38
671.299	10.49
671.627	10.46
671.955	10.4
672.283	10.38
672.61	10.27
672.938	10.36
673.266	10.35
673.593	10.49
673.921	10.52
674.249	10.38
674.576	10.26
674.904	10.28
675.231	10.24
675.558	10.33
675.886	10.37
676.213	10.31
676.54	10.3
676.867	10.26
677.195	10.23
677.522	10.19
677.849	10.13
678.176	10.07
678.503	10.17
678.83	10.17
679.157	10.2
679.484	10.29
679.81	10.28
680.137	10.35
680.464	10.28
680.791	10.28
681.117	10.35
681.444	10.39
681.771	10.38
682.097	10.5
682.424	10.47
682.75	10.54
683.077	10.7
683.403	10.78
683.729	10.81
684.056	10.85
684.382	10.84
684.708	10.79
685.034	10.78
685.36	10.81
685.686	10.82
686.012	10.76
686.339	10.7
686.664	10.68
686.99	10.55
687.316	10.65
687.642	10.65
687.968	10.7
688.294	10.76
688.619	10.67
688.945	10.59
689.271	10.6
689.596	10.67
689.922	10.59
690.247	10.51
690.573	10.52
690.898	10.56
691.224	10.61
691.549	10.71
691.874	10.92
692.2	10.82
692.525	10.84
692.85	10.97
693.175	11
693.5	10.95
693.825	11.02
694.15	10.98
694.475	10.92
694.8	10.89
695.125	10.75
695.45	10.77
695.775	10.65
696.099	10.64
696.424	10.47
696.749	10.54
697.073	10.57
697.398	10.51
697.723	10.55
698.047	10.53
698.372	10.51
698.696	10.32
699.02	10.32
699.345	10.4
699.669	10.36
699.993	10.41
700.318	10.5
700.642	10.52
700.966	10.37
701.29	10.5
701.614	10.56
701.938	10.63
702.262	10.69
702.586	10.88
702.91	10.92
703.234	11.03
703.557	11
703.881	11.13
704.205	11.22
704.529	11.22
704.852	11.3
705.176	11.49
705.499	11.55
705.823	11.72
706.146	11.69
706.47	11.66
706.793	11.59
707.117	11.64
707.44	11.71
707.763	11.89
708.086	11.81
708.409	11.74
708.733	11.83
709.056	11.92
709.379	11.83
709.702	11.99
710.025	11.97
710.348	12
710.671	11.93
710.993	12
711.316	11.96
711.639	11.83
711.962	11.87
712.284	11.88
712.607	11.88
712.93	11.94
713.252	11.96
713.575	12.16
713.897	12.16
714.22	12.11
714.542	12.14
714.864	12.04
715.187	12.03
715.509	11.99
715.831	11.96
716.153	11.98
716.475	11.92
716.798	11.99
717.12	11.96
717.442	11.86
717.764	11.7
718.085	11.74
718.407	11.84
718.729	11.68
719.051	11.74
719.373	11.63
719.695	11.48
720.016	11.39
720.338	11.27
720.659	11.19
720.981	11.09
721.302	11.21
721.624	11.34
721.945	11.44
722.267	11.56
722.588	11.62
722.909	11.61
723.231	11.39
723.552	11.36
723.873	11.41
724.194	11.52
724.515	11.64
724.836	11.57
725.157	11.52
725.478	11.7
725.799	11.57
726.12	11.72
726.441	11.81
726.762	11.95
727.083	12.06
727.403	12.02
727.724	12.23
728.045	12.18
728.365	12.32
728.686	12.17
729.006	12.08
729.327	12.14
729.647	12.27
729.967	12.38
730.288	12.51
730.608	12.62
730.928	12.45
731.249	12.63
731.569	12.71
731.889	12.64
732.209	12.45
732.529	12.49
732.849	12.5
733.169	12.48
733.489	12.56
733.809	12.57
734.129	12.57
734.448	12.48
734.768	12.46
735.088	12.46
735.408	12.75
735.727	12.99
736.047	12.91
736.366	12.8
736.686	12.96
737.005	12.88
737.325	12.68
737.644	12.89
737.963	12.72
738.283	12.62
738.602	12.84
738.921	12.89
739.24	12.98
739.56	12.89
739.879	13.02
740.198	12.94
740.517	12.87
740.836	12.94
741.155	13.01
741.473	13.13
741.792	13.24
742.111	13.23
742.43	13.15
742.748	13.17
743.067	13.2
743.386	13.03
743.704	13.15
744.023	13.15
744.341	13.29
744.66	13.15
744.978	13.47
745.297	13.45
745.615	13.34
745.933	13.34
746.252	13.46
746.57	13.72
746.888	13.73
747.206	13.83
747.524	13.91
747.842	13.74
748.16	13.62
748.478	13.29
748.796	13.18
749.114	13.11
749.432	12.86
749.749	12.68
750.067	12.69
750.385	12.79
750.703	12.95
751.02	13.05
751.338	13.33
751.655	12.91
751.973	12.65
752.29	12.7
752.608	12.63
752.925	12.54
753.242	12.2
753.56	12.13
753.877	11.84
754.194	11.81
754.511	12.14
754.828	12.05
755.145	12.14
755.462	11.78
755.779	11.96
756.096	12.15
756.413	12.4
756.73	12.43
757.047	12.38
757.364	12.34
757.68	12.23
757.997	12.17
758.314	12.74
758.63	12.8
758.947	12.99
759.264	12.94
759.58	13.13
759.896	13.19
760.213	13.28
760.529	13.32
760.846	13.28
761.162	12.74
761.478	12.82
761.794	12.9
762.11	13.01
762.426	12.67
762.743	12.56
763.059	12.53
763.375	12.58
763.69	12.5
764.006	12.64
764.322	12.55
764.638	12.45
764.954	12.2
765.27	12.33
765.585	12.17
765.901	12.26
766.216	11.92
766.532	12.18
766.848	12.41
767.163	12.58
767.478	12.66
767.794	13.06
768.109	13.22
768.424	13.3
768.74	13.57
769.055	13.86
769.37	14.15
769.685	14.24
770	14.1
770.315	14.16
770.63	14.13
770.945	14.34
771.26	14.61
771.575	14.6
771.89	14.46
772.205	14.33
772.52	14.38
772.834	14.8
773.149	14.34
773.464	14.11
773.778	13.7
774.093	13.75
774.407	13.75
774.722	13.73
775.036	13.59
775.351	13.8
775.665	13.91
775.979	13.68
776.293	13.69
776.608	13.69
776.922	13.85
777.236	13.72
777.55	13.39
777.864	13.41
778.178	13.51
778.492	13.53
778.806	14.28
779.12	14.31
779.434	14.31
779.747	14.4
780.061	14.5
780.375	15.07
780.689	15.24
781.002	15.18
781.316	15.18
781.629	15.44
781.943	14.97
782.256	14.92
782.57	15.17
782.883	15.79
783.196	15.94
783.51	16.18
783.823	16.31
784.136	16.65
784.449	16.57
784.762	16.66
785.075	16.54
785.388	16.78
785.701	16.66
786.014	16.25
786.327	16.25
786.64	15.82
786.953	15.61
787.266	15.89
787.578	15.71
787.891	15.5
788.204	15.41
788.516	15.55
788.829	15.3
789.141	14.86
789.454	14.65
789.766	14.7
790.079	13.84
790.391	13.74
790.703	13.58
791.016	13.53
791.328	13.37
791.64	14.02
791.952	13.44
792.264	13.06
792.576	13.58
792.888	13.42
793.2	13.76
793.512	13.66
793.824	13.68
794.136	13.99
794.448	14.08
794.76	13.74
795.071	13.57
795.383	13.84
795.695	14.39
796.006	13.7
796.318	14.06
796.629	14.63
796.941	15.07
797.252	14.56
797.564	14.74
797.875	15.09
798.186	14.81
798.497	15
798.809	15.34
799.12	14.7
799.431	14.69
799.742	14.38
800.053	14.54
800.364	14.18
800.675	14.75
800.986	14.71
801.297	15.01
801.608	15.3
801.918	15.5
802.229	15.54
802.54	16.36
802.851	16.2
803.161	15.74
803.472	15.44
803.782	16.23
804.093	15.67
804.403	15.1
804.714	15.62
805.024	15.5
805.334	15.51
805.645	15.8
805.955	15.82
806.265	16.03
806.575	15.79
806.885	16.38
807.195	15.92
807.505	15.99
807.815	16.06
808.125	16
808.435	15.86
808.745	15.7
809.055	15.38
809.365	15.02
809.674	15.31
809.984	15.02
810.294	15.13
810.603	15.57
810.913	15.87
811.222	14.92
811.532	15.09
811.841	15.6
812.151	15.78
812.46	16.45
812.769	16.06
813.079	16.4
813.388	14.74
813.697	13.6
814.006	13.53
814.315	13.39
814.624	13.65
814.933	13.14
815.242	13.29
815.551	13.3
815.86	13.73
816.169	13.9
816.478	14.58
816.786	14.87
817.095	15.17
817.404	15.39
817.712	15.5
818.021	16.24
818.33	15.61
818.638	16.12
818.947	15.74
819.255	15.84
819.563	15.58
819.872	15.93
820.18	16.05
820.488	16
820.796	15.67
821.105	15.42
821.413	15.38
821.721	15.07
822.029	15.05
822.337	14.79
822.645	14.88
822.953	14.86
823.26	14.71
823.568	14.69
823.876	14.69
824.184	14.62
824.491	14.49
824.799	14.59
825.107	14.41
825.414	14.35
825.722	14.38
826.029	14.36
826.337	14.31
826.644	14.51
826.951	14.46
827.259	14.67
827.566	14.78
827.873	14.97
828.18	15.34
828.488	15.31
828.795	15.79
829.102	15.68
829.409	15.59
829.716	15.77
830.023	15.81
830.329	15.88
830.636	16.27
830.943	16.18
831.25	16.58
831.557	16.79
831.863	16.94
832.17	16.9
832.476	17.56
832.783	17.79
833.089	17.55
833.396	18.19
833.702	18.1
834.009	17.9
834.315	17.47
834.621	17.18
834.928	17.19
835.234	16.46
835.54	16.29
835.846	16.11
836.152	16.47
836.458	16.67
836.764	17.24
837.07	17.17
837.376	17.34
837.682	17.09
837.988	17.09
838.293	17.21
838.599	17.53
838.905	17.19
839.211	17.29
839.516	17.38
839.822	16.93
840.127	16.43
840.433	18.17
840.738	19.04
841.044	19.78
841.349	21.59
841.654	22.3
841.959	23.65
842.265	23.83
842.57	22.79
842.875	22.53
843.18	22.12
843.485	22.12
843.79	22.1
844.095	21.77
844.4	22.23
844.705	22.57
845.01	23.89
845.315	22.86
845.619	22.84
845.924	23.04
846.229	23.54
846.533	24.72
846.838	22.43
847.142	22.61
847.447	22.84
847.751	20.59
848.056	21.79
848.36	22.54
848.664	22.49
848.969	23.59
849.273	22.8
849.577	21.99
849.881	23.57
850.185	23.82
850.489	25.14
850.794	27.44
851.097	26.35
851.401	23.21
851.705	24.95
852.009	24.66
852.313	24.85
852.617	21.86
852.92	23.92
853.224	25.71
853.528	26.51
853.831	26.11
854.135	27.33
854.438	28.26
854.742	28.13
855.045	30.46
855.349	29.06
855.652	30.86
855.955	30.8
856.259	29.54
856.562	28.57
856.865	27.4
857.168	24.73
857.471	27.72
857.774	30.13
858.077	29.74
858.38	28.02
858.683	30.57
858.986	33.46
859.289	32.76
859.592	32.78
859.894	29.23
860.197	29.95
860.5	27.75
860.802	29.67
861.105	29.05
861.407	29.37
861.71	29.55
862.012	29.08
862.315	29.35
862.617	30.53
862.919	30.68
863.222	31.07
863.524	29.95
863.826	28.74
864.128	27.34
864.43	26.3
864.732	28.34
865.034	28.07
865.336	26.28
865.638	27.58
865.94	24.94
866.242	28.32
866.544	29.16
866.846	31.47
867.147	28.33
867.449	26.55
867.751	25.49
868.052	27.3
868.354	28.09
868.655	29.92
868.957	29.59
869.258	32.06
869.56	32.19
869.861	32.18
870.162	32.47
870.463	33.2
870.765	33.92
871.066	32.19
871.367	28.71
871.668	27.55
871.969	25.03
872.27	26.79
872.571	26.29
872.872	23.1
873.173	20.65
873.473	19.23
873.774	21.76
874.075	24.35
874.376	24.39
874.676	23.29
874.977	22.07
875.277	20.99
875.578	19.69
875.878	19.09
876.179	19.8
876.479	19.15
876.78	18.74
877.08	19.39
877.38	21.26
877.68	23.31
877.981	26.9
878.281	28.4
878.581	27.97
