Data from BA55658_Reflection_00004.txt Node
Date: Tue Nov 19 11:55:33 EST 2019
User: vgr7
Spectrometer: USB2G7710
Scans to average: 3
Trigger mode: 4
Integration Time (sec): 2.000000E-2
Electric dark correction enabled: true
Boxcar width: 10
XAxis mode: Wavelengths
Number of Pixels in Spectrum: 2048
>>>>>Begin Spectral Data<<<<<
177.721	-21.11
178.105	-32.65
178.488	-56.16
178.871	-70
179.254	-74.65
179.636	-301.64
180.019	-845.95
180.402	-42.86
180.785	-442.86
181.168	-976.92
181.55	291.71
181.933	138.08
182.316	90.62
182.698	116.03
183.081	78.84
183.463	118.94
183.846	71.53
184.228	59.32
184.611	57.05
184.993	54.84
185.376	45.18
185.758	38.69
186.14	39.15
186.522	27.37
186.904	29.86
187.287	20.95
187.669	15.3
188.051	37.73
188.433	69.87
188.815	65.11
189.197	88.25
189.579	111.96
189.961	154.64
190.342	348.08
190.724	299.06
191.106	-2851.22
191.488	669.06
191.869	-772.48
192.251	-158.06
192.633	-128.01
193.014	-303.43
193.396	-466.5
193.777	-214.77
194.159	-266.55
194.54	-156.66
194.922	-102
195.303	-175.73
195.684	490.37
196.065	509.33
196.447	117.51
196.828	275.36
197.209	38.81
197.59	-60.08
197.971	-77.11
198.352	-61.93
198.733	28.92
199.114	39.25
199.495	43.91
199.876	88.45
200.257	119.34
200.638	134.36
201.018	221.55
201.399	937.84
201.78	121.15
202.16	464.71
202.541	605.49
202.922	60.86
203.302	22.92
203.683	-100
204.063	-18.92
204.444	8.34
204.824	10.83
205.204	-1.99
205.585	-22.77
205.965	-31.63
206.345	-44.21
206.725	38.66
207.106	47.07
207.486	131.72
207.866	137.23
208.246	106.51
208.626	89.83
209.006	75.03
209.386	86.86
209.766	98.73
210.145	63.96
210.525	55.47
210.905	28.12
211.285	28.18
211.664	46.38
212.044	35.15
212.424	39.41
212.803	53.71
213.183	66.15
213.562	52.64
213.942	37.86
214.321	41.71
214.701	31.67
215.08	16.61
215.459	-3.49
215.838	-3.42
216.218	-36.44
216.597	10.7
216.976	56.38
217.355	38.82
217.734	48.65
218.113	81.46
218.492	60.06
218.871	41.73
219.25	58.99
219.629	191.29
220.008	79.54
220.387	126.42
220.766	-497.4
221.144	509.84
221.523	85.16
221.902	25.5
222.28	2300
222.659	80.17
223.037	82.43
223.416	91.75
223.794	93.39
224.173	63.57
224.551	55.16
224.929	27.99
225.308	12.76
225.686	-19.47
226.064	-18.26
226.442	-1.51
226.821	8.15
227.199	5.75
227.577	12.79
227.955	17.46
228.333	13.74
228.711	16.74
229.089	11.94
229.467	14.13
229.845	9.88
230.222	10.28
230.6	7.02
230.978	6.66
231.356	3.95
231.733	4.16
232.111	5.83
232.488	6.12
232.866	6.24
233.243	8.04
233.621	12.15
233.998	7.44
234.376	8.22
234.753	5.95
235.13	4.72
235.508	4.79
235.885	0.33
236.262	-1.25
236.639	-3.59
237.016	-2.69
237.393	-2.31
237.77	-0.51
238.147	-0.08
238.524	1.83
238.901	2.25
239.278	3.24
239.655	2.97
240.032	2.55
240.409	2.31
240.785	2.68
241.162	2.73
241.539	2.12
241.915	2.64
242.292	2.22
242.668	2.66
243.045	3.54
243.421	4.05
243.798	4.51
244.174	5.08
244.551	5.48
244.927	5.66
245.303	5.6
245.679	6.06
246.056	6.01
246.432	5.92
246.808	6.01
247.184	5.98
247.56	5.93
247.936	6
248.312	6.48
248.688	6.13
249.064	6.13
249.44	6.25
249.815	6.52
250.191	6.53
250.567	6.29
250.943	6.09
251.318	5.94
251.694	5.62
252.069	5.5
252.445	5.34
252.82	5.57
253.196	5.55
253.571	5.4
253.947	5.32
254.322	5.36
254.697	5.53
255.073	5.74
255.448	5.55
255.823	5.47
256.198	5.46
256.573	5.55
256.948	5.64
257.323	5.83
257.698	5.52
258.073	5.57
258.448	5.86
258.823	5.83
259.198	5.86
259.573	5.86
259.948	6.11
260.322	6.06
260.697	5.76
261.072	5.79
261.446	5.69
261.821	5.87
262.195	5.97
262.57	5.91
262.944	5.69
263.319	5.88
263.693	5.97
264.067	5.82
264.442	5.93
264.816	5.68
265.19	5.79
265.564	5.83
265.938	5.91
266.313	5.93
266.687	5.85
267.061	5.7
267.435	5.95
267.809	5.68
268.183	5.6
268.556	5.55
268.93	5.64
269.304	5.52
269.678	5.45
270.051	5.4
270.425	5.28
270.799	5.34
271.172	5.22
271.546	5.22
271.919	5.32
272.293	5.29
272.666	5.62
273.04	5.47
273.413	5.59
273.787	5.59
274.16	5.45
274.533	5.58
274.906	5.7
275.279	5.87
275.653	6.06
276.026	6.23
276.399	6.2
276.772	6.11
277.145	6.13
277.518	5.99
277.891	5.85
278.263	5.82
278.636	6.06
279.009	6.21
279.382	6.03
279.755	5.94
280.127	5.94
280.5	5.69
280.872	5.67
281.245	5.66
281.617	5.77
281.99	6
282.362	6
282.735	6.11
283.107	5.96
283.479	5.9
283.852	5.76
284.224	5.95
284.596	5.68
284.968	5.62
285.34	5.56
285.713	5.7
286.085	5.7
286.457	5.67
286.829	5.54
287.201	5.67
287.572	5.78
287.944	5.99
288.316	6.11
288.688	6.16
289.06	6.25
289.431	6.16
289.803	6.1
290.175	6.14
290.546	5.94
290.918	5.89
291.289	5.72
291.661	5.85
292.032	5.83
292.403	5.95
292.775	6.09
293.146	6.23
293.517	6.12
293.889	6.21
294.26	6.25
294.631	6.28
295.002	6.2
295.373	5.97
295.744	5.82
296.115	5.85
296.486	5.81
296.857	5.68
297.228	5.62
297.599	5.57
297.97	5.49
298.34	5.59
298.711	5.73
299.082	5.72
299.452	5.65
299.823	5.69
300.194	5.83
300.564	5.82
300.935	5.71
301.305	5.7
301.676	5.63
302.046	5.51
302.416	5.75
302.787	5.77
303.157	5.9
303.527	6.02
303.897	6.06
304.267	6.12
304.637	6.24
305.008	6.31
305.378	6.32
305.748	6.35
306.117	6.23
306.487	6.12
306.857	6.35
307.227	6.5
307.597	6.48
307.967	6.57
308.336	6.49
308.706	6.59
309.076	6.72
309.445	6.83
309.815	6.8
310.184	6.67
310.554	6.76
310.923	6.73
311.293	6.67
311.662	6.68
312.031	6.79
312.401	6.77
312.77	6.68
313.139	6.78
313.508	6.81
313.877	6.88
314.246	6.88
314.616	6.87
314.985	6.78
315.353	6.77
315.722	6.81
316.091	6.85
316.46	6.93
316.829	6.86
317.198	6.76
317.567	6.97
317.935	6.87
318.304	6.89
318.672	6.92
319.041	6.93
319.41	6.79
319.778	6.69
320.147	6.76
320.515	6.92
320.883	6.85
321.252	6.81
321.62	6.79
321.988	6.76
322.357	6.7
322.725	6.79
323.093	6.78
323.461	6.8
323.829	6.85
324.197	6.8
324.565	6.78
324.933	6.96
325.301	6.67
325.669	6.72
326.037	6.7
326.405	6.68
326.772	6.71
327.14	6.8
327.508	6.73
327.875	6.71
328.243	6.76
328.61	6.72
328.978	6.79
329.346	6.72
329.713	6.89
330.08	6.98
330.448	6.91
330.815	6.96
331.182	6.9
331.55	6.74
331.917	6.69
332.284	6.75
332.651	6.65
333.018	6.73
333.385	6.7
333.752	6.61
334.119	6.68
334.486	6.64
334.853	6.62
335.22	6.56
335.587	6.37
335.954	6.3
336.32	6.24
336.687	6.35
337.054	6.4
337.42	6.18
337.787	6.19
338.153	6.16
338.52	6.19
338.886	6.2
339.253	6.33
339.619	6.5
339.986	6.51
340.352	6.46
340.718	6.49
341.084	6.46
341.451	6.57
341.817	6.57
342.183	6.43
342.549	6.37
342.915	6.44
343.281	6.55
343.647	6.51
344.013	6.56
344.379	6.44
344.745	6.56
345.11	6.62
345.476	6.53
345.842	6.61
346.208	6.6
346.573	6.55
346.939	6.59
347.304	6.46
347.67	6.35
348.035	6.38
348.401	6.29
348.766	6.34
349.132	6.19
349.497	6.14
349.862	6.24
350.228	6.23
350.593	6.22
350.958	6.25
351.323	6.19
351.688	6.35
352.053	6.34
352.418	6.22
352.783	6.29
353.148	6.24
353.513	6.16
353.878	6.08
354.243	6.06
354.608	6.08
354.972	6.11
355.337	6.22
355.702	6.21
356.066	6.31
356.431	6.41
356.795	6.49
357.16	6.5
357.524	6.51
357.889	6.51
358.253	6.48
358.618	6.49
358.982	6.57
359.346	6.5
359.71	6.5
360.075	6.54
360.439	6.59
360.803	6.66
361.167	6.63
361.531	6.64
361.895	6.67
362.259	6.6
362.623	6.57
362.987	6.48
363.351	6.45
363.714	6.41
364.078	6.36
364.442	6.35
364.806	6.35
365.169	6.33
365.533	6.4
365.896	6.41
366.26	6.38
366.623	6.34
366.987	6.35
367.35	6.44
367.714	6.42
368.077	6.37
368.44	6.4
368.803	6.44
369.167	6.45
369.53	6.44
369.893	6.4
370.256	6.31
370.619	6.37
370.982	6.31
371.345	6.32
371.708	6.35
372.071	6.3
372.434	6.3
372.797	6.28
373.159	6.23
373.522	6.19
373.885	6.17
374.247	6.2
374.61	6.14
374.973	6.07
375.335	6.06
375.698	6.11
376.06	6.11
376.423	6.1
376.785	6.14
377.147	6.13
377.51	6.18
377.872	6.21
378.234	6.19
378.596	6.3
378.958	6.29
379.321	6.21
379.683	6.27
380.045	6.24
380.407	6.26
380.769	6.26
381.13	6.29
381.492	6.27
381.854	6.3
382.216	6.33
382.578	6.39
382.939	6.37
383.301	6.33
383.663	6.26
384.024	6.22
384.386	6.14
384.747	6.11
385.109	6.05
385.47	6.08
385.832	6.02
386.193	5.94
386.554	5.87
386.916	5.93
387.277	5.87
387.638	5.85
387.999	5.86
388.36	5.86
388.721	5.91
389.082	5.96
389.443	5.91
389.804	5.88
390.165	5.77
390.526	5.81
390.887	5.75
391.248	5.76
391.609	5.78
391.969	5.76
392.33	5.73
392.691	5.77
393.051	5.78
393.412	5.83
393.772	5.89
394.133	5.91
394.493	5.9
394.854	5.9
395.214	5.93
395.574	5.91
395.935	5.88
396.295	5.87
396.655	5.83
397.015	5.8
397.376	5.78
397.736	5.79
398.096	5.75
398.456	5.8
398.816	5.78
399.176	5.75
399.535	5.79
399.895	5.81
400.255	5.79
400.615	5.78
400.975	5.71
401.334	5.69
401.694	5.72
402.054	5.71
402.413	5.73
402.773	5.66
403.132	5.67
403.492	5.71
403.851	5.68
404.211	5.67
404.57	5.68
404.929	5.69
405.288	5.71
405.648	5.73
406.007	5.7
406.366	5.7
406.725	5.74
407.084	5.72
407.443	5.71
407.802	5.71
408.161	5.71
408.52	5.71
408.879	5.68
409.238	5.67
409.596	5.65
409.955	5.61
410.314	5.62
410.673	5.61
411.031	5.54
411.39	5.52
411.748	5.54
412.107	5.51
412.465	5.53
412.824	5.49
413.182	5.47
413.54	5.48
413.899	5.46
414.257	5.42
414.615	5.41
414.974	5.38
415.332	5.37
415.69	5.37
416.048	5.41
416.406	5.39
416.764	5.37
417.122	5.35
417.48	5.36
417.838	5.33
418.195	5.31
418.553	5.31
418.911	5.31
419.269	5.3
419.626	5.3
419.984	5.28
420.342	5.28
420.699	5.26
421.057	5.26
421.414	5.27
421.772	5.27
422.129	5.25
422.486	5.25
422.844	5.22
423.201	5.2
423.558	5.17
423.915	5.17
424.273	5.16
424.63	5.17
424.987	5.16
425.344	5.17
425.701	5.16
426.058	5.16
426.415	5.16
426.772	5.15
427.128	5.13
427.485	5.14
427.842	5.13
428.199	5.14
428.555	5.12
428.912	5.11
429.269	5.1
429.625	5.09
429.982	5.08
430.338	5.11
430.695	5.09
431.051	5.1
431.407	5.12
431.764	5.12
432.12	5.14
432.476	5.15
432.832	5.18
433.189	5.19
433.545	5.18
433.901	5.18
434.257	5.17
434.613	5.16
434.969	5.14
435.325	5.12
435.681	5.13
436.036	5.14
436.392	5.13
436.748	5.13
437.104	5.14
437.459	5.15
437.815	5.16
438.171	5.17
438.526	5.17
438.882	5.17
439.237	5.15
439.593	5.12
439.948	5.1
440.304	5.07
440.659	5.04
441.014	5.03
441.369	5.02
441.725	5.03
442.08	5.02
442.435	5.03
442.79	5.04
443.145	5.04
443.5	5.02
443.855	4.99
444.21	4.99
444.565	5
444.92	5
445.275	4.99
445.629	4.99
445.984	4.98
446.339	4.97
446.693	4.97
447.048	4.96
447.403	4.96
447.757	4.96
448.112	4.96
448.466	4.96
448.82	4.97
449.175	4.96
449.529	4.97
449.883	4.95
450.238	4.93
450.592	4.93
450.946	4.91
451.3	4.94
451.654	4.92
452.008	4.9
452.362	4.89
452.716	4.88
453.07	4.87
453.424	4.88
453.778	4.88
454.132	4.88
454.486	4.88
454.839	4.89
455.193	4.91
455.547	4.91
455.9	4.91
456.254	4.91
456.607	4.91
456.961	4.93
457.314	4.93
457.668	4.94
458.021	4.94
458.375	4.95
458.728	4.94
459.081	4.96
459.434	4.97
459.787	4.98
460.141	4.99
460.494	4.99
460.847	4.99
461.2	4.98
461.553	4.97
461.906	5
462.259	4.98
462.611	4.99
462.964	5
463.317	5.03
463.67	5.04
464.022	5.04
464.375	5.01
464.728	5.03
465.08	5.02
465.433	5.04
465.785	5.06
466.138	5.06
466.49	5.07
466.843	5.1
467.195	5.11
467.547	5.11
467.899	5.15
468.252	5.16
468.604	5.16
468.956	5.18
469.308	5.19
469.66	5.2
470.012	5.19
470.364	5.2
470.716	5.19
471.068	5.22
471.42	5.25
471.772	5.25
472.123	5.26
472.475	5.28
472.827	5.29
473.178	5.3
473.53	5.28
473.882	5.29
474.233	5.26
474.585	5.24
474.936	5.22
475.288	5.2
475.639	5.2
475.99	5.22
476.342	5.2
476.693	5.21
477.044	5.2
477.395	5.21
477.746	5.18
478.097	5.15
478.448	5.13
478.8	5.14
479.15	5.14
479.501	5.15
479.852	5.13
480.203	5.11
480.554	5.08
480.905	5.09
481.255	5.09
481.606	5.1
481.957	5.12
482.307	5.12
482.658	5.13
483.009	5.12
483.359	5.12
483.709	5.12
484.06	5.12
484.41	5.13
484.761	5.12
485.111	5.13
485.461	5.14
485.811	5.14
486.162	5.13
486.512	5.13
486.862	5.13
487.212	5.15
487.562	5.16
487.912	5.17
488.262	5.18
488.612	5.2
488.961	5.21
489.311	5.2
489.661	5.2
490.011	5.18
490.36	5.2
490.71	5.21
491.06	5.21
491.409	5.21
491.759	5.23
492.108	5.24
492.458	5.26
492.807	5.27
493.157	5.28
493.506	5.3
493.855	5.31
494.204	5.32
494.554	5.34
494.903	5.35
495.252	5.36
495.601	5.36
495.95	5.36
496.299	5.36
496.648	5.38
496.997	5.42
497.346	5.46
497.695	5.48
498.043	5.5
498.392	5.54
498.741	5.56
499.09	5.56
499.438	5.58
499.787	5.58
500.135	5.59
500.484	5.59
500.832	5.63
501.181	5.66
501.529	5.69
501.878	5.7
502.226	5.72
502.574	5.75
502.923	5.77
503.271	5.79
503.619	5.8
503.967	5.82
504.315	5.84
504.663	5.86
505.011	5.87
505.359	5.85
505.707	5.86
506.055	5.88
506.403	5.9
506.751	5.91
507.098	5.93
507.446	5.95
507.794	5.99
508.141	5.99
508.489	6.02
508.837	6
509.184	6.03
509.531	6.03
509.879	6.04
510.226	6.04
510.574	6.05
510.921	6.06
511.268	6.06
511.616	6.05
511.963	6.06
512.31	6.06
512.657	6.08
513.004	6.09
513.351	6.1
513.698	6.11
514.045	6.12
514.392	6.15
514.739	6.15
515.086	6.17
515.432	6.19
515.779	6.2
516.126	6.25
516.473	6.25
516.819	6.27
517.166	6.31
517.512	6.36
517.859	6.4
518.205	6.42
518.552	6.46
518.898	6.48
519.245	6.53
519.591	6.54
519.937	6.56
520.283	6.58
520.629	6.59
520.976	6.61
521.322	6.62
521.668	6.64
522.014	6.67
522.36	6.67
522.706	6.69
523.052	6.7
523.398	6.69
523.743	6.72
524.089	6.76
524.435	6.75
524.781	6.74
525.126	6.74
525.472	6.76
525.817	6.75
526.163	6.76
526.509	6.77
526.854	6.78
527.199	6.79
527.545	6.78
527.89	6.79
528.235	6.8
528.581	6.81
528.926	6.81
529.271	6.81
529.616	6.81
529.961	6.81
530.306	6.83
530.651	6.82
530.996	6.84
531.341	6.84
531.686	6.86
532.031	6.88
532.376	6.88
532.721	6.88
533.065	6.9
533.41	6.91
533.755	6.91
534.099	6.92
534.444	6.94
534.788	6.95
535.133	6.96
535.477	6.97
535.822	6.99
536.166	7.01
536.51	7.03
536.855	7.05
537.199	7.06
537.543	7.07
537.887	7.1
538.231	7.11
538.576	7.11
538.92	7.09
539.264	7.1
539.608	7.11
539.951	7.11
540.295	7.13
540.639	7.12
540.983	7.13
541.327	7.14
541.671	7.13
542.014	7.15
542.358	7.17
542.701	7.19
543.045	7.2
543.389	7.22
543.732	7.21
544.075	7.21
544.419	7.21
544.762	7.2
545.105	7.22
545.449	7.21
545.792	7.22
546.135	7.24
546.478	7.26
546.821	7.27
547.165	7.32
547.508	7.31
547.851	7.33
548.194	7.32
548.536	7.33
548.879	7.35
549.222	7.36
549.565	7.36
549.908	7.35
550.25	7.35
550.593	7.31
550.936	7.35
551.278	7.4
551.621	7.42
551.963	7.44
552.306	7.43
552.648	7.44
552.991	7.46
553.333	7.47
553.675	7.46
554.017	7.46
554.36	7.42
554.702	7.44
555.044	7.44
555.386	7.45
555.728	7.46
556.07	7.47
556.412	7.47
556.754	7.46
557.096	7.43
557.438	7.43
557.78	7.45
558.121	7.46
558.463	7.42
558.805	7.41
559.147	7.44
559.488	7.42
559.83	7.44
560.171	7.44
560.513	7.45
560.854	7.45
561.196	7.45
561.537	7.43
561.878	7.45
562.22	7.5
562.561	7.5
562.902	7.5
563.243	7.49
563.584	7.46
563.925	7.48
564.266	7.5
564.607	7.47
564.948	7.46
565.289	7.43
565.63	7.41
565.971	7.41
566.312	7.36
566.653	7.39
566.993	7.39
567.334	7.37
567.675	7.35
568.015	7.35
568.356	7.37
568.696	7.38
569.037	7.36
569.377	7.34
569.718	7.34
570.058	7.3
570.398	7.32
570.739	7.28
571.079	7.27
571.419	7.24
571.759	7.27
572.099	7.27
572.439	7.3
572.779	7.36
573.119	7.35
573.459	7.37
573.799	7.36
574.139	7.35
574.479	7.36
574.819	7.39
575.158	7.4
575.498	7.41
575.838	7.41
576.177	7.4
576.517	7.4
576.856	7.42
577.196	7.45
577.535	7.44
577.875	7.46
578.214	7.47
578.553	7.53
578.893	7.57
579.232	7.57
579.571	7.57
579.91	7.56
580.25	7.56
580.589	7.61
580.928	7.57
581.267	7.55
581.606	7.58
581.945	7.57
582.283	7.56
582.622	7.53
582.961	7.52
583.3	7.51
583.639	7.51
583.977	7.53
584.316	7.56
584.654	7.55
584.993	7.58
585.332	7.57
585.67	7.53
586.008	7.53
586.347	7.54
586.685	7.48
587.024	7.43
587.362	7.45
587.7	7.41
588.038	7.49
588.376	7.48
588.715	7.47
589.053	7.47
589.391	7.45
589.729	7.51
590.067	7.55
590.404	7.56
590.742	7.59
591.08	7.56
591.418	7.53
591.756	7.59
592.093	7.6
592.431	7.65
592.769	7.72
593.106	7.7
593.444	7.71
593.781	7.74
594.119	7.8
594.456	7.76
594.793	7.76
595.131	7.72
595.468	7.76
595.805	7.78
596.143	7.76
596.48	7.79
596.817	7.74
597.154	7.72
597.491	7.74
597.828	7.72
598.165	7.74
598.502	7.72
598.839	7.75
599.176	7.75
599.512	7.73
599.849	7.67
600.186	7.7
600.523	7.71
600.859	7.71
601.196	7.72
601.532	7.74
601.869	7.77
602.205	7.82
602.542	7.8
602.878	7.8
603.215	7.85
603.551	7.85
603.887	7.89
604.223	7.92
604.56	7.93
604.896	7.96
605.232	7.94
605.568	7.96
605.904	7.91
606.24	7.95
606.576	7.95
606.912	7.98
607.248	8
607.583	8
607.919	8
608.255	8.01
608.591	8.06
608.926	8.06
609.262	8.03
609.597	8.08
609.933	8.05
610.268	8.01
610.604	7.95
610.939	7.95
611.275	7.94
611.61	7.92
611.945	7.91
612.281	7.98
612.616	8
612.951	8.05
613.286	8.03
613.621	8.03
613.956	8.06
614.291	8.05
614.626	8.01
614.961	8.02
615.296	7.99
615.631	7.97
615.966	7.98
616.3	8.03
616.635	8.01
616.97	8.03
617.304	8.08
617.639	8.16
617.973	8.16
618.308	8.14
618.642	8.18
618.977	8.12
619.311	8.1
619.646	8.07
619.98	8.04
620.314	8.01
620.648	8.03
620.983	8.02
621.317	8.02
621.651	8.02
621.985	8.01
622.319	7.98
622.653	8.02
622.987	8.03
623.321	8.03
623.655	8
623.988	8.01
624.322	7.98
624.656	7.96
624.99	7.95
625.323	8
625.657	8
625.99	8.04
626.324	8.05
626.657	8.07
626.991	8.07
627.324	8.06
627.658	8.04
627.991	8.03
628.324	8.01
628.657	8.06
628.991	8.07
629.324	8.13
629.657	8.12
629.99	8.14
630.323	8.15
630.656	8.16
630.989	8.15
631.322	8.21
631.655	8.21
631.987	8.21
632.32	8.2
632.653	8.21
632.986	8.25
633.318	8.22
633.651	8.24
633.984	8.27
634.316	8.3
634.649	8.34
634.981	8.3
635.313	8.32
635.646	8.33
635.978	8.37
636.31	8.39
636.643	8.32
636.975	8.25
637.307	8.25
637.639	8.25
637.971	8.24
638.303	8.2
638.635	8.21
638.967	8.26
639.299	8.22
639.631	8.18
639.963	8.18
640.295	8.28
640.626	8.28
640.958	8.31
641.29	8.31
641.621	8.29
641.953	8.38
642.285	8.34
642.616	8.3
642.948	8.27
643.279	8.2
643.61	8.28
643.942	8.37
644.273	8.43
644.604	8.41
644.936	8.46
645.267	8.43
645.598	8.42
645.929	8.41
646.26	8.45
646.591	8.49
646.922	8.51
647.253	8.44
647.584	8.48
647.915	8.47
648.245	8.47
648.576	8.49
648.907	8.39
649.238	8.49
649.568	8.5
649.899	8.5
650.229	8.63
650.56	8.62
650.89	8.58
651.221	8.51
651.551	8.59
651.882	8.58
652.212	8.58
652.542	8.64
652.872	8.52
653.203	8.52
653.533	8.54
653.863	8.49
654.193	8.52
654.523	8.44
654.853	8.46
655.183	8.49
655.513	8.51
655.843	8.56
656.172	8.56
656.502	8.52
656.832	8.55
657.162	8.42
657.491	8.44
657.821	8.45
658.15	8.51
658.48	8.56
658.809	8.55
659.139	8.57
659.468	8.57
659.798	8.66
660.127	8.68
660.456	8.66
660.785	8.65
661.115	8.64
661.444	8.74
661.773	8.73
662.102	8.71
662.431	8.71
662.76	8.7
663.089	8.73
663.418	8.75
663.747	8.72
664.076	8.78
664.404	8.81
664.733	8.79
665.062	8.7
665.39	8.64
665.719	8.72
666.048	8.7
666.376	8.67
666.705	8.63
667.033	8.6
667.362	8.64
667.69	8.71
668.018	8.69
668.347	8.62
668.675	8.64
669.003	8.68
669.331	8.74
669.659	8.76
669.987	8.79
670.315	8.86
670.643	8.91
670.971	8.99
671.299	8.96
671.627	8.98
671.955	8.99
672.283	9.06
672.61	8.96
672.938	9.02
673.266	9.08
673.593	9.04
673.921	9.07
674.249	9.01
674.576	9.06
674.904	9.01
675.231	9
675.558	8.97
675.886	9.03
676.213	8.97
676.54	9
676.867	8.92
677.195	8.95
677.522	8.96
677.849	8.92
678.176	8.93
678.503	8.92
678.83	8.97
679.157	8.86
679.484	8.87
679.81	8.95
680.137	8.96
680.464	8.97
680.791	9.03
681.117	9.04
681.444	8.99
681.771	9.08
682.097	9.09
682.424	9.06
682.75	9.01
683.077	9.01
683.403	9.08
683.729	9.13
684.056	9.15
684.382	9.19
684.708	9.12
685.034	9.18
685.36	9.2
685.686	9.16
686.012	9.24
686.339	9.3
686.664	9.36
686.99	9.31
687.316	9.44
687.642	9.4
687.968	9.49
688.294	9.47
688.619	9.38
688.945	9.43
689.271	9.48
689.596	9.47
689.922	9.53
690.247	9.43
690.573	9.41
690.898	9.47
691.224	9.37
691.549	9.46
691.874	9.32
692.2	9.33
692.525	9.31
692.85	9.35
693.175	9.27
693.5	9.1
693.825	9.12
694.15	9.08
694.475	9.11
694.8	8.95
695.125	9.01
695.45	9.05
695.775	9.02
696.099	9.14
696.424	9.2
696.749	9.19
697.073	9.16
697.398	9.17
697.723	9.16
698.047	9.15
698.372	9.18
698.696	9.26
699.02	9.26
699.345	9.21
699.669	9.17
699.993	9.23
700.318	9.34
700.642	9.35
700.966	9.33
701.29	9.29
701.614	9.37
701.938	9.39
702.262	9.38
702.586	9.41
702.91	9.36
703.234	9.35
703.557	9.39
703.881	9.52
704.205	9.61
704.529	9.47
704.852	9.48
705.176	9.49
705.499	9.49
705.823	9.52
706.146	9.69
706.47	9.69
706.793	9.72
707.117	9.67
707.44	9.62
707.763	9.65
708.086	9.75
708.409	9.79
708.733	9.66
709.056	9.74
709.379	9.82
709.702	9.8
710.025	9.88
710.348	9.83
710.671	9.86
710.993	9.72
711.316	9.93
711.639	10.06
711.962	10.12
712.284	10.15
712.607	10.15
712.93	10.17
713.252	10.1
713.575	10.08
713.897	10.01
714.22	10.01
714.542	10.15
714.864	10.09
715.187	10.09
715.509	10.26
715.831	10.28
716.153	10.15
716.475	10.16
716.798	10.09
717.12	9.87
717.442	9.82
717.764	9.8
718.085	9.6
718.407	9.58
718.729	9.51
719.051	9.52
719.373	9.55
719.695	9.64
720.016	9.76
720.338	9.84
720.659	9.86
720.981	9.86
721.302	9.79
721.624	9.95
721.945	9.96
722.267	9.91
722.588	9.9
722.909	9.91
723.231	9.85
723.552	9.73
723.873	10.14
724.194	10.06
724.515	10.39
724.836	10.31
725.157	10.33
725.478	10.28
725.799	10.17
726.12	10.14
726.441	10.14
726.762	9.95
727.083	9.94
727.403	10.04
727.724	10.23
728.045	10.14
728.365	9.92
728.686	9.88
729.006	9.94
729.327	9.95
729.647	10.12
729.967	10.14
730.288	10.24
730.608	10.1
730.928	10.17
731.249	9.97
731.569	10.02
731.889	10.02
732.209	10.14
732.529	10.21
732.849	10.23
733.169	10
733.489	10.29
733.809	10.27
734.129	10.08
734.448	10.02
734.768	9.92
735.088	10.06
735.408	10.03
735.727	10.13
736.047	10.19
736.366	10.14
736.686	10.17
737.005	10.16
737.325	10.08
737.644	10.06
737.963	10.14
738.283	10.31
738.602	10.37
738.921	10.44
739.24	10.43
739.56	10.68
739.879	10.75
740.198	10.54
740.517	10.66
740.836	10.95
741.155	11.03
741.473	11.33
741.792	11.27
742.111	11.57
742.43	11.58
742.748	11.66
743.067	11.58
743.386	11.31
743.704	11.45
744.023	11.72
744.341	11.78
744.66	11.83
744.978	11.82
745.297	11.74
745.615	11.69
745.933	11.83
746.252	11.37
746.57	11.66
746.888	11.84
747.206	11.66
747.524	11.47
747.842	11.33
748.16	11.21
748.478	11.15
748.796	11.16
749.114	10.7
749.432	10.8
749.749	10.96
750.067	11.3
750.385	11.23
750.703	11.25
751.02	11.22
751.338	11.05
751.655	11.06
751.973	11.08
752.29	10.81
752.608	10.62
752.925	10.72
753.242	10.56
753.56	10.4
753.877	10.62
754.194	10.71
754.511	10.56
754.828	10.47
755.145	10.91
755.462	10.78
755.779	11.37
756.096	11.56
756.413	11.55
756.73	11.34
757.047	11.78
757.364	11.7
757.68	11.96
757.997	12.1
758.314	12.26
758.63	12.29
758.947	12.52
759.264	12.47
759.58	13
759.896	13.05
760.213	13.3
760.529	12.99
760.846	13.25
761.162	13.43
761.478	13.51
761.794	13.61
762.11	13.61
762.426	13.2
762.743	12.88
763.059	13.05
763.375	13.34
763.69	12.78
764.006	12.74
764.322	12.84
764.638	12.87
764.954	12.74
765.27	12.84
765.585	12.84
765.901	13.03
766.216	12.73
766.532	12.72
766.848	12.62
767.163	12.72
767.478	12.53
767.794	12.64
768.109	12.6
768.424	12.06
768.74	11.93
769.055	12.45
769.37	12.32
769.685	12.38
770	12.31
770.315	12.75
770.63	12.57
770.945	12.17
771.26	12.11
771.575	12.07
771.89	11.66
772.205	11.62
772.52	11.47
772.834	11.52
773.149	11.6
773.464	11.53
773.778	11.65
774.093	11.53
774.407	11.45
774.722	11.67
775.036	11.97
775.351	12.16
775.665	11.71
775.979	12.02
776.293	11.84
776.608	11.87
776.922	11.55
777.236	11.69
777.55	11.84
777.864	12.28
778.178	12.46
778.492	12.88
778.806	13.19
779.12	13.72
779.434	13.87
779.747	14.04
780.061	13.98
780.375	14.17
780.689	14.87
781.002	14.87
781.316	14.96
781.629	15.12
781.943	14.88
782.256	15.12
782.57	15.43
782.883	15.52
783.196	15.58
783.51	15.98
783.823	16.44
784.136	16.44
784.449	16.23
784.762	16.28
785.075	16.07
785.388	15.9
785.701	15.37
786.014	15.15
786.327	14.82
786.64	15.07
786.953	15.23
787.266	14.55
787.578	14.64
787.891	14.62
788.204	14.71
788.516	14.88
788.829	15
789.141	14.74
789.454	14.42
789.766	14.46
790.079	14.14
790.391	13.85
790.703	13.81
791.016	14.32
791.328	14.35
791.64	14.48
791.952	14.41
792.264	14.37
792.576	14.62
792.888	14.98
793.2	14.97
793.512	14.36
793.824	14.62
794.136	14.57
794.448	14.7
794.76	15.07
795.071	14.91
795.383	14.59
795.695	14.59
796.006	15.03
796.318	14.69
796.629	14.95
796.941	15.4
797.252	15.82
797.564	15.39
797.875	15.03
798.186	14.86
798.497	14.77
798.809	14.94
799.12	14.51
799.431	15
799.742	14.77
800.053	15.15
800.364	15.38
800.675	14.95
800.986	14.6
801.297	13.89
801.608	13.79
801.918	13.88
802.229	13.67
802.54	13.1
802.851	13.3
803.161	13
803.472	12.35
803.782	12.04
804.093	12.14
804.403	12.13
804.714	12.59
805.024	12.19
805.334	12.29
805.645	12.74
805.955	11.67
806.265	11.88
806.575	12.21
806.885	11.93
807.195	12.16
807.505	12.59
807.815	13.23
808.125	13.79
808.435	13.49
808.745	13.61
809.055	13.36
809.365	13.6
809.674	13.89
809.984	13.77
810.294	14.34
810.603	13.99
810.913	13.85
811.222	14.05
811.532	14.36
811.841	14.79
812.151	14.53
812.46	14.18
812.769	14.84
813.079	14.54
813.388	14.58
813.697	14.01
814.006	13.64
814.315	13.62
814.624	13.09
814.933	13.86
815.242	13.14
815.551	13.32
815.86	13.38
816.169	12.99
816.478	13.69
816.786	12.96
817.095	13.03
817.404	13.66
817.712	14.11
818.021	14.22
818.33	13.5
818.638	14.39
818.947	15.05
819.255	14.77
819.563	14.45
819.872	14.37
820.18	14.96
820.488	14.8
820.796	14.55
821.105	14.59
821.413	14.5
821.721	14.37
822.029	14.2
822.337	14.26
822.645	14.43
822.953	14.41
823.26	14.6
823.568	14.53
823.876	14.53
824.184	14.35
824.491	14.42
824.799	14.55
825.107	14.43
825.414	14.46
825.722	14.49
826.029	14.71
826.337	14.7
826.644	14.72
826.951	14.8
827.259	14.9
827.566	14.99
827.873	14.91
828.18	15.29
828.488	15.81
828.795	15.72
829.102	15.57
829.409	15.32
829.716	15.17
830.023	15.67
830.329	15.67
830.636	15.43
830.943	15
831.25	15.06
831.557	14.98
831.863	15.1
832.17	14.76
832.476	14.13
832.783	14.17
833.089	13.94
833.396	13.94
833.702	13.45
834.009	13.52
834.315	13.38
834.621	13.64
834.928	13.73
835.234	13.88
835.54	14.3
835.846	14.89
836.152	14.82
836.458	14.35
836.764	14.6
837.07	15.47
837.376	16.2
837.682	16.38
837.988	16.85
838.293	16.53
838.599	17.31
838.905	18.24
839.211	18.51
839.516	19.11
839.822	19.39
840.127	20.04
840.433	20.5
840.738	21.89
841.044	21.4
841.349	21.24
841.654	20.6
841.959	20.87
842.265	20.97
842.57	21.49
842.875	20.81
843.18	21.32
843.485	19.58
843.79	19.1
844.095	18.49
844.4	18.29
844.705	18.99
845.01	18.76
845.315	19.21
845.619	18.65
845.924	17.83
846.229	18.36
846.533	19.74
846.838	19.85
847.142	18.51
847.447	19.52
847.751	19
848.056	19.43
848.36	21.16
848.664	21.18
848.969	20.74
849.273	20.53
849.577	19.23
849.881	18.01
850.185	18.73
850.489	19.44
850.794	19.58
851.097	17.04
851.401	16.82
851.705	16.53
852.009	18.68
852.313	16.9
852.617	16.94
852.92	16.21
853.224	15.66
853.528	14.87
853.831	14.67
854.135	17.48
854.438	17.77
854.742	15
855.045	14.01
855.349	11.65
855.652	14.53
855.955	15.99
856.259	19.41
856.562	19.7
856.865	19.75
857.168	19.59
857.471	22.15
857.774	18.86
858.077	15.56
858.38	15.1
858.683	16.24
858.986	14.53
859.289	15.58
859.592	15.05
859.894	16.14
860.197	15.57
860.5	12.78
860.802	12.95
861.105	13.26
861.407	14.19
861.71	14.59
862.012	12.27
862.315	13.48
862.617	11.19
862.919	11.02
863.222	8.78
863.524	6.42
863.826	5.04
864.128	9.46
864.43	13.8
864.732	10.84
865.034	11.05
865.336	12.43
865.638	11.53
865.94	13.33
866.242	13.68
866.544	15.19
866.846	15.87
867.147	18.69
867.449	20.74
867.751	18.99
868.052	20.92
868.354	23.05
868.655	20.09
868.957	21.09
869.258	20.29
869.56	23.58
869.861	23.25
870.162	24.37
870.463	24.6
870.765	24.23
871.066	26.85
871.367	27.29
871.668	25.18
871.969	24.44
872.27	22.52
872.571	21.17
872.872	21.33
873.173	19.9
873.473	17.22
873.774	15.52
874.075	17.07
874.376	17.81
874.676	20.34
874.977	21.81
875.277	21.31
875.578	21.68
875.878	20.22
876.179	21.76
876.479	21
876.78	19.07
877.08	17.66
877.38	16.68
877.68	17.06
877.981	20.57
878.281	21.9
878.581	23.18
