Data from BA55658_Reflection_00001.txt Node
Date: Tue Nov 19 11:55:26 EST 2019
User: vgr7
Spectrometer: USB2G7710
Scans to average: 3
Trigger mode: 4
Integration Time (sec): 2.000000E-2
Electric dark correction enabled: true
Boxcar width: 10
XAxis mode: Wavelengths
Number of Pixels in Spectrum: 2048
>>>>>Begin Spectral Data<<<<<
177.721	-26.3
178.105	-23.91
178.488	-23.45
178.871	-53.85
179.254	-87.32
179.636	-68.03
180.019	-643.24
180.402	228.57
180.785	-914.29
181.168	-746.15
181.55	159.59
181.933	92.99
182.316	25.56
182.698	10.6
183.081	36.06
183.463	30.71
183.846	27.01
184.228	45.3
184.611	45.73
184.993	50.44
185.376	71.27
185.758	86.71
186.14	78.8
186.522	90.6
186.904	104.66
187.287	120.05
187.669	185.05
188.051	186.53
188.433	218.56
188.815	180.65
189.197	197.1
189.579	267.89
189.961	362.39
190.342	796.93
190.724	808.43
191.106	-7643.9
191.488	1787.85
191.869	-2151.68
192.251	-616.32
192.633	-540.04
193.014	-1314.16
193.396	-1404.93
193.777	-603.39
194.159	-1051.25
194.54	-683.29
194.922	-440.07
195.303	-493.2
195.684	1316.58
196.065	1356.48
196.447	435.38
196.828	1192.42
197.209	494.84
197.59	554.26
197.971	711.72
198.352	604.38
198.733	472.37
199.114	376.43
199.495	586.46
199.876	653.12
200.257	505.22
200.638	543.94
201.018	1555.8
201.399	7221.62
201.78	796.37
202.16	2988.24
202.541	2863.74
202.922	515.85
203.302	524.95
203.683	-2484.21
204.063	-1308.11
204.444	-387.69
204.824	-350.32
205.204	-205.53
205.585	-260.55
205.965	-453.05
206.345	-411.39
206.725	-263.05
207.106	-192.87
207.486	-230.34
207.866	-222.85
208.246	-160.78
208.626	-183.32
209.006	-210.78
209.386	-238.37
209.766	-178.34
210.145	-93.21
210.525	-81.78
210.905	-56.66
211.285	-45.77
211.664	-31.64
212.044	-28.47
212.424	-3.11
212.803	-15.73
213.183	-34.46
213.562	-31.23
213.942	-32.54
214.321	-42.68
214.701	-64.74
215.08	-72.87
215.459	-64.7
215.838	-83.18
216.218	-188.12
216.597	-87.93
216.976	-112.1
217.355	-89.66
217.734	-172.79
218.113	-186.02
218.492	-181.74
218.871	-187.4
219.25	-381.07
219.629	608.3
220.008	390.28
220.387	607.55
220.766	-1997.4
221.144	2009.84
221.523	392.28
221.902	373.64
222.28	-26200
222.659	-281.02
223.037	-231.28
223.416	-282.47
223.794	-196.69
224.173	-117.98
224.551	-93.43
224.929	-121.06
225.308	-99.81
225.686	-84.29
226.064	-105.72
226.442	-85.1
226.821	-80.76
227.199	-59.22
227.577	-51.39
227.955	-39.15
228.333	-38.3
228.711	-31.63
229.089	-32.52
229.467	-30.48
229.845	-25.18
230.222	-17.85
230.6	-13.87
230.978	-9.58
231.356	-8.76
231.733	-7.52
232.111	-10.42
232.488	-14.9
232.866	-9.33
233.243	-8.05
233.621	-4.8
233.998	-0.91
234.376	-1.49
234.753	0.32
235.13	0.56
235.508	1.03
235.885	0.9
236.262	0.37
236.639	-1.58
237.016	-2.4
237.393	-0.8
237.77	-0.27
238.147	-1.04
238.524	-2.8
238.901	-2.18
239.278	-1.75
239.655	-0.9
240.032	0.03
240.409	1.26
240.785	0.58
241.162	1
241.539	0.55
241.915	0.88
242.292	0.93
242.668	1.17
243.045	1.57
243.421	1.42
243.798	1.96
244.174	2.18
244.551	3
244.927	2.96
245.303	2.85
245.679	2.46
246.056	2.5
246.432	2.95
246.808	2.89
247.184	3.03
247.56	2.73
247.936	3.02
248.312	2.87
248.688	3.01
249.064	3.15
249.44	3.43
249.815	3.23
250.191	3.28
250.567	3.08
250.943	2.89
251.318	3
251.694	2.48
252.069	2.36
252.445	2.01
252.82	2.25
253.196	2.36
253.571	2.61
253.947	2.4
254.322	2.16
254.697	2.02
255.073	1.61
255.448	1.78
255.823	1.39
256.198	1.21
256.573	1.27
256.948	1.43
257.323	1.35
257.698	1.27
258.073	1.24
258.448	1.46
258.823	1.44
259.198	1.68
259.573	1.6
259.948	1.49
260.322	1.43
260.697	1.47
261.072	1.54
261.446	1.54
261.821	1.53
262.195	1.62
262.57	1.73
262.944	1.78
263.319	1.76
263.693	1.95
264.067	2.09
264.442	2.06
264.816	1.91
265.19	1.8
265.564	1.91
265.938	2.01
266.313	1.85
266.687	1.72
267.061	1.62
267.435	1.86
267.809	1.92
268.183	2.01
268.556	1.97
268.93	2.01
269.304	2
269.678	2.24
270.051	2.41
270.425	2.29
270.799	2.26
271.172	2.35
271.546	2.43
271.919	2.39
272.293	2.61
272.666	2.61
273.04	2.71
273.413	2.49
273.787	2.43
274.16	2.33
274.533	2.71
274.906	2.68
275.279	2.59
275.653	2.75
276.026	2.72
276.399	2.73
276.772	2.63
277.145	2.62
277.518	2.48
277.891	2.14
278.263	2.23
278.636	2.43
279.009	2.38
279.382	2.23
279.755	2.22
280.127	2.07
280.5	1.86
280.872	2.05
281.245	2.15
281.617	2.31
281.99	2.4
282.362	2.2
282.735	2.09
283.107	2.35
283.479	2.23
283.852	2.27
284.224	2.36
284.596	2.14
284.968	2.1
285.34	2.11
285.713	2.18
286.085	2.08
286.457	2.05
286.829	1.99
287.201	1.96
287.572	1.96
287.944	1.97
288.316	2.17
288.688	2.1
289.06	2.18
289.431	2.29
289.803	2.38
290.175	2.31
290.546	2.42
290.918	2.12
291.289	2.11
291.661	2.21
292.032	2.11
292.403	2.3
292.775	2.53
293.146	2.6
293.517	2.53
293.889	2.61
294.26	2.45
294.631	2.67
295.002	2.78
295.373	2.74
295.744	2.73
296.115	2.76
296.486	2.7
296.857	2.74
297.228	2.61
297.599	2.5
297.97	2.6
298.34	2.63
298.711	2.87
299.082	2.9
299.452	2.81
299.823	2.8
300.194	2.9
300.564	2.7
300.935	2.65
301.305	2.83
301.676	2.85
302.046	2.98
302.416	2.92
302.787	2.85
303.157	2.9
303.527	3.17
303.897	3.19
304.267	3.16
304.637	3.06
305.008	3.08
305.378	3.24
305.748	3.14
306.117	3.09
306.487	2.96
306.857	3.1
307.227	3.16
307.597	3.2
307.967	3.09
308.336	3.1
308.706	3.18
309.076	3.28
309.445	3.37
309.815	3.38
310.184	3.16
310.554	3.24
310.923	3.19
311.293	2.97
311.662	2.85
312.031	2.87
312.401	2.97
312.77	2.88
313.139	2.92
313.508	2.77
313.877	2.67
314.246	2.68
314.616	2.75
314.985	2.66
315.353	2.59
315.722	2.67
316.091	2.76
316.46	2.67
316.829	2.54
317.198	2.45
317.567	2.5
317.935	2.55
318.304	2.7
318.672	2.74
319.041	2.94
319.41	3.15
319.778	3.04
320.147	2.98
320.515	3.14
320.883	2.9
321.252	3.07
321.62	3.2
321.988	3.31
322.357	3.13
322.725	3.17
323.093	3.25
323.461	3.24
323.829	3.28
324.197	3.34
324.565	3.26
324.933	3.29
325.301	3.11
325.669	3.08
326.037	3.05
326.405	3.2
326.772	3.06
327.14	2.94
327.508	3.04
327.875	3.05
328.243	2.88
328.61	2.94
328.978	3.01
329.346	2.9
329.713	2.96
330.08	3.16
330.448	3.17
330.815	3.09
331.182	3.1
331.55	3.08
331.917	3.02
332.284	3.19
332.651	3.23
333.018	3.31
333.385	3.47
333.752	3.25
334.119	3.24
334.486	3.12
334.853	3.14
335.22	3.17
335.587	3.24
335.954	3.23
336.32	3.27
336.687	3.42
337.054	3.51
337.42	3.41
337.787	3.37
338.153	3.5
338.52	3.56
338.886	3.52
339.253	3.45
339.619	3.54
339.986	3.5
340.352	3.63
340.718	3.75
341.084	3.71
341.451	3.86
341.817	3.81
342.183	3.87
342.549	3.87
342.915	3.84
343.281	3.84
343.647	3.87
344.013	3.83
344.379	3.75
344.745	3.88
345.11	3.86
345.476	3.83
345.842	3.76
346.208	3.93
346.573	3.91
346.939	3.98
347.304	3.92
347.67	3.82
348.035	3.62
348.401	3.6
348.766	3.64
349.132	3.54
349.497	3.57
349.862	3.67
350.228	3.66
350.593	3.71
350.958	3.78
351.323	3.88
351.688	3.96
352.053	3.87
352.418	3.73
352.783	3.77
353.148	3.71
353.513	3.66
353.878	3.45
354.243	3.51
354.608	3.57
354.972	3.65
355.337	3.64
355.702	3.73
356.066	3.72
356.431	3.69
356.795	3.69
357.16	3.67
357.524	3.6
357.889	3.63
358.253	3.65
358.618	3.61
358.982	3.53
359.346	3.49
359.71	3.58
360.075	3.61
360.439	3.57
360.803	3.62
361.167	3.54
361.531	3.55
361.895	3.47
362.259	3.38
362.623	3.33
362.987	3.36
363.351	3.27
363.714	3.29
364.078	3.26
364.442	3.28
364.806	3.28
365.169	3.32
365.533	3.38
365.896	3.37
366.26	3.31
366.623	3.32
366.987	3.4
367.35	3.36
367.714	3.39
368.077	3.47
368.44	3.38
368.803	3.48
369.167	3.54
369.53	3.63
369.893	3.63
370.256	3.59
370.619	3.55
370.982	3.62
371.345	3.59
371.708	3.6
372.071	3.55
372.434	3.54
372.797	3.56
373.159	3.45
373.522	3.49
373.885	3.55
374.247	3.51
374.61	3.5
374.973	3.48
375.335	3.45
375.698	3.4
376.06	3.5
376.423	3.48
376.785	3.51
377.147	3.49
377.51	3.56
377.872	3.57
378.234	3.61
378.596	3.57
378.958	3.66
379.321	3.6
379.683	3.62
380.045	3.62
380.407	3.53
380.769	3.53
381.13	3.41
381.492	3.43
381.854	3.49
382.216	3.5
382.578	3.53
382.939	3.5
383.301	3.53
383.663	3.41
384.024	3.39
384.386	3.32
384.747	3.33
385.109	3.32
385.47	3.39
385.832	3.38
386.193	3.41
386.554	3.37
386.916	3.42
387.277	3.42
387.638	3.42
387.999	3.46
388.36	3.47
388.721	3.49
389.082	3.44
389.443	3.4
389.804	3.39
390.165	3.36
390.526	3.37
390.887	3.36
391.248	3.45
391.609	3.53
391.969	3.58
392.33	3.59
392.691	3.54
393.051	3.51
393.412	3.5
393.772	3.49
394.133	3.45
394.493	3.43
394.854	3.45
395.214	3.4
395.574	3.38
395.935	3.37
396.295	3.41
396.655	3.43
397.015	3.49
397.376	3.51
397.736	3.53
398.096	3.52
398.456	3.51
398.816	3.45
399.176	3.37
399.535	3.34
399.895	3.34
400.255	3.38
400.615	3.35
400.975	3.36
401.334	3.38
401.694	3.41
402.054	3.44
402.413	3.46
402.773	3.49
403.132	3.5
403.492	3.52
403.851	3.5
404.211	3.51
404.57	3.49
404.929	3.42
405.288	3.46
405.648	3.49
406.007	3.47
406.366	3.46
406.725	3.51
407.084	3.53
407.443	3.51
407.802	3.51
408.161	3.53
408.52	3.53
408.879	3.55
409.238	3.56
409.596	3.52
409.955	3.49
410.314	3.5
410.673	3.51
411.031	3.49
411.39	3.52
411.748	3.53
412.107	3.52
412.465	3.57
412.824	3.54
413.182	3.53
413.54	3.54
413.899	3.55
414.257	3.53
414.615	3.52
414.974	3.53
415.332	3.5
415.69	3.49
416.048	3.5
416.406	3.46
416.764	3.44
417.122	3.47
417.48	3.46
417.838	3.44
418.195	3.42
418.553	3.41
418.911	3.39
419.269	3.36
419.626	3.37
419.984	3.36
420.342	3.37
420.699	3.37
421.057	3.38
421.414	3.41
421.772	3.43
422.129	3.42
422.486	3.43
422.844	3.44
423.201	3.45
423.558	3.44
423.915	3.45
424.273	3.47
424.63	3.45
424.987	3.47
425.344	3.49
425.701	3.51
426.058	3.53
426.415	3.53
426.772	3.53
427.128	3.54
427.485	3.52
427.842	3.51
428.199	3.51
428.555	3.51
428.912	3.48
429.269	3.45
429.625	3.45
429.982	3.42
430.338	3.41
430.695	3.39
431.051	3.38
431.407	3.37
431.764	3.34
432.12	3.36
432.476	3.37
432.832	3.37
433.189	3.36
433.545	3.35
433.901	3.35
434.257	3.37
434.613	3.37
434.969	3.37
435.325	3.36
435.681	3.35
436.036	3.35
436.392	3.34
436.748	3.36
437.104	3.36
437.459	3.37
437.815	3.37
438.171	3.4
438.526	3.4
438.882	3.4
439.237	3.41
439.593	3.4
439.948	3.38
440.304	3.38
440.659	3.38
441.014	3.38
441.369	3.38
441.725	3.38
442.08	3.36
442.435	3.38
442.79	3.4
443.145	3.41
443.5	3.4
443.855	3.41
444.21	3.41
444.565	3.43
444.92	3.44
445.275	3.44
445.629	3.4
445.984	3.42
446.339	3.43
446.693	3.43
447.048	3.43
447.403	3.43
447.757	3.42
448.112	3.42
448.466	3.43
448.82	3.44
449.175	3.45
449.529	3.46
449.883	3.46
450.238	3.46
450.592	3.45
450.946	3.44
451.3	3.46
451.654	3.45
452.008	3.43
452.362	3.41
452.716	3.43
453.07	3.44
453.424	3.42
453.778	3.41
454.132	3.42
454.486	3.41
454.839	3.4
455.193	3.42
455.547	3.43
455.9	3.44
456.254	3.45
456.607	3.44
456.961	3.43
457.314	3.43
457.668	3.44
458.021	3.43
458.375	3.43
458.728	3.44
459.081	3.45
459.434	3.46
459.787	3.46
460.141	3.45
460.494	3.48
460.847	3.49
461.2	3.5
461.553	3.51
461.906	3.52
462.259	3.53
462.611	3.53
462.964	3.53
463.317	3.54
463.67	3.53
464.022	3.54
464.375	3.54
464.728	3.52
465.08	3.52
465.433	3.54
465.785	3.56
466.138	3.56
466.49	3.55
466.843	3.55
467.195	3.56
467.547	3.56
467.899	3.56
468.252	3.55
468.604	3.55
468.956	3.55
469.308	3.54
469.66	3.54
470.012	3.53
470.364	3.52
470.716	3.52
471.068	3.52
471.42	3.55
471.772	3.57
472.123	3.61
472.475	3.61
472.827	3.63
473.178	3.62
473.53	3.6
473.882	3.6
474.233	3.6
474.585	3.58
474.936	3.59
475.288	3.58
475.639	3.59
475.99	3.58
476.342	3.57
476.693	3.59
477.044	3.59
477.395	3.6
477.746	3.59
478.097	3.6
478.448	3.59
478.8	3.57
479.15	3.55
479.501	3.51
479.852	3.51
480.203	3.52
480.554	3.54
480.905	3.55
481.255	3.57
481.606	3.58
481.957	3.59
482.307	3.6
482.658	3.6
483.009	3.6
483.359	3.6
483.709	3.6
484.06	3.6
484.41	3.61
484.761	3.63
485.111	3.64
485.461	3.64
485.811	3.64
486.162	3.65
486.512	3.66
486.862	3.68
487.212	3.69
487.562	3.68
487.912	3.67
488.262	3.68
488.612	3.67
488.961	3.68
489.311	3.68
489.661	3.68
490.011	3.69
490.36	3.7
490.71	3.7
491.06	3.71
491.409	3.73
491.759	3.72
492.108	3.71
492.458	3.71
492.807	3.71
493.157	3.7
493.506	3.71
493.855	3.7
494.204	3.7
494.554	3.7
494.903	3.69
495.252	3.7
495.601	3.72
495.95	3.71
496.299	3.71
496.648	3.73
496.997	3.75
497.346	3.77
497.695	3.77
498.043	3.78
498.392	3.79
498.741	3.79
499.09	3.81
499.438	3.82
499.787	3.82
500.135	3.82
500.484	3.84
500.832	3.84
501.181	3.84
501.529	3.87
501.878	3.87
502.226	3.92
502.574	3.91
502.923	3.89
503.271	3.9
503.619	3.93
503.967	3.89
504.315	3.88
504.663	3.87
505.011	3.86
505.359	3.84
505.707	3.84
506.055	3.86
506.403	3.88
506.751	3.87
507.098	3.91
507.446	3.92
507.794	3.94
508.141	3.95
508.489	3.97
508.837	3.98
509.184	3.99
509.531	3.96
509.879	3.96
510.226	3.96
510.574	3.96
510.921	3.94
511.268	3.98
511.616	3.98
511.963	3.99
512.31	4
512.657	4.02
513.004	4.03
513.351	4.02
513.698	4.01
514.045	4.01
514.392	4.01
514.739	4
515.086	4
515.432	4
515.779	4
516.126	4.02
516.473	4.02
516.819	4.04
517.166	4.06
517.512	4.06
517.859	4.09
518.205	4.09
518.552	4.08
518.898	4.08
519.245	4.08
519.591	4.09
519.937	4.09
520.283	4.09
520.629	4.09
520.976	4.08
521.322	4.09
521.668	4.06
522.014	4.08
522.36	4.09
522.706	4.11
523.052	4.13
523.398	4.12
523.743	4.11
524.089	4.11
524.435	4.11
524.781	4.13
525.126	4.14
525.472	4.16
525.817	4.17
526.163	4.17
526.509	4.18
526.854	4.19
527.199	4.2
527.545	4.2
527.89	4.2
528.235	4.22
528.581	4.23
528.926	4.24
529.271	4.23
529.616	4.22
529.961	4.22
530.306	4.2
530.651	4.2
530.996	4.21
531.341	4.23
531.686	4.24
532.031	4.24
532.376	4.22
532.721	4.2
533.065	4.21
533.41	4.23
533.755	4.22
534.099	4.2
534.444	4.2
534.788	4.2
535.133	4.19
535.477	4.19
535.822	4.2
536.166	4.21
536.51	4.22
536.855	4.25
537.199	4.24
537.543	4.25
537.887	4.25
538.231	4.26
538.576	4.27
538.92	4.29
539.264	4.28
539.608	4.29
539.951	4.3
540.295	4.31
540.639	4.3
540.983	4.31
541.327	4.32
541.671	4.32
542.014	4.34
542.358	4.35
542.701	4.34
543.045	4.33
543.389	4.32
543.732	4.3
544.075	4.29
544.419	4.29
544.762	4.3
545.105	4.31
545.449	4.3
545.792	4.28
546.135	4.25
546.478	4.24
546.821	4.26
547.165	4.27
547.508	4.26
547.851	4.25
548.194	4.24
548.536	4.24
548.879	4.21
549.222	4.22
549.565	4.24
549.908	4.24
550.25	4.24
550.593	4.24
550.936	4.27
551.278	4.28
551.621	4.3
551.963	4.33
552.306	4.32
552.648	4.3
552.991	4.3
553.333	4.31
553.675	4.36
554.017	4.36
554.36	4.36
554.702	4.36
555.044	4.4
555.386	4.4
555.728	4.41
556.07	4.41
556.412	4.42
556.754	4.4
557.096	4.41
557.438	4.41
557.78	4.44
558.121	4.42
558.463	4.44
558.805	4.45
559.147	4.45
559.488	4.44
559.83	4.47
560.171	4.47
560.513	4.48
560.854	4.46
561.196	4.46
561.537	4.43
561.878	4.44
562.22	4.44
562.561	4.48
562.902	4.48
563.243	4.51
563.584	4.48
563.925	4.51
564.266	4.51
564.607	4.53
564.948	4.5
565.289	4.5
565.63	4.49
565.971	4.5
566.312	4.46
566.653	4.47
566.993	4.48
567.334	4.51
567.675	4.51
568.015	4.5
568.356	4.46
568.696	4.49
569.037	4.47
569.377	4.46
569.718	4.45
570.058	4.46
570.398	4.45
570.739	4.48
571.079	4.45
571.419	4.45
571.759	4.45
572.099	4.46
572.439	4.46
572.779	4.47
573.119	4.48
573.459	4.5
573.799	4.5
574.139	4.52
574.479	4.52
574.819	4.54
575.158	4.54
575.498	4.62
575.838	4.6
576.177	4.6
576.517	4.59
576.856	4.57
577.196	4.57
577.535	4.58
577.875	4.55
578.214	4.52
578.553	4.5
578.893	4.49
579.232	4.5
579.571	4.54
579.91	4.5
580.25	4.47
580.589	4.45
580.928	4.44
581.267	4.41
581.606	4.39
581.945	4.33
582.283	4.33
582.622	4.29
582.961	4.3
583.3	4.31
583.639	4.37
583.977	4.38
584.316	4.42
584.654	4.43
584.993	4.44
585.332	4.47
585.67	4.48
586.008	4.46
586.347	4.45
586.685	4.38
587.024	4.41
587.362	4.43
587.7	4.46
588.038	4.48
588.376	4.5
588.715	4.5
589.053	4.52
589.391	4.58
589.729	4.59
590.067	4.59
590.404	4.63
590.742	4.61
591.08	4.65
591.418	4.61
591.756	4.59
592.093	4.65
592.431	4.66
592.769	4.66
593.106	4.69
593.444	4.73
593.781	4.81
594.119	4.8
594.456	4.78
594.793	4.79
595.131	4.8
595.468	4.8
595.805	4.8
596.143	4.8
596.48	4.79
596.817	4.8
597.154	4.8
597.491	4.79
597.828	4.75
598.165	4.71
598.502	4.72
598.839	4.72
599.176	4.67
599.512	4.65
599.849	4.71
600.186	4.7
600.523	4.67
600.859	4.68
601.196	4.69
601.532	4.68
601.869	4.67
602.205	4.66
602.542	4.66
602.878	4.7
603.215	4.74
603.551	4.74
603.887	4.7
604.223	4.72
604.56	4.71
604.896	4.77
605.232	4.75
605.568	4.78
605.904	4.8
606.24	4.86
606.576	4.88
606.912	4.84
607.248	4.9
607.583	4.95
607.919	4.89
608.255	4.9
608.591	4.94
608.926	4.96
609.262	4.98
609.597	4.96
609.933	4.91
610.268	4.92
610.604	4.9
610.939	4.96
611.275	4.97
611.61	4.97
611.945	4.92
612.281	5
612.616	5.02
612.951	5.06
613.286	5.08
613.621	5.1
613.956	5.09
614.291	5.03
614.626	5
614.961	5.08
615.296	5.1
615.631	5.05
615.966	4.99
616.3	4.96
616.635	4.95
616.97	5.02
617.304	4.98
617.639	5.01
617.973	4.96
618.308	4.98
618.642	4.99
618.977	5.02
619.311	5
619.646	4.97
619.98	4.91
620.314	4.87
620.648	4.88
620.983	4.89
621.317	4.91
621.651	4.93
621.985	4.93
622.319	4.88
622.653	4.89
622.987	4.94
623.321	4.98
623.655	5
623.988	5.04
624.322	5.04
624.656	5.04
624.99	5.06
625.323	5.04
625.657	5.05
625.99	5.05
626.324	5.02
626.657	5
626.991	5.01
627.324	4.96
627.658	4.92
627.991	4.98
628.324	4.95
628.657	4.91
628.991	4.91
629.324	4.92
629.657	4.92
629.99	4.89
630.323	4.89
630.656	4.9
630.989	4.85
631.322	4.86
631.655	4.84
631.987	4.82
632.32	4.81
632.653	4.84
632.986	4.87
633.318	4.89
633.651	4.91
633.984	4.94
634.316	5.02
634.649	5.02
634.981	4.94
635.313	4.99
635.646	5.06
635.978	4.99
636.31	5.02
636.643	5.04
636.975	5.06
637.307	5.1
637.639	5.12
637.971	5.1
638.303	5.04
638.635	5.06
638.967	5.03
639.299	5.05
639.631	5.02
639.963	4.99
640.295	5.03
640.626	5.02
640.958	4.91
641.29	4.86
641.621	4.9
641.953	4.91
642.285	4.91
642.616	4.86
642.948	4.94
643.279	4.89
643.61	4.89
643.942	4.89
644.273	4.83
644.604	4.8
644.936	4.82
645.267	4.9
645.598	4.91
645.929	4.96
646.26	4.92
646.591	5
646.922	5.08
647.253	4.96
647.584	4.92
647.915	4.98
648.245	5.01
648.576	5.01
648.907	5.04
649.238	5.02
649.568	4.99
649.899	4.93
650.229	5.01
650.56	5
650.89	5.06
651.221	5.05
651.551	5.08
651.882	5.05
652.212	5.03
652.542	5.11
652.872	5.04
653.203	5.13
653.533	5.08
653.863	5.04
654.193	5.06
654.523	5.06
654.853	5.12
655.183	5.2
655.513	5.21
655.843	5.18
656.172	5.23
656.502	5.26
656.832	5.3
657.162	5.16
657.491	5.18
657.821	5.12
658.15	5.14
658.48	5.16
658.809	5.19
659.139	5.16
659.468	5.11
659.798	5.17
660.127	5.17
660.456	5.13
660.785	5.15
661.115	5.16
661.444	5.28
661.773	5.28
662.102	5.18
662.431	5.2
662.76	5.18
663.089	5.16
663.418	5.15
663.747	5.12
664.076	5.22
664.404	5.26
664.733	5.33
665.062	5.36
665.39	5.35
665.719	5.35
666.048	5.38
666.376	5.35
666.705	5.32
667.033	5.28
667.362	5.21
667.69	5.16
668.018	5.27
668.347	5.26
668.675	5.2
669.003	5.25
669.331	5.28
669.659	5.31
669.987	5.34
670.315	5.27
670.643	5.25
670.971	5.21
671.299	5.15
671.627	5.12
671.955	5.08
672.283	5.06
672.61	5.04
672.938	5.05
673.266	5.06
673.593	5.08
673.921	5.14
674.249	5.24
674.576	5.35
674.904	5.3
675.231	5.32
675.558	5.41
675.886	5.38
676.213	5.32
676.54	5.36
676.867	5.4
677.195	5.48
677.522	5.59
677.849	5.63
678.176	5.68
678.503	5.64
678.83	5.62
679.157	5.62
679.484	5.67
679.81	5.76
680.137	5.86
680.464	5.84
680.791	5.82
681.117	5.85
681.444	5.78
681.771	5.8
682.097	5.74
682.424	5.69
682.75	5.7
683.077	5.77
683.403	5.78
683.729	5.69
684.056	5.74
684.382	5.77
684.708	5.76
685.034	5.72
685.36	5.75
685.686	5.81
686.012	5.81
686.339	5.78
686.664	5.68
686.99	5.54
687.316	5.51
687.642	5.42
687.968	5.34
688.294	5.37
688.619	5.39
688.945	5.37
689.271	5.31
689.596	5.31
689.922	5.2
690.247	5.26
690.573	5.43
690.898	5.36
691.224	5.28
691.549	5.39
691.874	5.43
692.2	5.45
692.525	5.48
692.85	5.53
693.175	5.72
693.5	5.67
693.825	5.76
694.15	5.81
694.475	5.86
694.8	5.92
695.125	6.01
695.45	5.95
695.775	5.98
696.099	6.1
696.424	6.08
696.749	6.19
697.073	6.16
697.398	6.1
697.723	6.17
698.047	6.17
698.372	6.11
698.696	6.06
699.02	6.05
699.345	6.01
699.669	6
699.993	5.9
700.318	5.97
700.642	6.01
700.966	6.01
701.29	6.02
701.614	6.02
701.938	5.92
702.262	5.87
702.586	5.82
702.91	5.77
703.234	5.79
703.557	5.74
703.881	5.7
704.205	5.49
704.529	5.42
704.852	5.26
705.176	5.2
705.499	5.19
705.823	5.24
706.146	5.23
706.47	5.19
706.793	5.19
707.117	5.26
707.44	5.12
707.763	5.06
708.086	5.2
708.409	5.05
708.733	5.13
709.056	5.19
709.379	5.27
709.702	5.27
710.025	5.3
710.348	5.34
710.671	5.47
710.993	5.55
711.316	5.72
711.639	6.02
711.962	6.11
712.284	6.27
712.607	6.36
712.93	6.42
713.252	6.43
713.575	6.41
713.897	6.4
714.22	6.46
714.542	6.6
714.864	6.4
715.187	6.45
715.509	6.35
715.831	6.41
716.153	6.42
716.475	6.5
716.798	6.39
717.12	6.29
717.442	6
717.764	6.04
718.085	5.77
718.407	5.53
718.729	5.47
719.051	5.51
719.373	5.44
719.695	5.4
720.016	5.28
720.338	5.19
720.659	5.23
720.981	5.02
721.302	5.1
721.624	5.17
721.945	5.31
722.267	5.4
722.588	5.16
722.909	5.07
723.231	4.83
723.552	4.87
723.873	4.91
724.194	5.02
724.515	5.06
724.836	5.17
725.157	5.24
725.478	5.34
725.799	5.12
726.12	4.99
726.441	4.9
726.762	4.93
727.083	5.1
727.403	5.1
727.724	5.27
728.045	5.05
728.365	4.98
728.686	4.76
729.006	4.79
729.327	4.94
729.647	4.98
729.967	5.11
730.288	5.25
730.608	5.31
730.928	5.46
731.249	5.53
731.569	5.66
731.889	5.77
732.209	5.77
732.529	6.02
732.849	6.03
733.169	6.18
733.489	6.21
733.809	6.12
734.129	6.14
734.448	6.18
734.768	6.15
735.088	6.42
735.408	6.73
735.727	6.68
736.047	6.91
736.366	7
736.686	6.9
737.005	6.88
737.325	6.95
737.644	6.77
737.963	6.94
738.283	6.85
738.602	6.87
738.921	6.88
739.24	6.57
739.56	6.74
739.879	6.59
740.198	6.58
740.517	6.67
740.836	6.54
741.155	6.71
741.473	6.91
741.792	6.89
742.111	6.84
742.43	6.99
742.748	6.83
743.067	6.62
743.386	6.56
743.704	6.74
744.023	6.49
744.341	6.59
744.66	6.36
744.978	6.5
745.297	6.5
745.615	6.35
745.933	6.38
746.252	6.38
746.57	6.6
746.888	6.88
747.206	6.84
747.524	6.86
747.842	6.42
748.16	6.66
748.478	6.34
748.796	6.44
749.114	6.44
749.432	6.33
749.749	6.45
750.067	6.62
750.385	6.62
750.703	6.68
751.02	6.57
751.338	6.29
751.655	6.13
751.973	6.26
752.29	6.23
752.608	6.29
752.925	6.25
753.242	6.2
753.56	6.12
753.877	6.13
754.194	6.2
754.511	6.58
754.828	6.26
755.145	6.58
755.462	6.53
755.779	6.43
756.096	6.74
756.413	6.74
756.73	6.71
757.047	6.54
757.364	6.96
757.68	7.1
757.997	7.68
758.314	7.77
758.63	7.44
758.947	7.57
759.264	7.71
759.58	7.76
759.896	7.54
760.213	7.59
760.529	7.64
760.846	7.73
761.162	7.58
761.478	7.35
761.794	7.22
762.11	7.17
762.426	7.17
762.743	6.97
763.059	7.04
763.375	7.04
763.69	7.12
764.006	7.03
764.322	7.16
764.638	7.14
764.954	7.28
765.27	7.5
765.585	7.43
765.901	7.43
766.216	7.37
766.532	7.4
766.848	7.34
767.163	7.21
767.478	7.07
767.794	7.03
768.109	7.69
768.424	7.76
768.74	7.31
769.055	7.6
769.37	7.61
769.685	7.48
770	7.72
770.315	7.69
770.63	7.61
770.945	7.46
771.26	7.07
771.575	6.83
771.89	6.48
772.205	6.56
772.52	6.56
772.834	6.64
773.149	6.78
773.464	6.37
773.778	6.41
774.093	6.45
774.407	6.66
774.722	5.86
775.036	5.59
775.351	5.87
775.665	5.51
775.979	5.65
776.293	6.15
776.608	5.88
776.922	5.65
777.236	5.31
777.55	5.41
777.864	5.92
778.178	5.97
778.492	6.1
778.806	6.44
779.12	6.36
779.434	6.43
779.747	6.78
780.061	6.98
780.375	7.25
780.689	7.34
781.002	7.29
781.316	7.02
781.629	6.88
781.943	7.03
782.256	7.07
782.57	7.02
782.883	7.19
783.196	7.32
783.51	7.83
783.823	8.43
784.136	8.53
784.449	7.96
784.762	7.84
785.075	7.8
785.388	7.73
785.701	7.48
786.014	6.94
786.327	6.37
786.64	6.52
786.953	6.05
787.266	6.16
787.578	6.21
787.891	6.98
788.204	7.17
788.516	7.83
788.829	7.55
789.141	7.85
789.454	7.76
789.766	7.59
790.079	7.09
790.391	6.78
790.703	6.5
791.016	6.95
791.328	7.2
791.64	7.15
791.952	6.71
792.264	6.4
792.576	6.79
792.888	6.7
793.2	6.74
793.512	6.74
793.824	6.61
794.136	6.48
794.448	6.75
794.76	7.57
795.071	7.03
795.383	7.14
795.695	6.54
796.006	6.24
796.318	6.73
796.629	7.02
796.941	7.24
797.252	6.73
797.564	6.28
797.875	5.86
798.186	5.84
798.497	6.5
798.809	6.28
799.12	6.18
799.431	6.3
799.742	6.58
800.053	6.6
800.364	7.07
800.675	6.77
800.986	5.84
801.297	5.28
801.608	5.24
801.918	5.4
802.229	5.77
802.54	5.52
802.851	5.52
803.161	5.81
803.472	5.42
803.782	5.53
804.093	5.03
804.403	5.3
804.714	5.91
805.024	4.71
805.334	5.03
805.645	5.81
805.955	5.24
806.265	5.17
806.575	5.24
806.885	4.24
807.195	4.95
807.505	5.26
807.815	5.48
808.125	5.48
808.435	5.32
808.745	4.91
809.055	4.93
809.365	4.6
809.674	3.99
809.984	4.16
810.294	4.69
810.603	4.95
810.913	4.46
811.222	4.08
811.532	4.24
811.841	5.01
812.151	4.33
812.46	5.08
812.769	4.64
813.079	5.17
813.388	5.64
813.697	4.96
814.006	4.76
814.315	4.78
814.624	5.24
814.933	5.3
815.242	6.07
815.551	6.44
815.86	6.11
816.169	5.95
816.478	6.11
816.786	5.23
817.095	6.12
817.404	6.05
817.712	6.03
818.021	7.33
818.33	7.01
818.638	7.22
818.947	7.38
819.255	7.67
819.563	7.75
819.872	7.91
820.18	8.18
820.488	8.78
820.796	8.88
821.105	8.75
821.413	8.96
821.721	9.09
822.029	9.12
822.337	9.17
822.645	9.16
822.953	9.17
823.26	9.42
823.568	9.32
823.876	9.6
824.184	9.51
824.491	9.41
824.799	9.53
825.107	9.5
825.414	9.46
825.722	9.47
826.029	9.36
826.337	9.36
826.644	9.3
826.951	9.18
827.259	9.11
827.566	9.24
827.873	9.08
828.18	8.93
828.488	8.76
828.795	9.01
829.102	9.14
829.409	9.03
829.716	8.96
830.023	8.84
830.329	8.23
830.636	8.49
830.943	8.27
831.25	8.23
831.557	8.16
831.863	8.11
832.17	8.27
832.476	8.56
832.783	8.45
833.089	8.75
833.396	8.66
833.702	8.55
834.009	8.55
834.315	8.47
834.621	8.78
834.928	8.94
835.234	8.91
835.54	8.97
835.846	8.99
836.152	9.43
836.458	9.89
836.764	10.57
837.07	10.58
837.376	10.93
837.682	10.67
837.988	10.88
838.293	11.18
838.599	10.74
838.905	10.51
839.211	10.42
839.516	10.27
839.822	10.33
840.127	10.02
840.433	9.62
840.738	10.42
841.044	9.23
841.349	9.15
841.654	7.25
841.959	7.25
842.265	8.49
842.57	9.13
842.875	8.52
843.18	7.31
843.485	6.28
843.79	5.31
844.095	5.86
844.4	6.83
844.705	6.95
845.01	7.12
845.315	8.12
845.619	8.15
845.924	8.39
846.229	8.68
846.533	9.07
846.838	7.9
847.142	7.19
847.447	8.33
847.751	7.11
848.056	8.55
848.36	9.2
848.664	6.62
848.969	3.84
849.273	3.46
849.577	4.84
849.881	5.11
850.185	5.26
850.489	4.76
850.794	1.41
851.097	0.6
851.401	-0.44
851.705	-2.54
852.009	-0.01
852.313	-0.3
852.617	-1.91
852.92	-1.05
853.224	1.68
853.528	0.69
853.831	1.35
854.135	2.28
854.438	2.68
854.742	1.76
855.045	1.23
855.349	0.86
855.652	0.96
855.955	1.06
856.259	1.83
856.562	4.62
856.865	5.12
857.168	5.93
857.471	8.22
857.774	9.32
858.077	9.77
858.38	7.74
858.683	7.8
858.986	8.03
859.289	8.06
859.592	7.15
859.894	9.06
860.197	6.21
860.5	7.97
860.802	7.85
861.105	8.77
861.407	9.37
861.71	10.34
862.012	9.98
862.315	8.77
862.617	9.12
862.919	8.95
863.222	8.42
863.524	9.01
863.826	5.68
864.128	8.31
864.43	10.98
864.732	11.21
865.034	12.18
865.336	10.62
865.638	9.23
865.94	8.27
866.242	5.6
866.544	9.95
866.846	10.3
867.147	10.3
867.449	11.17
867.751	14.13
868.052	12.52
868.354	12.74
868.655	14.23
868.957	14.39
869.258	11.41
869.56	12.01
869.861	12.65
870.162	14.48
870.463	11.11
870.765	9.96
871.066	11.32
871.367	8.51
871.668	10.3
871.969	11.44
872.27	12.56
872.571	14.77
872.872	13.84
873.173	12.36
873.473	14.01
873.774	13.62
874.075	10.73
874.376	10.52
874.676	11.04
874.977	10.45
875.277	10.63
875.578	11.84
875.878	11.88
876.179	12
876.479	11.97
876.78	14.09
877.08	13.27
877.38	11.64
877.68	14.09
877.981	15.4
878.281	16.22
878.581	16.67
