Data from BA55519_Reflection_00013.txt Node
Date: Tue Nov 19 11:52:59 EST 2019
User: vgr7
Spectrometer: USB2G7710
Scans to average: 3
Trigger mode: 4
Integration Time (sec): 2.000000E-2
Electric dark correction enabled: true
Boxcar width: 10
XAxis mode: Wavelengths
Number of Pixels in Spectrum: 2048
>>>>>Begin Spectral Data<<<<<
177.721	41.93
178.105	5.72
178.488	-20.87
178.871	15.92
179.254	3.7
179.636	33.87
180.019	19.68
180.402	11.76
180.785	-33.33
181.168	-255.72
181.55	-165.87
181.933	-503.17
182.316	-1566.67
182.698	-1474.07
183.081	-59.72
183.463	16.67
183.846	59.92
184.228	103.66
184.611	90.44
184.993	45.05
185.376	39.55
185.758	16.98
186.14	-5.95
186.522	-6.34
186.904	5.47
187.287	2.63
187.669	19.75
188.051	17.05
188.433	-6.37
188.815	-17.6
189.197	-12.3
189.579	-11.11
189.961	0.55
190.342	-0.96
190.724	5.39
191.106	-1.91
191.488	0.77
191.869	-3.43
192.251	-7.77
192.633	-16.04
193.014	-14.01
193.396	-15.6
193.777	-9.97
194.159	-6.51
194.54	-12.69
194.922	-10.86
195.303	-14.98
195.684	-25.39
196.065	-20.06
196.447	-9.5
196.828	4.34
197.209	9.13
197.59	5.37
197.971	6.92
198.352	15.92
198.733	6.81
199.114	-1.15
199.495	-7.51
199.876	-1.18
200.257	-8.57
200.638	-5.15
201.018	-15.63
201.399	-9.84
201.78	-7.2
202.16	-4.57
202.541	-6.4
202.922	-12.59
203.302	-9.08
203.683	-4.12
204.063	-4.12
204.444	3.25
204.824	-6.27
205.204	-0.97
205.585	-1.92
205.965	-11.35
206.345	-18.66
206.725	-7.28
207.106	6.82
207.486	17.89
207.866	22.43
208.246	29.71
208.626	24.28
209.006	28.69
209.386	30.25
209.766	23.33
210.145	21.69
210.525	24.03
210.905	20.98
211.285	30.2
211.664	31.35
212.044	31.05
212.424	27.63
212.803	29.21
213.183	20.89
213.562	28.68
213.942	37.27
214.321	36.51
214.701	32.11
215.08	21.35
215.459	18.64
215.838	-1.91
216.218	-11.93
216.597	-0.59
216.976	-8.23
217.355	-2.73
217.734	-1.81
218.113	18.2
218.492	16.3
218.871	23.05
219.25	28.18
219.629	15.43
220.008	9.03
220.387	12.41
220.766	25.93
221.144	28.66
221.523	34.11
221.902	40.21
222.28	33.67
222.659	37.74
223.037	41.85
223.416	42.69
223.794	46.07
224.173	41.5
224.551	35.46
224.929	38.61
225.308	31.98
225.686	32.33
226.064	19.72
226.442	22.33
226.821	21.16
227.199	14.34
227.577	16.6
227.955	17.68
228.333	16.48
228.711	12.95
229.089	14.29
229.467	9.19
229.845	8.98
230.222	9.81
230.6	6.75
230.978	10.06
231.356	9.39
231.733	11.36
232.111	8.82
232.488	9.33
232.866	13.46
233.243	12.09
233.621	11.09
233.998	13.18
234.376	9.93
234.753	8.83
235.13	8.26
235.508	10.94
235.885	10.42
236.262	7.97
236.639	7.62
237.016	7.04
237.393	9.93
237.77	9.15
238.147	9.38
238.524	9.99
238.901	9.06
239.278	8.3
239.655	7.58
240.032	8.88
240.409	8.1
240.785	6.56
241.162	6.83
241.539	6.69
241.915	6.39
242.292	6.95
242.668	7.66
243.045	8.05
243.421	7.47
243.798	7.35
244.174	7.73
244.551	7.82
244.927	7.99
245.303	7.57
245.679	7.67
246.056	8
246.432	7.63
246.808	7.6
247.184	7.67
247.56	7.44
247.936	7.19
248.312	7.4
248.688	7.52
249.064	7.31
249.44	7.36
249.815	7.42
250.191	7.26
250.567	6.73
250.943	6.94
251.318	6.9
251.694	6.87
252.069	6.88
252.445	6.6
252.82	6.38
253.196	6.55
253.571	6.15
253.947	5.66
254.322	5.88
254.697	5.54
255.073	5.38
255.448	5.39
255.823	5.63
256.198	5.58
256.573	5.71
256.948	5.87
257.323	5.88
257.698	5.83
258.073	5.9
258.448	6.24
258.823	5.83
259.198	5.9
259.573	5.93
259.948	5.99
260.322	6.12
260.697	6.34
261.072	6.33
261.446	6.38
261.821	6.18
262.195	6.27
262.57	6.42
262.944	6.53
263.319	6.64
263.693	6.51
264.067	6.5
264.442	6.47
264.816	6.47
265.19	6.42
265.564	6.28
265.938	6.14
266.313	6
266.687	6.31
267.061	6.13
267.435	6.22
267.809	5.8
268.183	5.61
268.556	5.35
268.93	5.47
269.304	5.38
269.678	5.54
270.051	5.47
270.425	5.31
270.799	5.1
271.172	5.19
271.546	5.33
271.919	5.39
272.293	5.28
272.666	5.41
273.04	5.57
273.413	5.64
273.787	5.61
274.16	5.58
274.533	5.51
274.906	5.61
275.279	5.66
275.653	5.99
276.026	6.18
276.399	6.23
276.772	6.02
277.145	6.12
277.518	6.2
277.891	6.07
278.263	6.16
278.636	6.5
279.009	6.62
279.382	6.55
279.755	6.8
280.127	7.06
280.5	7.02
280.872	6.91
281.245	6.97
281.617	6.87
281.99	6.86
282.362	6.86
282.735	6.86
283.107	6.78
283.479	6.74
283.852	6.59
284.224	6.64
284.596	6.63
284.968	6.58
285.34	6.45
285.713	6.63
286.085	6.57
286.457	6.43
286.829	6.35
287.201	6.38
287.572	6.08
287.944	5.97
288.316	5.89
288.688	5.87
289.06	5.86
289.431	6.05
289.803	6.17
290.175	6.18
290.546	6.22
290.918	6.31
291.289	6.22
291.661	6.45
292.032	6.44
292.403	6.51
292.775	6.65
293.146	6.87
293.517	6.73
293.889	6.79
294.26	6.8
294.631	6.86
295.002	6.91
295.373	7.08
295.744	7.07
296.115	7.08
296.486	7.05
296.857	7.12
297.228	7.04
297.599	6.84
297.97	6.93
298.34	6.97
298.711	6.79
299.082	6.98
299.452	6.79
299.823	6.87
300.194	6.91
300.564	6.89
300.935	6.89
301.305	7.07
301.676	7.09
302.046	7.07
302.416	7.15
302.787	7.15
303.157	7.27
303.527	7.56
303.897	7.64
304.267	7.79
304.637	7.97
305.008	8.21
305.378	8.31
305.748	8.2
306.117	8.17
306.487	8.37
306.857	8.43
307.227	8.66
307.597	8.76
307.967	8.97
308.336	9.08
308.706	9.1
309.076	9.25
309.445	9.57
309.815	9.79
310.184	9.65
310.554	9.76
310.923	9.7
311.293	9.56
311.662	9.86
312.031	9.91
312.401	9.78
312.77	9.9
313.139	10.06
313.508	10.16
313.877	10.29
314.246	10.39
314.616	10.46
314.985	10.46
315.353	10.42
315.722	10.42
316.091	10.4
316.46	10.48
316.829	10.33
317.198	10.43
317.567	10.4
317.935	10.63
318.304	10.79
318.672	10.95
319.041	11.03
319.41	10.89
319.778	11.07
320.147	11.37
320.515	11.47
320.883	11.72
321.252	11.78
321.62	11.95
321.988	12.11
322.357	12.06
322.725	12.04
323.093	12.16
323.461	12.33
323.829	12.51
324.197	12.58
324.565	12.82
324.933	12.72
325.301	12.73
325.669	12.8
326.037	12.72
326.405	12.8
326.772	12.87
327.14	12.84
327.508	12.77
327.875	12.67
328.243	12.58
328.61	12.45
328.978	12.35
329.346	12.36
329.713	12.3
330.08	12.37
330.448	12.56
330.815	12.63
331.182	12.58
331.55	12.56
331.917	12.65
332.284	12.64
332.651	12.7
333.018	12.8
333.385	12.79
333.752	12.98
334.119	12.99
334.486	12.79
334.853	12.9
335.22	13
335.587	13.01
335.954	13.1
336.32	12.96
336.687	13.2
337.054	13.21
337.42	13.38
337.787	13.55
338.153	13.53
338.52	13.62
338.886	13.71
339.253	13.73
339.619	13.83
339.986	13.79
340.352	13.79
340.718	13.69
341.084	13.75
341.451	13.71
341.817	13.65
342.183	13.91
342.549	13.84
342.915	13.84
343.281	13.92
343.647	13.89
344.013	13.97
344.379	14
344.745	14.05
345.11	13.9
345.476	13.89
345.842	14.15
346.208	14.2
346.573	14.1
346.939	14.21
347.304	14.12
347.67	14.16
348.035	14.05
348.401	14.1
348.766	14.09
349.132	14.06
349.497	14.12
349.862	14.11
350.228	14.26
350.593	14.21
350.958	14.3
351.323	14.25
351.688	14.35
352.053	14.28
352.418	14.11
352.783	14.23
353.148	14.17
353.513	13.88
353.878	13.79
354.243	13.79
354.608	13.61
354.972	13.61
355.337	13.47
355.702	13.46
356.066	13.51
356.431	13.51
356.795	13.46
357.16	13.37
357.524	13.29
357.889	13.2
358.253	13.16
358.618	12.96
358.982	12.93
359.346	12.81
359.71	12.85
360.075	12.88
360.439	12.82
360.803	12.75
361.167	12.69
361.531	12.68
361.895	12.62
362.259	12.64
362.623	12.53
362.987	12.55
363.351	12.54
363.714	12.51
364.078	12.47
364.442	12.39
364.806	12.37
365.169	12.3
365.533	12.26
365.896	12.29
366.26	12.32
366.623	12.27
366.987	12.22
367.35	12.07
367.714	12.05
368.077	11.98
368.44	11.85
368.803	11.81
369.167	11.68
369.53	11.64
369.893	11.6
370.256	11.48
370.619	11.38
370.982	11.26
371.345	11.19
371.708	11.09
372.071	11.03
372.434	10.96
372.797	10.87
373.159	10.71
373.522	10.55
373.885	10.35
374.247	10.32
374.61	10.3
374.973	10.22
375.335	10.09
375.698	9.98
376.06	9.93
376.423	9.89
376.785	9.85
377.147	9.73
377.51	9.61
377.872	9.62
378.234	9.6
378.596	9.54
378.958	9.4
379.321	9.27
379.683	9.27
380.045	9.19
380.407	9.15
380.769	9.13
381.13	9.03
381.492	9.02
381.854	8.94
382.216	8.89
382.578	8.86
382.939	8.77
383.301	8.76
383.663	8.79
384.024	8.77
384.386	8.8
384.747	8.7
385.109	8.67
385.47	8.59
385.832	8.47
386.193	8.44
386.554	8.4
386.916	8.42
387.277	8.31
387.638	8.26
387.999	8.23
388.36	8.18
388.721	8.2
389.082	8.22
389.443	8.17
389.804	8.09
390.165	8.06
390.526	8.01
390.887	7.94
391.248	7.85
391.609	7.78
391.969	7.71
392.33	7.72
392.691	7.63
393.051	7.61
393.412	7.58
393.772	7.55
394.133	7.52
394.493	7.42
394.854	7.42
395.214	7.36
395.574	7.29
395.935	7.23
396.295	7.16
396.655	7.07
397.015	7.03
397.376	7.02
397.736	6.95
398.096	6.94
398.456	6.85
398.816	6.77
399.176	6.66
399.535	6.55
399.895	6.48
400.255	6.44
400.615	6.42
400.975	6.37
401.334	6.31
401.694	6.27
402.054	6.27
402.413	6.22
402.773	6.21
403.132	6.16
403.492	6.14
403.851	6.12
404.211	6.07
404.57	6.01
404.929	5.98
405.288	5.97
405.648	5.95
406.007	5.94
406.366	5.96
406.725	5.98
407.084	5.97
407.443	5.98
407.802	5.96
408.161	5.9
408.52	5.88
408.879	5.87
409.238	5.84
409.596	5.79
409.955	5.75
410.314	5.73
410.673	5.77
411.031	5.76
411.39	5.76
411.748	5.75
412.107	5.74
412.465	5.69
412.824	5.61
413.182	5.61
413.54	5.6
413.899	5.54
414.257	5.54
414.615	5.49
414.974	5.45
415.332	5.49
415.69	5.47
416.048	5.49
416.406	5.46
416.764	5.44
417.122	5.42
417.48	5.43
417.838	5.39
418.195	5.36
418.553	5.33
418.911	5.31
419.269	5.31
419.626	5.3
419.984	5.29
420.342	5.31
420.699	5.28
421.057	5.27
421.414	5.27
421.772	5.25
422.129	5.26
422.486	5.26
422.844	5.25
423.201	5.25
423.558	5.22
423.915	5.22
424.273	5.22
424.63	5.25
424.987	5.23
425.344	5.24
425.701	5.22
426.058	5.23
426.415	5.21
426.772	5.2
427.128	5.2
427.485	5.22
427.842	5.2
428.199	5.19
428.555	5.18
428.912	5.17
429.269	5.15
429.625	5.12
429.982	5.11
430.338	5.11
430.695	5.1
431.051	5.11
431.407	5.1
431.764	5.09
432.12	5.05
432.476	5.07
432.832	5.06
433.189	5.04
433.545	5
433.901	5.03
434.257	5.02
434.613	5
434.969	4.98
435.325	4.99
435.681	4.98
436.036	4.99
436.392	4.98
436.748	5
437.104	5.02
437.459	5
437.815	4.97
438.171	4.97
438.526	4.95
438.882	4.95
439.237	4.94
439.593	4.95
439.948	4.93
440.304	4.92
440.659	4.91
441.014	4.93
441.369	4.93
441.725	4.94
442.08	4.96
442.435	4.96
442.79	4.94
443.145	4.93
443.5	4.9
443.855	4.89
444.21	4.9
444.565	4.87
444.92	4.87
445.275	4.87
445.629	4.86
445.984	4.85
446.339	4.84
446.693	4.82
447.048	4.79
447.403	4.79
447.757	4.78
448.112	4.8
448.466	4.78
448.82	4.77
449.175	4.74
449.529	4.73
449.883	4.72
450.238	4.71
450.592	4.7
450.946	4.7
451.3	4.72
451.654	4.68
452.008	4.7
452.362	4.7
452.716	4.68
453.07	4.68
453.424	4.69
453.778	4.67
454.132	4.67
454.486	4.69
454.839	4.69
455.193	4.7
455.547	4.67
455.9	4.69
456.254	4.67
456.607	4.7
456.961	4.69
457.314	4.68
457.668	4.68
458.021	4.71
458.375	4.69
458.728	4.69
459.081	4.71
459.434	4.71
459.787	4.72
460.141	4.71
460.494	4.73
460.847	4.73
461.2	4.75
461.553	4.78
461.906	4.8
462.259	4.79
462.611	4.81
462.964	4.85
463.317	4.85
463.67	4.87
464.022	4.86
464.375	4.88
464.728	4.89
465.08	4.91
465.433	4.91
465.785	4.94
466.138	4.96
466.49	4.99
466.843	4.99
467.195	5
467.547	5.03
467.899	5.04
468.252	5.06
468.604	5.06
468.956	5.06
469.308	5.05
469.66	5.05
470.012	5.03
470.364	5.04
470.716	5.05
471.068	5.06
471.42	5.07
471.772	5.06
472.123	5.08
472.475	5.07
472.827	5.08
473.178	5.07
473.53	5.05
473.882	5.04
474.233	5.02
474.585	5
474.936	4.99
475.288	4.97
475.639	4.96
475.99	4.97
476.342	4.95
476.693	4.95
477.044	4.95
477.395	4.94
477.746	4.9
478.097	4.89
478.448	4.87
478.8	4.87
479.15	4.88
479.501	4.86
479.852	4.85
480.203	4.86
480.554	4.87
480.905	4.89
481.255	4.89
481.606	4.89
481.957	4.9
482.307	4.91
482.658	4.9
483.009	4.9
483.359	4.9
483.709	4.91
484.06	4.91
484.41	4.93
484.761	4.94
485.111	4.95
485.461	4.96
485.811	4.97
486.162	4.98
486.512	4.98
486.862	4.99
487.212	5
487.562	5
487.912	5.01
488.262	5.01
488.612	5.02
488.961	5.03
489.311	5.04
489.661	5.04
490.011	5.06
490.36	5.06
490.71	5.08
491.06	5.09
491.409	5.11
491.759	5.11
492.108	5.13
492.458	5.14
492.807	5.16
493.157	5.17
493.506	5.18
493.855	5.2
494.204	5.22
494.554	5.23
494.903	5.25
495.252	5.28
495.601	5.32
495.95	5.34
496.299	5.36
496.648	5.4
496.997	5.43
497.346	5.48
497.695	5.5
498.043	5.54
498.392	5.54
498.741	5.58
499.09	5.64
499.438	5.67
499.787	5.7
500.135	5.73
500.484	5.77
500.832	5.8
501.181	5.85
501.529	5.93
501.878	5.98
502.226	6.03
502.574	6.05
502.923	6.07
503.271	6.12
503.619	6.18
503.967	6.22
504.315	6.29
504.663	6.33
505.011	6.4
505.359	6.42
505.707	6.51
506.055	6.56
506.403	6.61
506.751	6.68
507.098	6.75
507.446	6.82
507.794	6.88
508.141	6.93
508.489	6.98
508.837	7
509.184	7.06
509.531	7.13
509.879	7.2
510.226	7.27
510.574	7.32
510.921	7.38
511.268	7.46
511.616	7.52
511.963	7.61
512.31	7.71
512.657	7.82
513.004	7.88
513.351	7.97
513.698	8.05
514.045	8.13
514.392	8.22
514.739	8.31
515.086	8.46
515.432	8.58
515.779	8.69
516.126	8.83
516.473	8.94
516.819	9.04
517.166	9.15
517.512	9.24
517.859	9.34
518.205	9.44
518.552	9.51
518.898	9.6
519.245	9.69
519.591	9.74
519.937	9.83
520.283	9.93
520.629	10.02
520.976	10.13
521.322	10.25
521.668	10.37
522.014	10.48
522.36	10.57
522.706	10.68
523.052	10.84
523.398	10.96
523.743	11.09
524.089	11.26
524.435	11.39
524.781	11.56
525.126	11.68
525.472	11.84
525.817	12
526.163	12.13
526.509	12.24
526.854	12.35
527.199	12.45
527.545	12.56
527.89	12.66
528.235	12.77
528.581	12.88
528.926	12.99
529.271	13.09
529.616	13.21
529.961	13.33
530.306	13.44
530.651	13.56
530.996	13.7
531.341	13.83
531.686	13.96
532.031	14.09
532.376	14.25
532.721	14.37
533.065	14.5
533.41	14.64
533.755	14.8
534.099	14.97
534.444	15.12
534.788	15.27
535.133	15.44
535.477	15.59
535.822	15.75
536.166	15.91
536.51	16.11
536.855	16.29
537.199	16.49
537.543	16.66
537.887	16.88
538.231	17.07
538.576	17.29
538.92	17.52
539.264	17.73
539.608	17.89
539.951	18.1
540.295	18.26
540.639	18.44
540.983	18.59
541.327	18.77
541.671	18.96
542.014	19.12
542.358	19.27
542.701	19.45
543.045	19.56
543.389	19.73
543.732	19.88
544.075	20.04
544.419	20.2
544.762	20.41
545.105	20.58
545.449	20.8
545.792	21.01
546.135	21.2
546.478	21.41
546.821	21.65
547.165	21.89
547.508	22.09
547.851	22.34
548.194	22.56
548.536	22.81
548.879	23.02
549.222	23.27
549.565	23.51
549.908	23.75
550.25	24.08
550.593	24.33
550.936	24.62
551.278	24.9
551.621	25.19
551.963	25.49
552.306	25.76
552.648	25.98
552.991	26.21
553.333	26.44
553.675	26.69
554.017	26.98
554.36	27.19
554.702	27.44
555.044	27.71
555.386	27.99
555.728	28.24
556.07	28.52
556.412	28.77
556.754	29.03
557.096	29.27
557.438	29.55
557.78	29.89
558.121	30.16
558.463	30.44
558.805	30.72
559.147	30.99
559.488	31.3
559.83	31.61
560.171	31.91
560.513	32.25
560.854	32.55
561.196	32.83
561.537	33.16
561.878	33.52
562.22	33.75
562.561	34.05
562.902	34.35
563.243	34.61
563.584	34.93
563.925	35.27
564.266	35.61
564.607	35.83
564.948	36.13
565.289	36.42
565.63	36.71
565.971	37.01
566.312	37.32
566.653	37.61
566.993	37.88
567.334	38.11
567.675	38.39
568.015	38.65
568.356	38.98
568.696	39.3
569.037	39.59
569.377	39.96
569.718	40.29
570.058	40.58
570.398	40.91
570.739	41.27
571.079	41.5
571.419	41.83
571.759	42.14
572.099	42.38
572.439	42.67
572.779	42.93
573.119	43.17
573.459	43.41
573.799	43.68
574.139	43.97
574.479	44.28
574.819	44.56
575.158	44.87
575.498	45.11
575.838	45.39
576.177	45.62
576.517	45.8
576.856	46.04
577.196	46.31
577.535	46.55
577.875	46.68
578.214	46.99
578.553	47.22
578.893	47.5
579.232	47.71
579.571	47.96
579.91	48.27
580.25	48.58
580.589	48.88
580.928	49.17
581.267	49.41
581.606	49.69
581.945	49.92
582.283	50.11
582.622	50.33
582.961	50.46
583.3	50.8
583.639	51.06
583.977	51.28
584.316	51.45
584.654	51.74
584.993	52.04
585.332	52.28
585.67	52.55
586.008	52.84
586.347	53.19
586.685	53.45
587.024	53.7
587.362	53.95
587.7	54.16
588.038	54.36
588.376	54.57
588.715	54.84
589.053	55.06
589.391	55.26
589.729	55.5
590.067	55.82
590.404	55.94
590.742	56.25
591.08	56.56
591.418	56.81
591.756	57.01
592.093	57.26
592.431	57.42
592.769	57.57
593.106	57.69
593.444	57.9
593.781	58.03
594.119	58.1
594.456	58.2
594.793	58.29
595.131	58.42
595.468	58.59
595.805	58.69
596.143	58.77
596.48	58.94
596.817	59.03
597.154	59.07
597.491	59.17
597.828	59.19
598.165	59.29
598.502	59.43
598.839	59.58
599.176	59.66
599.512	59.79
599.849	59.87
600.186	60.09
600.523	60.05
600.859	60.21
601.196	60.4
601.532	60.6
601.869	60.74
602.205	60.86
602.542	61.01
602.878	61.05
603.215	61.26
603.551	61.31
603.887	61.42
604.223	61.48
604.56	61.67
604.896	61.76
605.232	61.85
605.568	61.93
605.904	62.02
606.24	62.14
606.576	62.17
606.912	62.42
607.248	62.49
607.583	62.68
607.919	62.76
608.255	62.81
608.591	62.86
608.926	63.01
609.262	63.08
609.597	63.07
609.933	63.19
610.268	63.17
610.604	63.25
610.939	63.34
611.275	63.44
611.61	63.43
611.945	63.49
612.281	63.55
612.616	63.56
612.951	63.61
613.286	63.72
613.621	63.88
613.956	63.9
614.291	63.97
614.626	63.98
614.961	64.01
615.296	64.06
615.631	64.13
615.966	64.12
616.3	64.19
616.635	64.3
616.97	64.32
617.304	64.44
617.639	64.59
617.973	64.65
618.308	64.78
618.642	64.88
618.977	64.98
619.311	65.09
619.646	65.13
619.98	65.17
620.314	65.13
620.648	65.12
620.983	65
621.317	65.03
621.651	65.2
621.985	65.33
622.319	65.45
622.653	65.41
622.987	65.46
623.321	65.49
623.655	65.57
623.988	65.75
624.322	65.79
624.656	65.8
624.99	65.8
625.323	65.85
625.657	65.82
625.99	65.91
626.324	65.91
626.657	65.95
626.991	66.02
627.324	66.09
627.658	66.17
627.991	66.28
628.324	66.27
628.657	66.32
628.991	66.28
629.324	66.31
629.657	66.44
629.99	66.43
630.323	66.41
630.656	66.4
630.989	66.31
631.322	66.35
631.655	66.37
631.987	66.45
632.32	66.35
632.653	66.33
632.986	66.31
633.318	66.24
633.651	66.44
633.984	66.4
634.316	66.43
634.649	66.49
634.981	66.54
635.313	66.71
635.646	66.68
635.978	66.77
636.31	66.74
636.643	66.72
636.975	66.78
637.307	66.95
637.639	67.13
637.971	67.14
638.303	67.16
638.635	67.24
638.967	67.41
639.299	67.48
639.631	67.52
639.963	67.57
640.295	67.71
640.626	67.74
640.958	67.79
641.29	67.77
641.621	67.64
641.953	67.66
642.285	67.59
642.616	67.63
642.948	67.59
643.279	67.6
643.61	67.65
643.942	67.69
644.273	67.58
644.604	67.47
644.936	67.65
645.267	67.73
645.598	67.74
645.929	67.46
646.26	67.54
646.591	67.52
646.922	67.46
647.253	67.52
647.584	67.51
647.915	67.59
648.245	67.73
648.576	67.92
648.907	67.89
649.238	67.89
649.568	67.95
649.899	68.06
650.229	68.17
650.56	68.27
650.89	68.22
651.221	68.3
651.551	68.26
651.882	68.25
652.212	68.24
652.542	68.24
652.872	68.44
653.203	68.38
653.533	68.55
653.863	68.6
654.193	68.53
654.523	68.5
654.853	68.6
655.183	68.55
655.513	68.47
655.843	68.52
656.172	68.55
656.502	68.5
656.832	68.6
657.162	68.66
657.491	68.53
657.821	68.65
658.15	68.78
658.48	68.93
658.809	68.86
659.139	68.9
659.468	68.92
659.798	68.96
660.127	69.1
660.456	69.15
660.785	69.14
661.115	69.15
661.444	69.22
661.773	69.11
662.102	69.08
662.431	69.03
662.76	69.13
663.089	69.2
663.418	69.19
663.747	69.14
664.076	69.15
664.404	69.23
664.733	69.28
665.062	69.23
665.39	69.17
665.719	69.14
666.048	69.14
666.376	69.11
666.705	69.09
667.033	69.09
667.362	69.06
667.69	69.13
668.018	69.04
668.347	68.89
668.675	68.95
669.003	68.95
669.331	69.16
669.659	69.13
669.987	69.03
670.315	69.1
670.643	69.09
670.971	69.05
671.299	69.07
671.627	69.03
671.955	68.91
672.283	68.93
672.61	69.08
672.938	69.05
673.266	69.01
673.593	69.02
673.921	68.86
674.249	68.79
674.576	68.98
674.904	69.2
675.231	69.34
675.558	69.29
675.886	69.51
676.213	69.52
676.54	69.63
676.867	69.64
677.195	69.64
677.522	69.66
677.849	69.72
678.176	69.69
678.503	69.62
678.83	69.66
679.157	69.67
679.484	69.67
679.81	69.58
680.137	69.65
680.464	69.59
680.791	69.76
681.117	69.88
681.444	69.64
681.771	69.61
682.097	69.61
682.424	69.79
682.75	69.67
683.077	69.56
683.403	69.45
683.729	69.53
684.056	69.42
684.382	69.26
684.708	69.14
685.034	69.21
685.36	69.24
685.686	69.42
686.012	69.46
686.339	69.24
686.664	69.3
686.99	69.11
687.316	69.1
687.642	69.08
687.968	69.06
688.294	69.2
688.619	69.11
688.945	69.06
689.271	68.9
689.596	68.92
689.922	69.01
690.247	69.01
690.573	68.96
690.898	69.11
691.224	69.15
691.549	69.05
691.874	69.18
692.2	69.24
692.525	69.01
692.85	68.93
693.175	69.01
693.5	69.04
693.825	69.3
694.15	69.35
694.475	69.33
694.8	69.35
695.125	69.46
695.45	69.7
695.775	69.77
696.099	69.83
696.424	69.72
696.749	69.77
697.073	69.84
697.398	69.76
697.723	69.8
698.047	69.89
698.372	69.95
698.696	69.86
699.02	69.96
699.345	70.01
699.669	70.19
699.993	70.27
700.318	70.48
700.642	70.41
700.966	70.45
701.29	70.35
701.614	70.29
701.938	70.28
702.262	70.09
702.586	70.07
702.91	70.03
703.234	70.12
703.557	70.18
703.881	70.18
704.205	70.22
704.529	70.19
704.852	70.12
705.176	70.28
705.499	70.25
705.823	70.15
706.146	70.05
706.47	69.81
706.793	69.75
707.117	69.45
707.44	69.75
707.763	69.69
708.086	70.02
708.409	70.18
708.733	70.08
709.056	70.12
709.379	70.07
709.702	70.16
710.025	70.12
710.348	69.73
710.671	69.58
710.993	69.78
711.316	69.91
711.639	70.09
711.962	69.9
712.284	70.04
712.607	70
712.93	70.1
713.252	70.07
713.575	70.14
713.897	70.08
714.22	69.98
714.542	70.06
714.864	69.69
715.187	69.66
715.509	69.82
715.831	69.73
716.153	69.62
716.475	69.5
716.798	69.52
717.12	69.89
717.442	70.08
717.764	69.99
718.085	69.86
718.407	69.84
718.729	69.88
719.051	69.76
719.373	69.96
719.695	70.03
720.016	70.17
720.338	70.31
720.659	70.38
720.981	70.3
721.302	70.07
721.624	70.43
721.945	70.32
722.267	70.1
722.588	70.04
722.909	70.42
723.231	70.73
723.552	70.93
723.873	70.77
724.194	70.61
724.515	70.52
724.836	70.06
725.157	69.99
725.478	70.35
725.799	70.33
726.12	70.36
726.441	70.51
726.762	70.65
727.083	70.43
727.403	70.55
727.724	70.62
728.045	70.81
728.365	70.81
728.686	71
729.006	71.09
729.327	71.23
729.647	71.03
729.967	70.7
730.288	70.55
730.608	70.58
730.928	70.51
731.249	70.39
731.569	70.84
731.889	70.72
732.209	70.63
732.529	70.48
732.849	70.23
733.169	70.01
733.489	70.15
733.809	70.13
734.129	69.88
734.448	69.85
734.768	69.87
735.088	69.86
735.408	69.61
735.727	69.22
736.047	69.17
736.366	69.41
736.686	69.41
737.005	69.55
737.325	69.59
737.644	69.51
737.963	69.78
738.283	69.63
738.602	69.75
738.921	69.47
739.24	69.91
739.56	70.18
739.879	70.51
740.198	70.21
740.517	70.44
740.836	70.74
741.155	70.7
741.473	70.57
741.792	70.62
742.111	70.91
742.43	71.13
742.748	71.27
743.067	70.9
743.386	70.87
743.704	71.02
744.023	71.06
744.341	71.12
744.66	70.99
744.978	71.23
745.297	71.25
745.615	71.69
745.933	71.51
746.252	71.17
746.57	70.9
746.888	70.98
747.206	71.21
747.524	70.72
747.842	70.7
748.16	70.55
748.478	70.6
748.796	70.94
749.114	71.31
749.432	71.49
749.749	71.7
750.067	71.99
750.385	71.91
750.703	71.81
751.02	71.93
751.338	72.04
751.655	71.81
751.973	71.63
752.29	71.27
752.608	71.17
752.925	71.5
753.242	71.6
753.56	71.63
753.877	70.96
754.194	71.27
754.511	71.04
754.828	71.47
755.145	71.38
755.462	70.51
755.779	70.36
756.096	69.81
756.413	69.61
756.73	69.68
757.047	69.15
757.364	68.93
757.68	69.11
757.997	68.92
758.314	69.02
758.63	69.38
758.947	69.31
759.264	69.2
759.58	69.31
759.896	69.13
760.213	69.13
760.529	69.38
760.846	69.68
761.162	69.83
761.478	69.35
761.794	69.3
762.11	69.46
762.426	69.58
762.743	69.87
763.059	70.01
763.375	69.77
763.69	70.12
764.006	70.33
764.322	70.13
764.638	70.6
764.954	70.56
765.27	70.42
765.585	70.56
765.901	70.62
766.216	70.16
766.532	70.39
766.848	70.21
767.163	70.29
767.478	70.01
767.794	69.96
768.109	70.45
768.424	70.51
768.74	70.47
769.055	70.51
769.37	70.37
769.685	70
770	70.11
770.315	70.19
770.63	69.97
770.945	70.07
771.26	70.05
771.575	70.39
771.89	70.37
772.205	70.35
772.52	70.5
772.834	70.83
773.149	70.69
773.464	70.93
773.778	70.82
774.093	71.04
774.407	71.48
774.722	71.26
775.036	71.29
775.351	71.44
775.665	71.05
775.979	71.27
776.293	71.62
776.608	72.09
776.922	72.26
777.236	72.52
777.55	72.57
777.864	72.07
778.178	71.66
778.492	71.47
778.806	71.57
779.12	71.78
779.434	72.22
779.747	72.59
780.061	72.7
780.375	72.98
780.689	73.11
781.002	72.79
781.316	73.3
781.629	73.55
781.943	74.08
782.256	74.04
782.57	73.88
782.883	73.38
783.196	72.96
783.51	72.65
783.823	72.4
784.136	72.22
784.449	72.63
784.762	73.33
785.075	73.8
785.388	73.58
785.701	72.76
786.014	72.11
786.327	71.76
786.64	72.21
786.953	71.8
787.266	71.81
787.578	71.78
787.891	71.31
788.204	71.3
788.516	70.61
788.829	70.36
789.141	70.52
789.454	71.3
789.766	71.24
790.079	70.84
790.391	71.3
790.703	71.66
791.016	72.09
791.328	71.82
791.64	71.96
791.952	71.94
792.264	72.22
792.576	72.49
792.888	71.99
793.2	70.92
793.512	71.24
793.824	71.11
794.136	71.46
794.448	71.88
794.76	71.79
795.071	72.05
795.383	72.77
795.695	72.88
796.006	72.87
796.318	73.39
796.629	74.22
796.941	73.64
797.252	73.26
797.564	72.24
797.875	72.64
798.186	71.62
798.497	71.73
798.809	71.48
799.12	71.1
799.431	71.01
799.742	70.79
800.053	71.03
800.364	71.3
800.675	71.48
800.986	70.97
801.297	70.55
801.608	71.15
801.918	71.26
802.229	70.71
802.54	70.5
802.851	70.51
803.161	69.72
803.472	69.67
803.782	70.04
804.093	70.05
804.403	69.39
804.714	69.79
805.024	69.05
805.334	69.72
805.645	70.54
805.955	71.09
806.265	71.75
806.575	71.34
806.885	70.65
807.195	70.84
807.505	70.77
807.815	71.4
808.125	70.93
808.435	70.66
808.745	71.35
809.055	71.41
809.365	72.16
809.674	72.68
809.984	72.8
810.294	73.22
810.603	72.83
810.913	72.97
811.222	73.24
811.532	74.62
811.841	74.53
812.151	73.68
812.46	73.68
812.769	73.65
813.079	74.29
813.388	74.5
813.697	73.83
814.006	72.84
814.315	72.4
814.624	72.35
814.933	72.31
815.242	71.72
815.551	71.25
815.86	70.37
816.169	70.73
816.478	71.65
816.786	70.61
817.095	70.76
817.404	70.88
817.712	70.76
818.021	70.37
818.33	70.44
818.638	71.31
818.947	70.82
819.255	71.15
819.563	70.29
819.872	70.71
820.18	71
820.488	71.6
820.796	71.23
821.105	71.37
821.413	71.6
821.721	71.52
822.029	71.9
822.337	71.65
822.645	71.45
822.953	71.19
823.26	71.3
823.568	71.55
823.876	71.36
824.184	71.46
824.491	71.36
824.799	71.34
825.107	71.48
825.414	71.52
825.722	71.39
826.029	71.68
826.337	71.63
826.644	71.52
826.951	71.75
827.259	71.9
827.566	71.83
827.873	71.73
828.18	71.9
828.488	71.39
828.795	71.67
829.102	71.65
829.409	71.85
829.716	71.59
830.023	71.4
830.329	71.72
830.636	71.65
830.943	71.72
831.25	71.62
831.557	71.25
831.863	71.3
832.17	71.4
832.476	71.38
832.783	71.39
833.089	71.09
833.396	70.29
833.702	70.75
834.009	70.97
834.315	70.56
834.621	70.61
834.928	71.3
835.234	71.26
835.54	71.55
835.846	71.67
836.152	72.13
836.458	72.39
836.764	72.34
837.07	72.38
837.376	72.64
837.682	72.42
837.988	71.8
838.293	72.53
838.599	72.94
838.905	72.67
839.211	72.88
839.516	73.71
839.822	74.03
840.127	73.74
840.433	73.78
840.738	74.33
841.044	74.32
841.349	74.08
841.654	73.53
841.959	72.04
842.265	71.09
842.57	69.86
842.875	69.36
843.18	68.61
843.485	68.69
843.79	68.35
844.095	69.47
844.4	69.98
844.705	70.69
845.01	69.86
845.315	69.73
845.619	69.62
845.924	69.47
846.229	69.87
846.533	70.14
846.838	67.99
847.142	67.89
847.447	68.25
847.751	69.28
848.056	69.89
848.36	72.16
848.664	73.36
848.969	74.39
849.273	72.23
849.577	72.16
849.881	72.3
850.185	72.13
850.489	71.6
850.794	71.65
851.097	70.07
851.401	70.63
851.705	71.29
852.009	72.21
852.313	74.19
852.617	71.14
852.92	72.42
853.224	74.84
853.528	75.08
853.831	76.25
854.135	71.89
854.438	71.72
854.742	70.58
855.045	70.24
855.349	70.05
855.652	69.9
855.955	69.74
856.259	70.41
856.562	70.65
856.865	72.2
857.168	72.78
857.471	71.98
857.774	72.03
858.077	70.31
858.38	67.09
858.683	62.31
858.986	66.7
859.289	64.45
859.592	64.16
859.894	64.43
860.197	62.73
860.5	65.33
860.802	65.29
861.105	66.84
861.407	67.27
861.71	68.65
862.012	69.31
862.315	69.97
862.617	69.3
862.919	69.04
863.222	66.06
863.524	63.11
863.826	63.82
864.128	63.26
864.43	65.92
864.732	67.55
865.034	71.23
865.336	69.35
865.638	69.49
865.94	68.06
866.242	67.07
866.544	68.15
866.846	68.99
867.147	68.93
867.449	67.29
867.751	66.17
868.052	64.08
868.354	64.62
868.655	66.1
868.957	65.62
869.258	65.59
869.56	65.81
869.861	69.64
870.162	68.55
870.463	68.1
870.765	65.25
871.066	65.94
871.367	64.06
871.668	65.32
871.969	65.84
872.27	65.96
872.571	67.14
872.872	66.24
873.173	65.95
873.473	65.2
873.774	66.55
874.075	67.55
874.376	69.57
874.676	69.87
874.977	67.14
875.277	66.08
875.578	68.22
875.878	69.56
876.179	68.34
876.479	67.76
876.78	68.52
877.08	70.6
877.38	70.25
877.68	70.6
877.981	67.99
878.281	67.84
878.581	69.28
