Data from BA55519_Reflection_00010.txt Node
Date: Tue Nov 19 11:52:52 EST 2019
User: vgr7
Spectrometer: USB2G7710
Scans to average: 3
Trigger mode: 4
Integration Time (sec): 2.000000E-2
Electric dark correction enabled: true
Boxcar width: 10
XAxis mode: Wavelengths
Number of Pixels in Spectrum: 2048
>>>>>Begin Spectral Data<<<<<
177.721	11.73
178.105	27.61
178.488	43.56
178.871	49.75
179.254	46.3
179.636	38.6
180.019	126.1
180.402	41.18
180.785	4133.33
181.168	30.35
181.55	-26.98
181.933	12.7
182.316	409.52
182.698	7.41
183.081	113.89
183.463	22.04
183.846	-24.47
184.228	2.93
184.611	-1.09
184.993	-4.5
185.376	-26.08
185.758	-13.61
186.14	4.17
186.522	11.55
186.904	19.9
187.287	7.41
187.669	4.32
188.051	11.72
188.433	-12.23
188.815	-44.3
189.197	-21.6
189.579	-0.16
189.961	-8.37
190.342	-8.72
190.724	-11.66
191.106	-26.13
191.488	-12.94
191.869	-2.53
192.251	-10.82
192.633	0.99
193.014	11.66
193.396	13.4
193.777	29.6
194.159	22.86
194.54	23.56
194.922	13.82
195.303	18.35
195.684	12.77
196.065	15.36
196.447	16.85
196.828	12.7
197.209	12.14
197.59	0.13
197.971	-8.9
198.352	-0.07
198.733	-8.66
199.114	-11.38
199.495	-5.65
199.876	-10.41
200.257	-3.9
200.638	-16.06
201.018	-37.76
201.399	-38.25
201.78	-63.63
202.16	-74.89
202.541	-63.37
202.922	-79.45
203.302	-71.03
203.683	-69.96
204.063	-79.84
204.444	-73.09
204.824	-52.15
205.204	-55.26
205.585	-56.22
205.965	-45.11
206.345	-55.35
206.725	-42.12
207.106	-36.78
207.486	-55.69
207.866	-58.6
208.246	-46.83
208.626	-46.88
209.006	-40.22
209.386	-33.41
209.766	-23.33
210.145	-15.16
210.525	-26.36
210.905	-8.35
211.285	-9.69
211.664	2.31
212.044	-0.49
212.424	-0.9
212.803	-13.67
213.183	-18.22
213.562	-26.36
213.942	-18.89
214.321	-15.6
214.701	-19.76
215.08	-16.95
215.459	-0.46
215.838	5.45
216.218	3.59
216.597	-2.06
216.976	-5.46
217.355	-8.48
217.734	-19.89
218.113	-10.86
218.492	-11.48
218.871	-9.47
219.25	-8.51
219.629	-18.4
220.008	-9.45
220.387	-10.28
220.766	-6
221.144	-7.16
221.523	-5.36
221.902	-11.73
222.28	-17.67
222.659	-14.74
223.037	-11.97
223.416	-17.25
223.794	-14.36
224.173	-23.05
224.551	-15.83
224.929	-14.8
225.308	-10.05
225.686	-6.5
226.064	-10.82
226.442	-6.54
226.821	-8.99
227.199	-5.54
227.577	-4.45
227.955	-1.77
228.333	-1.84
228.711	-0.32
229.089	2.04
229.467	0.81
229.845	1.25
230.222	3.4
230.6	3.95
230.978	3.69
231.356	3.01
231.733	3.78
232.111	6.19
232.488	5.72
232.866	5.46
233.243	5.38
233.621	6.63
233.998	7.05
234.376	6.49
234.753	6.76
235.13	4.9
235.508	6.44
235.885	4.96
236.262	4.99
236.639	5.51
237.016	4.71
237.393	6.61
237.77	7.06
238.147	6.63
238.524	7.04
238.901	5.59
239.278	6.14
239.655	5.87
240.032	5.76
240.409	6.01
240.785	5.99
241.162	6.1
241.539	6.13
241.915	5.86
242.292	6.17
242.668	6.45
243.045	6.9
243.421	6.73
243.798	6.79
244.174	7.13
244.551	6.97
244.927	7.13
245.303	6.69
245.679	6.27
246.056	6.35
246.432	6.4
246.808	6.65
247.184	6.63
247.56	6.66
247.936	6.66
248.312	6.55
248.688	6.44
249.064	6.19
249.44	6.08
249.815	6.35
250.191	6.3
250.567	6.06
250.943	6.06
251.318	5.76
251.694	5.8
252.069	5.56
252.445	5.54
252.82	5.51
253.196	5.87
253.571	6.31
253.947	6.28
254.322	6.26
254.697	5.99
255.073	5.74
255.448	5.41
255.823	5.4
256.198	4.89
256.573	5.06
256.948	5.28
257.323	5.3
257.698	5.23
258.073	5.12
258.448	5.51
258.823	5.08
259.198	5.14
259.573	4.99
259.948	4.83
260.322	4.91
260.697	5.04
261.072	4.91
261.446	4.85
261.821	4.89
262.195	4.79
262.57	4.85
262.944	4.86
263.319	5.07
263.693	4.9
264.067	5.4
264.442	5.36
264.816	5.26
265.19	5.07
265.564	4.78
265.938	4.8
266.313	4.39
266.687	4.7
267.061	4.86
267.435	4.76
267.809	4.72
268.183	4.56
268.556	4.26
268.93	4.44
269.304	4.44
269.678	4.63
270.051	4.54
270.425	4.67
270.799	4.51
271.172	4.24
271.546	4.5
271.919	4.31
272.293	4.36
272.666	4.35
273.04	4.44
273.413	4.58
273.787	4.59
274.16	4.8
274.533	4.9
274.906	4.89
275.279	4.94
275.653	5.2
276.026	5.3
276.399	5.39
276.772	5.46
277.145	5.47
277.518	5.18
277.891	5.23
278.263	5.19
278.636	5.32
279.009	5.47
279.382	5.25
279.755	5.24
280.127	5.33
280.5	5.38
280.872	5.45
281.245	5.39
281.617	5.3
281.99	5.09
282.362	4.98
282.735	4.86
283.107	4.96
283.479	4.84
283.852	4.73
284.224	4.85
284.596	4.63
284.968	4.58
285.34	4.58
285.713	4.68
286.085	4.6
286.457	4.65
286.829	4.61
287.201	4.73
287.572	4.65
287.944	4.72
288.316	4.68
288.688	4.76
289.06	4.79
289.431	4.84
289.803	5
290.175	4.97
290.546	5.05
290.918	5.04
291.289	5.16
291.661	5.4
292.032	5.52
292.403	5.57
292.775	5.65
293.146	5.81
293.517	5.75
293.889	5.88
294.26	5.91
294.631	5.97
295.002	6.02
295.373	6.16
295.744	6.17
296.115	6.19
296.486	6.1
296.857	6.26
297.228	6.13
297.599	6.08
297.97	6.29
298.34	6.41
298.711	6.48
299.082	6.43
299.452	6.28
299.823	6.26
300.194	6.31
300.564	6.24
300.935	6.23
301.305	6.27
301.676	6.25
302.046	6.14
302.416	6.33
302.787	6.34
303.157	6.36
303.527	6.43
303.897	6.57
304.267	6.8
304.637	6.88
305.008	7.22
305.378	7.42
305.748	7.39
306.117	7.52
306.487	7.58
306.857	7.64
307.227	7.92
307.597	7.97
307.967	8.14
308.336	8.38
308.706	8.37
309.076	8.52
309.445	8.76
309.815	8.94
310.184	8.78
310.554	8.69
310.923	8.8
311.293	8.72
311.662	8.97
312.031	9.03
312.401	8.88
312.77	8.99
313.139	9.05
313.508	9.07
313.877	9.08
314.246	9.12
314.616	9.39
314.985	9.34
315.353	9.33
315.722	9.46
316.091	9.59
316.46	9.74
316.829	9.83
317.198	9.84
317.567	10.09
317.935	10.29
318.304	10.65
318.672	10.95
319.041	11.2
319.41	11.13
319.778	11.2
320.147	11.45
320.515	11.4
320.883	11.4
321.252	11.65
321.62	11.79
321.988	11.84
322.357	11.73
322.725	11.74
323.093	11.79
323.461	11.79
323.829	11.8
324.197	11.95
324.565	12.09
324.933	12.04
325.301	11.9
325.669	11.91
326.037	12.03
326.405	11.77
326.772	11.83
327.14	11.77
327.508	11.86
327.875	11.83
328.243	11.93
328.61	12.14
328.978	12.09
329.346	12.05
329.713	12.19
330.08	12.34
330.448	12.49
330.815	12.64
331.182	12.63
331.55	12.6
331.917	12.64
332.284	12.64
332.651	12.77
333.018	13.05
333.385	13.2
333.752	13.1
334.119	13.33
334.486	13.22
334.853	13.28
335.22	13.24
335.587	13.33
335.954	13.26
336.32	13.08
336.687	13.17
337.054	13.24
337.42	13.26
337.787	13.26
338.153	13.24
338.52	13.28
338.886	13.42
339.253	13.58
339.619	13.63
339.986	13.66
340.352	13.62
340.718	13.54
341.084	13.55
341.451	13.61
341.817	13.6
342.183	13.62
342.549	13.71
342.915	13.73
343.281	13.77
343.647	13.79
344.013	13.89
344.379	13.87
344.745	13.91
345.11	14
345.476	14.02
345.842	14.06
346.208	14.21
346.573	14.23
346.939	14.23
347.304	14.06
347.67	13.97
348.035	13.95
348.401	13.99
348.766	14.02
349.132	14.01
349.497	13.95
349.862	14.02
350.228	13.99
350.593	13.98
350.958	14.03
351.323	14.06
351.688	13.98
352.053	13.93
352.418	13.87
352.783	13.83
353.148	13.79
353.513	13.75
353.878	13.55
354.243	13.43
354.608	13.46
354.972	13.55
355.337	13.62
355.702	13.68
356.066	13.71
356.431	13.6
356.795	13.54
357.16	13.49
357.524	13.49
357.889	13.47
358.253	13.4
358.618	13.29
358.982	13.17
359.346	13.1
359.71	13.09
360.075	13.06
360.439	13.05
360.803	13.01
361.167	12.98
361.531	12.98
361.895	12.91
362.259	12.86
362.623	12.76
362.987	12.68
363.351	12.58
363.714	12.46
364.078	12.4
364.442	12.33
364.806	12.3
365.169	12.25
365.533	12.14
365.896	12.17
366.26	12.09
366.623	12.14
366.987	12.2
367.35	12.1
367.714	12.05
368.077	11.87
368.44	11.8
368.803	11.63
369.167	11.51
369.53	11.46
369.893	11.32
370.256	11.33
370.619	11.19
370.982	11.05
371.345	10.98
371.708	10.93
372.071	10.84
372.434	10.76
372.797	10.56
373.159	10.48
373.522	10.33
373.885	10.25
374.247	10.14
374.61	10.02
374.973	9.91
375.335	9.8
375.698	9.74
376.06	9.6
376.423	9.61
376.785	9.54
377.147	9.45
377.51	9.36
377.872	9.23
378.234	9.22
378.596	9.26
378.958	9.17
379.321	9.12
379.683	9.08
380.045	9.01
380.407	8.99
380.769	8.91
381.13	8.79
381.492	8.75
381.854	8.65
382.216	8.62
382.578	8.61
382.939	8.53
383.301	8.46
383.663	8.47
384.024	8.44
384.386	8.39
384.747	8.36
385.109	8.28
385.47	8.26
385.832	8.15
386.193	8.04
386.554	7.93
386.916	7.84
387.277	7.77
387.638	7.72
387.999	7.69
388.36	7.65
388.721	7.67
389.082	7.58
389.443	7.58
389.804	7.48
390.165	7.43
390.526	7.41
390.887	7.38
391.248	7.26
391.609	7.15
391.969	7.08
392.33	7.01
392.691	6.99
393.051	6.93
393.412	6.89
393.772	6.86
394.133	6.8
394.493	6.73
394.854	6.71
395.214	6.66
395.574	6.58
395.935	6.55
396.295	6.48
396.655	6.47
397.015	6.39
397.376	6.34
397.736	6.28
398.096	6.16
398.456	6.11
398.816	6.09
399.176	6.07
399.535	6.02
399.895	5.99
400.255	5.93
400.615	5.89
400.975	5.82
401.334	5.81
401.694	5.82
402.054	5.81
402.413	5.79
402.773	5.74
403.132	5.7
403.492	5.6
403.851	5.59
404.211	5.53
404.57	5.49
404.929	5.48
405.288	5.42
405.648	5.44
406.007	5.41
406.366	5.41
406.725	5.39
407.084	5.37
407.443	5.36
407.802	5.32
408.161	5.3
408.52	5.29
408.879	5.25
409.238	5.25
409.596	5.23
409.955	5.2
410.314	5.21
410.673	5.21
411.031	5.23
411.39	5.19
411.748	5.2
412.107	5.18
412.465	5.13
412.824	5.14
413.182	5.15
413.54	5.12
413.899	5.11
414.257	5.08
414.615	5.08
414.974	5.06
415.332	5.07
415.69	5.09
416.048	5.08
416.406	5.05
416.764	5.01
417.122	4.98
417.48	4.94
417.838	4.89
418.195	4.87
418.553	4.87
418.911	4.84
419.269	4.82
419.626	4.77
419.984	4.77
420.342	4.74
420.699	4.72
421.057	4.7
421.414	4.66
421.772	4.65
422.129	4.63
422.486	4.6
422.844	4.57
423.201	4.54
423.558	4.52
423.915	4.52
424.273	4.51
424.63	4.51
424.987	4.49
425.344	4.5
425.701	4.48
426.058	4.45
426.415	4.46
426.772	4.46
427.128	4.48
427.485	4.45
427.842	4.45
428.199	4.43
428.555	4.44
428.912	4.43
429.269	4.42
429.625	4.42
429.982	4.44
430.338	4.43
430.695	4.42
431.051	4.45
431.407	4.43
431.764	4.43
432.12	4.42
432.476	4.45
432.832	4.47
433.189	4.48
433.545	4.48
433.901	4.46
434.257	4.43
434.613	4.43
434.969	4.45
435.325	4.44
435.681	4.45
436.036	4.45
436.392	4.47
436.748	4.49
437.104	4.47
437.459	4.45
437.815	4.46
438.171	4.46
438.526	4.44
438.882	4.43
439.237	4.43
439.593	4.43
439.948	4.41
440.304	4.39
440.659	4.38
441.014	4.38
441.369	4.38
441.725	4.38
442.08	4.37
442.435	4.39
442.79	4.37
443.145	4.34
443.5	4.32
443.855	4.3
444.21	4.28
444.565	4.28
444.92	4.27
445.275	4.27
445.629	4.26
445.984	4.26
446.339	4.26
446.693	4.26
447.048	4.25
447.403	4.25
447.757	4.24
448.112	4.24
448.466	4.23
448.82	4.22
449.175	4.21
449.529	4.22
449.883	4.18
450.238	4.19
450.592	4.19
450.946	4.2
451.3	4.21
451.654	4.19
452.008	4.19
452.362	4.2
452.716	4.2
453.07	4.21
453.424	4.21
453.778	4.22
454.132	4.21
454.486	4.21
454.839	4.22
455.193	4.21
455.547	4.18
455.9	4.21
456.254	4.21
456.607	4.21
456.961	4.2
457.314	4.21
457.668	4.22
458.021	4.23
458.375	4.23
458.728	4.25
459.081	4.26
459.434	4.25
459.787	4.27
460.141	4.27
460.494	4.28
460.847	4.29
461.2	4.29
461.553	4.32
461.906	4.32
462.259	4.32
462.611	4.35
462.964	4.37
463.317	4.36
463.67	4.37
464.022	4.39
464.375	4.4
464.728	4.41
465.08	4.42
465.433	4.44
465.785	4.46
466.138	4.46
466.49	4.47
466.843	4.51
467.195	4.5
467.547	4.49
467.899	4.5
468.252	4.5
468.604	4.49
468.956	4.49
469.308	4.5
469.66	4.51
470.012	4.52
470.364	4.52
470.716	4.54
471.068	4.55
471.42	4.54
471.772	4.55
472.123	4.58
472.475	4.58
472.827	4.55
473.178	4.57
473.53	4.56
473.882	4.55
474.233	4.55
474.585	4.52
474.936	4.53
475.288	4.5
475.639	4.48
475.99	4.49
476.342	4.48
476.693	4.48
477.044	4.48
477.395	4.45
477.746	4.46
478.097	4.44
478.448	4.43
478.8	4.43
479.15	4.42
479.501	4.4
479.852	4.4
480.203	4.42
480.554	4.41
480.905	4.4
481.255	4.42
481.606	4.41
481.957	4.43
482.307	4.43
482.658	4.45
483.009	4.45
483.359	4.45
483.709	4.45
484.06	4.46
484.41	4.48
484.761	4.49
485.111	4.5
485.461	4.51
485.811	4.52
486.162	4.53
486.512	4.53
486.862	4.54
487.212	4.55
487.562	4.56
487.912	4.57
488.262	4.58
488.612	4.59
488.961	4.61
489.311	4.63
489.661	4.65
490.011	4.65
490.36	4.67
490.71	4.69
491.06	4.7
491.409	4.7
491.759	4.71
492.108	4.7
492.458	4.7
492.807	4.72
493.157	4.73
493.506	4.76
493.855	4.77
494.204	4.78
494.554	4.8
494.903	4.82
495.252	4.84
495.601	4.86
495.95	4.89
496.299	4.9
496.648	4.91
496.997	4.95
497.346	4.99
497.695	5.01
498.043	5.04
498.392	5.07
498.741	5.1
499.09	5.14
499.438	5.2
499.787	5.26
500.135	5.3
500.484	5.34
500.832	5.39
501.181	5.44
501.529	5.52
501.878	5.6
502.226	5.67
502.574	5.74
502.923	5.79
503.271	5.84
503.619	5.9
503.967	5.93
504.315	5.96
504.663	6.02
505.011	6.11
505.359	6.18
505.707	6.24
506.055	6.33
506.403	6.38
506.751	6.45
507.098	6.51
507.446	6.56
507.794	6.63
508.141	6.72
508.489	6.8
508.837	6.85
509.184	6.9
509.531	6.95
509.879	7
510.226	7.09
510.574	7.18
510.921	7.26
511.268	7.36
511.616	7.47
511.963	7.54
512.31	7.61
512.657	7.67
513.004	7.76
513.351	7.85
513.698	7.96
514.045	8.07
514.392	8.18
514.739	8.29
515.086	8.4
515.432	8.49
515.779	8.6
516.126	8.72
516.473	8.81
516.819	8.93
517.166	9.02
517.512	9.13
517.859	9.23
518.205	9.31
518.552	9.41
518.898	9.5
519.245	9.61
519.591	9.72
519.937	9.81
520.283	9.97
520.629	10.08
520.976	10.2
521.322	10.3
521.668	10.42
522.014	10.57
522.36	10.71
522.706	10.86
523.052	11
523.398	11.17
523.743	11.34
524.089	11.52
524.435	11.7
524.781	11.86
525.126	12.02
525.472	12.18
525.817	12.31
526.163	12.43
526.509	12.53
526.854	12.62
527.199	12.75
527.545	12.84
527.89	12.93
528.235	13.04
528.581	13.16
528.926	13.27
529.271	13.37
529.616	13.47
529.961	13.57
530.306	13.69
530.651	13.79
530.996	13.92
531.341	14.05
531.686	14.17
532.031	14.31
532.376	14.44
532.721	14.58
533.065	14.73
533.41	14.85
533.755	15.01
534.099	15.18
534.444	15.34
534.788	15.49
535.133	15.67
535.477	15.81
535.822	15.98
536.166	16.15
536.51	16.34
536.855	16.55
537.199	16.77
537.543	16.97
537.887	17.17
538.231	17.37
538.576	17.56
538.92	17.78
539.264	17.96
539.608	18.12
539.951	18.24
540.295	18.41
540.639	18.63
540.983	18.81
541.327	18.94
541.671	19.09
542.014	19.25
542.358	19.41
542.701	19.57
543.045	19.68
543.389	19.82
543.732	19.97
544.075	20.11
544.419	20.27
544.762	20.42
545.105	20.6
545.449	20.77
545.792	20.95
546.135	21.11
546.478	21.31
546.821	21.52
547.165	21.77
547.508	21.96
547.851	22.11
548.194	22.31
548.536	22.55
548.879	22.74
549.222	22.96
549.565	23.13
549.908	23.32
550.25	23.58
550.593	23.8
550.936	24.03
551.278	24.25
551.621	24.42
551.963	24.66
552.306	24.89
552.648	25.1
552.991	25.32
553.333	25.57
553.675	25.77
554.017	25.97
554.36	26.21
554.702	26.45
555.044	26.67
555.386	26.93
555.728	27.16
556.07	27.39
556.412	27.59
556.754	27.84
557.096	28.07
557.438	28.29
557.78	28.54
558.121	28.76
558.463	29.01
558.805	29.31
559.147	29.57
559.488	29.79
559.83	30.04
560.171	30.26
560.513	30.45
560.854	30.72
561.196	31
561.537	31.25
561.878	31.48
562.22	31.77
562.561	32
562.902	32.2
563.243	32.45
563.584	32.7
563.925	32.96
564.266	33.19
564.607	33.47
564.948	33.72
565.289	33.95
565.63	34.18
565.971	34.44
566.312	34.69
566.653	34.89
566.993	35.1
567.334	35.33
567.675	35.61
568.015	35.9
568.356	36.17
568.696	36.42
569.037	36.64
569.377	36.86
569.718	37.07
570.058	37.3
570.398	37.54
570.739	37.8
571.079	38.05
571.419	38.37
571.759	38.57
572.099	38.82
572.439	39.04
572.779	39.25
573.119	39.44
573.459	39.6
573.799	39.89
574.139	40.16
574.479	40.39
574.819	40.62
575.158	40.8
575.498	40.95
575.838	41.21
576.177	41.42
576.517	41.62
576.856	41.84
577.196	42.13
577.535	42.4
577.875	42.56
578.214	42.8
578.553	42.94
578.893	43.17
579.232	43.33
579.571	43.53
579.91	43.84
580.25	44.07
580.589	44.33
580.928	44.51
581.267	44.74
581.606	44.98
581.945	45.15
582.283	45.36
582.622	45.59
582.961	45.67
583.3	45.87
583.639	46.12
583.977	46.34
584.316	46.46
584.654	46.63
584.993	46.89
585.332	47.06
585.67	47.35
586.008	47.55
586.347	47.8
586.685	48
587.024	48.16
587.362	48.37
587.7	48.6
588.038	48.83
588.376	48.94
588.715	49.13
589.053	49.33
589.391	49.54
589.729	49.75
590.067	50.04
590.404	50.27
590.742	50.52
591.08	50.71
591.418	50.93
591.756	51.08
592.093	51.3
592.431	51.53
592.769	51.57
593.106	51.73
593.444	51.87
593.781	52.01
594.119	52.2
594.456	52.35
594.793	52.44
595.131	52.58
595.468	52.7
595.805	52.79
596.143	52.88
596.48	52.97
596.817	53.04
597.154	53.06
597.491	53.13
597.828	53.14
598.165	53.26
598.502	53.38
598.839	53.48
599.176	53.55
599.512	53.62
599.849	53.69
600.186	53.85
600.523	53.96
600.859	54.11
601.196	54.18
601.532	54.27
601.869	54.36
602.205	54.46
602.542	54.53
602.878	54.69
603.215	54.81
603.551	54.92
603.887	54.99
604.223	55.09
604.56	55.19
604.896	55.28
605.232	55.34
605.568	55.42
605.904	55.55
606.24	55.61
606.576	55.71
606.912	55.89
607.248	55.94
607.583	56.07
607.919	56.16
608.255	56.2
608.591	56.28
608.926	56.4
609.262	56.49
609.597	56.6
609.933	56.64
610.268	56.72
610.604	56.75
610.939	56.82
611.275	56.83
611.61	56.9
611.945	56.97
612.281	57.03
612.616	57.06
612.951	57.12
613.286	57.25
613.621	57.23
613.956	57.32
614.291	57.38
614.626	57.31
614.961	57.38
615.296	57.41
615.631	57.48
615.966	57.48
616.3	57.59
616.635	57.67
616.97	57.7
617.304	57.73
617.639	57.9
617.973	58.03
618.308	58.16
618.642	58.19
618.977	58.28
619.311	58.25
619.646	58.26
619.98	58.36
620.314	58.27
620.648	58.4
620.983	58.32
621.317	58.34
621.651	58.49
621.985	58.57
622.319	58.69
622.653	58.72
622.987	58.83
623.321	58.86
623.655	58.89
623.988	58.94
624.322	58.9
624.656	58.81
624.99	58.86
625.323	58.83
625.657	58.98
625.99	59.02
626.324	59.17
626.657	59.26
626.991	59.24
627.324	59.33
627.658	59.41
627.991	59.43
628.324	59.49
628.657	59.59
628.991	59.53
629.324	59.55
629.657	59.5
629.99	59.51
630.323	59.45
630.656	59.49
630.989	59.55
631.322	59.64
631.655	59.67
631.987	59.65
632.32	59.64
632.653	59.56
632.986	59.52
633.318	59.58
633.651	59.62
633.984	59.59
634.316	59.59
634.649	59.59
634.981	59.71
635.313	59.77
635.646	59.64
635.978	59.77
636.31	59.84
636.643	59.86
636.975	59.86
637.307	59.92
637.639	60.04
637.971	60.01
638.303	60.16
638.635	60.3
638.967	60.48
639.299	60.53
639.631	60.51
639.963	60.53
640.295	60.42
640.626	60.44
640.958	60.47
641.29	60.52
641.621	60.47
641.953	60.45
642.285	60.42
642.616	60.59
642.948	60.48
643.279	60.41
643.61	60.49
643.942	60.49
644.273	60.47
644.604	60.32
644.936	60.44
645.267	60.41
645.598	60.22
645.929	60.1
646.26	60.24
646.591	60.34
646.922	60.41
647.253	60.53
647.584	60.55
647.915	60.67
648.245	60.85
648.576	60.95
648.907	60.93
649.238	60.88
649.568	60.87
649.899	60.97
650.229	61.05
650.56	61.15
650.89	61.11
651.221	61.19
651.551	61.33
651.882	61.33
652.212	61.24
652.542	61.38
652.872	61.45
653.203	61.46
653.533	61.42
653.863	61.48
654.193	61.46
654.523	61.42
654.853	61.44
655.183	61.26
655.513	61.35
655.843	61.37
656.172	61.5
656.502	61.33
656.832	61.44
657.162	61.53
657.491	61.5
657.821	61.61
658.15	61.72
658.48	61.62
658.809	61.53
659.139	61.59
659.468	61.59
659.798	61.55
660.127	61.61
660.456	61.59
660.785	61.54
661.115	61.47
661.444	61.61
661.773	61.59
662.102	61.61
662.431	61.43
662.76	61.58
663.089	61.6
663.418	61.77
663.747	61.67
664.076	61.5
664.404	61.55
664.733	61.66
665.062	61.65
665.39	61.8
665.719	61.83
666.048	61.87
666.376	61.94
666.705	62.02
667.033	61.97
667.362	62.12
667.69	62.27
668.018	62.36
668.347	62.15
668.675	62.28
669.003	62.25
669.331	62.34
669.659	62.28
669.987	62.28
670.315	62.36
670.643	62.29
670.971	62.23
671.299	62.29
671.627	62.24
671.955	62.17
672.283	62.11
672.61	62.12
672.938	62.12
673.266	62.22
673.593	62.08
673.921	62.08
674.249	62
674.576	62.01
674.904	62.13
675.231	62.17
675.558	62.09
675.886	62.32
676.213	62.42
676.54	62.4
676.867	62.33
677.195	62.33
677.522	62.51
677.849	62.65
678.176	62.64
678.503	62.58
678.83	62.49
679.157	62.48
679.484	62.52
679.81	62.51
680.137	62.55
680.464	62.62
680.791	62.56
681.117	62.54
681.444	62.41
681.771	62.36
682.097	62.46
682.424	62.57
682.75	62.42
683.077	62.41
683.403	62.66
683.729	62.85
684.056	62.7
684.382	62.58
684.708	62.57
685.034	62.52
685.36	62.64
685.686	62.73
686.012	62.68
686.339	62.46
686.664	62.34
686.99	62.12
687.316	62.27
687.642	62.36
687.968	62.46
688.294	62.53
688.619	62.6
688.945	62.68
689.271	62.5
689.596	62.53
689.922	62.45
690.247	62.04
690.573	61.83
690.898	61.92
691.224	61.9
691.549	61.81
691.874	61.96
692.2	61.8
692.525	61.81
692.85	62.11
693.175	62.43
693.5	62.54
693.825	62.64
694.15	62.61
694.475	62.62
694.8	62.84
695.125	62.9
695.45	63.02
695.775	62.93
696.099	63.05
696.424	63.05
696.749	63.19
697.073	63.36
697.398	63.36
697.723	63.41
698.047	63.43
698.372	63.68
698.696	63.66
699.02	63.62
699.345	63.59
699.669	63.52
699.993	63.47
700.318	63.66
700.642	63.56
700.966	63.41
701.29	63.47
701.614	63.29
701.938	63.31
702.262	63.12
702.586	63.18
702.91	63.06
703.234	63.09
703.557	62.86
703.881	62.86
704.205	62.82
704.529	62.78
704.852	62.8
705.176	62.63
705.499	62.76
705.823	62.97
706.146	63
706.47	63.05
706.793	62.84
707.117	62.69
707.44	62.95
707.763	63.06
708.086	63.08
708.409	63.01
708.733	62.86
709.056	62.83
709.379	62.86
709.702	63.05
710.025	62.99
710.348	63.06
710.671	62.99
710.993	63.21
711.316	63.5
711.639	63.73
711.962	63.81
712.284	63.56
712.607	63.55
712.93	63.61
713.252	63.46
713.575	63.64
713.897	63.64
714.22	63.7
714.542	63.84
714.864	63.77
715.187	63.95
715.509	64.15
715.831	64.37
716.153	64.31
716.475	64.19
716.798	64.37
717.12	64.28
717.442	64.47
717.764	64.56
718.085	64.41
718.407	64.4
718.729	64.12
719.051	64.05
719.373	64.06
719.695	63.93
720.016	63.93
720.338	64.05
720.659	64.07
720.981	63.85
721.302	63.35
721.624	63.39
721.945	63.42
722.267	63.43
722.588	63.23
722.909	63.22
723.231	63.3
723.552	63.22
723.873	63.53
724.194	63.16
724.515	63.01
724.836	62.67
725.157	62.36
725.478	62.55
725.799	62.78
726.12	62.87
726.441	63.02
726.762	63.39
727.083	63.32
727.403	63.28
727.724	63.54
728.045	63.77
728.365	63.8
728.686	63.89
729.006	63.78
729.327	63.96
729.647	64.14
729.967	64.07
730.288	64.14
730.608	64.16
730.928	64.31
731.249	64.14
731.569	64.39
731.889	64.55
732.209	64.6
732.529	64.41
732.849	64.41
733.169	64.41
733.489	64.27
733.809	64.15
734.129	64.09
734.448	63.86
734.768	64.07
735.088	64.27
735.408	63.89
735.727	64.18
736.047	63.79
736.366	63.66
736.686	63.6
737.005	63.78
737.325	63.53
737.644	63.37
737.963	63.43
738.283	63.32
738.602	63.35
738.921	63.35
739.24	63.65
739.56	63.56
739.879	63.53
740.198	63.19
740.517	63.56
740.836	63.72
741.155	63.76
741.473	63.45
741.792	63.38
742.111	63.69
742.43	63.54
742.748	63.95
743.067	63.91
743.386	63.7
743.704	63.36
744.023	63.62
744.341	63.92
744.66	63.81
744.978	64.08
745.297	64.24
745.615	64.31
745.933	64.28
746.252	64.37
746.57	64.58
746.888	64.96
747.206	64.89
747.524	64.58
747.842	64.73
748.16	64.93
748.478	64.7
748.796	64.9
749.114	64.34
749.432	64.31
749.749	64.14
750.067	64.62
750.385	64.74
750.703	64.39
751.02	64.37
751.338	64.51
751.655	64.3
751.973	64.05
752.29	64.13
752.608	63.84
752.925	63.55
753.242	63.6
753.56	63.39
753.877	62.74
754.194	62.7
754.511	62.37
754.828	62.25
755.145	62.51
755.462	61.97
755.779	62.43
756.096	62.09
756.413	62.09
756.73	61.7
757.047	61.81
757.364	62.11
757.68	62.23
757.997	62.28
758.314	62.75
758.63	63.11
758.947	63.18
759.264	63.38
759.58	63.56
759.896	63.39
760.213	63.59
760.529	64.28
760.846	64.73
761.162	64.69
761.478	64.81
761.794	64.34
762.11	64.48
762.426	64.22
762.743	64.24
763.059	64.65
763.375	64.84
763.69	64.74
764.006	64.76
764.322	64.38
764.638	64.6
764.954	64.17
765.27	63.88
765.585	63.71
765.901	63.81
766.216	63.45
766.532	63.18
766.848	62.84
767.163	62.38
767.478	62.03
767.794	62.4
768.109	62.2
768.424	62.45
768.74	62.23
769.055	62.52
769.37	62.91
769.685	62.52
770	62.44
770.315	62.56
770.63	62.44
770.945	62.59
771.26	62.31
771.575	62.84
771.89	62.86
772.205	62.83
772.52	62.8
772.834	63.06
773.149	63.6
773.464	64.14
773.778	64.37
774.093	64.55
774.407	64.46
774.722	64.13
775.036	64.13
775.351	64.35
775.665	64.35
775.979	63.97
776.293	63.66
776.608	63.75
776.922	63.34
777.236	63
777.55	63.23
777.864	62.61
778.178	62.21
778.492	62.2
778.806	61.85
779.12	62.09
779.434	62.35
779.747	62
780.061	61.58
780.375	61.8
780.689	61.81
781.002	61.77
781.316	62.66
781.629	62.85
781.943	62.75
782.256	62.44
782.57	62.58
782.883	63.12
783.196	63.4
783.51	63.23
783.823	63.42
784.136	63.7
784.449	64.34
784.762	64.81
785.075	64.8
785.388	65.36
785.701	64.72
786.014	64.72
786.327	64.64
786.64	65.51
786.953	65.21
787.266	65.08
787.578	64.82
787.891	64.19
788.204	64.19
788.516	63.93
788.829	64.24
789.141	64.03
789.454	63.75
789.766	63.13
790.079	63.29
790.391	63.4
790.703	63.11
791.016	62.88
791.328	62.63
791.64	62.24
791.952	62.33
792.264	62.86
792.576	62.52
792.888	62.66
793.2	61.55
793.512	61.9
793.824	62.12
794.136	62.45
794.448	62.82
794.76	62.59
795.071	62.96
795.383	62.46
795.695	62.36
796.006	62.51
796.318	62.67
796.629	63.58
796.941	63.44
797.252	63.13
797.564	63.08
797.875	63.09
798.186	62.91
798.497	62.65
798.809	61.75
799.12	61.76
799.431	61.57
799.742	61.96
800.053	61.41
800.364	61.43
800.675	61.33
800.986	60.81
801.297	60.65
801.608	60.99
801.918	61.18
802.229	61.01
802.54	61.09
802.851	61.23
803.161	60.74
803.472	60.63
803.782	60.44
804.093	60.47
804.403	60.41
804.714	60.9
805.024	60.3
805.334	60.84
805.645	62.01
805.955	61.83
806.265	61.49
806.575	61.41
806.885	60.71
807.195	60.53
807.505	60.83
807.815	61
808.125	60.53
808.435	60.3
808.745	60.95
809.055	60.68
809.365	61.17
809.674	61.06
809.984	61.26
810.294	61.83
810.603	62.44
810.913	62.59
811.222	62.92
811.532	64.13
811.841	64.01
812.151	62.71
812.46	62.79
812.769	62.49
813.079	62.74
813.388	62.52
813.697	62.36
814.006	62.75
814.315	62.17
814.624	62.6
814.933	62.43
815.242	61.7
815.551	62.01
815.86	61.78
816.169	62.09
816.478	62.59
816.786	62.57
817.095	62.14
817.404	62.95
817.712	62.85
818.021	62.28
818.33	62.42
818.638	63.24
818.947	63.7
819.255	64.28
819.563	63.93
819.872	64.8
820.18	65.11
820.488	65.2
820.796	65.75
821.105	66.04
821.413	66.3
821.721	66.7
822.029	66.75
822.337	66.68
822.645	66.45
822.953	66.44
823.26	66.56
823.568	66.81
823.876	66.47
824.184	66.48
824.491	66.56
824.799	66.66
825.107	66.75
825.414	66.77
825.722	66.57
826.029	66.89
826.337	66.89
826.644	66.56
826.951	66.54
827.259	66.24
827.566	65.94
827.873	66.11
828.18	65.89
828.488	65.61
828.795	65.55
829.102	65.58
829.409	65.46
829.716	65.1
830.023	64.71
830.329	64.89
830.636	64.87
830.943	64.83
831.25	64.5
831.557	64.16
831.863	64.07
832.17	64.57
832.476	64.52
832.783	64.25
833.089	64.93
833.396	64.45
833.702	64.58
834.009	64.99
834.315	64.38
834.621	64.47
834.928	65.14
835.234	65.3
835.54	65.18
835.846	64.91
836.152	64.97
836.458	65
836.764	64.67
837.07	64.72
837.376	64.5
837.682	63.97
837.988	63.79
838.293	63.99
838.599	63.83
838.905	63.7
839.211	63.44
839.516	63.65
839.822	64.86
840.127	64.95
840.433	64.48
840.738	65.49
841.044	65.41
841.349	64.21
841.654	63.38
841.959	62.82
842.265	62.09
842.57	61.35
842.875	61.33
843.18	60.97
843.485	61.21
843.79	60.56
844.095	62.07
844.4	62.94
844.705	62.48
845.01	62.61
845.315	62.22
845.619	62.12
845.924	60.48
846.229	59.63
846.533	58.99
846.838	57.78
847.142	55.42
847.447	54.63
847.751	56.03
848.056	56.35
848.36	58.6
848.664	58.77
848.969	59.71
849.273	57.27
849.577	57.16
849.881	56.45
850.185	57.74
850.489	57.04
850.794	54.85
851.097	55.07
851.401	54.42
851.705	54.28
852.009	54.07
852.313	56.07
852.617	53.3
852.92	53.96
853.224	55.38
853.528	56.5
853.831	58.1
854.135	57.71
854.438	57.46
854.742	56.76
855.045	58.22
855.349	56.24
855.652	58.46
855.955	58.12
856.259	58.09
856.562	58.9
856.865	60.77
857.168	61.47
857.471	60.73
857.774	60.5
858.077	60.44
858.38	59.9
858.683	59.73
858.986	65.16
859.289	66.07
859.592	65.41
859.894	66.06
860.197	63.99
860.5	63.59
860.802	62.8
861.105	61.46
861.407	61.73
861.71	62.86
862.012	62.82
862.315	63.42
862.617	62.15
862.919	60.21
863.222	58.47
863.524	56.85
863.826	57.93
864.128	56.16
864.43	57.35
864.732	58.17
865.034	56.11
865.336	54.59
865.638	53.6
865.94	53.23
866.242	51.15
866.544	52.67
866.846	52.58
867.147	53.75
867.449	54.75
867.751	55.61
868.052	56.35
868.354	55.87
868.655	55.72
868.957	56.44
869.258	57.59
869.56	57.66
869.861	60.21
870.162	59.74
870.463	60.99
870.765	59.77
871.066	60.41
871.367	62.98
871.668	62.2
871.969	62.44
872.27	61.51
872.571	62.06
872.872	61.27
873.173	61.11
873.473	62.67
873.774	61.1
874.075	60.55
874.376	62.75
874.676	62.23
874.977	63.16
875.277	60.95
875.578	60.32
875.878	60.28
876.179	59.64
876.479	58.8
876.78	61.06
877.08	61.86
877.38	61.55
877.68	58.55
877.981	56.68
878.281	56.68
878.581	58.67
