Data from BA55519_Reflection_00015.txt Node
Date: Tue Nov 19 11:53:03 EST 2019
User: vgr7
Spectrometer: USB2G7710
Scans to average: 3
Trigger mode: 4
Integration Time (sec): 2.000000E-2
Electric dark correction enabled: true
Boxcar width: 10
XAxis mode: Wavelengths
Number of Pixels in Spectrum: 2048
>>>>>Begin Spectral Data<<<<<
177.721	-24.85
178.105	-7.74
178.488	-4.37
178.871	4.98
179.254	12.96
179.636	44.67
180.019	126.1
180.402	188.24
180.785	-666.67
181.168	-59.2
181.55	-86.51
181.933	-273.02
182.316	-1019.05
182.698	-270.37
183.081	40.97
183.463	-42.47
183.846	-37.13
184.228	-13.55
184.611	-29.78
184.993	3.6
185.376	-10.54
185.758	10.74
186.14	18.45
186.522	16.16
186.904	25.87
187.287	30.7
187.669	28.4
188.051	36.83
188.433	5.36
188.815	16.31
189.197	21.32
189.579	49.14
189.961	12.21
190.342	2.03
190.724	-8.36
191.106	-19.37
191.488	-14.58
191.869	-10.66
192.251	-19.98
192.633	-7.08
193.014	-6.61
193.396	-1.31
193.777	-10.35
194.159	-10.05
194.54	1.1
194.922	-4.4
195.303	-0.75
195.684	2.26
196.065	-0.3
196.447	10.17
196.828	3.93
197.209	4.22
197.59	-1.83
197.971	15.38
198.352	16.67
198.733	20.34
199.114	20.56
199.495	23.36
199.876	19.82
200.257	24.09
200.638	23.21
201.018	15.09
201.399	11.37
201.78	24.91
202.16	23.74
202.541	4.43
202.922	3.15
203.302	3.58
203.683	-10.7
204.063	-4.53
204.444	-0.53
204.824	5.28
205.204	11.13
205.585	11.45
205.965	4.45
206.345	7.88
206.725	7.76
207.106	17.02
207.486	10.16
207.866	12.83
208.246	15.8
208.626	10.2
209.006	18.67
209.386	15.25
209.766	9.17
210.145	21.27
210.525	38.76
210.905	38.23
211.285	34.12
211.664	49.83
212.044	55.65
212.424	55.46
212.803	47.01
213.183	40.44
213.562	49.22
213.942	47.85
214.321	42.37
214.701	56.9
215.08	51.51
215.459	52.9
215.838	55.11
216.218	59.97
216.597	64.02
216.976	56.78
217.355	60.49
217.734	66.19
218.113	62.54
218.492	53.22
218.871	57.2
219.25	54.72
219.629	37.29
220.008	18.27
220.387	13.12
220.766	24.65
221.144	22.89
221.523	14.73
221.902	27.5
222.28	26.33
222.659	26.05
223.037	38.98
223.416	39.77
223.794	45.8
224.173	35.96
224.551	27.28
224.929	23.09
225.308	23.53
225.686	19.45
226.064	10.12
226.442	11.64
226.821	8.41
227.199	5.98
227.577	8.18
227.955	13.01
228.333	12.94
228.711	15.02
229.089	16.67
229.467	14.81
229.845	14.28
230.222	15.42
230.6	11.46
230.978	10.25
231.356	8.43
231.733	6.19
232.111	9.25
232.488	8.99
232.866	10.74
233.243	13.19
233.621	13.55
233.998	17.75
234.376	15.02
234.753	15.44
235.13	17.18
235.508	18.25
235.885	17.39
236.262	15.86
236.639	14.09
237.016	11.18
237.393	10.03
237.77	8.22
238.147	7.3
238.524	7.04
238.901	6.26
239.278	5.13
239.655	5.02
240.032	4.79
240.409	5.6
240.785	5.45
241.162	3.88
241.539	3.37
241.915	2.91
242.292	2.41
242.668	2.88
243.045	3.18
243.421	3.98
243.798	3.96
244.174	4.01
244.551	3.78
244.927	4.07
245.303	4.04
245.679	4.18
246.056	4.42
246.432	4.46
246.808	4.26
247.184	4.66
247.56	4.74
247.936	4.88
248.312	4.54
248.688	4.37
249.064	4.4
249.44	4.57
249.815	4.58
250.191	4.95
250.567	4.75
250.943	4.65
251.318	4.18
251.694	4.11
252.069	4.31
252.445	4.83
252.82	5.03
253.196	5.18
253.571	5.28
253.947	4.87
254.322	4.37
254.697	4.64
255.073	4.23
255.448	3.91
255.823	3.56
256.198	3.57
256.573	3.56
256.948	3.89
257.323	3.79
257.698	3.7
258.073	3.57
258.448	3.59
258.823	3.57
259.198	3.64
259.573	3.59
259.948	3.52
260.322	3.26
260.697	3.24
261.072	3.25
261.446	3.08
261.821	3.22
262.195	3.48
262.57	3.57
262.944	3.68
263.319	3.74
263.693	3.66
264.067	3.8
264.442	3.8
264.816	3.78
265.19	3.64
265.564	3.55
265.938	3.46
266.313	3.32
266.687	3.31
267.061	3.2
267.435	3.33
267.809	3.18
268.183	3.16
268.556	3.07
268.93	3.24
269.304	3.17
269.678	3.24
270.051	3.2
270.425	2.96
270.799	3.03
271.172	3.13
271.546	3.28
271.919	3.07
272.293	3.22
272.666	3.21
273.04	3.32
273.413	3.42
273.787	3.61
274.16	3.61
274.533	3.78
274.906	3.95
275.279	3.85
275.653	3.95
276.026	4.09
276.399	4.05
276.772	3.99
277.145	4.2
277.518	3.99
277.891	3.92
278.263	4.08
278.636	4.14
279.009	4.02
279.382	3.94
279.755	4.2
280.127	3.97
280.5	3.77
280.872	3.85
281.245	3.82
281.617	3.75
281.99	3.95
282.362	3.82
282.735	3.5
283.107	3.53
283.479	3.65
283.852	3.65
284.224	3.83
284.596	3.76
284.968	3.72
285.34	3.71
285.713	3.84
286.085	3.8
286.457	3.7
286.829	3.79
287.201	3.82
287.572	3.76
287.944	3.91
288.316	4.09
288.688	4.16
289.06	4.13
289.431	4.15
289.803	4.17
290.175	4.07
290.546	4.14
290.918	4.13
291.289	4.07
291.661	4.04
292.032	3.78
292.403	3.83
292.775	3.76
293.146	3.91
293.517	3.7
293.889	3.75
294.26	3.84
294.631	3.85
295.002	3.86
295.373	3.81
295.744	3.78
296.115	3.6
296.486	3.58
296.857	3.62
297.228	3.48
297.599	3.4
297.97	3.58
298.34	3.66
298.711	3.77
299.082	3.74
299.452	3.72
299.823	3.89
300.194	4.02
300.564	4.1
300.935	4.05
301.305	4.17
301.676	4.09
302.046	3.97
302.416	3.9
302.787	4.17
303.157	4.24
303.527	4.25
303.897	4.5
304.267	4.59
304.637	4.6
305.008	4.82
305.378	4.88
305.748	4.89
306.117	4.95
306.487	4.91
306.857	5.15
307.227	5.47
307.597	5.58
307.967	5.5
308.336	5.56
308.706	5.53
309.076	5.6
309.445	5.7
309.815	5.94
310.184	6.04
310.554	5.87
310.923	5.86
311.293	5.92
311.662	5.96
312.031	5.8
312.401	5.86
312.77	5.81
313.139	5.97
313.508	5.94
313.877	5.98
314.246	6.11
314.616	6
314.985	5.84
315.353	5.75
315.722	5.84
316.091	6.03
316.46	6.21
316.829	6.28
317.198	6.35
317.567	6.27
317.935	6.22
318.304	6.49
318.672	6.69
319.041	6.78
319.41	6.83
319.778	7.17
320.147	7.11
320.515	7.22
320.883	7.18
321.252	7.38
321.62	7.58
321.988	7.7
322.357	7.82
322.725	7.87
323.093	7.93
323.461	7.96
323.829	7.93
324.197	7.94
324.565	8.03
324.933	8
325.301	8.04
325.669	8.16
326.037	8.16
326.405	8.07
326.772	7.99
327.14	7.95
327.508	7.92
327.875	8.06
328.243	8.26
328.61	8.31
328.978	8.22
329.346	8.11
329.713	8.06
330.08	8.1
330.448	8.12
330.815	8.21
331.182	8.15
331.55	8.18
331.917	8.16
332.284	8.13
332.651	8.37
333.018	8.21
333.385	8.29
333.752	8.12
334.119	8.15
334.486	8.27
334.853	8.21
335.22	8.18
335.587	8.15
335.954	7.92
336.32	8.01
336.687	8
337.054	7.99
337.42	8.04
337.787	8
338.153	8.05
338.52	8.1
338.886	8.12
339.253	8.11
339.619	8.4
339.986	8.37
340.352	8.25
340.718	8.52
341.084	8.59
341.451	8.62
341.817	8.6
342.183	8.59
342.549	8.83
342.915	8.97
343.281	9.09
343.647	9.34
344.013	9.34
344.379	9.31
344.745	9.52
345.11	9.47
345.476	9.47
345.842	9.4
346.208	9.51
346.573	9.63
346.939	9.63
347.304	9.5
347.67	9.56
348.035	9.56
348.401	9.53
348.766	9.51
349.132	9.53
349.497	9.57
349.862	9.62
350.228	9.55
350.593	9.44
350.958	9.5
351.323	9.29
351.688	9.28
352.053	9.4
352.418	9.21
352.783	9.23
353.148	9.28
353.513	9.26
353.878	9.13
354.243	9.08
354.608	9.09
354.972	8.98
355.337	8.85
355.702	8.87
356.066	8.81
356.431	8.8
356.795	8.78
357.16	8.79
357.524	8.75
357.889	8.59
358.253	8.65
358.618	8.61
358.982	8.62
359.346	8.54
359.71	8.5
360.075	8.6
360.439	8.6
360.803	8.56
361.167	8.6
361.531	8.55
361.895	8.5
362.259	8.51
362.623	8.51
362.987	8.55
363.351	8.55
363.714	8.51
364.078	8.49
364.442	8.49
364.806	8.44
365.169	8.4
365.533	8.49
365.896	8.46
366.26	8.38
366.623	8.39
366.987	8.43
367.35	8.41
367.714	8.34
368.077	8.22
368.44	8.15
368.803	8.06
369.167	7.92
369.53	7.9
369.893	7.81
370.256	7.77
370.619	7.71
370.982	7.69
371.345	7.69
371.708	7.56
372.071	7.39
372.434	7.3
372.797	7.24
373.159	7.14
373.522	7.01
373.885	6.97
374.247	6.91
374.61	6.8
374.973	6.7
375.335	6.63
375.698	6.58
376.06	6.53
376.423	6.51
376.785	6.58
377.147	6.54
377.51	6.46
377.872	6.4
378.234	6.37
378.596	6.26
378.958	6.24
379.321	6.21
379.683	6.25
380.045	6.25
380.407	6.19
380.769	6.16
381.13	6.11
381.492	6.07
381.854	6.03
382.216	6.01
382.578	6.03
382.939	5.94
383.301	5.93
383.663	5.87
384.024	5.8
384.386	5.71
384.747	5.66
385.109	5.65
385.47	5.68
385.832	5.65
386.193	5.63
386.554	5.5
386.916	5.47
387.277	5.41
387.638	5.34
387.999	5.31
388.36	5.24
388.721	5.21
389.082	5.15
389.443	5.13
389.804	5.13
390.165	5.09
390.526	5.06
390.887	5
391.248	4.98
391.609	5
391.969	4.97
392.33	4.95
392.691	4.92
393.051	4.83
393.412	4.81
393.772	4.82
394.133	4.78
394.493	4.73
394.854	4.68
395.214	4.67
395.574	4.62
395.935	4.62
396.295	4.59
396.655	4.55
397.015	4.49
397.376	4.4
397.736	4.32
398.096	4.29
398.456	4.3
398.816	4.25
399.176	4.22
399.535	4.24
399.895	4.2
400.255	4.16
400.615	4.14
400.975	4.07
401.334	4.04
401.694	4.07
402.054	4.05
402.413	4.03
402.773	4.02
403.132	4
403.492	3.98
403.851	3.97
404.211	3.97
404.57	3.98
404.929	3.99
405.288	3.99
405.648	3.98
406.007	3.96
406.366	3.98
406.725	3.94
407.084	3.92
407.443	3.95
407.802	3.96
408.161	3.98
408.52	4
408.879	3.98
409.238	3.95
409.596	3.93
409.955	3.92
410.314	3.9
410.673	3.93
411.031	3.91
411.39	3.91
411.748	3.92
412.107	3.87
412.465	3.82
412.824	3.81
413.182	3.79
413.54	3.78
413.899	3.73
414.257	3.72
414.615	3.68
414.974	3.63
415.332	3.58
415.69	3.56
416.048	3.54
416.406	3.51
416.764	3.48
417.122	3.47
417.48	3.46
417.838	3.44
418.195	3.42
418.553	3.4
418.911	3.36
419.269	3.32
419.626	3.32
419.984	3.3
420.342	3.29
420.699	3.27
421.057	3.26
421.414	3.27
421.772	3.26
422.129	3.26
422.486	3.23
422.844	3.21
423.201	3.21
423.558	3.2
423.915	3.21
424.273	3.21
424.63	3.22
424.987	3.22
425.344	3.21
425.701	3.2
426.058	3.21
426.415	3.22
426.772	3.23
427.128	3.21
427.485	3.22
427.842	3.22
428.199	3.24
428.555	3.21
428.912	3.2
429.269	3.18
429.625	3.18
429.982	3.19
430.338	3.21
430.695	3.18
431.051	3.17
431.407	3.16
431.764	3.15
432.12	3.14
432.476	3.16
432.832	3.15
433.189	3.12
433.545	3.1
433.901	3.1
434.257	3.11
434.613	3.12
434.969	3.15
435.325	3.16
435.681	3.16
436.036	3.17
436.392	3.16
436.748	3.18
437.104	3.17
437.459	3.18
437.815	3.17
438.171	3.16
438.526	3.18
438.882	3.15
439.237	3.17
439.593	3.17
439.948	3.14
440.304	3.14
440.659	3.14
441.014	3.15
441.369	3.17
441.725	3.16
442.08	3.14
442.435	3.13
442.79	3.11
443.145	3.1
443.5	3.1
443.855	3.09
444.21	3.07
444.565	3.07
444.92	3.05
445.275	3.03
445.629	3.04
445.984	3.01
446.339	3.01
446.693	3
447.048	3.01
447.403	3.01
447.757	2.99
448.112	3
448.466	2.99
448.82	2.98
449.175	2.98
449.529	2.97
449.883	2.95
450.238	2.97
450.592	2.96
450.946	2.96
451.3	2.97
451.654	2.96
452.008	2.95
452.362	2.97
452.716	2.99
453.07	2.99
453.424	3.01
453.778	3.03
454.132	3.02
454.486	3
454.839	3.01
455.193	3.06
455.547	3.05
455.9	3.06
456.254	3.05
456.607	3.05
456.961	3.05
457.314	3.04
457.668	3.05
458.021	3.06
458.375	3.06
458.728	3.06
459.081	3.06
459.434	3.08
459.787	3.1
460.141	3.11
460.494	3.12
460.847	3.13
461.2	3.11
461.553	3.13
461.906	3.13
462.259	3.14
462.611	3.11
462.964	3.14
463.317	3.12
463.67	3.15
464.022	3.16
464.375	3.18
464.728	3.21
465.08	3.21
465.433	3.21
465.785	3.24
466.138	3.27
466.49	3.3
466.843	3.31
467.195	3.31
467.547	3.31
467.899	3.32
468.252	3.33
468.604	3.38
468.956	3.37
469.308	3.38
469.66	3.39
470.012	3.42
470.364	3.43
470.716	3.47
471.068	3.45
471.42	3.47
471.772	3.48
472.123	3.5
472.475	3.53
472.827	3.53
473.178	3.51
473.53	3.52
473.882	3.51
474.233	3.5
474.585	3.49
474.936	3.47
475.288	3.48
475.639	3.47
475.99	3.44
476.342	3.45
476.693	3.45
477.044	3.45
477.395	3.45
477.746	3.41
478.097	3.38
478.448	3.35
478.8	3.32
479.15	3.3
479.501	3.26
479.852	3.23
480.203	3.21
480.554	3.19
480.905	3.17
481.255	3.15
481.606	3.14
481.957	3.13
482.307	3.13
482.658	3.12
483.009	3.11
483.359	3.11
483.709	3.11
484.06	3.11
484.41	3.11
484.761	3.1
485.111	3.11
485.461	3.11
485.811	3.11
486.162	3.12
486.512	3.13
486.862	3.14
487.212	3.15
487.562	3.16
487.912	3.16
488.262	3.17
488.612	3.19
488.961	3.2
489.311	3.21
489.661	3.22
490.011	3.22
490.36	3.23
490.71	3.25
491.06	3.26
491.409	3.28
491.759	3.3
492.108	3.32
492.458	3.33
492.807	3.35
493.157	3.39
493.506	3.42
493.855	3.43
494.204	3.47
494.554	3.5
494.903	3.54
495.252	3.57
495.601	3.63
495.95	3.66
496.299	3.68
496.648	3.73
496.997	3.77
497.346	3.83
497.695	3.88
498.043	3.91
498.392	3.93
498.741	3.95
499.09	3.98
499.438	4.05
499.787	4.08
500.135	4.11
500.484	4.13
500.832	4.13
501.181	4.19
501.529	4.24
501.878	4.28
502.226	4.33
502.574	4.36
502.923	4.4
503.271	4.44
503.619	4.53
503.967	4.55
504.315	4.6
504.663	4.64
505.011	4.66
505.359	4.72
505.707	4.76
506.055	4.84
506.403	4.9
506.751	4.92
507.098	4.99
507.446	5.05
507.794	5.11
508.141	5.19
508.489	5.27
508.837	5.32
509.184	5.37
509.531	5.42
509.879	5.47
510.226	5.52
510.574	5.59
510.921	5.66
511.268	5.74
511.616	5.82
511.963	5.9
512.31	6.02
512.657	6.08
513.004	6.16
513.351	6.24
513.698	6.32
514.045	6.41
514.392	6.5
514.739	6.6
515.086	6.68
515.432	6.77
515.779	6.83
516.126	6.92
516.473	7.01
516.819	7.1
517.166	7.21
517.512	7.28
517.859	7.37
518.205	7.45
518.552	7.54
518.898	7.64
519.245	7.74
519.591	7.82
519.937	7.91
520.283	8.02
520.629	8.12
520.976	8.25
521.322	8.37
521.668	8.48
522.014	8.59
522.36	8.72
522.706	8.84
523.052	8.97
523.398	9.08
523.743	9.17
524.089	9.28
524.435	9.35
524.781	9.44
525.126	9.51
525.472	9.59
525.817	9.63
526.163	9.69
526.509	9.74
526.854	9.79
527.199	9.88
527.545	9.95
527.89	10.01
528.235	10.08
528.581	10.16
528.926	10.24
529.271	10.32
529.616	10.43
529.961	10.52
530.306	10.62
530.651	10.73
530.996	10.87
531.341	11.02
531.686	11.17
532.031	11.35
532.376	11.51
532.721	11.68
533.065	11.87
533.41	12.08
533.755	12.29
534.099	12.52
534.444	12.7
534.788	12.89
535.133	13.08
535.477	13.26
535.822	13.47
536.166	13.68
536.51	13.88
536.855	14.08
537.199	14.27
537.543	14.46
537.887	14.64
538.231	14.83
538.576	14.97
538.92	15.17
539.264	15.28
539.608	15.43
539.951	15.58
540.295	15.72
540.639	15.86
540.983	16.03
541.327	16.17
541.671	16.33
542.014	16.53
542.358	16.71
542.701	16.9
543.045	17.06
543.389	17.23
543.732	17.43
544.075	17.62
544.419	17.87
544.762	18.13
545.105	18.43
545.449	18.71
545.792	19.07
546.135	19.4
546.478	19.8
546.821	20.19
547.165	20.63
547.508	21.03
547.851	21.42
548.194	21.77
548.536	22.13
548.879	22.54
549.222	22.92
549.565	23.3
549.908	23.66
550.25	24.05
550.593	24.46
550.936	24.85
551.278	25.28
551.621	25.61
551.963	26.01
552.306	26.39
552.648	26.82
552.991	27.12
553.333	27.48
553.675	27.83
554.017	28.2
554.36	28.5
554.702	28.84
555.044	29.16
555.386	29.48
555.728	29.8
556.07	30.16
556.412	30.46
556.754	30.78
557.096	31.1
557.438	31.45
557.78	31.78
558.121	32.12
558.463	32.45
558.805	32.89
559.147	33.2
559.488	33.54
559.83	33.8
560.171	34.13
560.513	34.42
560.854	34.65
561.196	34.9
561.537	35.14
561.878	35.39
562.22	35.63
562.561	35.86
562.902	36.13
563.243	36.33
563.584	36.57
563.925	36.87
564.266	37.09
564.607	37.39
564.948	37.67
565.289	37.86
565.63	38.13
565.971	38.33
566.312	38.51
566.653	38.75
566.993	38.92
567.334	39.14
567.675	39.37
568.015	39.61
568.356	39.78
568.696	40.03
569.037	40.25
569.377	40.53
569.718	40.78
570.058	41.05
570.398	41.29
570.739	41.55
571.079	41.75
571.419	42.01
571.759	42.17
572.099	42.32
572.439	42.64
572.779	42.82
573.119	43.07
573.459	43.37
573.799	43.69
574.139	44.06
574.479	44.43
574.819	44.75
575.158	45.15
575.498	45.57
575.838	46.01
576.177	46.47
576.517	46.92
576.856	47.46
577.196	48
577.535	48.56
577.875	49.1
578.214	49.68
578.553	50.23
578.893	50.81
579.232	51.47
579.571	52.06
579.91	52.73
580.25	53.33
580.589	53.93
580.928	54.43
581.267	54.95
581.606	55.41
581.945	55.93
582.283	56.37
582.622	56.8
582.961	57.07
583.3	57.47
583.639	57.77
583.977	57.96
584.316	58.06
584.654	58.26
584.993	58.34
585.332	58.5
585.67	58.65
586.008	58.83
586.347	58.98
586.685	59.02
587.024	59.15
587.362	59.21
587.7	59.31
588.038	59.4
588.376	59.5
588.715	59.62
589.053	59.75
589.391	59.8
589.729	59.87
590.067	60.11
590.404	60.13
590.742	60.28
591.08	60.44
591.418	60.53
591.756	60.54
592.093	60.61
592.431	60.57
592.769	60.54
593.106	60.59
593.444	60.51
593.781	60.5
594.119	60.43
594.456	60.42
594.793	60.36
595.131	60.36
595.468	60.35
595.805	60.29
596.143	60.34
596.48	60.49
596.817	60.69
597.154	60.69
597.491	60.88
597.828	61.03
598.165	61.16
598.502	61.36
598.839	61.55
599.176	61.72
599.512	61.84
599.849	61.91
600.186	61.91
600.523	61.96
600.859	62.1
601.196	62.14
601.532	62.18
601.869	62.26
602.205	62.24
602.542	62.27
602.878	62.36
603.215	62.43
603.551	62.31
603.887	62.16
604.223	62.2
604.56	62.18
604.896	62.04
605.232	61.99
605.568	61.93
605.904	61.9
606.24	61.94
606.576	62.02
606.912	62.19
607.248	62.38
607.583	62.6
607.919	62.71
608.255	62.94
608.591	63.24
608.926	63.54
609.262	63.9
609.597	64.2
609.933	64.48
610.268	64.67
610.604	65
610.939	65.39
611.275	65.61
611.61	65.87
611.945	66.3
612.281	66.69
612.616	67.05
612.951	67.54
613.286	67.99
613.621	68.45
613.956	68.95
614.291	69.44
614.626	69.84
614.961	70.28
615.296	70.58
615.631	70.86
615.966	70.99
616.3	71.22
616.635	71.37
616.97	71.44
617.304	71.6
617.639	71.81
617.973	71.91
618.308	72.1
618.642	72.19
618.977	72.23
619.311	72.39
619.646	72.49
619.98	72.44
620.314	72.41
620.648	72.44
620.983	72.29
621.317	72.17
621.651	72.15
621.985	72.05
622.319	71.96
622.653	71.73
622.987	71.56
623.321	71.35
623.655	71.21
623.988	70.95
624.322	70.76
624.656	70.35
624.99	70.18
625.323	69.88
625.657	69.68
625.99	69.5
626.324	69.29
626.657	69.09
626.991	69.07
627.324	69.06
627.658	68.96
627.991	68.97
628.324	68.96
628.657	69.05
628.991	69.05
629.324	69.05
629.657	69.11
629.99	69.28
630.323	69.4
630.656	69.6
630.989	69.89
631.322	70.05
631.655	70.31
631.987	70.45
632.32	70.62
632.653	70.78
632.986	71.04
633.318	71.1
633.651	71.44
633.984	71.52
634.316	71.65
634.649	71.85
634.981	72.12
635.313	72.24
635.646	72.33
635.978	72.51
636.31	72.85
636.643	73.03
636.975	73.21
637.307	73.47
637.639	73.66
637.971	73.8
638.303	74.11
638.635	74.39
638.967	74.66
639.299	74.9
639.631	74.98
639.963	75.18
640.295	75.44
640.626	75.49
640.958	75.66
641.29	75.7
641.621	75.78
641.953	75.89
642.285	76.07
642.616	76.24
642.948	76.34
643.279	76.43
643.61	76.59
643.942	76.8
644.273	76.68
644.604	76.46
644.936	76.54
645.267	76.43
645.598	76.3
645.929	76.18
646.26	76.17
646.591	76.15
646.922	75.88
647.253	75.74
647.584	75.69
647.915	75.5
648.245	75.36
648.576	75.25
648.907	75
649.238	74.73
649.568	74.53
649.899	74.39
650.229	74.12
650.56	74.07
650.89	73.72
651.221	73.76
651.551	73.86
651.882	73.78
652.212	73.7
652.542	73.69
652.872	73.56
653.203	73.44
653.533	73.39
653.863	73.21
654.193	73.02
654.523	72.71
654.853	72.63
655.183	72.35
655.513	72.04
655.843	71.81
656.172	71.63
656.502	71.31
656.832	71.16
657.162	71.01
657.491	70.77
657.821	70.62
658.15	70.43
658.48	70.32
658.809	70.06
659.139	70.04
659.468	70.01
659.798	70.18
660.127	70.27
660.456	70.31
660.785	70.52
661.115	70.75
661.444	71.02
661.773	71.24
662.102	71.61
662.431	71.92
662.76	72.34
663.089	72.78
663.418	73.16
663.747	73.42
664.076	73.64
664.404	73.86
664.733	74.17
665.062	74.23
665.39	74.45
665.719	74.57
666.048	74.58
666.376	74.57
666.705	74.44
667.033	74.49
667.362	74.47
667.69	74.4
668.018	74.16
668.347	73.9
668.675	73.79
669.003	73.76
669.331	73.73
669.659	73.53
669.987	73.22
670.315	73.26
670.643	73.2
670.971	73.28
671.299	73.28
671.627	73.16
671.955	73.18
672.283	72.98
672.61	73.16
672.938	73.16
673.266	73.24
673.593	73.21
673.921	73.16
674.249	73.06
674.576	73.04
674.904	73.12
675.231	73.06
675.558	72.89
675.886	72.62
676.213	72.4
676.54	72.33
676.867	72.07
677.195	71.59
677.522	71.33
677.849	70.86
678.176	70.52
678.503	70.26
678.83	70.08
679.157	69.93
679.484	69.51
679.81	69.35
680.137	69.21
680.464	69.14
680.791	68.87
681.117	68.69
681.444	68.4
681.771	68.29
682.097	68.38
682.424	68.43
682.75	68.33
683.077	68.31
683.403	68.06
683.729	67.98
684.056	67.96
684.382	67.81
684.708	67.84
685.034	67.87
685.36	67.81
685.686	67.69
686.012	67.68
686.339	67.74
686.664	67.47
686.99	67.16
687.316	66.96
687.642	66.89
687.968	66.81
688.294	66.7
688.619	66.65
688.945	66.45
689.271	66.27
689.596	66.33
689.922	66.29
690.247	66.37
690.573	66.6
690.898	66.67
691.224	66.84
691.549	66.94
691.874	67.11
692.2	67.3
692.525	67.5
692.85	67.62
693.175	67.8
693.5	67.97
693.825	67.92
694.15	67.82
694.475	67.67
694.8	67.54
695.125	67.46
695.45	67.17
695.775	66.78
696.099	66.33
696.424	65.82
696.749	65.65
697.073	65.44
697.398	65.18
697.723	65.04
698.047	64.74
698.372	64.51
698.696	64.39
699.02	64.32
699.345	64.28
699.669	64.28
699.993	64.16
700.318	64.22
700.642	64.34
700.966	64.48
701.29	64.69
701.614	65.04
701.938	65.42
702.262	65.82
702.586	66.37
702.91	66.92
703.234	67.67
703.557	68.11
703.881	68.38
704.205	68.67
704.529	69.01
704.852	69.4
705.176	69.94
705.499	70.11
705.823	70.02
706.146	69.95
706.47	69.91
706.793	69.83
707.117	69.66
707.44	69.78
707.763	69.68
708.086	69.72
708.409	69.27
708.733	68.94
709.056	68.75
709.379	68.59
709.702	68.4
710.025	68.21
710.348	67.76
710.671	67.81
710.993	67.88
711.316	67.88
711.639	67.89
711.962	67.55
712.284	67.33
712.607	67.32
712.93	67.14
713.252	66.69
713.575	66.64
713.897	66.42
714.22	65.97
714.542	65.64
714.864	65.15
715.187	65.1
715.509	65.01
715.831	64.65
716.153	64.39
716.475	64.31
716.798	64.11
717.12	64.17
717.442	64.21
717.764	63.86
718.085	63.72
718.407	63.59
718.729	63.67
719.051	63.8
719.373	64.01
719.695	64.11
720.016	64.48
720.338	64.79
720.659	65.12
720.981	65.52
721.302	65.99
721.624	66.43
721.945	66.51
722.267	66.89
722.588	66.97
722.909	67.18
723.231	67.02
723.552	66.87
723.873	66.83
724.194	66.49
724.515	66.81
724.836	66.52
725.157	66.34
725.478	65.97
725.799	65.69
726.12	65.49
726.441	65.43
726.762	65.33
727.083	65.2
727.403	65.04
727.724	64.86
728.045	64.47
728.365	64.23
728.686	64.3
729.006	63.82
729.327	63.94
729.647	63.88
729.967	63.84
730.288	63.85
730.608	63.88
730.928	63.83
731.249	63.54
731.569	63.55
731.889	63.62
732.209	63.86
732.529	63.8
732.849	63.98
733.169	64.08
733.489	64.18
733.809	64.01
734.129	63.8
734.448	63.81
734.768	63.95
735.088	64.04
735.408	63.91
735.727	64.23
736.047	64.16
736.366	64.3
736.686	64.28
737.005	64.4
737.325	64.61
737.644	64.73
737.963	64.87
738.283	64.95
738.602	65.26
738.921	65.48
739.24	65.82
739.56	65.69
739.879	65.72
740.198	65.61
740.517	65.76
740.836	66.03
741.155	66.3
741.473	66.48
741.792	66.5
742.111	66.82
742.43	66.76
742.748	67.14
743.067	67.31
743.386	67.63
743.704	67.47
744.023	67.42
744.341	67.44
744.66	67.62
744.978	67.73
745.297	67.49
745.615	67.42
745.933	67.11
746.252	67.13
746.57	67.22
746.888	67.19
747.206	67.04
747.524	67.06
747.842	66.75
748.16	66.7
748.478	66.71
748.796	66.48
749.114	66.61
749.432	66.34
749.749	65.61
750.067	65.65
750.385	65.8
750.703	65.45
751.02	65.42
751.338	65.63
751.655	65.75
751.973	65.52
752.29	65.28
752.608	65.13
752.925	64.73
753.242	64.44
753.56	64.56
753.877	64.44
754.194	64.4
754.511	64.43
754.828	64.45
755.145	64.54
755.462	64.07
755.779	63.67
756.096	63.32
756.413	63.53
756.73	63.18
757.047	62.61
757.364	62.11
757.68	61.82
757.997	61.05
758.314	60.53
758.63	60.24
758.947	59.62
759.264	58.86
759.58	58.61
759.896	57.8
760.213	56.97
760.529	56.12
760.846	55.58
761.162	55.18
761.478	54.45
761.794	54.01
762.11	53.73
762.426	53.5
762.743	53.06
763.059	53
763.375	52.73
763.69	52.84
764.006	53.19
764.322	53.21
764.638	53.6
764.954	53.59
765.27	53.83
765.585	54.2
765.901	54.8
766.216	54.92
766.532	55.56
766.848	55.91
767.163	56.64
767.478	56.94
767.794	57.33
768.109	58
768.424	58.65
768.74	59.45
769.055	60.08
769.37	61.06
769.685	61.51
770	62.57
770.315	63.29
770.63	63.6
770.945	64.21
771.26	64.08
771.575	64.98
771.89	64.79
772.205	65.03
772.52	65
772.834	65.22
773.149	65.12
773.464	65.71
773.778	65.79
774.093	66.15
774.407	66.24
774.722	66.38
775.036	66.28
775.351	66.45
775.665	66.54
775.979	66.91
776.293	66.47
776.608	66.1
776.922	66.03
777.236	65.78
777.55	65.41
777.864	65.31
778.178	64.99
778.492	65.48
778.806	65.82
779.12	66.13
779.434	66.13
779.747	66.26
780.061	66.06
780.375	66.29
780.689	66.44
781.002	66.47
781.316	66.41
781.629	66
781.943	66.11
782.256	66.11
782.57	65.82
782.883	65.19
783.196	64.81
783.51	64.52
783.823	64.55
784.136	64.59
784.449	65.15
784.762	64.68
785.075	64.45
785.388	63.78
785.701	63.23
786.014	63.62
786.327	63.54
786.64	63.73
786.953	63.27
787.266	63.02
787.578	62.75
787.891	62.6
788.204	62.63
788.516	61.47
788.829	61
789.141	60.49
789.454	61.29
789.766	61.17
790.079	60.65
790.391	60.61
790.703	60.07
791.016	59.79
791.328	60.2
791.64	60.17
791.952	59.73
792.264	59.91
792.576	59.42
792.888	59.67
793.2	59.05
793.512	59.24
793.824	58.91
794.136	58.77
794.448	58.57
794.76	59.05
795.071	59.32
795.383	59.55
795.695	59.43
796.006	59.29
796.318	59.45
796.629	60.01
796.941	59.42
797.252	59.81
797.564	59.13
797.875	59.07
798.186	58.91
798.497	59.19
798.809	58.86
799.12	58.76
799.431	58.03
799.742	58.12
800.053	58.26
800.364	58.72
800.675	59.38
800.986	59.34
801.297	58.43
801.608	59.28
801.918	59.3
802.229	59.13
802.54	58.84
802.851	58.91
803.161	58.72
803.472	59.07
803.782	58.72
804.093	58.72
804.403	58.6
804.714	58.39
805.024	58.22
805.334	58.57
805.645	59.18
805.955	59.92
806.265	59.51
806.575	59.04
806.885	58.68
807.195	58.94
807.505	58.67
807.815	59.55
808.125	58.51
808.435	58.12
808.745	58.46
809.055	58.13
809.365	58.18
809.674	58.51
809.984	58.51
810.294	58.93
810.603	58.67
810.913	58.41
811.222	58.51
811.532	59.39
811.841	59.61
812.151	58.24
812.46	57.42
812.769	56.96
813.079	56.84
813.388	56.73
813.697	55.43
814.006	55.22
814.315	53.9
814.624	54.62
814.933	54.14
815.242	54.41
815.551	55.53
815.86	55.35
816.169	54.5
816.478	54.25
816.786	53.41
817.095	53.47
817.404	53.64
817.712	53.72
818.021	53.23
818.33	52.52
818.638	52.91
818.947	52.75
819.255	52.49
819.563	51.46
819.872	50.95
820.18	50.88
820.488	50.42
820.796	50.15
821.105	49.94
821.413	50.03
821.721	49.57
822.029	49.08
822.337	48.84
822.645	48.82
822.953	48.75
823.26	48.69
823.568	48.71
823.876	48.56
824.184	48.35
824.491	48.16
824.799	48.28
825.107	48.44
825.414	48.25
825.722	48.3
826.029	48.67
826.337	48.64
826.644	48.58
826.951	48.82
827.259	48.71
827.566	48.61
827.873	48.72
828.18	48.97
828.488	49.19
828.795	49.42
829.102	49.5
829.409	49.8
829.716	50.08
830.023	50.3
830.329	50.75
830.636	51.15
830.943	51.08
831.25	50.8
831.557	50.5
831.863	50.37
832.17	50.05
832.476	49.43
832.783	49.46
833.089	49.52
833.396	49.07
833.702	50.2
834.009	50.87
834.315	50.16
834.621	49.68
834.928	50.12
835.234	50.36
835.54	50.81
835.846	50.43
836.152	50.25
836.458	50.5
836.764	50.25
837.07	50.22
837.376	51.33
837.682	51.48
837.988	51.22
838.293	52.54
838.599	53.3
838.905	53.89
839.211	54.93
839.516	55.47
839.822	56.86
840.127	55.82
840.433	55.43
840.738	56.38
841.044	58.31
841.349	58.01
841.654	56.75
841.959	56.58
842.265	56.58
842.57	55.94
842.875	54.99
843.18	54.98
843.485	55.23
843.79	53.5
844.095	54.91
844.4	56.68
844.705	55.75
845.01	56.75
845.315	57.67
845.619	56.66
845.924	55.64
846.229	57.24
846.533	58.86
846.838	58.71
847.142	58.42
847.447	57.54
847.751	57.02
848.056	58.41
848.36	58.3
848.664	59.85
848.969	62.77
849.273	63.43
849.577	61.71
849.881	61.56
850.185	62.8
850.489	61
850.794	59.4
851.097	59.46
851.401	57.75
851.705	57.16
852.009	57.34
852.313	59.64
852.617	55.43
852.92	55.74
853.224	55.38
853.528	55.78
853.831	56.24
854.135	57.71
854.438	57.46
854.742	55.29
855.045	55.61
855.349	55.5
855.652	54.17
855.955	55.13
856.259	55.67
856.562	57.24
856.865	56.34
857.168	54.87
857.471	53.79
857.774	54.57
858.077	54.03
858.38	54.08
858.683	51.99
858.986	54.94
859.289	53.93
859.592	55.05
859.894	56.43
860.197	54.4
860.5	53.49
860.802	53.86
861.105	56.32
861.407	56.63
861.71	53.9
862.012	53.75
862.315	53.88
862.617	53.53
862.919	52.2
863.222	53.58
863.524	51.02
863.826	51.72
864.128	51.79
864.43	50.78
864.732	50.03
865.034	50.49
865.336	49.83
865.638	50.05
865.94	49.69
866.242	46.12
866.544	48.48
866.846	48.93
867.147	48.71
867.449	46.49
867.751	44.55
868.052	46.57
868.354	47.96
868.655	48.72
868.957	48.49
869.258	48.46
869.56	48.78
869.861	53.71
870.162	53.58
870.463	53.53
870.765	55.96
871.066	57.57
871.367	59.94
871.668	58.13
871.969	58.28
872.27	57.13
872.571	60.18
872.872	58.07
873.173	57.86
873.473	58.67
873.774	60.42
874.075	63.23
874.376	64.33
874.676	62.67
874.977	62.08
875.277	60.73
875.578	59.89
875.878	59.58
876.179	57.95
876.479	58.29
876.78	58.29
877.08	56.57
877.38	55.9
877.68	51.96
877.981	53.54
878.281	52.63
878.581	53.81
