Data from BA55519_Reflection_00012.txt Node
Date: Tue Nov 19 11:52:56 EST 2019
User: vgr7
Spectrometer: USB2G7710
Scans to average: 3
Trigger mode: 4
Integration Time (sec): 2.000000E-2
Electric dark correction enabled: true
Boxcar width: 10
XAxis mode: Wavelengths
Number of Pixels in Spectrum: 2048
>>>>>Begin Spectral Data<<<<<
177.721	88.1
178.105	71.38
178.488	51.81
178.871	39.8
179.254	12.04
179.636	50.07
180.019	88.96
180.402	41.18
180.785	816.67
181.168	-39.3
181.55	-64.68
181.933	-253.17
182.316	-1245.24
182.698	-1446.3
183.081	-283.68
183.463	-253.49
183.846	-164.77
184.228	-107.88
184.611	-14.07
184.993	-4.95
185.376	12.35
185.758	31.02
186.14	23.51
186.522	28.17
186.904	25.62
187.287	28.61
187.669	41.05
188.051	50.15
188.433	45.14
188.815	26.77
189.197	27.4
189.579	44.05
189.961	44.79
190.342	28.61
190.724	29.32
191.106	24.27
191.488	32.84
191.869	40.61
192.251	43.94
192.633	45.12
193.014	46.69
193.396	43.83
193.777	29.41
194.159	25.87
194.54	24.55
194.922	26.16
195.303	18.16
195.684	20.76
196.065	20.77
196.447	16.67
196.828	23.77
197.209	27.79
197.59	25.51
197.971	17.4
198.352	24.29
198.733	16.67
199.114	24.04
199.495	17.6
199.876	12.05
200.257	2.25
200.638	4.67
201.018	-5.47
201.399	-11.75
201.78	-6.55
202.16	-2.51
202.541	-5.7
202.922	-11.85
203.302	8.6
203.683	2.67
204.063	-1.03
204.444	-5.25
204.824	-5.78
205.204	-9.79
205.585	-20.09
205.965	-12.97
206.345	-15.73
206.725	-12.63
207.106	-0.04
207.486	0.2
207.866	2.27
208.246	10.4
208.626	-2.55
209.006	2.84
209.386	7.75
209.766	2.71
210.145	0.96
210.525	1.36
210.905	7
211.285	-8.8
211.664	3.14
212.044	7.66
212.424	22.93
212.803	34.67
213.183	38.89
213.562	52.52
213.942	46.57
214.321	50.48
214.701	55.57
215.08	56.19
215.459	52.73
215.838	52.72
216.218	53.64
216.597	55.03
216.976	47.27
217.355	44.15
217.734	60.1
218.113	56.61
218.492	46.45
218.871	54.53
219.25	51.01
219.629	37.09
220.008	38.34
220.387	26.77
220.766	22.57
221.144	28.2
221.523	13.5
221.902	25.07
222.28	16.17
222.659	16.12
223.037	12.06
223.416	6.29
223.794	9.89
224.173	11.62
224.551	17.88
224.929	18.99
225.308	19.62
225.686	17.05
226.064	17.89
226.442	20.18
226.821	20.51
227.199	21.94
227.577	23.9
227.955	20.52
228.333	22.73
228.711	23.73
229.089	20.89
229.467	19.21
229.845	18.04
230.222	20.77
230.6	19.52
230.978	18.47
231.356	19.52
231.733	18.99
232.111	17.09
232.488	13.48
232.866	18.39
233.243	17.89
233.621	17.9
233.998	16.32
234.376	16.33
234.753	15.85
235.13	15.39
235.508	14.63
235.885	13.63
236.262	12.33
236.639	9.95
237.016	10.28
237.393	11.31
237.77	10.39
238.147	9.85
238.524	10.53
238.901	9.89
239.278	8.66
239.655	8.66
240.032	9.01
240.409	8.72
240.785	6.6
241.162	6.51
241.539	6.19
241.915	6.73
242.292	6.87
242.668	6.76
243.045	7.09
243.421	6.86
243.798	6.99
244.174	7.24
244.551	7.29
244.927	7.16
245.303	6.78
245.679	6.85
246.056	6.85
246.432	6.78
246.808	6.96
247.184	7.15
247.56	6.93
247.936	6.82
248.312	6.9
248.688	6.84
249.064	6.85
249.44	6.9
249.815	6.93
250.191	6.62
250.567	6.29
250.943	6.14
251.318	5.95
251.694	5.91
252.069	5.91
252.445	5.96
252.82	6.18
253.196	6.53
253.571	6.44
253.947	6.45
254.322	6.25
254.697	6.23
255.073	6.08
255.448	6
255.823	5.96
256.198	5.72
256.573	5.73
256.948	5.85
257.323	5.77
257.698	5.6
258.073	5.57
258.448	5.65
258.823	5.53
259.198	5.93
259.573	5.67
259.948	5.58
260.322	5.38
260.697	5.31
261.072	5.31
261.446	5.26
261.821	5.28
262.195	5.48
262.57	5.36
262.944	5.5
263.319	5.73
263.693	5.93
264.067	6.06
264.442	6.04
264.816	5.82
265.19	5.85
265.564	5.88
265.938	6.07
266.313	5.9
266.687	5.7
267.061	5.47
267.435	5.64
267.809	5.4
268.183	5.6
268.556	5.53
268.93	5.54
269.304	5.63
269.678	5.66
270.051	5.59
270.425	5.73
270.799	5.49
271.172	5.29
271.546	5.19
271.919	5.28
272.293	5.42
272.666	5.52
273.04	5.56
273.413	5.68
273.787	5.61
274.16	5.69
274.533	5.97
274.906	5.87
275.279	5.9
275.653	6.14
276.026	6.14
276.399	6.15
276.772	6.18
277.145	6.26
277.518	6.02
277.891	5.91
278.263	5.85
278.636	6.09
279.009	6.27
279.382	6.16
279.755	6.19
280.127	5.97
280.5	5.95
280.872	5.84
281.245	5.81
281.617	5.87
281.99	5.94
282.362	5.85
282.735	5.99
283.107	5.96
283.479	5.94
283.852	6.04
284.224	6.12
284.596	6.06
284.968	5.96
285.34	5.92
285.713	6.07
286.085	5.9
286.457	5.63
286.829	5.53
287.201	5.65
287.572	5.61
287.944	5.83
288.316	6.04
288.688	6.1
289.06	6.16
289.431	6.16
289.803	6.28
290.175	6.44
290.546	6.47
290.918	6.52
291.289	6.37
291.661	6.33
292.032	6.33
292.403	6.47
292.775	6.61
293.146	6.72
293.517	6.64
293.889	6.96
294.26	7.32
294.631	7.36
295.002	7.45
295.373	7.54
295.744	7.68
296.115	7.63
296.486	7.6
296.857	7.63
297.228	7.65
297.599	7.54
297.97	7.42
298.34	7.49
298.711	7.54
299.082	7.73
299.452	7.69
299.823	7.74
300.194	7.82
300.564	7.88
300.935	8.05
301.305	8.15
301.676	8.01
302.046	7.97
302.416	7.99
302.787	7.93
303.157	8.07
303.527	7.86
303.897	7.9
304.267	8.1
304.637	8.07
305.008	8.14
305.378	8.27
305.748	8.63
306.117	8.7
306.487	8.81
306.857	8.97
307.227	9.27
307.597	9.37
307.967	9.4
308.336	9.5
308.706	9.57
309.076	9.75
309.445	10.18
309.815	10.31
310.184	10.43
310.554	10.53
310.923	10.53
311.293	10.7
311.662	10.89
312.031	10.96
312.401	11.05
312.77	11.23
313.139	11.4
313.508	11.29
313.877	11.29
314.246	11.36
314.616	11.44
314.985	11.38
315.353	11.43
315.722	11.53
316.091	11.49
316.46	11.64
316.829	11.77
317.198	11.57
317.567	11.72
317.935	11.88
318.304	12.21
318.672	12.32
319.041	12.5
319.41	12.4
319.778	12.58
320.147	12.81
320.515	12.83
320.883	12.8
321.252	12.75
321.62	12.92
321.988	13.04
322.357	12.96
322.725	13.09
323.093	13.07
323.461	13
323.829	13.29
324.197	13.29
324.565	13.36
324.933	13.3
325.301	13.16
325.669	13.23
326.037	12.98
326.405	13.08
326.772	13.13
327.14	13.08
327.508	12.9
327.875	12.95
328.243	12.96
328.61	13.06
328.978	13.28
329.346	13.37
329.713	13.35
330.08	13.47
330.448	13.48
330.815	13.67
331.182	13.77
331.55	13.65
331.917	13.62
332.284	13.5
332.651	13.74
333.018	14
333.385	14.11
333.752	14.31
334.119	14.19
334.486	14.02
334.853	14.34
335.22	14.4
335.587	14.35
335.954	14.3
336.32	14.31
336.687	14.37
337.054	14.28
337.42	14.39
337.787	14.41
338.153	14.46
338.52	14.52
338.886	14.55
339.253	14.53
339.619	14.71
339.986	14.7
340.352	14.68
340.718	14.66
341.084	14.65
341.451	14.71
341.817	14.74
342.183	15.06
342.549	14.96
342.915	15.18
343.281	15.26
343.647	15.41
344.013	15.45
344.379	15.45
344.745	15.56
345.11	15.52
345.476	15.59
345.842	15.58
346.208	15.67
346.573	15.69
346.939	15.84
347.304	15.72
347.67	15.82
348.035	15.75
348.401	15.77
348.766	15.81
349.132	15.76
349.497	15.8
349.862	15.66
350.228	15.69
350.593	15.61
350.958	15.58
351.323	15.55
351.688	15.5
352.053	15.44
352.418	15.43
352.783	15.42
353.148	15.28
353.513	15.25
353.878	15.09
354.243	14.92
354.608	14.88
354.972	14.98
355.337	14.9
355.702	14.92
356.066	14.94
356.431	14.92
356.795	14.84
357.16	14.78
357.524	14.71
357.889	14.59
358.253	14.5
358.618	14.4
358.982	14.36
359.346	14.44
359.71	14.41
360.075	14.3
360.439	14.33
360.803	14.33
361.167	14.3
361.531	14.26
361.895	14.27
362.259	14.28
362.623	14.21
362.987	14.28
363.351	14.18
363.714	14.1
364.078	14
364.442	13.9
364.806	13.9
365.169	13.9
365.533	13.91
365.896	13.87
366.26	13.87
366.623	13.75
366.987	13.67
367.35	13.62
367.714	13.61
368.077	13.48
368.44	13.44
368.803	13.29
369.167	13.13
369.53	13.08
369.893	12.9
370.256	12.77
370.619	12.56
370.982	12.49
371.345	12.32
371.708	12.17
372.071	12.1
372.434	12.04
372.797	11.88
373.159	11.74
373.522	11.65
373.885	11.56
374.247	11.46
374.61	11.32
374.973	11.21
375.335	11.07
375.698	10.96
376.06	10.82
376.423	10.75
376.785	10.67
377.147	10.56
377.51	10.47
377.872	10.38
378.234	10.37
378.596	10.32
378.958	10.32
379.321	10.22
379.683	10.16
380.045	10
380.407	9.93
380.769	9.86
381.13	9.77
381.492	9.61
381.854	9.53
382.216	9.45
382.578	9.4
382.939	9.34
383.301	9.28
383.663	9.22
384.024	9.16
384.386	9.15
384.747	9.11
385.109	9.04
385.47	9
385.832	8.93
386.193	8.85
386.554	8.76
386.916	8.77
387.277	8.72
387.638	8.7
387.999	8.63
388.36	8.57
388.721	8.5
389.082	8.55
389.443	8.54
389.804	8.46
390.165	8.39
390.526	8.35
390.887	8.27
391.248	8.21
391.609	8.17
391.969	8.16
392.33	8.09
392.691	8.05
393.051	7.98
393.412	7.91
393.772	7.89
394.133	7.81
394.493	7.71
394.854	7.66
395.214	7.56
395.574	7.54
395.935	7.5
396.295	7.46
396.655	7.34
397.015	7.26
397.376	7.23
397.736	7.16
398.096	7.08
398.456	7.03
398.816	6.97
399.176	6.92
399.535	6.82
399.895	6.75
400.255	6.69
400.615	6.65
400.975	6.56
401.334	6.45
401.694	6.49
402.054	6.46
402.413	6.41
402.773	6.38
403.132	6.33
403.492	6.33
403.851	6.3
404.211	6.25
404.57	6.23
404.929	6.19
405.288	6.2
405.648	6.18
406.007	6.18
406.366	6.16
406.725	6.13
407.084	6.14
407.443	6.16
407.802	6.11
408.161	6.08
408.52	6.06
408.879	6.09
409.238	6.01
409.596	6.01
409.955	6.01
410.314	6
410.673	5.97
411.031	5.91
411.39	5.89
411.748	5.91
412.107	5.85
412.465	5.85
412.824	5.77
413.182	5.76
413.54	5.71
413.899	5.7
414.257	5.67
414.615	5.64
414.974	5.6
415.332	5.6
415.69	5.56
416.048	5.54
416.406	5.45
416.764	5.41
417.122	5.39
417.48	5.36
417.838	5.33
418.195	5.3
418.553	5.28
418.911	5.24
419.269	5.21
419.626	5.19
419.984	5.16
420.342	5.16
420.699	5.12
421.057	5.11
421.414	5.1
421.772	5.07
422.129	5.03
422.486	5.01
422.844	4.96
423.201	4.95
423.558	4.96
423.915	4.97
424.273	4.96
424.63	4.94
424.987	4.91
425.344	4.89
425.701	4.88
426.058	4.88
426.415	4.86
426.772	4.83
427.128	4.84
427.485	4.82
427.842	4.8
428.199	4.83
428.555	4.8
428.912	4.77
429.269	4.78
429.625	4.79
429.982	4.79
430.338	4.82
430.695	4.8
431.051	4.77
431.407	4.76
431.764	4.75
432.12	4.74
432.476	4.74
432.832	4.77
433.189	4.77
433.545	4.74
433.901	4.75
434.257	4.76
434.613	4.75
434.969	4.76
435.325	4.77
435.681	4.74
436.036	4.75
436.392	4.76
436.748	4.76
437.104	4.74
437.459	4.75
437.815	4.75
438.171	4.74
438.526	4.74
438.882	4.74
439.237	4.76
439.593	4.76
439.948	4.76
440.304	4.74
440.659	4.75
441.014	4.74
441.369	4.73
441.725	4.72
442.08	4.72
442.435	4.71
442.79	4.69
443.145	4.67
443.5	4.66
443.855	4.64
444.21	4.61
444.565	4.61
444.92	4.6
445.275	4.6
445.629	4.6
445.984	4.58
446.339	4.58
446.693	4.56
447.048	4.53
447.403	4.51
447.757	4.5
448.112	4.49
448.466	4.5
448.82	4.49
449.175	4.5
449.529	4.47
449.883	4.45
450.238	4.42
450.592	4.42
450.946	4.42
451.3	4.43
451.654	4.42
452.008	4.41
452.362	4.39
452.716	4.38
453.07	4.38
453.424	4.38
453.778	4.37
454.132	4.36
454.486	4.39
454.839	4.42
455.193	4.43
455.547	4.4
455.9	4.41
456.254	4.41
456.607	4.4
456.961	4.43
457.314	4.43
457.668	4.45
458.021	4.47
458.375	4.45
458.728	4.46
459.081	4.47
459.434	4.48
459.787	4.5
460.141	4.51
460.494	4.51
460.847	4.56
461.2	4.56
461.553	4.59
461.906	4.58
462.259	4.56
462.611	4.58
462.964	4.61
463.317	4.61
463.67	4.65
464.022	4.67
464.375	4.7
464.728	4.71
465.08	4.72
465.433	4.75
465.785	4.79
466.138	4.79
466.49	4.82
466.843	4.86
467.195	4.85
467.547	4.85
467.899	4.86
468.252	4.83
468.604	4.84
468.956	4.83
469.308	4.84
469.66	4.89
470.012	4.87
470.364	4.88
470.716	4.9
471.068	4.88
471.42	4.86
471.772	4.85
472.123	4.87
472.475	4.9
472.827	4.89
473.178	4.9
473.53	4.9
473.882	4.89
474.233	4.85
474.585	4.83
474.936	4.86
475.288	4.87
475.639	4.85
475.99	4.83
476.342	4.84
476.693	4.85
477.044	4.84
477.395	4.82
477.746	4.8
478.097	4.79
478.448	4.76
478.8	4.74
479.15	4.72
479.501	4.68
479.852	4.65
480.203	4.64
480.554	4.63
480.905	4.61
481.255	4.6
481.606	4.62
481.957	4.63
482.307	4.62
482.658	4.62
483.009	4.63
483.359	4.65
483.709	4.64
484.06	4.64
484.41	4.64
484.761	4.64
485.111	4.65
485.461	4.65
485.811	4.66
486.162	4.68
486.512	4.69
486.862	4.71
487.212	4.72
487.562	4.73
487.912	4.74
488.262	4.77
488.612	4.79
488.961	4.8
489.311	4.81
489.661	4.81
490.011	4.82
490.36	4.82
490.71	4.82
491.06	4.84
491.409	4.85
491.759	4.88
492.108	4.91
492.458	4.92
492.807	4.94
493.157	4.97
493.506	4.99
493.855	5
494.204	5.03
494.554	5.05
494.903	5.08
495.252	5.11
495.601	5.13
495.95	5.16
496.299	5.18
496.648	5.23
496.997	5.29
497.346	5.34
497.695	5.4
498.043	5.46
498.392	5.51
498.741	5.53
499.09	5.58
499.438	5.62
499.787	5.65
500.135	5.69
500.484	5.71
500.832	5.76
501.181	5.81
501.529	5.87
501.878	5.98
502.226	6.05
502.574	6.1
502.923	6.15
503.271	6.21
503.619	6.28
503.967	6.32
504.315	6.36
504.663	6.39
505.011	6.45
505.359	6.51
505.707	6.59
506.055	6.68
506.403	6.75
506.751	6.81
507.098	6.9
507.446	6.98
507.794	7.08
508.141	7.16
508.489	7.25
508.837	7.3
509.184	7.33
509.531	7.4
509.879	7.47
510.226	7.55
510.574	7.64
510.921	7.73
511.268	7.81
511.616	7.93
511.963	8.02
512.31	8.11
512.657	8.2
513.004	8.29
513.351	8.35
513.698	8.44
514.045	8.55
514.392	8.67
514.739	8.78
515.086	8.89
515.432	9.01
515.779	9.11
516.126	9.23
516.473	9.32
516.819	9.42
517.166	9.54
517.512	9.65
517.859	9.74
518.205	9.83
518.552	9.93
518.898	10
519.245	10.1
519.591	10.2
519.937	10.29
520.283	10.36
520.629	10.46
520.976	10.59
521.322	10.69
521.668	10.79
522.014	10.92
522.36	11.04
522.706	11.17
523.052	11.28
523.398	11.43
523.743	11.59
524.089	11.74
524.435	11.87
524.781	12.01
525.126	12.15
525.472	12.28
525.817	12.4
526.163	12.5
526.509	12.62
526.854	12.7
527.199	12.8
527.545	12.92
527.89	13.02
528.235	13.11
528.581	13.21
528.926	13.3
529.271	13.4
529.616	13.49
529.961	13.58
530.306	13.71
530.651	13.8
530.996	13.94
531.341	14.06
531.686	14.18
532.031	14.29
532.376	14.42
532.721	14.52
533.065	14.64
533.41	14.78
533.755	14.91
534.099	15.05
534.444	15.18
534.788	15.3
535.133	15.45
535.477	15.57
535.822	15.71
536.166	15.87
536.51	16.01
536.855	16.17
537.199	16.36
537.543	16.54
537.887	16.73
538.231	16.87
538.576	17.04
538.92	17.25
539.264	17.44
539.608	17.57
539.951	17.72
540.295	17.9
540.639	18.05
540.983	18.16
541.327	18.32
541.671	18.48
542.014	18.63
542.358	18.75
542.701	18.89
543.045	19.02
543.389	19.14
543.732	19.29
544.075	19.41
544.419	19.55
544.762	19.68
545.105	19.81
545.449	19.98
545.792	20.15
546.135	20.29
546.478	20.43
546.821	20.62
547.165	20.84
547.508	21.02
547.851	21.22
548.194	21.42
548.536	21.6
548.879	21.78
549.222	21.97
549.565	22.19
549.908	22.37
550.25	22.59
550.593	22.81
550.936	23.03
551.278	23.27
551.621	23.52
551.963	23.73
552.306	23.98
552.648	24.15
552.991	24.39
553.333	24.62
553.675	24.87
554.017	25.1
554.36	25.3
554.702	25.55
555.044	25.76
555.386	25.99
555.728	26.23
556.07	26.44
556.412	26.7
556.754	26.93
557.096	27.12
557.438	27.36
557.78	27.63
558.121	27.86
558.463	28.11
558.805	28.33
559.147	28.55
559.488	28.75
559.83	29.07
560.171	29.35
560.513	29.57
560.854	29.82
561.196	30.03
561.537	30.25
561.878	30.49
562.22	30.7
562.561	30.99
562.902	31.26
563.243	31.51
563.584	31.75
563.925	32.05
564.266	32.34
564.607	32.57
564.948	32.84
565.289	33.08
565.63	33.35
565.971	33.63
566.312	33.88
566.653	34.14
566.993	34.33
567.334	34.54
567.675	34.82
568.015	35.1
568.356	35.34
568.696	35.64
569.037	35.91
569.377	36.21
569.718	36.46
570.058	36.7
570.398	37
570.739	37.31
571.079	37.5
571.419	37.74
571.759	38.02
572.099	38.22
572.439	38.49
572.779	38.68
573.119	38.88
573.459	39.14
573.799	39.39
574.139	39.63
574.479	39.85
574.819	40.06
575.158	40.26
575.498	40.54
575.838	40.76
576.177	40.97
576.517	41.17
576.856	41.4
577.196	41.69
577.535	41.88
577.875	42.04
578.214	42.3
578.553	42.54
578.893	42.79
579.232	43.07
579.571	43.28
579.91	43.6
580.25	43.87
580.589	44.12
580.928	44.36
581.267	44.63
581.606	44.9
581.945	45.04
582.283	45.26
582.622	45.5
582.961	45.73
583.3	46.03
583.639	46.32
583.977	46.52
584.316	46.67
584.654	46.95
584.993	47.19
585.332	47.45
585.67	47.74
586.008	47.92
586.347	48.19
586.685	48.44
587.024	48.64
587.362	48.88
587.7	49.1
588.038	49.36
588.376	49.54
588.715	49.8
589.053	50.11
589.391	50.26
589.729	50.41
590.067	50.61
590.404	50.76
590.742	50.94
591.08	51.22
591.418	51.38
591.756	51.53
592.093	51.74
592.431	51.99
592.769	52.08
593.106	52.26
593.444	52.44
593.781	52.5
594.119	52.62
594.456	52.73
594.793	52.86
595.131	53.1
595.468	53.29
595.805	53.32
596.143	53.41
596.48	53.59
596.817	53.71
597.154	53.78
597.491	53.83
597.828	53.88
598.165	53.95
598.502	54.09
598.839	54.17
599.176	54.28
599.512	54.3
599.849	54.46
600.186	54.59
600.523	54.65
600.859	54.88
601.196	55.08
601.532	55.18
601.869	55.34
602.205	55.37
602.542	55.41
602.878	55.61
603.215	55.72
603.551	55.81
603.887	55.9
604.223	56.01
604.56	56.18
604.896	56.33
605.232	56.42
605.568	56.51
605.904	56.67
606.24	56.82
606.576	56.91
606.912	57.14
607.248	57.22
607.583	57.3
607.919	57.34
608.255	57.36
608.591	57.44
608.926	57.48
609.262	57.47
609.597	57.52
609.933	57.52
610.268	57.58
610.604	57.65
610.939	57.69
611.275	57.63
611.61	57.64
611.945	57.68
612.281	57.73
612.616	57.82
612.951	57.89
613.286	57.94
613.621	58.04
613.956	57.99
614.291	58.02
614.626	58.11
614.961	58.15
615.296	58.18
615.631	58.3
615.966	58.34
616.3	58.5
616.635	58.5
616.97	58.56
617.304	58.64
617.639	58.83
617.973	59.02
618.308	59.24
618.642	59.27
618.977	59.21
619.311	59.3
619.646	59.23
619.98	59.29
620.314	59.25
620.648	59.22
620.983	59.19
621.317	59.31
621.651	59.37
621.985	59.54
622.319	59.67
622.653	59.63
622.987	59.69
623.321	59.75
623.655	59.91
623.988	59.98
624.322	60.11
624.656	60.04
624.99	60.01
625.323	60.05
625.657	60.13
625.99	60.34
626.324	60.44
626.657	60.53
626.991	60.54
627.324	60.65
627.658	60.76
627.991	60.88
628.324	60.89
628.657	61.05
628.991	60.95
629.324	60.91
629.657	60.98
629.99	61.03
630.323	61.06
630.656	61.09
630.989	61.16
631.322	61.09
631.655	61.11
631.987	61.15
632.32	61.13
632.653	61.16
632.986	61.1
633.318	61.09
633.651	61.19
633.984	61.2
634.316	61.09
634.649	61.07
634.981	61.06
635.313	61.09
635.646	61.03
635.978	61.12
636.31	61.25
636.643	61.33
636.975	61.39
637.307	61.48
637.639	61.53
637.971	61.47
638.303	61.48
638.635	61.54
638.967	61.57
639.299	61.51
639.631	61.49
639.963	61.51
640.295	61.55
640.626	61.51
640.958	61.52
641.29	61.51
641.621	61.48
641.953	61.56
642.285	61.64
642.616	61.61
642.948	61.57
643.279	61.56
643.61	61.49
643.942	61.59
644.273	61.46
644.604	61.37
644.936	61.55
645.267	61.63
645.598	61.6
645.929	61.66
646.26	61.95
646.591	61.91
646.922	61.87
647.253	61.86
647.584	61.92
647.915	62.02
648.245	62.24
648.576	62.38
648.907	62.3
649.238	62.3
649.568	62.4
649.899	62.55
650.229	62.6
650.56	62.64
650.89	62.47
651.221	62.59
651.551	62.72
651.882	62.59
652.212	62.6
652.542	62.66
652.872	62.69
653.203	62.69
653.533	62.81
653.863	62.92
654.193	62.99
654.523	62.97
654.853	62.97
655.183	62.82
655.513	62.84
655.843	63.01
656.172	63.07
656.502	63.08
656.832	63.06
657.162	63.17
657.491	63.32
657.821	63.49
658.15	63.51
658.48	63.51
658.809	63.52
659.139	63.55
659.468	63.62
659.798	63.69
660.127	63.69
660.456	63.7
660.785	63.75
661.115	63.63
661.444	63.71
661.773	63.8
662.102	63.89
662.431	63.88
662.76	63.78
663.089	63.84
663.418	63.83
663.747	63.88
664.076	63.82
664.404	63.68
664.733	63.68
665.062	63.64
665.39	63.79
665.719	63.8
666.048	63.88
666.376	63.84
666.705	63.73
667.033	63.77
667.362	63.85
667.69	63.74
668.018	63.93
668.347	63.88
668.675	63.78
669.003	63.79
669.331	63.74
669.659	63.82
669.987	63.72
670.315	63.75
670.643	63.69
670.971	63.56
671.299	63.69
671.627	63.56
671.955	63.55
672.283	63.45
672.61	63.61
672.938	63.62
673.266	63.63
673.593	63.76
673.921	63.62
674.249	63.58
674.576	63.82
674.904	63.83
675.231	63.84
675.558	63.81
675.886	63.98
676.213	64.12
676.54	64.17
676.867	64.14
677.195	64.12
677.522	64.21
677.849	64.23
678.176	64.26
678.503	64.33
678.83	64.39
679.157	64.33
679.484	64.23
679.81	64.18
680.137	64.19
680.464	64.04
680.791	64.07
681.117	64.07
681.444	63.89
681.771	63.87
682.097	63.93
682.424	64.18
682.75	64.08
683.077	64.06
683.403	63.99
683.729	64.03
684.056	64
684.382	63.87
684.708	63.89
685.034	63.81
685.36	63.98
685.686	64.04
686.012	64.07
686.339	64.03
686.664	64.03
686.99	63.91
687.316	64.04
687.642	63.97
687.968	63.99
688.294	63.96
688.619	63.88
688.945	63.71
689.271	63.5
689.596	63.34
689.922	63.35
690.247	63.39
690.573	63.35
690.898	63.24
691.224	63.26
691.549	63.32
691.874	63.53
692.2	63.33
692.525	63.3
692.85	63.46
693.175	63.57
693.5	63.6
693.825	63.67
694.15	63.67
694.475	63.92
694.8	63.98
695.125	64.22
695.45	64.47
695.775	64.56
696.099	64.57
696.424	64.48
696.749	64.46
697.073	64.46
697.398	64.56
697.723	64.61
698.047	64.65
698.372	64.68
698.696	64.65
699.02	64.62
699.345	64.59
699.669	64.61
699.993	64.57
700.318	64.57
700.642	64.62
700.966	64.65
701.29	64.44
701.614	64.45
701.938	64.3
702.262	64.24
702.586	64.35
702.91	64.25
703.234	64.54
703.557	64.56
703.881	64.57
704.205	64.45
704.529	64.54
704.852	64.51
705.176	64.54
705.499	64.39
705.823	64.36
706.146	64.29
706.47	64.24
706.793	64.24
707.117	64.29
707.44	64.53
707.763	64.45
708.086	64.73
708.409	64.73
708.733	64.58
709.056	64.62
709.379	64.68
709.702	64.7
710.025	64.8
710.348	64.64
710.671	64.52
710.993	64.66
711.316	64.71
711.639	64.88
711.962	64.79
712.284	64.75
712.607	64.73
712.93	64.76
713.252	64.53
713.575	64.73
713.897	64.59
714.22	64.4
714.542	64.64
714.864	64.39
715.187	64.33
715.509	64.6
715.831	64.51
716.153	64.27
716.475	64.33
716.798	64.25
717.12	64.36
717.442	64.64
717.764	64.83
718.085	64.9
718.407	64.93
718.729	64.88
719.051	65.04
719.373	65.37
719.695	65.38
720.016	65.6
720.338	65.64
720.659	65.8
720.981	65.82
721.302	65.41
721.624	65.56
721.945	65.68
722.267	65.59
722.588	65.43
722.909	65.64
723.231	65.64
723.552	65.85
723.873	65.99
724.194	65.81
724.515	65.86
724.836	65.67
725.157	65.35
725.478	65.33
725.799	65.38
726.12	65.11
726.441	65.35
726.762	65.33
727.083	65.35
727.403	65.36
727.724	65.44
728.045	65.67
728.365	65.89
728.686	65.95
729.006	66.17
729.327	66.15
729.647	65.83
729.967	65.8
730.288	65.67
730.608	65.82
730.928	65.89
731.249	65.37
731.569	65.36
731.889	65.52
732.209	65.8
732.529	65.55
732.849	65.71
733.169	65.41
733.489	65.59
733.809	65.37
734.129	65.33
734.448	65.39
734.768	65.36
735.088	65.02
735.408	65.02
735.727	64.87
736.047	65.2
736.366	65.5
736.686	65.58
737.005	65.51
737.325	65.32
737.644	65.02
737.963	65.54
738.283	65.3
738.602	65.75
738.921	65.69
739.24	66.25
739.56	66.08
739.879	66.43
740.198	66.16
740.517	66.34
740.836	66.41
741.155	66.34
741.473	66.25
741.792	66.56
742.111	66.56
742.43	66.65
742.748	66.65
743.067	66.58
743.386	66.54
743.704	66.66
744.023	66.62
744.341	66.95
744.66	66.56
744.978	66.96
745.297	66.61
745.615	66.46
745.933	66.15
746.252	66.22
746.57	66.32
746.888	66.66
747.206	67.08
747.524	66.84
747.842	66.82
748.16	66.62
748.478	66.69
748.796	66.87
749.114	66.54
749.432	66.27
749.749	66.17
750.067	66.31
750.385	66.12
750.703	65.99
751.02	65.88
751.338	65.77
751.655	65.85
751.973	65.72
752.29	65.83
752.608	65.52
752.925	65.56
753.242	65.52
753.56	65.04
753.877	64.54
754.194	64.58
754.511	64.28
754.828	64.55
755.145	64.84
755.462	64.32
755.779	64.67
756.096	64.6
756.413	64.86
756.73	64.62
757.047	64.4
757.364	64.64
757.68	64.76
757.997	64.9
758.314	65.08
758.63	65.37
758.947	65.37
759.264	65.72
759.58	65.57
759.896	65.51
760.213	65.7
760.529	65.73
760.846	65.98
761.162	66.18
761.478	66.1
761.794	65.67
762.11	65.93
762.426	65.79
762.743	65.99
763.059	66.06
763.375	66.03
763.69	66.56
764.006	66.84
764.322	66.92
764.638	67.21
764.954	67.13
765.27	66.84
765.585	66.98
765.901	67.08
766.216	66.96
766.532	66.83
766.848	66.78
767.163	66.68
767.478	66.64
767.794	66.84
768.109	66.94
768.424	66.94
768.74	66.71
769.055	66.74
769.37	66.76
769.685	66.53
770	66.67
770.315	66.07
770.63	65.61
770.945	65.51
771.26	65.11
771.575	65.46
771.89	65.58
772.205	64.81
772.52	64.33
772.834	64.52
773.149	64.56
773.464	64.92
773.778	64.96
774.093	65.04
774.407	64.89
774.722	64.91
775.036	64.94
775.351	65.34
775.665	65.39
775.979	65.09
776.293	64.92
776.608	65.45
776.922	66.03
777.236	66.03
777.55	65.85
777.864	65.52
778.178	65.42
778.492	65.44
778.806	66.11
779.12	66.46
779.434	67.03
779.747	67.25
780.061	67.01
780.375	67.63
780.689	67.48
781.002	67.64
781.316	68.03
781.629	67.74
781.943	68.16
782.256	68.47
782.57	68.73
782.883	68.9
783.196	68.5
783.51	68.21
783.823	67.81
784.136	67.82
784.449	68.73
784.762	68.44
785.075	68.47
785.388	68.56
785.701	68.19
786.014	68.02
786.327	67.51
786.64	67.7
786.953	66.97
787.266	67.61
787.578	68.01
787.891	67.67
788.204	68.46
788.516	67.76
788.829	67.72
789.141	67.59
789.454	68.22
789.766	68.34
790.079	68.39
790.391	69.17
790.703	69.02
791.016	69.27
791.328	69.33
791.64	69.91
791.952	69.1
792.264	69.86
792.576	69.77
792.888	70.05
793.2	69.61
793.512	70.63
793.824	70.05
794.136	69.8
794.448	70.3
794.76	70.11
795.071	70.19
795.383	69.66
795.695	70.16
796.006	69.72
796.318	69.82
796.629	69.92
796.941	68.9
797.252	69.02
797.564	67.62
797.875	67.94
798.186	67.18
798.497	67.69
798.809	67.37
799.12	66.91
799.431	66.93
799.742	67.07
800.053	66.32
800.364	66.35
800.675	66.43
800.986	65.6
801.297	65.49
801.608	65.55
801.918	66
802.229	65.69
802.54	65.8
802.851	65.36
803.161	65.4
803.472	65.68
803.782	65.51
804.093	66.09
804.403	65.01
804.714	64.9
805.024	64.68
805.334	64.12
805.645	64.29
805.955	64.39
806.265	64.68
806.575	64.87
806.885	64.81
807.195	64.43
807.505	65.2
807.815	65.96
808.125	65.66
808.435	65.38
808.745	64.8
809.055	64.64
809.365	65.64
809.674	65.23
809.984	65.58
810.294	65.73
810.603	65.13
810.913	66.03
811.222	66.53
811.532	67.55
811.841	68.52
812.151	68.8
812.46	68.91
812.769	67.89
813.079	67.53
813.388	67.44
813.697	67.52
814.006	66.63
814.315	65.52
814.624	66.54
814.933	66.38
815.242	66.4
815.551	66.93
815.86	66.66
816.169	66.58
816.478	66.81
816.786	66.41
817.095	67.08
817.404	66.41
817.712	66.1
818.021	65.24
818.33	65.52
818.638	66.48
818.947	66.76
819.255	67.55
819.563	67.28
819.872	67.54
820.18	67.19
820.488	68.11
820.796	68.45
821.105	68.37
821.413	68.79
821.721	69.29
822.029	69.31
822.337	68.97
822.645	68.87
822.953	68.56
823.26	68.74
823.568	68.8
823.876	68.87
824.184	68.94
824.491	68.95
824.799	68.86
825.107	68.78
825.414	68.58
825.722	68.33
826.029	68.72
826.337	68.79
826.644	68.9
826.951	68.57
827.259	68.38
827.566	68.49
827.873	68.36
828.18	68.07
828.488	67.69
828.795	67.87
829.102	67.7
829.409	68.05
829.716	67.83
830.023	67.61
830.329	67.82
830.636	67.62
830.943	67.79
831.25	67.54
831.557	67.47
831.863	67.76
832.17	68.36
832.476	67.9
832.783	67.16
833.089	67.47
833.396	67.85
833.702	68.05
834.009	68.07
834.315	67.48
834.621	67.34
834.928	67.93
835.234	68.2
835.54	68.55
835.846	68.47
836.152	68.49
836.458	68.9
836.764	68.4
837.07	68.49
837.376	68.72
837.682	68.97
837.988	68.26
838.293	68.69
838.599	68.36
838.905	67.85
839.211	68.71
839.516	68.43
839.822	67.67
840.127	68.19
840.433	67.56
840.738	67.95
841.044	68.47
841.349	67.59
841.654	66.52
841.959	66.71
842.265	65.63
842.57	65.4
842.875	64.9
843.18	65.61
843.485	66.09
843.79	66.21
844.095	66.82
844.4	68.42
844.705	68.43
845.01	68.68
845.315	68.97
845.619	68.73
845.924	68.93
846.229	69.81
846.533	68.52
846.838	68.45
847.142	67.95
847.447	66.24
847.751	67.79
848.056	68.06
848.36	69.24
848.664	71.73
848.969	75.28
849.273	74.26
849.577	75
849.881	75.02
850.185	74.74
850.489	71.68
850.794	69.62
851.097	68.69
851.401	68.88
851.705	70.02
852.009	69.89
852.313	70.7
852.617	69.09
852.92	70.37
853.224	71.19
853.528	70.45
853.831	72.99
854.135	71.24
854.438	71.63
854.742	69.39
855.045	70.52
855.349	67.72
855.652	69.81
855.955	67.78
856.259	66.41
856.562	65.55
856.865	67.29
857.168	66.67
857.471	65.32
857.774	67.35
858.077	64.56
858.38	64.56
858.683	62.4
858.986	64.75
859.289	63.42
859.592	63.68
859.894	64.9
860.197	63.2
860.5	62.81
860.802	60.54
861.105	60.85
861.407	59.06
861.71	59.02
862.012	57.88
862.315	57.86
862.617	59.24
862.919	59.6
863.222	59.38
863.524	58.88
863.826	59.64
864.128	57.46
864.43	62.54
864.732	63.96
865.034	65.31
865.336	62.9
865.638	61.48
865.94	61.66
866.242	60.59
866.544	61.39
866.846	62.35
867.147	65.54
867.449	66.81
867.751	67.22
868.052	67.63
868.354	66.84
868.655	67.75
868.957	67.27
869.258	68.27
869.56	66.9
869.861	70.96
870.162	68.25
870.463	67.8
870.765	65.95
871.066	64.83
871.367	64.97
871.668	66.44
871.969	68.43
872.27	68.98
872.571	69.12
872.872	68.27
873.173	68
873.473	68.2
873.774	68.68
874.075	68.33
874.376	69.69
874.676	70.43
874.977	68.56
875.277	69.27
875.578	67.02
875.878	69.02
876.179	66.61
876.479	69.29
876.78	71.06
877.08	70.11
877.38	70.41
877.68	70.16
877.981	68.63
878.281	67.48
878.581	64.09
