Data from BA55658_Reflection_00014.txt Node
Date: Tue Nov 19 11:55:59 EST 2019
User: vgr7
Spectrometer: USB2G7710
Scans to average: 3
Trigger mode: 4
Integration Time (sec): 2.000000E-2
Electric dark correction enabled: true
Boxcar width: 10
XAxis mode: Wavelengths
Number of Pixels in Spectrum: 2048
>>>>>Begin Spectral Data<<<<<
177.721	-58.68
178.105	-31.2
178.488	-18.44
178.871	-50
179.254	-52.11
179.636	-127.46
180.019	-548.65
180.402	300
180.785	2071.43
181.168	-707.69
181.55	84.46
181.933	118.04
182.316	61.31
182.698	44.51
183.081	14.44
183.463	28.22
183.846	21.87
184.228	-0.6
184.611	-6.21
184.993	6.74
185.376	-2.79
185.758	-2.55
186.14	2.74
186.522	-2.08
186.904	-15.07
187.287	-25.35
187.669	-49.47
188.051	-36.86
188.433	-33.23
188.815	-12.57
189.197	-20.25
189.579	-32.47
189.961	-75.35
190.342	-76.47
190.724	-33.49
191.106	1270.73
191.488	-347.51
191.869	381.88
192.251	37.38
192.633	51.53
193.014	190.13
193.396	70.44
193.777	100
194.159	57.3
194.54	12.83
194.922	4.84
195.303	-51.46
195.684	212.3
196.065	146.63
196.447	31.7
196.828	43.13
197.209	-26.2
197.59	-37.21
197.971	-14.44
198.352	-31.29
198.733	-6.62
199.114	30.74
199.495	105.8
199.876	162.36
200.257	82.59
200.638	132.55
201.018	414.92
201.399	1640.54
201.78	281.27
202.16	1158.82
202.541	1121.98
202.922	252.64
203.302	221.7
203.683	-1321.05
204.063	-678.38
204.444	-170.86
204.824	-171.34
205.204	-94.47
205.585	-128.84
205.965	-188.8
206.345	-161.86
206.725	-105.42
207.106	-69.16
207.486	-44.83
207.866	-57.89
208.246	-31.81
208.626	-70.91
209.006	-73.46
209.386	-53.75
209.766	-41.4
210.145	-10.65
210.525	-9.31
210.905	24.63
211.285	39.74
211.664	51.74
212.044	47.34
212.424	53.31
212.803	44.83
213.183	33.54
213.562	19.9
213.942	27.58
214.321	23.97
214.701	25.3
215.08	17.25
215.459	41.45
215.838	58.49
216.218	100
216.597	94.11
216.976	103.27
217.355	126.7
217.734	126.96
218.113	185.59
218.492	168.47
218.871	142.52
219.25	128.39
219.629	-12.03
220.008	38.62
220.387	201.89
220.766	-250.65
221.144	640.98
221.523	126.71
221.902	125.79
222.28	-2900
222.659	117
223.037	89.46
223.416	19.59
223.794	-4.13
224.173	1.29
224.551	-12.62
224.929	-34
225.308	-38.55
225.686	-29.64
226.064	-58.58
226.442	-41.25
226.821	-31.02
227.199	-25.85
227.577	-15.03
227.955	-11.4
228.333	-4.67
228.711	-6.03
229.089	-4.33
229.467	-2.84
229.845	-8.33
230.222	-4.43
230.6	-12.25
230.978	-9.64
231.356	-4.52
231.733	-0.01
232.111	-2.73
232.488	-0.43
232.866	2.12
233.243	0.43
233.621	3.3
233.998	5.03
234.376	1.91
234.753	1
235.13	4.56
235.508	2.13
235.885	1.77
236.262	1.64
236.639	2.41
237.016	2.53
237.393	4.88
237.77	6.76
238.147	4.97
238.524	6.04
238.901	5.42
239.278	3.39
239.655	3.54
240.032	3.66
240.409	4.15
240.785	3.22
241.162	3
241.539	2.76
241.915	2.81
242.292	3.77
242.668	3.9
243.045	3.56
243.421	4.27
243.798	4.66
244.174	4.83
244.551	5.02
244.927	5
245.303	4.66
245.679	4.53
246.056	4.64
246.432	4.78
246.808	4.81
247.184	4.7
247.56	4.61
247.936	5.02
248.312	5.14
248.688	5.22
249.064	5.01
249.44	5.2
249.815	5.14
250.191	4.98
250.567	4.9
250.943	4.73
251.318	4.39
251.694	4.09
252.069	3.96
252.445	3.61
252.82	4.18
253.196	4.27
253.571	4.12
253.947	4.04
254.322	3.95
254.697	3.5
255.073	3.79
255.448	3.86
255.823	3.63
256.198	3.54
256.573	3.57
256.948	4.05
257.323	3.99
257.698	4.16
258.073	4.38
258.448	4.54
258.823	4.41
259.198	4.4
259.573	4.44
259.948	4.52
260.322	4.83
260.697	4.41
261.072	4.36
261.446	4.52
261.821	4.44
262.195	4.29
262.57	4.63
262.944	4.76
263.319	4.62
263.693	4.66
264.067	4.34
264.442	4.37
264.816	4.19
265.19	4.15
265.564	4.03
265.938	3.79
266.313	3.55
266.687	3.53
267.061	3.59
267.435	3.48
267.809	3.14
268.183	2.79
268.556	2.98
268.93	2.97
269.304	3.01
269.678	3.14
270.051	3.31
270.425	3.21
270.799	3.01
271.172	3.29
271.546	3.29
271.919	3.53
272.293	3.8
272.666	3.89
273.04	3.79
273.413	3.84
273.787	3.88
274.16	3.93
274.533	4.05
274.906	4.28
275.279	4.45
275.653	4.63
276.026	4.65
276.399	4.62
276.772	4.73
277.145	4.57
277.518	4.46
277.891	4.31
278.263	4.3
278.636	4.39
279.009	4.33
279.382	4.38
279.755	4.27
280.127	4.11
280.5	4.05
280.872	4.02
281.245	4.21
281.617	4.31
281.99	4.36
282.362	4.3
282.735	4.1
283.107	4.06
283.479	4.04
283.852	4.2
284.224	4.24
284.596	4.11
284.968	4.14
285.34	4.08
285.713	4.23
286.085	4.17
286.457	4.21
286.829	4.16
287.201	4.23
287.572	4.32
287.944	4.39
288.316	4.48
288.688	4.6
289.06	4.43
289.431	4.48
289.803	4.56
290.175	4.68
290.546	4.69
290.918	4.88
291.289	4.85
291.661	4.87
292.032	4.89
292.403	4.98
292.775	5.01
293.146	5.14
293.517	4.99
293.889	5.25
294.26	5.29
294.631	5.46
295.002	5.52
295.373	5.64
295.744	5.6
296.115	5.64
296.486	5.68
296.857	5.67
297.228	5.64
297.599	5.73
297.97	5.83
298.34	5.94
298.711	5.92
299.082	6.05
299.452	5.93
299.823	6.02
300.194	6.16
300.564	6.25
300.935	6.44
301.305	6.6
301.676	6.64
302.046	6.64
302.416	6.59
302.787	6.6
303.157	6.63
303.527	6.86
303.897	7.06
304.267	7.04
304.637	7.23
305.008	7.48
305.378	7.47
305.748	7.49
306.117	7.48
306.487	7.6
306.857	7.87
307.227	8.09
307.597	8.15
307.967	8.22
308.336	8.32
308.706	8.45
309.076	8.65
309.445	8.66
309.815	8.89
310.184	8.86
310.554	9
310.923	9.04
311.293	8.86
311.662	8.98
312.031	9.11
312.401	9.09
312.77	9.09
313.139	9.25
313.508	9.24
313.877	9.48
314.246	9.5
314.616	9.5
314.985	9.65
315.353	9.85
315.722	9.96
316.091	9.94
316.46	9.93
316.829	9.97
317.198	10
317.567	10.05
317.935	10.19
318.304	10.27
318.672	10.39
319.041	10.71
319.41	10.68
319.778	10.76
320.147	11.02
320.515	11.2
320.883	11.08
321.252	11.16
321.62	11.17
321.988	11.22
322.357	11.18
322.725	11.16
323.093	11.22
323.461	11.15
323.829	11.25
324.197	11.09
324.565	11.06
324.933	11.08
325.301	10.83
325.669	11.01
326.037	10.93
326.405	11.06
326.772	11.12
327.14	11.06
327.508	11.2
327.875	11.27
328.243	11.27
328.61	11.43
328.978	11.5
329.346	11.47
329.713	11.71
330.08	11.8
330.448	11.87
330.815	11.76
331.182	11.75
331.55	11.83
331.917	12.01
332.284	12.2
332.651	12.25
333.018	12.6
333.385	12.61
333.752	12.62
334.119	12.54
334.486	12.43
334.853	12.43
335.22	12.35
335.587	12.17
335.954	12.1
336.32	12.18
336.687	12.23
337.054	12.3
337.42	12.25
337.787	12.26
338.153	12.21
338.52	12.25
338.886	12.41
339.253	12.46
339.619	12.45
339.986	12.48
340.352	12.7
340.718	12.66
341.084	12.65
341.451	12.77
341.817	12.81
342.183	12.91
342.549	13.05
342.915	13.14
343.281	13.23
343.647	13.31
344.013	13.32
344.379	13.33
344.745	13.32
345.11	13.21
345.476	13.29
345.842	13.23
346.208	13.22
346.573	13.14
346.939	13.1
347.304	13.07
347.67	13
348.035	12.85
348.401	12.73
348.766	12.61
349.132	12.56
349.497	12.49
349.862	12.47
350.228	12.46
350.593	12.4
350.958	12.4
351.323	12.27
351.688	12.25
352.053	12.18
352.418	12.19
352.783	12.16
353.148	12.03
353.513	12.1
353.878	12.17
354.243	12.1
354.608	11.98
354.972	11.96
355.337	12.05
355.702	11.98
356.066	12.08
356.431	12.16
356.795	12.08
357.16	12.12
357.524	12.06
357.889	11.91
358.253	11.82
358.618	11.73
358.982	11.65
359.346	11.56
359.71	11.59
360.075	11.59
360.439	11.61
360.803	11.59
361.167	11.53
361.531	11.43
361.895	11.34
362.259	11.39
362.623	11.3
362.987	11.13
363.351	11.11
363.714	10.99
364.078	10.94
364.442	10.86
364.806	10.79
365.169	10.71
365.533	10.75
365.896	10.74
366.26	10.7
366.623	10.71
366.987	10.63
367.35	10.57
367.714	10.45
368.077	10.35
368.44	10.27
368.803	10.17
369.167	10.05
369.53	10.1
369.893	10.04
370.256	10
370.619	9.9
370.982	9.76
371.345	9.76
371.708	9.62
372.071	9.56
372.434	9.43
372.797	9.32
373.159	9.16
373.522	9.01
373.885	8.91
374.247	8.75
374.61	8.67
374.973	8.54
375.335	8.44
375.698	8.36
376.06	8.25
376.423	8.16
376.785	8.13
377.147	8.01
377.51	7.89
377.872	7.79
378.234	7.74
378.596	7.74
378.958	7.66
379.321	7.59
379.683	7.57
380.045	7.53
380.407	7.49
380.769	7.35
381.13	7.27
381.492	7.25
381.854	7.21
382.216	7.13
382.578	7.01
382.939	6.95
383.301	6.88
383.663	6.78
384.024	6.72
384.386	6.66
384.747	6.56
385.109	6.53
385.47	6.52
385.832	6.46
386.193	6.37
386.554	6.28
386.916	6.24
387.277	6.15
387.638	6.03
387.999	6.02
388.36	6.04
388.721	6.01
389.082	6
389.443	5.99
389.804	5.96
390.165	5.91
390.526	5.85
390.887	5.77
391.248	5.82
391.609	5.81
391.969	5.72
392.33	5.71
392.691	5.64
393.051	5.56
393.412	5.52
393.772	5.48
394.133	5.4
394.493	5.39
394.854	5.36
395.214	5.36
395.574	5.29
395.935	5.25
396.295	5.2
396.655	5.1
397.015	5.03
397.376	5
397.736	4.98
398.096	4.9
398.456	4.89
398.816	4.81
399.176	4.71
399.535	4.66
399.895	4.62
400.255	4.62
400.615	4.6
400.975	4.55
401.334	4.51
401.694	4.55
402.054	4.52
402.413	4.53
402.773	4.51
403.132	4.42
403.492	4.4
403.851	4.37
404.211	4.36
404.57	4.34
404.929	4.3
405.288	4.28
405.648	4.28
406.007	4.24
406.366	4.24
406.725	4.24
407.084	4.22
407.443	4.21
407.802	4.2
408.161	4.14
408.52	4.16
408.879	4.14
409.238	4.13
409.596	4.11
409.955	4.03
410.314	4.01
410.673	4.01
411.031	3.97
411.39	3.97
411.748	3.97
412.107	3.91
412.465	3.86
412.824	3.83
413.182	3.85
413.54	3.83
413.899	3.78
414.257	3.78
414.615	3.79
414.974	3.76
415.332	3.71
415.69	3.75
416.048	3.72
416.406	3.71
416.764	3.67
417.122	3.62
417.48	3.63
417.838	3.63
418.195	3.6
418.553	3.59
418.911	3.56
419.269	3.54
419.626	3.55
419.984	3.55
420.342	3.55
420.699	3.52
421.057	3.52
421.414	3.53
421.772	3.52
422.129	3.5
422.486	3.48
422.844	3.48
423.201	3.46
423.558	3.45
423.915	3.45
424.273	3.45
424.63	3.46
424.987	3.47
425.344	3.45
425.701	3.45
426.058	3.45
426.415	3.45
426.772	3.45
427.128	3.43
427.485	3.4
427.842	3.39
428.199	3.39
428.555	3.38
428.912	3.38
429.269	3.34
429.625	3.31
429.982	3.32
430.338	3.32
430.695	3.29
431.051	3.29
431.407	3.28
431.764	3.26
432.12	3.27
432.476	3.25
432.832	3.25
433.189	3.25
433.545	3.25
433.901	3.24
434.257	3.24
434.613	3.26
434.969	3.27
435.325	3.27
435.681	3.26
436.036	3.28
436.392	3.25
436.748	3.27
437.104	3.27
437.459	3.26
437.815	3.26
438.171	3.25
438.526	3.23
438.882	3.23
439.237	3.23
439.593	3.2
439.948	3.19
440.304	3.2
440.659	3.2
441.014	3.2
441.369	3.19
441.725	3.19
442.08	3.18
442.435	3.19
442.79	3.17
443.145	3.18
443.5	3.14
443.855	3.15
444.21	3.15
444.565	3.16
444.92	3.18
445.275	3.16
445.629	3.16
445.984	3.16
446.339	3.15
446.693	3.14
447.048	3.13
447.403	3.13
447.757	3.1
448.112	3.09
448.466	3.08
448.82	3.06
449.175	3.03
449.529	3.03
449.883	3.01
450.238	3.01
450.592	2.99
450.946	3.01
451.3	3
451.654	2.97
452.008	2.97
452.362	2.93
452.716	2.93
453.07	2.91
453.424	2.9
453.778	2.88
454.132	2.89
454.486	2.92
454.839	2.91
455.193	2.94
455.547	2.96
455.9	2.98
456.254	2.99
456.607	3.02
456.961	3.02
457.314	3.03
457.668	3.03
458.021	3.02
458.375	2.99
458.728	2.99
459.081	3
459.434	2.98
459.787	3
460.141	3
460.494	3.02
460.847	3.02
461.2	3.04
461.553	3.05
461.906	3.04
462.259	3.04
462.611	3.04
462.964	3.04
463.317	3.03
463.67	3.03
464.022	3.02
464.375	3.03
464.728	3.02
465.08	3.06
465.433	3.07
465.785	3.11
466.138	3.12
466.49	3.14
466.843	3.2
467.195	3.21
467.547	3.24
467.899	3.26
468.252	3.27
468.604	3.26
468.956	3.27
469.308	3.27
469.66	3.31
470.012	3.3
470.364	3.29
470.716	3.31
471.068	3.34
471.42	3.34
471.772	3.33
472.123	3.35
472.475	3.31
472.827	3.33
473.178	3.32
473.53	3.32
473.882	3.29
474.233	3.26
474.585	3.24
474.936	3.25
475.288	3.23
475.639	3.26
475.99	3.23
476.342	3.22
476.693	3.24
477.044	3.2
477.395	3.19
477.746	3.16
478.097	3.16
478.448	3.15
478.8	3.14
479.15	3.13
479.501	3.14
479.852	3.15
480.203	3.15
480.554	3.16
480.905	3.15
481.255	3.15
481.606	3.16
481.957	3.16
482.307	3.15
482.658	3.16
483.009	3.15
483.359	3.16
483.709	3.17
484.06	3.17
484.41	3.19
484.761	3.19
485.111	3.21
485.461	3.21
485.811	3.2
486.162	3.2
486.512	3.22
486.862	3.22
487.212	3.23
487.562	3.22
487.912	3.24
488.262	3.24
488.612	3.26
488.961	3.26
489.311	3.29
489.661	3.3
490.011	3.31
490.36	3.33
490.71	3.34
491.06	3.34
491.409	3.35
491.759	3.35
492.108	3.36
492.458	3.39
492.807	3.39
493.157	3.42
493.506	3.44
493.855	3.46
494.204	3.47
494.554	3.5
494.903	3.53
495.252	3.54
495.601	3.57
495.95	3.59
496.299	3.62
496.648	3.63
496.997	3.68
497.346	3.7
497.695	3.74
498.043	3.8
498.392	3.84
498.741	3.87
499.09	3.93
499.438	4.01
499.787	4.03
500.135	4.1
500.484	4.15
500.832	4.19
501.181	4.24
501.529	4.31
501.878	4.35
502.226	4.41
502.574	4.46
502.923	4.56
503.271	4.59
503.619	4.66
503.967	4.71
504.315	4.76
504.663	4.82
505.011	4.88
505.359	4.93
505.707	4.99
506.055	5.07
506.403	5.1
506.751	5.14
507.098	5.22
507.446	5.29
507.794	5.37
508.141	5.45
508.489	5.53
508.837	5.6
509.184	5.69
509.531	5.78
509.879	5.87
510.226	5.91
510.574	6.02
510.921	6.1
511.268	6.18
511.616	6.25
511.963	6.35
512.31	6.42
512.657	6.53
513.004	6.61
513.351	6.67
513.698	6.81
514.045	6.9
514.392	7.03
514.739	7.15
515.086	7.26
515.432	7.37
515.779	7.46
516.126	7.59
516.473	7.69
516.819	7.79
517.166	7.89
517.512	8.01
517.859	8.11
518.205	8.19
518.552	8.32
518.898	8.44
519.245	8.55
519.591	8.65
519.937	8.75
520.283	8.89
520.629	9.05
520.976	9.18
521.322	9.32
521.668	9.44
522.014	9.59
522.36	9.72
522.706	9.88
523.052	10.09
523.398	10.25
523.743	10.45
524.089	10.65
524.435	10.84
524.781	11.04
525.126	11.23
525.472	11.43
525.817	11.58
526.163	11.74
526.509	11.88
526.854	12.04
527.199	12.2
527.545	12.34
527.89	12.47
528.235	12.61
528.581	12.75
528.926	12.88
529.271	13.02
529.616	13.17
529.961	13.35
530.306	13.5
530.651	13.67
530.996	13.84
531.341	14.02
531.686	14.22
532.031	14.42
532.376	14.63
532.721	14.83
533.065	15.05
533.41	15.28
533.755	15.49
534.099	15.7
534.444	15.94
534.788	16.17
535.133	16.42
535.477	16.66
535.822	16.93
536.166	17.22
536.51	17.53
536.855	17.85
537.199	18.13
537.543	18.44
537.887	18.78
538.231	19.11
538.576	19.43
538.92	19.72
539.264	20.05
539.608	20.33
539.951	20.61
540.295	20.9
540.639	21.14
540.983	21.45
541.327	21.7
541.671	21.95
542.014	22.2
542.358	22.44
542.701	22.69
543.045	22.93
543.389	23.17
543.732	23.44
544.075	23.71
544.419	24
544.762	24.29
545.105	24.55
545.449	24.87
545.792	25.21
546.135	25.54
546.478	25.85
546.821	26.21
547.165	26.56
547.508	26.91
547.851	27.3
548.194	27.61
548.536	27.98
548.879	28.32
549.222	28.67
549.565	29.04
549.908	29.39
550.25	29.78
550.593	30.14
550.936	30.49
551.278	30.83
551.621	31.16
551.963	31.55
552.306	31.94
552.648	32.26
552.991	32.61
553.333	32.98
553.675	33.31
554.017	33.62
554.36	33.98
554.702	34.27
555.044	34.58
555.386	34.9
555.728	35.26
556.07	35.62
556.412	35.99
556.754	36.33
557.096	36.71
557.438	37.08
557.78	37.39
558.121	37.74
558.463	38.1
558.805	38.41
559.147	38.73
559.488	39.04
559.83	39.42
560.171	39.73
560.513	40.01
560.854	40.36
561.196	40.72
561.537	40.98
561.878	41.33
562.22	41.62
562.561	41.9
562.902	42.12
563.243	42.37
563.584	42.64
563.925	42.91
564.266	43.05
564.607	43.24
564.948	43.49
565.289	43.71
565.63	43.95
565.971	44.21
566.312	44.43
566.653	44.68
566.993	44.93
567.334	45.1
567.675	45.37
568.015	45.6
568.356	45.77
568.696	45.99
569.037	46.16
569.377	46.4
569.718	46.64
570.058	46.9
570.398	47.13
570.739	47.32
571.079	47.56
571.419	47.83
571.759	48.05
572.099	48.27
572.439	48.46
572.779	48.72
573.119	48.92
573.459	49.13
573.799	49.25
574.139	49.36
574.479	49.59
574.819	49.8
575.158	49.96
575.498	50.16
575.838	50.3
576.177	50.45
576.517	50.64
576.856	50.89
577.196	51.15
577.535	51.33
577.875	51.54
578.214	51.65
578.553	51.91
578.893	52.1
579.232	52.3
579.571	52.61
579.91	52.67
580.25	52.84
580.589	53.02
580.928	53.28
581.267	53.49
581.606	53.67
581.945	53.84
582.283	53.96
582.622	54.07
582.961	54.27
583.3	54.52
583.639	54.72
583.977	54.89
584.316	54.91
584.654	55.12
584.993	55.34
585.332	55.52
585.67	55.62
586.008	55.77
586.347	55.88
586.685	55.88
587.024	56.03
587.362	56.22
587.7	56.31
588.038	56.41
588.376	56.56
588.715	56.63
589.053	56.73
589.391	56.9
589.729	57.05
590.067	57.16
590.404	57.23
590.742	57.32
591.08	57.4
591.418	57.53
591.756	57.59
592.093	57.63
592.431	57.7
592.769	57.83
593.106	57.86
593.444	57.9
593.781	58.09
594.119	58.21
594.456	58.22
594.793	58.33
595.131	58.31
595.468	58.4
595.805	58.53
596.143	58.53
596.48	58.61
596.817	58.67
597.154	58.77
597.491	58.87
597.828	58.96
598.165	59.05
598.502	59.1
598.839	59.21
599.176	59.23
599.512	59.35
599.849	59.46
600.186	59.58
600.523	59.75
600.859	59.75
601.196	59.79
601.532	59.89
601.869	59.99
602.205	60.12
602.542	60.1
602.878	60.06
603.215	60.16
603.551	60.14
603.887	60.21
604.223	60.26
604.56	60.33
604.896	60.3
605.232	60.33
605.568	60.41
605.904	60.46
606.24	60.55
606.576	60.55
606.912	60.51
607.248	60.57
607.583	60.48
607.919	60.53
608.255	60.59
608.591	60.59
608.926	60.58
609.262	60.62
609.597	60.75
609.933	60.9
610.268	60.92
610.604	61.02
610.939	61.04
611.275	61.08
611.61	61.11
611.945	61.25
612.281	61.26
612.616	61.31
612.951	61.38
613.286	61.44
613.621	61.52
613.956	61.68
614.291	61.78
614.626	62.03
614.961	62.11
615.296	62.2
615.631	62.33
615.966	62.5
616.3	62.56
616.635	62.6
616.97	62.56
617.304	62.66
617.639	62.73
617.973	62.8
618.308	62.9
618.642	62.85
618.977	62.87
619.311	62.97
619.646	62.99
619.98	62.92
620.314	62.99
620.648	63.07
620.983	63.09
621.317	63.06
621.651	63.09
621.985	63.11
622.319	62.97
622.653	63.05
622.987	62.96
623.321	62.88
623.655	62.88
623.988	63.07
624.322	63.08
624.656	63
624.99	62.94
625.323	62.89
625.657	62.95
625.99	62.89
626.324	62.94
626.657	62.92
626.991	62.93
627.324	62.94
627.658	62.84
627.991	62.92
628.324	62.97
628.657	62.96
628.991	62.96
629.324	63.09
629.657	63
629.99	63.05
630.323	63.19
630.656	63.19
630.989	63.18
631.322	63.1
631.655	63.16
631.987	63.26
632.32	63.24
632.653	63.22
632.986	63.24
633.318	63.21
633.651	63.43
633.984	63.6
634.316	63.65
634.649	63.86
634.981	63.81
635.313	63.81
635.646	63.84
635.978	63.88
636.31	63.85
636.643	63.96
636.975	64.05
637.307	64.15
637.639	64.27
637.971	64.25
638.303	64.42
638.635	64.54
638.967	64.73
639.299	64.91
639.631	65.05
639.963	65.15
640.295	65.14
640.626	64.9
640.958	64.71
641.29	64.74
641.621	64.71
641.953	64.72
642.285	64.82
642.616	64.88
642.948	64.83
643.279	64.96
643.61	65.08
643.942	65.09
644.273	65.08
644.604	65.06
644.936	65.06
645.267	65.1
645.598	65
645.929	64.89
646.26	64.81
646.591	64.77
646.922	64.82
647.253	64.89
647.584	65.01
647.915	65.06
648.245	65.06
648.576	64.81
648.907	64.89
649.238	64.94
649.568	64.87
649.899	65
650.229	65.05
650.56	64.93
650.89	64.88
651.221	64.85
651.551	64.83
651.882	64.77
652.212	64.75
652.542	64.84
652.872	64.76
653.203	64.92
653.533	65.01
653.863	65.1
654.193	65.06
654.523	65.04
654.853	65.02
655.183	65.07
655.513	65.19
655.843	65
656.172	64.97
656.502	64.99
656.832	65.08
657.162	65.03
657.491	65.03
657.821	64.99
658.15	65.02
658.48	65.08
658.809	65.06
659.139	65.09
659.468	64.97
659.798	65.12
660.127	65.08
660.456	65.08
660.785	64.94
661.115	64.89
661.444	64.95
661.773	65.01
662.102	64.97
662.431	65.01
662.76	65.16
663.089	65.12
663.418	65.14
663.747	65.1
664.076	65.14
664.404	65.21
664.733	65.33
665.062	65.38
665.39	65.36
665.719	65.47
666.048	65.44
666.376	65.58
666.705	65.59
667.033	65.46
667.362	65.46
667.69	65.62
668.018	65.58
668.347	65.5
668.675	65.52
669.003	65.5
669.331	65.57
669.659	65.51
669.987	65.57
670.315	65.56
670.643	65.54
670.971	65.46
671.299	65.27
671.627	65.3
671.955	65.2
672.283	65.26
672.61	65.22
672.938	65.19
673.266	65.25
673.593	65.23
673.921	65.55
674.249	65.65
674.576	65.62
674.904	65.64
675.231	65.86
675.558	65.99
675.886	65.95
676.213	65.86
676.54	65.95
676.867	65.87
677.195	65.95
677.522	65.93
677.849	65.98
678.176	66.12
678.503	66.07
678.83	66.21
679.157	66.15
679.484	66.17
679.81	66.19
680.137	66.18
680.464	66.15
680.791	65.95
681.117	65.78
681.444	65.61
681.771	65.77
682.097	65.61
682.424	65.52
682.75	65.54
683.077	65.69
683.403	65.61
683.729	65.57
684.056	65.55
684.382	65.49
684.708	65.34
685.034	65.3
685.36	65.28
685.686	65.16
686.012	65.17
686.339	65.04
686.664	65.1
686.99	65.01
687.316	65.04
687.642	65.02
687.968	64.99
688.294	65.15
688.619	65.04
688.945	65.16
689.271	65.24
689.596	65.42
689.922	65.35
690.247	65.29
690.573	65.38
690.898	65.51
691.224	65.63
691.549	65.82
691.874	65.87
692.2	65.79
692.525	65.8
692.85	65.72
693.175	65.94
693.5	65.81
693.825	65.79
694.15	65.66
694.475	65.54
694.8	65.54
695.125	65.43
695.45	65.25
695.775	65.08
696.099	65.02
696.424	64.67
696.749	64.69
697.073	64.67
697.398	64.57
697.723	64.42
698.047	64.48
698.372	64.51
698.696	64.34
699.02	64.45
699.345	64.47
699.669	64.39
699.993	64.39
700.318	64.48
700.642	64.57
700.966	64.73
701.29	64.99
701.614	65.13
701.938	65.16
702.262	65.42
702.586	65.63
702.91	65.56
703.234	65.83
703.557	65.8
703.881	65.97
704.205	66.09
704.529	66.08
704.852	66.02
705.176	66.08
705.499	66.28
705.823	66.17
706.146	66.33
706.47	66.48
706.793	66.41
707.117	66.35
707.44	66.32
707.763	65.89
708.086	65.62
708.409	65.4
708.733	65.44
709.056	65.3
709.379	65.06
709.702	65.15
710.025	65.16
710.348	65.28
710.671	65.34
710.993	65.47
711.316	65.53
711.639	65.52
711.962	65.38
712.284	65.43
712.607	65.33
712.93	65.26
713.252	65.51
713.575	65.5
713.897	65.58
714.22	65.46
714.542	65.72
714.864	65.73
715.187	66.01
715.509	66.09
715.831	66.23
716.153	66.32
716.475	66.42
716.798	66.48
717.12	66.31
717.442	66.17
717.764	65.86
718.085	65.86
718.407	65.85
718.729	65.81
719.051	65.75
719.373	65.78
719.695	65.64
720.016	65.39
720.338	65.52
720.659	65.42
720.981	65.39
721.302	65.28
721.624	65.39
721.945	65.05
722.267	64.82
722.588	64.84
722.909	64.8
723.231	64.7
723.552	64.41
723.873	64.54
724.194	64.33
724.515	64.56
724.836	64.54
725.157	64.6
725.478	64.52
725.799	64.41
726.12	64.14
726.441	64.02
726.762	63.95
727.083	63.82
727.403	63.84
727.724	63.84
728.045	63.98
728.365	63.8
728.686	63.99
729.006	63.9
729.327	63.96
729.647	64.07
729.967	63.9
730.288	64.29
730.608	64.12
730.928	64.23
731.249	64.13
731.569	64
731.889	63.78
732.209	63.79
732.529	64.17
732.849	64.67
733.169	65
733.489	65.16
733.809	65.07
734.129	65.27
734.448	65.49
734.768	65.48
735.088	65.8
735.408	65.8
735.727	65.94
736.047	65.75
736.366	65.74
736.686	65.69
737.005	65.51
737.325	65.68
737.644	65.57
737.963	65.88
738.283	65.92
738.602	66.17
738.921	66.27
739.24	66.15
739.56	65.69
739.879	65.17
740.198	65.07
740.517	65.36
740.836	65.26
741.155	65.52
741.473	65.39
741.792	65.15
742.111	65.33
742.43	65.48
742.748	65.56
743.067	65.77
743.386	66.2
743.704	66.33
744.023	66.28
744.341	66.62
744.66	66.37
744.978	66.29
745.297	66.34
745.615	66.28
745.933	65.78
746.252	66.48
746.57	66.61
746.888	66.7
747.206	66.51
747.524	66.26
747.842	65.95
748.16	66.03
748.478	66.43
748.796	66.21
749.114	65.81
749.432	66.12
749.749	65.47
750.067	65.15
750.385	64.79
750.703	64.75
751.02	64.78
751.338	64.56
751.655	64.9
751.973	64.87
752.29	65.07
752.608	65.47
752.925	65.17
753.242	65.18
753.56	65.01
753.877	65.28
754.194	65.17
754.511	65.25
754.828	65.04
755.145	64.51
755.462	64.62
755.779	64.86
756.096	64.59
756.413	64.66
756.73	65.01
757.047	65.21
757.364	64.99
757.68	65.08
757.997	65.08
758.314	65.04
758.63	64.84
758.947	64.64
759.264	64.35
759.58	64.17
759.896	64.31
760.213	64.28
760.529	63.76
760.846	64.02
761.162	63.78
761.478	63.74
761.794	63.83
762.11	63.75
762.426	63.71
762.743	63.76
763.059	63.88
763.375	63.97
763.69	63.81
764.006	63.85
764.322	63.68
764.638	64.07
764.954	64.14
765.27	64.24
765.585	64.53
765.901	64.88
766.216	65.21
766.532	65.1
766.848	65.22
767.163	65.26
767.478	64.97
767.794	65.2
768.109	65.62
768.424	65.75
768.74	65.87
769.055	66.52
769.37	66.64
769.685	66.88
770	66.68
770.315	66.81
770.63	66.93
770.945	66.82
771.26	66.59
771.575	67.06
771.89	67.61
772.205	67.3
772.52	66.91
772.834	66.73
773.149	67.18
773.464	67.18
773.778	67.41
774.093	67.96
774.407	67.73
774.722	67.19
775.036	66.81
775.351	67.22
775.665	66.89
775.979	66.72
776.293	66.88
776.608	66.77
776.922	66.99
777.236	67.64
777.55	67.64
777.864	67.67
778.178	66.71
778.492	66.69
778.806	67.14
779.12	67.75
779.434	67.88
779.747	67.96
780.061	68.1
780.375	68.34
780.689	68.44
781.002	68.49
781.316	69.06
781.629	69.68
781.943	69.26
782.256	69.43
782.57	70.11
782.883	69.9
783.196	70.3
783.51	70.41
783.823	70.32
784.136	70.65
784.449	71.18
784.762	72.19
785.075	71.36
785.388	70.91
785.701	70.33
786.014	69.52
786.327	69.24
786.64	68.78
786.953	69.07
787.266	68.99
787.578	68.72
787.891	68.81
788.204	68.51
788.516	68.38
788.829	67.94
789.141	67.32
789.454	67.49
789.766	67.22
790.079	67.07
790.391	66.81
790.703	66.62
791.016	66.73
791.328	65.98
791.64	66.63
791.952	66.93
792.264	66.94
792.576	66.9
792.888	66.75
793.2	66.94
793.512	66.74
793.824	66.05
794.136	66.12
794.448	65.69
794.76	65.84
795.071	66.05
795.383	65.75
795.695	65.6
796.006	65.04
796.318	64.69
796.629	64.76
796.941	64.53
797.252	65.37
797.564	65.16
797.875	65.01
798.186	64.42
798.497	64.54
798.809	64.08
799.12	64.55
799.431	64.69
799.742	64.49
800.053	64.24
800.364	64.79
800.675	64.83
800.986	65.12
801.297	65.41
801.608	64.75
801.918	64.73
802.229	64.65
802.54	65.63
802.851	65.83
803.161	65.55
803.472	66.37
803.782	65.68
804.093	65.56
804.403	65.44
804.714	66.04
805.024	65.58
805.334	66.2
805.645	66.46
805.955	66.78
806.265	66.79
806.575	66.86
806.885	66.91
807.195	67.4
807.505	67.75
807.815	67.2
808.125	67.28
808.435	67.75
808.745	68.22
809.055	67.35
809.365	67.7
809.674	67.73
809.984	67.04
810.294	67.17
810.603	65.54
810.913	65.24
811.222	64.17
811.532	64.22
811.841	64.6
812.151	64.94
812.46	64.56
812.769	64.85
813.079	65.82
813.388	65.62
813.697	65.33
814.006	64.63
814.315	64.39
814.624	64.62
814.933	65.36
815.242	64.84
815.551	64.29
815.86	64.01
816.169	63.3
816.478	64.16
816.786	63.82
817.095	65.4
817.404	65.86
817.712	66.21
818.021	66.06
818.33	65.22
818.638	64.75
818.947	64.7
819.255	64.14
819.563	63.08
819.872	62.56
820.18	62.09
820.488	61.85
820.796	61.49
821.105	61.7
821.413	61.43
821.721	61.25
822.029	61.44
822.337	61.66
822.645	62
822.953	61.69
823.26	61.66
823.568	61.66
823.876	61.77
824.184	61.72
824.491	61.56
824.799	61.85
825.107	61.96
825.414	61.67
825.722	61.97
826.029	62.07
826.337	62.35
826.644	62.59
826.951	62.62
827.259	63.27
827.566	63.36
827.873	63.49
828.18	63.83
828.488	63.85
828.795	63.61
829.102	63.46
829.409	63.86
829.716	64.05
830.023	63.97
830.329	64.06
830.636	64.46
830.943	64.89
831.25	64.67
831.557	64.26
831.863	65.04
832.17	64.95
832.476	64.69
832.783	64.14
833.089	64.05
833.396	64.24
833.702	63.69
834.009	64.01
834.315	63.71
834.621	64.14
834.928	64.19
835.234	64.37
835.54	64.32
835.846	64.54
836.152	64.41
836.458	64.21
836.764	63.92
837.07	63.9
837.376	64.42
837.682	64.64
837.988	65.04
838.293	64.07
838.599	63.73
838.905	64.28
839.211	64.96
839.516	65.25
839.822	65.58
840.127	65.73
840.433	64.91
840.738	64.83
841.044	64.45
841.349	65.2
841.654	64.19
841.959	64.96
842.265	63.88
842.57	64.39
842.875	64.63
843.18	66.57
843.485	66.38
843.79	64.75
844.095	64.5
844.4	63.79
844.705	65.19
845.01	65.52
845.315	64.67
845.619	64.9
845.924	65.02
846.229	64.97
846.533	64.13
846.838	64.7
847.142	64.98
847.447	65.34
847.751	63.89
848.056	66.03
848.36	66.54
848.664	65.75
848.969	66
849.273	64.92
849.577	62.38
849.881	61.01
850.185	62.93
850.489	60.98
850.794	60.78
851.097	61.78
851.401	62.01
851.705	65.02
852.009	66.85
852.313	63.98
852.617	64.58
852.92	65.69
853.224	66.87
853.528	67.51
853.831	65.52
854.135	68.12
854.438	65.77
854.742	64.42
855.045	64.77
855.349	62.51
855.652	64.47
855.955	63.19
856.259	67.66
856.562	64.92
856.865	65.74
857.168	66.73
857.471	65.6
857.774	61.35
858.077	61.95
858.38	57.47
858.683	59.77
858.986	62.39
859.289	61.3
859.592	59.69
859.894	62.31
860.197	63.54
860.5	60.54
860.802	63.5
861.105	65.53
861.407	67.14
861.71	67.43
862.012	65.96
862.315	70.3
862.617	67.18
862.919	70.77
863.222	70.19
863.524	69.66
863.826	70.24
864.128	70.87
864.43	66.88
864.732	66.56
865.034	67.37
865.336	60.85
865.638	60.53
865.94	62.5
866.242	60.98
866.544	60.69
866.846	62.07
867.147	62.55
867.449	60.77
867.751	58.94
868.052	61.44
868.354	64.11
868.655	62
868.957	62.82
869.258	61.85
869.56	62.07
869.861	63.57
870.162	64.49
870.463	66.47
870.765	66
871.066	69.93
871.367	67.98
871.668	69.75
871.969	69.46
872.27	67.81
872.571	64.97
872.872	65.37
873.173	65.74
873.473	64.3
873.774	63
874.075	64.92
874.376	64.45
874.676	63.8
874.977	65.8
875.277	62.58
875.578	61.85
875.878	62.53
876.179	60.67
876.479	59.54
876.78	60.05
877.08	60.99
877.38	59.42
877.68	62
877.981	64.36
878.281	66.7
878.581	65.24
