Data from BA55519_Reflection_00014.txt Node
Date: Tue Nov 19 11:53:00 EST 2019
User: vgr7
Spectrometer: USB2G7710
Scans to average: 3
Trigger mode: 4
Integration Time (sec): 2.000000E-2
Electric dark correction enabled: true
Boxcar width: 10
XAxis mode: Wavelengths
Number of Pixels in Spectrum: 2048
>>>>>Begin Spectral Data<<<<<
177.721	-35.02
178.105	-76.77
178.488	-68.53
178.871	-40.3
179.254	-41.67
179.636	-13.36
180.019	-131.93
180.402	88.24
180.785	150
181.168	-161.19
181.55	-96.43
181.933	-340.48
182.316	-507.14
182.698	16.67
183.081	42.71
183.463	23.39
183.846	-118.35
184.228	-122.53
184.611	-57.79
184.993	-68.92
185.376	-69.69
185.758	-35.77
186.14	-58.04
186.522	-48.01
186.904	-21.64
187.287	-35.3
187.669	-17.59
188.051	-38.13
188.433	-9.3
188.815	-7.14
189.197	-4.08
189.579	-16.2
189.961	14.61
190.342	13.08
190.724	-14.69
191.106	-17.4
191.488	-19.24
191.869	11.25
192.251	16.88
192.633	29.44
193.014	24.93
193.396	25.86
193.777	27.51
194.159	35.77
194.54	40.31
194.922	21.98
195.303	37.64
195.684	25.82
196.065	17.79
196.447	5.9
196.828	10.4
197.209	22.51
197.59	28.78
197.971	19.98
198.352	17.97
198.733	25.17
199.114	12.16
199.495	13.5
199.876	3.65
200.257	-1.15
200.638	-11.91
201.018	-9.08
201.399	-1.15
201.78	0.39
202.16	-6.16
202.541	-6.64
202.922	-2.51
203.302	-23.69
203.683	-12.96
204.063	-1.85
204.444	16.67
204.824	15.35
205.204	10.27
205.585	4.14
205.965	-1.83
206.345	9.25
206.725	7.96
207.106	21.41
207.486	17.68
207.866	36.06
208.246	38.94
208.626	40.07
209.006	54.93
209.386	42.21
209.766	38.12
210.145	31.53
210.525	27.33
210.905	27.02
211.285	37.5
211.664	42.08
212.044	41.27
212.424	35.8
212.803	31.43
213.183	36.67
213.562	42.44
213.942	45.84
214.321	28.05
214.701	30.78
215.08	23.59
215.459	35.28
215.838	18.87
216.218	8.7
216.597	1.43
216.976	-6.33
217.355	6.79
217.734	0.35
218.113	8.83
218.492	9.54
218.871	-4.32
219.25	-5.97
219.629	-13.24
220.008	-1.81
220.387	-5.85
220.766	0.86
221.144	-7.01
221.523	-16.81
221.902	-25
222.28	-10.5
222.659	-3.18
223.037	-2.33
223.416	-3.07
223.794	4.47
224.173	5.82
224.551	7.49
224.929	0.6
225.308	-4.88
225.686	0.52
226.064	-4.45
226.442	-5.5
226.821	2.83
227.199	6.46
227.577	2.33
227.955	1.33
228.333	2.77
228.711	1.94
229.089	8.88
229.467	8.5
229.845	10.2
230.222	7.96
230.6	7
230.978	9.16
231.356	8.77
231.733	9.18
232.111	6.74
232.488	6.52
232.866	8.38
233.243	9.68
233.621	9.21
233.998	11.51
234.376	11.02
234.753	9.91
235.13	8.88
235.508	10.48
235.885	9.76
236.262	8.13
236.639	8.34
237.016	5.97
237.393	5.33
237.77	5.77
238.147	6.11
238.524	5.97
238.901	5.17
239.278	4.44
239.655	4.38
240.032	5.6
240.409	5.69
240.785	5.85
241.162	6.04
241.539	5.67
241.915	5.24
242.292	6.18
242.668	6.13
243.045	6.26
243.421	6.32
243.798	6.46
244.174	6.44
244.551	6.4
244.927	6.42
245.303	6.56
245.679	6.46
246.056	6.77
246.432	7.02
246.808	6.89
247.184	7
247.56	6.91
247.936	6.69
248.312	6.83
248.688	6.74
249.064	6.54
249.44	6.51
249.815	6.59
250.191	6.44
250.567	6.44
250.943	6.36
251.318	6.35
251.694	6.21
252.069	6.19
252.445	6.22
252.82	6.41
253.196	6.38
253.571	6.49
253.947	6.29
254.322	5.87
254.697	5.92
255.073	5.89
255.448	5.91
255.823	6.13
256.198	5.99
256.573	5.98
256.948	5.89
257.323	5.98
257.698	5.99
258.073	5.89
258.448	6.03
258.823	5.86
259.198	5.7
259.573	5.69
259.948	5.62
260.322	5.37
260.697	5.28
261.072	5.37
261.446	5.32
261.821	5.21
262.195	5.24
262.57	5.42
262.944	5.27
263.319	5.25
263.693	5.05
264.067	5.14
264.442	5.21
264.816	5.4
265.19	5.2
265.564	5.21
265.938	5.13
266.313	4.73
266.687	4.83
267.061	5.08
267.435	5.11
267.809	4.92
268.183	5.11
268.556	5.06
268.93	5.16
269.304	4.95
269.678	5
270.051	5.13
270.425	5.02
270.799	4.91
271.172	4.89
271.546	5.08
271.919	4.84
272.293	4.73
272.666	4.74
273.04	4.8
273.413	4.74
273.787	4.77
274.16	5
274.533	5.05
274.906	5.06
275.279	4.97
275.653	5.15
276.026	5.1
276.399	5.07
276.772	4.93
277.145	5.06
277.518	5
277.891	4.97
278.263	5.18
278.636	5.36
279.009	5.51
279.382	5.29
279.755	5.55
280.127	5.46
280.5	5.5
280.872	5.7
281.245	5.71
281.617	5.63
281.99	5.53
282.362	5.5
282.735	5.24
283.107	5.26
283.479	5.2
283.852	5.34
284.224	5.5
284.596	5.45
284.968	5.4
285.34	5.49
285.713	5.47
286.085	5.2
286.457	5.2
286.829	5.1
287.201	5.26
287.572	5.13
287.944	5.29
288.316	5.24
288.688	5.27
289.06	5.4
289.431	5.54
289.803	5.63
290.175	5.59
290.546	5.66
290.918	5.61
291.289	5.48
291.661	5.36
292.032	5.22
292.403	5.15
292.775	5.35
293.146	5.31
293.517	5.29
293.889	5.37
294.26	5.5
294.631	5.68
295.002	5.73
295.373	5.82
295.744	5.71
296.115	5.73
296.486	5.77
296.857	5.8
297.228	5.74
297.599	5.82
297.97	5.91
298.34	5.94
298.711	6.22
299.082	6.53
299.452	6.57
299.823	6.76
300.194	6.94
300.564	6.92
300.935	7.11
301.305	7.25
301.676	7.36
302.046	7.41
302.416	7.37
302.787	7.39
303.157	7.49
303.527	7.68
303.897	7.65
304.267	7.57
304.637	7.54
305.008	7.6
305.378	7.67
305.748	7.65
306.117	7.88
306.487	7.72
306.857	7.88
307.227	8.15
307.597	8.04
307.967	8.22
308.336	8.41
308.706	8.62
309.076	8.74
309.445	8.83
309.815	8.91
310.184	8.92
310.554	8.97
310.923	8.98
311.293	9.12
311.662	9.23
312.031	9.39
312.401	9.33
312.77	9.6
313.139	9.62
313.508	9.84
313.877	9.76
314.246	9.99
314.616	9.97
314.985	9.85
315.353	9.97
315.722	10.03
316.091	10.02
316.46	9.87
316.829	9.84
317.198	10.04
317.567	10.2
317.935	10.36
318.304	10.61
318.672	10.95
319.041	11.06
319.41	11.12
319.778	11.1
320.147	11.27
320.515	11.34
320.883	11.34
321.252	11.54
321.62	11.7
321.988	11.75
322.357	11.78
322.725	12.11
323.093	12.35
323.461	12.34
323.829	12.26
324.197	12.25
324.565	12.44
324.933	12.34
325.301	12.17
325.669	12.11
326.037	12.13
326.405	11.97
326.772	12.03
327.14	12.05
327.508	12.18
327.875	12.41
328.243	12.3
328.61	12.42
328.978	12.28
329.346	12.5
329.713	12.67
330.08	12.83
330.448	12.77
330.815	12.86
331.182	12.95
331.55	13.25
331.917	13.29
332.284	13.19
332.651	13.34
333.018	13.44
333.385	13.5
333.752	13.54
334.119	13.67
334.486	13.67
334.853	13.78
335.22	13.79
335.587	13.86
335.954	13.92
336.32	13.88
336.687	14.07
337.054	14.05
337.42	13.97
337.787	13.91
338.153	13.99
338.52	13.94
338.886	13.98
339.253	13.82
339.619	14.04
339.986	14.22
340.352	14.27
340.718	14.27
341.084	14.41
341.451	14.34
341.817	14.29
342.183	14.29
342.549	14.41
342.915	14.53
343.281	14.57
343.647	14.59
344.013	14.66
344.379	14.56
344.745	14.59
345.11	14.53
345.476	14.59
345.842	14.61
346.208	14.63
346.573	14.69
346.939	14.61
347.304	14.56
347.67	14.53
348.035	14.54
348.401	14.63
348.766	14.63
349.132	14.65
349.497	14.71
349.862	14.7
350.228	14.62
350.593	14.48
350.958	14.41
351.323	14.43
351.688	14.5
352.053	14.48
352.418	14.37
352.783	14.33
353.148	14.21
353.513	14.15
353.878	14.17
354.243	14.17
354.608	14.43
354.972	14.41
355.337	14.39
355.702	14.33
356.066	14.28
356.431	14.22
356.795	14.2
357.16	14.1
357.524	14.09
357.889	14.04
358.253	14.01
358.618	13.99
358.982	13.98
359.346	13.82
359.71	13.71
360.075	13.61
360.439	13.64
360.803	13.62
361.167	13.6
361.531	13.53
361.895	13.44
362.259	13.36
362.623	13.35
362.987	13.24
363.351	13.11
363.714	13.12
364.078	12.99
364.442	12.92
364.806	12.86
365.169	12.78
365.533	12.75
365.896	12.73
366.26	12.55
366.623	12.45
366.987	12.42
367.35	12.41
367.714	12.4
368.077	12.36
368.44	12.32
368.803	12.18
369.167	12.03
369.53	11.91
369.893	11.83
370.256	11.68
370.619	11.58
370.982	11.52
371.345	11.39
371.708	11.35
372.071	11.2
372.434	11.11
372.797	11.01
373.159	10.86
373.522	10.77
373.885	10.78
374.247	10.67
374.61	10.6
374.973	10.48
375.335	10.46
375.698	10.28
376.06	10.2
376.423	10.15
376.785	10.15
377.147	10.08
377.51	9.88
377.872	9.81
378.234	9.75
378.596	9.74
378.958	9.58
379.321	9.49
379.683	9.46
380.045	9.42
380.407	9.37
380.769	9.32
381.13	9.19
381.492	9.06
381.854	8.97
382.216	8.92
382.578	8.91
382.939	8.72
383.301	8.69
383.663	8.54
384.024	8.5
384.386	8.44
384.747	8.35
385.109	8.32
385.47	8.29
385.832	8.17
386.193	8.05
386.554	8
386.916	7.99
387.277	7.99
387.638	7.92
387.999	7.85
388.36	7.79
388.721	7.82
389.082	7.82
389.443	7.79
389.804	7.71
390.165	7.62
390.526	7.61
390.887	7.53
391.248	7.52
391.609	7.49
391.969	7.44
392.33	7.38
392.691	7.35
393.051	7.27
393.412	7.27
393.772	7.28
394.133	7.28
394.493	7.21
394.854	7.14
395.214	7.1
395.574	7.04
395.935	6.96
396.295	6.89
396.655	6.81
397.015	6.76
397.376	6.71
397.736	6.61
398.096	6.58
398.456	6.54
398.816	6.54
399.176	6.45
399.535	6.38
399.895	6.34
400.255	6.26
400.615	6.25
400.975	6.17
401.334	6.15
401.694	6.1
402.054	6.07
402.413	6.03
402.773	6.01
403.132	5.97
403.492	5.95
403.851	5.89
404.211	5.88
404.57	5.89
404.929	5.87
405.288	5.88
405.648	5.85
406.007	5.84
406.366	5.77
406.725	5.71
407.084	5.7
407.443	5.69
407.802	5.68
408.161	5.66
408.52	5.64
408.879	5.61
409.238	5.59
409.596	5.6
409.955	5.58
410.314	5.54
410.673	5.56
411.031	5.57
411.39	5.56
411.748	5.52
412.107	5.46
412.465	5.42
412.824	5.4
413.182	5.36
413.54	5.35
413.899	5.33
414.257	5.35
414.615	5.31
414.974	5.28
415.332	5.28
415.69	5.22
416.048	5.21
416.406	5.17
416.764	5.15
417.122	5.11
417.48	5.09
417.838	5.07
418.195	5.04
418.553	4.99
418.911	4.99
419.269	4.97
419.626	4.96
419.984	4.96
420.342	4.95
420.699	4.94
421.057	4.9
421.414	4.9
421.772	4.89
422.129	4.88
422.486	4.86
422.844	4.84
423.201	4.84
423.558	4.83
423.915	4.81
424.273	4.81
424.63	4.8
424.987	4.78
425.344	4.78
425.701	4.75
426.058	4.76
426.415	4.74
426.772	4.74
427.128	4.74
427.485	4.73
427.842	4.71
428.199	4.72
428.555	4.74
428.912	4.69
429.269	4.67
429.625	4.64
429.982	4.66
430.338	4.66
430.695	4.66
431.051	4.65
431.407	4.67
431.764	4.65
432.12	4.64
432.476	4.63
432.832	4.63
433.189	4.62
433.545	4.61
433.901	4.61
434.257	4.59
434.613	4.59
434.969	4.58
435.325	4.6
435.681	4.59
436.036	4.57
436.392	4.6
436.748	4.6
437.104	4.6
437.459	4.6
437.815	4.6
438.171	4.59
438.526	4.61
438.882	4.58
439.237	4.58
439.593	4.57
439.948	4.57
440.304	4.55
440.659	4.57
441.014	4.58
441.369	4.57
441.725	4.59
442.08	4.58
442.435	4.57
442.79	4.54
443.145	4.52
443.5	4.5
443.855	4.48
444.21	4.47
444.565	4.47
444.92	4.46
445.275	4.46
445.629	4.44
445.984	4.42
446.339	4.43
446.693	4.45
447.048	4.43
447.403	4.42
447.757	4.42
448.112	4.42
448.466	4.41
448.82	4.39
449.175	4.38
449.529	4.38
449.883	4.36
450.238	4.37
450.592	4.38
450.946	4.41
451.3	4.4
451.654	4.38
452.008	4.4
452.362	4.4
452.716	4.38
453.07	4.39
453.424	4.38
453.778	4.36
454.132	4.34
454.486	4.36
454.839	4.35
455.193	4.37
455.547	4.37
455.9	4.37
456.254	4.4
456.607	4.4
456.961	4.39
457.314	4.39
457.668	4.38
458.021	4.36
458.375	4.36
458.728	4.38
459.081	4.4
459.434	4.4
459.787	4.41
460.141	4.44
460.494	4.44
460.847	4.45
461.2	4.46
461.553	4.47
461.906	4.49
462.259	4.5
462.611	4.51
462.964	4.5
463.317	4.49
463.67	4.49
464.022	4.5
464.375	4.51
464.728	4.52
465.08	4.55
465.433	4.58
465.785	4.59
466.138	4.58
466.49	4.59
466.843	4.6
467.195	4.6
467.547	4.56
467.899	4.59
468.252	4.62
468.604	4.63
468.956	4.64
469.308	4.62
469.66	4.67
470.012	4.66
470.364	4.69
470.716	4.72
471.068	4.71
471.42	4.68
471.772	4.69
472.123	4.7
472.475	4.72
472.827	4.73
473.178	4.74
473.53	4.74
473.882	4.74
474.233	4.74
474.585	4.73
474.936	4.73
475.288	4.7
475.639	4.68
475.99	4.68
476.342	4.68
476.693	4.68
477.044	4.66
477.395	4.63
477.746	4.61
478.097	4.58
478.448	4.58
478.8	4.58
479.15	4.56
479.501	4.56
479.852	4.55
480.203	4.54
480.554	4.53
480.905	4.54
481.255	4.54
481.606	4.52
481.957	4.53
482.307	4.55
482.658	4.57
483.009	4.57
483.359	4.57
483.709	4.56
484.06	4.56
484.41	4.55
484.761	4.57
485.111	4.58
485.461	4.59
485.811	4.59
486.162	4.61
486.512	4.62
486.862	4.63
487.212	4.64
487.562	4.64
487.912	4.65
488.262	4.65
488.612	4.66
488.961	4.68
489.311	4.68
489.661	4.68
490.011	4.69
490.36	4.69
490.71	4.7
491.06	4.71
491.409	4.73
491.759	4.76
492.108	4.77
492.458	4.79
492.807	4.81
493.157	4.83
493.506	4.84
493.855	4.87
494.204	4.89
494.554	4.91
494.903	4.95
495.252	5
495.601	5.05
495.95	5.09
496.299	5.12
496.648	5.16
496.997	5.21
497.346	5.27
497.695	5.31
498.043	5.36
498.392	5.41
498.741	5.46
499.09	5.5
499.438	5.56
499.787	5.59
500.135	5.64
500.484	5.68
500.832	5.69
501.181	5.74
501.529	5.82
501.878	5.87
502.226	5.91
502.574	5.96
502.923	6
503.271	6.07
503.619	6.14
503.967	6.2
504.315	6.28
504.663	6.34
505.011	6.43
505.359	6.47
505.707	6.5
506.055	6.57
506.403	6.63
506.751	6.72
507.098	6.81
507.446	6.88
507.794	6.97
508.141	7.05
508.489	7.14
508.837	7.21
509.184	7.28
509.531	7.36
509.879	7.43
510.226	7.54
510.574	7.63
510.921	7.7
511.268	7.78
511.616	7.84
511.963	7.91
512.31	7.99
512.657	8.09
513.004	8.21
513.351	8.29
513.698	8.41
514.045	8.51
514.392	8.61
514.739	8.72
515.086	8.82
515.432	8.95
515.779	9.05
516.126	9.15
516.473	9.26
516.819	9.4
517.166	9.5
517.512	9.6
517.859	9.71
518.205	9.83
518.552	9.92
518.898	10.02
519.245	10.14
519.591	10.23
519.937	10.36
520.283	10.49
520.629	10.6
520.976	10.74
521.322	10.85
521.668	10.98
522.014	11.12
522.36	11.26
522.706	11.41
523.052	11.56
523.398	11.77
523.743	11.96
524.089	12.12
524.435	12.27
524.781	12.41
525.126	12.54
525.472	12.7
525.817	12.84
526.163	12.96
526.509	13.08
526.854	13.21
527.199	13.33
527.545	13.41
527.89	13.51
528.235	13.62
528.581	13.73
528.926	13.86
529.271	13.99
529.616	14.1
529.961	14.22
530.306	14.33
530.651	14.44
530.996	14.56
531.341	14.71
531.686	14.88
532.031	15.05
532.376	15.22
532.721	15.35
533.065	15.53
533.41	15.7
533.755	15.89
534.099	16.07
534.444	16.23
534.788	16.42
535.133	16.63
535.477	16.8
535.822	16.98
536.166	17.16
536.51	17.33
536.855	17.57
537.199	17.79
537.543	18.03
537.887	18.25
538.231	18.5
538.576	18.71
538.92	18.9
539.264	19.1
539.608	19.31
539.951	19.49
540.295	19.66
540.639	19.85
540.983	20.01
541.327	20.17
541.671	20.33
542.014	20.53
542.358	20.67
542.701	20.85
543.045	21.02
543.389	21.19
543.732	21.36
544.075	21.53
544.419	21.71
544.762	21.91
545.105	22.1
545.449	22.28
545.792	22.52
546.135	22.76
546.478	22.97
546.821	23.21
547.165	23.47
547.508	23.7
547.851	23.95
548.194	24.22
548.536	24.48
548.879	24.77
549.222	25.01
549.565	25.29
549.908	25.54
550.25	25.8
550.593	26.08
550.936	26.4
551.278	26.7
551.621	26.93
551.963	27.23
552.306	27.55
552.648	27.8
552.991	28.05
553.333	28.3
553.675	28.6
554.017	28.83
554.36	29.09
554.702	29.39
555.044	29.64
555.386	29.88
555.728	30.14
556.07	30.38
556.412	30.65
556.754	30.93
557.096	31.15
557.438	31.43
557.78	31.69
558.121	31.98
558.463	32.22
558.805	32.53
559.147	32.79
559.488	33.07
559.83	33.36
560.171	33.69
560.513	34
560.854	34.27
561.196	34.59
561.537	34.9
561.878	35.16
562.22	35.45
562.561	35.78
562.902	36.07
563.243	36.42
563.584	36.67
563.925	36.97
564.266	37.32
564.607	37.64
564.948	37.94
565.289	38.24
565.63	38.57
565.971	38.87
566.312	39.2
566.653	39.45
566.993	39.72
567.334	40.01
567.675	40.32
568.015	40.64
568.356	40.94
568.696	41.2
569.037	41.52
569.377	41.81
569.718	42.05
570.058	42.37
570.398	42.66
570.739	42.97
571.079	43.22
571.419	43.48
571.759	43.7
572.099	43.88
572.439	44.1
572.779	44.34
573.119	44.54
573.459	44.75
573.799	45.04
574.139	45.24
574.479	45.4
574.819	45.61
575.158	45.83
575.498	46.05
575.838	46.31
576.177	46.52
576.517	46.76
576.856	47.02
577.196	47.31
577.535	47.52
577.875	47.73
578.214	47.97
578.553	48.19
578.893	48.47
579.232	48.83
579.571	49.05
579.91	49.37
580.25	49.75
580.589	49.98
580.928	50.16
581.267	50.46
581.606	50.75
581.945	50.99
582.283	51.23
582.622	51.47
582.961	51.66
583.3	51.95
583.639	52.19
583.977	52.41
584.316	52.54
584.654	52.78
584.993	53.02
585.332	53.29
585.67	53.63
586.008	53.92
586.347	54.18
586.685	54.43
587.024	54.6
587.362	54.68
587.7	54.91
588.038	55.21
588.376	55.46
588.715	55.68
589.053	55.92
589.391	56.02
589.729	56.13
590.067	56.41
590.404	56.53
590.742	56.82
591.08	57.1
591.418	57.3
591.756	57.41
592.093	57.64
592.431	57.87
592.769	57.88
593.106	58
593.444	58.1
593.781	58.14
594.119	58.28
594.456	58.44
594.793	58.53
595.131	58.63
595.468	58.71
595.805	58.77
596.143	58.8
596.48	59.05
596.817	59.21
597.154	59.24
597.491	59.33
597.828	59.27
598.165	59.26
598.502	59.32
598.839	59.4
599.176	59.51
599.512	59.52
599.849	59.71
600.186	59.83
600.523	59.89
600.859	60.06
601.196	60.11
601.532	60.24
601.869	60.36
602.205	60.48
602.542	60.55
602.878	60.66
603.215	60.81
603.551	60.75
603.887	60.81
604.223	60.9
604.56	60.97
604.896	61.12
605.232	61.22
605.568	61.36
605.904	61.48
606.24	61.5
606.576	61.61
606.912	61.74
607.248	61.82
607.583	61.95
607.919	62.03
608.255	62.1
608.591	62.19
608.926	62.31
609.262	62.34
609.597	62.49
609.933	62.58
610.268	62.66
610.604	62.77
610.939	62.88
611.275	62.9
611.61	62.99
611.945	63.11
612.281	63.18
612.616	63.23
612.951	63.34
613.286	63.44
613.621	63.43
613.956	63.45
614.291	63.46
614.626	63.5
614.961	63.59
615.296	63.69
615.631	63.69
615.966	63.75
616.3	63.89
616.635	63.91
616.97	63.87
617.304	63.9
617.639	64.01
617.973	64.05
618.308	64.21
618.642	64.24
618.977	64.19
619.311	64.19
619.646	64.2
619.98	64.16
620.314	64.22
620.648	64.33
620.983	64.31
621.317	64.4
621.651	64.48
621.985	64.59
622.319	64.68
622.653	64.72
622.987	64.75
623.321	64.69
623.655	64.81
623.988	64.91
624.322	64.99
624.656	65.08
624.99	65.17
625.323	65.17
625.657	65.28
625.99	65.35
626.324	65.48
626.657	65.5
626.991	65.55
627.324	65.65
627.658	65.69
627.991	65.69
628.324	65.7
628.657	65.76
628.991	65.76
629.324	65.74
629.657	65.79
629.99	65.83
630.323	65.88
630.656	65.83
630.989	65.95
631.322	65.94
631.655	65.9
631.987	65.82
632.32	65.74
632.653	65.67
632.986	65.65
633.318	65.65
633.651	65.71
633.984	65.76
634.316	65.66
634.649	65.64
634.981	65.72
635.313	65.79
635.646	65.77
635.978	65.82
636.31	65.95
636.643	65.97
636.975	65.95
637.307	66.03
637.639	66.11
637.971	66.03
638.303	66.1
638.635	66.12
638.967	66.24
639.299	66.38
639.631	66.41
639.963	66.45
640.295	66.48
640.626	66.59
640.958	66.55
641.29	66.64
641.621	66.75
641.953	66.94
642.285	67.05
642.616	67.15
642.948	67.08
643.279	66.92
643.61	66.94
643.942	67.06
644.273	66.97
644.604	66.88
644.936	66.94
645.267	67
645.598	67.13
645.929	67.12
646.26	67.13
646.591	67.15
646.922	67.16
647.253	67.22
647.584	67.13
647.915	67.26
648.245	67.3
648.576	67.23
648.907	67.16
649.238	67.11
649.568	67.11
649.899	67.29
650.229	67.42
650.56	67.57
650.89	67.53
651.221	67.65
651.551	67.81
651.882	67.97
652.212	67.98
652.542	67.92
652.872	67.99
653.203	68.03
653.533	68.08
653.863	68.07
654.193	68.12
654.523	68.04
654.853	67.97
655.183	67.94
655.513	68.02
655.843	68.01
656.172	67.93
656.502	67.86
656.832	67.82
657.162	67.91
657.491	67.71
657.821	67.73
658.15	67.77
658.48	67.71
658.809	67.53
659.139	67.47
659.468	67.44
659.798	67.42
660.127	67.46
660.456	67.57
660.785	67.72
661.115	67.63
661.444	67.78
661.773	67.82
662.102	67.79
662.431	67.66
662.76	67.64
663.089	67.77
663.418	67.88
663.747	67.79
664.076	67.61
664.404	67.73
664.733	67.85
665.062	67.73
665.39	67.76
665.719	67.8
666.048	67.76
666.376	67.79
666.705	67.75
667.033	67.83
667.362	67.8
667.69	67.81
668.018	67.74
668.347	67.65
668.675	67.77
669.003	67.79
669.331	67.95
669.659	67.92
669.987	67.88
670.315	67.88
670.643	68.01
670.971	68.05
671.299	68.11
671.627	67.91
671.955	67.87
672.283	67.83
672.61	68.02
672.938	68.12
673.266	68.21
673.593	68.19
673.921	68.09
674.249	68.06
674.576	68.15
674.904	68.22
675.231	68.21
675.558	68.16
675.886	68.29
676.213	68.21
676.54	68.3
676.867	68.21
677.195	68.25
677.522	68.41
677.849	68.52
678.176	68.51
678.503	68.63
678.83	68.78
679.157	68.6
679.484	68.47
679.81	68.45
680.137	68.46
680.464	68.46
680.791	68.48
681.117	68.59
681.444	68.43
681.771	68.46
682.097	68.53
682.424	68.67
682.75	68.61
683.077	68.66
683.403	68.74
683.729	68.88
684.056	68.77
684.382	68.47
684.708	68.43
685.034	68.44
685.36	68.41
685.686	68.47
686.012	68.75
686.339	68.62
686.664	68.63
686.99	68.42
687.316	68.5
687.642	68.45
687.968	68.28
688.294	68.13
688.619	68.11
688.945	68.21
689.271	67.92
689.596	67.88
689.922	67.95
690.247	67.85
690.573	67.78
690.898	67.78
691.224	67.85
691.549	67.78
691.874	67.83
692.2	68
692.525	67.82
692.85	67.81
693.175	67.95
693.5	67.99
693.825	68.13
694.15	68.2
694.475	68.36
694.8	68.46
695.125	68.7
695.45	68.78
695.775	68.63
696.099	68.62
696.424	68.49
696.749	68.5
697.073	68.59
697.398	68.6
697.723	68.6
698.047	68.69
698.372	68.87
698.696	68.95
699.02	68.72
699.345	68.56
699.669	68.62
699.993	68.61
700.318	68.71
700.642	68.75
700.966	68.68
701.29	68.58
701.614	68.65
701.938	68.81
702.262	69
702.586	69.21
702.91	69.34
703.234	69.59
703.557	69.6
703.881	69.42
704.205	69.4
704.529	69.51
704.852	69.44
705.176	69.24
705.499	68.96
705.823	69.09
706.146	69.35
706.47	69.47
706.793	69.52
707.117	69.37
707.44	69.6
707.763	69.45
708.086	69.61
708.409	69.28
708.733	68.88
709.056	68.64
709.379	68.54
709.702	68.56
710.025	68.69
710.348	68.65
710.671	68.76
710.993	68.76
711.316	68.88
711.639	69.07
711.962	69.38
712.284	69.72
712.607	69.88
712.93	69.85
713.252	69.51
713.575	69.61
713.897	69.59
714.22	69.46
714.542	69.65
714.864	69.35
715.187	69.53
715.509	69.74
715.831	69.64
716.153	69.53
716.475	69.61
716.798	69.49
717.12	69.55
717.442	69.68
717.764	69.89
718.085	69.97
718.407	70.03
718.729	69.64
719.051	69.32
719.373	69.02
719.695	69
720.016	69.41
720.338	69.44
720.659	69.39
720.981	69.41
721.302	69.32
721.624	69.67
721.945	69.78
722.267	69.91
722.588	70.09
722.909	70.26
723.231	70.27
723.552	70.18
723.873	70.15
724.194	69.97
724.515	69.64
724.836	69.44
725.157	69.05
725.478	69.3
725.799	69.24
726.12	69.39
726.441	69.46
726.762	69.19
727.083	69.19
727.403	69.17
727.724	69.18
728.045	69.43
728.365	69.5
728.686	69.31
729.006	69.24
729.327	69.33
729.647	69.07
729.967	68.89
730.288	68.85
730.608	69.07
730.928	69.23
731.249	69.26
731.569	69.24
731.889	69.37
732.209	69.35
732.529	69.5
732.849	69.76
733.169	69.64
733.489	69.82
733.809	69.69
734.129	69.68
734.448	69.83
734.768	69.63
735.088	69.38
735.408	69.39
735.727	69.35
736.047	69.26
736.366	69.64
736.686	69.73
737.005	70.15
737.325	69.81
737.644	69.62
737.963	69.79
738.283	69.46
738.602	69.32
738.921	69.26
739.24	69.38
739.56	69.02
739.879	69.26
740.198	69.02
740.517	69.33
740.836	69.37
741.155	69.2
741.473	69.1
741.792	69.23
742.111	69.32
742.43	69.49
742.748	69.72
743.067	69.55
743.386	69.37
743.704	69.07
744.023	69.44
744.341	69.43
744.66	69.24
744.978	69.91
745.297	70.01
745.615	70.11
745.933	70.07
746.252	70.32
746.57	70.56
746.888	70.77
747.206	70.66
747.524	70.43
747.842	70.29
748.16	70.11
748.478	70.33
748.796	70.31
749.114	69.77
749.432	69.43
749.749	69.1
750.067	69.42
750.385	69.41
750.703	69.01
751.02	68.77
751.338	68.85
751.655	68.73
751.973	68.63
752.29	68.42
752.608	68.4
752.925	68.19
753.242	68.05
753.56	67.95
753.877	67.54
754.194	67.67
754.511	67.57
754.828	67.94
755.145	67.7
755.462	67.58
755.779	67.76
756.096	67.57
756.413	68.01
756.73	67.99
757.047	67.84
757.364	68.33
757.68	68.51
757.997	68.66
758.314	68.63
758.63	69.17
758.947	69.11
759.264	68.82
759.58	69.08
759.896	68.66
760.213	68.72
760.529	68.86
760.846	69.08
761.162	69.17
761.478	68.98
761.794	69.06
762.11	69.14
762.426	69.39
762.743	69.27
763.059	69.3
763.375	69.18
763.69	69.13
764.006	69.13
764.322	69.27
764.638	69.29
764.954	68.85
765.27	68.58
765.585	68.8
765.901	68.85
766.216	68.67
766.532	68.9
766.848	68.53
767.163	68.66
767.478	68.29
767.794	68.62
768.109	68.89
768.424	68.77
768.74	68.73
769.055	68.91
769.37	68.9
769.685	68.76
770	68.8
770.315	69.34
770.63	69.08
770.945	69.4
771.26	69.16
771.575	70.17
771.89	70.06
772.205	70.07
772.52	70.15
772.834	69.87
773.149	69.98
773.464	70.85
773.778	70.46
774.093	70.94
774.407	70.47
774.722	69.99
775.036	70.33
775.351	70.77
775.665	70.59
775.979	71.3
776.293	70.95
776.608	71.19
776.922	71.36
777.236	71.22
777.55	71.07
777.864	71.23
778.178	70.41
778.492	70.43
778.806	70.45
779.12	70.28
779.434	71.12
779.747	71.14
780.061	70.43
780.375	70.7
780.689	70.57
781.002	70.71
781.316	71.48
781.629	70.95
781.943	71.49
782.256	70.85
782.57	70.42
782.883	70.52
783.196	70.42
783.51	69.89
783.823	69.42
784.136	68.59
784.449	68.83
784.762	69.35
785.075	69.3
785.388	68.96
785.701	68.8
786.014	68.46
786.327	68.88
786.64	69.71
786.953	70.11
787.266	70.41
787.578	70.47
787.891	70.25
788.204	70.07
788.516	69.31
788.829	69.52
789.141	69.93
789.454	70.37
789.766	70.69
790.079	70.38
790.391	71.42
790.703	71.78
791.016	71.19
791.328	71.35
791.64	71.74
791.952	71.76
792.264	72.78
792.576	72.57
792.888	71.76
793.2	70.74
793.512	70.42
793.824	70.33
794.136	70.54
794.448	70.73
794.76	71.28
795.071	70.71
795.383	70.69
795.695	70.55
796.006	69.97
796.318	70.16
796.629	70.83
796.941	70.22
797.252	70.11
797.564	70
797.875	69.83
798.186	69.38
798.497	69.34
798.809	68.54
799.12	68.42
799.431	68.88
799.742	69.26
800.053	69.06
800.364	69.36
800.675	68.89
800.986	68.41
801.297	68.02
801.608	68.68
801.918	69.43
802.229	69.37
802.54	69.92
802.851	69.46
803.161	68.63
803.472	68.47
803.782	68.25
804.093	68.76
804.403	69.16
804.714	69.84
805.024	69.63
805.334	69.71
805.645	70.58
805.955	70.26
806.265	70.75
806.575	70.95
806.885	69.71
807.195	70
807.505	70.81
807.815	70.95
808.125	70.93
808.435	70.14
808.745	70.03
809.055	69.7
809.365	70.26
809.674	70.7
809.984	70.22
810.294	70.9
810.603	70.18
810.913	68.72
811.222	68.57
811.532	69.25
811.841	69.74
812.151	68.95
812.46	68.68
812.769	67.66
813.079	68.13
813.388	69.09
813.697	68.59
814.006	67.44
814.315	66.44
814.624	66.24
814.933	66.59
815.242	66.87
815.551	67.47
815.86	67.27
816.169	67.11
816.478	67.98
816.786	67.57
817.095	68.27
817.404	69.17
817.712	68.85
818.021	68.47
818.33	68.63
818.638	69.43
818.947	69.56
819.255	69.51
819.563	68.47
819.872	68.61
820.18	69.07
820.488	69.37
820.796	69.67
821.105	69.72
821.413	69.62
821.721	69.64
822.029	69.62
822.337	69.68
822.645	69.67
822.953	69.64
823.26	69.83
823.568	70.12
823.876	70.18
824.184	70.13
824.491	70.08
824.799	70.08
825.107	70.25
825.414	70.23
825.722	70.18
826.029	70.63
826.337	70.75
826.644	70.73
826.951	70.93
827.259	71.09
827.566	71.06
827.873	71.33
828.18	71.24
828.488	71.17
828.795	71.16
829.102	71.44
829.409	71.47
829.716	71.31
830.023	70.82
830.329	71.14
830.636	71.65
830.943	72.24
831.25	71.89
831.557	71.6
831.863	71.55
832.17	72.2
832.476	72.39
832.783	71.96
833.089	72.11
833.396	71.35
833.702	71.43
834.009	71.91
834.315	71.39
834.621	71.39
834.928	71.72
835.234	71.77
835.54	71.59
835.846	71.57
836.152	71.37
836.458	71.53
836.764	70.65
837.07	70.51
837.376	70.32
837.682	70.13
837.988	69.04
838.293	69.82
838.599	69.32
838.905	68.27
839.211	68.55
839.516	68.13
839.822	68.03
840.127	67.72
840.433	67.14
840.738	67.44
841.044	66.8
841.349	66.13
841.654	64.33
841.959	63.88
842.265	63.7
842.57	62.36
842.875	62.26
843.18	63.08
843.485	61.91
843.79	60.58
844.095	62.5
844.4	63.28
844.705	63.06
845.01	64.09
845.315	64.34
845.619	65.34
845.924	64.86
846.229	66.96
846.533	66.24
846.838	65.82
847.142	63.36
847.447	65.18
847.751	67.27
848.056	68.84
848.36	70.34
848.664	70.24
848.969	72.6
849.273	71.72
849.577	69.04
849.881	69.15
850.185	70.41
850.489	67.95
850.794	67.72
851.097	66.63
851.401	65.27
851.705	66.01
852.009	63.92
852.313	64.68
852.617	61.86
852.92	63.28
853.224	63.96
853.528	67.42
853.831	67.08
854.135	64.43
854.438	64.31
854.742	61.56
855.045	62.55
855.349	63.33
855.652	63.71
855.955	66.16
856.259	66.29
856.562	68.58
856.865	71.4
857.168	69.65
857.471	70.02
857.774	70.09
858.077	70.47
858.38	69.88
858.683	67.68
858.986	70.57
859.289	70.96
859.592	71.47
859.894	69.12
860.197	70.03
860.5	70.73
860.802	71.03
861.105	72.14
861.407	70.64
861.71	71.29
862.012	69.47
862.315	70.13
862.617	69.07
862.919	66.34
863.222	65.47
863.524	64.02
863.826	64.56
864.128	63.61
864.43	64.53
864.732	64.41
865.034	66.78
865.336	65.75
865.638	65.7
865.94	65.07
866.242	67.03
866.544	66.6
866.846	67.61
867.147	70.45
867.449	69.95
867.751	72.43
868.052	69.42
868.354	72.31
868.655	72.68
868.957	74.12
869.258	76.08
869.56	73.47
869.861	76.92
870.162	76.26
870.463	78.14
870.765	77.45
871.066	78.05
871.367	76.19
871.668	74.25
871.969	74.32
872.27	73.63
872.571	73.37
872.872	72.81
873.173	71.97
873.473	70.73
873.774	71.21
874.075	69.96
874.376	70.89
874.676	70.95
874.977	69.5
875.277	71.98
875.578	70.57
875.878	72.15
876.179	72.58
876.479	71.6
876.78	71.67
877.08	70.54
877.38	71.24
877.68	73.09
877.981	75.3
878.281	74.59
878.581	75.65
