Data from BA55519_Reflection_00001.txt Node
Date: Tue Nov 19 11:52:32 EST 2019
User: vgr7
Spectrometer: USB2G7710
Scans to average: 3
Trigger mode: 4
Integration Time (sec): 2.000000E-2
Electric dark correction enabled: true
Boxcar width: 10
XAxis mode: Wavelengths
Number of Pixels in Spectrum: 2048
>>>>>Begin Spectral Data<<<<<
177.721	34.67
178.105	39.39
178.488	6.55
178.871	1.49
179.254	2.78
179.636	14.98
180.019	109.04
180.402	35.29
180.785	-2150
181.168	-280.6
181.55	-215.48
181.933	-578.57
182.316	-1150
182.698	-1483.33
183.081	-363.54
183.463	-299.19
183.846	-238.61
184.228	-166.48
184.611	-102.87
184.993	-79.73
185.376	-74.87
185.758	-47
186.14	-61.61
186.522	-67.94
186.904	-61.94
187.287	-78.32
187.669	-75
188.051	-95.21
188.433	-134.92
188.815	-100.22
189.197	-79.18
189.579	-86.62
189.961	-63.58
190.342	-51.43
190.724	-36.14
191.106	-35.98
191.488	-34.05
191.869	-29.4
192.251	-30.24
192.633	-27.02
193.014	-22.06
193.396	-24.39
193.777	-25
194.159	-13.06
194.54	-17.61
194.922	-28.13
195.303	-19.66
195.684	-32.59
196.065	-28.08
196.447	-17.48
196.828	-22.18
197.209	-32.92
197.59	-17.39
197.971	-15.34
198.352	-14.4
198.733	-17.75
199.114	-19.78
199.495	-14.4
199.876	-8.94
200.257	-11.32
200.638	-7.98
201.018	-11.79
201.399	1.4
201.78	-3.52
202.16	-6.16
202.541	8.9
202.922	12.24
203.302	-5.37
203.683	0.62
204.063	-3.09
204.444	-2.61
204.824	1.49
205.204	14.42
205.585	12.91
205.965	-0.75
206.345	-9.48
206.725	-19.36
207.106	-9.18
207.486	-5.49
207.866	-11.18
208.246	2.4
208.626	-11.3
209.006	-15.99
209.386	-25.91
209.766	-30.63
210.145	-28.77
210.525	-26.16
210.905	-10.25
211.285	-12.71
211.664	-2.48
212.044	-6.55
212.424	-11.17
212.803	-18.33
213.183	-24.67
213.562	-22.67
213.942	-13.24
214.321	-13.35
214.701	-6.98
215.08	-15.53
215.459	-9.19
215.838	-10.93
216.218	-29.29
216.597	-20.59
216.976	-21.89
217.355	-23.38
217.734	-30.31
218.113	-10.67
218.492	-13.49
218.871	-24.07
219.25	-10.66
219.629	-26.86
220.008	-14.61
220.387	-19.68
220.766	-19.25
221.144	-27.96
221.523	-41.12
221.902	-55.27
222.28	-41.5
222.659	-31.73
223.037	-36.01
223.416	-48.68
223.794	-40.24
224.173	-37.29
224.551	-36.27
224.929	-33.98
225.308	-30.86
225.686	-26.59
226.064	-34.82
226.442	-29.43
226.821	-29.78
227.199	-31.37
227.577	-27.66
227.955	-24.81
228.333	-24.53
228.711	-21.44
229.089	-16.8
229.467	-14.1
229.845	-12.05
230.222	-11.86
230.6	-14.63
230.978	-12.81
231.356	-12.94
231.733	-11.69
232.111	-9.54
232.488	-7.32
232.866	-6.03
233.243	-5.71
233.621	-1.18
233.998	0.58
234.376	-1.55
234.753	-1.45
235.13	-0.55
235.508	0.36
235.885	-1.22
236.262	-0.41
236.639	-0.06
237.016	-0.16
237.393	0.77
237.77	0.22
238.147	0.15
238.524	2.82
238.901	2.62
239.278	3.53
239.655	3.07
240.032	2.87
240.409	2.89
240.785	2.77
241.162	2.68
241.539	1.37
241.915	1.1
242.292	1.83
242.668	2.51
243.045	3.24
243.421	3.44
243.798	3.84
244.174	3.86
244.551	3.86
244.927	3.8
245.303	3.66
245.679	3.94
246.056	4.04
246.432	3.89
246.808	4.1
247.184	4.16
247.56	3.99
247.936	4.17
248.312	4.22
248.688	4.32
249.064	4.03
249.44	4.2
249.815	4.29
250.191	4.24
250.567	4.06
250.943	4.08
251.318	3.99
251.694	4.03
252.069	4.02
252.445	4.13
252.82	4.24
253.196	4.58
253.571	4.6
253.947	4.7
254.322	4.56
254.697	4.4
255.073	4.2
255.448	4.08
255.823	4.16
256.198	4.28
256.573	4.35
256.948	4.84
257.323	4.91
257.698	5.09
258.073	5.08
258.448	5.1
258.823	4.81
259.198	4.88
259.573	4.55
259.948	4.74
260.322	4.73
260.697	4.8
261.072	4.95
261.446	5.05
261.821	4.96
262.195	4.93
262.57	4.89
262.944	5.04
263.319	5.14
263.693	5.01
264.067	4.83
264.442	4.64
264.816	4.5
265.19	4.52
265.564	4.33
265.938	4.26
266.313	4.18
266.687	4.08
267.061	4.04
267.435	4.59
267.809	4.4
268.183	4.27
268.556	4.1
268.93	4.01
269.304	3.96
269.678	4.29
270.051	4.4
270.425	4.45
270.799	4.23
271.172	4.4
271.546	4.6
271.919	4.77
272.293	4.9
272.666	4.93
273.04	4.89
273.413	4.86
273.787	5.03
274.16	5.07
274.533	5.17
274.906	5.24
275.279	4.88
275.653	4.88
276.026	4.99
276.399	5.07
276.772	5.02
277.145	5.02
277.518	4.89
277.891	4.88
278.263	5.08
278.636	5.38
279.009	5.32
279.382	4.99
279.755	4.8
280.127	4.85
280.5	4.86
280.872	4.84
281.245	4.88
281.617	4.8
281.99	4.97
282.362	5.13
282.735	5.09
283.107	5.27
283.479	5.47
283.852	5.29
284.224	5.34
284.596	5.14
284.968	5.08
285.34	4.96
285.713	4.94
286.085	4.8
286.457	4.62
286.829	4.66
287.201	4.88
287.572	4.97
287.944	5.11
288.316	4.99
288.688	5.08
289.06	5.3
289.431	5.25
289.803	5.25
290.175	5.35
290.546	5.37
290.918	5.3
291.289	5.04
291.661	5.22
292.032	5.25
292.403	5.42
292.775	5.48
293.146	5.57
293.517	5.64
293.889	5.68
294.26	5.76
294.631	5.86
295.002	5.84
295.373	5.79
295.744	5.57
296.115	5.89
296.486	5.85
296.857	5.7
297.228	5.7
297.599	5.69
297.97	5.57
298.34	5.46
298.711	5.48
299.082	5.6
299.452	5.64
299.823	5.59
300.194	5.57
300.564	5.47
300.935	5.36
301.305	5.32
301.676	5.3
302.046	5.32
302.416	5.16
302.787	5.13
303.157	5.16
303.527	5.2
303.897	4.95
304.267	4.94
304.637	4.97
305.008	5.06
305.378	4.99
305.748	4.86
306.117	5.02
306.487	4.95
306.857	4.89
307.227	4.91
307.597	4.84
307.967	4.9
308.336	4.91
308.706	4.92
309.076	4.94
309.445	5.03
309.815	4.95
310.184	5.02
310.554	5.01
310.923	5.17
311.293	5.24
311.662	5.34
312.031	5.39
312.401	5.28
312.77	5.19
313.139	5.24
313.508	5.24
313.877	5.18
314.246	5.2
314.616	5.19
314.985	5.11
315.353	5.24
315.722	5.38
316.091	5.43
316.46	5.49
316.829	5.58
317.198	5.5
317.567	5.64
317.935	5.66
318.304	5.8
318.672	5.71
319.041	5.61
319.41	5.55
319.778	5.63
320.147	5.77
320.515	5.82
320.883	5.83
321.252	5.93
321.62	5.91
321.988	6.03
322.357	6.01
322.725	6.01
323.093	5.78
323.461	5.6
323.829	5.67
324.197	5.63
324.565	5.55
324.933	5.53
325.301	5.4
325.669	5.31
326.037	5.24
326.405	5.21
326.772	5.23
327.14	5.17
327.508	4.9
327.875	4.85
328.243	4.77
328.61	4.8
328.978	4.75
329.346	4.82
329.713	4.86
330.08	5
330.448	5.06
330.815	5.26
331.182	5.05
331.55	4.9
331.917	4.96
332.284	5.09
332.651	5.1
333.018	5.12
333.385	5.16
333.752	5.18
334.119	5.3
334.486	5.33
334.853	5.41
335.22	5.58
335.587	5.62
335.954	5.71
336.32	5.61
336.687	5.62
337.054	5.55
337.42	5.54
337.787	5.46
338.153	5.33
338.52	5.35
338.886	5.52
339.253	5.55
339.619	5.69
339.986	5.5
340.352	5.49
340.718	5.49
341.084	5.48
341.451	5.47
341.817	5.37
342.183	5.33
342.549	5.19
342.915	5.24
343.281	5.25
343.647	5.2
344.013	5.17
344.379	5.17
344.745	5.15
345.11	5.06
345.476	4.94
345.842	5.02
346.208	5.1
346.573	5.18
346.939	5.33
347.304	5.2
347.67	5.23
348.035	5.28
348.401	5.29
348.766	5.29
349.132	5.26
349.497	5.26
349.862	5.34
350.228	5.39
350.593	5.38
350.958	5.33
351.323	5.36
351.688	5.5
352.053	5.52
352.418	5.52
352.783	5.54
353.148	5.67
353.513	5.57
353.878	5.41
354.243	5.34
354.608	5.23
354.972	5.15
355.337	5.28
355.702	5.33
356.066	5.35
356.431	5.35
356.795	5.37
357.16	5.38
357.524	5.31
357.889	5.31
358.253	5.33
358.618	5.34
358.982	5.32
359.346	5.23
359.71	5.29
360.075	5.33
360.439	5.3
360.803	5.29
361.167	5.35
361.531	5.41
361.895	5.43
362.259	5.55
362.623	5.61
362.987	5.43
363.351	5.37
363.714	5.38
364.078	5.4
364.442	5.36
364.806	5.35
365.169	5.44
365.533	5.48
365.896	5.5
366.26	5.54
366.623	5.54
366.987	5.59
367.35	5.55
367.714	5.49
368.077	5.53
368.44	5.53
368.803	5.45
369.167	5.38
369.53	5.36
369.893	5.27
370.256	5.22
370.619	5.3
370.982	5.24
371.345	5.27
371.708	5.27
372.071	5.29
372.434	5.27
372.797	5.17
373.159	5.15
373.522	5.1
373.885	5.07
374.247	5.06
374.61	4.98
374.973	4.94
375.335	5
375.698	4.96
376.06	4.98
376.423	5.08
376.785	5.2
377.147	5.18
377.51	5.18
377.872	5.23
378.234	5.25
378.596	5.29
378.958	5.31
379.321	5.29
379.683	5.3
380.045	5.32
380.407	5.35
380.769	5.32
381.13	5.23
381.492	5.22
381.854	5.25
382.216	5.31
382.578	5.39
382.939	5.41
383.301	5.43
383.663	5.42
384.024	5.4
384.386	5.33
384.747	5.31
385.109	5.27
385.47	5.27
385.832	5.26
386.193	5.24
386.554	5.18
386.916	5.19
387.277	5.13
387.638	5.09
387.999	5.11
388.36	5.12
388.721	5.21
389.082	5.23
389.443	5.23
389.804	5.24
390.165	5.18
390.526	5.17
390.887	5.2
391.248	5.18
391.609	5.13
391.969	5.14
392.33	5.19
392.691	5.25
393.051	5.25
393.412	5.27
393.772	5.28
394.133	5.29
394.493	5.29
394.854	5.35
395.214	5.37
395.574	5.34
395.935	5.33
396.295	5.33
396.655	5.3
397.015	5.3
397.376	5.27
397.736	5.27
398.096	5.24
398.456	5.16
398.816	5.17
399.176	5.2
399.535	5.16
399.895	5.12
400.255	5.09
400.615	5.09
400.975	5.05
401.334	5.04
401.694	5.08
402.054	5.06
402.413	5.04
402.773	5.04
403.132	5.06
403.492	5.07
403.851	5.02
404.211	5.01
404.57	5.02
404.929	5.03
405.288	5.03
405.648	5.02
406.007	5.03
406.366	5.04
406.725	5.04
407.084	5.05
407.443	5.06
407.802	5.04
408.161	5
408.52	5.03
408.879	5.04
409.238	5.01
409.596	5.04
409.955	5.04
410.314	5.05
410.673	5.05
411.031	5.05
411.39	5.05
411.748	5.08
412.107	5.06
412.465	5.04
412.824	5.04
413.182	5.07
413.54	5.1
413.899	5.09
414.257	5.1
414.615	5.11
414.974	5.1
415.332	5.14
415.69	5.18
416.048	5.16
416.406	5.15
416.764	5.15
417.122	5.12
417.48	5.13
417.838	5.13
418.195	5.14
418.553	5.15
418.911	5.16
419.269	5.15
419.626	5.14
419.984	5.15
420.342	5.15
420.699	5.15
421.057	5.16
421.414	5.16
421.772	5.15
422.129	5.12
422.486	5.13
422.844	5.11
423.201	5.1
423.558	5.07
423.915	5.09
424.273	5.08
424.63	5.09
424.987	5.07
425.344	5.08
425.701	5.06
426.058	5.04
426.415	5.04
426.772	5.04
427.128	5.03
427.485	5.03
427.842	5.04
428.199	5.03
428.555	5.01
428.912	5
429.269	4.99
429.625	5.01
429.982	5
430.338	5.01
430.695	5
431.051	5.06
431.407	5.03
431.764	5.01
432.12	5.01
432.476	5.01
432.832	5
433.189	5.01
433.545	4.98
433.901	4.97
434.257	4.95
434.613	4.94
434.969	4.93
435.325	4.92
435.681	4.93
436.036	4.94
436.392	4.95
436.748	4.96
437.104	4.95
437.459	4.95
437.815	4.94
438.171	4.95
438.526	4.92
438.882	4.95
439.237	4.98
439.593	4.99
439.948	4.99
440.304	4.97
440.659	4.98
441.014	5.02
441.369	5.02
441.725	5.05
442.08	5.05
442.435	5.06
442.79	5.06
443.145	5.06
443.5	5.04
443.855	5.02
444.21	5
444.565	5.01
444.92	5.02
445.275	5
445.629	4.99
445.984	4.98
446.339	4.98
446.693	4.97
447.048	4.95
447.403	4.94
447.757	4.95
448.112	4.93
448.466	4.91
448.82	4.9
449.175	4.9
449.529	4.91
449.883	4.89
450.238	4.88
450.592	4.87
450.946	4.87
451.3	4.89
451.654	4.9
452.008	4.9
452.362	4.88
452.716	4.9
453.07	4.91
453.424	4.92
453.778	4.89
454.132	4.86
454.486	4.89
454.839	4.9
455.193	4.89
455.547	4.91
455.9	4.91
456.254	4.93
456.607	4.94
456.961	4.94
457.314	4.94
457.668	4.94
458.021	4.94
458.375	4.91
458.728	4.91
459.081	4.92
459.434	4.92
459.787	4.94
460.141	4.94
460.494	4.92
460.847	4.93
461.2	4.93
461.553	4.95
461.906	4.94
462.259	4.95
462.611	4.94
462.964	4.95
463.317	4.95
463.67	4.95
464.022	4.94
464.375	4.93
464.728	4.94
465.08	4.94
465.433	4.96
465.785	4.98
466.138	4.96
466.49	4.98
466.843	4.93
467.195	4.94
467.547	4.94
467.899	4.96
468.252	4.98
468.604	4.98
468.956	4.96
469.308	4.97
469.66	4.96
470.012	4.97
470.364	4.94
470.716	4.96
471.068	4.95
471.42	4.95
471.772	4.96
472.123	4.98
472.475	4.97
472.827	4.94
473.178	4.95
473.53	4.98
473.882	4.98
474.233	5.03
474.585	5
474.936	5.01
475.288	4.98
475.639	5
475.99	4.99
476.342	5.02
476.693	5.04
477.044	5.05
477.395	5.04
477.746	5.05
478.097	5.05
478.448	5.05
478.8	5.03
479.15	5.04
479.501	5.01
479.852	5.03
480.203	5.06
480.554	5.04
480.905	5.03
481.255	5.03
481.606	5.03
481.957	5.04
482.307	5.02
482.658	5.04
483.009	5.04
483.359	5.05
483.709	5.05
484.06	5.04
484.41	5.04
484.761	5.04
485.111	5.04
485.461	5.04
485.811	5.04
486.162	5.06
486.512	5.06
486.862	5.07
487.212	5.07
487.562	5.07
487.912	5.08
488.262	5.08
488.612	5.09
488.961	5.09
489.311	5.09
489.661	5.1
490.011	5.1
490.36	5.1
490.71	5.09
491.06	5.09
491.409	5.09
491.759	5.09
492.108	5.09
492.458	5.1
492.807	5.11
493.157	5.12
493.506	5.11
493.855	5.1
494.204	5.12
494.554	5.11
494.903	5.13
495.252	5.14
495.601	5.15
495.95	5.15
496.299	5.13
496.648	5.15
496.997	5.16
497.346	5.16
497.695	5.15
498.043	5.16
498.392	5.16
498.741	5.18
499.09	5.19
499.438	5.2
499.787	5.19
500.135	5.2
500.484	5.18
500.832	5.16
501.181	5.17
501.529	5.17
501.878	5.14
502.226	5.16
502.574	5.14
502.923	5.13
503.271	5.15
503.619	5.16
503.967	5.15
504.315	5.14
504.663	5.16
505.011	5.18
505.359	5.17
505.707	5.17
506.055	5.16
506.403	5.16
506.751	5.16
507.098	5.16
507.446	5.16
507.794	5.17
508.141	5.19
508.489	5.19
508.837	5.19
509.184	5.22
509.531	5.19
509.879	5.19
510.226	5.2
510.574	5.22
510.921	5.2
511.268	5.22
511.616	5.23
511.963	5.22
512.31	5.22
512.657	5.24
513.004	5.25
513.351	5.24
513.698	5.23
514.045	5.23
514.392	5.25
514.739	5.27
515.086	5.29
515.432	5.31
515.779	5.32
516.126	5.33
516.473	5.33
516.819	5.35
517.166	5.38
517.512	5.38
517.859	5.39
518.205	5.4
518.552	5.39
518.898	5.36
519.245	5.37
519.591	5.35
519.937	5.34
520.283	5.33
520.629	5.35
520.976	5.35
521.322	5.36
521.668	5.36
522.014	5.37
522.36	5.36
522.706	5.37
523.052	5.4
523.398	5.4
523.743	5.42
524.089	5.42
524.435	5.41
524.781	5.43
525.126	5.45
525.472	5.48
525.817	5.49
526.163	5.52
526.509	5.54
526.854	5.55
527.199	5.57
527.545	5.58
527.89	5.58
528.235	5.58
528.581	5.58
528.926	5.59
529.271	5.58
529.616	5.58
529.961	5.57
530.306	5.56
530.651	5.56
530.996	5.56
531.341	5.57
531.686	5.57
532.031	5.57
532.376	5.56
532.721	5.54
533.065	5.55
533.41	5.53
533.755	5.52
534.099	5.52
534.444	5.51
534.788	5.52
535.133	5.53
535.477	5.55
535.822	5.55
536.166	5.55
536.51	5.55
536.855	5.57
537.199	5.56
537.543	5.56
537.887	5.56
538.231	5.55
538.576	5.55
538.92	5.57
539.264	5.58
539.608	5.59
539.951	5.58
540.295	5.58
540.639	5.58
540.983	5.59
541.327	5.61
541.671	5.61
542.014	5.61
542.358	5.61
542.701	5.62
543.045	5.62
543.389	5.61
543.732	5.61
544.075	5.59
544.419	5.61
544.762	5.62
545.105	5.63
545.449	5.64
545.792	5.64
546.135	5.63
546.478	5.6
546.821	5.59
547.165	5.62
547.508	5.63
547.851	5.63
548.194	5.62
548.536	5.58
548.879	5.58
549.222	5.56
549.565	5.56
549.908	5.53
550.25	5.53
550.593	5.54
550.936	5.55
551.278	5.57
551.621	5.57
551.963	5.59
552.306	5.58
552.648	5.58
552.991	5.6
553.333	5.58
553.675	5.63
554.017	5.63
554.36	5.61
554.702	5.6
555.044	5.63
555.386	5.64
555.728	5.66
556.07	5.67
556.412	5.67
556.754	5.69
557.096	5.71
557.438	5.68
557.78	5.69
558.121	5.68
558.463	5.64
558.805	5.64
559.147	5.63
559.488	5.58
559.83	5.59
560.171	5.57
560.513	5.57
560.854	5.56
561.196	5.55
561.537	5.6
561.878	5.61
562.22	5.61
562.561	5.6
562.902	5.6
563.243	5.58
563.584	5.6
563.925	5.6
564.266	5.57
564.607	5.62
564.948	5.61
565.289	5.63
565.63	5.65
565.971	5.66
566.312	5.65
566.653	5.66
566.993	5.64
567.334	5.67
567.675	5.7
568.015	5.66
568.356	5.65
568.696	5.63
569.037	5.66
569.377	5.66
569.718	5.68
570.058	5.69
570.398	5.69
570.739	5.66
571.079	5.67
571.419	5.69
571.759	5.68
572.099	5.62
572.439	5.65
572.779	5.6
573.119	5.58
573.459	5.6
573.799	5.59
574.139	5.6
574.479	5.58
574.819	5.54
575.158	5.55
575.498	5.56
575.838	5.56
576.177	5.51
576.517	5.51
576.856	5.48
577.196	5.47
577.535	5.48
577.875	5.5
578.214	5.49
578.553	5.47
578.893	5.45
579.232	5.49
579.571	5.45
579.91	5.52
580.25	5.52
580.589	5.54
580.928	5.53
581.267	5.5
581.606	5.49
581.945	5.51
582.283	5.53
582.622	5.51
582.961	5.5
583.3	5.49
583.639	5.5
583.977	5.49
584.316	5.49
584.654	5.52
584.993	5.47
585.332	5.48
585.67	5.54
586.008	5.55
586.347	5.58
586.685	5.56
587.024	5.56
587.362	5.55
587.7	5.56
588.038	5.61
588.376	5.69
588.715	5.67
589.053	5.7
589.391	5.72
589.729	5.72
590.067	5.77
590.404	5.78
590.742	5.79
591.08	5.88
591.418	5.84
591.756	5.83
592.093	5.86
592.431	5.85
592.769	5.83
593.106	5.83
593.444	5.85
593.781	5.84
594.119	5.85
594.456	5.85
594.793	5.83
595.131	5.82
595.468	5.84
595.805	5.85
596.143	5.88
596.48	5.87
596.817	5.86
597.154	5.85
597.491	5.86
597.828	5.81
598.165	5.78
598.502	5.83
598.839	5.82
599.176	5.8
599.512	5.78
599.849	5.79
600.186	5.79
600.523	5.74
600.859	5.77
601.196	5.73
601.532	5.73
601.869	5.73
602.205	5.7
602.542	5.64
602.878	5.66
603.215	5.62
603.551	5.61
603.887	5.59
604.223	5.59
604.56	5.6
604.896	5.65
605.232	5.63
605.568	5.63
605.904	5.61
606.24	5.64
606.576	5.68
606.912	5.66
607.248	5.7
607.583	5.67
607.919	5.67
608.255	5.69
608.591	5.72
608.926	5.71
609.262	5.73
609.597	5.75
609.933	5.75
610.268	5.76
610.604	5.72
610.939	5.77
611.275	5.69
611.61	5.71
611.945	5.67
612.281	5.65
612.616	5.61
612.951	5.67
613.286	5.7
613.621	5.68
613.956	5.73
614.291	5.67
614.626	5.72
614.961	5.73
615.296	5.75
615.631	5.76
615.966	5.83
616.3	5.86
616.635	5.91
616.97	5.89
617.304	5.89
617.639	5.93
617.973	5.87
618.308	5.94
618.642	5.83
618.977	5.86
619.311	5.9
619.646	5.93
619.98	5.94
620.314	5.88
620.648	5.87
620.983	5.82
621.317	5.9
621.651	5.89
621.985	5.96
622.319	5.96
622.653	5.92
622.987	5.88
623.321	5.83
623.655	5.81
623.988	5.8
624.322	5.8
624.656	5.79
624.99	5.82
625.323	5.85
625.657	5.92
625.99	5.91
626.324	5.85
626.657	5.83
626.991	5.76
627.324	5.79
627.658	5.81
627.991	5.85
628.324	5.81
628.657	5.8
628.991	5.75
629.324	5.74
629.657	5.75
629.99	5.73
630.323	5.76
630.656	5.77
630.989	5.82
631.322	5.8
631.655	5.76
631.987	5.83
632.32	5.8
632.653	5.76
632.986	5.79
633.318	5.87
633.651	5.89
633.984	5.92
634.316	5.86
634.649	5.88
634.981	5.86
635.313	5.89
635.646	5.92
635.978	5.96
636.31	5.89
636.643	5.9
636.975	5.88
637.307	5.91
637.639	5.94
637.971	5.84
638.303	5.84
638.635	5.95
638.967	5.87
639.299	5.85
639.631	5.82
639.963	5.83
640.295	5.84
640.626	5.85
640.958	5.87
641.29	5.93
641.621	5.89
641.953	5.9
642.285	5.92
642.616	5.99
642.948	6.01
643.279	6.08
643.61	6.05
643.942	6.11
644.273	6.04
644.604	6
644.936	6.08
645.267	6.08
645.598	6.03
645.929	6.02
646.26	6.05
646.591	6.14
646.922	6.16
647.253	6.1
647.584	6.13
647.915	6.06
648.245	6.03
648.576	5.99
648.907	5.89
649.238	5.81
649.568	5.72
649.899	5.71
650.229	5.79
650.56	5.74
650.89	5.78
651.221	5.8
651.551	5.78
651.882	5.75
652.212	5.8
652.542	5.86
652.872	5.87
653.203	5.94
653.533	5.95
653.863	5.89
654.193	5.88
654.523	5.87
654.853	5.93
655.183	6.02
655.513	6.04
655.843	6.1
656.172	6.11
656.502	6.08
656.832	6.02
657.162	5.93
657.491	5.98
657.821	5.87
658.15	5.88
658.48	5.92
658.809	5.97
659.139	6
659.468	5.94
659.798	6.01
660.127	5.94
660.456	5.93
660.785	5.97
661.115	5.94
661.444	6
661.773	6.01
662.102	5.93
662.431	5.96
662.76	6.01
663.089	6.02
663.418	6.1
663.747	6.13
664.076	6.16
664.404	6.23
664.733	6.28
665.062	6.28
665.39	6.28
665.719	6.19
666.048	6.14
666.376	6.13
666.705	6.05
667.033	6.08
667.362	6.09
667.69	6.09
668.018	6.13
668.347	6.06
668.675	6.06
669.003	6.07
669.331	6.09
669.659	6.06
669.987	6.12
670.315	6.09
670.643	6.01
670.971	6.03
671.299	6.02
671.627	6.03
671.955	6.06
672.283	6.02
672.61	6
672.938	5.98
673.266	5.97
673.593	5.96
673.921	5.96
674.249	5.92
674.576	5.86
674.904	5.77
675.231	5.83
675.558	5.83
675.886	5.85
676.213	5.77
676.54	5.87
676.867	5.81
677.195	5.84
677.522	5.88
677.849	5.86
678.176	5.79
678.503	5.78
678.83	5.75
679.157	5.74
679.484	5.84
679.81	5.82
680.137	5.93
680.464	5.95
680.791	5.95
681.117	5.99
681.444	6.05
681.771	6.12
682.097	6.04
682.424	6.04
682.75	6.04
683.077	6.12
683.403	6.04
683.729	6.01
684.056	6.03
684.382	6.01
684.708	6.05
685.034	6.12
685.36	6.13
685.686	6.16
686.012	6.2
686.339	6.16
686.664	6.22
686.99	6.05
687.316	6.05
687.642	6.09
687.968	6.11
688.294	6.11
688.619	6.16
688.945	6.24
689.271	6.18
689.596	6.2
689.922	6.09
690.247	6.08
690.573	6.08
690.898	6.1
691.224	6.25
691.549	6.16
691.874	6.12
692.2	6.04
692.525	6.01
692.85	6.05
693.175	6.16
693.5	6.19
693.825	6.37
694.15	6.38
694.475	6.36
694.8	6.31
695.125	6.32
695.45	6.31
695.775	6.2
696.099	6.28
696.424	6.37
696.749	6.52
697.073	6.51
697.398	6.64
697.723	6.58
698.047	6.55
698.372	6.59
698.696	6.6
699.02	6.66
699.345	6.68
699.669	6.62
699.993	6.51
700.318	6.56
700.642	6.51
700.966	6.51
701.29	6.56
701.614	6.65
701.938	6.66
702.262	6.62
702.586	6.75
702.91	6.82
703.234	6.65
703.557	6.61
703.881	6.68
704.205	6.54
704.529	6.65
704.852	6.58
705.176	6.8
705.499	6.87
705.823	6.85
706.146	6.8
706.47	6.9
706.793	6.98
707.117	6.93
707.44	6.87
707.763	6.89
708.086	6.69
708.409	6.63
708.733	6.54
709.056	6.6
709.379	6.56
709.702	6.48
710.025	6.59
710.348	6.58
710.671	6.61
710.993	6.58
711.316	6.45
711.639	6.5
711.962	6.34
712.284	6.17
712.607	6.22
712.93	6.21
713.252	6.07
713.575	6.13
713.897	6.17
714.22	6.23
714.542	6.23
714.864	6.3
715.187	6.31
715.509	6.37
715.831	6.31
716.153	6.44
716.475	6.48
716.798	6.43
717.12	6.39
717.442	6.38
717.764	6.42
718.085	6.49
718.407	6.47
718.729	6.38
719.051	6.47
719.373	6.43
719.695	6.53
720.016	6.58
720.338	6.53
720.659	6.45
720.981	6.34
721.302	6.52
721.624	6.56
721.945	6.6
722.267	6.56
722.588	6.75
722.909	6.61
723.231	6.59
723.552	6.62
723.873	6.68
724.194	6.64
724.515	6.71
724.836	6.67
725.157	6.66
725.478	6.6
725.799	6.61
726.12	6.68
726.441	6.66
726.762	6.73
727.083	6.78
727.403	6.7
727.724	6.68
728.045	6.56
728.365	6.65
728.686	6.59
729.006	6.72
729.327	6.73
729.647	6.74
729.967	6.63
730.288	6.69
730.608	6.74
730.928	6.78
731.249	6.73
731.569	6.76
731.889	6.72
732.209	6.68
732.529	6.71
732.849	6.76
733.169	6.9
733.489	6.98
733.809	6.91
734.129	6.83
734.448	7.05
734.768	7.03
735.088	6.98
735.408	6.93
735.727	6.67
736.047	6.6
736.366	6.41
736.686	6.43
737.005	6.48
737.325	6.33
737.644	6.26
737.963	6.22
738.283	6.15
738.602	6.23
738.921	6.44
739.24	6.63
739.56	6.65
739.879	6.72
740.198	6.68
740.517	6.65
740.836	6.76
741.155	6.55
741.473	6.49
741.792	6.68
742.111	6.88
742.43	7
742.748	7.03
743.067	7.12
743.386	6.98
743.704	7.04
744.023	7.15
744.341	7.12
744.66	7.12
744.978	7.33
745.297	7.14
745.615	7.05
745.933	6.93
746.252	6.98
746.57	6.65
746.888	6.78
747.206	6.72
747.524	6.73
747.842	6.76
748.16	6.68
748.478	6.34
748.796	6.1
749.114	5.96
749.432	5.97
749.749	6.1
750.067	6.13
750.385	6.04
750.703	5.88
751.02	5.99
751.338	5.72
751.655	5.52
751.973	5.65
752.29	5.72
752.608	5.46
752.925	5.44
753.242	5.61
753.56	5.26
753.877	5.52
754.194	5.79
754.511	5.7
754.828	5.83
755.145	6.09
755.462	6.23
755.779	6.4
756.096	6.23
756.413	6.42
756.73	6.6
757.047	6.28
757.364	6.54
757.68	6.54
757.997	7.22
758.314	7.16
758.63	7.35
758.947	7.2
759.264	7.36
759.58	7.31
759.896	7.1
760.213	7.16
760.529	7.24
760.846	7.12
761.162	7.4
761.478	7.26
761.794	7.47
762.11	7.29
762.426	7.22
762.743	7.11
763.059	7.23
763.375	7.31
763.69	7.63
764.006	7.72
764.322	7.69
764.638	7.42
764.954	7.51
765.27	7.71
765.585	7.84
765.901	7.84
766.216	7.78
766.532	8
766.848	8.2
767.163	7.98
767.478	7.67
767.794	7.63
768.109	7.84
768.424	7.34
768.74	7.44
769.055	7.8
769.37	7.99
769.685	7.83
770	7.47
770.315	7.53
770.63	7.33
770.945	7.46
771.26	7.5
771.575	7.5
771.89	7.05
772.205	6.7
772.52	6.81
772.834	6.74
773.149	6.47
773.464	6.38
773.778	6.25
774.093	6.39
774.407	6.61
774.722	6.36
775.036	6.95
775.351	7.18
775.665	6.82
775.979	6.92
776.293	6.9
776.608	7.43
776.922	7.06
777.236	6.77
777.55	6.43
777.864	6.32
778.178	6.18
778.492	6.1
778.806	6.4
779.12	6.09
779.434	6.37
779.747	6.84
780.061	6.97
780.375	7.22
780.689	7.36
781.002	6.99
781.316	7.08
781.629	6.7
781.943	6.79
782.256	7.09
782.57	7.2
782.883	7.32
783.196	6.95
783.51	7.01
783.823	7.75
784.136	7.71
784.449	7.85
784.762	7.87
785.075	7.33
785.388	7.47
785.701	7.43
786.014	7.37
786.327	7.27
786.64	6.92
786.953	6.78
787.266	6.87
787.578	6.89
787.891	7.01
788.204	7.2
788.516	7.02
788.829	7.07
789.141	7.02
789.454	6.84
789.766	7.22
790.079	7.36
790.391	6.7
790.703	6.76
791.016	7.01
791.328	7.29
791.64	7.62
791.952	7.59
792.264	7.73
792.576	7.58
792.888	7.25
793.2	7.22
793.512	7.62
793.824	8.12
794.136	8.08
794.448	7.8
794.76	7.72
795.071	7.38
795.383	7.12
795.695	7.31
796.006	7.16
796.318	6.55
796.629	6.52
796.941	6.93
797.252	6.64
797.564	6.66
797.875	6.31
798.186	6.75
798.497	6.8
798.809	6.75
799.12	6.35
799.431	6.54
799.742	6.51
800.053	6.09
800.364	5.99
800.675	6.08
800.986	6.46
801.297	6.53
801.608	6.85
801.918	6.81
802.229	6.34
802.54	6.69
802.851	6.84
803.161	6.92
803.472	6.7
803.782	7.53
804.093	7.19
804.403	7.28
804.714	6.94
805.024	7.22
805.334	6.97
805.645	7.44
805.955	7.51
806.265	7.24
806.575	7.61
806.885	7.15
807.195	7.03
807.505	7.23
807.815	6.48
808.125	6.35
808.435	5.74
808.745	5.68
809.055	5.82
809.365	6.29
809.674	6.17
809.984	6.26
810.294	6.29
810.603	6.12
810.913	6.16
811.222	5.91
811.532	5.44
811.841	6.01
812.151	6.71
812.46	6.29
812.769	6.85
813.079	6.89
813.388	6.82
813.697	6.09
814.006	5.75
814.315	6.05
814.624	5.73
814.933	6.77
815.242	6.81
815.551	6.76
815.86	6.75
816.169	6.49
816.478	6.76
816.786	6.18
817.095	6.43
817.404	6.59
817.712	7.5
818.021	7.82
818.33	7.26
818.638	7.28
818.947	7.53
819.255	7.84
819.563	7.82
819.872	8.16
820.18	8.6
820.488	8.94
820.796	8.93
821.105	9.1
821.413	8.97
821.721	8.92
822.029	8.87
822.337	8.86
822.645	8.87
822.953	8.64
823.26	8.62
823.568	8.72
823.876	8.81
824.184	8.72
824.491	8.56
824.799	8.72
825.107	8.71
825.414	8.64
825.722	8.4
826.029	8.38
826.337	8.18
826.644	8.02
826.951	7.74
827.259	7.9
827.566	7.86
827.873	7.97
828.18	7.97
828.488	7.88
828.795	7.71
829.102	7.33
829.409	7.31
829.716	7.33
830.023	7.02
830.329	6.38
830.636	6.06
830.943	6.07
831.25	5.87
831.557	5.54
831.863	5.48
832.17	5.62
832.476	5.59
832.783	5.88
833.089	5.89
833.396	6.01
833.702	5.9
834.009	6.01
834.315	5.91
834.621	5.8
834.928	5.27
835.234	5.47
835.54	5.86
835.846	6.33
836.152	6.36
836.458	6.89
836.764	7.29
837.07	7.43
837.376	7.7
837.682	7.81
837.988	7.42
838.293	7.88
838.599	8.14
838.905	8.05
839.211	7.91
839.516	8.05
839.822	8.8
840.127	7.96
840.433	7.68
840.738	7.56
841.044	7.5
841.349	7.65
841.654	7.37
841.959	7.68
842.265	7.19
842.57	7.64
842.875	7.75
843.18	8.24
843.485	8.19
843.79	7.19
844.095	6.48
844.4	7.63
844.705	7.28
845.01	7.95
845.315	7.39
845.619	7.03
845.924	6.79
846.229	5.02
846.533	5.69
846.838	6.03
847.142	4.41
847.447	5.22
847.751	7.06
848.056	6.38
848.36	6.5
848.664	5.3
848.969	5.09
849.273	2.51
849.577	3.07
849.881	4
850.185	5.85
850.489	5.98
850.794	5.45
851.097	5.57
851.401	4.48
851.705	5.14
852.009	5.87
852.313	5.67
852.617	4.96
852.92	7.34
853.224	6.64
853.528	6.81
853.831	8.15
854.135	8.53
854.438	7.88
854.742	6.15
855.045	7.64
855.349	5.59
855.652	5.32
855.955	4.46
856.259	3.88
856.562	3.87
856.865	3.6
857.168	2.73
857.471	0.21
857.774	-1.01
858.077	-0.09
858.38	-1.26
858.683	1.06
858.986	4.1
859.289	0.35
859.592	0.47
859.894	0.36
860.197	-0.43
860.5	-3.54
860.802	-1.99
861.105	-2.03
861.407	-1.49
861.71	0.13
862.012	0.66
862.315	0.48
862.617	1.47
862.919	1.89
863.222	2.62
863.524	1.63
863.826	2.62
864.128	2.98
864.43	2.69
864.732	2.15
865.034	0.34
865.336	-2.76
865.638	-2.31
865.94	-1.83
866.242	-1.8
866.544	-3.06
866.846	-0.25
867.147	-0.68
867.449	0.83
867.751	-0.63
868.052	-1.9
868.354	-0.83
868.655	-1.61
868.957	-3.04
869.258	-6.89
869.56	-5.82
869.861	-3.8
870.162	-3.6
870.463	-3.04
870.765	-4.95
871.066	-3.1
871.367	-5.49
871.668	-2.71
871.969	-1.56
872.27	-1.19
872.571	-1.61
872.872	-2.24
873.173	-4.22
873.473	-5.41
873.774	-4.73
874.075	-3.95
874.376	-3.98
874.676	-3.18
874.977	-1.06
875.277	-0.99
875.578	1.28
875.878	0.29
876.179	-0.81
876.479	-0.31
876.78	-0.79
877.08	1.04
877.38	-0.41
877.68	3.45
877.981	0.43
878.281	0.22
878.581	-2.2
