Data from BA55519_Reflection_00007.txt Node
Date: Tue Nov 19 11:52:45 EST 2019
User: vgr7
Spectrometer: USB2G7710
Scans to average: 3
Trigger mode: 4
Integration Time (sec): 2.000000E-2
Electric dark correction enabled: true
Boxcar width: 10
XAxis mode: Wavelengths
Number of Pixels in Spectrum: 2048
>>>>>Begin Spectral Data<<<<<
177.721	67.48
178.105	57.91
178.488	16.4
178.871	-9.95
179.254	12.96
179.636	46.69
180.019	65.86
180.402	70.59
180.785	-466.67
181.168	-275.62
181.55	-229.37
181.933	-653.97
182.316	-2304.76
182.698	-1992.59
183.081	-281.94
183.463	-211.83
183.846	-176.37
184.228	-128.94
184.611	-111.75
184.993	-63.96
185.376	-80.48
185.758	-58.55
186.14	-56.55
186.522	-59
186.904	-72.64
187.287	-82.2
187.669	-79.01
188.051	-109.28
188.433	-145.39
188.815	-128.72
189.197	-116.02
189.579	-133.96
189.961	-109.19
190.342	-76.82
190.724	-67.77
191.106	-86.94
191.488	-80.37
191.869	-60.79
192.251	-61.87
192.633	-60.84
193.014	-62.75
193.396	-57.68
193.777	-46.88
194.159	-54.64
194.54	-63.91
194.922	-59.07
195.303	-58.05
195.684	-65.5
196.065	-62.94
196.447	-55.53
196.828	-57.48
197.209	-48.94
197.59	-41.13
197.971	-37.6
198.352	-48.07
198.733	-53.91
199.114	-49.47
199.495	-46.95
199.876	-67.09
200.257	-67.51
200.638	-69.72
201.018	-81.12
201.399	-70.06
201.78	-70.14
202.16	-62.56
202.541	-74.67
202.922	-82.4
203.302	-74.96
203.683	-67.49
204.063	-63.79
204.444	-69.69
204.824	-56.11
205.204	-49.03
205.585	-49.96
205.965	-59.12
206.345	-62.37
206.725	-55.19
207.106	-53.66
207.486	-64.23
207.866	-48.23
208.246	-52.05
208.626	-65.14
209.006	-47.44
209.386	-54.1
209.766	-62.08
210.145	-64.15
210.525	-46.12
210.905	-31.12
211.285	-16.1
211.664	-8.58
212.044	-15.04
212.424	-6.12
212.803	-25.81
213.183	-43.56
213.562	-33.33
213.942	-28.74
214.321	-24.91
214.701	-32.34
215.08	-19.4
215.459	-9.35
215.838	-22.15
216.218	-14.79
216.597	-16.37
216.976	-22.06
217.355	-11.71
217.734	-11.64
218.113	-3.98
218.492	-10.38
218.871	-20.58
219.25	-41.3
219.629	-38.2
220.008	-37.17
220.387	-32.62
220.766	-28.03
221.144	-28.11
221.523	-36.01
221.902	-35.28
222.28	-23.67
222.659	-18
223.037	-19.75
223.416	-12.87
223.794	-7.86
224.173	-13.21
224.551	-8.53
224.929	-12.81
225.308	-14.49
225.686	-14.57
226.064	-19.72
226.442	-22.33
226.821	-21.16
227.199	-16.23
227.577	-19.44
227.955	-16.54
228.333	-18.15
228.711	-13.46
229.089	-12.22
229.467	-11.61
229.845	-14.64
230.222	-14.01
230.6	-16.49
230.978	-16.85
231.356	-20.41
231.733	-18.42
232.111	-16.2
232.488	-14.66
232.866	-13.03
233.243	-11.43
233.621	-7.68
233.998	-5.5
234.376	-0.69
234.753	0.52
235.13	-0.15
235.508	-0.52
235.885	0.19
236.262	0.14
236.639	-0.46
237.016	-1.41
237.393	-0.4
237.77	2.38
238.147	4.19
238.524	5.47
238.901	5.59
239.278	5.03
239.655	5.4
240.032	4.35
240.409	4.77
240.785	4.99
241.162	4.67
241.539	3.98
241.915	4.86
242.292	4.7
242.668	4.66
243.045	4.96
243.421	5.54
243.798	5.69
244.174	5.57
244.551	5.85
244.927	6.31
245.303	5.98
245.679	6.06
246.056	5.76
246.432	5.48
246.808	5.57
247.184	5.84
247.56	5.68
247.936	6.27
248.312	6.25
248.688	6.14
249.064	6.13
249.44	6.05
249.815	5.93
250.191	5.8
250.567	5.82
250.943	5.63
251.318	5.59
251.694	5.6
252.069	5.83
252.445	5.6
252.82	5.64
253.196	6.01
253.571	5.66
253.947	5.58
254.322	5.47
254.697	5.17
255.073	5.26
255.448	5.64
255.823	5.31
256.198	5.25
256.573	5.2
256.948	5.02
257.323	5.2
257.698	5.09
258.073	5.21
258.448	5.4
258.823	5.3
259.198	5.08
259.573	4.87
259.948	4.85
260.322	4.82
260.697	4.72
261.072	4.71
261.446	4.83
261.821	4.62
262.195	4.86
262.57	4.85
262.944	4.77
263.319	4.6
263.693	4.82
264.067	4.69
264.442	4.58
264.816	4.63
265.19	4.38
265.564	4.16
265.938	4.09
266.313	3.88
266.687	4.01
267.061	4.14
267.435	4.3
267.809	4.34
268.183	4.27
268.556	4.22
268.93	4.4
269.304	4.24
269.678	4.67
270.051	4.58
270.425	4.67
270.799	4.37
271.172	4.36
271.546	4.29
271.919	4.36
272.293	4.6
272.666	4.67
273.04	4.71
273.413	4.98
273.787	4.96
274.16	4.96
274.533	4.97
274.906	5.08
275.279	4.93
275.653	5.04
276.026	5.26
276.399	5.35
276.772	5.13
277.145	5.24
277.518	5.05
277.891	5.1
278.263	5.32
278.636	5.93
279.009	5.9
279.382	5.66
279.755	5.69
280.127	5.62
280.5	5.62
280.872	5.86
281.245	5.85
281.617	5.96
281.99	5.99
282.362	5.95
282.735	5.75
283.107	5.9
283.479	5.83
283.852	5.83
284.224	5.86
284.596	5.82
284.968	5.83
285.34	5.79
285.713	5.79
286.085	5.53
286.457	5.4
286.829	5.49
287.201	5.55
287.572	5.59
287.944	5.61
288.316	5.58
288.688	5.69
289.06	5.55
289.431	5.53
289.803	5.51
290.175	5.6
290.546	5.63
290.918	5.6
291.289	5.55
291.661	5.61
292.032	5.64
292.403	5.86
292.775	5.91
293.146	6.05
293.517	6.15
293.889	6.36
294.26	6.33
294.631	6.35
295.002	6.46
295.373	6.43
295.744	6.37
296.115	6.4
296.486	6.23
296.857	6.22
297.228	6.19
297.599	6.13
297.97	6.14
298.34	6.2
298.711	6.25
299.082	6.29
299.452	6.22
299.823	6.21
300.194	6.1
300.564	6.12
300.935	6.17
301.305	6.2
301.676	6.07
302.046	6.06
302.416	6.09
302.787	5.95
303.157	5.99
303.527	6.21
303.897	6.34
304.267	6.44
304.637	6.55
305.008	6.65
305.378	6.91
305.748	6.82
306.117	6.99
306.487	7.17
306.857	7.38
307.227	7.61
307.597	7.58
307.967	7.75
308.336	7.73
308.706	7.69
309.076	7.74
309.445	7.99
309.815	8.1
310.184	8.24
310.554	8.42
310.923	8.59
311.293	8.51
311.662	8.62
312.031	8.78
312.401	8.81
312.77	8.85
313.139	8.85
313.508	9.02
313.877	9
314.246	8.98
314.616	8.88
314.985	8.76
315.353	8.99
315.722	9.11
316.091	9.15
316.46	9.27
316.829	9.25
317.198	9.36
317.567	9.24
317.935	9.05
318.304	9.08
318.672	9.3
319.041	9.46
319.41	9.37
319.778	9.28
320.147	9.41
320.515	9.63
320.883	9.6
321.252	9.59
321.62	9.63
321.988	9.88
322.357	10
322.725	10.13
323.093	10.09
323.461	10
323.829	10.25
324.197	10.32
324.565	10.38
324.933	10.27
325.301	10.34
325.669	10.41
326.037	10.55
326.405	10.43
326.772	10.33
327.14	10.17
327.508	10.29
327.875	10.29
328.243	10.12
328.61	10.19
328.978	10.23
329.346	10.44
329.713	10.41
330.08	10.34
330.448	10.44
330.815	10.58
331.182	10.65
331.55	10.66
331.917	10.57
332.284	10.64
332.651	10.72
333.018	10.89
333.385	11.1
333.752	11.06
334.119	11.02
334.486	11.14
334.853	11.4
335.22	11.38
335.587	11.51
335.954	11.5
336.32	11.56
336.687	11.63
337.054	11.56
337.42	11.5
337.787	11.63
338.153	11.75
338.52	11.74
338.886	11.85
339.253	11.77
339.619	11.9
339.986	11.89
340.352	11.87
340.718	11.8
341.084	11.84
341.451	11.91
341.817	11.95
342.183	12.02
342.549	12.02
342.915	12.04
343.281	11.97
343.647	12.14
344.013	12.21
344.379	12.18
344.745	12.3
345.11	12.32
345.476	12.36
345.842	12.13
346.208	12.18
346.573	12.18
346.939	12.24
347.304	12.21
347.67	12.08
348.035	12.15
348.401	12.33
348.766	12.23
349.132	12.27
349.497	12.35
349.862	12.33
350.228	12.32
350.593	12.4
350.958	12.39
351.323	12.33
351.688	12.33
352.053	12.38
352.418	12.21
352.783	12.28
353.148	12.28
353.513	12.32
353.878	12.3
354.243	12.18
354.608	12.1
354.972	12
355.337	12.2
355.702	12.16
356.066	12.13
356.431	12.13
356.795	12.07
357.16	11.95
357.524	11.89
357.889	11.87
358.253	11.72
358.618	11.65
358.982	11.65
359.346	11.57
359.71	11.57
360.075	11.6
360.439	11.52
360.803	11.4
361.167	11.36
361.531	11.31
361.895	11.36
362.259	11.39
362.623	11.41
362.987	11.38
363.351	11.31
363.714	11.18
364.078	11.16
364.442	11.11
364.806	11.09
365.169	11.04
365.533	10.97
365.896	11.03
366.26	10.99
366.623	10.91
366.987	10.86
367.35	10.78
367.714	10.75
368.077	10.7
368.44	10.7
368.803	10.67
369.167	10.55
369.53	10.45
369.893	10.29
370.256	10.19
370.619	10.07
370.982	9.96
371.345	9.98
371.708	9.92
372.071	9.83
372.434	9.73
372.797	9.68
373.159	9.68
373.522	9.55
373.885	9.54
374.247	9.5
374.61	9.4
374.973	9.32
375.335	9.27
375.698	9.18
376.06	9.06
376.423	8.96
376.785	8.99
377.147	8.9
377.51	8.87
377.872	8.87
378.234	8.79
378.596	8.78
378.958	8.7
379.321	8.61
379.683	8.6
380.045	8.55
380.407	8.45
380.769	8.26
381.13	8.29
381.492	8.25
381.854	8.15
382.216	8.13
382.578	8.13
382.939	8.05
383.301	7.97
383.663	7.96
384.024	7.93
384.386	7.86
384.747	7.78
385.109	7.81
385.47	7.76
385.832	7.72
386.193	7.67
386.554	7.59
386.916	7.55
387.277	7.46
387.638	7.45
387.999	7.45
388.36	7.48
388.721	7.37
389.082	7.36
389.443	7.37
389.804	7.27
390.165	7.22
390.526	7.11
390.887	7.08
391.248	7.06
391.609	7.07
391.969	7.07
392.33	7.03
392.691	6.96
393.051	6.88
393.412	6.85
393.772	6.83
394.133	6.81
394.493	6.8
394.854	6.75
395.214	6.68
395.574	6.61
395.935	6.59
396.295	6.58
396.655	6.46
397.015	6.42
397.376	6.4
397.736	6.31
398.096	6.29
398.456	6.24
398.816	6.18
399.176	6.07
399.535	5.96
399.895	5.96
400.255	5.9
400.615	5.93
400.975	5.89
401.334	5.83
401.694	5.81
402.054	5.76
402.413	5.73
402.773	5.74
403.132	5.72
403.492	5.67
403.851	5.62
404.211	5.62
404.57	5.59
404.929	5.59
405.288	5.62
405.648	5.59
406.007	5.59
406.366	5.57
406.725	5.57
407.084	5.57
407.443	5.56
407.802	5.58
408.161	5.52
408.52	5.54
408.879	5.54
409.238	5.55
409.596	5.52
409.955	5.53
410.314	5.5
410.673	5.52
411.031	5.47
411.39	5.46
411.748	5.46
412.107	5.42
412.465	5.41
412.824	5.38
413.182	5.39
413.54	5.38
413.899	5.36
414.257	5.35
414.615	5.34
414.974	5.3
415.332	5.28
415.69	5.28
416.048	5.24
416.406	5.2
416.764	5.16
417.122	5.16
417.48	5.14
417.838	5.11
418.195	5.09
418.553	5.09
418.911	5.07
419.269	5.04
419.626	5.04
419.984	5.01
420.342	4.97
420.699	4.95
421.057	4.93
421.414	4.92
421.772	4.93
422.129	4.9
422.486	4.91
422.844	4.89
423.201	4.87
423.558	4.85
423.915	4.85
424.273	4.86
424.63	4.85
424.987	4.85
425.344	4.86
425.701	4.83
426.058	4.83
426.415	4.82
426.772	4.83
427.128	4.83
427.485	4.84
427.842	4.85
428.199	4.85
428.555	4.85
428.912	4.84
429.269	4.79
429.625	4.8
429.982	4.79
430.338	4.78
430.695	4.76
431.051	4.77
431.407	4.76
431.764	4.74
432.12	4.75
432.476	4.74
432.832	4.73
433.189	4.73
433.545	4.72
433.901	4.71
434.257	4.68
434.613	4.69
434.969	4.69
435.325	4.68
435.681	4.68
436.036	4.68
436.392	4.69
436.748	4.71
437.104	4.71
437.459	4.68
437.815	4.7
438.171	4.71
438.526	4.71
438.882	4.68
439.237	4.67
439.593	4.66
439.948	4.66
440.304	4.64
440.659	4.65
441.014	4.66
441.369	4.65
441.725	4.67
442.08	4.65
442.435	4.65
442.79	4.66
443.145	4.69
443.5	4.67
443.855	4.67
444.21	4.64
444.565	4.64
444.92	4.63
445.275	4.63
445.629	4.62
445.984	4.62
446.339	4.63
446.693	4.65
447.048	4.64
447.403	4.63
447.757	4.63
448.112	4.62
448.466	4.61
448.82	4.61
449.175	4.58
449.529	4.58
449.883	4.54
450.238	4.55
450.592	4.5
450.946	4.5
451.3	4.49
451.654	4.48
452.008	4.47
452.362	4.47
452.716	4.47
453.07	4.46
453.424	4.43
453.778	4.42
454.132	4.39
454.486	4.38
454.839	4.38
455.193	4.38
455.547	4.37
455.9	4.38
456.254	4.38
456.607	4.4
456.961	4.39
457.314	4.41
457.668	4.4
458.021	4.41
458.375	4.42
458.728	4.43
459.081	4.46
459.434	4.48
459.787	4.5
460.141	4.5
460.494	4.52
460.847	4.54
461.2	4.54
461.553	4.57
461.906	4.61
462.259	4.61
462.611	4.62
462.964	4.64
463.317	4.67
463.67	4.7
464.022	4.73
464.375	4.73
464.728	4.73
465.08	4.76
465.433	4.79
465.785	4.81
466.138	4.83
466.49	4.85
466.843	4.85
467.195	4.86
467.547	4.86
467.899	4.85
468.252	4.88
468.604	4.91
468.956	4.92
469.308	4.91
469.66	4.92
470.012	4.92
470.364	4.91
470.716	4.9
471.068	4.89
471.42	4.88
471.772	4.89
472.123	4.9
472.475	4.91
472.827	4.91
473.178	4.9
473.53	4.9
473.882	4.89
474.233	4.9
474.585	4.87
474.936	4.86
475.288	4.85
475.639	4.83
475.99	4.8
476.342	4.79
476.693	4.79
477.044	4.77
477.395	4.73
477.746	4.71
478.097	4.68
478.448	4.67
478.8	4.66
479.15	4.67
479.501	4.65
479.852	4.64
480.203	4.63
480.554	4.63
480.905	4.61
481.255	4.61
481.606	4.6
481.957	4.61
482.307	4.63
482.658	4.63
483.009	4.63
483.359	4.64
483.709	4.66
484.06	4.66
484.41	4.67
484.761	4.69
485.111	4.71
485.461	4.71
485.811	4.71
486.162	4.71
486.512	4.71
486.862	4.73
487.212	4.74
487.562	4.74
487.912	4.75
488.262	4.77
488.612	4.78
488.961	4.8
489.311	4.81
489.661	4.81
490.011	4.81
490.36	4.81
490.71	4.82
491.06	4.82
491.409	4.83
491.759	4.84
492.108	4.83
492.458	4.83
492.807	4.86
493.157	4.88
493.506	4.91
493.855	4.95
494.204	4.94
494.554	4.97
494.903	4.99
495.252	5.03
495.601	5.05
495.95	5.07
496.299	5.08
496.648	5.12
496.997	5.14
497.346	5.2
497.695	5.24
498.043	5.26
498.392	5.27
498.741	5.31
499.09	5.34
499.438	5.4
499.787	5.47
500.135	5.51
500.484	5.54
500.832	5.56
501.181	5.6
501.529	5.65
501.878	5.68
502.226	5.71
502.574	5.72
502.923	5.77
503.271	5.82
503.619	5.88
503.967	5.92
504.315	5.98
504.663	6
505.011	6.06
505.359	6.12
505.707	6.18
506.055	6.22
506.403	6.28
506.751	6.32
507.098	6.36
507.446	6.41
507.794	6.48
508.141	6.55
508.489	6.61
508.837	6.67
509.184	6.75
509.531	6.83
509.879	6.88
510.226	6.93
510.574	7.01
510.921	7.05
511.268	7.12
511.616	7.2
511.963	7.3
512.31	7.34
512.657	7.42
513.004	7.5
513.351	7.59
513.698	7.67
514.045	7.76
514.392	7.85
514.739	7.92
515.086	8
515.432	8.1
515.779	8.17
516.126	8.25
516.473	8.31
516.819	8.38
517.166	8.46
517.512	8.57
517.859	8.64
518.205	8.73
518.552	8.82
518.898	8.87
519.245	8.93
519.591	9.05
519.937	9.14
520.283	9.23
520.629	9.3
520.976	9.39
521.322	9.46
521.668	9.54
522.014	9.66
522.36	9.76
522.706	9.86
523.052	9.98
523.398	10.12
523.743	10.27
524.089	10.41
524.435	10.55
524.781	10.65
525.126	10.75
525.472	10.87
525.817	10.96
526.163	11.06
526.509	11.16
526.854	11.23
527.199	11.31
527.545	11.4
527.89	11.48
528.235	11.57
528.581	11.67
528.926	11.75
529.271	11.85
529.616	11.93
529.961	12.02
530.306	12.13
530.651	12.22
530.996	12.33
531.341	12.45
531.686	12.55
532.031	12.66
532.376	12.77
532.721	12.88
533.065	13.02
533.41	13.16
533.755	13.28
534.099	13.42
534.444	13.54
534.788	13.67
535.133	13.82
535.477	13.96
535.822	14.09
536.166	14.24
536.51	14.39
536.855	14.55
537.199	14.72
537.543	14.9
537.887	15.08
538.231	15.25
538.576	15.42
538.92	15.63
539.264	15.84
539.608	16
539.951	16.13
540.295	16.23
540.639	16.37
540.983	16.52
541.327	16.67
541.671	16.82
542.014	16.93
542.358	17.05
542.701	17.2
543.045	17.34
543.389	17.49
543.732	17.62
544.075	17.78
544.419	17.93
544.762	18.07
545.105	18.23
545.449	18.38
545.792	18.55
546.135	18.71
546.478	18.85
546.821	19.07
547.165	19.34
547.508	19.57
547.851	19.79
548.194	19.99
548.536	20.16
548.879	20.37
549.222	20.62
549.565	20.84
549.908	21.03
550.25	21.27
550.593	21.48
550.936	21.72
551.278	21.95
551.621	22.15
551.963	22.43
552.306	22.68
552.648	22.92
552.991	23.11
553.333	23.35
553.675	23.6
554.017	23.8
554.36	23.97
554.702	24.24
555.044	24.45
555.386	24.67
555.728	24.95
556.07	25.2
556.412	25.44
556.754	25.69
557.096	25.94
557.438	26.22
557.78	26.53
558.121	26.8
558.463	27.08
558.805	27.36
559.147	27.59
559.488	27.82
559.83	28.07
560.171	28.4
560.513	28.64
560.854	28.89
561.196	29.15
561.537	29.41
561.878	29.64
562.22	29.94
562.561	30.26
562.902	30.54
563.243	30.86
563.584	31.13
563.925	31.42
564.266	31.75
564.607	32.02
564.948	32.25
565.289	32.51
565.63	32.74
565.971	33.04
566.312	33.29
566.653	33.58
566.993	33.87
567.334	34.12
567.675	34.45
568.015	34.76
568.356	35.08
568.696	35.42
569.037	35.71
569.377	36.04
569.718	36.29
570.058	36.58
570.398	36.82
570.739	37.1
571.079	37.37
571.419	37.64
571.759	37.9
572.099	38.18
572.439	38.45
572.779	38.75
573.119	38.97
573.459	39.25
573.799	39.55
574.139	39.81
574.479	40.07
574.819	40.27
575.158	40.52
575.498	40.74
575.838	40.97
576.177	41.24
576.517	41.41
576.856	41.68
577.196	41.98
577.535	42.29
577.875	42.56
578.214	42.84
578.553	43.09
578.893	43.37
579.232	43.68
579.571	43.92
579.91	44.2
580.25	44.55
580.589	44.89
580.928	45.11
581.267	45.36
581.606	45.64
581.945	45.93
582.283	46.08
582.622	46.35
582.961	46.61
583.3	46.84
583.639	47.17
583.977	47.38
584.316	47.61
584.654	47.83
584.993	48.04
585.332	48.37
585.67	48.64
586.008	48.87
586.347	49.1
586.685	49.36
587.024	49.57
587.362	49.7
587.7	49.89
588.038	50.13
588.376	50.34
588.715	50.57
589.053	50.83
589.391	51.11
589.729	51.22
590.067	51.46
590.404	51.66
590.742	51.84
591.08	52.08
591.418	52.19
591.756	52.32
592.093	52.6
592.431	52.8
592.769	52.85
593.106	53.06
593.444	53.27
593.781	53.39
594.119	53.56
594.456	53.77
594.793	53.88
595.131	53.99
595.468	54.11
595.805	54.22
596.143	54.3
596.48	54.47
596.817	54.67
597.154	54.71
597.491	54.82
597.828	54.87
598.165	55
598.502	55.17
598.839	55.35
599.176	55.43
599.512	55.48
599.849	55.7
600.186	55.79
600.523	55.8
600.859	56.08
601.196	56.19
601.532	56.31
601.869	56.45
602.205	56.51
602.542	56.67
602.878	56.79
603.215	56.95
603.551	57.06
603.887	57.19
604.223	57.2
604.56	57.28
604.896	57.44
605.232	57.52
605.568	57.66
605.904	57.75
606.24	57.89
606.576	57.97
606.912	58.11
607.248	58.19
607.583	58.35
607.919	58.41
608.255	58.46
608.591	58.49
608.926	58.64
609.262	58.81
609.597	58.83
609.933	58.91
610.268	58.94
610.604	58.93
610.939	59
611.275	59.18
611.61	59.34
611.945	59.42
612.281	59.43
612.616	59.48
612.951	59.57
613.286	59.63
613.621	59.67
613.956	59.77
614.291	59.89
614.626	59.95
614.961	59.97
615.296	60
615.631	60.13
615.966	60.06
616.3	60.11
616.635	60.2
616.97	60.28
617.304	60.35
617.639	60.52
617.973	60.57
618.308	60.66
618.642	60.67
618.977	60.68
619.311	60.79
619.646	60.73
619.98	60.76
620.314	60.81
620.648	60.8
620.983	60.74
621.317	60.73
621.651	60.79
621.985	60.83
622.319	60.99
622.653	61.01
622.987	61.1
623.321	61.06
623.655	61.24
623.988	61.24
624.322	61.37
624.656	61.34
624.99	61.37
625.323	61.45
625.657	61.47
625.99	61.57
626.324	61.69
626.657	61.74
626.991	61.77
627.324	61.82
627.658	61.97
627.991	61.95
628.324	61.96
628.657	62.04
628.991	62.15
629.324	62.21
629.657	62.34
629.99	62.36
630.323	62.46
630.656	62.42
630.989	62.49
631.322	62.41
631.655	62.42
631.987	62.44
632.32	62.28
632.653	62.28
632.986	62.32
633.318	62.27
633.651	62.37
633.984	62.38
634.316	62.31
634.649	62.3
634.981	62.51
635.313	62.67
635.646	62.62
635.978	62.63
636.31	62.61
636.643	62.43
636.975	62.49
637.307	62.54
637.639	62.55
637.971	62.55
638.303	62.59
638.635	62.65
638.967	62.81
639.299	62.87
639.631	62.9
639.963	62.83
640.295	62.88
640.626	62.87
640.958	62.93
641.29	62.95
641.621	63.02
641.953	63.09
642.285	63.05
642.616	63.12
642.948	63.05
643.279	63.17
643.61	63.46
643.942	63.56
644.273	63.61
644.604	63.53
644.936	63.6
645.267	63.69
645.598	63.79
645.929	63.67
646.26	63.92
646.591	63.97
646.922	64.03
647.253	64.1
647.584	64.08
647.915	64.05
648.245	64.15
648.576	64.18
648.907	64.15
649.238	64.06
649.568	64.03
649.899	64.13
650.229	64.07
650.56	64.1
650.89	63.94
651.221	63.92
651.551	64.04
651.882	64.03
652.212	64.08
652.542	64.13
652.872	64.14
653.203	64.06
653.533	64.09
653.863	64.09
654.193	64.09
654.523	64.13
654.853	64.27
655.183	64.15
655.513	64.18
655.843	64.17
656.172	64.31
656.502	64.23
656.832	64.16
657.162	64.21
657.491	64.14
657.821	64.31
658.15	64.49
658.48	64.57
658.809	64.55
659.139	64.57
659.468	64.51
659.798	64.51
660.127	64.65
660.456	64.73
660.785	64.76
661.115	64.73
661.444	64.76
661.773	64.72
662.102	64.78
662.431	64.66
662.76	64.74
663.089	64.83
663.418	64.94
663.747	64.88
664.076	64.83
664.404	64.94
664.733	64.91
665.062	64.75
665.39	64.69
665.719	64.63
666.048	64.63
666.376	64.59
666.705	64.57
667.033	64.56
667.362	64.58
667.69	64.7
668.018	64.6
668.347	64.55
668.675	64.63
669.003	64.83
669.331	64.97
669.659	64.92
669.987	64.69
670.315	64.92
670.643	65.02
670.971	65
671.299	65.08
671.627	64.92
671.955	64.91
672.283	64.89
672.61	64.84
672.938	64.83
673.266	64.9
673.593	64.98
673.921	64.92
674.249	64.81
674.576	64.75
674.904	64.94
675.231	65.06
675.558	64.99
675.886	64.98
676.213	65
676.54	64.92
676.867	64.93
677.195	64.94
677.522	65.09
677.849	65.08
678.176	64.88
678.503	65.04
678.83	65.16
679.157	65.16
679.484	65.18
679.81	65.12
680.137	65.06
680.464	65.11
680.791	65.02
681.117	65
681.444	64.96
681.771	64.92
682.097	64.99
682.424	65.1
682.75	65.05
683.077	64.99
683.403	65.15
683.729	65.26
684.056	65.09
684.382	64.94
684.708	65
685.034	65.05
685.36	65.1
685.686	65.19
686.012	65.29
686.339	65.34
686.664	65.34
686.99	65.16
687.316	65.11
687.642	65.22
687.968	65.33
688.294	65.35
688.619	65.33
688.945	65.23
689.271	65.12
689.596	65.03
689.922	65.02
690.247	64.82
690.573	64.81
690.898	64.81
691.224	64.89
691.549	64.91
691.874	65.12
692.2	65.13
692.525	64.92
692.85	64.78
693.175	64.95
693.5	65.09
693.825	65.47
694.15	65.5
694.475	65.48
694.8	65.67
695.125	65.69
695.45	65.69
695.775	65.76
696.099	65.8
696.424	65.86
696.749	65.98
697.073	66.12
697.398	66.08
697.723	66.06
698.047	66.13
698.372	66.17
698.696	66.08
699.02	65.92
699.345	65.96
699.669	66.05
699.993	66.01
700.318	66.1
700.642	65.95
700.966	65.88
701.29	65.96
701.614	65.84
701.938	65.98
702.262	66.2
702.586	66.22
702.91	66.13
703.234	66.18
703.557	66.13
703.881	66.03
704.205	66.07
704.529	66.25
704.852	66.15
705.176	66.18
705.499	66.25
705.823	66.28
706.146	66.23
706.47	66.3
706.793	66.15
707.117	65.89
707.44	66.12
707.763	66.23
708.086	66.17
708.409	66
708.733	65.79
709.056	65.57
709.379	65.62
709.702	65.67
710.025	65.65
710.348	65.58
710.671	65.54
710.993	65.53
711.316	65.52
711.639	65.61
711.962	65.61
712.284	65.48
712.607	65.74
712.93	65.7
713.252	65.51
713.575	65.59
713.897	65.56
714.22	65.5
714.542	65.44
714.864	65.52
715.187	65.65
715.509	65.72
715.831	65.78
716.153	65.6
716.475	65.54
716.798	65.64
717.12	65.71
717.442	65.93
717.764	66.14
718.085	66.17
718.407	66.07
718.729	66.17
719.051	66.11
719.373	66.12
719.695	66.02
720.016	66.03
720.338	66.21
720.659	66.54
720.981	66.5
721.302	66.54
721.624	66.46
721.945	66.39
722.267	66.57
722.588	66.29
722.909	66.62
723.231	66.72
723.552	66.46
723.873	66.55
724.194	66.38
724.515	66.28
724.836	66.21
725.157	66.24
725.478	66.16
725.799	66.37
726.12	66.19
726.441	66.35
726.762	66.8
727.083	66.84
727.403	66.76
727.724	66.89
728.045	67.06
728.365	67.15
728.686	67.29
729.006	67.01
729.327	67.43
729.647	67.42
729.967	67.52
730.288	67.81
730.608	68.06
730.928	68.21
731.249	68.09
731.569	68.09
731.889	67.98
732.209	68.11
732.529	67.85
732.849	67.91
733.169	67.92
733.489	67.81
733.809	67.75
734.129	67.65
734.448	67.71
734.768	67.49
735.088	67.49
735.408	67.47
735.727	67.57
736.047	67.44
736.366	67.53
736.686	67.26
737.005	67.16
737.325	66.72
737.644	66.85
737.963	66.78
738.283	66.68
738.602	67.09
738.921	66.71
739.24	67.16
739.56	66.98
739.879	67.05
740.198	66.9
740.517	66.82
740.836	66.81
741.155	66.67
741.473	66.66
741.792	66.5
742.111	66.52
742.43	66.57
742.748	66.52
743.067	66.18
743.386	66.26
743.704	66.14
744.023	66.43
744.341	66.06
744.66	66.03
744.978	66.33
745.297	65.98
745.615	66.16
745.933	65.93
746.252	66.13
746.57	66.44
746.888	66.4
747.206	66.37
747.524	66.03
747.842	65.74
748.16	65.85
748.478	65.99
748.796	66.24
749.114	66.05
749.432	66.03
749.749	65.86
750.067	66.44
750.385	66.49
750.703	66.12
751.02	66.04
751.338	66.08
751.655	65.88
751.973	65.97
752.29	66.13
752.608	66.06
752.925	66.02
753.242	65.93
753.56	65.81
753.877	65.71
754.194	66.09
754.511	66.01
754.828	66.4
755.145	66.11
755.462	65.48
755.779	65.7
756.096	65.51
756.413	65.79
756.73	65.52
757.047	65.43
757.364	65.49
757.68	65.71
757.997	65.74
758.314	65.65
758.63	65.89
758.947	65.82
759.264	66.25
759.58	66.27
759.896	66.02
760.213	66.3
760.529	66.43
760.846	66.38
761.162	66.41
761.478	66.06
761.794	66.25
762.11	66.54
762.426	66.81
762.743	67.03
763.059	67.12
763.375	67.07
763.69	67.14
764.006	67.34
764.322	67.61
764.638	67.68
764.954	67.56
765.27	67.25
765.585	67.24
765.901	66.92
766.216	66.68
766.532	66.59
766.848	66.32
767.163	66.39
767.478	66.23
767.794	66.67
768.109	66.63
768.424	66.55
768.74	66.23
769.055	66
769.37	66.22
769.685	66.06
770	65.75
770.315	65.94
770.63	65.67
770.945	65.58
771.26	65.41
771.575	65.67
771.89	65.71
772.205	65.44
772.52	65.22
772.834	65.35
773.149	65.37
773.464	65.74
773.778	65.56
774.093	65.68
774.407	65.81
774.722	65.76
775.036	65.56
775.351	65.97
775.665	66.02
775.979	65.55
776.293	65.59
776.608	66.56
776.922	66.72
777.236	67.26
777.55	67.06
777.864	66.92
778.178	66.93
778.492	66.66
778.806	66.82
779.12	67.17
779.434	67.45
779.747	67.9
780.061	67.52
780.375	67.52
780.689	67.69
781.002	67.64
781.316	68.03
781.629	68.47
781.943	68.57
782.256	68.36
782.57	68.61
782.883	68.53
783.196	68.05
783.51	67.26
783.823	66.52
784.136	66.19
784.449	66.73
784.762	67.03
785.075	66.85
785.388	67.11
785.701	66.54
786.014	66.54
786.327	66.29
786.64	67.03
786.953	66.77
787.266	67.45
787.578	66.84
787.891	66.71
788.204	67.13
788.516	66.81
788.829	66.86
789.141	66.73
789.454	66.35
789.766	66.51
790.079	66.6
790.391	66.77
790.703	66.7
791.016	66.61
791.328	66.39
791.64	67.29
791.952	67.32
792.264	67.93
792.576	67.74
792.888	67.43
793.2	66.85
793.512	67.35
793.824	66.94
794.136	66.85
794.448	66.7
794.76	66.54
795.071	66.14
795.383	65.69
795.695	65.7
796.006	66.47
796.318	65.94
796.629	66.4
796.941	66.24
797.252	66.45
797.564	65.49
797.875	65.47
798.186	65
798.497	64.24
798.809	64.07
799.12	63.68
799.431	64.25
799.742	63.95
800.053	63.51
800.364	63.5
800.675	64.01
800.986	63.99
801.297	63.86
801.608	64.75
801.918	65.66
802.229	65.44
802.54	65.71
802.851	65.89
803.161	65.15
803.472	65.33
803.782	65.52
804.093	66.15
804.403	66.08
804.714	65.87
805.024	66.3
805.334	65.86
805.645	67.14
805.955	66.92
806.265	66.67
806.575	66.97
806.885	66.03
807.195	66.03
807.505	65.76
807.815	66.25
808.125	65.33
808.435	64.55
808.745	64.52
809.055	63.63
809.365	63.75
809.674	63.9
809.984	63.77
810.294	63.01
810.603	62.86
810.913	62.53
811.222	62.62
811.532	62.63
811.841	63.26
812.151	62.45
812.46	62.22
812.769	62.49
813.079	62.03
813.388	62.52
813.697	61.06
814.006	61.06
814.315	60.1
814.624	61.11
814.933	61.2
815.242	61.31
815.551	61.69
815.86	62.1
816.169	62.22
816.478	62.97
816.786	63.33
817.095	63.06
817.404	63.13
817.712	63.21
818.021	64.11
818.33	64.33
818.638	64.96
818.947	65.47
819.255	65.96
819.563	65.85
819.872	66.17
820.18	66.57
820.488	66.97
820.796	66.86
821.105	66.99
821.413	67.05
821.721	67.28
822.029	67.51
822.337	67.32
822.645	67.5
822.953	67.34
823.26	67.66
823.568	68.09
823.876	68.18
824.184	68.23
824.491	68
824.799	68.04
825.107	68.09
825.414	67.99
825.722	67.82
826.029	68.1
826.337	68.02
826.644	68.04
826.951	68.17
827.259	68.2
827.566	68.36
827.873	68.73
828.18	68.58
828.488	67.98
828.795	68.26
829.102	67.85
829.409	67.97
829.716	67.34
830.023	66.86
830.329	67.37
830.636	67.18
830.943	67.14
831.25	66.94
831.557	66.7
831.863	66.87
832.17	67.29
832.476	67.27
832.783	67.39
833.089	67.63
833.396	67.38
833.702	67.74
834.009	67.33
834.315	66.32
834.621	66.3
834.928	67.77
835.234	67.74
835.54	68.16
835.846	68.31
836.152	68.37
836.458	68.6
836.764	67.77
837.07	67.7
837.376	68.49
837.682	68.39
837.988	68.17
838.293	68.12
838.599	67.99
838.905	68.03
839.211	68
839.516	68.12
839.822	67.75
840.127	67
840.433	66.83
840.738	67.19
841.044	67.03
841.349	64.96
841.654	63.47
841.959	63.86
842.265	63.15
842.57	62.26
842.875	60.96
843.18	60.78
843.485	61.31
843.79	59.27
844.095	59.37
844.4	60.02
844.705	59.61
845.01	59.45
845.315	58.49
845.619	58.44
845.924	56.97
846.229	58.12
846.533	58.86
846.838	57.24
847.142	58.01
847.447	57.68
847.751	59.01
848.056	59.87
848.36	59.35
848.664	58.77
848.969	60.68
849.273	59.86
849.577	61.38
849.881	61.88
850.185	63.81
850.489	62.15
850.794	61.19
851.097	61.73
851.401	61.91
851.705	62.59
852.009	62.17
852.313	64.83
852.617	62.19
852.92	62.89
853.224	62.68
853.528	61.77
853.831	63.14
854.135	62.73
854.438	61.7
854.742	61.53
855.045	64.2
855.349	63.3
855.652	65.92
855.955	64.27
856.259	64.4
856.562	62.61
856.865	65.2
857.168	64.38
857.471	63.43
857.774	63.18
858.077	61.57
858.38	61.96
858.683	59.01
858.986	59.77
859.289	60.28
859.592	62.21
859.894	63.04
860.197	62.11
860.5	62.84
860.802	63.36
861.105	62.79
861.407	60.98
861.71	61.91
862.012	60.55
862.315	59.41
862.617	58.32
862.919	59.83
863.222	58.85
863.524	59.48
863.826	60.65
864.128	59.39
864.43	62.57
864.732	61.66
865.034	63.54
865.336	63.73
865.638	62.7
865.94	63.07
866.242	61.2
866.544	61.43
866.846	61.04
867.147	64.21
867.449	65.31
867.751	64.58
868.052	65.94
868.354	66.1
868.655	65.84
868.957	65.56
869.258	67.91
869.56	66.34
869.861	65.3
870.162	65.1
870.463	65.42
870.765	64.58
871.066	65.87
871.367	64.8
871.668	65.46
871.969	65.77
872.27	64.22
872.571	64.36
872.872	63.18
873.173	61.54
873.473	60
873.774	59.75
874.075	59.88
874.376	56.91
874.676	57.11
874.977	58.17
875.277	59.19
875.578	57.28
875.878	58.51
876.179	60.28
876.479	58.8
876.78	60.32
877.08	58.24
877.38	57.47
877.68	58.66
877.981	57.61
878.281	56.68
878.581	56.78
