Data from BA56832_Reflection_00001.txt Node
Date: Mon Nov 18 16:09:30 EST 2019
User: vgr7
Spectrometer: USB2G7710
Scans to average: 3
Trigger mode: 4
Integration Time (sec): 2.000000E-2
Electric dark correction enabled: true
Boxcar width: 10
XAxis mode: Wavelengths
Number of Pixels in Spectrum: 2048
>>>>>Begin Spectral Data<<<<<
177.721	-48.41
178.105	-18.59
178.488	-7.96
178.871	-37.08
179.254	-0.12
179.636	19.85
180.019	-152.45
180.402	269.23
180.785	996.91
181.168	243.84
181.55	53.72
181.933	83.37
182.316	123.83
182.698	144.88
183.081	109.58
183.463	79.44
183.846	116.44
184.228	68.5
184.611	50.18
184.993	29.74
185.376	12.88
185.758	-42.58
186.14	38.64
186.522	94.24
186.904	546.81
187.287	1676.27
187.669	-698.56
188.051	-184.73
188.433	-108.39
188.815	-292.93
189.197	-160.71
189.579	-75.56
189.961	-72.04
190.342	-97.08
190.724	-89.31
191.106	-60.54
191.488	-84.02
191.869	-31.59
192.251	-42.62
192.633	-89.66
193.014	-110.02
193.396	-182.46
193.777	-322.09
194.159	-351.69
194.54	-118.54
194.922	-99.4
195.303	-90.22
195.684	-82.9
196.065	-32.45
196.447	-49.82
196.828	-45.11
197.209	-48.13
197.59	-47.62
197.971	-54.52
198.352	-62.49
198.733	-79.53
199.114	-33.6
199.495	-28.33
199.876	-52.07
200.257	-12.45
200.638	7.78
201.018	-19.92
201.399	-30.51
201.78	-16.27
202.16	-24.75
202.541	-57.54
202.922	-104.51
203.302	-143.14
203.683	-142.25
204.063	-174.2
204.444	-209.96
204.824	-136.38
205.204	-106.77
205.585	-92.73
205.965	-66.21
206.345	-67.69
206.725	-81.85
207.106	-178
207.486	-346.93
207.866	-363.61
208.246	-904.68
208.626	12824.14
209.006	-3213.04
209.386	-874.03
209.766	-490.49
210.145	-276.6
210.525	-145.56
210.905	-111.02
211.285	-58.1
211.664	-53.71
212.044	-62.66
212.424	-40.93
212.803	-87.78
213.183	-97.91
213.562	-113.57
213.942	-116.11
214.321	-101.52
214.701	-84.13
215.08	-52.48
215.459	-38.14
215.838	-34.35
216.218	-35.12
216.597	-32.58
216.976	-24.83
217.355	-34.06
217.734	-40.25
218.113	-58.31
218.492	-81.66
218.871	-66.98
219.25	-96.26
219.629	-82.08
220.008	-97.42
220.387	-103.56
220.766	-79.01
221.144	-120.73
221.523	-106.37
221.902	-141.84
222.28	-130.54
222.659	-102.78
223.037	-88.07
223.416	-73.82
223.794	-61.93
224.173	-58.24
224.551	-46.59
224.929	-52.83
225.308	-44.15
225.686	-34.61
226.064	-28.31
226.442	-25.35
226.821	-24.24
227.199	-21.13
227.577	-18.78
227.955	-18.16
228.333	-16.46
228.711	-11.09
229.089	-3.93
229.467	-7.79
229.845	-7.1
230.222	-6.28
230.6	-7.61
230.978	-7.76
231.356	-5.89
231.733	-5.18
232.111	-4.13
232.488	-3.25
232.866	-2.33
233.243	-1.39
233.621	-1.48
233.998	0.04
234.376	-1.39
234.753	-0.17
235.13	0.9
235.508	0.65
235.885	1.65
236.262	0.8
236.639	1.13
237.016	1.42
237.393	3.28
237.77	3.93
238.147	4.56
238.524	4.68
238.901	4.92
239.278	5.07
239.655	4.63
240.032	4.67
240.409	4.73
240.785	4.88
241.162	5.38
241.539	5.5
241.915	5.68
242.292	5.93
242.668	5.53
243.045	5.46
243.421	5.13
243.798	5.07
244.174	4.99
244.551	4.93
244.927	4.59
245.303	4.63
245.679	4.64
246.056	4.3
246.432	4.45
246.808	4.5
247.184	4.12
247.56	4
247.936	4.07
248.312	3.9
248.688	3.99
249.064	3.9
249.44	3.82
249.815	3.63
250.191	3.47
250.567	3.53
250.943	3.42
251.318	3.61
251.694	3.71
252.069	3.97
252.445	3.83
252.82	3.95
253.196	3.82
253.571	3.54
253.947	3.96
254.322	4.05
254.697	3.99
255.073	4.07
255.448	4.17
255.823	4.08
256.198	4.09
256.573	4.1
256.948	4.25
257.323	4.32
257.698	4.37
258.073	4.42
258.448	4.46
258.823	4.34
259.198	4.19
259.573	4.09
259.948	3.93
260.322	3.92
260.697	3.89
261.072	3.78
261.446	3.85
261.821	3.69
262.195	3.83
262.57	3.62
262.944	3.74
263.319	3.88
263.693	3.79
264.067	3.88
264.442	3.89
264.816	3.77
265.19	3.71
265.564	3.59
265.938	3.63
266.313	3.49
266.687	3.53
267.061	3.68
267.435	3.66
267.809	3.78
268.183	3.88
268.556	3.77
268.93	3.75
269.304	3.77
269.678	3.76
270.051	3.41
270.425	3.45
270.799	3.27
271.172	3.11
271.546	3.09
271.919	2.98
272.293	2.8
272.666	2.84
273.04	2.92
273.413	2.94
273.787	2.82
274.16	2.9
274.533	2.96
274.906	2.78
275.279	2.72
275.653	2.66
276.026	2.47
276.399	2.59
276.772	2.85
277.145	2.68
277.518	2.73
277.891	2.88
278.263	3.08
278.636	3.12
279.009	3.22
279.382	3.36
279.755	3.41
280.127	3.74
280.5	3.71
280.872	3.7
281.245	3.69
281.617	3.92
281.99	3.98
282.362	4.07
282.735	4.12
283.107	4.21
283.479	4.26
283.852	4.27
284.224	4.3
284.596	4.19
284.968	4.34
285.34	4.38
285.713	4.37
286.085	4.31
286.457	4.35
286.829	4.39
287.201	4.38
287.572	4.39
287.944	4.25
288.316	4.22
288.688	4.19
289.06	4.22
289.431	4.03
289.803	4.04
290.175	4.09
290.546	4.22
290.918	4.27
291.289	4.29
291.661	4.35
292.032	4.3
292.403	4.3
292.775	4.33
293.146	4.31
293.517	4.26
293.889	4.32
294.26	4.26
294.631	4.21
295.002	4.1
295.373	4.16
295.744	4.16
296.115	4.25
296.486	4.26
296.857	4.3
297.228	4.48
297.599	4.52
297.97	4.4
298.34	4.41
298.711	4.44
299.082	4.4
299.452	4.51
299.823	4.72
300.194	4.71
300.564	4.51
300.935	4.47
301.305	4.49
301.676	4.53
302.046	4.71
302.416	4.79
302.787	4.84
303.157	4.85
303.527	4.88
303.897	4.72
304.267	4.81
304.637	4.87
305.008	4.9
305.378	4.82
305.748	4.91
306.117	4.87
306.487	4.81
306.857	4.96
307.227	4.9
307.597	4.76
307.967	4.79
308.336	5.01
308.706	5
309.076	5.03
309.445	4.97
309.815	4.94
310.184	4.78
310.554	4.87
310.923	4.84
311.293	4.85
311.662	4.96
312.031	4.86
312.401	4.78
312.77	4.68
313.139	4.63
313.508	4.62
313.877	4.65
314.246	4.7
314.616	4.59
314.985	4.5
315.353	4.36
315.722	4.39
316.091	4.21
316.46	4.22
316.829	4.29
317.198	4.32
317.567	4.26
317.935	4.33
318.304	4.25
318.672	4.3
319.041	4.34
319.41	4.4
319.778	4.36
320.147	4.33
320.515	4.33
320.883	4.38
321.252	4.47
321.62	4.39
321.988	4.35
322.357	4.3
322.725	4.32
323.093	4.33
323.461	4.23
323.829	4.36
324.197	4.53
324.565	4.4
324.933	4.42
325.301	4.46
325.669	4.5
326.037	4.59
326.405	4.46
326.772	4.43
327.14	4.33
327.508	4.38
327.875	4.3
328.243	4.33
328.61	4.27
328.978	4.17
329.346	4.32
329.713	4.24
330.08	4.3
330.448	4.21
330.815	4.22
331.182	4.27
331.55	4.18
331.917	4.05
332.284	4.13
332.651	4.13
333.018	4.11
333.385	4.04
333.752	4.09
334.119	4.3
334.486	4.21
334.853	4.14
335.22	4.12
335.587	4.16
335.954	4.18
336.32	4.2
336.687	4.17
337.054	3.9
337.42	3.98
337.787	4.02
338.153	3.99
338.52	4.04
338.886	3.98
339.253	3.94
339.619	4.01
339.986	3.88
340.352	3.84
340.718	3.85
341.084	3.9
341.451	3.84
341.817	3.73
342.183	3.69
342.549	3.78
342.915	3.81
343.281	3.85
343.647	3.79
344.013	3.78
344.379	3.69
344.745	3.8
345.11	3.8
345.476	3.73
345.842	3.8
346.208	3.83
346.573	3.88
346.939	3.97
347.304	3.91
347.67	4.01
348.035	3.96
348.401	3.85
348.766	3.83
349.132	3.76
349.497	3.77
349.862	3.89
350.228	3.88
350.593	3.92
350.958	3.97
351.323	4.08
351.688	4.15
352.053	4.33
352.418	4.34
352.783	4.32
353.148	4.33
353.513	4.33
353.878	4.35
354.243	4.44
354.608	4.47
354.972	4.5
355.337	4.53
355.702	4.62
356.066	4.74
356.431	4.69
356.795	4.78
357.16	4.82
357.524	4.73
357.889	4.72
358.253	4.71
358.618	4.7
358.982	4.64
359.346	4.56
359.71	4.49
360.075	4.5
360.439	4.51
360.803	4.54
361.167	4.54
361.531	4.53
361.895	4.5
362.259	4.45
362.623	4.42
362.987	4.41
363.351	4.41
363.714	4.34
364.078	4.37
364.442	4.3
364.806	4.24
365.169	4.26
365.533	4.29
365.896	4.22
366.26	4.18
366.623	4.17
366.987	4.23
367.35	4.22
367.714	4.23
368.077	4.26
368.44	4.24
368.803	4.23
369.167	4.19
369.53	4.12
369.893	4.2
370.256	4.25
370.619	4.24
370.982	4.2
371.345	4.21
371.708	4.3
372.071	4.36
372.434	4.35
372.797	4.34
373.159	4.25
373.522	4.39
373.885	4.38
374.247	4.38
374.61	4.41
374.973	4.43
375.335	4.43
375.698	4.38
376.06	4.34
376.423	4.3
376.785	4.36
377.147	4.41
377.51	4.34
377.872	4.3
378.234	4.28
378.596	4.3
378.958	4.3
379.321	4.25
379.683	4.23
380.045	4.27
380.407	4.31
380.769	4.37
381.13	4.29
381.492	4.32
381.854	4.35
382.216	4.31
382.578	4.31
382.939	4.23
383.301	4.24
383.663	4.25
384.024	4.26
384.386	4.26
384.747	4.27
385.109	4.3
385.47	4.3
385.832	4.3
386.193	4.33
386.554	4.34
386.916	4.31
387.277	4.28
387.638	4.26
387.999	4.25
388.36	4.25
388.721	4.26
389.082	4.24
389.443	4.22
389.804	4.22
390.165	4.22
390.526	4.28
390.887	4.29
391.248	4.31
391.609	4.34
391.969	4.33
392.33	4.31
392.691	4.29
393.051	4.31
393.412	4.28
393.772	4.25
394.133	4.26
394.493	4.29
394.854	4.29
395.214	4.3
395.574	4.35
395.935	4.34
396.295	4.31
396.655	4.28
397.015	4.29
397.376	4.28
397.736	4.27
398.096	4.28
398.456	4.29
398.816	4.31
399.176	4.29
399.535	4.3
399.895	4.29
400.255	4.3
400.615	4.31
400.975	4.32
401.334	4.33
401.694	4.32
402.054	4.32
402.413	4.34
402.773	4.33
403.132	4.26
403.492	4.27
403.851	4.3
404.211	4.34
404.57	4.33
404.929	4.32
405.288	4.32
405.648	4.3
406.007	4.3
406.366	4.26
406.725	4.25
407.084	4.25
407.443	4.27
407.802	4.26
408.161	4.26
408.52	4.26
408.879	4.25
409.238	4.24
409.596	4.24
409.955	4.21
410.314	4.24
410.673	4.27
411.031	4.23
411.39	4.24
411.748	4.24
412.107	4.28
412.465	4.3
412.824	4.3
413.182	4.28
413.54	4.29
413.899	4.32
414.257	4.35
414.615	4.31
414.974	4.33
415.332	4.34
415.69	4.33
416.048	4.32
416.406	4.33
416.764	4.35
417.122	4.35
417.48	4.35
417.838	4.33
418.195	4.33
418.553	4.33
418.911	4.33
419.269	4.32
419.626	4.3
419.984	4.3
420.342	4.31
420.699	4.31
421.057	4.31
421.414	4.3
421.772	4.29
422.129	4.31
422.486	4.29
422.844	4.28
423.201	4.26
423.558	4.27
423.915	4.26
424.273	4.26
424.63	4.26
424.987	4.27
425.344	4.28
425.701	4.28
426.058	4.28
426.415	4.29
426.772	4.29
427.128	4.3
427.485	4.31
427.842	4.31
428.199	4.32
428.555	4.34
428.912	4.34
429.269	4.35
429.625	4.34
429.982	4.35
430.338	4.36
430.695	4.37
431.051	4.36
431.407	4.37
431.764	4.34
432.12	4.35
432.476	4.33
432.832	4.28
433.189	4.28
433.545	4.27
433.901	4.27
434.257	4.25
434.613	4.25
434.969	4.23
435.325	4.24
435.681	4.23
436.036	4.22
436.392	4.23
436.748	4.24
437.104	4.23
437.459	4.24
437.815	4.23
438.171	4.24
438.526	4.24
438.882	4.25
439.237	4.27
439.593	4.28
439.948	4.28
440.304	4.29
440.659	4.3
441.014	4.31
441.369	4.29
441.725	4.29
442.08	4.29
442.435	4.3
442.79	4.3
443.145	4.3
443.5	4.29
443.855	4.29
444.21	4.26
444.565	4.28
444.92	4.27
445.275	4.27
445.629	4.27
445.984	4.27
446.339	4.25
446.693	4.24
447.048	4.22
447.403	4.22
447.757	4.22
448.112	4.21
448.466	4.21
448.82	4.23
449.175	4.23
449.529	4.23
449.883	4.21
450.238	4.2
450.592	4.2
450.946	4.19
451.3	4.2
451.654	4.21
452.008	4.2
452.362	4.18
452.716	4.18
453.07	4.18
453.424	4.18
453.778	4.19
454.132	4.19
454.486	4.19
454.839	4.2
455.193	4.19
455.547	4.19
455.9	4.19
456.254	4.19
456.607	4.2
456.961	4.21
457.314	4.21
457.668	4.22
458.021	4.22
458.375	4.22
458.728	4.22
459.081	4.21
459.434	4.23
459.787	4.23
460.141	4.25
460.494	4.23
460.847	4.22
461.2	4.22
461.553	4.23
461.906	4.21
462.259	4.22
462.611	4.23
462.964	4.23
463.317	4.24
463.67	4.23
464.022	4.23
464.375	4.21
464.728	4.22
465.08	4.25
465.433	4.24
465.785	4.25
466.138	4.23
466.49	4.24
466.843	4.23
467.195	4.25
467.547	4.24
467.899	4.26
468.252	4.28
468.604	4.28
468.956	4.27
469.308	4.3
469.66	4.29
470.012	4.29
470.364	4.31
470.716	4.31
471.068	4.32
471.42	4.31
471.772	4.33
472.123	4.33
472.475	4.31
472.827	4.32
473.178	4.33
473.53	4.34
473.882	4.34
474.233	4.34
474.585	4.33
474.936	4.34
475.288	4.33
475.639	4.35
475.99	4.36
476.342	4.39
476.693	4.37
477.044	4.39
477.395	4.39
477.746	4.38
478.097	4.38
478.448	4.37
478.8	4.37
479.15	4.36
479.501	4.37
479.852	4.36
480.203	4.35
480.554	4.36
480.905	4.37
481.255	4.39
481.606	4.39
481.957	4.4
482.307	4.4
482.658	4.4
483.009	4.4
483.359	4.4
483.709	4.4
484.06	4.41
484.41	4.41
484.761	4.42
485.111	4.42
485.461	4.42
485.811	4.43
486.162	4.43
486.512	4.45
486.862	4.45
487.212	4.46
487.562	4.46
487.912	4.47
488.262	4.46
488.612	4.46
488.961	4.46
489.311	4.46
489.661	4.46
490.011	4.47
490.36	4.46
490.71	4.47
491.06	4.47
491.409	4.46
491.759	4.46
492.108	4.46
492.458	4.45
492.807	4.45
493.157	4.45
493.506	4.45
493.855	4.43
494.204	4.43
494.554	4.44
494.903	4.43
495.252	4.42
495.601	4.43
495.95	4.43
496.299	4.41
496.648	4.4
496.997	4.39
497.346	4.4
497.695	4.42
498.043	4.4
498.392	4.4
498.741	4.4
499.09	4.4
499.438	4.41
499.787	4.41
500.135	4.44
500.484	4.45
500.832	4.44
501.181	4.44
501.529	4.44
501.878	4.43
502.226	4.44
502.574	4.44
502.923	4.46
503.271	4.45
503.619	4.47
503.967	4.47
504.315	4.46
504.663	4.45
505.011	4.45
505.359	4.47
505.707	4.49
506.055	4.51
506.403	4.55
506.751	4.53
507.098	4.55
507.446	4.54
507.794	4.51
508.141	4.52
508.489	4.54
508.837	4.55
509.184	4.56
509.531	4.57
509.879	4.59
510.226	4.58
510.574	4.6
510.921	4.59
511.268	4.59
511.616	4.61
511.963	4.61
512.31	4.62
512.657	4.59
513.004	4.58
513.351	4.6
513.698	4.6
514.045	4.6
514.392	4.6
514.739	4.6
515.086	4.62
515.432	4.61
515.779	4.6
516.126	4.6
516.473	4.62
516.819	4.61
517.166	4.62
517.512	4.62
517.859	4.63
518.205	4.63
518.552	4.64
518.898	4.64
519.245	4.66
519.591	4.67
519.937	4.67
520.283	4.67
520.629	4.66
520.976	4.67
521.322	4.69
521.668	4.7
522.014	4.72
522.36	4.74
522.706	4.75
523.052	4.77
523.398	4.8
523.743	4.8
524.089	4.8
524.435	4.79
524.781	4.8
525.126	4.82
525.472	4.85
525.817	4.86
526.163	4.86
526.509	4.86
526.854	4.85
527.199	4.86
527.545	4.86
527.89	4.87
528.235	4.86
528.581	4.86
528.926	4.85
529.271	4.84
529.616	4.83
529.961	4.84
530.306	4.84
530.651	4.83
530.996	4.84
531.341	4.85
531.686	4.85
532.031	4.85
532.376	4.85
532.721	4.84
533.065	4.83
533.41	4.84
533.755	4.84
534.099	4.85
534.444	4.85
534.788	4.87
535.133	4.88
535.477	4.89
535.822	4.87
536.166	4.88
536.51	4.89
536.855	4.9
537.199	4.9
537.543	4.9
537.887	4.9
538.231	4.89
538.576	4.9
538.92	4.91
539.264	4.9
539.608	4.9
539.951	4.88
540.295	4.89
540.639	4.9
540.983	4.9
541.327	4.92
541.671	4.94
542.014	4.92
542.358	4.91
542.701	4.91
543.045	4.91
543.389	4.91
543.732	4.93
544.075	4.94
544.419	4.95
544.762	4.93
545.105	4.95
545.449	4.95
545.792	4.94
546.135	4.94
546.478	4.94
546.821	4.92
547.165	4.92
547.508	4.92
547.851	4.9
548.194	4.89
548.536	4.87
548.879	4.85
549.222	4.85
549.565	4.82
549.908	4.83
550.25	4.82
550.593	4.83
550.936	4.82
551.278	4.81
551.621	4.79
551.963	4.8
552.306	4.8
552.648	4.8
552.991	4.84
553.333	4.85
553.675	4.87
554.017	4.91
554.36	4.93
554.702	4.95
555.044	4.97
555.386	4.99
555.728	4.99
556.07	4.99
556.412	4.99
556.754	5
557.096	5
557.438	5.02
557.78	5.04
558.121	5.04
558.463	5.04
558.805	5.04
559.147	5.08
559.488	5.08
559.83	5.07
560.171	5.03
560.513	5.03
560.854	5.01
561.196	4.99
561.537	4.98
561.878	4.96
562.22	4.95
562.561	4.93
562.902	4.93
563.243	4.95
563.584	4.96
563.925	4.96
564.266	4.98
564.607	4.97
564.948	4.96
565.289	4.94
565.63	4.94
565.971	4.95
566.312	4.96
566.653	4.93
566.993	4.96
567.334	4.96
567.675	4.98
568.015	5.01
568.356	5.03
568.696	5.06
569.037	5.05
569.377	5.07
569.718	5.08
570.058	5.08
570.398	5.08
570.739	5.11
571.079	5.12
571.419	5.13
571.759	5.16
572.099	5.13
572.439	5.15
572.779	5.14
573.119	5.14
573.459	5.14
573.799	5.17
574.139	5.14
574.479	5.14
574.819	5.13
575.158	5.09
575.498	5.09
575.838	5.1
576.177	5.1
576.517	5.1
576.856	5.08
577.196	5.07
577.535	5.03
577.875	5.02
578.214	5.02
578.553	5.02
578.893	4.95
579.232	4.96
579.571	4.97
579.91	4.97
580.25	4.94
580.589	4.94
580.928	4.96
581.267	4.96
581.606	4.96
581.945	4.92
582.283	4.94
582.622	4.93
582.961	4.88
583.3	4.91
583.639	4.9
583.977	4.9
584.316	4.92
584.654	4.95
584.993	4.94
585.332	4.94
585.67	4.92
586.008	4.95
586.347	4.95
586.685	4.94
587.024	4.95
587.362	4.97
587.7	5.01
588.038	5
588.376	5.04
588.715	5.01
589.053	5.03
589.391	5.05
589.729	5.07
590.067	5.1
590.404	5.08
590.742	5.11
591.08	5.1
591.418	5.09
591.756	5.12
592.093	5.12
592.431	5.15
592.769	5.17
593.106	5.2
593.444	5.18
593.781	5.2
594.119	5.18
594.456	5.23
594.793	5.16
595.131	5.16
595.468	5.15
595.805	5.19
596.143	5.2
596.48	5.17
596.817	5.16
597.154	5.17
597.491	5.2
597.828	5.22
598.165	5.25
598.502	5.27
598.839	5.24
599.176	5.27
599.512	5.29
599.849	5.27
600.186	5.27
600.523	5.32
600.859	5.34
601.196	5.38
601.532	5.32
601.869	5.36
602.205	5.35
602.542	5.37
602.878	5.35
603.215	5.34
603.551	5.38
603.887	5.4
604.223	5.37
604.56	5.33
604.896	5.3
605.232	5.29
605.568	5.28
605.904	5.29
606.24	5.29
606.576	5.26
606.912	5.28
607.248	5.28
607.583	5.27
607.919	5.25
608.255	5.2
608.591	5.25
608.926	5.26
609.262	5.27
609.597	5.23
609.933	5.26
610.268	5.26
610.604	5.23
610.939	5.23
611.275	5.27
611.61	5.3
611.945	5.29
612.281	5.29
612.616	5.29
612.951	5.28
613.286	5.27
613.621	5.27
613.956	5.28
614.291	5.3
614.626	5.29
614.961	5.27
615.296	5.31
615.631	5.31
615.966	5.28
616.3	5.28
616.635	5.31
616.97	5.33
617.304	5.32
617.639	5.42
617.973	5.4
618.308	5.39
618.642	5.4
618.977	5.41
619.311	5.43
619.646	5.39
619.98	5.45
620.314	5.46
620.648	5.48
620.983	5.48
621.317	5.49
621.651	5.53
621.985	5.59
622.319	5.61
622.653	5.6
622.987	5.63
623.321	5.63
623.655	5.63
623.988	5.66
624.322	5.61
624.656	5.59
624.99	5.62
625.323	5.6
625.657	5.63
625.99	5.68
626.324	5.67
626.657	5.77
626.991	5.74
627.324	5.75
627.658	5.74
627.991	5.71
628.324	5.74
628.657	5.75
628.991	5.73
629.324	5.74
629.657	5.76
629.99	5.81
630.323	5.78
630.656	5.78
630.989	5.75
631.322	5.8
631.655	5.77
631.987	5.8
632.32	5.77
632.653	5.72
632.986	5.73
633.318	5.73
633.651	5.73
633.984	5.78
634.316	5.74
634.649	5.73
634.981	5.75
635.313	5.74
635.646	5.74
635.978	5.71
636.31	5.67
636.643	5.66
636.975	5.6
637.307	5.62
637.639	5.63
637.971	5.66
638.303	5.64
638.635	5.65
638.967	5.6
639.299	5.64
639.631	5.63
639.963	5.58
640.295	5.61
640.626	5.58
640.958	5.54
641.29	5.6
641.621	5.57
641.953	5.56
642.285	5.48
642.616	5.45
642.948	5.5
643.279	5.54
643.61	5.54
643.942	5.54
644.273	5.55
644.604	5.49
644.936	5.49
645.267	5.58
645.598	5.55
645.929	5.52
646.26	5.53
646.591	5.6
646.922	5.61
647.253	5.58
647.584	5.55
647.915	5.53
648.245	5.53
648.576	5.6
648.907	5.64
649.238	5.61
649.568	5.6
649.899	5.61
650.229	5.6
650.56	5.63
650.89	5.58
651.221	5.56
651.551	5.59
651.882	5.61
652.212	5.53
652.542	5.57
652.872	5.52
653.203	5.55
653.533	5.55
653.863	5.51
654.193	5.58
654.523	5.59
654.853	5.67
655.183	5.61
655.513	5.56
655.843	5.51
656.172	5.61
656.502	5.68
656.832	5.69
657.162	5.71
657.491	5.71
657.821	5.76
658.15	5.79
658.48	5.83
658.809	5.72
659.139	5.77
659.468	5.77
659.798	5.85
660.127	5.89
660.456	5.91
660.785	5.98
661.115	5.94
661.444	5.91
661.773	5.86
662.102	5.89
662.431	5.93
662.76	5.91
663.089	5.92
663.418	5.89
663.747	5.82
664.076	5.88
664.404	5.83
664.733	5.87
665.062	5.85
665.39	5.85
665.719	5.87
666.048	5.9
666.376	5.88
666.705	5.88
667.033	5.76
667.362	5.73
667.69	5.7
668.018	5.7
668.347	5.72
668.675	5.79
669.003	5.82
669.331	5.86
669.659	5.96
669.987	5.88
670.315	5.85
670.643	5.85
670.971	5.69
671.299	5.76
671.627	5.75
671.955	5.75
672.283	5.72
672.61	5.73
672.938	5.77
673.266	5.76
673.593	5.8
673.921	5.91
674.249	5.92
674.576	5.94
674.904	5.93
675.231	6.01
675.558	6.02
675.886	6.02
676.213	5.98
676.54	5.93
676.867	6.01
677.195	6.03
677.522	6.11
677.849	6.21
678.176	6.18
678.503	6.14
678.83	6.19
679.157	6.23
679.484	6.25
679.81	6.23
680.137	6.3
680.464	6.24
680.791	6.16
681.117	6.12
681.444	6.09
681.771	6.13
682.097	6.09
682.424	6.06
682.75	6.07
683.077	6.05
683.403	6.07
683.729	6.01
684.056	6.09
684.382	6.05
684.708	6.02
685.034	6.03
685.36	6.07
685.686	6
686.012	5.91
686.339	6.02
686.664	5.94
686.99	5.89
687.316	5.87
687.642	5.97
687.968	5.97
688.294	6.03
688.619	6.01
688.945	6.04
689.271	6.02
689.596	6
689.922	6.05
690.247	6.03
690.573	6.15
690.898	6.12
691.224	6.15
691.549	6.25
691.874	6.23
692.2	6.32
692.525	6.4
692.85	6.47
693.175	6.37
693.5	6.39
693.825	6.5
694.15	6.5
694.475	6.44
694.8	6.49
695.125	6.38
695.45	6.34
695.775	6.33
696.099	6.38
696.424	6.41
696.749	6.37
697.073	6.39
697.398	6.42
697.723	6.44
698.047	6.39
698.372	6.34
698.696	6.33
699.02	6.27
699.345	6.26
699.669	6.37
699.993	6.41
700.318	6.5
700.642	6.38
700.966	6.43
701.29	6.53
701.614	6.59
701.938	6.73
702.262	6.89
702.586	6.89
702.91	6.85
703.234	6.87
703.557	6.87
703.881	6.89
704.205	6.75
704.529	6.63
704.852	6.63
705.176	6.62
705.499	6.68
705.823	6.55
706.146	6.59
706.47	6.48
706.793	6.47
707.117	6.37
707.44	6.46
707.763	6.46
708.086	6.25
708.409	6.16
708.733	6.18
709.056	5.98
709.379	6.24
709.702	6.26
710.025	6.23
710.348	6.24
710.671	6.17
710.993	6.4
711.316	6.46
711.639	6.54
711.962	6.52
712.284	6.54
712.607	6.72
712.93	6.69
713.252	6.62
713.575	6.68
713.897	6.75
714.22	6.8
714.542	6.72
714.864	6.86
715.187	6.9
715.509	6.87
715.831	6.95
716.153	6.76
716.475	6.78
716.798	6.9
717.12	6.93
717.442	7
717.764	6.85
718.085	6.91
718.407	6.97
718.729	7.01
719.051	6.94
719.373	6.8
719.695	6.8
720.016	7.04
720.338	6.96
720.659	6.94
720.981	6.79
721.302	6.87
721.624	6.85
721.945	6.82
722.267	6.77
722.588	6.8
722.909	6.78
723.231	6.7
723.552	6.57
723.873	6.58
724.194	6.53
724.515	6.48
724.836	6.59
725.157	6.6
725.478	6.61
725.799	6.72
726.12	6.77
726.441	6.79
726.762	6.79
727.083	6.92
727.403	6.86
727.724	7.07
728.045	7.17
728.365	7.17
728.686	7.25
729.006	7.33
729.327	7.27
729.647	7.4
729.967	7.51
730.288	7.48
730.608	7.44
730.928	7.56
731.249	7.52
731.569	7.5
731.889	7.52
732.209	7.58
732.529	7.72
732.849	7.79
733.169	7.83
733.489	7.8
733.809	7.59
734.129	7.65
734.448	7.69
734.768	7.62
735.088	7.67
735.408	7.74
735.727	7.6
736.047	7.7
736.366	7.59
736.686	7.59
737.005	7.61
737.325	7.54
737.644	7.39
737.963	7.49
738.283	7.41
738.602	7.41
738.921	7.43
739.24	7.3
739.56	7.24
739.879	7.17
740.198	7.26
740.517	7.26
740.836	7.2
741.155	7.1
741.473	7.12
741.792	7.17
742.111	6.95
742.43	7.17
742.748	7.07
743.067	7.1
743.386	7.15
743.704	7.17
744.023	7.37
744.341	7.53
744.66	7.7
744.978	7.56
745.297	7.34
745.615	7.26
745.933	7.41
746.252	7.55
746.57	7.53
746.888	7.41
747.206	7.67
747.524	7.8
747.842	7.69
748.16	7.74
748.478	7.54
748.796	7.72
749.114	7.76
749.432	7.8
749.749	8.01
750.067	8.04
750.385	8.17
750.703	7.98
751.02	7.79
751.338	7.65
751.655	7.76
751.973	7.84
752.29	7.77
752.608	7.75
752.925	7.66
753.242	7.77
753.56	7.68
753.877	7.46
754.194	7.54
754.511	7.65
754.828	7.57
755.145	7.65
755.462	7.51
755.779	7.45
756.096	7.56
756.413	7.52
756.73	7.59
757.047	7.56
757.364	7.62
757.68	7.67
757.997	7.72
758.314	7.68
758.63	7.83
758.947	7.79
759.264	7.47
759.58	7.53
759.896	7.44
760.213	7.58
760.529	7.64
760.846	7.4
761.162	7.33
761.478	7.47
761.794	7.29
762.11	7.48
762.426	7.4
762.743	7.39
763.059	7.26
763.375	7.24
763.69	7.26
764.006	7.21
764.322	7.41
764.638	7.4
764.954	7.69
765.27	7.58
765.585	7.61
765.901	7.71
766.216	7.68
766.532	7.61
766.848	7.44
767.163	7.37
767.478	7.43
767.794	7.46
768.109	7.15
768.424	7.24
768.74	7.11
769.055	7.03
769.37	6.76
769.685	6.75
770	6.65
770.315	6.49
770.63	6.67
770.945	6.29
771.26	6.39
771.575	6.06
771.89	6.4
772.205	6.37
772.52	6.42
772.834	6.3
773.149	6.46
773.464	6.53
773.778	6.7
774.093	6.65
774.407	6.59
774.722	6.9
775.036	7.38
775.351	7.33
775.665	7.61
775.979	7.79
776.293	7.99
776.608	7.94
776.922	7.56
777.236	7.76
777.55	7.94
777.864	7.8
778.178	7.95
778.492	7.98
778.806	7.84
779.12	8.18
779.434	8
779.747	8.12
780.061	8.11
780.375	7.85
780.689	7.89
781.002	8.39
781.316	8.37
781.629	8.01
781.943	8.23
782.256	8.1
782.57	8.52
782.883	8.35
783.196	8.46
783.51	8.94
783.823	8.68
784.136	8.91
784.449	9.07
784.762	8.88
785.075	8.44
785.388	8.6
785.701	8.52
786.014	8.53
786.327	8.56
786.64	8.79
786.953	9.11
787.266	9.16
787.578	9.03
787.891	9.2
788.204	8.87
788.516	8.94
788.829	9.16
789.141	8.87
789.454	8.97
789.766	8.94
790.079	9.11
790.391	8.9
790.703	8.79
791.016	8.45
791.328	8.62
791.64	9.01
791.952	9.5
792.264	9.36
792.576	9.72
792.888	9.74
793.2	9.77
793.512	9.64
793.824	9.8
794.136	9.65
794.448	9.82
794.76	10.32
795.071	10.19
795.383	9.94
795.695	10.22
796.006	9.93
796.318	9.84
796.629	9.96
796.941	10.15
797.252	10.6
797.564	10.83
797.875	10.47
798.186	10.36
798.497	9.87
798.809	9.48
799.12	9.45
799.431	9
799.742	9.09
800.053	9.28
800.364	9.03
800.675	9.27
800.986	9.37
801.297	9.01
801.608	8.61
801.918	8.48
802.229	8.22
802.54	8.26
802.851	8.4
803.161	7.68
803.472	8.1
803.782	7.77
804.093	7.45
804.403	7.71
804.714	7.49
805.024	7.47
805.334	7.6
805.645	7.68
805.955	8.41
806.265	8.32
806.575	7.86
806.885	8.25
807.195	7.94
807.505	8.21
807.815	8.41
808.125	9.21
808.435	9.4
808.745	9.91
809.055	10.03
809.365	9.82
809.674	10.07
809.984	10.12
810.294	10.12
810.603	10.82
810.913	10.98
811.222	11.18
811.532	11.45
811.841	11.51
812.151	11.46
812.46	11.05
812.769	10.92
813.079	11.54
813.388	11.19
813.697	11.32
814.006	10.47
814.315	10.73
814.624	10.49
814.933	10.46
815.242	9.81
815.551	9.9
815.86	9.68
816.169	9.98
816.478	9.71
816.786	9.91
817.095	9.76
817.404	9.47
817.712	9.45
818.021	9.84
818.33	10.13
818.638	10.01
818.947	10.43
819.255	10.59
819.563	10.48
819.872	10.81
820.18	10.66
820.488	10.66
820.796	10.64
821.105	10.45
821.413	10.45
821.721	10.6
822.029	10.45
822.337	10.66
822.645	10.71
822.953	10.67
823.26	10.58
823.568	10.6
823.876	10.72
824.184	10.7
824.491	10.52
824.799	10.53
825.107	10.62
825.414	10.62
825.722	10.62
826.029	10.74
826.337	10.68
826.644	10.67
826.951	10.69
827.259	10.66
827.566	10.6
827.873	10.57
828.18	10.51
828.488	10.61
828.795	10.63
829.102	10.73
829.409	11.04
829.716	10.98
830.023	10.84
830.329	10.76
830.636	10.85
830.943	11.31
831.25	11.28
831.557	11.17
831.863	11.2
832.17	10.86
832.476	10.44
832.783	10.49
833.089	10.27
833.396	10.42
833.702	10.27
834.009	10.51
834.315	10.57
834.621	10.59
834.928	10.88
835.234	10.6
835.54	10.12
835.846	9.46
836.152	9.83
836.458	10.03
836.764	10.05
837.07	10.24
837.376	9.51
837.682	9.34
837.988	9.43
838.293	9.27
838.599	9.67
838.905	10.01
839.211	9.85
839.516	10.34
839.822	10.51
840.127	10.5
840.433	10.48
840.738	10.86
841.044	10.42
841.349	10.33
841.654	10.28
841.959	11.24
842.265	11.66
842.57	10.97
842.875	10.76
843.18	10.77
843.485	10.97
843.79	11.17
844.095	11.78
844.4	12.49
844.705	11.71
845.01	10.96
845.315	10.65
845.619	9.18
845.924	8.76
846.229	8.15
846.533	8.84
846.838	8.25
847.142	8.1
847.447	7.44
847.751	6.52
848.056	5.91
848.36	5.29
848.664	6.55
848.969	6.67
849.273	5.64
849.577	6.17
849.881	4.55
850.185	5.53
850.489	5.44
850.794	4.61
851.097	4.1
851.401	6.02
851.705	5.7
852.009	7.83
852.313	8.74
852.617	7.31
852.92	10.8
853.224	11.19
853.528	13.14
853.831	14.81
854.135	15.35
854.438	14.26
854.742	13.92
855.045	13.98
855.349	13.59
855.652	13.96
855.955	13.21
856.259	12.35
856.562	12.04
856.865	11.49
857.168	11.71
857.471	13.72
857.774	12.41
858.077	14.33
858.38	17.2
858.683	16.55
858.986	17.03
859.289	14.36
859.592	16.78
859.894	14.65
860.197	15.63
860.5	14.51
860.802	16.05
861.105	16.59
861.407	13.51
861.71	14.01
862.012	13.81
862.315	14.18
862.617	14.94
862.919	14.6
863.222	15.23
863.524	13.59
863.826	13.28
864.128	14.52
864.43	13.18
864.732	12.15
865.034	11.78
865.336	11.22
865.638	12.04
865.94	9.07
866.242	8.87
866.544	6.57
866.846	7.67
867.147	7.8
867.449	7.25
867.751	10.62
868.052	11.9
868.354	13.97
868.655	14.54
868.957	15.28
869.258	15.48
869.56	14.71
869.861	16.62
870.162	16.81
870.463	16.46
870.765	17.72
871.066	15.82
871.367	16.55
871.668	16
871.969	12.1
872.27	13.42
872.571	11.42
872.872	11.74
873.173	10.78
873.473	11.4
873.774	11.85
874.075	10.1
874.376	8.67
874.676	9.35
874.977	7.16
875.277	7.09
875.578	7.27
875.878	7.38
876.179	6.46
876.479	5.75
876.78	4.63
877.08	2.7
877.38	2.31
877.68	2.11
877.981	2.9
878.281	7.14
878.581	7.22
