Data from BA56830_Reflection_00007.txt Node
Date: Mon Nov 18 16:03:59 EST 2019
User: vgr7
Spectrometer: USB2G7710
Scans to average: 3
Trigger mode: 4
Integration Time (sec): 2.000000E-2
Electric dark correction enabled: true
Boxcar width: 10
XAxis mode: Wavelengths
Number of Pixels in Spectrum: 2048
>>>>>Begin Spectral Data<<<<<
177.721	152.57
178.105	191.5
178.488	69.04
178.871	89.16
179.254	170.46
179.636	-4.58
180.019	7655.56
180.402	284.21
180.785	63.52
181.168	17.15
181.55	-0.66
181.933	23.21
182.316	21.29
182.698	13.75
183.081	0.19
183.463	-13.73
183.846	-4.65
184.228	9.16
184.611	1.75
184.993	-12.55
185.376	-322.76
185.758	-150.53
186.14	-317.34
186.522	-138.87
186.904	-328.94
187.287	-356.62
187.669	275.44
188.051	-396.73
188.433	39433.33
188.815	319
189.197	110.69
189.579	79.3
189.961	36.83
190.342	22.94
190.724	19.55
191.106	-0.43
191.488	3.95
191.869	6.09
192.251	-16.35
192.633	-54.37
193.014	-42.02
193.396	-76.87
193.777	-83.46
194.159	-142.57
194.54	-95.1
194.922	-78.66
195.303	-100.09
195.684	-111.41
196.065	-34.64
196.447	-41.54
196.828	-77.39
197.209	-67.89
197.59	-124.42
197.971	-128.69
198.352	-84.54
198.733	-78.08
199.114	-51.14
199.495	-41.16
199.876	-26.74
200.257	-9.91
200.638	1.36
201.018	-17.92
201.399	-16.51
201.78	-1.37
202.16	-11.19
202.541	-10.68
202.922	-9.49
203.302	8.5
203.683	29.76
204.063	15.25
204.444	3.95
204.824	3.64
205.204	-1.07
205.585	2.57
205.965	12.21
206.345	8.18
206.725	-29.54
207.106	-47.79
207.486	-78.28
207.866	-77.59
208.246	-83.05
208.626	-94.95
209.006	-42.82
209.386	-67.41
209.766	-72.65
210.145	-62.18
210.525	-64.2
210.905	-75.63
211.285	-62.37
211.664	-64.08
212.044	-66.25
212.424	-53.99
212.803	-75.49
213.183	-57.65
213.562	-65.91
213.942	-53.29
214.321	-43.71
214.701	-48.27
215.08	-23.62
215.459	0.87
215.838	7.45
216.218	-7.73
216.597	-6.12
216.976	-21.67
217.355	-3.4
217.734	-10.27
218.113	-2.46
218.492	9.89
218.871	6.11
219.25	6
219.629	5.16
220.008	2.2
220.387	8.47
220.766	20.47
221.144	13.01
221.523	11.55
221.902	0.94
222.28	2.52
222.659	8.51
223.037	0.6
223.416	-7.41
223.794	-13.53
224.173	-2.35
224.551	-1.34
224.929	-2.58
225.308	0.54
225.686	-0.05
226.064	1.55
226.442	1.5
226.821	2.16
227.199	2.28
227.577	0.84
227.955	3.94
228.333	1.09
228.711	2.2
229.089	4.85
229.467	0.41
229.845	2.18
230.222	3.76
230.6	2.23
230.978	2.6
231.356	4.22
231.733	6.38
232.111	7.82
232.488	8.59
232.866	7.77
233.243	6.98
233.621	6.06
233.998	6.39
234.376	4.86
234.753	3.82
235.13	3.51
235.508	3.25
235.885	1.86
236.262	3.11
236.639	3.12
237.016	3.68
237.393	6.93
237.77	6.85
238.147	6.93
238.524	6.38
238.901	6.83
239.278	6.55
239.655	6.46
240.032	5.87
240.409	5.47
240.785	5.37
241.162	5.85
241.539	6.16
241.915	6.21
242.292	5.75
242.668	5.74
243.045	6.07
243.421	6.06
243.798	5.89
244.174	5.69
244.551	5.64
244.927	5.47
245.303	5.05
245.679	5.02
246.056	4.75
246.432	5.04
246.808	4.98
247.184	5.1
247.56	4.82
247.936	4.8
248.312	4.74
248.688	5.07
249.064	5.16
249.44	5.14
249.815	5.3
250.191	5.66
250.567	5.88
250.943	5.71
251.318	5.95
251.694	6
252.069	6.17
252.445	6.22
252.82	6.24
253.196	6.49
253.571	6.51
253.947	6.62
254.322	6.64
254.697	6.39
255.073	5.77
255.448	6.09
255.823	5.87
256.198	5.71
256.573	5.28
256.948	5.11
257.323	5.13
257.698	4.99
258.073	4.83
258.448	4.7
258.823	4.79
259.198	4.58
259.573	4.65
259.948	4.55
260.322	4.54
260.697	4.47
261.072	4.26
261.446	4.21
261.821	4.17
262.195	4.22
262.57	4.21
262.944	4.19
263.319	4.1
263.693	4.12
264.067	4.35
264.442	4.55
264.816	4.45
265.19	4.51
265.564	4.42
265.938	4.35
266.313	4.38
266.687	4.26
267.061	4.28
267.435	4.27
267.809	4.28
268.183	4.31
268.556	4.36
268.93	4.45
269.304	4.52
269.678	4.62
270.051	4.4
270.425	4.46
270.799	4.5
271.172	4.45
271.546	4.41
271.919	4.19
272.293	4.19
272.666	4.18
273.04	4.11
273.413	4.08
273.787	4.17
274.16	4.1
274.533	4.15
274.906	4.21
275.279	4.19
275.653	4.16
276.026	4.09
276.399	4.19
276.772	4.17
277.145	4.1
277.518	4.05
277.891	4.29
278.263	4.14
278.636	4.21
279.009	4.08
279.382	4.19
279.755	4.21
280.127	4.33
280.5	4.34
280.872	4.42
281.245	4.28
281.617	4.32
281.99	4.43
282.362	4.33
282.735	4.18
283.107	4.12
283.479	4.2
283.852	4.17
284.224	4
284.596	4.08
284.968	4.23
285.34	4.17
285.713	4.01
286.085	4.13
286.457	4.12
286.829	4.22
287.201	4.28
287.572	4.23
287.944	4.1
288.316	4.09
288.688	3.96
289.06	4.18
289.431	4.19
289.803	4.2
290.175	4.2
290.546	4.4
290.918	4.52
291.289	4.52
291.661	4.56
292.032	4.7
292.403	4.64
292.775	4.68
293.146	4.54
293.517	4.56
293.889	4.58
294.26	4.61
294.631	4.68
295.002	4.69
295.373	4.75
295.744	4.84
296.115	4.86
296.486	4.81
296.857	4.79
297.228	4.75
297.599	4.74
297.97	4.81
298.34	4.74
298.711	4.75
299.082	4.77
299.452	4.84
299.823	4.9
300.194	4.97
300.564	4.84
300.935	5.08
301.305	5.23
301.676	5.28
302.046	5.34
302.416	5.37
302.787	5.44
303.157	5.5
303.527	5.58
303.897	5.57
304.267	5.72
304.637	5.79
305.008	5.95
305.378	6.03
305.748	6.16
306.117	6.11
306.487	6.21
306.857	6.32
307.227	6.28
307.597	6.2
307.967	6.35
308.336	6.47
308.706	6.51
309.076	6.48
309.445	6.48
309.815	6.44
310.184	6.47
310.554	6.46
310.923	6.56
311.293	6.48
311.662	6.55
312.031	6.64
312.401	6.65
312.77	6.71
313.139	6.68
313.508	6.68
313.877	6.81
314.246	6.82
314.616	6.81
314.985	6.81
315.353	6.8
315.722	6.84
316.091	6.8
316.46	6.81
316.829	6.97
317.198	7.1
317.567	7.2
317.935	7.3
318.304	7.4
318.672	7.36
319.041	7.55
319.41	7.62
319.778	7.69
320.147	7.67
320.515	7.52
320.883	7.62
321.252	7.74
321.62	7.84
321.988	7.87
322.357	7.9
322.725	8.01
323.093	8.16
323.461	8.25
323.829	8.5
324.197	8.6
324.565	8.54
324.933	8.53
325.301	8.53
325.669	8.53
326.037	8.53
326.405	8.73
326.772	8.78
327.14	8.89
327.508	8.8
327.875	8.9
328.243	9.07
328.61	9.18
328.978	9.13
329.346	9.24
329.713	9.23
330.08	9.2
330.448	9.27
330.815	9.27
331.182	9.34
331.55	9.27
331.917	9.2
332.284	9.34
332.651	9.52
333.018	9.68
333.385	9.76
333.752	9.94
334.119	9.91
334.486	10.01
334.853	10
335.22	10.19
335.587	10.27
335.954	10.32
336.32	10.35
336.687	10.55
337.054	10.43
337.42	10.5
337.787	10.64
338.153	10.59
338.52	10.61
338.886	10.57
339.253	10.58
339.619	10.69
339.986	10.67
340.352	10.67
340.718	10.69
341.084	10.62
341.451	10.47
341.817	10.39
342.183	10.17
342.549	10.19
342.915	10.2
343.281	10.18
343.647	10.25
344.013	10.16
344.379	10.02
344.745	10.03
345.11	10.15
345.476	10.12
345.842	10.12
346.208	10.09
346.573	10.14
346.939	10.22
347.304	10.2
347.67	10.18
348.035	10.15
348.401	10.09
348.766	10.15
349.132	10.22
349.497	10.23
349.862	10.43
350.228	10.41
350.593	10.34
350.958	10.38
351.323	10.29
351.688	10.35
352.053	10.39
352.418	10.52
352.783	10.45
353.148	10.44
353.513	10.55
353.878	10.6
354.243	10.52
354.608	10.46
354.972	10.49
355.337	10.53
355.702	10.52
356.066	10.55
356.431	10.56
356.795	10.58
357.16	10.63
357.524	10.48
357.889	10.51
358.253	10.53
358.618	10.48
358.982	10.41
359.346	10.36
359.71	10.32
360.075	10.34
360.439	10.27
360.803	10.24
361.167	10.2
361.531	10.18
361.895	10.22
362.259	10.24
362.623	10.24
362.987	10.25
363.351	10.25
363.714	10.21
364.078	10.19
364.442	10.09
364.806	10.06
365.169	10.05
365.533	10.03
365.896	10
366.26	9.88
366.623	9.95
366.987	9.97
367.35	9.97
367.714	9.92
368.077	9.92
368.44	9.91
368.803	9.85
369.167	9.79
369.53	9.69
369.893	9.65
370.256	9.52
370.619	9.39
370.982	9.28
371.345	9.19
371.708	9.09
372.071	9.12
372.434	9.04
372.797	9
373.159	8.89
373.522	8.8
373.885	8.81
374.247	8.7
374.61	8.61
374.973	8.49
375.335	8.4
375.698	8.33
376.06	8.24
376.423	8.2
376.785	8.17
377.147	8.23
377.51	8.15
377.872	8.21
378.234	8.18
378.596	8.14
378.958	8.05
379.321	8.03
379.683	7.92
380.045	7.86
380.407	7.82
380.769	7.74
381.13	7.69
381.492	7.67
381.854	7.66
382.216	7.63
382.578	7.64
382.939	7.55
383.301	7.51
383.663	7.5
384.024	7.46
384.386	7.44
384.747	7.33
385.109	7.27
385.47	7.15
385.832	7.09
386.193	7.05
386.554	7.04
386.916	6.98
387.277	6.97
387.638	6.93
387.999	6.91
388.36	6.9
388.721	6.89
389.082	6.81
389.443	6.75
389.804	6.7
390.165	6.66
390.526	6.62
390.887	6.58
391.248	6.54
391.609	6.51
391.969	6.43
392.33	6.4
392.691	6.39
393.051	6.36
393.412	6.36
393.772	6.31
394.133	6.24
394.493	6.22
394.854	6.14
395.214	6.13
395.574	6.07
395.935	6.03
396.295	5.96
396.655	5.92
397.015	5.87
397.376	5.8
397.736	5.73
398.096	5.73
398.456	5.71
398.816	5.68
399.176	5.62
399.535	5.57
399.895	5.54
400.255	5.48
400.615	5.45
400.975	5.39
401.334	5.37
401.694	5.39
402.054	5.34
402.413	5.33
402.773	5.29
403.132	5.24
403.492	5.21
403.851	5.2
404.211	5.22
404.57	5.21
404.929	5.21
405.288	5.18
405.648	5.15
406.007	5.12
406.366	5.04
406.725	5.03
407.084	5.04
407.443	5.01
407.802	5.01
408.161	4.94
408.52	4.9
408.879	4.89
409.238	4.87
409.596	4.86
409.955	4.87
410.314	4.85
410.673	4.87
411.031	4.88
411.39	4.86
411.748	4.82
412.107	4.79
412.465	4.75
412.824	4.72
413.182	4.69
413.54	4.66
413.899	4.68
414.257	4.67
414.615	4.64
414.974	4.63
415.332	4.59
415.69	4.59
416.048	4.57
416.406	4.55
416.764	4.5
417.122	4.49
417.48	4.42
417.838	4.38
418.195	4.34
418.553	4.31
418.911	4.3
419.269	4.27
419.626	4.25
419.984	4.26
420.342	4.25
420.699	4.24
421.057	4.23
421.414	4.2
421.772	4.19
422.129	4.17
422.486	4.14
422.844	4.14
423.201	4.12
423.558	4.11
423.915	4.09
424.273	4.09
424.63	4.07
424.987	4.07
425.344	4.06
425.701	4.06
426.058	4.04
426.415	4.02
426.772	4.03
427.128	4.01
427.485	4
427.842	4
428.199	4
428.555	4
428.912	4
429.269	3.97
429.625	3.97
429.982	3.96
430.338	3.95
430.695	3.95
431.051	3.94
431.407	3.96
431.764	3.95
432.12	3.93
432.476	3.95
432.832	3.95
433.189	3.94
433.545	3.94
433.901	3.92
434.257	3.9
434.613	3.9
434.969	3.9
435.325	3.89
435.681	3.9
436.036	3.9
436.392	3.91
436.748	3.91
437.104	3.89
437.459	3.89
437.815	3.88
438.171	3.88
438.526	3.89
438.882	3.88
439.237	3.89
439.593	3.89
439.948	3.88
440.304	3.88
440.659	3.89
441.014	3.91
441.369	3.91
441.725	3.91
442.08	3.88
442.435	3.87
442.79	3.85
443.145	3.84
443.5	3.82
443.855	3.8
444.21	3.8
444.565	3.81
444.92	3.8
445.275	3.79
445.629	3.79
445.984	3.78
446.339	3.77
446.693	3.75
447.048	3.73
447.403	3.73
447.757	3.71
448.112	3.69
448.466	3.67
448.82	3.67
449.175	3.67
449.529	3.67
449.883	3.66
450.238	3.65
450.592	3.64
450.946	3.64
451.3	3.62
451.654	3.6
452.008	3.61
452.362	3.6
452.716	3.6
453.07	3.6
453.424	3.59
453.778	3.57
454.132	3.56
454.486	3.55
454.839	3.54
455.193	3.53
455.547	3.53
455.9	3.55
456.254	3.56
456.607	3.56
456.961	3.55
457.314	3.57
457.668	3.57
458.021	3.55
458.375	3.57
458.728	3.58
459.081	3.58
459.434	3.56
459.787	3.58
460.141	3.58
460.494	3.56
460.847	3.58
461.2	3.59
461.553	3.61
461.906	3.62
462.259	3.63
462.611	3.66
462.964	3.67
463.317	3.66
463.67	3.66
464.022	3.67
464.375	3.69
464.728	3.7
465.08	3.72
465.433	3.76
465.785	3.76
466.138	3.77
466.49	3.8
466.843	3.82
467.195	3.82
467.547	3.85
467.899	3.88
468.252	3.86
468.604	3.87
468.956	3.87
469.308	3.87
469.66	3.87
470.012	3.9
470.364	3.91
470.716	3.92
471.068	3.92
471.42	3.93
471.772	3.93
472.123	3.94
472.475	3.92
472.827	3.92
473.178	3.95
473.53	3.95
473.882	3.93
474.233	3.93
474.585	3.92
474.936	3.91
475.288	3.89
475.639	3.93
475.99	3.91
476.342	3.92
476.693	3.93
477.044	3.94
477.395	3.92
477.746	3.92
478.097	3.9
478.448	3.9
478.8	3.89
479.15	3.87
479.501	3.85
479.852	3.86
480.203	3.84
480.554	3.84
480.905	3.82
481.255	3.82
481.606	3.82
481.957	3.83
482.307	3.83
482.658	3.83
483.009	3.81
483.359	3.82
483.709	3.83
484.06	3.83
484.41	3.83
484.761	3.82
485.111	3.82
485.461	3.84
485.811	3.83
486.162	3.83
486.512	3.85
486.862	3.84
487.212	3.84
487.562	3.85
487.912	3.84
488.262	3.85
488.612	3.86
488.961	3.85
489.311	3.86
489.661	3.86
490.011	3.87
490.36	3.89
490.71	3.89
491.06	3.88
491.409	3.89
491.759	3.9
492.108	3.92
492.458	3.92
492.807	3.92
493.157	3.94
493.506	3.95
493.855	3.96
494.204	3.98
494.554	4
494.903	4.02
495.252	4.02
495.601	4.06
495.95	4.08
496.299	4.11
496.648	4.12
496.997	4.13
497.346	4.15
497.695	4.19
498.043	4.19
498.392	4.22
498.741	4.26
499.09	4.29
499.438	4.33
499.787	4.37
500.135	4.41
500.484	4.45
500.832	4.52
501.181	4.56
501.529	4.62
501.878	4.67
502.226	4.71
502.574	4.77
502.923	4.79
503.271	4.82
503.619	4.87
503.967	4.95
504.315	5.01
504.663	5.07
505.011	5.12
505.359	5.21
505.707	5.27
506.055	5.33
506.403	5.39
506.751	5.45
507.098	5.52
507.446	5.58
507.794	5.63
508.141	5.68
508.489	5.75
508.837	5.81
509.184	5.88
509.531	5.96
509.879	6.04
510.226	6.14
510.574	6.24
510.921	6.32
511.268	6.39
511.616	6.47
511.963	6.55
512.31	6.63
512.657	6.72
513.004	6.8
513.351	6.89
513.698	6.98
514.045	7.07
514.392	7.15
514.739	7.26
515.086	7.37
515.432	7.47
515.779	7.54
516.126	7.64
516.473	7.74
516.819	7.84
517.166	7.95
517.512	8.02
517.859	8.1
518.205	8.19
518.552	8.26
518.898	8.35
519.245	8.42
519.591	8.51
519.937	8.6
520.283	8.71
520.629	8.8
520.976	8.9
521.322	9.02
521.668	9.17
522.014	9.27
522.36	9.43
522.706	9.57
523.052	9.74
523.398	9.91
523.743	10.07
524.089	10.24
524.435	10.4
524.781	10.56
525.126	10.72
525.472	10.85
525.817	10.99
526.163	11.14
526.509	11.28
526.854	11.41
527.199	11.53
527.545	11.63
527.89	11.76
528.235	11.9
528.581	12.03
528.926	12.15
529.271	12.29
529.616	12.43
529.961	12.57
530.306	12.71
530.651	12.86
530.996	13.03
531.341	13.21
531.686	13.39
532.031	13.59
532.376	13.79
532.721	14.01
533.065	14.22
533.41	14.42
533.755	14.64
534.099	14.87
534.444	15.12
534.788	15.37
535.133	15.59
535.477	15.84
535.822	16.09
536.166	16.36
536.51	16.64
536.855	16.95
537.199	17.24
537.543	17.59
537.887	17.93
538.231	18.27
538.576	18.61
538.92	18.96
539.264	19.27
539.608	19.56
539.951	19.87
540.295	20.14
540.639	20.43
540.983	20.69
541.327	20.98
541.671	21.22
542.014	21.49
542.358	21.77
542.701	22.05
543.045	22.3
543.389	22.57
543.732	22.85
544.075	23.11
544.419	23.42
544.762	23.71
545.105	24.02
545.449	24.34
545.792	24.68
546.135	24.99
546.478	25.35
546.821	25.74
547.165	26.13
547.508	26.53
547.851	26.92
548.194	27.3
548.536	27.66
548.879	28.07
549.222	28.47
549.565	28.85
549.908	29.19
550.25	29.57
550.593	29.96
550.936	30.33
551.278	30.72
551.621	31.06
551.963	31.42
552.306	31.79
552.648	32.15
552.991	32.53
553.333	32.89
553.675	33.25
554.017	33.58
554.36	33.91
554.702	34.21
555.044	34.55
555.386	34.92
555.728	35.2
556.07	35.56
556.412	35.86
556.754	36.16
557.096	36.49
557.438	36.86
557.78	37.19
558.121	37.56
558.463	37.93
558.805	38.27
559.147	38.61
559.488	38.89
559.83	39.16
560.171	39.49
560.513	39.81
560.854	40.15
561.196	40.44
561.537	40.73
561.878	41.03
562.22	41.29
562.561	41.53
562.902	41.82
563.243	42.1
563.584	42.4
563.925	42.73
564.266	42.94
564.607	43.2
564.948	43.46
565.289	43.69
565.63	43.81
565.971	44.07
566.312	44.22
566.653	44.46
566.993	44.67
567.334	44.82
567.675	45.03
568.015	45.14
568.356	45.39
568.696	45.59
569.037	45.79
569.377	45.98
569.718	46.18
570.058	46.4
570.398	46.5
570.739	46.69
571.079	46.78
571.419	47.02
571.759	47.19
572.099	47.33
572.439	47.48
572.779	47.68
573.119	47.84
573.459	48.08
573.799	48.22
574.139	48.4
574.479	48.51
574.819	48.62
575.158	48.79
575.498	48.86
575.838	49
576.177	49.15
576.517	49.37
576.856	49.53
577.196	49.65
577.535	49.8
577.875	49.93
578.214	50.19
578.553	50.33
578.893	50.44
579.232	50.71
579.571	50.84
579.91	51.08
580.25	51.21
580.589	51.29
580.928	51.44
581.267	51.61
581.606	51.76
581.945	51.89
582.283	52.06
582.622	52.2
582.961	52.32
583.3	52.44
583.639	52.44
583.977	52.55
584.316	52.72
584.654	52.94
584.993	53.05
585.332	53.12
585.67	53.19
586.008	53.33
586.347	53.4
586.685	53.51
587.024	53.53
587.362	53.59
587.7	53.65
588.038	53.75
588.376	53.79
588.715	53.93
589.053	54.06
589.391	54.13
589.729	54.25
590.067	54.28
590.404	54.39
590.742	54.53
591.08	54.55
591.418	54.65
591.756	54.71
592.093	54.79
592.431	54.84
592.769	54.93
593.106	55.05
593.444	55.06
593.781	55.17
594.119	55.26
594.456	55.39
594.793	55.53
595.131	55.63
595.468	55.73
595.805	55.8
596.143	55.9
596.48	56
596.817	56.07
597.154	56.13
597.491	56.2
597.828	56.27
598.165	56.39
598.502	56.45
598.839	56.58
599.176	56.7
599.512	56.83
599.849	56.93
600.186	57.03
600.523	57.21
600.859	57.26
601.196	57.39
601.532	57.52
601.869	57.51
602.205	57.66
602.542	57.77
602.878	57.81
603.215	57.85
603.551	57.92
603.887	57.92
604.223	58.03
604.56	58.04
604.896	58.09
605.232	58.16
605.568	58.24
605.904	58.14
606.24	58.17
606.576	58.28
606.912	58.34
607.248	58.32
607.583	58.28
607.919	58.33
608.255	58.37
608.591	58.38
608.926	58.51
609.262	58.48
609.597	58.59
609.933	58.73
610.268	58.82
610.604	58.84
610.939	58.95
611.275	59.04
611.61	59.16
611.945	59.2
612.281	59.26
612.616	59.33
612.951	59.52
613.286	59.59
613.621	59.52
613.956	59.64
614.291	59.7
614.626	59.75
614.961	59.8
615.296	59.88
615.631	59.93
615.966	59.94
616.3	60.05
616.635	59.96
616.97	59.98
617.304	60
617.639	60.12
617.973	60.19
618.308	60.16
618.642	60.08
618.977	60.17
619.311	60.22
619.646	60.26
619.98	60.28
620.314	60.28
620.648	60.41
620.983	60.38
621.317	60.53
621.651	60.58
621.985	60.68
622.319	60.65
622.653	60.73
622.987	60.79
623.321	60.77
623.655	60.86
623.988	60.9
624.322	61
624.656	60.99
624.99	60.96
625.323	61.02
625.657	61.17
625.99	61.14
626.324	61.16
626.657	61.13
626.991	61.14
627.324	61.19
627.658	61.2
627.991	61.3
628.324	61.29
628.657	61.45
628.991	61.46
629.324	61.49
629.657	61.5
629.99	61.58
630.323	61.67
630.656	61.69
630.989	61.77
631.322	61.78
631.655	61.83
631.987	61.93
632.32	61.99
632.653	62.06
632.986	62.07
633.318	62.11
633.651	62.21
633.984	62.42
634.316	62.47
634.649	62.45
634.981	62.49
635.313	62.5
635.646	62.47
635.978	62.56
636.31	62.55
636.643	62.6
636.975	62.64
637.307	62.68
637.639	62.65
637.971	62.58
638.303	62.52
638.635	62.44
638.967	62.51
639.299	62.58
639.631	62.44
639.963	62.55
640.295	62.49
640.626	62.43
640.958	62.4
641.29	62.41
641.621	62.52
641.953	62.54
642.285	62.67
642.616	62.63
642.948	62.65
643.279	62.72
643.61	62.71
643.942	62.73
644.273	62.67
644.604	62.73
644.936	62.76
645.267	62.84
645.598	62.96
645.929	62.87
646.26	62.86
646.591	62.98
646.922	62.92
647.253	63.1
647.584	63.19
647.915	63.15
648.245	63.2
648.576	63.2
648.907	63.23
649.238	63.07
649.568	63.1
649.899	63.14
650.229	63.26
650.56	63.28
650.89	63.22
651.221	63.3
651.551	63.37
651.882	63.46
652.212	63.45
652.542	63.57
652.872	63.67
653.203	63.69
653.533	63.79
653.863	63.92
654.193	63.86
654.523	63.91
654.853	63.85
655.183	63.89
655.513	63.91
655.843	63.97
656.172	64.03
656.502	64
656.832	63.98
657.162	64
657.491	64.04
657.821	64.14
658.15	64.08
658.48	64.11
658.809	64.09
659.139	64.07
659.468	64.01
659.798	64.02
660.127	64.01
660.456	63.92
660.785	63.9
661.115	63.86
661.444	63.97
661.773	64.1
662.102	64.02
662.431	63.96
662.76	63.98
663.089	63.91
663.418	63.87
663.747	63.81
664.076	63.79
664.404	63.74
664.733	63.79
665.062	63.69
665.39	63.6
665.719	63.57
666.048	63.58
666.376	63.72
666.705	63.82
667.033	63.78
667.362	63.89
667.69	63.83
668.018	63.92
668.347	63.74
668.675	63.63
669.003	63.65
669.331	63.75
669.659	63.74
669.987	63.93
670.315	64.08
670.643	64.13
670.971	64.06
671.299	64.15
671.627	64.06
671.955	64.16
672.283	64.24
672.61	64.26
672.938	64.22
673.266	63.98
673.593	63.9
673.921	64.1
674.249	64.13
674.576	64.16
674.904	64.26
675.231	64.43
675.558	64.59
675.886	64.6
676.213	64.63
676.54	64.6
676.867	64.65
677.195	64.65
677.522	64.68
677.849	64.85
678.176	64.9
678.503	64.96
678.83	65.13
679.157	65.08
679.484	65.12
679.81	65.18
680.137	65.3
680.464	65.41
680.791	65.21
681.117	65.23
681.444	65.37
681.771	65.18
682.097	65.19
682.424	65.18
682.75	65.35
683.077	65.38
683.403	65.46
683.729	65.42
684.056	65.4
684.382	65.43
684.708	65.38
685.034	65.47
685.36	65.46
685.686	65.42
686.012	65.44
686.339	65.62
686.664	65.74
686.99	65.64
687.316	65.6
687.642	65.81
687.968	65.66
688.294	65.52
688.619	65.8
688.945	65.72
689.271	65.65
689.596	65.58
689.922	65.4
690.247	65.34
690.573	65.38
690.898	65.42
691.224	65.61
691.549	65.54
691.874	65.49
692.2	65.56
692.525	65.52
692.85	65.62
693.175	65.59
693.5	65.51
693.825	65.65
694.15	65.79
694.475	65.67
694.8	65.73
695.125	65.75
695.45	65.77
695.775	65.96
696.099	65.93
696.424	65.96
696.749	66.03
697.073	66.04
697.398	65.99
697.723	66.02
698.047	65.95
698.372	65.98
698.696	65.94
699.02	65.93
699.345	65.85
699.669	65.76
699.993	65.74
700.318	65.77
700.642	65.84
700.966	65.82
701.29	65.87
701.614	66
701.938	65.93
702.262	65.84
702.586	65.56
702.91	65.62
703.234	65.65
703.557	65.81
703.881	65.69
704.205	65.77
704.529	65.85
704.852	65.8
705.176	66.05
705.499	66.12
705.823	66.14
706.146	66.57
706.47	66.71
706.793	66.51
707.117	66.41
707.44	66.53
707.763	66.29
708.086	66.3
708.409	66.32
708.733	66.54
709.056	66.43
709.379	66.65
709.702	66.48
710.025	66.51
710.348	66.36
710.671	66.52
710.993	66.42
711.316	66.36
711.639	66.17
711.962	66.06
712.284	66.18
712.607	66.25
712.93	66.13
713.252	65.97
713.575	66.05
713.897	66.16
714.22	65.99
714.542	66.23
714.864	66.29
715.187	66.36
715.509	66.33
715.831	66.57
716.153	66.51
716.475	66.81
716.798	66.78
717.12	66.9
717.442	66.82
717.764	66.95
718.085	66.82
718.407	67.18
718.729	67.21
719.051	66.91
719.373	66.68
719.695	66.54
720.016	66.9
720.338	66.93
720.659	66.97
720.981	66.84
721.302	66.59
721.624	66.48
721.945	66.29
722.267	66.38
722.588	66.21
722.909	66.37
723.231	66.17
723.552	66.03
723.873	66.12
724.194	66.28
724.515	65.99
724.836	66.2
725.157	66.03
725.478	65.92
725.799	65.96
726.12	66.04
726.441	66
726.762	66.02
727.083	65.93
727.403	65.98
727.724	66.23
728.045	66.42
728.365	66.44
728.686	66.2
729.006	66.18
729.327	66.29
729.647	66.28
729.967	66.16
730.288	66.32
730.608	66.34
730.928	66.41
731.249	66.45
731.569	66.65
731.889	66.88
732.209	67.03
732.529	67.18
732.849	67.34
733.169	67.43
733.489	67.51
733.809	67.75
734.129	67.93
734.448	67.69
734.768	67.64
735.088	67.92
735.408	68.25
735.727	68.44
736.047	68.46
736.366	68.36
736.686	68.71
737.005	68.35
737.325	68.3
737.644	68.23
737.963	68.56
738.283	68.37
738.602	68.25
738.921	67.99
739.24	67.8
739.56	67.65
739.879	67.34
740.198	67.19
740.517	66.98
740.836	66.85
741.155	67.14
741.473	67.36
741.792	67.06
742.111	67.12
742.43	66.77
742.748	66.85
743.067	66.77
743.386	66.58
743.704	66.77
744.023	66.73
744.341	66.63
744.66	66.53
744.978	66.6
745.297	66.6
745.615	66.9
745.933	66.98
746.252	67.2
746.57	67.53
746.888	67.6
747.206	67.84
747.524	68.23
747.842	68.11
748.16	67.68
748.478	67.82
748.796	67.75
749.114	68.09
749.432	67.9
749.749	68.01
750.067	68.17
750.385	68.34
750.703	68.34
751.02	68.28
751.338	68.39
751.655	68.38
751.973	68.29
752.29	68.48
752.608	68.76
752.925	68.75
753.242	68.98
753.56	68.56
753.877	68.23
754.194	67.87
754.511	68.16
754.828	68.6
755.145	68.62
755.462	68.87
755.779	68.7
756.096	68.79
756.413	68.64
756.73	68.47
757.047	68.69
757.364	68.85
757.68	68.94
757.997	68.79
758.314	68.69
758.63	68.86
758.947	68.39
759.264	68.16
759.58	68.25
759.896	67.92
760.213	67.88
760.529	67.94
760.846	67.62
761.162	67.56
761.478	67.52
761.794	67.34
762.11	67.28
762.426	67.13
762.743	67.05
763.059	67.33
763.375	67.08
763.69	66.93
764.006	67.03
764.322	67.24
764.638	67.22
764.954	67.08
765.27	67.07
765.585	67.32
765.901	67.19
766.216	66.8
766.532	67.02
766.848	67.3
767.163	67.42
767.478	67.47
767.794	67.19
768.109	67.03
768.424	67.4
768.74	67.15
769.055	67.25
769.37	67.58
769.685	67.48
770	68
770.315	68.42
770.63	68.14
770.945	68.05
771.26	68.17
771.575	68.4
771.89	68.47
772.205	68.48
772.52	68.73
772.834	69.68
773.149	69.7
773.464	69.52
773.778	69.41
774.093	69.64
774.407	70.02
774.722	69.95
775.036	69.98
775.351	70.59
775.665	70.77
775.979	70.12
776.293	70.25
776.608	70.14
776.922	70.03
777.236	70.08
777.55	70.32
777.864	70.23
778.178	69.88
778.492	69.61
778.806	69.39
779.12	69.22
779.434	68.42
779.747	68.39
780.061	68.71
780.375	69.03
780.689	68.85
781.002	68.74
781.316	68.74
781.629	68.25
781.943	67.88
782.256	67.58
782.57	68.08
782.883	67.98
783.196	68.15
783.51	67.8
783.823	68.14
784.136	68.04
784.449	67.91
784.762	68.29
785.075	68.31
785.388	68.28
785.701	68.59
786.014	68.64
786.327	67.96
786.64	67.81
786.953	67.69
787.266	68.16
787.578	68.25
787.891	68.44
788.204	68.74
788.516	68.76
788.829	69.04
789.141	68.66
789.454	68.71
789.766	68.68
790.079	68.67
790.391	68.25
790.703	67.58
791.016	67.83
791.328	68
791.64	67.96
791.952	67.98
792.264	68.09
792.576	67.82
792.888	68.25
793.2	68.16
793.512	68.03
793.824	67.7
794.136	67.35
794.448	67.28
794.76	67.25
795.071	67.6
795.383	67.33
795.695	67.42
796.006	67.35
796.318	67.49
796.629	67.84
796.941	68.11
797.252	68.53
797.564	68.77
797.875	69.18
798.186	69.62
798.497	70.16
798.809	70.28
799.12	70.87
799.431	71.28
799.742	71.11
800.053	71.44
800.364	71.36
800.675	71.43
800.986	71.51
801.297	71.41
801.608	70.85
801.918	70.9
802.229	71.32
802.54	71.1
802.851	70.9
803.161	70.65
803.472	70.48
803.782	70.67
804.093	70.56
804.403	69.81
804.714	69.4
805.024	68.92
805.334	68.94
805.645	68.74
805.955	68.41
806.265	68.85
806.575	69.32
806.885	69.74
807.195	69.85
807.505	69.68
807.815	70.14
808.125	70.04
808.435	70.11
808.745	70.24
809.055	70.58
809.365	70.28
809.674	70.14
809.984	70.17
810.294	69.57
810.603	69.64
810.913	69.75
811.222	69.69
811.532	70.19
811.841	69.97
812.151	70.49
812.46	70
812.769	70.46
813.079	69.48
813.388	69.79
813.697	70.25
814.006	71
814.315	70.74
814.624	70.13
814.933	70.26
815.242	69.77
815.551	70.03
815.86	70.44
816.169	70.63
816.478	70
816.786	70.86
817.095	70.78
817.404	70.38
817.712	70.77
818.021	70.6
818.33	70.27
818.638	70.33
818.947	70.61
819.255	69.74
819.563	70.52
819.872	69.84
820.18	69.79
820.488	69.98
820.796	69.67
821.105	70.57
821.413	70.57
821.721	70.51
822.029	70.39
822.337	70.38
822.645	70.42
822.953	70.7
823.26	70.36
823.568	70.26
823.876	70.35
824.184	70.29
824.491	70.15
824.799	70.3
825.107	70.13
825.414	70.25
825.722	70.59
826.029	70.31
826.337	70.57
826.644	70.49
826.951	70.26
827.259	70.43
827.566	70.19
827.873	70.17
828.18	70.35
828.488	70.44
828.795	70.44
829.102	70.53
829.409	70.76
829.716	71.31
830.023	71.26
830.329	71.44
830.636	71.54
830.943	71.89
831.25	72.03
831.557	71.94
831.863	71.66
832.17	71.1
832.476	71.41
832.783	71.48
833.089	71.64
833.396	71.63
833.702	71.54
834.009	71.63
834.315	71.89
834.621	71.66
834.928	71.42
835.234	71.55
835.54	71.38
835.846	70.63
836.152	70.45
836.458	70.42
836.764	70.21
837.07	69.94
837.376	69.82
837.682	69.18
837.988	69.43
838.293	70.09
838.599	70.8
838.905	70
839.211	69.49
839.516	69.2
839.822	69.79
840.127	69.72
840.433	69.24
840.738	69.08
841.044	69.01
841.349	69.19
841.654	68.93
841.959	69.34
842.265	69.64
842.57	69.25
842.875	70.38
843.18	71.1
843.485	71.99
843.79	71.31
844.095	72.17
844.4	71.37
844.705	71.01
845.01	70.21
845.315	71.76
845.619	72.1
845.924	72.94
846.229	71.68
846.533	71.95
846.838	72.94
847.142	72.01
847.447	70.98
847.751	71.41
848.056	71.78
848.36	70.48
848.664	70.26
848.969	71.46
849.273	69.64
849.577	67.9
849.881	65.4
850.185	65.12
850.489	64.49
850.794	65.9
851.097	65.88
851.401	67.64
851.705	67.27
852.009	66.24
852.313	64.75
852.617	63.92
852.92	65.23
853.224	63.88
853.528	64.93
853.831	65.7
854.135	64.8
854.438	65.32
854.742	64.78
855.045	66.02
855.349	66.52
855.652	66.31
855.955	65.06
856.259	66.49
856.562	68.64
856.865	67.81
857.168	67.59
857.471	68.39
857.774	66.54
858.077	64.07
858.38	66.16
858.683	66.74
858.986	68.47
859.289	67.37
859.592	67.47
859.894	67.11
860.197	67.3
860.5	67.98
860.802	66.24
861.105	67.73
861.407	68.23
861.71	66.24
862.012	68.06
862.315	71.38
862.617	71.97
862.919	71.82
863.222	75.13
863.524	76.28
863.826	75.53
864.128	74.11
864.43	75.34
864.732	73.1
865.034	73.65
865.336	71.29
865.638	70.23
865.94	68.42
866.242	68.38
866.544	69.95
866.846	68.34
867.147	68.23
867.449	66.79
867.751	66.03
868.052	68.34
868.354	70.01
868.655	68.03
868.957	67.32
869.258	66.46
869.56	65.71
869.861	64.68
870.162	63.56
870.463	64.75
870.765	67.04
871.066	69.25
871.367	69.11
871.668	70.28
871.969	70.41
872.27	71.03
872.571	71.77
872.872	70.83
873.173	71.82
873.473	72.66
873.774	74.81
874.075	73.71
874.376	72.03
874.676	67.89
874.977	67.76
875.277	68.92
875.578	72.06
875.878	70.95
876.179	71.69
876.479	72.11
876.78	72.03
877.08	70.53
877.38	68.57
877.68	69.18
877.981	70.42
878.281	72.05
878.581	73.18
