Data from BA56813_Reflection_00010.txt Node
Date: Mon Nov 18 15:51:00 EST 2019
User: vgr7
Spectrometer: USB2G7710
Scans to average: 3
Trigger mode: 4
Integration Time (sec): 2.000000E-2
Electric dark correction enabled: true
Boxcar width: 10
XAxis mode: Wavelengths
Number of Pixels in Spectrum: 2048
>>>>>Begin Spectral Data<<<<<
177.721	173.14
178.105	170.67
178.488	301.25
178.871	168.6
179.254	136.3
179.636	59.02
180.019	547.24
180.402	38.46
180.785	6.47
181.168	164.04
181.55	98.28
181.933	140.21
182.316	130.8
182.698	135.73
183.081	144.68
183.463	119.68
183.846	153.85
184.228	99.63
184.611	97.61
184.993	99.62
185.376	79.73
185.758	141.18
186.14	104.44
186.522	133.32
186.904	131.3
187.287	108.37
187.669	86.59
188.051	112.48
188.433	127.86
188.815	190.91
189.197	157.12
189.579	158.56
189.961	80.92
190.342	58.49
190.724	90.68
191.106	210.19
191.488	-612.57
191.869	-171.35
192.251	-271.94
192.633	-172.41
193.014	-792.22
193.396	-558.86
193.777	-774.35
194.159	-2289.47
194.54	-536.89
194.922	-1061.07
195.303	-177.11
195.684	-184.45
196.065	-55.06
196.447	-40.9
196.828	-7.24
197.209	5.66
197.59	-1.96
197.971	9.86
198.352	32.79
198.733	20.2
199.114	13.67
199.495	46.62
199.876	56.94
200.257	53.91
200.638	28.37
201.018	26.33
201.399	21.61
201.78	42.26
202.16	56.06
202.541	57.77
202.922	10.99
203.302	-2.58
203.683	18.4
204.063	-39.28
204.444	-131.68
204.824	-138.54
205.204	-110.05
205.585	-73.68
205.965	-117.81
206.345	-1739.16
206.725	642.86
207.106	298.71
207.486	237.38
207.866	248.46
208.246	246.24
208.626	287.43
209.006	223.15
209.386	317.22
209.766	446.78
210.145	667.08
210.525	-2432.85
210.905	-516.22
211.285	-1144.9
211.664	-3645.76
212.044	-6728.57
212.424	-365.48
212.803	4804.92
213.183	-1539.59
213.562	-832.01
213.942	-374.88
214.321	-91.98
214.701	-77.82
215.08	-61.64
215.459	-70.64
215.838	-34.63
216.218	-53.63
216.597	-42.04
216.976	-43.82
217.355	-19.19
217.734	-36.85
218.113	-29.85
218.492	-27.36
218.871	-16.56
219.25	-15.09
219.629	-25.33
220.008	-19.46
220.387	-22.62
220.766	-2.48
221.144	-11.98
221.523	-16.1
221.902	-28.82
222.28	-50.26
222.659	-44.68
223.037	-34.77
223.416	-29.75
223.794	-34
224.173	-21.75
224.551	-21.74
224.929	-24.14
225.308	-13.08
225.686	-7.61
226.064	-3.39
226.442	-11.22
226.821	-10.06
227.199	-9.13
227.577	-8.91
227.955	-11.62
228.333	-16.09
228.711	-16.52
229.089	-8.16
229.467	-11
229.845	-10.97
230.222	-8.98
230.6	-6.82
230.978	-8.36
231.356	-6.19
231.733	-4.89
232.111	-2.5
232.488	-1.53
232.866	-0.18
233.243	-0.46
233.621	0.38
233.998	1.98
234.376	3.91
234.753	3.69
235.13	4.48
235.508	3.98
235.885	6.13
236.262	7.16
236.639	7.52
237.016	4.74
237.393	6.38
237.77	7.45
238.147	8.25
238.524	7.64
238.901	8.4
239.278	7.23
239.655	6.93
240.032	6.34
240.409	5.79
240.785	5.63
241.162	5.29
241.539	5.42
241.915	5.08
242.292	4.53
242.668	4.33
243.045	3.72
243.421	3.41
243.798	3.38
244.174	3.4
244.551	3.29
244.927	3.28
245.303	3.35
245.679	3.36
246.056	3.18
246.432	3.35
246.808	3.2
247.184	2.99
247.56	2.96
247.936	2.9
248.312	2.94
248.688	3.06
249.064	3.19
249.44	2.91
249.815	2.85
250.191	3.09
250.567	3.26
250.943	3.49
251.318	3.79
251.694	3.9
252.069	4.05
252.445	4.26
252.82	4.39
253.196	4.32
253.571	4.26
253.947	4.22
254.322	4.39
254.697	4.36
255.073	4.54
255.448	4.33
255.823	4.35
256.198	4.39
256.573	4.43
256.948	4.49
257.323	4.66
257.698	4.54
258.073	4.42
258.448	4.18
258.823	4.1
259.198	3.89
259.573	3.75
259.948	3.68
260.322	3.7
260.697	3.57
261.072	3.53
261.446	3.44
261.821	3.56
262.195	3.53
262.57	3.51
262.944	3.45
263.319	3.39
263.693	3.38
264.067	3.4
264.442	3.38
264.816	3.11
265.19	3.07
265.564	3.05
265.938	3.02
266.313	3.11
266.687	3.24
267.061	3.4
267.435	3.68
267.809	3.7
268.183	3.67
268.556	3.81
268.93	3.87
269.304	3.9
269.678	3.78
270.051	3.63
270.425	3.69
270.799	3.84
271.172	3.88
271.546	3.9
271.919	3.81
272.293	3.77
272.666	3.76
273.04	3.74
273.413	3.74
273.787	3.74
274.16	3.63
274.533	3.47
274.906	3.47
275.279	3.16
275.653	3.28
276.026	3.21
276.399	3.21
276.772	3.18
277.145	3.2
277.518	3.23
277.891	3.35
278.263	3.19
278.636	3.03
279.009	3.04
279.382	3.09
279.755	3.11
280.127	3.21
280.5	3.23
280.872	3.23
281.245	3.28
281.617	3.25
281.99	3.37
282.362	3.54
282.735	3.39
283.107	3.47
283.479	3.32
283.852	3.42
284.224	3.41
284.596	3.4
284.968	3.42
285.34	3.49
285.713	3.3
286.085	3.38
286.457	3.41
286.829	3.42
287.201	3.3
287.572	3.22
287.944	3.13
288.316	3.22
288.688	3.23
289.06	3.15
289.431	3.23
289.803	3.19
290.175	3.02
290.546	3.18
290.918	3.23
291.289	3.31
291.661	3.27
292.032	3.34
292.403	3.37
292.775	3.36
293.146	3.3
293.517	3.35
293.889	3.44
294.26	3.51
294.631	3.47
295.002	3.58
295.373	3.57
295.744	3.55
296.115	3.59
296.486	3.57
296.857	3.64
297.228	3.64
297.599	3.57
297.97	3.65
298.34	3.64
298.711	3.72
299.082	3.76
299.452	3.79
299.823	3.86
300.194	3.83
300.564	3.78
300.935	3.85
301.305	3.94
301.676	3.98
302.046	3.97
302.416	4.05
302.787	4.04
303.157	4.19
303.527	4.19
303.897	4.12
304.267	4.16
304.637	4.25
305.008	4.26
305.378	4.42
305.748	4.59
306.117	4.58
306.487	4.49
306.857	4.45
307.227	4.41
307.597	4.47
307.967	4.51
308.336	4.64
308.706	4.51
309.076	4.56
309.445	4.3
309.815	4.24
310.184	4.36
310.554	4.42
310.923	4.47
311.293	4.43
311.662	4.39
312.031	4.41
312.401	4.37
312.77	4.39
313.139	4.46
313.508	4.29
313.877	4.19
314.246	4.15
314.616	4.15
314.985	4.25
315.353	3.98
315.722	4.02
316.091	4.02
316.46	4.08
316.829	4.06
317.198	4.21
317.567	4.3
317.935	4.18
318.304	4.22
318.672	4.18
319.041	4.41
319.41	4.44
319.778	4.59
320.147	4.65
320.515	4.62
320.883	4.45
321.252	4.58
321.62	4.65
321.988	4.68
322.357	4.79
322.725	4.7
323.093	4.92
323.461	4.9
323.829	4.88
324.197	4.87
324.565	4.8
324.933	4.89
325.301	4.96
325.669	4.91
326.037	4.86
326.405	4.93
326.772	4.91
327.14	5.03
327.508	4.93
327.875	4.79
328.243	4.81
328.61	4.95
328.978	4.9
329.346	5.09
329.713	4.98
330.08	4.93
330.448	4.8
330.815	4.65
331.182	4.59
331.55	4.58
331.917	4.72
332.284	4.83
332.651	4.8
333.018	4.72
333.385	4.78
333.752	4.87
334.119	4.8
334.486	4.74
334.853	4.65
335.22	4.69
335.587	4.77
335.954	4.72
336.32	4.56
336.687	4.56
337.054	4.49
337.42	4.66
337.787	4.63
338.153	4.72
338.52	4.84
338.886	4.86
339.253	4.79
339.619	4.74
339.986	4.73
340.352	4.85
340.718	4.85
341.084	4.85
341.451	4.87
341.817	4.93
342.183	4.92
342.549	4.96
342.915	4.98
343.281	5.05
343.647	5.05
344.013	5.16
344.379	5.12
344.745	5.08
345.11	5.06
345.476	5.11
345.842	5.13
346.208	5.11
346.573	5.13
346.939	5.21
347.304	5.13
347.67	5.05
348.035	4.94
348.401	4.92
348.766	4.91
349.132	4.91
349.497	4.9
349.862	4.97
350.228	4.93
350.593	4.88
350.958	4.8
351.323	4.84
351.688	4.79
352.053	4.84
352.418	4.84
352.783	4.94
353.148	4.92
353.513	4.96
353.878	4.92
354.243	4.97
354.608	4.96
354.972	4.97
355.337	5.05
355.702	5.08
356.066	5.18
356.431	5.22
356.795	5.23
357.16	5.2
357.524	5.08
357.889	5.04
358.253	5.06
358.618	5.16
358.982	5.12
359.346	5.04
359.71	5.06
360.075	5.14
360.439	5.09
360.803	5.08
361.167	5.05
361.531	5.09
361.895	5.03
362.259	5.02
362.623	5.06
362.987	5.05
363.351	5.05
363.714	5.04
364.078	5
364.442	4.93
364.806	4.95
365.169	4.95
365.533	5.02
365.896	5.02
366.26	4.92
366.623	4.95
366.987	5.04
367.35	5.05
367.714	4.94
368.077	4.93
368.44	4.98
368.803	4.94
369.167	4.94
369.53	4.93
369.893	4.94
370.256	4.95
370.619	4.89
370.982	4.84
371.345	4.81
371.708	4.78
372.071	4.81
372.434	4.74
372.797	4.76
373.159	4.74
373.522	4.76
373.885	4.77
374.247	4.78
374.61	4.74
374.973	4.68
375.335	4.7
375.698	4.69
376.06	4.61
376.423	4.64
376.785	4.63
377.147	4.64
377.51	4.59
377.872	4.58
378.234	4.6
378.596	4.62
378.958	4.57
379.321	4.54
379.683	4.5
380.045	4.47
380.407	4.45
380.769	4.38
381.13	4.29
381.492	4.26
381.854	4.21
382.216	4.21
382.578	4.21
382.939	4.13
383.301	4.04
383.663	4.07
384.024	4.02
384.386	4
384.747	4.01
385.109	4.02
385.47	3.96
385.832	3.94
386.193	3.9
386.554	3.93
386.916	3.92
387.277	3.9
387.638	3.92
387.999	3.9
388.36	3.95
388.721	3.98
389.082	3.95
389.443	3.95
389.804	3.91
390.165	3.92
390.526	3.92
390.887	3.94
391.248	3.95
391.609	3.95
391.969	3.94
392.33	3.87
392.691	3.85
393.051	3.87
393.412	3.85
393.772	3.83
394.133	3.8
394.493	3.79
394.854	3.79
395.214	3.76
395.574	3.76
395.935	3.69
396.295	3.72
396.655	3.67
397.015	3.66
397.376	3.65
397.736	3.6
398.096	3.62
398.456	3.6
398.816	3.54
399.176	3.5
399.535	3.46
399.895	3.46
400.255	3.45
400.615	3.41
400.975	3.35
401.334	3.33
401.694	3.35
402.054	3.35
402.413	3.35
402.773	3.34
403.132	3.36
403.492	3.36
403.851	3.3
404.211	3.34
404.57	3.33
404.929	3.36
405.288	3.36
405.648	3.35
406.007	3.37
406.366	3.37
406.725	3.4
407.084	3.41
407.443	3.41
407.802	3.41
408.161	3.42
408.52	3.43
408.879	3.44
409.238	3.44
409.596	3.43
409.955	3.41
410.314	3.39
410.673	3.34
411.031	3.33
411.39	3.33
411.748	3.3
412.107	3.3
412.465	3.27
412.824	3.23
413.182	3.19
413.54	3.18
413.899	3.18
414.257	3.17
414.615	3.16
414.974	3.17
415.332	3.14
415.69	3.13
416.048	3.14
416.406	3.13
416.764	3.12
417.122	3.11
417.48	3.1
417.838	3.11
418.195	3.12
418.553	3.11
418.911	3.1
419.269	3.09
419.626	3.08
419.984	3.08
420.342	3.09
420.699	3.09
421.057	3.08
421.414	3.06
421.772	3.03
422.129	3.02
422.486	3.01
422.844	3.02
423.201	3.02
423.558	3
423.915	2.99
424.273	2.98
424.63	2.97
424.987	2.97
425.344	2.96
425.701	2.95
426.058	2.93
426.415	2.94
426.772	2.94
427.128	2.94
427.485	2.93
427.842	2.94
428.199	2.95
428.555	2.94
428.912	2.96
429.269	2.96
429.625	2.96
429.982	2.95
430.338	2.95
430.695	2.94
431.051	2.95
431.407	2.95
431.764	2.96
432.12	2.95
432.476	2.93
432.832	2.92
433.189	2.91
433.545	2.9
433.901	2.89
434.257	2.89
434.613	2.89
434.969	2.88
435.325	2.86
435.681	2.85
436.036	2.83
436.392	2.83
436.748	2.83
437.104	2.83
437.459	2.81
437.815	2.82
438.171	2.81
438.526	2.8
438.882	2.82
439.237	2.83
439.593	2.83
439.948	2.84
440.304	2.86
440.659	2.86
441.014	2.89
441.369	2.88
441.725	2.85
442.08	2.85
442.435	2.88
442.79	2.88
443.145	2.88
443.5	2.89
443.855	2.89
444.21	2.89
444.565	2.9
444.92	2.91
445.275	2.89
445.629	2.9
445.984	2.9
446.339	2.88
446.693	2.86
447.048	2.84
447.403	2.84
447.757	2.83
448.112	2.82
448.466	2.8
448.82	2.81
449.175	2.83
449.529	2.83
449.883	2.81
450.238	2.81
450.592	2.83
450.946	2.81
451.3	2.81
451.654	2.79
452.008	2.78
452.362	2.77
452.716	2.76
453.07	2.77
453.424	2.78
453.778	2.77
454.132	2.78
454.486	2.79
454.839	2.78
455.193	2.76
455.547	2.76
455.9	2.77
456.254	2.77
456.607	2.78
456.961	2.78
457.314	2.77
457.668	2.75
458.021	2.73
458.375	2.75
458.728	2.75
459.081	2.76
459.434	2.76
459.787	2.76
460.141	2.77
460.494	2.76
460.847	2.76
461.2	2.76
461.553	2.76
461.906	2.77
462.259	2.77
462.611	2.8
462.964	2.8
463.317	2.79
463.67	2.79
464.022	2.78
464.375	2.76
464.728	2.77
465.08	2.79
465.433	2.79
465.785	2.79
466.138	2.79
466.49	2.81
466.843	2.81
467.195	2.8
467.547	2.81
467.899	2.82
468.252	2.8
468.604	2.82
468.956	2.81
469.308	2.8
469.66	2.8
470.012	2.79
470.364	2.8
470.716	2.8
471.068	2.81
471.42	2.81
471.772	2.83
472.123	2.84
472.475	2.84
472.827	2.85
473.178	2.85
473.53	2.84
473.882	2.83
474.233	2.84
474.585	2.83
474.936	2.83
475.288	2.85
475.639	2.85
475.99	2.84
476.342	2.85
476.693	2.85
477.044	2.86
477.395	2.87
477.746	2.86
478.097	2.87
478.448	2.87
478.8	2.86
479.15	2.85
479.501	2.86
479.852	2.85
480.203	2.85
480.554	2.85
480.905	2.85
481.255	2.86
481.606	2.86
481.957	2.88
482.307	2.87
482.658	2.87
483.009	2.87
483.359	2.87
483.709	2.89
484.06	2.88
484.41	2.88
484.761	2.88
485.111	2.88
485.461	2.88
485.811	2.89
486.162	2.89
486.512	2.89
486.862	2.89
487.212	2.9
487.562	2.9
487.912	2.9
488.262	2.91
488.612	2.9
488.961	2.89
489.311	2.89
489.661	2.9
490.011	2.9
490.36	2.9
490.71	2.91
491.06	2.9
491.409	2.91
491.759	2.91
492.108	2.92
492.458	2.92
492.807	2.92
493.157	2.92
493.506	2.93
493.855	2.93
494.204	2.93
494.554	2.93
494.903	2.93
495.252	2.93
495.601	2.93
495.95	2.95
496.299	2.96
496.648	2.98
496.997	2.97
497.346	2.97
497.695	2.99
498.043	2.98
498.392	2.98
498.741	2.98
499.09	2.98
499.438	3
499.787	3.01
500.135	3.01
500.484	3.03
500.832	3.04
501.181	3.06
501.529	3.1
501.878	3.12
502.226	3.14
502.574	3.16
502.923	3.2
503.271	3.23
503.619	3.23
503.967	3.24
504.315	3.28
504.663	3.31
505.011	3.3
505.359	3.35
505.707	3.4
506.055	3.43
506.403	3.46
506.751	3.49
507.098	3.54
507.446	3.59
507.794	3.6
508.141	3.65
508.489	3.67
508.837	3.7
509.184	3.72
509.531	3.74
509.879	3.77
510.226	3.79
510.574	3.83
510.921	3.86
511.268	3.92
511.616	3.95
511.963	3.99
512.31	4.06
512.657	4.12
513.004	4.17
513.351	4.24
513.698	4.33
514.045	4.4
514.392	4.47
514.739	4.54
515.086	4.64
515.432	4.72
515.779	4.78
516.126	4.84
516.473	4.94
516.819	5.04
517.166	5.13
517.512	5.21
517.859	5.29
518.205	5.38
518.552	5.47
518.898	5.56
519.245	5.63
519.591	5.71
519.937	5.78
520.283	5.89
520.629	6.01
520.976	6.11
521.322	6.25
521.668	6.36
522.014	6.48
522.36	6.59
522.706	6.74
523.052	6.93
523.398	7.13
523.743	7.32
524.089	7.52
524.435	7.73
524.781	7.9
525.126	8.09
525.472	8.25
525.817	8.41
526.163	8.57
526.509	8.71
526.854	8.86
527.199	8.99
527.545	9.11
527.89	9.22
528.235	9.35
528.581	9.49
528.926	9.63
529.271	9.77
529.616	9.91
529.961	10.06
530.306	10.22
530.651	10.36
530.996	10.53
531.341	10.69
531.686	10.87
532.031	11.07
532.376	11.26
532.721	11.45
533.065	11.63
533.41	11.83
533.755	12.06
534.099	12.29
534.444	12.52
534.788	12.74
535.133	12.96
535.477	13.2
535.822	13.44
536.166	13.71
536.51	14.02
536.855	14.36
537.199	14.68
537.543	14.98
537.887	15.31
538.231	15.64
538.576	15.99
538.92	16.3
539.264	16.6
539.608	16.87
539.951	17.18
540.295	17.48
540.639	17.75
540.983	18
541.327	18.24
541.671	18.51
542.014	18.76
542.358	19.01
542.701	19.24
543.045	19.47
543.389	19.72
543.732	19.96
544.075	20.2
544.419	20.45
544.762	20.73
545.105	21.02
545.449	21.31
545.792	21.58
546.135	21.88
546.478	22.22
546.821	22.58
547.165	22.89
547.508	23.24
547.851	23.59
548.194	23.95
548.536	24.31
548.879	24.64
549.222	24.98
549.565	25.35
549.908	25.72
550.25	26.1
550.593	26.47
550.936	26.79
551.278	27.15
551.621	27.5
551.963	27.84
552.306	28.15
552.648	28.48
552.991	28.86
553.333	29.2
553.675	29.5
554.017	29.83
554.36	30.17
554.702	30.46
555.044	30.76
555.386	31.05
555.728	31.36
556.07	31.72
556.412	32
556.754	32.33
557.096	32.67
557.438	32.99
557.78	33.33
558.121	33.69
558.463	34
558.805	34.34
559.147	34.66
559.488	34.93
559.83	35.21
560.171	35.47
560.513	35.78
560.854	36.06
561.196	36.34
561.537	36.61
561.878	36.93
562.22	37.23
562.561	37.5
562.902	37.73
563.243	37.91
563.584	38.22
563.925	38.48
564.266	38.68
564.607	38.95
564.948	39.08
565.289	39.25
565.63	39.45
565.971	39.62
566.312	39.81
566.653	40.08
566.993	40.29
567.334	40.49
567.675	40.68
568.015	40.92
568.356	41.07
568.696	41.29
569.037	41.41
569.377	41.58
569.718	41.74
570.058	42
570.398	42.25
570.739	42.45
571.079	42.63
571.419	42.86
571.759	43
572.099	43.21
572.439	43.4
572.779	43.57
573.119	43.71
573.459	43.92
573.799	44.14
574.139	44.3
574.479	44.51
574.819	44.65
575.158	44.77
575.498	44.96
575.838	45.08
576.177	45.3
576.517	45.44
576.856	45.7
577.196	45.78
577.535	45.92
577.875	46.02
578.214	46.15
578.553	46.29
578.893	46.48
579.232	46.68
579.571	46.86
579.91	47.06
580.25	47.26
580.589	47.39
580.928	47.46
581.267	47.68
581.606	47.79
581.945	47.87
582.283	48.07
582.622	48.27
582.961	48.43
583.3	48.54
583.639	48.74
583.977	48.79
584.316	48.98
584.654	49.1
584.993	49.23
585.332	49.39
585.67	49.47
586.008	49.55
586.347	49.68
586.685	49.81
587.024	49.9
587.362	50.01
587.7	50.18
588.038	50.34
588.376	50.38
588.715	50.55
589.053	50.73
589.391	50.84
589.729	51.01
590.067	51.11
590.404	51.22
590.742	51.27
591.08	51.38
591.418	51.5
591.756	51.61
592.093	51.77
592.431	51.87
592.769	52.06
593.106	52.16
593.444	52.22
593.781	52.28
594.119	52.33
594.456	52.47
594.793	52.47
595.131	52.56
595.468	52.72
595.805	52.74
596.143	52.8
596.48	52.85
596.817	52.88
597.154	53.02
597.491	53.16
597.828	53.28
598.165	53.41
598.502	53.51
598.839	53.62
599.176	53.69
599.512	53.81
599.849	53.9
600.186	54.02
600.523	54.08
600.859	54.28
601.196	54.41
601.532	54.46
601.869	54.59
602.205	54.55
602.542	54.6
602.878	54.63
603.215	54.72
603.551	54.82
603.887	54.83
604.223	54.86
604.56	54.91
604.896	55.01
605.232	55.07
605.568	55.08
605.904	55.07
606.24	55.12
606.576	55.1
606.912	55.21
607.248	55.24
607.583	55.39
607.919	55.37
608.255	55.44
608.591	55.55
608.926	55.64
609.262	55.75
609.597	55.81
609.933	55.91
610.268	55.99
610.604	56.05
610.939	56.17
611.275	56.2
611.61	56.18
611.945	56.2
612.281	56.17
612.616	56.22
612.951	56.39
613.286	56.53
613.621	56.62
613.956	56.55
614.291	56.65
614.626	56.64
614.961	56.73
615.296	56.82
615.631	56.87
615.966	56.92
616.3	57.05
616.635	57.11
616.97	57.18
617.304	57.23
617.639	57.27
617.973	57.26
618.308	57.32
618.642	57.41
618.977	57.41
619.311	57.5
619.646	57.59
619.98	57.61
620.314	57.62
620.648	57.75
620.983	57.82
621.317	57.94
621.651	58.05
621.985	58.11
622.319	58.07
622.653	58.04
622.987	58.06
623.321	58.03
623.655	58.03
623.988	58.08
624.322	58.03
624.656	58.03
624.99	58.14
625.323	58.18
625.657	58.28
625.99	58.41
626.324	58.48
626.657	58.48
626.991	58.54
627.324	58.62
627.658	58.62
627.991	58.66
628.324	58.62
628.657	58.6
628.991	58.6
629.324	58.7
629.657	58.73
629.99	58.78
630.323	58.85
630.656	58.84
630.989	58.92
631.322	59.07
631.655	59.16
631.987	59.18
632.32	59.32
632.653	59.2
632.986	59.08
633.318	59.14
633.651	59.13
633.984	59.22
634.316	59.16
634.649	59.14
634.981	59.15
635.313	59.25
635.646	59.32
635.978	59.33
636.31	59.29
636.643	59.4
636.975	59.35
637.307	59.38
637.639	59.43
637.971	59.42
638.303	59.31
638.635	59.34
638.967	59.31
639.299	59.26
639.631	59.42
639.963	59.58
640.295	59.55
640.626	59.67
640.958	59.53
641.29	59.62
641.621	59.68
641.953	59.72
642.285	59.76
642.616	59.72
642.948	59.74
643.279	59.73
643.61	59.8
643.942	59.95
644.273	59.95
644.604	59.92
644.936	60.08
645.267	60.23
645.598	60.25
645.929	60.16
646.26	60.23
646.591	60.31
646.922	60.27
647.253	60.29
647.584	60.33
647.915	60.4
648.245	60.41
648.576	60.51
648.907	60.69
649.238	60.62
649.568	60.66
649.899	60.76
650.229	60.93
650.56	60.91
650.89	60.9
651.221	61.01
651.551	61.1
651.882	61.03
652.212	61.08
652.542	61.09
652.872	61.29
653.203	61.21
653.533	61.16
653.863	61.33
654.193	61.4
654.523	61.48
654.853	61.6
655.183	61.61
655.513	61.73
655.843	61.62
656.172	61.63
656.502	61.72
656.832	61.69
657.162	61.72
657.491	61.7
657.821	61.69
658.15	61.63
658.48	61.71
658.809	61.67
659.139	61.59
659.468	61.58
659.798	61.48
660.127	61.57
660.456	61.6
660.785	61.61
661.115	61.6
661.444	61.54
661.773	61.52
662.102	61.58
662.431	61.47
662.76	61.47
663.089	61.52
663.418	61.42
663.747	61.49
664.076	61.5
664.404	61.57
664.733	61.59
665.062	61.6
665.39	61.56
665.719	61.66
666.048	61.84
666.376	61.77
666.705	61.9
667.033	61.94
667.362	61.91
667.69	61.89
668.018	61.91
668.347	61.85
668.675	61.87
669.003	61.83
669.331	61.84
669.659	61.87
669.987	61.9
670.315	62.04
670.643	62.06
670.971	62.13
671.299	61.96
671.627	61.92
671.955	62.01
672.283	61.98
672.61	61.96
672.938	61.97
673.266	62.13
673.593	62.11
673.921	62.06
674.249	62.04
674.576	62.1
674.904	62.07
675.231	62.2
675.558	62.19
675.886	62.24
676.213	62.4
676.54	62.47
676.867	62.6
677.195	62.56
677.522	62.46
677.849	62.4
678.176	62.54
678.503	62.57
678.83	62.56
679.157	62.62
679.484	62.65
679.81	62.57
680.137	62.43
680.464	62.5
680.791	62.54
681.117	62.65
681.444	62.63
681.771	62.61
682.097	62.67
682.424	62.78
682.75	62.79
683.077	62.65
683.403	62.64
683.729	62.59
684.056	62.55
684.382	62.6
684.708	62.56
685.034	62.62
685.36	62.64
685.686	62.73
686.012	62.78
686.339	62.8
686.664	62.8
686.99	62.94
687.316	62.91
687.642	62.98
687.968	62.96
688.294	62.85
688.619	63.04
688.945	63.05
689.271	63.04
689.596	63.01
689.922	62.9
690.247	62.9
690.573	62.83
690.898	63.12
691.224	63.31
691.549	63.4
691.874	63.43
692.2	63.5
692.525	63.41
692.85	63.42
693.175	63.5
693.5	63.61
693.825	63.62
694.15	63.61
694.475	63.54
694.8	63.65
695.125	63.76
695.45	63.81
695.775	63.8
696.099	63.82
696.424	63.83
696.749	64.08
697.073	64.14
697.398	64.08
697.723	64
698.047	63.87
698.372	63.9
698.696	63.82
699.02	63.87
699.345	63.89
699.669	63.95
699.993	63.98
700.318	63.95
700.642	64.09
700.966	64.14
701.29	64.21
701.614	64.2
701.938	64.19
702.262	64.13
702.586	64.1
702.91	63.91
703.234	63.87
703.557	63.82
703.881	63.83
704.205	64.01
704.529	63.86
704.852	63.92
705.176	63.97
705.499	63.98
705.823	63.88
706.146	64.11
706.47	64.22
706.793	64.01
707.117	64.01
707.44	64.03
707.763	64.19
708.086	64.15
708.409	64.02
708.733	64.04
709.056	63.96
709.379	63.92
709.702	63.98
710.025	64.01
710.348	63.99
710.671	63.72
710.993	63.73
711.316	63.8
711.639	63.97
711.962	63.85
712.284	63.91
712.607	63.93
712.93	63.84
713.252	63.75
713.575	63.99
713.897	63.98
714.22	63.95
714.542	63.93
714.864	63.85
715.187	63.87
715.509	63.99
715.831	64.07
716.153	64.22
716.475	64.31
716.798	64.37
717.12	64.33
717.442	64.79
717.764	64.84
718.085	64.83
718.407	64.7
718.729	64.64
719.051	64.65
719.373	64.64
719.695	64.45
720.016	64.34
720.338	64.21
720.659	64.25
720.981	64.14
721.302	64.01
721.624	64.36
721.945	64.36
722.267	64.31
722.588	64.22
722.909	64.01
723.231	63.97
723.552	63.99
723.873	64.1
724.194	63.71
724.515	63.52
724.836	63.63
725.157	63.59
725.478	63.87
725.799	64.08
726.12	64.01
726.441	64.06
726.762	64.13
727.083	64.15
727.403	64.28
727.724	64.2
728.045	64.26
728.365	63.96
728.686	64.02
729.006	64.07
729.327	64.11
729.647	64.32
729.967	64.28
730.288	64.43
730.608	64.4
730.928	64.51
731.249	64.55
731.569	64.46
731.889	64.67
732.209	64.7
732.529	64.83
732.849	64.94
733.169	65.02
733.489	65.17
733.809	65.35
734.129	65.06
734.448	65.19
734.768	65.33
735.088	65.49
735.408	65.49
735.727	65.54
736.047	65.77
736.366	65.62
736.686	65.75
737.005	65.85
737.325	65.64
737.644	65.55
737.963	65.62
738.283	65.8
738.602	65.4
738.921	65.39
739.24	65.43
739.56	65.6
739.879	65.61
740.198	65.54
740.517	65.44
740.836	65.68
741.155	65.58
741.473	65.34
741.792	65.3
742.111	65.51
742.43	65.54
742.748	65.31
743.067	65.5
743.386	65.48
743.704	65.16
744.023	65.69
744.341	65.71
744.66	66.1
744.978	66.14
745.297	66.44
745.615	66.38
745.933	66.21
746.252	66.09
746.57	66
746.888	66.11
747.206	65.98
747.524	65.95
747.842	65.9
748.16	66.21
748.478	66.44
748.796	66.3
749.114	66.28
749.432	66.07
749.749	66.03
750.067	66.17
750.385	66.18
750.703	65.89
751.02	66.12
751.338	66.27
751.655	66.01
751.973	65.94
752.29	66.04
752.608	66
752.925	66.05
753.242	65.97
753.56	65.89
753.877	65.9
754.194	66.19
754.511	66.48
754.828	66.31
755.145	66.15
755.462	66.32
755.779	66.18
756.096	66.47
756.413	66.55
756.73	66.48
757.047	66.67
757.364	66.57
757.68	66.59
757.997	66.15
758.314	66.19
758.63	66.3
758.947	66.4
759.264	66.13
759.58	65.96
759.896	66.18
760.213	66.32
760.529	66.28
760.846	65.99
761.162	65.88
761.478	65.84
761.794	65.91
762.11	65.8
762.426	65.79
762.743	65.69
763.059	65.64
763.375	65.56
763.69	65.57
764.006	65.44
764.322	65.36
764.638	65.79
764.954	65.79
765.27	65.54
765.585	65.54
765.901	65.66
766.216	65.84
766.532	65.72
766.848	65.49
767.163	65.46
767.478	65.38
767.794	65.33
768.109	65.24
768.424	65.22
768.74	65.35
769.055	65.4
769.37	65.79
769.685	65.78
770	66.38
770.315	66.28
770.63	66.78
770.945	66.8
771.26	66.07
771.575	66.22
771.89	66.74
772.205	66.45
772.52	66.76
772.834	66.55
773.149	66.73
773.464	66.61
773.778	66.76
774.093	66.77
774.407	66.9
774.722	67.07
775.036	66.97
775.351	66.83
775.665	66.68
775.979	66.33
776.293	65.8
776.608	65.33
776.922	65.48
777.236	65.32
777.55	65.3
777.864	65.73
778.178	65.81
778.492	65.75
778.806	65.53
779.12	64.98
779.434	64.81
779.747	64.65
780.061	64.89
780.375	65.04
780.689	65.05
781.002	65.05
781.316	65.13
781.629	65.31
781.943	65.3
782.256	65.3
782.57	64.89
782.883	65.53
783.196	65.41
783.51	65.23
783.823	65.48
784.136	65.71
784.449	64.9
784.762	64.42
785.075	63.98
785.388	63.91
785.701	63.97
786.014	64.08
786.327	64
786.64	64.09
786.953	64.18
787.266	64.21
787.578	64.12
787.891	64.27
788.204	64.25
788.516	64.16
788.829	64.45
789.141	64.82
789.454	64.74
789.766	64.73
790.079	65
790.391	64.78
790.703	64.82
791.016	65.01
791.328	65.19
791.64	65.13
791.952	65.73
792.264	65.75
792.576	65.99
792.888	65.58
793.2	65.54
793.512	65.42
793.824	65.55
794.136	65.74
794.448	65.17
794.76	64.78
795.071	64.93
795.383	64.68
795.695	64.87
796.006	64.92
796.318	64.97
796.629	64.79
796.941	64.77
797.252	64.8
797.564	64.41
797.875	64.79
798.186	64.85
798.497	64.88
798.809	64.74
799.12	65.08
799.431	66.07
799.742	65.72
800.053	66.23
800.364	66.61
800.675	66.88
800.986	67.46
801.297	67.96
801.608	67.79
801.918	68.34
802.229	68.61
802.54	68.27
802.851	68.2
803.161	68.46
803.472	68.7
803.782	68.65
804.093	69.22
804.403	68.94
804.714	69.37
805.024	68.72
805.334	69.59
805.645	69.43
805.955	69.54
806.265	70.34
806.575	69.91
806.885	69.72
807.195	69.57
807.505	69.05
807.815	68.29
808.125	67.9
808.435	67.53
808.745	66.62
809.055	66.86
809.365	67.31
809.674	67.25
809.984	66.84
810.294	66.68
810.603	66.47
810.913	67
811.222	66.72
811.532	67.36
811.841	67.25
812.151	67.73
812.46	66.55
812.769	65.52
813.079	65.54
813.388	65.56
813.697	65.41
814.006	65.9
814.315	66.26
814.624	66.14
814.933	65.58
815.242	66.23
815.551	66.61
815.86	66.38
816.169	65.84
816.478	66.14
816.786	65.93
817.095	66.64
817.404	66.12
817.712	66.16
818.021	66.08
818.33	66.05
818.638	65.66
818.947	66.3
819.255	66.9
819.563	66.44
819.872	66.52
820.18	66.11
820.488	65.99
820.796	65.92
821.105	66.16
821.413	66.13
821.721	65.96
822.029	65.98
822.337	66.03
822.645	66.11
822.953	66.18
823.26	66.02
823.568	66.03
823.876	66.17
824.184	66.35
824.491	66.36
824.799	66.13
825.107	65.96
825.414	66.07
825.722	65.93
826.029	66.16
826.337	66.36
826.644	66.67
826.951	66.72
827.259	66.72
827.566	66.74
827.873	66.87
828.18	67.26
828.488	67.39
828.795	67.49
829.102	67.53
829.409	67.68
829.716	68.05
830.023	67.93
830.329	67.91
830.636	67.48
830.943	67.43
831.25	67.59
831.557	67.68
831.863	67.25
832.17	67.09
832.476	66.74
832.783	66.18
833.089	65.83
833.396	66.1
833.702	66.45
834.009	66.39
834.315	66.74
834.621	66.41
834.928	66.15
835.234	65.93
835.54	66.08
835.846	65.77
836.152	66.1
836.458	65.5
836.764	65.57
837.07	65.92
837.376	65.67
837.682	66.27
837.988	66.44
838.293	66.77
838.599	67.09
838.905	67.3
839.211	67.74
839.516	67.53
839.822	66.71
840.127	66.79
840.433	67.81
840.738	68.53
841.044	69.64
841.349	69.21
841.654	69.31
841.959	69.11
842.265	68.43
842.57	68.31
842.875	69.4
843.18	68.98
843.485	68.34
843.79	68.75
844.095	68.23
844.4	68.75
844.705	69.88
845.01	69.97
845.315	69.96
845.619	68.61
845.924	69.16
846.229	69.71
846.533	68.77
846.838	66.22
847.142	64.18
847.447	62.48
847.751	64.62
848.056	64.13
848.36	65.03
848.664	66.95
848.969	66.37
849.273	67.88
849.577	68.91
849.881	71.26
850.185	72.12
850.489	72.18
850.794	72.77
851.097	70.58
851.401	71.51
851.705	72.49
852.009	72.71
852.313	74.36
852.617	74.4
852.92	76.29
853.224	77.15
853.528	77.85
853.831	77.31
854.135	76.64
854.438	76.42
854.742	77.1
855.045	77.52
855.349	78.23
855.652	74.91
855.955	77.07
856.259	74.3
856.562	71.79
856.865	73.04
857.168	72.72
857.471	74.6
857.774	73.34
858.077	74.24
858.38	76.01
858.683	73.36
858.986	74.76
859.289	72.37
859.592	73.6
859.894	71.98
860.197	72.96
860.5	71.14
860.802	71.71
861.105	71.5
861.407	70.04
861.71	69.75
862.012	70.4
862.315	68.42
862.617	69.78
862.919	71.18
863.222	70.17
863.524	67.95
863.826	64.73
864.128	66.62
864.43	63.5
864.732	64.53
865.034	66
865.336	65.82
865.638	66.69
865.94	65.31
866.242	66.7
866.544	64.8
866.846	65.49
867.147	64.77
867.449	64.37
867.751	64.53
868.052	66.38
868.354	69.23
868.655	68.78
868.957	69.54
869.258	68.95
869.56	70.82
869.861	71.7
870.162	71.95
870.463	71.15
870.765	72.86
871.066	70.74
871.367	69.07
871.668	70.72
871.969	71.69
872.27	72.68
872.571	74.17
872.872	77.01
873.173	75.83
873.473	75.81
873.774	75.42
874.075	75.83
874.376	74.26
874.676	72.37
874.977	71.47
875.277	71.43
875.578	71.91
875.878	70.35
876.179	72.07
876.479	74.01
876.78	74.2
877.08	74.74
877.38	75.21
877.68	77.41
877.981	74.15
878.281	73.75
878.581	73.96
