Data from BA56825_Reflection_00013.txt Node
Date: Mon Nov 18 15:37:50 EST 2019
User: vgr7
Spectrometer: USB2G7710
Scans to average: 3
Trigger mode: 4
Integration Time (sec): 2.000000E-2
Electric dark correction enabled: true
Boxcar width: 10
XAxis mode: Wavelengths
Number of Pixels in Spectrum: 2048
>>>>>Begin Spectral Data<<<<<
177.721	-136.53
178.105	-26.01
178.488	-5.2
178.871	-28.1
179.254	-31.86
179.636	-251.24
180.019	-143.74
180.402	70.91
180.785	-219.47
181.168	98.09
181.55	747.06
181.933	112.81
182.316	83.29
182.698	80.65
183.081	74.61
183.463	29.67
183.846	346.96
184.228	-289.07
184.611	-116.44
184.993	-74.86
185.376	-20.63
185.758	-13.08
186.14	-12.62
186.522	-25.28
186.904	-5.87
187.287	-54.42
187.669	-10.1
188.051	-36.7
188.433	-34.65
188.815	-63.21
189.197	-75.1
189.579	-58.25
189.961	-51.15
190.342	-31.14
190.724	-15.76
191.106	-21.7
191.488	-46.3
191.869	-38.92
192.251	-44.68
192.633	-47.12
193.014	-54.77
193.396	-68.13
193.777	-62.69
194.159	-67.41
194.54	-57.25
194.922	-56.55
195.303	-39.99
195.684	-25.08
196.065	-8.22
196.447	-5.75
196.828	7.11
197.209	10.49
197.59	17.57
197.971	3.39
198.352	-2.57
198.733	-8.33
199.114	-0.18
199.495	15.07
199.876	20.96
200.257	18.41
200.638	27.34
201.018	34.9
201.399	39.09
201.78	31.09
202.16	50.58
202.541	36.28
202.922	30.52
203.302	31.61
203.683	27.04
204.063	28.52
204.444	31.25
204.824	24.11
205.204	28.2
205.585	27.53
205.965	36.39
206.345	54.18
206.725	58.85
207.106	50.13
207.486	43.13
207.866	31.26
208.246	61.59
208.626	39.1
209.006	35.64
209.386	19.81
209.766	18.57
210.145	-2.4
210.525	28.84
210.905	46.11
211.285	45.78
211.664	27.76
212.044	17.75
212.424	27.43
212.803	40.51
213.183	33.38
213.562	27.31
213.942	44.6
214.321	35.05
214.701	28.63
215.08	31.53
215.459	40.5
215.838	46.87
216.218	48.82
216.597	81.97
216.976	97.17
217.355	80.48
217.734	95.36
218.113	108.86
218.492	104.38
218.871	83.25
219.25	72.01
219.629	73.89
220.008	82.16
220.387	60.22
220.766	38.86
221.144	35.55
221.523	44.1
221.902	35.86
222.28	20.82
222.659	35.2
223.037	34.27
223.416	27.99
223.794	26.7
224.173	7.99
224.551	2.57
224.929	0.09
225.308	4.28
225.686	6.61
226.064	11.58
226.442	12.03
226.821	9.95
227.199	4.27
227.577	3.43
227.955	0.67
228.333	-2
228.711	1.45
229.089	3.63
229.467	0.67
229.845	-0.19
230.222	2.23
230.6	1.19
230.978	-0.74
231.356	-1.27
231.733	-1.7
232.111	-0.61
232.488	0.49
232.866	0.62
233.243	-0.13
233.621	-0.69
233.998	-1.94
234.376	-2.65
234.753	-1.33
235.13	1.04
235.508	2.64
235.885	3.12
236.262	3.26
236.639	3.1
237.016	3.31
237.393	4.72
237.77	4.87
238.147	5.09
238.524	4.91
238.901	5.46
239.278	6.48
239.655	8.22
240.032	8.21
240.409	7.5
240.785	6.98
241.162	7.42
241.539	7.37
241.915	8.04
242.292	7.44
242.668	7.33
243.045	7.47
243.421	6.97
243.798	6.74
244.174	6.63
244.551	6.47
244.927	6.35
245.303	6.23
245.679	6.24
246.056	6.21
246.432	6.07
246.808	5.99
247.184	5.56
247.56	5.03
247.936	5.19
248.312	5.47
248.688	5.32
249.064	5.34
249.44	5.34
249.815	4.98
250.191	5.03
250.567	4.87
250.943	4.64
251.318	4.89
251.694	5.22
252.069	5.26
252.445	5.4
252.82	5.55
253.196	5.39
253.571	5.17
253.947	5.14
254.322	5.32
254.697	5.45
255.073	5.37
255.448	5.28
255.823	5.11
256.198	5.15
256.573	5.41
256.948	5.47
257.323	5.55
257.698	5.6
258.073	5.61
258.448	5.53
258.823	5.47
259.198	5.27
259.573	5.12
259.948	5.1
260.322	5.11
260.697	4.98
261.072	4.89
261.446	4.99
261.821	5
262.195	5.15
262.57	5.01
262.944	5.12
263.319	4.94
263.693	4.9
264.067	4.74
264.442	4.77
264.816	4.72
265.19	4.69
265.564	4.66
265.938	4.51
266.313	4.57
266.687	4.5
267.061	4.52
267.435	4.55
267.809	4.45
268.183	4.49
268.556	4.41
268.93	4.58
269.304	4.69
269.678	4.67
270.051	4.51
270.425	4.66
270.799	4.65
271.172	4.82
271.546	4.81
271.919	4.77
272.293	4.73
272.666	4.7
273.04	4.72
273.413	4.63
273.787	4.65
274.16	4.65
274.533	4.72
274.906	4.69
275.279	4.69
275.653	4.61
276.026	4.48
276.399	4.47
276.772	4.64
277.145	4.47
277.518	4.37
277.891	4.46
278.263	4.49
278.636	4.4
279.009	4.62
279.382	4.71
279.755	4.68
280.127	4.68
280.5	4.68
280.872	4.5
281.245	4.55
281.617	4.72
281.99	4.83
282.362	4.89
282.735	4.8
283.107	4.67
283.479	4.86
283.852	4.74
284.224	4.78
284.596	4.59
284.968	4.68
285.34	4.81
285.713	4.83
286.085	4.81
286.457	5
286.829	4.9
287.201	4.97
287.572	5.01
287.944	4.97
288.316	4.95
288.688	4.94
289.06	5
289.431	5.02
289.803	4.91
290.175	4.93
290.546	5.07
290.918	5.32
291.289	5.43
291.661	5.63
292.032	5.68
292.403	5.81
292.775	5.83
293.146	5.83
293.517	5.73
293.889	5.68
294.26	5.57
294.631	5.6
295.002	5.54
295.373	5.44
295.744	5.54
296.115	5.58
296.486	5.58
296.857	5.49
297.228	5.61
297.599	5.6
297.97	5.66
298.34	5.72
298.711	5.59
299.082	5.52
299.452	5.57
299.823	5.67
300.194	5.69
300.564	5.62
300.935	5.64
301.305	5.66
301.676	5.81
302.046	5.98
302.416	6.11
302.787	6.25
303.157	6.42
303.527	6.45
303.897	6.38
304.267	6.6
304.637	6.82
305.008	6.71
305.378	6.83
305.748	6.8
306.117	6.79
306.487	6.83
306.857	6.9
307.227	6.88
307.597	6.82
307.967	6.73
308.336	6.77
308.706	6.94
309.076	7
309.445	6.94
309.815	6.88
310.184	6.86
310.554	6.96
310.923	7.02
311.293	7.09
311.662	7.17
312.031	7.15
312.401	7.11
312.77	7.25
313.139	7.31
313.508	7.35
313.877	7.3
314.246	7.47
314.616	7.52
314.985	7.54
315.353	7.62
315.722	7.76
316.091	7.84
316.46	7.6
316.829	7.67
317.198	7.82
317.567	7.89
317.935	7.84
318.304	7.81
318.672	7.8
319.041	7.72
319.41	7.85
319.778	7.93
320.147	7.94
320.515	7.89
320.883	7.91
321.252	8.09
321.62	8.22
321.988	8.23
322.357	8.19
322.725	8.19
323.093	8.26
323.461	8.37
323.829	8.45
324.197	8.54
324.565	8.58
324.933	8.6
325.301	8.63
325.669	8.72
326.037	8.78
326.405	8.88
326.772	8.97
327.14	9.06
327.508	9.14
327.875	9.2
328.243	9.13
328.61	9.14
328.978	9.11
329.346	9.38
329.713	9.34
330.08	9.46
330.448	9.52
330.815	9.44
331.182	9.48
331.55	9.47
331.917	9.58
332.284	9.51
332.651	9.53
333.018	9.7
333.385	9.74
333.752	9.8
334.119	9.89
334.486	9.81
334.853	9.76
335.22	9.76
335.587	9.84
335.954	9.9
336.32	9.94
336.687	9.86
337.054	9.7
337.42	9.74
337.787	9.73
338.153	9.83
338.52	9.9
338.886	9.79
339.253	9.73
339.619	9.78
339.986	9.89
340.352	9.76
340.718	9.72
341.084	9.77
341.451	9.69
341.817	9.69
342.183	9.7
342.549	9.75
342.915	9.78
343.281	9.7
343.647	9.76
344.013	9.69
344.379	9.69
344.745	9.7
345.11	9.65
345.476	9.62
345.842	9.64
346.208	9.8
346.573	9.89
346.939	10.04
347.304	10.01
347.67	9.97
348.035	10.09
348.401	10.07
348.766	10.06
349.132	10.1
349.497	9.98
349.862	10.11
350.228	10.16
350.593	10.09
350.958	10.18
351.323	10.21
351.688	10.31
352.053	10.36
352.418	10.44
352.783	10.42
353.148	10.38
353.513	10.34
353.878	10.24
354.243	10.26
354.608	10.17
354.972	10.1
355.337	10.16
355.702	10.12
356.066	10.09
356.431	9.96
356.795	9.98
357.16	9.92
357.524	9.73
357.889	9.64
358.253	9.67
358.618	9.65
358.982	9.57
359.346	9.45
359.71	9.44
360.075	9.38
360.439	9.31
360.803	9.3
361.167	9.16
361.531	9.16
361.895	9.09
362.259	9.06
362.623	9.04
362.987	8.93
363.351	8.96
363.714	8.86
364.078	8.83
364.442	8.75
364.806	8.74
365.169	8.78
365.533	8.74
365.896	8.7
366.26	8.61
366.623	8.62
366.987	8.62
367.35	8.59
367.714	8.5
368.077	8.46
368.44	8.43
368.803	8.43
369.167	8.28
369.53	8.2
369.893	8.18
370.256	8.18
370.619	8.16
370.982	8.07
371.345	8.04
371.708	8.03
372.071	7.9
372.434	7.86
372.797	7.87
373.159	7.79
373.522	7.71
373.885	7.61
374.247	7.49
374.61	7.47
374.973	7.34
375.335	7.31
375.698	7.29
376.06	7.22
376.423	7.2
376.785	7.18
377.147	7.14
377.51	7.08
377.872	7.05
378.234	7
378.596	6.94
378.958	6.92
379.321	6.89
379.683	6.91
380.045	6.86
380.407	6.79
380.769	6.72
381.13	6.67
381.492	6.64
381.854	6.65
382.216	6.55
382.578	6.52
382.939	6.41
383.301	6.38
383.663	6.34
384.024	6.3
384.386	6.27
384.747	6.25
385.109	6.24
385.47	6.13
385.832	6.11
386.193	6.06
386.554	6
386.916	5.95
387.277	5.9
387.638	5.87
387.999	5.8
388.36	5.81
388.721	5.76
389.082	5.76
389.443	5.72
389.804	5.71
390.165	5.67
390.526	5.69
390.887	5.67
391.248	5.65
391.609	5.61
391.969	5.59
392.33	5.57
392.691	5.49
393.051	5.5
393.412	5.47
393.772	5.46
394.133	5.44
394.493	5.4
394.854	5.37
395.214	5.32
395.574	5.3
395.935	5.26
396.295	5.27
396.655	5.24
397.015	5.21
397.376	5.23
397.736	5.25
398.096	5.22
398.456	5.19
398.816	5.16
399.176	5.12
399.535	5.09
399.895	5.02
400.255	5.01
400.615	4.95
400.975	4.93
401.334	4.88
401.694	4.85
402.054	4.84
402.413	4.82
402.773	4.81
403.132	4.79
403.492	4.77
403.851	4.72
404.211	4.69
404.57	4.63
404.929	4.59
405.288	4.52
405.648	4.5
406.007	4.47
406.366	4.46
406.725	4.49
407.084	4.5
407.443	4.5
407.802	4.51
408.161	4.48
408.52	4.46
408.879	4.47
409.238	4.47
409.596	4.45
409.955	4.43
410.314	4.43
410.673	4.41
411.031	4.39
411.39	4.37
411.748	4.35
412.107	4.38
412.465	4.37
412.824	4.4
413.182	4.36
413.54	4.36
413.899	4.36
414.257	4.3
414.615	4.26
414.974	4.28
415.332	4.22
415.69	4.23
416.048	4.21
416.406	4.19
416.764	4.17
417.122	4.17
417.48	4.15
417.838	4.1
418.195	4.08
418.553	4.06
418.911	4.06
419.269	4.05
419.626	4.03
419.984	4.02
420.342	4.01
420.699	4.01
421.057	4
421.414	3.98
421.772	4
422.129	3.99
422.486	3.96
422.844	3.97
423.201	3.96
423.558	3.95
423.915	3.93
424.273	3.93
424.63	3.91
424.987	3.91
425.344	3.93
425.701	3.93
426.058	3.94
426.415	3.93
426.772	3.93
427.128	3.92
427.485	3.91
427.842	3.87
428.199	3.89
428.555	3.89
428.912	3.89
429.269	3.87
429.625	3.86
429.982	3.85
430.338	3.85
430.695	3.84
431.051	3.83
431.407	3.82
431.764	3.83
432.12	3.83
432.476	3.82
432.832	3.83
433.189	3.84
433.545	3.83
433.901	3.8
434.257	3.78
434.613	3.78
434.969	3.77
435.325	3.78
435.681	3.74
436.036	3.74
436.392	3.73
436.748	3.71
437.104	3.71
437.459	3.72
437.815	3.72
438.171	3.72
438.526	3.73
438.882	3.74
439.237	3.74
439.593	3.75
439.948	3.73
440.304	3.72
440.659	3.69
441.014	3.7
441.369	3.71
441.725	3.71
442.08	3.71
442.435	3.7
442.79	3.7
443.145	3.69
443.5	3.69
443.855	3.68
444.21	3.68
444.565	3.68
444.92	3.69
445.275	3.67
445.629	3.68
445.984	3.67
446.339	3.65
446.693	3.63
447.048	3.6
447.403	3.6
447.757	3.6
448.112	3.6
448.466	3.59
448.82	3.59
449.175	3.59
449.529	3.59
449.883	3.58
450.238	3.57
450.592	3.57
450.946	3.55
451.3	3.55
451.654	3.54
452.008	3.54
452.362	3.52
452.716	3.53
453.07	3.53
453.424	3.51
453.778	3.51
454.132	3.52
454.486	3.56
454.839	3.55
455.193	3.55
455.547	3.57
455.9	3.57
456.254	3.58
456.607	3.59
456.961	3.59
457.314	3.6
457.668	3.61
458.021	3.6
458.375	3.61
458.728	3.61
459.081	3.61
459.434	3.6
459.787	3.61
460.141	3.6
460.494	3.59
460.847	3.6
461.2	3.61
461.553	3.61
461.906	3.6
462.259	3.61
462.611	3.62
462.964	3.61
463.317	3.6
463.67	3.6
464.022	3.58
464.375	3.57
464.728	3.57
465.08	3.57
465.433	3.6
465.785	3.61
466.138	3.61
466.49	3.62
466.843	3.63
467.195	3.62
467.547	3.65
467.899	3.67
468.252	3.65
468.604	3.65
468.956	3.66
469.308	3.66
469.66	3.68
470.012	3.69
470.364	3.68
470.716	3.67
471.068	3.69
471.42	3.68
471.772	3.7
472.123	3.7
472.475	3.68
472.827	3.66
473.178	3.65
473.53	3.65
473.882	3.64
474.233	3.65
474.585	3.65
474.936	3.64
475.288	3.62
475.639	3.65
475.99	3.63
476.342	3.64
476.693	3.62
477.044	3.61
477.395	3.6
477.746	3.6
478.097	3.61
478.448	3.6
478.8	3.59
479.15	3.58
479.501	3.59
479.852	3.6
480.203	3.6
480.554	3.62
480.905	3.62
481.255	3.63
481.606	3.63
481.957	3.65
482.307	3.66
482.658	3.68
483.009	3.67
483.359	3.68
483.709	3.68
484.06	3.69
484.41	3.7
484.761	3.71
485.111	3.71
485.461	3.72
485.811	3.73
486.162	3.73
486.512	3.75
486.862	3.76
487.212	3.75
487.562	3.77
487.912	3.78
488.262	3.78
488.612	3.78
488.961	3.79
489.311	3.79
489.661	3.78
490.011	3.78
490.36	3.79
490.71	3.79
491.06	3.8
491.409	3.79
491.759	3.79
492.108	3.78
492.458	3.78
492.807	3.78
493.157	3.79
493.506	3.81
493.855	3.8
494.204	3.79
494.554	3.82
494.903	3.81
495.252	3.8
495.601	3.83
495.95	3.84
496.299	3.83
496.648	3.85
496.997	3.85
497.346	3.88
497.695	3.9
498.043	3.93
498.392	3.94
498.741	3.98
499.09	3.99
499.438	4.02
499.787	4.06
500.135	4.09
500.484	4.09
500.832	4.09
501.181	4.12
501.529	4.16
501.878	4.2
502.226	4.24
502.574	4.29
502.923	4.31
503.271	4.33
503.619	4.38
503.967	4.41
504.315	4.45
504.663	4.47
505.011	4.48
505.359	4.5
505.707	4.55
506.055	4.58
506.403	4.6
506.751	4.63
507.098	4.64
507.446	4.69
507.794	4.74
508.141	4.79
508.489	4.84
508.837	4.86
509.184	4.9
509.531	4.94
509.879	5
510.226	5.03
510.574	5.07
510.921	5.11
511.268	5.14
511.616	5.18
511.963	5.23
512.31	5.29
512.657	5.34
513.004	5.37
513.351	5.44
513.698	5.53
514.045	5.58
514.392	5.64
514.739	5.68
515.086	5.74
515.432	5.78
515.779	5.82
516.126	5.88
516.473	5.93
516.819	5.99
517.166	6.02
517.512	6.07
517.859	6.12
518.205	6.19
518.552	6.24
518.898	6.29
519.245	6.34
519.591	6.39
519.937	6.43
520.283	6.47
520.629	6.53
520.976	6.58
521.322	6.67
521.668	6.76
522.014	6.84
522.36	6.91
522.706	7.03
523.052	7.14
523.398	7.25
523.743	7.36
524.089	7.47
524.435	7.57
524.781	7.67
525.126	7.78
525.472	7.87
525.817	7.97
526.163	8.04
526.509	8.12
526.854	8.21
527.199	8.29
527.545	8.37
527.89	8.44
528.235	8.53
528.581	8.62
528.926	8.71
529.271	8.8
529.616	8.9
529.961	8.99
530.306	9.09
530.651	9.18
530.996	9.29
531.341	9.4
531.686	9.53
532.031	9.67
532.376	9.79
532.721	9.93
533.065	10.07
533.41	10.24
533.755	10.41
534.099	10.58
534.444	10.76
534.788	10.93
535.133	11.11
535.477	11.27
535.822	11.44
536.166	11.63
536.51	11.86
536.855	12.11
537.199	12.34
537.543	12.6
537.887	12.87
538.231	13.12
538.576	13.4
538.92	13.69
539.264	13.95
539.608	14.25
539.951	14.5
540.295	14.74
540.639	14.98
540.983	15.2
541.327	15.42
541.671	15.65
542.014	15.9
542.358	16.15
542.701	16.42
543.045	16.69
543.389	16.94
543.732	17.22
544.075	17.48
544.419	17.78
544.762	18.08
545.105	18.4
545.449	18.73
545.792	19.05
546.135	19.42
546.478	19.79
546.821	20.14
547.165	20.53
547.508	20.95
547.851	21.38
548.194	21.81
548.536	22.23
548.879	22.67
549.222	23.1
549.565	23.56
549.908	23.99
550.25	24.44
550.593	24.9
550.936	25.34
551.278	25.8
551.621	26.26
551.963	26.72
552.306	27.15
552.648	27.62
552.991	28.1
553.333	28.52
553.675	28.92
554.017	29.34
554.36	29.8
554.702	30.2
555.044	30.58
555.386	31.04
555.728	31.55
556.07	32.02
556.412	32.43
556.754	32.89
557.096	33.33
557.438	33.81
557.78	34.28
558.121	34.77
558.463	35.22
558.805	35.66
559.147	36.08
559.488	36.52
559.83	36.95
560.171	37.36
560.513	37.73
560.854	38.17
561.196	38.61
561.537	38.97
561.878	39.36
562.22	39.76
562.561	40.12
562.902	40.44
563.243	40.83
563.584	41.25
563.925	41.6
564.266	41.95
564.607	42.28
564.948	42.64
565.289	43
565.63	43.34
565.971	43.65
566.312	43.96
566.653	44.3
566.993	44.59
567.334	44.94
567.675	45.34
568.015	45.72
568.356	46.08
568.696	46.48
569.037	46.79
569.377	47.16
569.718	47.49
570.058	47.79
570.398	48.13
570.739	48.47
571.079	48.76
571.419	49.05
571.759	49.32
572.099	49.64
572.439	49.91
572.779	50.17
573.119	50.44
573.459	50.67
573.799	50.99
574.139	51.3
574.479	51.49
574.819	51.71
575.158	51.86
575.498	52.02
575.838	52.24
576.177	52.53
576.517	52.76
576.856	52.98
577.196	53.19
577.535	53.37
577.875	53.52
578.214	53.72
578.553	53.95
578.893	54.17
579.232	54.32
579.571	54.57
579.91	54.76
580.25	54.97
580.589	55.25
580.928	55.39
581.267	55.58
581.606	55.8
581.945	55.95
582.283	56.2
582.622	56.41
582.961	56.61
583.3	56.79
583.639	57.03
583.977	57.14
584.316	57.41
584.654	57.65
584.993	57.86
585.332	58.04
585.67	58.26
586.008	58.37
586.347	58.54
586.685	58.69
587.024	58.89
587.362	59.02
587.7	59.12
588.038	59.27
588.376	59.32
588.715	59.48
589.053	59.7
589.391	59.81
589.729	60.02
590.067	60.06
590.404	60.17
590.742	60.24
591.08	60.48
591.418	60.6
591.756	60.64
592.093	60.72
592.431	60.81
592.769	60.97
593.106	61.2
593.444	61.31
593.781	61.4
594.119	61.56
594.456	61.72
594.793	61.94
595.131	62.04
595.468	62.17
595.805	62.27
596.143	62.29
596.48	62.45
596.817	62.43
597.154	62.54
597.491	62.64
597.828	62.73
598.165	62.8
598.502	62.88
598.839	63.08
599.176	63.21
599.512	63.36
599.849	63.45
600.186	63.42
600.523	63.45
600.859	63.59
601.196	63.65
601.532	63.74
601.869	63.75
602.205	63.89
602.542	64.04
602.878	64.11
603.215	64.2
603.551	64.21
603.887	64.39
604.223	64.53
604.56	64.59
604.896	64.67
605.232	64.78
605.568	64.8
605.904	64.79
606.24	64.86
606.576	64.97
606.912	64.97
607.248	65.15
607.583	65.29
607.919	65.33
608.255	65.38
608.591	65.47
608.926	65.5
609.262	65.56
609.597	65.58
609.933	65.64
610.268	65.72
610.604	65.75
610.939	65.76
611.275	65.8
611.61	65.99
611.945	66.06
612.281	66.02
612.616	66.16
612.951	66.27
613.286	66.33
613.621	66.36
613.956	66.44
614.291	66.5
614.626	66.61
614.961	66.65
615.296	66.75
615.631	66.85
615.966	66.96
616.3	66.99
616.635	67.07
616.97	67.16
617.304	67.28
617.639	67.48
617.973	67.58
618.308	67.68
618.642	67.64
618.977	67.7
619.311	67.86
619.646	67.78
619.98	67.76
620.314	67.84
620.648	67.96
620.983	68.02
621.317	68.1
621.651	68.14
621.985	68.18
622.319	68.2
622.653	68.17
622.987	68.19
623.321	68.21
623.655	68.2
623.988	68.25
624.322	68.32
624.656	68.34
624.99	68.39
625.323	68.38
625.657	68.4
625.99	68.43
626.324	68.35
626.657	68.37
626.991	68.45
627.324	68.42
627.658	68.39
627.991	68.38
628.324	68.41
628.657	68.51
628.991	68.51
629.324	68.53
629.657	68.55
629.99	68.63
630.323	68.73
630.656	68.85
630.989	68.94
631.322	68.89
631.655	68.85
631.987	68.84
632.32	68.79
632.653	68.94
632.986	68.98
633.318	69.16
633.651	69.33
633.984	69.29
634.316	69.4
634.649	69.47
634.981	69.49
635.313	69.57
635.646	69.54
635.978	69.72
636.31	69.86
636.643	70.01
636.975	69.98
637.307	69.99
637.639	69.94
637.971	69.91
638.303	69.9
638.635	69.95
638.967	69.88
639.299	70.06
639.631	69.97
639.963	70.11
640.295	70.03
640.626	70.13
640.958	70.21
641.29	70.18
641.621	70.09
641.953	70.27
642.285	70.21
642.616	70.24
642.948	70.14
643.279	70.1
643.61	70.08
643.942	70.14
644.273	70.19
644.604	70.26
644.936	70.1
645.267	70.15
645.598	70.1
645.929	70.27
646.26	70.31
646.591	70.45
646.922	70.33
647.253	70.31
647.584	70.26
647.915	70.36
648.245	70.53
648.576	70.64
648.907	70.63
649.238	70.56
649.568	70.5
649.899	70.51
650.229	70.52
650.56	70.59
650.89	70.67
651.221	70.69
651.551	70.76
651.882	70.87
652.212	70.95
652.542	71.05
652.872	70.92
653.203	70.84
653.533	70.83
653.863	70.82
654.193	70.9
654.523	70.98
654.853	70.92
655.183	70.79
655.513	70.9
655.843	70.97
656.172	71.09
656.502	71.1
656.832	71.2
657.162	71.13
657.491	71.1
657.821	71.04
658.15	70.9
658.48	70.85
658.809	70.89
659.139	70.83
659.468	70.86
659.798	70.93
660.127	71.03
660.456	71.02
660.785	71.11
661.115	71.09
661.444	70.97
661.773	71.03
662.102	71.06
662.431	71.01
662.76	70.88
663.089	70.83
663.418	70.87
663.747	70.75
664.076	70.78
664.404	70.7
664.733	70.66
665.062	70.81
665.39	70.87
665.719	70.79
666.048	70.98
666.376	70.93
666.705	71
667.033	70.92
667.362	71.02
667.69	70.89
668.018	70.84
668.347	70.89
668.675	70.93
669.003	71.02
669.331	70.99
669.659	71.07
669.987	71.17
670.315	71.12
670.643	71.32
670.971	71.38
671.299	71.45
671.627	71.51
671.955	71.46
672.283	71.41
672.61	71.58
672.938	71.38
673.266	71.4
673.593	71.35
673.921	71.47
674.249	71.32
674.576	71.29
674.904	71.32
675.231	71.35
675.558	71.37
675.886	71.29
676.213	71.28
676.54	71.28
676.867	71.29
677.195	71.47
677.522	71.31
677.849	71.24
678.176	71.26
678.503	71.29
678.83	71.43
679.157	71.45
679.484	71.33
679.81	71.43
680.137	71.5
680.464	71.47
680.791	71.35
681.117	71.36
681.444	71.53
681.771	71.49
682.097	71.41
682.424	71.27
682.75	71.23
683.077	71.22
683.403	71.13
683.729	71.2
684.056	70.97
684.382	71.15
684.708	71.26
685.034	71.21
685.36	71.18
685.686	71.02
686.012	71.03
686.339	71.09
686.664	71.04
686.99	71.03
687.316	71.09
687.642	71.07
687.968	71.03
688.294	71.05
688.619	71.35
688.945	71.5
689.271	71.64
689.596	71.69
689.922	71.86
690.247	71.93
690.573	71.91
690.898	72.19
691.224	72.01
691.549	71.84
691.874	72.06
692.2	72.14
692.525	72.24
692.85	72.29
693.175	72.47
693.5	72.47
693.825	72.56
694.15	72.73
694.475	72.74
694.8	72.66
695.125	72.47
695.45	72.19
695.775	72.25
696.099	72.12
696.424	72.04
696.749	71.94
697.073	72.19
697.398	72.12
697.723	72.06
698.047	72.03
698.372	72.28
698.696	72.19
699.02	72.2
699.345	72.19
699.669	72.13
699.993	71.98
700.318	71.93
700.642	71.65
700.966	71.66
701.29	71.75
701.614	71.93
701.938	71.93
702.262	72.14
702.586	72.06
702.91	72.13
703.234	72.18
703.557	72.21
703.881	71.89
704.205	71.91
704.529	71.72
704.852	71.74
705.176	71.6
705.499	71.45
705.823	71.43
706.146	71.4
706.47	71.38
706.793	71.34
707.117	71.56
707.44	71.73
707.763	71.57
708.086	71.45
708.409	71.48
708.733	71.55
709.056	71.37
709.379	71.39
709.702	71.79
710.025	71.7
710.348	71.62
710.671	71.96
710.993	71.88
711.316	71.89
711.639	71.93
711.962	71.94
712.284	72.05
712.607	72.08
712.93	72.12
713.252	72.01
713.575	72.11
713.897	71.99
714.22	72.06
714.542	72.21
714.864	72.15
715.187	71.95
715.509	71.95
715.831	71.99
716.153	72.07
716.475	71.59
716.798	71.75
717.12	71.85
717.442	71.42
717.764	71.41
718.085	71.4
718.407	71.46
718.729	71.53
719.051	71.46
719.373	71.17
719.695	71.34
720.016	71.55
720.338	71.22
720.659	71.16
720.981	71.18
721.302	70.79
721.624	70.81
721.945	70.89
722.267	70.96
722.588	71.09
722.909	70.84
723.231	71.19
723.552	71.12
723.873	71.11
724.194	71.43
724.515	71.62
724.836	71.7
725.157	71.81
725.478	71.67
725.799	71.88
726.12	72.07
726.441	71.73
726.762	71.69
727.083	72.01
727.403	71.93
727.724	72.14
728.045	72.41
728.365	72.58
728.686	72.61
729.006	72.58
729.327	72.39
729.647	72.57
729.967	72.22
730.288	72.13
730.608	72.03
730.928	71.96
731.249	71.8
731.569	71.96
731.889	71.86
732.209	71.86
732.529	71.72
732.849	71.72
733.169	72.03
733.489	72.07
733.809	72.24
734.129	72.25
734.448	72.38
734.768	72.32
735.088	72.17
735.408	72
735.727	72.08
736.047	71.88
736.366	71.6
736.686	71.58
737.005	71.71
737.325	71.92
737.644	71.97
737.963	72.04
738.283	71.75
738.602	71.79
738.921	72
739.24	71.78
739.56	71.57
739.879	71.39
740.198	71.4
740.517	71.36
740.836	71.67
741.155	71.08
741.473	70.92
741.792	70.8
742.111	70.73
742.43	70.52
742.748	70.79
743.067	71.13
743.386	71.27
743.704	71.23
744.023	70.86
744.341	70.81
744.66	70.83
744.978	71.2
745.297	71.2
745.615	71.02
745.933	71.23
746.252	71.52
746.57	71.4
746.888	71.63
747.206	71.78
747.524	71.76
747.842	72.1
748.16	72.07
748.478	72.38
748.796	72.52
749.114	72.7
749.432	72.78
749.749	72.46
750.067	72.36
750.385	72.25
750.703	72.35
751.02	72.12
751.338	72.21
751.655	72.32
751.973	72.52
752.29	72.44
752.608	72.17
752.925	72.32
753.242	72.29
753.56	71.78
753.877	71.85
754.194	71.47
754.511	71.47
754.828	71.64
755.145	71.7
755.462	72.11
755.779	72.38
756.096	72.12
756.413	72.09
756.73	72.49
757.047	72.9
757.364	73.11
757.68	73.43
757.997	73.24
758.314	73.28
758.63	72.98
758.947	72.89
759.264	73.18
759.58	72.95
759.896	72.89
760.213	73.01
760.529	72.35
760.846	72.47
761.162	72.33
761.478	72.46
761.794	72.25
762.11	71.95
762.426	71.84
762.743	72.23
763.059	72.62
763.375	72.37
763.69	72.26
764.006	72.06
764.322	72.04
764.638	72.02
764.954	71.82
765.27	71.94
765.585	71.75
765.901	71.97
766.216	71.85
766.532	72
766.848	72.16
767.163	72.32
767.478	72.55
767.794	72.41
768.109	72.44
768.424	72.44
768.74	72.86
769.055	72.61
769.37	72.05
769.685	71.89
770	72.12
770.315	72.05
770.63	72.11
770.945	72.02
771.26	72.15
771.575	72.35
771.89	72.46
772.205	72.64
772.52	72.73
772.834	72.93
773.149	72.77
773.464	72.71
773.778	73.17
774.093	72.74
774.407	73.26
774.722	72.99
775.036	72.96
775.351	72.82
775.665	73.05
775.979	73.31
776.293	73.17
776.608	73.54
776.922	73.52
777.236	73.78
777.55	74.08
777.864	73.89
778.178	73.47
778.492	73.49
778.806	73.87
779.12	73.53
779.434	73.6
779.747	73.84
780.061	73.45
780.375	73.1
780.689	73.53
781.002	73.5
781.316	73.23
781.629	73.23
781.943	72.73
782.256	72.67
782.57	73.2
782.883	73.59
783.196	73.41
783.51	73.54
783.823	73.46
784.136	73.24
784.449	73.44
784.762	73.53
785.075	73.52
785.388	73.09
785.701	73.11
786.014	73.29
786.327	73.45
786.64	73.93
786.953	73.68
787.266	73.02
787.578	72.97
787.891	73.62
788.204	73.54
788.516	73.62
788.829	73.18
789.141	73.1
789.454	72.71
789.766	72.69
790.079	73.15
790.391	73.36
790.703	73.77
791.016	73.44
791.328	73.7
791.64	73.44
791.952	74
792.264	73.8
792.576	73.5
792.888	73.68
793.2	73.51
793.512	73.45
793.824	74.27
794.136	74.49
794.448	74.44
794.76	75.25
795.071	75.34
795.383	76.56
795.695	76.1
796.006	76.19
796.318	76.43
796.629	75.7
796.941	75.21
797.252	75.1
797.564	75.83
797.875	75.62
798.186	75.23
798.497	75.05
798.809	75.02
799.12	74.68
799.431	74.27
799.742	74.97
800.053	75.09
800.364	75.25
800.675	74.9
800.986	74.67
801.297	74.29
801.608	74.33
801.918	73.14
802.229	73.18
802.54	72.56
802.851	72.37
803.161	72.63
803.472	73.23
803.782	72.89
804.093	72.5
804.403	72.1
804.714	72.42
805.024	72.28
805.334	72.75
805.645	72.99
805.955	73.42
806.265	72.97
806.575	73.29
806.885	73.02
807.195	72.69
807.505	72.49
807.815	72.65
808.125	72.52
808.435	72.94
808.745	73.45
809.055	74.12
809.365	74.07
809.674	73.67
809.984	73
810.294	73.45
810.603	73.34
810.913	74.01
811.222	73.85
811.532	73.81
811.841	73.55
812.151	73.89
812.46	73.84
812.769	74.15
813.079	73.84
813.388	74.06
813.697	74.11
814.006	74.54
814.315	74.07
814.624	74.18
814.933	74.52
815.242	74.44
815.551	73.47
815.86	73.69
816.169	73.85
816.478	74.08
816.786	73.81
817.095	74.89
817.404	74.83
817.712	74.73
818.021	75.03
818.33	75.27
818.638	75.14
818.947	74.81
819.255	74.11
819.563	73.94
819.872	73.28
820.18	73.58
820.488	73.51
820.796	72.97
821.105	72.92
821.413	72.64
821.721	72.39
822.029	72.72
822.337	72.57
822.645	72.74
822.953	72.57
823.26	72.65
823.568	72.31
823.876	72.14
824.184	72.08
824.491	72.01
824.799	71.73
825.107	71.77
825.414	71.68
825.722	71.68
826.029	71.76
826.337	71.97
826.644	71.83
826.951	71.52
827.259	72.02
827.566	72.06
827.873	72.3
828.18	72.38
828.488	72.4
828.795	72.57
829.102	72.28
829.409	72.25
829.716	71.84
830.023	71.88
830.329	72.31
830.636	72.45
830.943	72.27
831.25	72.79
831.557	72.83
831.863	72.67
832.17	72.52
832.476	72.63
832.783	72.73
833.089	73.25
833.396	73.84
833.702	73.98
834.009	73.47
834.315	73.19
834.621	74.12
834.928	74.06
835.234	74.07
835.54	73.78
835.846	74.72
836.152	74.68
836.458	75.23
836.764	74.95
837.07	75.09
837.376	75.03
837.682	75.4
837.988	75.07
838.293	76.01
838.599	76.55
838.905	76.52
839.211	76.11
839.516	75.88
839.822	75.96
840.127	75.57
840.433	76.56
840.738	76.67
841.044	75.81
841.349	75.9
841.654	75.55
841.959	75.74
842.265	74.46
842.57	75.04
842.875	74.96
843.18	74.96
843.485	76.06
843.79	78.69
844.095	77.76
844.4	78.79
844.705	77.27
845.01	77.17
845.315	77.06
845.619	77.66
845.924	77.55
846.229	76.63
846.533	75.12
846.838	74.92
847.142	75.23
847.447	74.42
847.751	72.19
848.056	70.08
848.36	70.57
848.664	71.7
848.969	71.46
849.273	71.12
849.577	70.26
849.881	68.42
850.185	66.29
850.489	65.89
850.794	65.36
851.097	64.34
851.401	64.42
851.705	63.3
852.009	62.11
852.313	61.11
852.617	61.81
852.92	64.07
853.224	65.2
853.528	66.73
853.831	66.94
854.135	69.91
854.438	71.68
854.742	70.71
855.045	70.11
855.349	69.21
855.652	68.73
855.955	69.79
856.259	71.03
856.562	71.38
856.865	72.34
857.168	72.41
857.471	75.99
857.774	75.51
858.077	77.18
858.38	77.71
858.683	79.7
858.986	80.12
859.289	78.91
859.592	77.86
859.894	75.31
860.197	76.48
860.5	77.78
860.802	77.58
861.105	78.71
861.407	77.79
861.71	79.38
862.012	80.5
862.315	79.34
862.617	81.75
862.919	78.18
863.222	78.15
863.524	75.51
863.826	76.12
864.128	77.23
864.43	76.93
864.732	80.19
865.034	78.69
865.336	79.68
865.638	78.48
865.94	79.81
866.242	82.81
866.544	81.45
866.846	77.93
867.147	76.97
867.449	78.4
867.751	79.22
868.052	81.62
868.354	79.82
868.655	79.45
868.957	77.4
869.258	80.86
869.56	79.2
869.861	81.64
870.162	81.38
870.463	79.07
870.765	79.33
871.066	76.54
871.367	75.15
871.668	73.61
871.969	75.01
872.27	75.26
872.571	72.68
872.872	73.91
873.173	75.93
873.473	76.97
873.774	75.09
874.075	76.57
874.376	71.65
874.676	71.91
874.977	75.03
875.277	74.61
875.578	73.04
875.878	74.62
876.179	74.85
876.479	73.05
876.78	74.93
877.08	73.92
877.38	74.44
877.68	76.15
877.981	76.46
878.281	76.48
878.581	74.15
