Data from BA56825_Reflection_00010.txt Node
Date: Mon Nov 18 15:37:38 EST 2019
User: vgr7
Spectrometer: USB2G7710
Scans to average: 3
Trigger mode: 4
Integration Time (sec): 2.000000E-2
Electric dark correction enabled: true
Boxcar width: 10
XAxis mode: Wavelengths
Number of Pixels in Spectrum: 2048
>>>>>Begin Spectral Data<<<<<
177.721	-176.35
178.105	-39.41
178.488	34.89
178.871	-10.54
179.254	61.5
179.636	54.55
180.019	336.9
180.402	67.27
180.785	-39.67
181.168	73.28
181.55	2805.88
181.933	107.88
182.316	66.59
182.698	86.79
183.081	108.67
183.463	329.85
183.846	545.34
184.228	-523.79
184.611	-382.19
184.993	-124.01
185.376	-79.79
185.758	-98.02
186.14	-170.96
186.522	-181.69
186.904	-131.49
187.287	-248.47
187.669	-106.49
188.051	-106.39
188.433	-71.07
188.815	-61.61
189.197	-82.02
189.579	-71.26
189.961	-73
190.342	-49.87
190.724	-30.88
191.106	-39.08
191.488	-33.27
191.869	-33.27
192.251	-57.15
192.633	-44.56
193.014	-50.25
193.396	-53.15
193.777	-58.13
194.159	-56.32
194.54	-48.23
194.922	-46.17
195.303	-41.39
195.684	-50.99
196.065	-35.14
196.447	-33.14
196.828	-37.79
197.209	-40.42
197.59	-39.65
197.971	-37.46
198.352	-32.93
198.733	-33.14
199.114	-28.78
199.495	-36.95
199.876	-39.3
200.257	-21.15
200.638	-17.91
201.018	-18.14
201.399	-24.85
201.78	-12.15
202.16	-10.91
202.541	-24.16
202.922	-28.01
203.302	-42.01
203.683	-35.53
204.063	-60.77
204.444	-57.82
204.824	-51.79
205.204	-45.91
205.585	-39.11
205.965	-34.4
206.345	-63.48
206.725	-68.81
207.106	-82.94
207.486	-87.85
207.866	-126.36
208.246	-169.32
208.626	-137.72
209.006	-102.2
209.386	-100.32
209.766	-107.27
210.145	-82.11
210.525	-72.49
210.905	-46.3
211.285	-39.48
211.664	-37.81
212.044	-22.16
212.424	-30.01
212.803	-53.09
213.183	-44.95
213.562	-47.23
213.942	-41.43
214.321	-15.83
214.701	-19.04
215.08	-22.33
215.459	-22.29
215.838	-0.97
216.218	4.65
216.597	4.31
216.976	24.1
217.355	26.4
217.734	17.89
218.113	-4.74
218.492	22.8
218.871	5.73
219.25	3.41
219.629	-5.6
220.008	2.04
220.387	12.85
220.766	11.99
221.144	5.26
221.523	-8.8
221.902	-18.93
222.28	-33.25
222.659	-25.49
223.037	-20.34
223.416	-22.61
223.794	-20.86
224.173	-20.92
224.551	-11.22
224.929	-10.78
225.308	-3.8
225.686	-0.76
226.064	2.55
226.442	4.82
226.821	4.13
227.199	0.33
227.577	3.37
227.955	1.95
228.333	1.4
228.711	2.58
229.089	6.02
229.467	6.02
229.845	7.41
230.222	6.34
230.6	6.72
230.978	5.59
231.356	6.91
231.733	6.8
232.111	6.41
232.488	4.19
232.866	4.6
233.243	2.44
233.621	2.49
233.998	3.56
234.376	0.56
234.753	0.37
235.13	3.51
235.508	3.52
235.885	3.97
236.262	3.66
236.639	3.07
237.016	1.99
237.393	2.66
237.77	3.42
238.147	4.57
238.524	4.62
238.901	5.78
239.278	5.7
239.655	6.42
240.032	6.14
240.409	6.55
240.785	6.27
241.162	6.69
241.539	6.33
241.915	6.27
242.292	5.83
242.668	5.89
243.045	5.57
243.421	5.24
243.798	5.04
244.174	4.84
244.551	5.2
244.927	5.18
245.303	5.18
245.679	5.22
246.056	5.39
246.432	5.2
246.808	5.11
247.184	5
247.56	4.98
247.936	5.12
248.312	5.03
248.688	5.02
249.064	4.89
249.44	5.13
249.815	5.17
250.191	5.54
250.567	5.47
250.943	5.31
251.318	5.39
251.694	5.67
252.069	5.66
252.445	5.32
252.82	5.27
253.196	5.09
253.571	4.91
253.947	4.6
254.322	4.8
254.697	4.63
255.073	4.79
255.448	4.43
255.823	4.29
256.198	4.41
256.573	4.11
256.948	4.32
257.323	4.13
257.698	4.22
258.073	4.25
258.448	4.33
258.823	4.55
259.198	4.49
259.573	4.25
259.948	4.2
260.322	4.27
260.697	4.35
261.072	4.34
261.446	4.33
261.821	4.23
262.195	4.28
262.57	4.33
262.944	4.32
263.319	4.44
263.693	4.35
264.067	4.42
264.442	4.63
264.816	4.52
265.19	4.62
265.564	4.49
265.938	4.39
266.313	4.18
266.687	4.1
267.061	4.28
267.435	4.39
267.809	4.43
268.183	4.73
268.556	4.61
268.93	4.87
269.304	4.93
269.678	5.09
270.051	4.98
270.425	4.95
270.799	4.89
271.172	4.8
271.546	4.85
271.919	4.74
272.293	4.69
272.666	4.79
273.04	4.77
273.413	4.73
273.787	4.75
274.16	4.73
274.533	4.71
274.906	4.57
275.279	4.54
275.653	4.71
276.026	4.41
276.399	4.41
276.772	4.32
277.145	4.22
277.518	4.2
277.891	4.13
278.263	4.27
278.636	4.24
279.009	4.12
279.382	4.4
279.755	4.37
280.127	4.38
280.5	4.22
280.872	4.32
281.245	4.32
281.617	4.31
281.99	4.48
282.362	4.38
282.735	4.26
283.107	4.17
283.479	4.05
283.852	4.11
284.224	4.16
284.596	4.05
284.968	4.3
285.34	4.44
285.713	4.51
286.085	4.51
286.457	4.6
286.829	4.66
287.201	4.53
287.572	4.54
287.944	4.47
288.316	4.55
288.688	4.44
289.06	4.4
289.431	4.32
289.803	4.3
290.175	4.41
290.546	4.69
290.918	4.76
291.289	4.9
291.661	4.97
292.032	4.9
292.403	5.06
292.775	4.96
293.146	4.76
293.517	4.66
293.889	4.62
294.26	4.48
294.631	4.58
295.002	4.45
295.373	4.53
295.744	4.62
296.115	4.59
296.486	4.48
296.857	4.6
297.228	4.82
297.599	4.86
297.97	4.86
298.34	4.81
298.711	4.85
299.082	4.82
299.452	4.9
299.823	5.1
300.194	5.13
300.564	5.03
300.935	5.01
301.305	5.13
301.676	5.18
302.046	5.3
302.416	5.35
302.787	5.66
303.157	5.58
303.527	5.62
303.897	5.66
304.267	5.85
304.637	6.03
305.008	5.9
305.378	5.95
305.748	5.99
306.117	6.06
306.487	6.13
306.857	6.02
307.227	5.98
307.597	5.92
307.967	5.94
308.336	6.01
308.706	6.23
309.076	6.24
309.445	6.22
309.815	6.26
310.184	6.13
310.554	6.04
310.923	6.1
311.293	6.11
311.662	6.09
312.031	6.16
312.401	6.04
312.77	6.04
313.139	6.06
313.508	6.13
313.877	5.91
314.246	5.85
314.616	6.02
314.985	6.08
315.353	6.04
315.722	6.06
316.091	5.94
316.46	5.83
316.829	5.85
317.198	5.93
317.567	5.83
317.935	5.91
318.304	5.96
318.672	5.79
319.041	5.88
319.41	5.99
319.778	5.97
320.147	5.97
320.515	5.95
320.883	5.81
321.252	5.7
321.62	5.97
321.988	5.96
322.357	5.93
322.725	5.96
323.093	6.14
323.461	6.14
323.829	6.3
324.197	6.38
324.565	6.4
324.933	6.47
325.301	6.54
325.669	6.59
326.037	6.44
326.405	6.65
326.772	6.64
327.14	6.75
327.508	6.81
327.875	6.98
328.243	7.16
328.61	7.32
328.978	7.43
329.346	7.44
329.713	7.53
330.08	7.53
330.448	7.53
330.815	7.4
331.182	7.38
331.55	7.42
331.917	7.39
332.284	7.57
332.651	7.42
333.018	7.51
333.385	7.6
333.752	7.86
334.119	7.85
334.486	7.87
334.853	7.85
335.22	7.8
335.587	7.64
335.954	7.72
336.32	7.71
336.687	7.7
337.054	7.63
337.42	7.72
337.787	7.85
338.153	7.76
338.52	7.77
338.886	7.74
339.253	7.8
339.619	7.83
339.986	7.65
340.352	7.73
340.718	7.73
341.084	7.62
341.451	7.64
341.817	7.74
342.183	7.7
342.549	7.65
342.915	7.72
343.281	7.73
343.647	7.56
344.013	7.57
344.379	7.6
344.745	7.69
345.11	7.67
345.476	7.63
345.842	7.66
346.208	7.76
346.573	7.85
346.939	7.84
347.304	7.86
347.67	7.94
348.035	7.93
348.401	7.89
348.766	7.99
349.132	7.92
349.497	7.78
349.862	7.77
350.228	7.78
350.593	7.77
350.958	7.88
351.323	7.93
351.688	7.87
352.053	7.87
352.418	7.87
352.783	7.81
353.148	7.82
353.513	7.83
353.878	7.82
354.243	7.81
354.608	7.79
354.972	7.77
355.337	7.78
355.702	7.85
356.066	7.87
356.431	7.8
356.795	7.8
357.16	7.78
357.524	7.78
357.889	7.76
358.253	7.73
358.618	7.66
358.982	7.65
359.346	7.62
359.71	7.56
360.075	7.52
360.439	7.55
360.803	7.5
361.167	7.48
361.531	7.43
361.895	7.41
362.259	7.4
362.623	7.45
362.987	7.43
363.351	7.39
363.714	7.35
364.078	7.3
364.442	7.22
364.806	7.24
365.169	7.25
365.533	7.19
365.896	7.18
366.26	7.12
366.623	7.07
366.987	7.1
367.35	7.16
367.714	7.16
368.077	7
368.44	6.95
368.803	6.89
369.167	6.83
369.53	6.79
369.893	6.71
370.256	6.64
370.619	6.52
370.982	6.44
371.345	6.38
371.708	6.37
372.071	6.35
372.434	6.28
372.797	6.21
373.159	6.2
373.522	6.18
373.885	6.2
374.247	6.22
374.61	6.18
374.973	6.09
375.335	6.03
375.698	6.08
376.06	6.06
376.423	6.02
376.785	6
377.147	5.99
377.51	5.99
377.872	5.89
378.234	5.92
378.596	5.9
378.958	5.9
379.321	5.86
379.683	5.86
380.045	5.83
380.407	5.83
380.769	5.77
381.13	5.72
381.492	5.65
381.854	5.64
382.216	5.55
382.578	5.5
382.939	5.42
383.301	5.34
383.663	5.33
384.024	5.28
384.386	5.29
384.747	5.28
385.109	5.25
385.47	5.24
385.832	5.18
386.193	5.15
386.554	5.13
386.916	5.09
387.277	5.08
387.638	5.07
387.999	5.04
388.36	5.04
388.721	5.03
389.082	5
389.443	4.91
389.804	4.92
390.165	4.89
390.526	4.93
390.887	4.98
391.248	4.92
391.609	4.92
391.969	4.87
392.33	4.82
392.691	4.77
393.051	4.75
393.412	4.75
393.772	4.74
394.133	4.71
394.493	4.72
394.854	4.68
395.214	4.68
395.574	4.65
395.935	4.63
396.295	4.63
396.655	4.63
397.015	4.63
397.376	4.59
397.736	4.56
398.096	4.55
398.456	4.53
398.816	4.52
399.176	4.54
399.535	4.51
399.895	4.47
400.255	4.47
400.615	4.49
400.975	4.47
401.334	4.43
401.694	4.4
402.054	4.36
402.413	4.34
402.773	4.3
403.132	4.3
403.492	4.28
403.851	4.25
404.211	4.23
404.57	4.19
404.929	4.18
405.288	4.18
405.648	4.13
406.007	4.09
406.366	4.07
406.725	4.06
407.084	4.05
407.443	4.04
407.802	4.04
408.161	4.02
408.52	4
408.879	3.97
409.238	3.98
409.596	3.97
409.955	3.95
410.314	3.95
410.673	3.92
411.031	3.91
411.39	3.9
411.748	3.88
412.107	3.89
412.465	3.88
412.824	3.88
413.182	3.88
413.54	3.88
413.899	3.9
414.257	3.87
414.615	3.87
414.974	3.88
415.332	3.84
415.69	3.84
416.048	3.82
416.406	3.83
416.764	3.82
417.122	3.82
417.48	3.82
417.838	3.84
418.195	3.85
418.553	3.84
418.911	3.82
419.269	3.83
419.626	3.82
419.984	3.82
420.342	3.82
420.699	3.82
421.057	3.81
421.414	3.8
421.772	3.8
422.129	3.8
422.486	3.79
422.844	3.8
423.201	3.78
423.558	3.78
423.915	3.78
424.273	3.78
424.63	3.77
424.987	3.76
425.344	3.74
425.701	3.74
426.058	3.73
426.415	3.73
426.772	3.72
427.128	3.71
427.485	3.69
427.842	3.7
428.199	3.69
428.555	3.68
428.912	3.7
429.269	3.71
429.625	3.68
429.982	3.69
430.338	3.67
430.695	3.7
431.051	3.69
431.407	3.69
431.764	3.67
432.12	3.69
432.476	3.68
432.832	3.68
433.189	3.68
433.545	3.66
433.901	3.66
434.257	3.66
434.613	3.68
434.969	3.69
435.325	3.68
435.681	3.68
436.036	3.66
436.392	3.66
436.748	3.63
437.104	3.65
437.459	3.62
437.815	3.65
438.171	3.65
438.526	3.65
438.882	3.65
439.237	3.66
439.593	3.66
439.948	3.67
440.304	3.67
440.659	3.67
441.014	3.68
441.369	3.67
441.725	3.67
442.08	3.67
442.435	3.65
442.79	3.66
443.145	3.67
443.5	3.68
443.855	3.66
444.21	3.68
444.565	3.67
444.92	3.71
445.275	3.68
445.629	3.66
445.984	3.66
446.339	3.64
446.693	3.64
447.048	3.63
447.403	3.62
447.757	3.61
448.112	3.6
448.466	3.59
448.82	3.6
449.175	3.6
449.529	3.59
449.883	3.58
450.238	3.56
450.592	3.55
450.946	3.55
451.3	3.55
451.654	3.52
452.008	3.51
452.362	3.47
452.716	3.47
453.07	3.47
453.424	3.48
453.778	3.48
454.132	3.48
454.486	3.46
454.839	3.45
455.193	3.45
455.547	3.45
455.9	3.48
456.254	3.51
456.607	3.5
456.961	3.5
457.314	3.53
457.668	3.55
458.021	3.55
458.375	3.55
458.728	3.57
459.081	3.57
459.434	3.58
459.787	3.59
460.141	3.6
460.494	3.63
460.847	3.63
461.2	3.63
461.553	3.63
461.906	3.65
462.259	3.66
462.611	3.65
462.964	3.65
463.317	3.63
463.67	3.62
464.022	3.63
464.375	3.64
464.728	3.64
465.08	3.63
465.433	3.63
465.785	3.64
466.138	3.64
466.49	3.64
466.843	3.63
467.195	3.63
467.547	3.64
467.899	3.63
468.252	3.62
468.604	3.64
468.956	3.62
469.308	3.62
469.66	3.6
470.012	3.62
470.364	3.64
470.716	3.65
471.068	3.64
471.42	3.64
471.772	3.64
472.123	3.63
472.475	3.65
472.827	3.66
473.178	3.66
473.53	3.65
473.882	3.67
474.233	3.69
474.585	3.7
474.936	3.68
475.288	3.69
475.639	3.69
475.99	3.68
476.342	3.7
476.693	3.73
477.044	3.75
477.395	3.77
477.746	3.77
478.097	3.77
478.448	3.77
478.8	3.77
479.15	3.75
479.501	3.74
479.852	3.74
480.203	3.73
480.554	3.72
480.905	3.73
481.255	3.71
481.606	3.71
481.957	3.71
482.307	3.72
482.658	3.71
483.009	3.72
483.359	3.71
483.709	3.71
484.06	3.7
484.41	3.71
484.761	3.71
485.111	3.71
485.461	3.71
485.811	3.71
486.162	3.71
486.512	3.72
486.862	3.73
487.212	3.73
487.562	3.74
487.912	3.75
488.262	3.74
488.612	3.75
488.961	3.75
489.311	3.75
489.661	3.75
490.011	3.75
490.36	3.74
490.71	3.76
491.06	3.75
491.409	3.76
491.759	3.76
492.108	3.75
492.458	3.76
492.807	3.76
493.157	3.77
493.506	3.79
493.855	3.77
494.204	3.78
494.554	3.77
494.903	3.77
495.252	3.77
495.601	3.79
495.95	3.8
496.299	3.8
496.648	3.82
496.997	3.83
497.346	3.85
497.695	3.88
498.043	3.88
498.392	3.9
498.741	3.93
499.09	3.93
499.438	3.95
499.787	3.95
500.135	3.96
500.484	3.97
500.832	3.98
501.181	4.01
501.529	4.03
501.878	4.07
502.226	4.1
502.574	4.11
502.923	4.12
503.271	4.13
503.619	4.18
503.967	4.19
504.315	4.23
504.663	4.25
505.011	4.28
505.359	4.3
505.707	4.33
506.055	4.35
506.403	4.38
506.751	4.41
507.098	4.45
507.446	4.51
507.794	4.54
508.141	4.57
508.489	4.58
508.837	4.61
509.184	4.64
509.531	4.69
509.879	4.75
510.226	4.78
510.574	4.82
510.921	4.85
511.268	4.88
511.616	4.91
511.963	4.93
512.31	4.95
512.657	5
513.004	5.05
513.351	5.08
513.698	5.13
514.045	5.19
514.392	5.23
514.739	5.26
515.086	5.31
515.432	5.36
515.779	5.43
516.126	5.49
516.473	5.54
516.819	5.57
517.166	5.59
517.512	5.64
517.859	5.69
518.205	5.73
518.552	5.81
518.898	5.86
519.245	5.91
519.591	5.95
519.937	6.01
520.283	6.05
520.629	6.12
520.976	6.17
521.322	6.23
521.668	6.28
522.014	6.38
522.36	6.46
522.706	6.55
523.052	6.64
523.398	6.73
523.743	6.8
524.089	6.91
524.435	7.02
524.781	7.12
525.126	7.21
525.472	7.29
525.817	7.37
526.163	7.43
526.509	7.5
526.854	7.58
527.199	7.64
527.545	7.71
527.89	7.78
528.235	7.85
528.581	7.92
528.926	8.01
529.271	8.07
529.616	8.14
529.961	8.21
530.306	8.29
530.651	8.36
530.996	8.47
531.341	8.57
531.686	8.68
532.031	8.79
532.376	8.9
532.721	9.01
533.065	9.12
533.41	9.25
533.755	9.38
534.099	9.52
534.444	9.65
534.788	9.81
535.133	9.96
535.477	10.1
535.822	10.27
536.166	10.41
536.51	10.59
536.855	10.78
537.199	11
537.543	11.21
537.887	11.44
538.231	11.65
538.576	11.86
538.92	12.06
539.264	12.24
539.608	12.46
539.951	12.66
540.295	12.85
540.639	13.03
540.983	13.22
541.327	13.4
541.671	13.61
542.014	13.79
542.358	13.95
542.701	14.13
543.045	14.31
543.389	14.51
543.732	14.71
544.075	14.91
544.419	15.12
544.762	15.33
545.105	15.56
545.449	15.79
545.792	16.03
546.135	16.3
546.478	16.59
546.821	16.84
547.165	17.16
547.508	17.47
547.851	17.79
548.194	18.07
548.536	18.41
548.879	18.69
549.222	19.02
549.565	19.34
549.908	19.69
550.25	20.04
550.593	20.37
550.936	20.72
551.278	21.06
551.621	21.43
551.963	21.76
552.306	22.08
552.648	22.39
552.991	22.75
553.333	23.04
553.675	23.35
554.017	23.67
554.36	23.99
554.702	24.3
555.044	24.61
555.386	24.98
555.728	25.29
556.07	25.63
556.412	25.93
556.754	26.3
557.096	26.67
557.438	27.02
557.78	27.39
558.121	27.73
558.463	28.08
558.805	28.38
559.147	28.75
559.488	29.13
559.83	29.43
560.171	29.74
560.513	30.11
560.854	30.45
561.196	30.79
561.537	31.07
561.878	31.38
562.22	31.71
562.561	31.95
562.902	32.24
563.243	32.56
563.584	32.86
563.925	33.13
564.266	33.34
564.607	33.58
564.948	33.82
565.289	34.11
565.63	34.36
565.971	34.61
566.312	34.83
566.653	35.12
566.993	35.41
567.334	35.62
567.675	35.85
568.015	36.17
568.356	36.45
568.696	36.73
569.037	36.98
569.377	37.23
569.718	37.52
570.058	37.75
570.398	38.01
570.739	38.28
571.079	38.56
571.419	38.83
571.759	39.07
572.099	39.31
572.439	39.53
572.779	39.68
573.119	39.86
573.459	40.03
573.799	40.24
574.139	40.43
574.479	40.69
574.819	40.89
575.158	40.98
575.498	41.13
575.838	41.37
576.177	41.55
576.517	41.71
576.856	41.94
577.196	42.1
577.535	42.25
577.875	42.38
578.214	42.45
578.553	42.63
578.893	42.84
579.232	43
579.571	43.25
579.91	43.52
580.25	43.78
580.589	44.01
580.928	44.08
581.267	44.28
581.606	44.42
581.945	44.62
582.283	44.79
582.622	44.96
582.961	45
583.3	45.18
583.639	45.39
583.977	45.51
584.316	45.73
584.654	45.93
584.993	46.17
585.332	46.4
585.67	46.56
586.008	46.7
586.347	46.88
586.685	46.97
587.024	47.11
587.362	47.26
587.7	47.44
588.038	47.65
588.376	47.81
588.715	47.94
589.053	48.07
589.391	48.26
589.729	48.4
590.067	48.49
590.404	48.63
590.742	48.66
591.08	48.78
591.418	48.89
591.756	49
592.093	49.12
592.431	49.26
592.769	49.38
593.106	49.51
593.444	49.62
593.781	49.68
594.119	49.72
594.456	49.88
594.793	49.99
595.131	50.04
595.468	50.14
595.805	50.25
596.143	50.33
596.48	50.42
596.817	50.42
597.154	50.55
597.491	50.61
597.828	50.79
598.165	50.87
598.502	50.97
598.839	51.07
599.176	51.18
599.512	51.32
599.849	51.43
600.186	51.53
600.523	51.65
600.859	51.86
601.196	52.03
601.532	52.03
601.869	52.02
602.205	52.15
602.542	52.22
602.878	52.25
603.215	52.37
603.551	52.44
603.887	52.64
604.223	52.73
604.56	52.81
604.896	52.87
605.232	52.91
605.568	52.96
605.904	53.02
606.24	53.04
606.576	53.08
606.912	53.16
607.248	53.23
607.583	53.3
607.919	53.33
608.255	53.38
608.591	53.52
608.926	53.62
609.262	53.7
609.597	53.71
609.933	53.84
610.268	53.92
610.604	53.94
610.939	54.01
611.275	54.08
611.61	54.23
611.945	54.32
612.281	54.4
612.616	54.53
612.951	54.6
613.286	54.72
613.621	54.78
613.956	54.82
614.291	54.82
614.626	54.81
614.961	54.86
615.296	54.95
615.631	54.94
615.966	55.01
616.3	54.99
616.635	55.12
616.97	55.13
617.304	55.12
617.639	55.25
617.973	55.27
618.308	55.36
618.642	55.35
618.977	55.34
619.311	55.43
619.646	55.46
619.98	55.45
620.314	55.47
620.648	55.53
620.983	55.62
621.317	55.77
621.651	56.01
621.985	56.07
622.319	56.11
622.653	56.25
622.987	56.37
623.321	56.54
623.655	56.49
623.988	56.56
624.322	56.65
624.656	56.7
624.99	56.76
625.323	56.77
625.657	56.82
625.99	56.87
626.324	56.91
626.657	56.94
626.991	57.07
627.324	57.15
627.658	57.23
627.991	57.22
628.324	57.28
628.657	57.19
628.991	57.13
629.324	57.17
629.657	57.08
629.99	57.14
630.323	57.11
630.656	57.27
630.989	57.38
631.322	57.34
631.655	57.34
631.987	57.34
632.32	57.42
632.653	57.48
632.986	57.55
633.318	57.61
633.651	57.68
633.984	57.61
634.316	57.67
634.649	57.68
634.981	57.74
635.313	57.77
635.646	57.87
635.978	58.05
636.31	58.06
636.643	58.16
636.975	58.2
637.307	58.24
637.639	58.27
637.971	58.21
638.303	58.19
638.635	58.26
638.967	58.39
639.299	58.41
639.631	58.43
639.963	58.5
640.295	58.55
640.626	58.57
640.958	58.64
641.29	58.58
641.621	58.52
641.953	58.71
642.285	58.74
642.616	58.79
642.948	58.84
643.279	58.95
643.61	59.09
643.942	59.07
644.273	59.12
644.604	59.17
644.936	59.2
645.267	59.35
645.598	59.35
645.929	59.39
646.26	59.46
646.591	59.57
646.922	59.57
647.253	59.54
647.584	59.54
647.915	59.65
648.245	59.85
648.576	60.03
648.907	60.01
649.238	59.95
649.568	59.96
649.899	59.87
650.229	59.89
650.56	59.85
650.89	59.9
651.221	59.99
651.551	60.08
651.882	60.06
652.212	60.23
652.542	60.3
652.872	60.26
653.203	60.29
653.533	60.27
653.863	60.26
654.193	60.33
654.523	60.36
654.853	60.35
655.183	60.31
655.513	60.33
655.843	60.32
656.172	60.38
656.502	60.45
656.832	60.62
657.162	60.62
657.491	60.67
657.821	60.69
658.15	60.65
658.48	60.64
658.809	60.63
659.139	60.53
659.468	60.6
659.798	60.58
660.127	60.6
660.456	60.58
660.785	60.68
661.115	60.73
661.444	60.81
661.773	60.86
662.102	60.86
662.431	60.94
662.76	61.01
663.089	60.98
663.418	60.91
663.747	60.85
664.076	60.92
664.404	60.91
664.733	61.01
665.062	61.16
665.39	61.17
665.719	61.31
666.048	61.5
666.376	61.45
666.705	61.58
667.033	61.56
667.362	61.76
667.69	61.65
668.018	61.64
668.347	61.51
668.675	61.49
669.003	61.59
669.331	61.57
669.659	61.62
669.987	61.81
670.315	61.95
670.643	61.96
670.971	61.94
671.299	62.02
671.627	61.97
671.955	61.92
672.283	61.92
672.61	61.9
672.938	61.72
673.266	61.69
673.593	61.63
673.921	61.71
674.249	61.67
674.576	61.82
674.904	61.87
675.231	62.13
675.558	62.24
675.886	62.21
676.213	62.19
676.54	61.99
676.867	61.93
677.195	61.98
677.522	61.95
677.849	61.97
678.176	62.01
678.503	62.12
678.83	62.22
679.157	62.17
679.484	62.25
679.81	62.39
680.137	62.47
680.464	62.51
680.791	62.54
681.117	62.42
681.444	62.48
681.771	62.42
682.097	62.43
682.424	62.42
682.75	62.34
683.077	62.36
683.403	62.53
683.729	62.65
684.056	62.61
684.382	62.74
684.708	62.82
685.034	62.68
685.36	62.63
685.686	62.52
686.012	62.72
686.339	62.74
686.664	62.71
686.99	62.71
687.316	62.8
687.642	62.78
687.968	62.79
688.294	62.81
688.619	63
688.945	62.87
689.271	62.9
689.596	63
689.922	62.98
690.247	62.9
690.573	62.76
690.898	62.87
691.224	62.83
691.549	62.77
691.874	63.05
692.2	63.13
692.525	62.97
692.85	62.99
693.175	63.01
693.5	63.1
693.825	63.21
694.15	63.44
694.475	63.55
694.8	63.63
695.125	63.53
695.45	63.46
695.775	63.54
696.099	63.5
696.424	63.37
696.749	63.32
697.073	63.48
697.398	63.49
697.723	63.42
698.047	63.41
698.372	63.57
698.696	63.42
699.02	63.41
699.345	63.6
699.669	63.53
699.993	63.63
700.318	63.65
700.642	63.57
700.966	63.48
701.29	63.5
701.614	63.6
701.938	63.59
702.262	63.68
702.586	63.66
702.91	63.53
703.234	63.56
703.557	63.71
703.881	63.74
704.205	64
704.529	63.94
704.852	64.02
705.176	63.87
705.499	63.81
705.823	63.95
706.146	63.98
706.47	64.03
706.793	63.94
707.117	63.88
707.44	63.91
707.763	63.78
708.086	63.61
708.409	63.6
708.733	63.6
709.056	63.68
709.379	63.7
709.702	64.18
710.025	64.25
710.348	64.17
710.671	64.18
710.993	64.04
711.316	64.05
711.639	64.08
711.962	64.11
712.284	64.29
712.607	64.23
712.93	64.17
713.252	64.07
713.575	64.07
713.897	64.21
714.22	64.25
714.542	64.33
714.864	64.34
715.187	64.43
715.509	64.43
715.831	64.45
716.153	64.54
716.475	64.29
716.798	64.31
717.12	64.46
717.442	64.52
717.764	64.5
718.085	64.51
718.407	64.51
718.729	64.7
719.051	64.7
719.373	64.68
719.695	64.98
720.016	65.09
720.338	64.89
720.659	64.64
720.981	64.51
721.302	64.39
721.624	64.25
721.945	64.14
722.267	64.11
722.588	63.93
722.909	63.69
723.231	63.74
723.552	63.62
723.873	63.62
724.194	63.65
724.515	63.57
724.836	63.69
725.157	63.79
725.478	63.56
725.799	63.77
726.12	63.8
726.441	63.5
726.762	63.6
727.083	63.81
727.403	64.06
727.724	64.36
728.045	64.31
728.365	64.41
728.686	64.31
729.006	64.39
729.327	64.45
729.647	64.73
729.967	64.63
730.288	64.82
730.608	64.7
730.928	64.64
731.249	64.63
731.569	64.63
731.889	64.67
732.209	64.74
732.529	64.63
732.849	64.49
733.169	64.49
733.489	64.57
733.809	64.58
734.129	64.33
734.448	64.64
734.768	64.76
735.088	64.94
735.408	65.09
735.727	65.19
736.047	65.02
736.366	64.88
736.686	64.98
737.005	64.94
737.325	65.03
737.644	65.02
737.963	65.11
738.283	65.13
738.602	64.99
738.921	65.11
739.24	64.94
739.56	65.04
739.879	65.26
740.198	65.23
740.517	65.46
740.836	65.76
741.155	65.08
741.473	65.14
741.792	65.04
742.111	64.81
742.43	64.64
742.748	64.58
743.067	64.93
743.386	64.83
743.704	64.95
744.023	65.16
744.341	64.98
744.66	65.08
744.978	64.95
745.297	65.02
745.615	64.76
745.933	64.6
746.252	64.65
746.57	64.52
746.888	64.56
747.206	64.49
747.524	64.47
747.842	64.77
748.16	64.7
748.478	64.92
748.796	64.97
749.114	65.35
749.432	65.54
749.749	65.08
750.067	65.28
750.385	65.19
750.703	65.03
751.02	64.93
751.338	65.29
751.655	65.39
751.973	65.6
752.29	65.67
752.608	65.68
752.925	65.74
753.242	65.7
753.56	65.49
753.877	65.47
754.194	65.02
754.511	64.74
754.828	64.64
755.145	64.37
755.462	64.67
755.779	64.57
756.096	64.58
756.413	64.44
756.73	64.21
757.047	64.4
757.364	64.54
757.68	64.89
757.997	64.26
758.314	64.43
758.63	64.17
758.947	64.3
759.264	64.45
759.58	64.69
759.896	64.88
760.213	65.04
760.529	64.95
760.846	65.24
761.162	65.55
761.478	65.59
761.794	65.71
762.11	65.58
762.426	65.59
762.743	65.87
763.059	66.05
763.375	66.1
763.69	66
764.006	65.79
764.322	65.77
764.638	66.01
764.954	66.02
765.27	66.05
765.585	65.75
765.901	66.02
766.216	65.72
766.532	65.63
766.848	65.5
767.163	65.53
767.478	65.51
767.794	65.31
768.109	65.35
768.424	65.44
768.74	65.64
769.055	65.32
769.37	64.79
769.685	64.83
770	64.77
770.315	64.55
770.63	64.4
770.945	64.45
771.26	64.31
771.575	64.14
771.89	64.26
772.205	64.78
772.52	64.86
772.834	65.21
773.149	65.19
773.464	65.08
773.778	65.28
774.093	65.32
774.407	65.66
774.722	65.38
775.036	65.25
775.351	65.75
775.665	65.88
775.979	66.13
776.293	66.38
776.608	66.73
776.922	66.82
777.236	67.22
777.55	67.03
777.864	67.22
778.178	67.21
778.492	66.98
778.806	66.61
779.12	66.36
779.434	66.15
779.747	66.38
780.061	66.32
780.375	66.19
780.689	66.21
781.002	65.93
781.316	65.86
781.629	66.03
781.943	65.31
782.256	65.33
782.57	65.74
782.883	65.46
783.196	65.49
783.51	65.34
783.823	65.26
784.136	65.4
784.449	65.2
784.762	65.94
785.075	66.04
785.388	65.93
785.701	66.12
786.014	65.86
786.327	65.57
786.64	66.06
786.953	65.91
787.266	65.74
787.578	65.94
787.891	66.02
788.204	65.83
788.516	66.15
788.829	66.14
789.141	65.89
789.454	65.97
789.766	65.64
790.079	66.27
790.391	66.33
790.703	67.1
791.016	67.6
791.328	67.18
791.64	67.1
791.952	67.51
792.264	67.48
792.576	67.07
792.888	67.31
793.2	67.09
793.512	67.03
793.824	67.76
794.136	67.63
794.448	68.11
794.76	68.76
795.071	68.5
795.383	68.62
795.695	68.43
796.006	68.27
796.318	68.62
796.629	68.53
796.941	68.63
797.252	67.72
797.564	67.69
797.875	67.6
798.186	67.23
798.497	67.28
798.809	66.74
799.12	66.65
799.431	66.5
799.742	67.12
800.053	67.23
800.364	66.89
800.675	67.17
800.986	66.81
801.297	66.6
801.608	66.92
801.918	66.4
802.229	66.5
802.54	66.35
802.851	66.03
803.161	65.9
803.472	66.2
803.782	66.36
804.093	65.75
804.403	65.09
804.714	65.8
805.024	65.73
805.334	66.38
805.645	66.97
805.955	67.12
806.265	65.91
806.575	66.31
806.885	66.62
807.195	66.48
807.505	66.85
807.815	66.77
808.125	66.44
808.435	67.26
808.745	67.36
809.055	67.15
809.365	67.54
809.674	66.82
809.984	66.26
810.294	66.02
810.603	66.26
810.913	66.32
811.222	65.78
811.532	66.38
811.841	66.42
812.151	66.75
812.46	66.47
812.769	66.81
813.079	66.27
813.388	66.11
813.697	66.51
814.006	66.23
814.315	65.69
814.624	65.54
814.933	65.44
815.242	64.99
815.551	65.46
815.86	65.37
816.169	66.26
816.478	66.9
816.786	67.26
817.095	67.86
817.404	69.03
817.712	68.96
818.021	68.79
818.33	68.56
818.638	68.91
818.947	68.73
819.255	68.98
819.563	68.62
819.872	68.03
820.18	68.24
820.488	68.01
820.796	67.8
821.105	67.39
821.413	67.38
821.721	67.29
822.029	67.24
822.337	66.98
822.645	67.04
822.953	66.83
823.26	66.76
823.568	66.58
823.876	66.39
824.184	66.43
824.491	66.33
824.799	65.89
825.107	65.71
825.414	65.65
825.722	65.66
826.029	65.87
826.337	66.07
826.644	65.57
826.951	65.49
827.259	65.53
827.566	65.72
827.873	65.68
828.18	65.64
828.488	65.86
828.795	66.15
829.102	65.92
829.409	65.66
829.716	65.46
830.023	65.43
830.329	65.42
830.636	65.65
830.943	65.54
831.25	66.56
831.557	66.77
831.863	66.95
832.17	67.08
832.476	67.04
832.783	67.17
833.089	67.82
833.396	67.79
833.702	67.97
834.009	67.59
834.315	67.57
834.621	68.15
834.928	67.99
835.234	67.95
835.54	67.71
835.846	67.99
836.152	67.7
836.458	67.71
836.764	68.1
837.07	67.54
837.376	66.87
837.682	66.75
837.988	66.8
838.293	66.9
838.599	66.52
838.905	66.06
839.211	65.05
839.516	64.04
839.822	64.88
840.127	65.03
840.433	66.3
840.738	66.8
841.044	66.06
841.349	65.6
841.654	65.54
841.959	65.43
842.265	65.51
842.57	67.45
842.875	67.41
843.18	66.44
843.485	67.75
843.79	71.12
844.095	70.93
844.4	70.56
844.705	68.71
845.01	67.32
845.315	66.89
845.619	67.16
845.924	69.16
846.229	68.87
846.533	68.03
846.838	66.16
847.142	64.36
847.447	63.55
847.751	61.74
848.056	60.88
848.36	62.63
848.664	62.43
848.969	60.87
849.273	61.08
849.577	60.88
849.881	59.89
850.185	57.85
850.489	57.96
850.794	57.87
851.097	59.34
851.401	60.41
851.705	59.22
852.009	59.65
852.313	58.91
852.617	59.53
852.92	60.11
853.224	60.82
853.528	62.55
853.831	63.95
854.135	65.87
854.438	63.41
854.742	60.72
855.045	60.51
855.349	60.19
855.652	59.59
855.955	59.75
856.259	60.92
856.562	58.88
856.865	58.92
857.168	58.52
857.471	60.72
857.774	62.74
858.077	66.54
858.38	66.64
858.683	65.86
858.986	63.87
859.289	63.01
859.592	63.95
859.894	61.51
860.197	61.98
860.5	62.89
860.802	64.56
861.105	67.54
861.407	67.53
861.71	67.93
862.012	70.39
862.315	69.43
862.617	69.1
862.919	67.44
863.222	66.85
863.524	67.39
863.826	68.2
864.128	65.02
864.43	63.58
864.732	63.89
865.034	61.2
865.336	62.55
865.638	60.57
865.94	58.69
866.242	61.34
866.544	60.41
866.846	59.06
867.147	60.27
867.449	58.36
867.751	59.03
868.052	60.11
868.354	56.19
868.655	57.75
868.957	58.21
869.258	62.5
869.56	58.79
869.861	59.46
870.162	56.77
870.463	58.55
870.765	57.28
871.066	57.38
871.367	61.51
871.668	61.38
871.969	65.59
872.27	67.54
872.571	63.62
872.872	64.52
873.173	62.66
873.473	63.92
873.774	63.93
874.075	66.27
874.376	64.03
874.676	66.71
874.977	65.69
875.277	64.43
875.578	61.13
875.878	65.02
876.179	63.89
876.479	64.3
876.78	64.29
877.08	65.52
877.38	65.09
877.68	62.5
877.981	61.13
878.281	57.48
878.581	55.23
