Data from BA56830_Reflection_00012.txt Node
Date: Mon Nov 18 16:04:12 EST 2019
User: vgr7
Spectrometer: USB2G7710
Scans to average: 3
Trigger mode: 4
Integration Time (sec): 2.000000E-2
Electric dark correction enabled: true
Boxcar width: 10
XAxis mode: Wavelengths
Number of Pixels in Spectrum: 2048
>>>>>Begin Spectral Data<<<<<
177.721	72.52
178.105	47.71
178.488	79.55
178.871	57.99
179.254	86.45
179.636	135.95
180.019	4877.78
180.402	100
180.785	-7.79
181.168	-33.53
181.55	9.78
181.933	35.43
182.316	43.91
182.698	51.57
183.081	48.98
183.463	37.52
183.846	30.09
184.228	45.34
184.611	292.98
184.993	-190.04
185.376	986.18
185.758	305.94
186.14	379.13
186.522	172.75
186.904	226.61
187.287	488.13
187.669	-52.88
188.051	498.69
188.433	-24233.33
188.815	-201.13
189.197	-113.09
189.579	-59.42
189.961	-87.66
190.342	-57.21
190.724	-38.86
191.106	-42.74
191.488	-37.16
191.869	-42.41
192.251	-57.65
192.633	-78.97
193.014	-106.35
193.396	-145.87
193.777	-92.47
194.159	-136.95
194.54	-75.8
194.922	-90.4
195.303	-62.64
195.684	-95.19
196.065	-34.35
196.447	-23.4
196.828	-15.96
197.209	-11.11
197.59	3.35
197.971	2.63
198.352	-18.83
198.733	-46.28
199.114	-24.49
199.495	-1.19
199.876	9.35
200.257	6.93
200.638	-7.31
201.018	-10.73
201.399	-1.76
201.78	3.89
202.16	6.53
202.541	3.54
202.922	-15
203.302	-46.89
203.683	-43.31
204.063	-76.06
204.444	-71.35
204.824	-48.45
205.204	-26.33
205.585	-38.47
205.965	-33.61
206.345	-51.63
206.725	-29.23
207.106	-47.47
207.486	-67.72
207.866	-66.84
208.246	-72.13
208.626	-47.63
209.006	-14.1
209.386	-24.07
209.766	-46.17
210.145	-39.59
210.525	-39.54
210.905	-26.1
211.285	-15.85
211.664	-13.11
212.044	-12.41
212.424	-20.26
212.803	-32.26
213.183	-45.54
213.562	-45.63
213.942	-25.21
214.321	0.13
214.701	-14.8
215.08	-26.59
215.459	-34.13
215.838	-32.63
216.218	-27.73
216.597	-37.38
216.976	-43.26
217.355	-32.52
217.734	-25.14
218.113	-12.71
218.492	-19.37
218.871	-13.29
219.25	-4.8
219.629	-8.31
220.008	-17.52
220.387	-24.7
220.766	-15.63
221.144	-20.38
221.523	-17.36
221.902	-33.06
222.28	-46.38
222.659	-37.38
223.037	-27.82
223.416	-30.04
223.794	-29.24
224.173	-30.72
224.551	-21.45
224.929	-25.73
225.308	-21.35
225.686	-16.79
226.064	-16.89
226.442	-11.11
226.821	-11.02
227.199	-9.8
227.577	-9.15
227.955	-5.51
228.333	-2.48
228.711	-3.03
229.089	1.21
229.467	-0.31
229.845	-2.28
230.222	-0.03
230.6	0.32
230.978	-1.73
231.356	0.33
231.733	0.75
232.111	2.7
232.488	1.07
232.866	2.02
233.243	0.56
233.621	1.23
233.998	2.13
234.376	1.22
234.753	1.15
235.13	0.72
235.508	1.97
235.885	2.02
236.262	0.83
236.639	1.7
237.016	1.09
237.393	2.01
237.77	4.09
238.147	4.37
238.524	4.15
238.901	5.21
239.278	4.92
239.655	4.91
240.032	4.56
240.409	4.66
240.785	4.5
241.162	5.19
241.539	5.19
241.915	5.1
242.292	5.2
242.668	5.14
243.045	5
243.421	4.86
243.798	4.79
244.174	5.07
244.551	4.91
244.927	4.67
245.303	4.71
245.679	4.84
246.056	4.82
246.432	4.87
246.808	5.1
247.184	5
247.56	4.86
247.936	4.82
248.312	4.95
248.688	5.2
249.064	5.13
249.44	5.06
249.815	5.04
250.191	5.02
250.567	4.95
250.943	5.11
251.318	5.13
251.694	4.91
252.069	4.85
252.445	4.71
252.82	4.74
253.196	4.66
253.571	4.63
253.947	4.51
254.322	4.21
254.697	3.67
255.073	3.55
255.448	3.64
255.823	3.8
256.198	3.71
256.573	3.54
256.948	3.67
257.323	3.82
257.698	3.91
258.073	3.9
258.448	4.14
258.823	3.97
259.198	4
259.573	4.14
259.948	4.05
260.322	4.13
260.697	4.14
261.072	4.03
261.446	4.05
261.821	4.02
262.195	4.28
262.57	4.25
262.944	4.31
263.319	4.22
263.693	4.16
264.067	4.27
264.442	4.33
264.816	4.32
265.19	4.16
265.564	4.1
265.938	3.95
266.313	3.76
266.687	3.97
267.061	4.04
267.435	4.02
267.809	4.13
268.183	4.25
268.556	4.2
268.93	4.25
269.304	4.07
269.678	4.28
270.051	4.14
270.425	4.28
270.799	4.29
271.172	4.32
271.546	4.44
271.919	4.29
272.293	4.18
272.666	4.22
273.04	4.27
273.413	4.29
273.787	4.43
274.16	4.45
274.533	4.23
274.906	4.16
275.279	4.2
275.653	4.17
276.026	4.06
276.399	4.04
276.772	4.03
277.145	4.03
277.518	3.87
277.891	3.82
278.263	3.87
278.636	3.98
279.009	3.81
279.382	3.75
279.755	3.7
280.127	3.77
280.5	3.64
280.872	3.68
281.245	3.61
281.617	3.66
281.99	3.62
282.362	3.64
282.735	3.56
283.107	3.63
283.479	3.69
283.852	3.72
284.224	3.82
284.596	3.95
284.968	4.07
285.34	4.13
285.713	4.08
286.085	4.01
286.457	3.92
286.829	4.06
287.201	3.99
287.572	3.98
287.944	4.06
288.316	4.11
288.688	4.06
289.06	4.12
289.431	4.17
289.803	4.21
290.175	4.37
290.546	4.42
290.918	4.34
291.289	4.29
291.661	4.31
292.032	4.41
292.403	4.46
292.775	4.55
293.146	4.51
293.517	4.56
293.889	4.64
294.26	4.67
294.631	4.72
295.002	4.86
295.373	4.93
295.744	4.82
296.115	4.86
296.486	4.74
296.857	4.8
297.228	4.79
297.599	4.68
297.97	4.69
298.34	4.81
298.711	4.9
299.082	4.83
299.452	4.97
299.823	4.99
300.194	4.96
300.564	4.8
300.935	4.92
301.305	5.04
301.676	5.15
302.046	5.29
302.416	5.39
302.787	5.4
303.157	5.45
303.527	5.61
303.897	5.55
304.267	5.84
304.637	5.84
305.008	5.9
305.378	6.16
305.748	6.21
306.117	6.25
306.487	6.35
306.857	6.65
307.227	6.52
307.597	6.5
307.967	6.68
308.336	6.89
308.706	6.98
309.076	6.95
309.445	6.99
309.815	7.02
310.184	6.95
310.554	6.91
310.923	7.01
311.293	7.06
311.662	7.1
312.031	7.05
312.401	7.12
312.77	7.24
313.139	7.19
313.508	7.27
313.877	7.23
314.246	7.21
314.616	7.17
314.985	7.26
315.353	7.25
315.722	7.3
316.091	7.24
316.46	7.23
316.829	7.38
317.198	7.29
317.567	7.28
317.935	7.46
318.304	7.63
318.672	7.63
319.041	7.56
319.41	7.66
319.778	7.81
320.147	7.95
320.515	7.86
320.883	8.04
321.252	8.02
321.62	8.17
321.988	8.27
322.357	8.41
322.725	8.54
323.093	8.59
323.461	8.54
323.829	8.61
324.197	8.69
324.565	8.78
324.933	8.88
325.301	8.88
325.669	8.87
326.037	8.87
326.405	8.92
326.772	9.19
327.14	9.29
327.508	9.34
327.875	9.28
328.243	9.26
328.61	9.25
328.978	9.44
329.346	9.56
329.713	9.61
330.08	9.69
330.448	9.79
330.815	9.89
331.182	9.97
331.55	10.02
331.917	9.99
332.284	10.04
332.651	10.02
333.018	10.14
333.385	10.2
333.752	10.27
334.119	10.33
334.486	10.27
334.853	10.36
335.22	10.3
335.587	10.45
335.954	10.63
336.32	10.54
336.687	10.53
337.054	10.53
337.42	10.6
337.787	10.62
338.153	10.49
338.52	10.59
338.886	10.51
339.253	10.59
339.619	10.6
339.986	10.56
340.352	10.7
340.718	10.7
341.084	10.77
341.451	10.83
341.817	10.88
342.183	10.88
342.549	10.89
342.915	11
343.281	10.94
343.647	10.91
344.013	11.12
344.379	11
344.745	10.96
345.11	10.89
345.476	10.89
345.842	11
346.208	11.03
346.573	11.18
346.939	11.2
347.304	11.24
347.67	11.2
348.035	11.14
348.401	11.2
348.766	11.18
349.132	11.15
349.497	11.13
349.862	11.17
350.228	11.14
350.593	11.04
350.958	10.97
351.323	11.01
351.688	11.05
352.053	11.13
352.418	11.2
352.783	11.29
353.148	11.21
353.513	11.21
353.878	11.16
354.243	11.19
354.608	11.21
354.972	11.21
355.337	11.27
355.702	11.29
356.066	11.23
356.431	11.26
356.795	11.31
357.16	11.32
357.524	11.26
357.889	11.27
358.253	11.35
358.618	11.45
358.982	11.4
359.346	11.35
359.71	11.31
360.075	11.28
360.439	11.29
360.803	11.26
361.167	11.22
361.531	11.2
361.895	11.1
362.259	11.01
362.623	11.04
362.987	10.97
363.351	10.96
363.714	10.99
364.078	10.88
364.442	10.79
364.806	10.73
365.169	10.72
365.533	10.73
365.896	10.67
366.26	10.64
366.623	10.59
366.987	10.53
367.35	10.58
367.714	10.55
368.077	10.44
368.44	10.48
368.803	10.5
369.167	10.48
369.53	10.41
369.893	10.43
370.256	10.34
370.619	10.29
370.982	10.23
371.345	10.14
371.708	10.18
372.071	10.08
372.434	10.02
372.797	9.95
373.159	9.82
373.522	9.83
373.885	9.75
374.247	9.68
374.61	9.68
374.973	9.52
375.335	9.45
375.698	9.44
376.06	9.28
376.423	9.19
376.785	9.16
377.147	9.19
377.51	9.15
377.872	9.06
378.234	9.04
378.596	9.05
378.958	8.93
379.321	8.88
379.683	8.88
380.045	8.85
380.407	8.79
380.769	8.78
381.13	8.67
381.492	8.63
381.854	8.67
382.216	8.55
382.578	8.5
382.939	8.43
383.301	8.37
383.663	8.38
384.024	8.23
384.386	8.2
384.747	8.12
385.109	8.04
385.47	7.93
385.832	7.89
386.193	7.77
386.554	7.79
386.916	7.7
387.277	7.66
387.638	7.62
387.999	7.55
388.36	7.48
388.721	7.46
389.082	7.43
389.443	7.33
389.804	7.29
390.165	7.23
390.526	7.18
390.887	7.13
391.248	7.1
391.609	7.14
391.969	7.05
392.33	7.01
392.691	6.98
393.051	6.99
393.412	6.95
393.772	6.93
394.133	6.87
394.493	6.84
394.854	6.8
395.214	6.72
395.574	6.68
395.935	6.64
396.295	6.56
396.655	6.48
397.015	6.44
397.376	6.37
397.736	6.36
398.096	6.3
398.456	6.25
398.816	6.24
399.176	6.14
399.535	6.1
399.895	6.04
400.255	5.97
400.615	5.92
400.975	5.89
401.334	5.88
401.694	5.87
402.054	5.82
402.413	5.78
402.773	5.74
403.132	5.73
403.492	5.69
403.851	5.67
404.211	5.64
404.57	5.64
404.929	5.63
405.288	5.61
405.648	5.59
406.007	5.55
406.366	5.49
406.725	5.48
407.084	5.48
407.443	5.46
407.802	5.47
408.161	5.47
408.52	5.44
408.879	5.37
409.238	5.33
409.596	5.29
409.955	5.3
410.314	5.28
410.673	5.25
411.031	5.23
411.39	5.19
411.748	5.17
412.107	5.08
412.465	5.05
412.824	5.01
413.182	4.97
413.54	4.97
413.899	4.94
414.257	4.91
414.615	4.88
414.974	4.85
415.332	4.8
415.69	4.76
416.048	4.73
416.406	4.72
416.764	4.69
417.122	4.68
417.48	4.62
417.838	4.61
418.195	4.58
418.553	4.56
418.911	4.55
419.269	4.52
419.626	4.52
419.984	4.49
420.342	4.49
420.699	4.48
421.057	4.45
421.414	4.44
421.772	4.41
422.129	4.4
422.486	4.38
422.844	4.35
423.201	4.34
423.558	4.32
423.915	4.29
424.273	4.28
424.63	4.25
424.987	4.25
425.344	4.24
425.701	4.23
426.058	4.21
426.415	4.19
426.772	4.18
427.128	4.16
427.485	4.16
427.842	4.12
428.199	4.11
428.555	4.1
428.912	4.11
429.269	4.11
429.625	4.1
429.982	4.1
430.338	4.13
430.695	4.11
431.051	4.1
431.407	4.11
431.764	4.11
432.12	4.11
432.476	4.12
432.832	4.09
433.189	4.09
433.545	4.1
433.901	4.09
434.257	4.09
434.613	4.13
434.969	4.13
435.325	4.13
435.681	4.12
436.036	4.12
436.392	4.11
436.748	4.09
437.104	4.07
437.459	4.05
437.815	4.03
438.171	4.04
438.526	4.03
438.882	4.04
439.237	4.03
439.593	4.03
439.948	4.01
440.304	4.01
440.659	4
441.014	4
441.369	3.97
441.725	3.96
442.08	3.93
442.435	3.91
442.79	3.9
443.145	3.9
443.5	3.88
443.855	3.88
444.21	3.86
444.565	3.87
444.92	3.86
445.275	3.85
445.629	3.84
445.984	3.83
446.339	3.8
446.693	3.8
447.048	3.8
447.403	3.79
447.757	3.77
448.112	3.77
448.466	3.75
448.82	3.75
449.175	3.73
449.529	3.73
449.883	3.71
450.238	3.71
450.592	3.7
450.946	3.69
451.3	3.69
451.654	3.67
452.008	3.67
452.362	3.65
452.716	3.64
453.07	3.64
453.424	3.64
453.778	3.64
454.132	3.62
454.486	3.6
454.839	3.59
455.193	3.57
455.547	3.54
455.9	3.55
456.254	3.57
456.607	3.59
456.961	3.57
457.314	3.59
457.668	3.58
458.021	3.56
458.375	3.57
458.728	3.56
459.081	3.59
459.434	3.58
459.787	3.6
460.141	3.6
460.494	3.6
460.847	3.63
461.2	3.62
461.553	3.64
461.906	3.67
462.259	3.69
462.611	3.72
462.964	3.75
463.317	3.76
463.67	3.74
464.022	3.75
464.375	3.77
464.728	3.78
465.08	3.79
465.433	3.81
465.785	3.82
466.138	3.83
466.49	3.83
466.843	3.84
467.195	3.86
467.547	3.87
467.899	3.88
468.252	3.86
468.604	3.87
468.956	3.86
469.308	3.87
469.66	3.87
470.012	3.87
470.364	3.89
470.716	3.89
471.068	3.92
471.42	3.93
471.772	3.94
472.123	3.95
472.475	3.97
472.827	3.98
473.178	3.99
473.53	3.98
473.882	3.99
474.233	3.99
474.585	3.98
474.936	3.96
475.288	3.97
475.639	3.99
475.99	3.98
476.342	3.99
476.693	3.98
477.044	3.98
477.395	3.97
477.746	3.96
478.097	3.98
478.448	3.96
478.8	3.96
479.15	3.93
479.501	3.92
479.852	3.91
480.203	3.91
480.554	3.92
480.905	3.92
481.255	3.92
481.606	3.91
481.957	3.91
482.307	3.92
482.658	3.91
483.009	3.89
483.359	3.89
483.709	3.91
484.06	3.91
484.41	3.91
484.761	3.91
485.111	3.9
485.461	3.89
485.811	3.89
486.162	3.89
486.512	3.91
486.862	3.93
487.212	3.93
487.562	3.93
487.912	3.92
488.262	3.92
488.612	3.93
488.961	3.94
489.311	3.95
489.661	3.96
490.011	3.98
490.36	3.99
490.71	4
491.06	4
491.409	4.02
491.759	4.02
492.108	4.04
492.458	4.06
492.807	4.08
493.157	4.12
493.506	4.14
493.855	4.15
494.204	4.15
494.554	4.18
494.903	4.2
495.252	4.23
495.601	4.25
495.95	4.28
496.299	4.29
496.648	4.31
496.997	4.33
497.346	4.36
497.695	4.4
498.043	4.42
498.392	4.44
498.741	4.46
499.09	4.47
499.438	4.51
499.787	4.55
500.135	4.59
500.484	4.62
500.832	4.65
501.181	4.7
501.529	4.75
501.878	4.78
502.226	4.84
502.574	4.89
502.923	4.95
503.271	5
503.619	5.09
503.967	5.16
504.315	5.23
504.663	5.32
505.011	5.39
505.359	5.48
505.707	5.58
506.055	5.65
506.403	5.73
506.751	5.78
507.098	5.85
507.446	5.93
507.794	5.99
508.141	6.09
508.489	6.16
508.837	6.24
509.184	6.32
509.531	6.4
509.879	6.48
510.226	6.55
510.574	6.64
510.921	6.71
511.268	6.78
511.616	6.86
511.963	6.93
512.31	7
512.657	7.07
513.004	7.16
513.351	7.26
513.698	7.37
514.045	7.48
514.392	7.59
514.739	7.69
515.086	7.79
515.432	7.9
515.779	8.01
516.126	8.1
516.473	8.21
516.819	8.29
517.166	8.36
517.512	8.44
517.859	8.53
518.205	8.59
518.552	8.68
518.898	8.76
519.245	8.85
519.591	8.94
519.937	9.03
520.283	9.13
520.629	9.22
520.976	9.34
521.322	9.47
521.668	9.61
522.014	9.75
522.36	9.91
522.706	10.04
523.052	10.22
523.398	10.41
523.743	10.61
524.089	10.82
524.435	11.02
524.781	11.21
525.126	11.4
525.472	11.6
525.817	11.76
526.163	11.92
526.509	12.06
526.854	12.22
527.199	12.36
527.545	12.48
527.89	12.63
528.235	12.75
528.581	12.91
528.926	13.05
529.271	13.2
529.616	13.36
529.961	13.52
530.306	13.68
530.651	13.85
530.996	14.03
531.341	14.23
531.686	14.42
532.031	14.64
532.376	14.86
532.721	15.09
533.065	15.34
533.41	15.58
533.755	15.85
534.099	16.11
534.444	16.38
534.788	16.66
535.133	16.91
535.477	17.21
535.822	17.47
536.166	17.78
536.51	18.1
536.855	18.43
537.199	18.78
537.543	19.18
537.887	19.56
538.231	19.92
538.576	20.31
538.92	20.72
539.264	21.07
539.608	21.38
539.951	21.72
540.295	22.02
540.639	22.34
540.983	22.62
541.327	22.96
541.671	23.26
542.014	23.55
542.358	23.85
542.701	24.14
543.045	24.43
543.389	24.74
543.732	25.06
544.075	25.38
544.419	25.72
544.762	26.04
545.105	26.37
545.449	26.77
545.792	27.15
546.135	27.49
546.478	27.93
546.821	28.38
547.165	28.79
547.508	29.2
547.851	29.61
548.194	30.07
548.536	30.42
548.879	30.85
549.222	31.34
549.565	31.78
549.908	32.2
550.25	32.66
550.593	33.1
550.936	33.48
551.278	33.96
551.621	34.37
551.963	34.79
552.306	35.26
552.648	35.66
552.991	36.1
553.333	36.52
553.675	36.88
554.017	37.23
554.36	37.6
554.702	38.03
555.044	38.39
555.386	38.75
555.728	39.18
556.07	39.56
556.412	39.86
556.754	40.22
557.096	40.62
557.438	40.98
557.78	41.35
558.121	41.77
558.463	42.11
558.805	42.4
559.147	42.79
559.488	43.06
559.83	43.37
560.171	43.63
560.513	43.93
560.854	44.26
561.196	44.64
561.537	45.03
561.878	45.36
562.22	45.66
562.561	45.99
562.902	46.23
563.243	46.56
563.584	46.85
563.925	47.16
564.266	47.38
564.607	47.68
564.948	47.97
565.289	48.21
565.63	48.44
565.971	48.73
566.312	48.9
566.653	49.17
566.993	49.44
567.334	49.68
567.675	49.94
568.015	50.17
568.356	50.43
568.696	50.56
569.037	50.76
569.377	50.99
569.718	51.24
570.058	51.46
570.398	51.61
570.739	51.89
571.079	52.08
571.419	52.38
571.759	52.57
572.099	52.72
572.439	52.93
572.779	53.1
573.119	53.29
573.459	53.5
573.799	53.64
574.139	53.81
574.479	53.96
574.819	54.1
575.158	54.22
575.498	54.28
575.838	54.49
576.177	54.66
576.517	54.84
576.856	54.95
577.196	55.1
577.535	55.29
577.875	55.44
578.214	55.58
578.553	55.66
578.893	55.81
579.232	56.02
579.571	56.17
579.91	56.38
580.25	56.45
580.589	56.63
580.928	56.83
581.267	56.95
581.606	57.08
581.945	57.26
582.283	57.44
582.622	57.65
582.961	57.74
583.3	57.82
583.639	57.93
583.977	58.04
584.316	58.25
584.654	58.38
584.993	58.45
585.332	58.58
585.67	58.71
586.008	58.82
586.347	58.9
586.685	58.95
587.024	59.01
587.362	59.15
587.7	59.13
588.038	59.25
588.376	59.26
588.715	59.36
589.053	59.39
589.391	59.43
589.729	59.51
590.067	59.54
590.404	59.59
590.742	59.65
591.08	59.68
591.418	59.68
591.756	59.71
592.093	59.76
592.431	59.82
592.769	59.88
593.106	60.02
593.444	60.1
593.781	60.25
594.119	60.31
594.456	60.37
594.793	60.52
595.131	60.6
595.468	60.75
595.805	60.84
596.143	60.89
596.48	61.08
596.817	61.21
597.154	61.27
597.491	61.38
597.828	61.45
598.165	61.55
598.502	61.57
598.839	61.66
599.176	61.83
599.512	61.91
599.849	62.03
600.186	62.04
600.523	62.06
600.859	62.08
601.196	62.19
601.532	62.26
601.869	62.31
602.205	62.35
602.542	62.39
602.878	62.44
603.215	62.46
603.551	62.42
603.887	62.49
604.223	62.55
604.56	62.64
604.896	62.67
605.232	62.77
605.568	62.89
605.904	62.86
606.24	62.88
606.576	62.89
606.912	62.93
607.248	63.01
607.583	63.06
607.919	63.09
608.255	63.1
608.591	63.18
608.926	63.23
609.262	63.29
609.597	63.41
609.933	63.57
610.268	63.7
610.604	63.75
610.939	63.71
611.275	63.78
611.61	63.78
611.945	63.81
612.281	63.87
612.616	63.87
612.951	63.98
613.286	64.06
613.621	64.14
613.956	64.12
614.291	64.11
614.626	64.16
614.961	64.25
615.296	64.36
615.631	64.39
615.966	64.38
616.3	64.39
616.635	64.36
616.97	64.28
617.304	64.34
617.639	64.36
617.973	64.53
618.308	64.61
618.642	64.64
618.977	64.7
619.311	64.71
619.646	64.77
619.98	64.79
620.314	64.64
620.648	64.77
620.983	64.82
621.317	64.9
621.651	64.89
621.985	64.97
622.319	64.89
622.653	65.04
622.987	65.17
623.321	65.23
623.655	65.24
623.988	65.27
624.322	65.3
624.656	65.3
624.99	65.31
625.323	65.36
625.657	65.38
625.99	65.37
626.324	65.34
626.657	65.42
626.991	65.51
627.324	65.7
627.658	65.67
627.991	65.71
628.324	65.67
628.657	65.74
628.991	65.68
629.324	65.75
629.657	65.68
629.99	65.71
630.323	65.75
630.656	65.73
630.989	65.75
631.322	65.78
631.655	65.83
631.987	65.79
632.32	65.7
632.653	65.78
632.986	65.9
633.318	65.94
633.651	65.96
633.984	66.02
634.316	65.93
634.649	65.98
634.981	66.05
635.313	66.09
635.646	66.11
635.978	66.15
636.31	66.19
636.643	66.19
636.975	66.14
637.307	66.17
637.639	66.24
637.971	66.21
638.303	66.16
638.635	66.17
638.967	66.19
639.299	66.37
639.631	66.34
639.963	66.4
640.295	66.36
640.626	66.26
640.958	66.24
641.29	66.25
641.621	66.21
641.953	66.12
642.285	66.21
642.616	66.21
642.948	66.19
643.279	66.2
643.61	66.26
643.942	66.3
644.273	66.16
644.604	66.1
644.936	66.17
645.267	66.28
645.598	66.36
645.929	66.33
646.26	66.32
646.591	66.36
646.922	66.23
647.253	66.38
647.584	66.5
647.915	66.56
648.245	66.62
648.576	66.62
648.907	66.69
649.238	66.58
649.568	66.73
649.899	66.84
650.229	66.91
650.56	66.95
650.89	67
651.221	67.03
651.551	67.16
651.882	67.12
652.212	67.15
652.542	67.06
652.872	67.19
653.203	67.14
653.533	67.2
653.863	67.33
654.193	67.26
654.523	67.28
654.853	67.17
655.183	67.17
655.513	67.2
655.843	67.24
656.172	67.39
656.502	67.24
656.832	67.27
657.162	67.32
657.491	67.28
657.821	67.25
658.15	67.3
658.48	67.29
658.809	67.42
659.139	67.33
659.468	67.4
659.798	67.32
660.127	67.28
660.456	67.22
660.785	67.2
661.115	67.28
661.444	67.34
661.773	67.49
662.102	67.43
662.431	67.47
662.76	67.54
663.089	67.47
663.418	67.5
663.747	67.43
664.076	67.4
664.404	67.47
664.733	67.52
665.062	67.47
665.39	67.48
665.719	67.35
666.048	67.48
666.376	67.48
666.705	67.49
667.033	67.67
667.362	67.69
667.69	67.49
668.018	67.39
668.347	67.23
668.675	67.11
669.003	67.22
669.331	67.21
669.659	67.15
669.987	67.28
670.315	67.44
670.643	67.53
670.971	67.49
671.299	67.5
671.627	67.49
671.955	67.54
672.283	67.43
672.61	67.49
672.938	67.51
673.266	67.53
673.593	67.47
673.921	67.54
674.249	67.43
674.576	67.68
674.904	67.83
675.231	67.91
675.558	67.89
675.886	67.8
676.213	67.86
676.54	67.9
676.867	67.81
677.195	67.86
677.522	67.78
677.849	67.82
678.176	67.88
678.503	67.89
678.83	67.93
679.157	68
679.484	68.06
679.81	67.99
680.137	67.91
680.464	67.92
680.791	67.76
681.117	67.91
681.444	67.92
681.771	67.72
682.097	67.78
682.424	67.79
682.75	67.85
683.077	67.81
683.403	67.89
683.729	67.99
684.056	67.8
684.382	67.84
684.708	67.8
685.034	67.67
685.36	67.66
685.686	67.73
686.012	67.87
686.339	67.86
686.664	67.89
686.99	67.92
687.316	67.93
687.642	68.03
687.968	68.03
688.294	67.89
688.619	68.17
688.945	68.13
689.271	68.28
689.596	68.31
689.922	68.24
690.247	68.11
690.573	68.1
690.898	68.05
691.224	68.11
691.549	68.09
691.874	68.18
692.2	68.3
692.525	68.19
692.85	68.3
693.175	68.36
693.5	68.33
693.825	68.38
694.15	68.5
694.475	68.63
694.8	68.57
695.125	68.6
695.45	68.58
695.775	68.75
696.099	68.57
696.424	68.59
696.749	68.62
697.073	68.7
697.398	68.73
697.723	68.82
698.047	68.8
698.372	68.81
698.696	68.66
699.02	68.58
699.345	68.67
699.669	68.54
699.993	68.48
700.318	68.55
700.642	68.56
700.966	68.63
701.29	68.59
701.614	68.66
701.938	68.77
702.262	68.75
702.586	68.42
702.91	68.56
703.234	68.51
703.557	68.64
703.881	68.39
704.205	68.28
704.529	68.4
704.852	68.51
705.176	68.69
705.499	68.92
705.823	68.96
706.146	68.98
706.47	68.96
706.793	68.96
707.117	68.91
707.44	68.81
707.763	68.71
708.086	68.48
708.409	68.55
708.733	68.51
709.056	68.44
709.379	68.69
709.702	68.67
710.025	68.94
710.348	68.76
710.671	69.07
710.993	68.91
711.316	68.8
711.639	68.66
711.962	68.59
712.284	68.63
712.607	68.77
712.93	68.79
713.252	68.57
713.575	68.67
713.897	68.76
714.22	68.99
714.542	69.09
714.864	69.15
715.187	68.95
715.509	68.8
715.831	68.94
716.153	68.98
716.475	69.1
716.798	68.97
717.12	69.12
717.442	68.91
717.764	69.19
718.085	69.11
718.407	69.31
718.729	69.19
719.051	69.05
719.373	69
719.695	68.9
720.016	69.36
720.338	69.43
720.659	69.36
720.981	68.94
721.302	68.8
721.624	68.94
721.945	68.93
722.267	69.09
722.588	68.8
722.909	68.66
723.231	68.61
723.552	68.56
723.873	68.42
724.194	68.58
724.515	68.5
724.836	68.59
725.157	68.44
725.478	68.56
725.799	68.55
726.12	68.35
726.441	68.55
726.762	68.24
727.083	67.97
727.403	67.78
727.724	68.05
728.045	68.06
728.365	67.88
728.686	68.13
729.006	68.1
729.327	68.3
729.647	68.25
729.967	68.11
730.288	68.19
730.608	68.31
730.928	68.28
731.249	68.04
731.569	68.14
731.889	68.25
732.209	68.28
732.529	68.32
732.849	68.33
733.169	68.26
733.489	68.58
733.809	68.72
734.129	68.83
734.448	68.68
734.768	68.48
735.088	68.61
735.408	68.56
735.727	68.74
736.047	68.75
736.366	68.84
736.686	68.79
737.005	68.43
737.325	68.44
737.644	68.39
737.963	68.79
738.283	68.63
738.602	68.75
738.921	68.65
739.24	68.67
739.56	68.46
739.879	68.32
740.198	68.16
740.517	68.11
740.836	68.29
741.155	68.34
741.473	68.41
741.792	68.52
742.111	68.54
742.43	68.41
742.748	68.36
743.067	68.17
743.386	68.27
743.704	68.42
744.023	68.17
744.341	68.16
744.66	67.87
744.978	68.14
745.297	67.98
745.615	67.75
745.933	67.7
746.252	68.22
746.57	68.27
746.888	68.02
747.206	67.84
747.524	68.13
747.842	68.25
748.16	68.23
748.478	67.91
748.796	67.87
749.114	67.99
749.432	67.8
749.749	68.07
750.067	68.31
750.385	68.15
750.703	68.36
751.02	68.36
751.338	68.25
751.655	68.13
751.973	67.69
752.29	68.17
752.608	68.34
752.925	68.33
753.242	68.04
753.56	67.98
753.877	67.91
754.194	67.74
754.511	67.88
754.828	68
755.145	68.24
755.462	68.37
755.779	68.13
756.096	68.22
756.413	67.9
756.73	67.67
757.047	68.04
757.364	68.03
757.68	68.2
757.997	68.29
758.314	67.96
758.63	68.32
758.947	67.83
759.264	67.8
759.58	67.5
759.896	67.84
760.213	67.66
760.529	67.58
760.846	67.43
761.162	67.55
761.478	67.86
761.794	67.52
762.11	67.49
762.426	67.47
762.743	67.68
763.059	67.81
763.375	67.97
763.69	68.21
764.006	68.14
764.322	68.23
764.638	68.17
764.954	68.34
765.27	68.56
765.585	68.8
765.901	68.71
766.216	68.75
766.532	68.78
766.848	69
767.163	69.31
767.478	69.44
767.794	69.44
768.109	69.3
768.424	69.81
768.74	69.61
769.055	70.07
769.37	69.94
769.685	69.94
770	70.02
770.315	69.49
770.63	69.85
770.945	69.59
771.26	69.97
771.575	69.93
771.89	69.81
772.205	69.73
772.52	69.86
772.834	69.79
773.149	69.81
773.464	69.94
773.778	69.95
774.093	69.73
774.407	69.56
774.722	69.12
775.036	69.16
775.351	69.71
775.665	69.59
775.979	69.52
776.293	70.19
776.608	70.24
776.922	70.56
777.236	70.49
777.55	70.32
777.864	70.45
778.178	70.77
778.492	70.44
778.806	70.16
779.12	69.99
779.434	70.38
779.747	70.17
780.061	70.37
780.375	69.95
780.689	69.87
781.002	69.91
781.316	70.45
781.629	70.21
781.943	70.25
782.256	70.13
782.57	70.33
782.883	69.77
783.196	69.26
783.51	68.78
783.823	68.74
784.136	69.56
784.449	68.9
784.762	68.79
785.075	68.56
785.388	68.75
785.701	68.85
786.014	68.46
786.327	68.29
786.64	67.81
786.953	68.15
787.266	68.49
787.578	68.4
787.891	68.24
788.204	68.6
788.516	68.52
788.829	68.3
789.141	67.96
789.454	68.54
789.766	68.62
790.079	69.21
790.391	69.31
790.703	68.82
791.016	69.05
791.328	69.15
791.64	69.16
791.952	69.26
792.264	69.33
792.576	69.22
792.888	69.48
793.2	69.71
793.512	70.08
793.824	70.02
794.136	69.88
794.448	69.97
794.76	69.96
795.071	70.39
795.383	70.57
795.695	70.95
796.006	70.43
796.318	70.93
796.629	70.92
796.941	70.56
797.252	70.87
797.564	71.2
797.875	71.3
798.186	71.6
798.497	72.07
798.809	72.77
799.12	73.37
799.431	73.35
799.742	73.11
800.053	72.73
800.364	72.33
800.675	72.03
800.986	72.21
801.297	71.46
801.608	70.95
801.918	71.17
802.229	71.19
802.54	71.42
802.851	70.64
803.161	70.39
803.472	70.58
803.782	69.72
804.093	69.47
804.403	68.72
804.714	68.91
805.024	68.78
805.334	67.94
805.645	67.54
805.955	67.12
806.265	68.11
806.575	68.85
806.885	69.04
807.195	69.76
807.505	68.97
807.815	69.76
808.125	69.66
808.435	69.58
808.745	69.8
809.055	69.69
809.365	69.54
809.674	69.64
809.984	69.78
810.294	69.99
810.603	70.88
810.913	71.67
811.222	71.11
811.532	71.19
811.841	71.61
812.151	71.88
812.46	71.78
812.769	71.5
813.079	71.11
813.388	71.38
813.697	70.32
814.006	70.79
814.315	69.98
814.624	69.48
814.933	69.5
815.242	68.91
815.551	68.78
815.86	70.17
816.169	70.2
816.478	70.07
816.786	70.71
817.095	70.25
817.404	69.86
817.712	69.86
818.021	69.37
818.33	68.96
818.638	68.98
818.947	69.93
819.255	69.75
819.563	70.2
819.872	70.17
820.18	70.53
820.488	71.12
820.796	71.11
821.105	71.55
821.413	71.42
821.721	71.23
822.029	71.21
822.337	70.8
822.645	70.73
822.953	70.59
823.26	70.39
823.568	70.2
823.876	70.22
824.184	70.27
824.491	70.21
824.799	70.16
825.107	70.34
825.414	70.37
825.722	70.35
826.029	69.89
826.337	69.84
826.644	70.06
826.951	69.74
827.259	69.87
827.566	69.65
827.873	69.53
828.18	69.81
828.488	69.66
828.795	70.01
829.102	70.36
829.409	70.7
829.716	70.98
830.023	71.02
830.329	70.89
830.636	70.94
830.943	71.19
831.25	71.71
831.557	71.1
831.863	70.73
832.17	70.63
832.476	71.48
832.783	72.06
833.089	71.58
833.396	71.56
833.702	71.44
834.009	71.32
834.315	71.32
834.621	71.16
834.928	71.47
835.234	70.87
835.54	69.78
835.846	69.43
836.152	69.35
836.458	69.08
836.764	69
837.07	69.12
837.376	69.06
837.682	68.52
837.988	68.92
838.293	68.88
838.599	69.02
838.905	68.34
839.211	67.04
839.516	67.05
839.822	66.4
840.127	66.67
840.433	66.43
840.738	66.01
841.044	65.93
841.349	65.4
841.654	65.45
841.959	66.51
842.265	66.32
842.57	65.71
842.875	66.95
843.18	66.77
843.485	67.37
843.79	66.98
844.095	68.13
844.4	68.03
844.705	67.77
845.01	67.77
845.315	68.31
845.619	68.24
845.924	67.9
846.229	68.73
846.533	68.24
846.838	68.22
847.142	69.11
847.447	68.03
847.751	67.79
848.056	67.52
848.36	67.1
848.664	67.74
848.969	68.6
849.273	68
849.577	70.05
849.881	68.28
850.185	68.57
850.489	66.67
850.794	66.81
851.097	67.68
851.401	69.33
851.705	68.51
852.009	70.34
852.313	70.16
852.617	70.29
852.92	70.23
853.224	71.21
853.528	70.92
853.831	70.99
854.135	69.99
854.438	67.74
854.742	67.89
855.045	69.03
855.349	70.91
855.652	69.85
855.955	66.9
856.259	66.35
856.562	66.96
856.865	67.32
857.168	67.28
857.471	66.03
857.774	64.57
858.077	62.43
858.38	60.88
858.683	60.96
858.986	62.34
859.289	62.21
859.592	60.74
859.894	61.07
860.197	60.73
860.5	61.08
860.802	62.65
861.105	61.7
861.407	61.48
861.71	58.58
862.012	58.88
862.315	61.89
862.617	63.93
862.919	62.65
863.222	63.75
863.524	63.39
863.826	64.91
864.128	64.17
864.43	66.38
864.732	66.88
865.034	66.33
865.336	62.87
865.638	61.96
865.94	62.26
866.242	60.66
866.544	59.92
866.846	60.47
867.147	61.84
867.449	63.7
867.751	61.85
868.052	64.01
868.354	66.33
868.655	64.43
868.957	63.58
869.258	64.97
869.56	65.74
869.861	65.45
870.162	65.25
870.463	65.33
870.765	67.27
871.066	66.41
871.367	67.98
871.668	69.73
871.969	69.85
872.27	71.26
872.571	72
872.872	73.37
873.173	74.78
873.473	77.01
873.774	74.05
874.075	74.93
874.376	72.87
874.676	71.25
874.977	69.59
875.277	68.76
875.578	67.51
875.878	65.46
876.179	65.63
876.479	64.9
876.78	64.71
877.08	62.73
877.38	63.73
877.68	62.72
877.981	62.97
878.281	62.54
878.581	59.98
