Data from BA56852_Reflection_00006.txt Node
Date: Mon Nov 18 15:22:59 EST 2019
User: vgr7
Spectrometer: USB2G7710
Scans to average: 3
Trigger mode: 4
Integration Time (sec): 2.000000E-2
Electric dark correction enabled: true
Boxcar width: 10
XAxis mode: Wavelengths
Number of Pixels in Spectrum: 2048
>>>>>Begin Spectral Data<<<<<
177.721	-36.92
178.105	-33.64
178.488	-128.32
178.871	-160.8
179.254	-145.18
179.636	51.84
180.019	431.75
180.402	174.19
180.785	287.19
181.168	-40.58
181.55	32.55
181.933	54.57
182.316	29.98
182.698	75.52
183.081	46.31
183.463	45.45
183.846	46.39
184.228	49.55
184.611	78.55
184.993	80.78
185.376	58.73
185.758	73.88
186.14	45.36
186.522	40.82
186.904	54.66
187.287	62.4
187.669	19.31
188.051	9.86
188.433	21.01
188.815	6.51
189.197	23.73
189.579	6.82
189.961	-0.43
190.342	3.94
190.724	-74.84
191.106	-46.99
191.488	-40.51
191.869	-120.12
192.251	-160.66
192.633	-81.2
193.014	-62.77
193.396	-45.01
193.777	-2.63
194.159	4.93
194.54	-13.94
194.922	5363.16
195.303	522.02
195.684	119.57
196.065	69.73
196.447	74.08
196.828	52.74
197.209	43.3
197.59	72.94
197.971	24.36
198.352	27.36
198.733	36.68
199.114	39.34
199.495	56.79
199.876	32.35
200.257	32.7
200.638	73.71
201.018	82.38
201.399	47.8
201.78	39.36
202.16	38.75
202.541	25.95
202.922	-0.42
203.302	8.77
203.683	-16.81
204.063	-36.86
204.444	-19.98
204.824	17.21
205.204	36.16
205.585	-3.68
205.965	0.17
206.345	-21.24
206.725	-52.68
207.106	-109.82
207.486	-137.73
207.866	-99.58
208.246	-114.68
208.626	-205.05
209.006	-116.73
209.386	-165.35
209.766	-262.02
210.145	251.14
210.525	1047.98
210.905	1403.37
211.285	-97.04
211.664	1.95
212.044	27.48
212.424	17.6
212.803	-35.76
213.183	-48.64
213.562	30.81
213.942	71.25
214.321	45.37
214.701	6.35
215.08	-3.23
215.459	1.11
215.838	-27.29
216.218	-38.22
216.597	-7.36
216.976	-6.5
217.355	-25.46
217.734	-36.95
218.113	-14.64
218.492	-10.81
218.871	-53.85
219.25	-67.52
219.629	-79.68
220.008	-108.23
220.387	-75.01
220.766	-69.97
221.144	-80.99
221.523	-85.54
221.902	-62.11
222.28	-51.89
222.659	-32.3
223.037	-22.38
223.416	-20.1
223.794	-8.16
224.173	-13.16
224.551	-10.78
224.929	-12.69
225.308	-1.19
225.686	6.61
226.064	6.89
226.442	6.72
226.821	12.77
227.199	13.73
227.577	11.55
227.955	8.81
228.333	4.86
228.711	8.79
229.089	14.12
229.467	11.9
229.845	7.68
230.222	4.78
230.6	2.37
230.978	0.55
231.356	0.04
231.733	-1.44
232.111	1.74
232.488	3.22
232.866	2.2
233.243	0.72
233.621	-0.47
233.998	-1
234.376	-1.86
234.753	-3.83
235.13	-2.33
235.508	-2.27
235.885	-0.8
236.262	-0.37
236.639	-1.85
237.016	-3.57
237.393	-1.77
237.77	0.44
238.147	1.73
238.524	2.9
238.901	4.53
239.278	5.53
239.655	5.86
240.032	5.81
240.409	4.88
240.785	4.61
241.162	5.12
241.539	5.41
241.915	5.6
242.292	6.02
242.668	6.41
243.045	5.88
243.421	5.55
243.798	5.07
244.174	4.89
244.551	4.81
244.927	4.89
245.303	5.01
245.679	5.17
246.056	4.91
246.432	4.78
246.808	4.57
247.184	4.22
247.56	4.07
247.936	3.95
248.312	4.08
248.688	4.18
249.064	4.02
249.44	4.09
249.815	3.97
250.191	3.82
250.567	3.67
250.943	3.54
251.318	3.6
251.694	3.76
252.069	3.73
252.445	3.72
252.82	3.61
253.196	3.57
253.571	3.41
253.947	3.54
254.322	3.65
254.697	3.36
255.073	3.36
255.448	3.27
255.823	3.07
256.198	3.24
256.573	3.3
256.948	3.51
257.323	3.29
257.698	3.44
258.073	3.37
258.448	3.5
258.823	3.72
259.198	3.74
259.573	3.66
259.948	3.76
260.322	3.82
260.697	3.87
261.072	3.67
261.446	3.64
261.821	3.47
262.195	3.5
262.57	3.54
262.944	3.54
263.319	3.52
263.693	3.56
264.067	3.44
264.442	3.47
264.816	3.27
265.19	3.4
265.564	3.41
265.938	3.43
266.313	3.34
266.687	3.23
267.061	3.42
267.435	3.56
267.809	3.54
268.183	3.56
268.556	3.44
268.93	3.52
269.304	3.52
269.678	3.7
270.051	3.59
270.425	3.64
270.799	3.77
271.172	3.89
271.546	4.01
271.919	4.1
272.293	4.02
272.666	4.11
273.04	4.19
273.413	4.03
273.787	4.17
274.16	3.98
274.533	4.08
274.906	3.85
275.279	3.78
275.653	3.89
276.026	3.89
276.399	4.13
276.772	4.4
277.145	4.25
277.518	4.11
277.891	4.29
278.263	4.28
278.636	4.1
279.009	4.17
279.382	4.26
279.755	4.04
280.127	4.31
280.5	4.4
280.872	4.21
281.245	4.07
281.617	4.02
281.99	4.25
282.362	4.23
282.735	4.2
283.107	4.19
283.479	4.1
283.852	4.17
284.224	3.93
284.596	3.88
284.968	3.92
285.34	4.12
285.713	3.94
286.085	4.08
286.457	4.33
286.829	4.16
287.201	4.04
287.572	4.22
287.944	4.01
288.316	3.87
288.688	3.86
289.06	4.03
289.431	3.98
289.803	3.85
290.175	3.73
290.546	3.91
290.918	3.95
291.289	3.87
291.661	3.84
292.032	4.02
292.403	3.96
292.775	4.07
293.146	3.94
293.517	4.01
293.889	3.95
294.26	3.88
294.631	3.91
295.002	3.85
295.373	3.84
295.744	3.89
296.115	3.97
296.486	3.95
296.857	3.8
297.228	3.96
297.599	4.04
297.97	4.09
298.34	4.03
298.711	4.02
299.082	4.07
299.452	4.03
299.823	4.08
300.194	4.12
300.564	4.05
300.935	4.05
301.305	3.92
301.676	3.86
302.046	3.89
302.416	3.94
302.787	4.04
303.157	3.91
303.527	3.94
303.897	3.81
304.267	4.05
304.637	4.19
305.008	4.05
305.378	4.04
305.748	4.21
306.117	4.31
306.487	4.34
306.857	4.46
307.227	4.53
307.597	4.36
307.967	4.37
308.336	4.36
308.706	4.37
309.076	4.6
309.445	4.52
309.815	4.39
310.184	4.36
310.554	4.3
310.923	4.36
311.293	4.21
311.662	4.25
312.031	4.18
312.401	4.19
312.77	4.22
313.139	4.19
313.508	4.08
313.877	3.9
314.246	3.93
314.616	3.72
314.985	3.78
315.353	3.77
315.722	3.77
316.091	3.7
316.46	3.63
316.829	3.39
317.198	3.49
317.567	3.42
317.935	3.39
318.304	3.29
318.672	3.23
319.041	3.34
319.41	3.31
319.778	3.2
320.147	3.24
320.515	3.2
320.883	3.17
321.252	3.2
321.62	3.34
321.988	3.2
322.357	3.38
322.725	3.14
323.093	3.21
323.461	3.21
323.829	3.39
324.197	3.49
324.565	3.49
324.933	3.45
325.301	3.5
325.669	3.59
326.037	3.65
326.405	3.71
326.772	3.81
327.14	3.98
327.508	4.04
327.875	3.9
328.243	3.89
328.61	3.89
328.978	3.9
329.346	3.84
329.713	3.87
330.08	3.8
330.448	3.78
330.815	3.79
331.182	3.72
331.55	3.69
331.917	3.77
332.284	3.86
332.651	3.77
333.018	3.9
333.385	3.85
333.752	3.95
334.119	4.02
334.486	3.98
334.853	3.9
335.22	3.84
335.587	4.01
335.954	4.04
336.32	4.02
336.687	3.95
337.054	4.02
337.42	4.16
337.787	4.24
338.153	4.21
338.52	4.16
338.886	4.06
339.253	3.93
339.619	3.83
339.986	3.88
340.352	4.14
340.718	3.97
341.084	3.94
341.451	3.94
341.817	3.85
342.183	3.8
342.549	3.66
342.915	3.71
343.281	3.63
343.647	3.62
344.013	3.7
344.379	3.64
344.745	3.66
345.11	3.5
345.476	3.5
345.842	3.6
346.208	3.6
346.573	3.68
346.939	3.78
347.304	3.74
347.67	3.64
348.035	3.51
348.401	3.62
348.766	3.68
349.132	3.58
349.497	3.6
349.862	3.68
350.228	3.81
350.593	3.78
350.958	3.79
351.323	3.86
351.688	3.84
352.053	3.92
352.418	3.83
352.783	3.93
353.148	3.89
353.513	3.82
353.878	3.79
354.243	3.8
354.608	3.7
354.972	3.76
355.337	3.81
355.702	3.76
356.066	3.77
356.431	3.68
356.795	3.73
357.16	3.63
357.524	3.59
357.889	3.51
358.253	3.54
358.618	3.56
358.982	3.51
359.346	3.45
359.71	3.47
360.075	3.52
360.439	3.49
360.803	3.44
361.167	3.52
361.531	3.5
361.895	3.47
362.259	3.53
362.623	3.51
362.987	3.54
363.351	3.57
363.714	3.55
364.078	3.54
364.442	3.49
364.806	3.58
365.169	3.54
365.533	3.58
365.896	3.53
366.26	3.53
366.623	3.43
366.987	3.46
367.35	3.44
367.714	3.43
368.077	3.43
368.44	3.44
368.803	3.39
369.167	3.42
369.53	3.42
369.893	3.43
370.256	3.46
370.619	3.43
370.982	3.38
371.345	3.34
371.708	3.39
372.071	3.39
372.434	3.38
372.797	3.4
373.159	3.33
373.522	3.4
373.885	3.45
374.247	3.59
374.61	3.62
374.973	3.58
375.335	3.51
375.698	3.44
376.06	3.42
376.423	3.43
376.785	3.43
377.147	3.5
377.51	3.46
377.872	3.47
378.234	3.46
378.596	3.47
378.958	3.46
379.321	3.44
379.683	3.47
380.045	3.48
380.407	3.49
380.769	3.5
381.13	3.46
381.492	3.37
381.854	3.34
382.216	3.28
382.578	3.3
382.939	3.36
383.301	3.4
383.663	3.39
384.024	3.32
384.386	3.31
384.747	3.24
385.109	3.26
385.47	3.23
385.832	3.2
386.193	3.24
386.554	3.26
386.916	3.27
387.277	3.29
387.638	3.28
387.999	3.23
388.36	3.27
388.721	3.3
389.082	3.3
389.443	3.29
389.804	3.28
390.165	3.28
390.526	3.29
390.887	3.3
391.248	3.35
391.609	3.4
391.969	3.41
392.33	3.44
392.691	3.45
393.051	3.46
393.412	3.47
393.772	3.43
394.133	3.39
394.493	3.44
394.854	3.43
395.214	3.47
395.574	3.48
395.935	3.45
396.295	3.46
396.655	3.46
397.015	3.43
397.376	3.47
397.736	3.45
398.096	3.45
398.456	3.47
398.816	3.48
399.176	3.46
399.535	3.45
399.895	3.44
400.255	3.44
400.615	3.44
400.975	3.43
401.334	3.42
401.694	3.48
402.054	3.43
402.413	3.45
402.773	3.36
403.132	3.4
403.492	3.43
403.851	3.4
404.211	3.42
404.57	3.44
404.929	3.47
405.288	3.48
405.648	3.49
406.007	3.47
406.366	3.46
406.725	3.48
407.084	3.5
407.443	3.5
407.802	3.51
408.161	3.49
408.52	3.47
408.879	3.49
409.238	3.46
409.596	3.49
409.955	3.48
410.314	3.53
410.673	3.49
411.031	3.45
411.39	3.47
411.748	3.48
412.107	3.5
412.465	3.5
412.824	3.51
413.182	3.47
413.54	3.48
413.899	3.48
414.257	3.51
414.615	3.49
414.974	3.49
415.332	3.46
415.69	3.45
416.048	3.47
416.406	3.48
416.764	3.47
417.122	3.45
417.48	3.45
417.838	3.44
418.195	3.44
418.553	3.45
418.911	3.43
419.269	3.41
419.626	3.39
419.984	3.38
420.342	3.38
420.699	3.37
421.057	3.39
421.414	3.38
421.772	3.35
422.129	3.35
422.486	3.34
422.844	3.35
423.201	3.35
423.558	3.35
423.915	3.35
424.273	3.36
424.63	3.35
424.987	3.35
425.344	3.34
425.701	3.35
426.058	3.35
426.415	3.35
426.772	3.35
427.128	3.35
427.485	3.37
427.842	3.37
428.199	3.37
428.555	3.35
428.912	3.37
429.269	3.38
429.625	3.36
429.982	3.36
430.338	3.36
430.695	3.37
431.051	3.35
431.407	3.36
431.764	3.35
432.12	3.35
432.476	3.35
432.832	3.35
433.189	3.33
433.545	3.33
433.901	3.33
434.257	3.35
434.613	3.35
434.969	3.33
435.325	3.34
435.681	3.35
436.036	3.35
436.392	3.34
436.748	3.34
437.104	3.34
437.459	3.36
437.815	3.36
438.171	3.37
438.526	3.38
438.882	3.37
439.237	3.38
439.593	3.39
439.948	3.38
440.304	3.38
440.659	3.4
441.014	3.39
441.369	3.39
441.725	3.37
442.08	3.38
442.435	3.38
442.79	3.37
443.145	3.37
443.5	3.37
443.855	3.36
444.21	3.36
444.565	3.37
444.92	3.37
445.275	3.36
445.629	3.35
445.984	3.35
446.339	3.35
446.693	3.32
447.048	3.32
447.403	3.32
447.757	3.33
448.112	3.32
448.466	3.32
448.82	3.31
449.175	3.32
449.529	3.31
449.883	3.29
450.238	3.29
450.592	3.29
450.946	3.28
451.3	3.3
451.654	3.29
452.008	3.29
452.362	3.3
452.716	3.31
453.07	3.32
453.424	3.32
453.778	3.31
454.132	3.31
454.486	3.3
454.839	3.31
455.193	3.3
455.547	3.3
455.9	3.33
456.254	3.34
456.607	3.34
456.961	3.35
457.314	3.39
457.668	3.39
458.021	3.39
458.375	3.4
458.728	3.38
459.081	3.38
459.434	3.38
459.787	3.38
460.141	3.38
460.494	3.38
460.847	3.37
461.2	3.38
461.553	3.41
461.906	3.41
462.259	3.42
462.611	3.42
462.964	3.42
463.317	3.41
463.67	3.42
464.022	3.4
464.375	3.37
464.728	3.37
465.08	3.37
465.433	3.37
465.785	3.38
466.138	3.38
466.49	3.4
466.843	3.4
467.195	3.4
467.547	3.41
467.899	3.41
468.252	3.42
468.604	3.41
468.956	3.38
469.308	3.39
469.66	3.36
470.012	3.38
470.364	3.38
470.716	3.38
471.068	3.38
471.42	3.41
471.772	3.42
472.123	3.44
472.475	3.42
472.827	3.42
473.178	3.43
473.53	3.44
473.882	3.43
474.233	3.44
474.585	3.42
474.936	3.41
475.288	3.39
475.639	3.41
475.99	3.43
476.342	3.45
476.693	3.45
477.044	3.46
477.395	3.44
477.746	3.45
478.097	3.43
478.448	3.44
478.8	3.43
479.15	3.43
479.501	3.4
479.852	3.42
480.203	3.43
480.554	3.43
480.905	3.44
481.255	3.44
481.606	3.44
481.957	3.44
482.307	3.45
482.658	3.46
483.009	3.45
483.359	3.45
483.709	3.46
484.06	3.45
484.41	3.46
484.761	3.47
485.111	3.47
485.461	3.48
485.811	3.48
486.162	3.48
486.512	3.49
486.862	3.48
487.212	3.49
487.562	3.49
487.912	3.47
488.262	3.47
488.612	3.47
488.961	3.46
489.311	3.47
489.661	3.46
490.011	3.46
490.36	3.46
490.71	3.46
491.06	3.45
491.409	3.45
491.759	3.45
492.108	3.44
492.458	3.43
492.807	3.42
493.157	3.42
493.506	3.43
493.855	3.43
494.204	3.44
494.554	3.42
494.903	3.41
495.252	3.43
495.601	3.43
495.95	3.42
496.299	3.43
496.648	3.41
496.997	3.41
497.346	3.43
497.695	3.44
498.043	3.43
498.392	3.43
498.741	3.45
499.09	3.45
499.438	3.45
499.787	3.48
500.135	3.49
500.484	3.48
500.832	3.48
501.181	3.49
501.529	3.48
501.878	3.51
502.226	3.53
502.574	3.54
502.923	3.55
503.271	3.55
503.619	3.56
503.967	3.57
504.315	3.56
504.663	3.56
505.011	3.55
505.359	3.55
505.707	3.55
506.055	3.54
506.403	3.54
506.751	3.52
507.098	3.51
507.446	3.5
507.794	3.5
508.141	3.5
508.489	3.48
508.837	3.49
509.184	3.47
509.531	3.45
509.879	3.47
510.226	3.49
510.574	3.5
510.921	3.5
511.268	3.51
511.616	3.52
511.963	3.52
512.31	3.52
512.657	3.52
513.004	3.51
513.351	3.51
513.698	3.52
514.045	3.56
514.392	3.57
514.739	3.58
515.086	3.58
515.432	3.59
515.779	3.6
516.126	3.61
516.473	3.62
516.819	3.63
517.166	3.62
517.512	3.6
517.859	3.6
518.205	3.59
518.552	3.6
518.898	3.58
519.245	3.59
519.591	3.6
519.937	3.62
520.283	3.63
520.629	3.64
520.976	3.64
521.322	3.63
521.668	3.61
522.014	3.63
522.36	3.63
522.706	3.64
523.052	3.65
523.398	3.67
523.743	3.67
524.089	3.69
524.435	3.68
524.781	3.68
525.126	3.69
525.472	3.72
525.817	3.72
526.163	3.72
526.509	3.74
526.854	3.74
527.199	3.73
527.545	3.73
527.89	3.74
528.235	3.75
528.581	3.75
528.926	3.75
529.271	3.76
529.616	3.75
529.961	3.75
530.306	3.76
530.651	3.75
530.996	3.75
531.341	3.74
531.686	3.75
532.031	3.75
532.376	3.76
532.721	3.76
533.065	3.75
533.41	3.75
533.755	3.73
534.099	3.73
534.444	3.74
534.788	3.74
535.133	3.74
535.477	3.73
535.822	3.73
536.166	3.73
536.51	3.71
536.855	3.71
537.199	3.72
537.543	3.71
537.887	3.71
538.231	3.72
538.576	3.73
538.92	3.73
539.264	3.73
539.608	3.73
539.951	3.73
540.295	3.74
540.639	3.77
540.983	3.78
541.327	3.77
541.671	3.76
542.014	3.78
542.358	3.78
542.701	3.78
543.045	3.79
543.389	3.8
543.732	3.81
544.075	3.82
544.419	3.81
544.762	3.81
545.105	3.81
545.449	3.79
545.792	3.8
546.135	3.79
546.478	3.79
546.821	3.79
547.165	3.77
547.508	3.78
547.851	3.76
548.194	3.75
548.536	3.75
548.879	3.79
549.222	3.78
549.565	3.78
549.908	3.79
550.25	3.77
550.593	3.78
550.936	3.75
551.278	3.76
551.621	3.76
551.963	3.76
552.306	3.76
552.648	3.78
552.991	3.81
553.333	3.81
553.675	3.8
554.017	3.78
554.36	3.79
554.702	3.79
555.044	3.79
555.386	3.79
555.728	3.79
556.07	3.77
556.412	3.76
556.754	3.77
557.096	3.79
557.438	3.8
557.78	3.79
558.121	3.85
558.463	3.86
558.805	3.86
559.147	3.87
559.488	3.88
559.83	3.87
560.171	3.88
560.513	3.88
560.854	3.88
561.196	3.89
561.537	3.89
561.878	3.87
562.22	3.88
562.561	3.85
562.902	3.88
563.243	3.9
563.584	3.9
563.925	3.91
564.266	3.87
564.607	3.87
564.948	3.88
565.289	3.86
565.63	3.88
565.971	3.87
566.312	3.86
566.653	3.86
566.993	3.86
567.334	3.81
567.675	3.83
568.015	3.85
568.356	3.84
568.696	3.84
569.037	3.87
569.377	3.86
569.718	3.89
570.058	3.87
570.398	3.84
570.739	3.86
571.079	3.86
571.419	3.88
571.759	3.93
572.099	3.91
572.439	3.88
572.779	3.83
573.119	3.82
573.459	3.85
573.799	3.84
574.139	3.84
574.479	3.84
574.819	3.84
575.158	3.85
575.498	3.89
575.838	3.87
576.177	3.85
576.517	3.86
576.856	3.84
577.196	3.85
577.535	3.85
577.875	3.84
578.214	3.84
578.553	3.82
578.893	3.79
579.232	3.79
579.571	3.79
579.91	3.81
580.25	3.83
580.589	3.8
580.928	3.84
581.267	3.84
581.606	3.82
581.945	3.82
582.283	3.79
582.622	3.76
582.961	3.8
583.3	3.79
583.639	3.81
583.977	3.85
584.316	3.84
584.654	3.88
584.993	3.86
585.332	3.87
585.67	3.89
586.008	3.87
586.347	3.86
586.685	3.92
587.024	3.94
587.362	3.96
587.7	3.96
588.038	3.92
588.376	3.89
588.715	3.93
589.053	3.9
589.391	3.9
589.729	3.91
590.067	3.88
590.404	3.89
590.742	3.91
591.08	3.87
591.418	3.91
591.756	3.93
592.093	3.92
592.431	3.92
592.769	3.92
593.106	3.92
593.444	3.93
593.781	3.91
594.119	3.92
594.456	3.92
594.793	3.94
595.131	3.92
595.468	3.99
595.805	3.99
596.143	4.04
596.48	3.99
596.817	4
597.154	4.02
597.491	4.02
597.828	3.98
598.165	3.96
598.502	3.93
598.839	3.9
599.176	3.91
599.512	3.87
599.849	3.88
600.186	3.88
600.523	3.91
600.859	3.93
601.196	3.93
601.532	3.9
601.869	3.87
602.205	3.88
602.542	3.84
602.878	3.84
603.215	3.81
603.551	3.83
603.887	3.83
604.223	3.86
604.56	3.86
604.896	3.89
605.232	3.92
605.568	3.91
605.904	3.94
606.24	3.96
606.576	3.98
606.912	3.97
607.248	3.98
607.583	3.97
607.919	3.96
608.255	3.96
608.591	3.98
608.926	4
609.262	4.02
609.597	4.02
609.933	4.06
610.268	4.05
610.604	4.09
610.939	4.09
611.275	4.08
611.61	4.07
611.945	4.06
612.281	4.05
612.616	4.05
612.951	4.03
613.286	4.04
613.621	4.07
613.956	4.06
614.291	4.08
614.626	4.1
614.961	4.08
615.296	4.07
615.631	4.06
615.966	4.02
616.3	4
616.635	4.03
616.97	4.04
617.304	4.06
617.639	4.05
617.973	4.02
618.308	4.01
618.642	4.02
618.977	4.06
619.311	4.04
619.646	4.08
619.98	4.1
620.314	4.07
620.648	4.08
620.983	4.09
621.317	4.07
621.651	4.05
621.985	4.08
622.319	4.09
622.653	4.14
622.987	4.17
623.321	4.15
623.655	4.18
623.988	4.15
624.322	4.16
624.656	4.19
624.99	4.2
625.323	4.23
625.657	4.23
625.99	4.23
626.324	4.23
626.657	4.19
626.991	4.16
627.324	4.18
627.658	4.18
627.991	4.2
628.324	4.2
628.657	4.17
628.991	4.11
629.324	4.12
629.657	4.13
629.99	4.13
630.323	4.2
630.656	4.13
630.989	4.14
631.322	4.13
631.655	4.11
631.987	4.13
632.32	4.11
632.653	4.07
632.986	4.04
633.318	4.09
633.651	4.11
633.984	4.11
634.316	4.08
634.649	4.03
634.981	4
635.313	4
635.646	4.05
635.978	4.12
636.31	4.09
636.643	4.04
636.975	4.06
637.307	4.03
637.639	4.04
637.971	4.05
638.303	4.06
638.635	4.02
638.967	4
639.299	3.97
639.631	4
639.963	3.93
640.295	3.92
640.626	3.93
640.958	3.98
641.29	4.01
641.621	4.06
641.953	4.09
642.285	4.08
642.616	4.13
642.948	4.15
643.279	4.19
643.61	4.16
643.942	4.16
644.273	4.19
644.604	4.18
644.936	4.14
645.267	4.17
645.598	4.18
645.929	4.2
646.26	4.25
646.591	4.31
646.922	4.36
647.253	4.37
647.584	4.35
647.915	4.35
648.245	4.36
648.576	4.37
648.907	4.39
649.238	4.36
649.568	4.28
649.899	4.17
650.229	4.19
650.56	4.23
650.89	4.27
651.221	4.28
651.551	4.29
651.882	4.28
652.212	4.29
652.542	4.29
652.872	4.29
653.203	4.29
653.533	4.26
653.863	4.33
654.193	4.34
654.523	4.35
654.853	4.3
655.183	4.34
655.513	4.3
655.843	4.28
656.172	4.28
656.502	4.32
656.832	4.35
657.162	4.35
657.491	4.4
657.821	4.38
658.15	4.35
658.48	4.36
658.809	4.36
659.139	4.3
659.468	4.28
659.798	4.26
660.127	4.25
660.456	4.32
660.785	4.28
661.115	4.29
661.444	4.28
661.773	4.26
662.102	4.22
662.431	4.2
662.76	4.2
663.089	4.22
663.418	4.22
663.747	4.29
664.076	4.24
664.404	4.19
664.733	4.22
665.062	4.19
665.39	4.26
665.719	4.33
666.048	4.43
666.376	4.43
666.705	4.47
667.033	4.35
667.362	4.35
667.69	4.35
668.018	4.28
668.347	4.35
668.675	4.41
669.003	4.45
669.331	4.57
669.659	4.57
669.987	4.51
670.315	4.42
670.643	4.44
670.971	4.49
671.299	4.54
671.627	4.54
671.955	4.58
672.283	4.52
672.61	4.46
672.938	4.34
673.266	4.37
673.593	4.35
673.921	4.47
674.249	4.46
674.576	4.44
674.904	4.52
675.231	4.38
675.558	4.49
675.886	4.47
676.213	4.35
676.54	4.36
676.867	4.49
677.195	4.52
677.522	4.44
677.849	4.48
678.176	4.41
678.503	4.39
678.83	4.39
679.157	4.41
679.484	4.4
679.81	4.54
680.137	4.58
680.464	4.62
680.791	4.57
681.117	4.48
681.444	4.49
681.771	4.42
682.097	4.46
682.424	4.41
682.75	4.35
683.077	4.37
683.403	4.36
683.729	4.33
684.056	4.43
684.382	4.46
684.708	4.41
685.034	4.37
685.36	4.32
685.686	4.26
686.012	4.26
686.339	4.3
686.664	4.23
686.99	4.25
687.316	4.18
687.642	4.28
687.968	4.32
688.294	4.37
688.619	4.43
688.945	4.38
689.271	4.29
689.596	4.24
689.922	4.29
690.247	4.21
690.573	4.21
690.898	4.09
691.224	4.1
691.549	4.17
691.874	4.26
692.2	4.29
692.525	4.38
692.85	4.39
693.175	4.43
693.5	4.37
693.825	4.34
694.15	4.39
694.475	4.36
694.8	4.33
695.125	4.18
695.45	4.12
695.775	4.25
696.099	4.33
696.424	4.42
696.749	4.37
697.073	4.48
697.398	4.53
697.723	4.59
698.047	4.61
698.372	4.52
698.696	4.52
699.02	4.51
699.345	4.51
699.669	4.54
699.993	4.37
700.318	4.37
700.642	4.31
700.966	4.35
701.29	4.32
701.614	4.39
701.938	4.52
702.262	4.66
702.586	4.6
702.91	4.57
703.234	4.58
703.557	4.64
703.881	4.52
704.205	4.48
704.529	4.4
704.852	4.29
705.176	4.4
705.499	4.4
705.823	4.43
706.146	4.45
706.47	4.51
706.793	4.69
707.117	4.71
707.44	4.79
707.763	4.82
708.086	4.81
708.409	4.87
708.733	4.89
709.056	4.67
709.379	4.86
709.702	4.88
710.025	4.91
710.348	4.82
710.671	4.85
710.993	4.81
711.316	4.9
711.639	5.04
711.962	5.01
712.284	4.98
712.607	5.02
712.93	5.03
713.252	5.04
713.575	5.08
713.897	5.17
714.22	5.18
714.542	5.12
714.864	5.11
715.187	5.03
715.509	4.91
715.831	5.01
716.153	4.92
716.475	4.94
716.798	5.03
717.12	5.06
717.442	5.1
717.764	5.1
718.085	5.14
718.407	5.06
718.729	5.16
719.051	5.19
719.373	5.07
719.695	4.99
720.016	5.08
720.338	5.1
720.659	5.05
720.981	5.07
721.302	5.07
721.624	5.27
721.945	5.24
722.267	5.29
722.588	5.22
722.909	5.07
723.231	5.03
723.552	4.66
723.873	4.67
724.194	4.71
724.515	4.8
724.836	4.86
725.157	4.9
725.478	4.69
725.799	4.76
726.12	4.89
726.441	4.95
726.762	4.82
727.083	4.67
727.403	4.74
727.724	4.75
728.045	4.93
728.365	4.89
728.686	4.9
729.006	5.02
729.327	5.17
729.647	5.26
729.967	5.27
730.288	5.35
730.608	5.54
730.928	5.4
731.249	5.35
731.569	5.41
731.889	5.34
732.209	5.43
732.529	5.42
732.849	5.32
733.169	5.35
733.489	5.35
733.809	5.58
734.129	5.58
734.448	5.58
734.768	5.28
735.088	5.27
735.408	5.4
735.727	5.34
736.047	5.31
736.366	5.42
736.686	5.47
737.005	5.51
737.325	5.4
737.644	5.52
737.963	5.62
738.283	5.34
738.602	5.41
738.921	5.38
739.24	5.44
739.56	5.57
739.879	5.45
740.198	5.44
740.517	5.35
740.836	5.43
741.155	5.39
741.473	5.61
741.792	5.63
742.111	5.63
742.43	5.72
742.748	5.7
743.067	5.55
743.386	5.55
743.704	5.65
744.023	5.68
744.341	5.72
744.66	5.74
744.978	5.78
745.297	5.74
745.615	5.82
745.933	5.8
746.252	5.64
746.57	5.65
746.888	5.59
747.206	5.48
747.524	5.35
747.842	5.39
748.16	5.46
748.478	5.5
748.796	5.41
749.114	5.42
749.432	5.48
749.749	5.81
750.067	5.68
750.385	5.56
750.703	5.49
751.02	5.32
751.338	5.24
751.655	5.38
751.973	5.32
752.29	5.52
752.608	5.2
752.925	5.45
753.242	5.51
753.56	5.57
753.877	5.66
754.194	5.67
754.511	5.93
754.828	5.7
755.145	5.63
755.462	5.6
755.779	5.32
756.096	5.23
756.413	4.92
756.73	4.93
757.047	4.91
757.364	4.99
757.68	5.06
757.997	5.02
758.314	4.99
758.63	5.08
758.947	4.85
759.264	4.98
759.58	4.76
759.896	4.89
760.213	4.95
760.529	4.92
760.846	4.8
761.162	4.35
761.478	4.53
761.794	4.45
762.11	4.57
762.426	4.8
762.743	4.84
763.059	4.9
763.375	4.86
763.69	5.1
764.006	5.17
764.322	5.39
764.638	5.42
764.954	5.57
765.27	5.53
765.585	5.42
765.901	5.51
766.216	5.64
766.532	5.49
766.848	5.3
767.163	5.39
767.478	5.44
767.794	5.56
768.109	5.51
768.424	5.74
768.74	5.67
769.055	5.76
769.37	5.81
769.685	5.76
770	5.97
770.315	5.95
770.63	5.61
770.945	5.28
771.26	5.38
771.575	5.38
771.89	5.59
772.205	5.78
772.52	5.68
772.834	5.62
773.149	5.57
773.464	5.66
773.778	5.55
774.093	5.27
774.407	5.47
774.722	5.58
775.036	5.52
775.351	5.61
775.665	5.13
775.979	5.27
776.293	5.42
776.608	5.34
776.922	5.04
777.236	5.1
777.55	5.4
777.864	5.47
778.178	5.71
778.492	5.86
778.806	5.77
779.12	6.13
779.434	6.32
779.747	6.74
780.061	6.9
780.375	6.89
780.689	7.33
781.002	7.24
781.316	7.14
781.629	7.3
781.943	7.3
782.256	7.82
782.57	7.53
782.883	7.68
783.196	8.05
783.51	7.83
783.823	7.67
784.136	7.59
784.449	7.51
784.762	6.84
785.075	6.64
785.388	6.83
785.701	6.05
786.014	5.34
786.327	5.05
786.64	5.36
786.953	5.39
787.266	5.22
787.578	5.59
787.891	5.71
788.204	5.44
788.516	5.57
788.829	5.34
789.141	5.62
789.454	5.4
789.766	5.54
790.079	5.89
790.391	6.4
790.703	6.9
791.016	6.77
791.328	7.05
791.64	7.1
791.952	7.22
792.264	7.58
792.576	7.9
792.888	8.32
793.2	7.91
793.512	7.81
793.824	7.74
794.136	7.62
794.448	7.82
794.76	8.06
795.071	7.81
795.383	7.54
795.695	7.29
796.006	7.29
796.318	7
796.629	7.37
796.941	7.45
797.252	7.46
797.564	7.54
797.875	7.74
798.186	7.6
798.497	7.91
798.809	8.03
799.12	8.32
799.431	7.98
799.742	8.06
800.053	8.38
800.364	8.67
800.675	8.41
800.986	8.22
801.297	8.11
801.608	7.78
801.918	8.28
802.229	8.11
802.54	8.26
802.851	8.14
803.161	8.05
803.472	7.77
803.782	7.55
804.093	7.64
804.403	7.73
804.714	7.49
805.024	6.92
805.334	6.75
805.645	7.2
805.955	7.54
806.265	7.63
806.575	7.24
806.885	7.06
807.195	7.23
807.505	7.33
807.815	7.31
808.125	7.33
808.435	7
808.745	7.14
809.055	7.27
809.365	7.74
809.674	7.24
809.984	7.99
810.294	7.73
810.603	7.99
810.913	7.8
811.222	8.49
811.532	8.75
811.841	9.36
812.151	9.4
812.46	9.23
812.769	9.36
813.079	10.19
813.388	10.37
813.697	10.2
814.006	9.91
814.315	9.82
814.624	10.49
814.933	10.63
815.242	10.63
815.551	11.1
815.86	10.38
816.169	10.67
816.478	9.7
816.786	9.72
817.095	9.31
817.404	9.38
817.712	8.95
818.021	8.5
818.33	8.33
818.638	8.08
818.947	8.29
819.255	8.2
819.563	7.72
819.872	7.7
820.18	7.71
820.488	7.58
820.796	7.55
821.105	7.34
821.413	7.43
821.721	7.44
822.029	7.39
822.337	7.51
822.645	7.76
822.953	7.86
823.26	7.83
823.568	7.73
823.876	7.69
824.184	7.59
824.491	7.61
824.799	7.61
825.107	7.49
825.414	7.34
825.722	7.24
826.029	7.29
826.337	7.34
826.644	7.38
826.951	7.27
827.259	7.12
827.566	7.25
827.873	7.3
828.18	7.43
828.488	7.16
828.795	7.06
829.102	6.79
829.409	6.69
829.716	6.62
830.023	6.73
830.329	6.91
830.636	7.35
830.943	7.15
831.25	6.98
831.557	7.13
831.863	7.32
832.17	7.65
832.476	7.76
832.783	7.66
833.089	7.72
833.396	8.53
833.702	8.96
834.009	8.65
834.315	8.45
834.621	8.14
834.928	8.41
835.234	8.38
835.54	7.91
835.846	7.96
836.152	7.95
836.458	7.93
836.764	7.53
837.07	7.2
837.376	7.46
837.682	7.57
837.988	7.33
838.293	6.95
838.599	6.72
838.905	6.73
839.211	6.91
839.516	7.32
839.822	7.36
840.127	6.91
840.433	7.8
840.738	7.81
841.044	8.18
841.349	8.07
841.654	8.56
841.959	9.19
842.265	9
842.57	9.05
842.875	9.14
843.18	9.33
843.485	9.58
843.79	9.72
844.095	9.55
844.4	11.47
844.705	10.56
845.01	10.52
845.315	9.92
845.619	9.52
845.924	7.32
846.229	6.28
846.533	6.92
846.838	6.37
847.142	6.11
847.447	5.04
847.751	4.96
848.056	3.94
848.36	5.16
848.664	5.78
848.969	6.38
849.273	4.89
849.577	3.16
849.881	2.14
850.185	4.42
850.489	5.11
850.794	3.73
851.097	6.05
851.401	4.86
851.705	6.43
852.009	7.22
852.313	8.89
852.617	8.6
852.92	11.2
853.224	10.18
853.528	12.04
853.831	13.05
854.135	13.18
854.438	12.59
854.742	11.36
855.045	11.03
855.349	10.16
855.652	10.38
855.955	12.57
856.259	13.83
856.562	10.1
856.865	11.54
857.168	10.75
857.471	12.16
857.774	12.53
858.077	11.35
858.38	11.37
858.683	9.88
858.986	10.45
859.289	8.8
859.592	8.86
859.894	7.74
860.197	7.71
860.5	7.88
860.802	10.17
861.105	9.99
861.407	9.29
861.71	8.37
862.012	11.09
862.315	9.69
862.617	7.25
862.919	6.71
863.222	5.52
863.524	6.45
863.826	7.66
864.128	8.33
864.43	9.41
864.732	8.84
865.034	9.42
865.336	8.78
865.638	7.37
865.94	5.97
866.242	6.16
866.544	6.23
866.846	6.91
867.147	7.1
867.449	6.27
867.751	6.79
868.052	9.81
868.354	8.79
868.655	9.59
868.957	11.9
869.258	14.26
869.56	13.63
869.861	11.02
870.162	7.7
870.463	9.06
870.765	8.49
871.066	9.74
871.367	10.9
871.668	11.32
871.969	10.52
872.27	11.91
872.571	13.1
872.872	12.8
873.173	10.34
873.473	8.25
873.774	8.68
874.075	10.71
874.376	8.91
874.676	10.61
874.977	9.76
875.277	10.95
875.578	12.84
875.878	12.94
876.179	15.19
876.479	16.62
876.78	15.67
877.08	16.1
877.38	13.99
877.68	14.21
877.981	14.04
878.281	16.48
878.581	17.76
