Data from BA56832_Reflection_00008.txt Node
Date: Mon Nov 18 16:09:56 EST 2019
User: vgr7
Spectrometer: USB2G7710
Scans to average: 3
Trigger mode: 4
Integration Time (sec): 2.000000E-2
Electric dark correction enabled: true
Boxcar width: 10
XAxis mode: Wavelengths
Number of Pixels in Spectrum: 2048
>>>>>Begin Spectral Data<<<<<
177.721	-27.54
178.105	-30.31
178.488	-30.35
178.871	-45.87
179.254	-21.14
179.636	-178.63
180.019	-36.99
180.402	253.85
180.785	-436.08
181.168	209.59
181.55	13.04
181.933	53.09
182.316	137.55
182.698	215.07
183.081	102.56
183.463	103.05
183.846	103.13
184.228	83.94
184.611	68.23
184.993	51.74
185.376	49.37
185.758	-12.51
186.14	-31.32
186.522	50.1
186.904	823.4
187.287	1896.61
187.669	-360.43
188.051	-136.59
188.433	-70.38
188.815	-33.06
189.197	-0.37
189.579	-26.05
189.961	-23.43
190.342	-18.12
190.724	5.63
191.106	-2.37
191.488	-74.45
191.869	-29.38
192.251	-15.75
192.633	-30.84
193.014	-40.01
193.396	-58.57
193.777	-142.06
194.159	-326.97
194.54	-96.78
194.922	-73.26
195.303	-68.07
195.684	-102.39
196.065	-73.87
196.447	-81.38
196.828	-84.16
197.209	-120.79
197.59	-127.04
197.971	-180.28
198.352	-223.82
198.733	-356.2
199.114	-225.04
199.495	-125.47
199.876	-202.83
200.257	-162.84
200.638	-133.78
201.018	-143.2
201.399	-119.51
201.78	-109.9
202.16	-110.53
202.541	-150.85
202.922	-265.15
203.302	-296.94
203.683	-215.9
204.063	-252.62
204.444	-300.75
204.824	-247.59
205.204	-226.43
205.585	-215.46
205.965	-186.84
206.345	-174.07
206.725	-165.8
207.106	-318.42
207.486	-599.12
207.866	-615.85
208.246	-1342.62
208.626	18651.72
209.006	-3900
209.386	-1297.4
209.766	-737.52
210.145	-467.04
210.525	-290.38
210.905	-175.61
211.285	-135.02
211.664	-127.26
212.044	-88.87
212.424	-87.9
212.803	-123.76
213.183	-81.3
213.562	-82.63
213.942	-76.58
214.321	-83.68
214.701	-87.06
215.08	-56.39
215.459	-54.38
215.838	-42.11
216.218	-44.22
216.597	-19
216.976	-21.54
217.355	-18.77
217.734	-13.16
218.113	-8.66
218.492	-10.16
218.871	-29.25
219.25	-21.09
219.629	-40.94
220.008	-114.45
220.387	-84.37
220.766	-43.37
221.144	-85.1
221.523	-93.29
221.902	-122.52
222.28	-83.44
222.659	-39.57
223.037	-11.97
223.416	-6.48
223.794	-13.69
224.173	-16.31
224.551	-36.01
224.929	-40.86
225.308	-36.72
225.686	-22.83
226.064	-20.03
226.442	-17.98
226.821	-7.25
227.199	-5.75
227.577	-4.9
227.955	-5.57
228.333	-5.64
228.711	-5.18
229.089	0.89
229.467	0.3
229.845	1.91
230.222	1.12
230.6	0.17
230.978	-2.79
231.356	0.67
231.733	1.18
232.111	2.8
232.488	3.39
232.866	1.19
233.243	2.4
233.621	1.72
233.998	3.67
234.376	3.66
234.753	1.74
235.13	1.74
235.508	2.41
235.885	4.37
236.262	4.01
236.639	4
237.016	3.82
237.393	5.73
237.77	6.28
238.147	6.31
238.524	5.75
238.901	6.3
239.278	5.95
239.655	6.24
240.032	6.44
240.409	6.27
240.785	6.78
241.162	6.9
241.539	7.42
241.915	7.09
242.292	7.07
242.668	6.92
243.045	7.23
243.421	7.19
243.798	6.99
244.174	6.96
244.551	7.14
244.927	6.81
245.303	6.9
245.679	6.92
246.056	7.13
246.432	7.07
246.808	7.26
247.184	7.08
247.56	7.19
247.936	7.34
248.312	7.47
248.688	7.58
249.064	7.49
249.44	7.21
249.815	7.26
250.191	7.22
250.567	7.53
250.943	7.26
251.318	7.25
251.694	7.35
252.069	7.36
252.445	7.41
252.82	7.5
253.196	7.37
253.571	7.31
253.947	7.1
254.322	7
254.697	6.87
255.073	6.74
255.448	6.39
255.823	6.21
256.198	6.21
256.573	6.24
256.948	6.46
257.323	6.51
257.698	6.65
258.073	6.66
258.448	6.37
258.823	6.41
259.198	6.41
259.573	6.37
259.948	6.31
260.322	6.29
260.697	6.18
261.072	6.09
261.446	6.15
261.821	6.23
262.195	6.39
262.57	6.22
262.944	6.42
263.319	6.56
263.693	6.51
264.067	6.51
264.442	6.54
264.816	6.47
265.19	6.37
265.564	6.37
265.938	6.33
266.313	6.34
266.687	6.47
267.061	6.59
267.435	6.69
267.809	6.68
268.183	6.66
268.556	6.85
268.93	6.98
269.304	6.82
269.678	6.75
270.051	6.56
270.425	6.74
270.799	6.8
271.172	6.82
271.546	6.76
271.919	6.7
272.293	6.72
272.666	6.59
273.04	6.65
273.413	6.49
273.787	6.52
274.16	6.57
274.533	6.56
274.906	6.38
275.279	6.47
275.653	6.52
276.026	6.49
276.399	6.45
276.772	6.37
277.145	6.39
277.518	6.43
277.891	6.65
278.263	6.52
278.636	6.31
279.009	6.16
279.382	6.21
279.755	6.13
280.127	6.11
280.5	6.2
280.872	6.28
281.245	6.22
281.617	6.24
281.99	6.25
282.362	6.23
282.735	6.32
283.107	6.21
283.479	6.28
283.852	6.26
284.224	6.36
284.596	6.45
284.968	6.49
285.34	6.46
285.713	6.41
286.085	6.57
286.457	6.64
286.829	6.64
287.201	6.74
287.572	6.81
287.944	6.85
288.316	6.9
288.688	6.84
289.06	6.84
289.431	6.88
289.803	6.93
290.175	7.07
290.546	7.17
290.918	7.14
291.289	7.17
291.661	7.31
292.032	7.32
292.403	7.3
292.775	7.34
293.146	7.41
293.517	7.59
293.889	7.65
294.26	7.69
294.631	7.73
295.002	7.75
295.373	7.72
295.744	7.84
296.115	7.86
296.486	7.95
296.857	8.08
297.228	8.09
297.599	8.06
297.97	7.96
298.34	8.05
298.711	8.22
299.082	8.25
299.452	8.23
299.823	8.34
300.194	8.39
300.564	8.42
300.935	8.54
301.305	8.51
301.676	8.48
302.046	8.56
302.416	8.94
302.787	8.88
303.157	9.17
303.527	9.12
303.897	9.18
304.267	9.35
304.637	9.54
305.008	9.66
305.378	9.91
305.748	10.11
306.117	10.01
306.487	10.03
306.857	10.18
307.227	10.23
307.597	10.14
307.967	10.25
308.336	10.37
308.706	10.47
309.076	10.52
309.445	10.52
309.815	10.61
310.184	10.52
310.554	10.68
310.923	10.6
311.293	10.7
311.662	10.8
312.031	10.77
312.401	10.77
312.77	11.05
313.139	11.1
313.508	11.19
313.877	11.23
314.246	11.27
314.616	11.17
314.985	11.19
315.353	11.39
315.722	11.59
316.091	11.65
316.46	11.57
316.829	11.73
317.198	11.94
317.567	11.96
317.935	11.9
318.304	12.04
318.672	12.22
319.041	12.37
319.41	12.36
319.778	12.49
320.147	12.62
320.515	12.37
320.883	12.32
321.252	12.34
321.62	12.5
321.988	12.73
322.357	12.9
322.725	13.07
323.093	13.07
323.461	13.05
323.829	13.16
324.197	13.39
324.565	13.32
324.933	13.43
325.301	13.48
325.669	13.65
326.037	13.64
326.405	13.63
326.772	13.65
327.14	13.79
327.508	13.94
327.875	13.93
328.243	14.17
328.61	14.33
328.978	14.4
329.346	14.5
329.713	14.41
330.08	14.48
330.448	14.52
330.815	14.58
331.182	14.6
331.55	14.63
331.917	14.71
332.284	14.93
332.651	14.86
333.018	14.96
333.385	14.99
333.752	15.1
334.119	15.18
334.486	15.25
334.853	15.28
335.22	15.19
335.587	15.25
335.954	15.21
336.32	15.27
336.687	15.38
337.054	15.39
337.42	15.43
337.787	15.52
338.153	15.62
338.52	15.68
338.886	15.59
339.253	15.55
339.619	15.51
339.986	15.43
340.352	15.55
340.718	15.5
341.084	15.49
341.451	15.58
341.817	15.58
342.183	15.55
342.549	15.58
342.915	15.69
343.281	15.66
343.647	15.66
344.013	15.74
344.379	15.71
344.745	15.8
345.11	15.9
345.476	15.92
345.842	15.9
346.208	15.88
346.573	16.06
346.939	16.12
347.304	16.14
347.67	16.14
348.035	16.11
348.401	16.22
348.766	16.35
349.132	16.38
349.497	16.45
349.862	16.48
350.228	16.58
350.593	16.51
350.958	16.51
351.323	16.45
351.688	16.45
352.053	16.34
352.418	16.3
352.783	16.29
353.148	16.25
353.513	16.25
353.878	16.31
354.243	16.38
354.608	16.38
354.972	16.43
355.337	16.44
355.702	16.52
356.066	16.52
356.431	16.45
356.795	16.39
357.16	16.35
357.524	16.27
357.889	16.28
358.253	16.37
358.618	16.52
358.982	16.58
359.346	16.47
359.71	16.53
360.075	16.5
360.439	16.5
360.803	16.52
361.167	16.47
361.531	16.4
361.895	16.33
362.259	16.34
362.623	16.33
362.987	16.3
363.351	16.23
363.714	16.15
364.078	16.18
364.442	16.12
364.806	16.1
365.169	16.16
365.533	16.07
365.896	15.97
366.26	15.85
366.623	15.8
366.987	15.79
367.35	15.82
367.714	15.82
368.077	15.71
368.44	15.7
368.803	15.64
369.167	15.59
369.53	15.55
369.893	15.52
370.256	15.41
370.619	15.39
370.982	15.3
371.345	15.24
371.708	15.18
372.071	15.16
372.434	15.14
372.797	15.06
373.159	15.02
373.522	15.01
373.885	14.93
374.247	14.87
374.61	14.83
374.973	14.71
375.335	14.65
375.698	14.61
376.06	14.48
376.423	14.44
376.785	14.43
377.147	14.33
377.51	14.26
377.872	14.2
378.234	14.19
378.596	14.25
378.958	14.19
379.321	14.1
379.683	14.04
380.045	13.92
380.407	13.86
380.769	13.77
381.13	13.64
381.492	13.58
381.854	13.57
382.216	13.55
382.578	13.54
382.939	13.46
383.301	13.46
383.663	13.44
384.024	13.41
384.386	13.39
384.747	13.42
385.109	13.39
385.47	13.36
385.832	13.25
386.193	13.13
386.554	13.11
386.916	13.1
387.277	13.05
387.638	13.03
387.999	13
388.36	12.96
388.721	12.97
389.082	12.91
389.443	12.84
389.804	12.74
390.165	12.67
390.526	12.69
390.887	12.61
391.248	12.52
391.609	12.46
391.969	12.38
392.33	12.26
392.691	12.18
393.051	12.15
393.412	12.14
393.772	12.11
394.133	12.08
394.493	11.99
394.854	11.95
395.214	11.93
395.574	11.88
395.935	11.81
396.295	11.79
396.655	11.74
397.015	11.66
397.376	11.63
397.736	11.56
398.096	11.45
398.456	11.41
398.816	11.4
399.176	11.35
399.535	11.31
399.895	11.28
400.255	11.19
400.615	11.1
400.975	11.03
401.334	10.98
401.694	10.9
402.054	10.85
402.413	10.78
402.773	10.73
403.132	10.7
403.492	10.66
403.851	10.61
404.211	10.58
404.57	10.56
404.929	10.52
405.288	10.51
405.648	10.44
406.007	10.41
406.366	10.39
406.725	10.38
407.084	10.34
407.443	10.3
407.802	10.32
408.161	10.3
408.52	10.23
408.879	10.21
409.238	10.19
409.596	10.15
409.955	10.12
410.314	10.09
410.673	10.03
411.031	10.03
411.39	9.96
411.748	9.93
412.107	9.9
412.465	9.88
412.824	9.83
413.182	9.8
413.54	9.79
413.899	9.74
414.257	9.65
414.615	9.61
414.974	9.59
415.332	9.54
415.69	9.52
416.048	9.46
416.406	9.4
416.764	9.35
417.122	9.33
417.48	9.27
417.838	9.23
418.195	9.21
418.553	9.16
418.911	9.15
419.269	9.1
419.626	9.08
419.984	9.02
420.342	9
420.699	8.99
421.057	8.94
421.414	8.9
421.772	8.89
422.129	8.87
422.486	8.84
422.844	8.84
423.201	8.8
423.558	8.79
423.915	8.79
424.273	8.77
424.63	8.75
424.987	8.74
425.344	8.72
425.701	8.69
426.058	8.66
426.415	8.63
426.772	8.62
427.128	8.6
427.485	8.6
427.842	8.59
428.199	8.56
428.555	8.56
428.912	8.56
429.269	8.53
429.625	8.52
429.982	8.51
430.338	8.47
430.695	8.48
431.051	8.46
431.407	8.44
431.764	8.42
432.12	8.4
432.476	8.38
432.832	8.35
433.189	8.37
433.545	8.37
433.901	8.37
434.257	8.34
434.613	8.33
434.969	8.34
435.325	8.32
435.681	8.32
436.036	8.31
436.392	8.3
436.748	8.28
437.104	8.25
437.459	8.23
437.815	8.21
438.171	8.2
438.526	8.19
438.882	8.2
439.237	8.2
439.593	8.19
439.948	8.18
440.304	8.19
440.659	8.19
441.014	8.16
441.369	8.12
441.725	8.11
442.08	8.1
442.435	8.08
442.79	8.05
443.145	8.03
443.5	8
443.855	7.99
444.21	7.98
444.565	7.98
444.92	7.98
445.275	7.97
445.629	7.96
445.984	7.95
446.339	7.91
446.693	7.88
447.048	7.86
447.403	7.86
447.757	7.82
448.112	7.79
448.466	7.78
448.82	7.79
449.175	7.78
449.529	7.77
449.883	7.75
450.238	7.73
450.592	7.73
450.946	7.72
451.3	7.7
451.654	7.7
452.008	7.68
452.362	7.66
452.716	7.64
453.07	7.62
453.424	7.63
453.778	7.64
454.132	7.63
454.486	7.63
454.839	7.62
455.193	7.64
455.547	7.64
455.9	7.64
456.254	7.62
456.607	7.63
456.961	7.63
457.314	7.62
457.668	7.63
458.021	7.62
458.375	7.62
458.728	7.61
459.081	7.61
459.434	7.61
459.787	7.64
460.141	7.63
460.494	7.62
460.847	7.6
461.2	7.6
461.553	7.61
461.906	7.62
462.259	7.65
462.611	7.65
462.964	7.64
463.317	7.66
463.67	7.68
464.022	7.69
464.375	7.7
464.728	7.71
465.08	7.72
465.433	7.75
465.785	7.75
466.138	7.79
466.49	7.8
466.843	7.81
467.195	7.79
467.547	7.81
467.899	7.85
468.252	7.86
468.604	7.87
468.956	7.86
469.308	7.85
469.66	7.83
470.012	7.83
470.364	7.85
470.716	7.87
471.068	7.88
471.42	7.89
471.772	7.91
472.123	7.92
472.475	7.93
472.827	7.93
473.178	7.95
473.53	7.93
473.882	7.92
474.233	7.93
474.585	7.92
474.936	7.95
475.288	7.94
475.639	7.96
475.99	7.99
476.342	8.02
476.693	8.02
477.044	8.04
477.395	8.04
477.746	8.04
478.097	8
478.448	8
478.8	7.98
479.15	7.93
479.501	7.93
479.852	7.93
480.203	7.93
480.554	7.94
480.905	7.96
481.255	7.95
481.606	7.97
481.957	7.98
482.307	7.97
482.658	7.98
483.009	7.97
483.359	7.96
483.709	7.96
484.06	7.96
484.41	7.96
484.761	7.97
485.111	7.99
485.461	8
485.811	8.01
486.162	8.03
486.512	8.06
486.862	8.07
487.212	8.08
487.562	8.09
487.912	8.1
488.262	8.1
488.612	8.12
488.961	8.12
489.311	8.13
489.661	8.15
490.011	8.15
490.36	8.17
490.71	8.18
491.06	8.19
491.409	8.21
491.759	8.23
492.108	8.24
492.458	8.25
492.807	8.26
493.157	8.27
493.506	8.28
493.855	8.3
494.204	8.32
494.554	8.35
494.903	8.37
495.252	8.41
495.601	8.45
495.95	8.48
496.299	8.51
496.648	8.53
496.997	8.58
497.346	8.64
497.695	8.71
498.043	8.75
498.392	8.81
498.741	8.86
499.09	8.89
499.438	8.92
499.787	8.98
500.135	9.03
500.484	9.09
500.832	9.13
501.181	9.19
501.529	9.21
501.878	9.28
502.226	9.35
502.574	9.4
502.923	9.46
503.271	9.53
503.619	9.59
503.967	9.68
504.315	9.72
504.663	9.79
505.011	9.84
505.359	9.89
505.707	9.97
506.055	10
506.403	10.09
506.751	10.15
507.098	10.21
507.446	10.28
507.794	10.35
508.141	10.42
508.489	10.48
508.837	10.57
509.184	10.63
509.531	10.68
509.879	10.73
510.226	10.8
510.574	10.84
510.921	10.9
511.268	10.95
511.616	11.01
511.963	11.1
512.31	11.13
512.657	11.2
513.004	11.26
513.351	11.36
513.698	11.42
514.045	11.48
514.392	11.54
514.739	11.59
515.086	11.65
515.432	11.71
515.779	11.77
516.126	11.84
516.473	11.92
516.819	11.98
517.166	12.05
517.512	12.11
517.859	12.17
518.205	12.24
518.552	12.3
518.898	12.35
519.245	12.41
519.591	12.5
519.937	12.56
520.283	12.61
520.629	12.68
520.976	12.78
521.322	12.87
521.668	12.95
522.014	13.05
522.36	13.16
522.706	13.27
523.052	13.38
523.398	13.51
523.743	13.62
524.089	13.75
524.435	13.87
524.781	13.97
525.126	14.1
525.472	14.2
525.817	14.3
526.163	14.39
526.509	14.48
526.854	14.55
527.199	14.63
527.545	14.71
527.89	14.79
528.235	14.86
528.581	14.96
528.926	15.05
529.271	15.14
529.616	15.22
529.961	15.32
530.306	15.41
530.651	15.51
530.996	15.61
531.341	15.7
531.686	15.82
532.031	15.94
532.376	16.06
532.721	16.17
533.065	16.28
533.41	16.42
533.755	16.54
534.099	16.68
534.444	16.84
534.788	17.01
535.133	17.14
535.477	17.31
535.822	17.44
536.166	17.61
536.51	17.77
536.855	17.99
537.199	18.18
537.543	18.41
537.887	18.62
538.231	18.84
538.576	19.09
538.92	19.3
539.264	19.5
539.608	19.73
539.951	19.95
540.295	20.14
540.639	20.34
540.983	20.52
541.327	20.73
541.671	20.9
542.014	21.08
542.358	21.27
542.701	21.45
543.045	21.67
543.389	21.89
543.732	22.13
544.075	22.34
544.419	22.56
544.762	22.8
545.105	23.02
545.449	23.31
545.792	23.59
546.135	23.87
546.478	24.19
546.821	24.46
547.165	24.78
547.508	25.1
547.851	25.43
548.194	25.75
548.536	26.11
548.879	26.5
549.222	26.9
549.565	27.31
549.908	27.72
550.25	28.09
550.593	28.51
550.936	28.85
551.278	29.23
551.621	29.63
551.963	30
552.306	30.43
552.648	30.79
552.991	31.18
553.333	31.57
553.675	31.91
554.017	32.32
554.36	32.67
554.702	33.07
555.044	33.5
555.386	33.92
555.728	34.31
556.07	34.71
556.412	35.07
556.754	35.4
557.096	35.78
557.438	36.19
557.78	36.58
558.121	37.03
558.463	37.46
558.805	37.89
559.147	38.33
559.488	38.7
559.83	39.05
560.171	39.43
560.513	39.8
560.854	40.25
561.196	40.64
561.537	41.03
561.878	41.45
562.22	41.77
562.561	42.14
562.902	42.5
563.243	42.85
563.584	43.21
563.925	43.59
564.266	43.89
564.607	44.21
564.948	44.56
565.289	44.87
565.63	45.17
565.971	45.53
566.312	45.84
566.653	46.17
566.993	46.55
567.334	46.85
567.675	47.16
568.015	47.39
568.356	47.71
568.696	48.06
569.037	48.34
569.377	48.69
569.718	48.98
570.058	49.22
570.398	49.49
570.739	49.81
571.079	50.12
571.419	50.48
571.759	50.79
572.099	51.01
572.439	51.29
572.779	51.48
573.119	51.68
573.459	51.92
573.799	52.17
574.139	52.38
574.479	52.59
574.819	52.84
575.158	53.15
575.498	53.39
575.838	53.61
576.177	53.76
576.517	53.96
576.856	54.22
577.196	54.48
577.535	54.71
577.875	54.88
578.214	55.06
578.553	55.24
578.893	55.43
579.232	55.63
579.571	55.8
579.91	56.11
580.25	56.37
580.589	56.49
580.928	56.66
581.267	56.84
581.606	57.02
581.945	57.16
582.283	57.32
582.622	57.41
582.961	57.56
583.3	57.84
583.639	57.99
583.977	58.13
584.316	58.23
584.654	58.35
584.993	58.56
585.332	58.71
585.67	58.84
586.008	58.95
586.347	59.09
586.685	59.29
587.024	59.34
587.362	59.33
587.7	59.53
588.038	59.68
588.376	59.78
588.715	59.89
589.053	60.06
589.391	60.22
589.729	60.37
590.067	60.49
590.404	60.54
590.742	60.68
591.08	60.76
591.418	60.94
591.756	61.1
592.093	61.16
592.431	61.34
592.769	61.42
593.106	61.56
593.444	61.58
593.781	61.66
594.119	61.81
594.456	61.99
594.793	62.08
595.131	62.15
595.468	62.33
595.805	62.47
596.143	62.51
596.48	62.5
596.817	62.6
597.154	62.67
597.491	62.81
597.828	62.93
598.165	63.01
598.502	63.04
598.839	63.12
599.176	63.22
599.512	63.23
599.849	63.34
600.186	63.37
600.523	63.54
600.859	63.63
601.196	63.64
601.532	63.73
601.869	63.71
602.205	63.77
602.542	63.76
602.878	63.75
603.215	63.76
603.551	63.85
603.887	63.87
604.223	63.94
604.56	64.01
604.896	64.04
605.232	64.12
605.568	64.12
605.904	64.16
606.24	64.19
606.576	64.24
606.912	64.34
607.248	64.41
607.583	64.52
607.919	64.57
608.255	64.66
608.591	64.69
608.926	64.81
609.262	64.89
609.597	64.93
609.933	65.03
610.268	65.15
610.604	65.26
610.939	65.34
611.275	65.41
611.61	65.4
611.945	65.41
612.281	65.48
612.616	65.72
612.951	65.76
613.286	65.83
613.621	65.88
613.956	65.86
614.291	65.94
614.626	65.94
614.961	66.03
615.296	66.02
615.631	66.04
615.966	66.08
616.3	66.1
616.635	66.12
616.97	66.09
617.304	66.14
617.639	66.14
617.973	66.2
618.308	66.21
618.642	66.19
618.977	66.27
619.311	66.27
619.646	66.13
619.98	66.16
620.314	66.23
620.648	66.26
620.983	66.34
621.317	66.32
621.651	66.34
621.985	66.37
622.319	66.46
622.653	66.55
622.987	66.63
623.321	66.64
623.655	66.74
623.988	66.94
624.322	66.95
624.656	67
624.99	67.05
625.323	67.12
625.657	67.22
625.99	67.21
626.324	67.28
626.657	67.31
626.991	67.41
627.324	67.39
627.658	67.55
627.991	67.55
628.324	67.61
628.657	67.64
628.991	67.69
629.324	67.75
629.657	67.79
629.99	67.83
630.323	67.94
630.656	67.93
630.989	67.9
631.322	67.97
631.655	67.96
631.987	67.94
632.32	67.85
632.653	67.99
632.986	68
633.318	67.91
633.651	68
633.984	68.06
634.316	68.1
634.649	68.08
634.981	68.17
635.313	68.22
635.646	68.25
635.978	68.22
636.31	68.28
636.643	68.28
636.975	68.25
637.307	68.22
637.639	68.18
637.971	68.23
638.303	68.26
638.635	68.26
638.967	68.24
639.299	68.28
639.631	68.24
639.963	68.36
640.295	68.43
640.626	68.36
640.958	68.3
641.29	68.45
641.621	68.32
641.953	68.29
642.285	68.36
642.616	68.4
642.948	68.47
643.279	68.47
643.61	68.47
643.942	68.45
644.273	68.47
644.604	68.53
644.936	68.58
645.267	68.5
645.598	68.52
645.929	68.51
646.26	68.66
646.591	68.58
646.922	68.56
647.253	68.6
647.584	68.71
647.915	68.71
648.245	68.72
648.576	68.91
648.907	68.91
649.238	68.91
649.568	68.9
649.899	68.89
650.229	68.88
650.56	68.9
650.89	68.88
651.221	68.9
651.551	68.88
651.882	68.89
652.212	69.05
652.542	69.16
652.872	69.27
653.203	69.11
653.533	69.25
653.863	69.29
654.193	69.27
654.523	69.3
654.853	69.31
655.183	69.22
655.513	69.07
655.843	69.06
656.172	69.06
656.502	69.05
656.832	68.96
657.162	68.97
657.491	68.94
657.821	69.11
658.15	69.11
658.48	69.24
658.809	69.16
659.139	69.14
659.468	69.07
659.798	69.2
660.127	69.21
660.456	69.12
660.785	69.1
661.115	69.14
661.444	69.1
661.773	69.17
662.102	69.22
662.431	69.21
662.76	69.27
663.089	69.24
663.418	69.29
663.747	69.36
664.076	69.37
664.404	69.5
664.733	69.47
665.062	69.42
665.39	69.49
665.719	69.54
666.048	69.55
666.376	69.59
666.705	69.59
667.033	69.79
667.362	70
667.69	70.01
668.018	70.06
668.347	69.98
668.675	69.93
669.003	70.03
669.331	70.13
669.659	70.22
669.987	70.13
670.315	70.09
670.643	70.17
670.971	70.34
671.299	70.29
671.627	70.35
671.955	70.43
672.283	70.29
672.61	70.31
672.938	70.29
673.266	70.24
673.593	70.14
673.921	70.03
674.249	69.76
674.576	69.69
674.904	69.59
675.231	69.78
675.558	69.95
675.886	69.78
676.213	69.92
676.54	69.8
676.867	70
677.195	70.08
677.522	70.09
677.849	69.99
678.176	69.96
678.503	69.89
678.83	69.88
679.157	69.91
679.484	69.84
679.81	69.84
680.137	69.89
680.464	69.83
680.791	69.75
681.117	69.84
681.444	69.95
681.771	70.02
682.097	69.97
682.424	69.8
682.75	69.82
683.077	69.64
683.403	69.69
683.729	69.6
684.056	69.7
684.382	69.91
684.708	69.86
685.034	69.98
685.36	70
685.686	70.2
686.012	70.25
686.339	70.39
686.664	70.44
686.99	70.22
687.316	70.27
687.642	70.35
687.968	70.26
688.294	70.26
688.619	70.36
688.945	70.27
689.271	70.44
689.596	70.55
689.922	70.68
690.247	70.64
690.573	70.61
690.898	70.56
691.224	70.32
691.549	70.37
691.874	70.45
692.2	70.29
692.525	70.07
692.85	69.99
693.175	69.81
693.5	69.82
693.825	70.05
694.15	70.09
694.475	70.16
694.8	70.2
695.125	70.08
695.45	70.07
695.775	70.07
696.099	70.16
696.424	70.08
696.749	70
697.073	70
697.398	70.02
697.723	69.93
698.047	69.87
698.372	69.79
698.696	69.66
699.02	69.83
699.345	69.94
699.669	70
699.993	70.19
700.318	70.18
700.642	70.1
700.966	70.14
701.29	70.21
701.614	70.22
701.938	70.3
702.262	70.33
702.586	70.5
702.91	70.35
703.234	70.47
703.557	70.4
703.881	70.61
704.205	70.7
704.529	70.86
704.852	71.02
705.176	71.2
705.499	71.21
705.823	71.26
706.146	71.22
706.47	71.27
706.793	71.2
707.117	71.26
707.44	71.31
707.763	71.25
708.086	71.37
708.409	71.37
708.733	71.55
709.056	71.18
709.379	71.16
709.702	71.14
710.025	71.08
710.348	71.3
710.671	70.93
710.993	70.99
711.316	71
711.639	71.03
711.962	71.08
712.284	71.16
712.607	71.15
712.93	71.2
713.252	71.23
713.575	71.32
713.897	71.23
714.22	71.14
714.542	71.12
714.864	71.05
715.187	71.3
715.509	71.17
715.831	71.44
716.153	71.46
716.475	71.38
716.798	71.37
717.12	71.22
717.442	71.41
717.764	71.11
718.085	70.98
718.407	70.86
718.729	70.69
719.051	70.45
719.373	70.43
719.695	70.46
720.016	70.36
720.338	70.03
720.659	69.98
720.981	70.31
721.302	70.1
721.624	70.03
721.945	69.72
722.267	69.81
722.588	69.74
722.909	69.6
723.231	69.66
723.552	69.72
723.873	69.87
724.194	69.85
724.515	70.03
724.836	70.12
725.157	70.11
725.478	70
725.799	70.21
726.12	70.16
726.441	70.03
726.762	70.17
727.083	70.31
727.403	70.31
727.724	70.2
728.045	70.38
728.365	70.23
728.686	70.09
729.006	70.08
729.327	69.94
729.647	70.05
729.967	70.04
730.288	69.91
730.608	70.06
730.928	70.03
731.249	70.16
731.569	70.12
731.889	70.15
732.209	70.21
732.529	70.13
732.849	70.26
733.169	70.29
733.489	70.29
733.809	70.31
734.129	70.37
734.448	70.36
734.768	70.56
735.088	70.7
735.408	71.22
735.727	71.21
736.047	71.41
736.366	71.49
736.686	71.71
737.005	71.95
737.325	71.83
737.644	72.03
737.963	72.01
738.283	71.94
738.602	72.13
738.921	72.35
739.24	72.51
739.56	72.53
739.879	72.66
740.198	72.39
740.517	72.29
740.836	72.36
741.155	72.28
741.473	71.76
741.792	71.55
742.111	71.47
742.43	71.56
742.748	71.22
743.067	70.94
743.386	70.84
743.704	70.71
744.023	70.46
744.341	70.46
744.66	70.31
744.978	70.68
745.297	70.48
745.615	70.29
745.933	70.21
746.252	69.8
746.57	69.58
746.888	69.95
747.206	70.11
747.524	70.29
747.842	70.39
748.16	70.69
748.478	71.01
748.796	70.59
749.114	70.6
749.432	71.32
749.749	71.68
750.067	71.78
750.385	71.72
750.703	71.74
751.02	71.43
751.338	71.28
751.655	70.86
751.973	70.89
752.29	70.95
752.608	70.84
752.925	71.21
753.242	71.15
753.56	71.27
753.877	71.24
754.194	70.99
754.511	70.76
754.828	70.85
755.145	70.51
755.462	70.64
755.779	70.64
756.096	70.39
756.413	70.56
756.73	70.38
757.047	70.29
757.364	70.34
757.68	70.75
757.997	71.01
758.314	71.33
758.63	71.58
758.947	71.56
759.264	71.43
759.58	71.49
759.896	71.58
760.213	70.94
760.529	70.94
760.846	70.86
761.162	71.04
761.478	71.04
761.794	71.29
762.11	71.2
762.426	71.16
762.743	71.2
763.059	70.93
763.375	71.21
763.69	71.51
764.006	71.34
764.322	71.18
764.638	71.07
764.954	70.96
765.27	70.73
765.585	70.56
765.901	70.62
766.216	70.45
766.532	70.31
766.848	70.5
767.163	70.6
767.478	70.83
767.794	70.73
768.109	70.64
768.424	70.54
768.74	71.01
769.055	70.98
769.37	70.68
769.685	70.72
770	70.19
770.315	69.85
770.63	70.26
770.945	70.72
771.26	70.98
771.575	70.68
771.89	70.74
772.205	71.06
772.52	71.09
772.834	71.08
773.149	71.48
773.464	71.35
773.778	71.27
774.093	70.98
774.407	71.58
774.722	71.91
775.036	71.64
775.351	71.24
775.665	70.83
775.979	71.33
776.293	71.21
776.608	71.75
776.922	71.8
777.236	71.49
777.55	70.74
777.864	70.62
778.178	71.26
778.492	71.09
778.806	70.72
779.12	70.74
779.434	70.61
779.747	70.15
780.061	70.26
780.375	69.99
780.689	69.84
781.002	69.33
781.316	69.19
781.629	69.54
781.943	69.19
782.256	69.86
782.57	69.49
782.883	69.79
783.196	69.46
783.51	69.57
783.823	69.41
784.136	69.7
784.449	69.71
784.762	69.68
785.075	69.68
785.388	69.87
785.701	69.97
786.014	70.14
786.327	70.35
786.64	71.01
786.953	70.84
787.266	71.15
787.578	71.13
787.891	71.08
788.204	71.12
788.516	71.4
788.829	70.99
789.141	70.92
789.454	71.27
789.766	71.72
790.079	71.45
790.391	72.02
790.703	71.93
791.016	71.75
791.328	71.49
791.64	71.75
791.952	71.82
792.264	71.63
792.576	71.62
792.888	71.57
793.2	71.07
793.512	71.47
793.824	70.94
794.136	71.02
794.448	70.83
794.76	70.76
795.071	70.29
795.383	70.41
795.695	70.69
796.006	70.05
796.318	69.76
796.629	70.1
796.941	69.98
797.252	70.66
797.564	71.25
797.875	71.7
798.186	71.43
798.497	71.59
798.809	72.27
799.12	72.29
799.431	72.62
799.742	73.45
800.053	73.4
800.364	73.84
800.675	73.93
800.986	73.89
801.297	73.95
801.608	74.24
801.918	73.91
802.229	74.12
802.54	74.38
802.851	74.02
803.161	73.73
803.472	73.62
803.782	72.79
804.093	72.66
804.403	72.13
804.714	72.49
805.024	72.64
805.334	71.88
805.645	71.56
805.955	72.08
806.265	70.91
806.575	71.13
806.885	71.3
807.195	70.54
807.505	70.61
807.815	70.16
808.125	70.21
808.435	70.77
808.745	69.74
809.055	69.32
809.365	69.07
809.674	68.75
809.984	68.25
810.294	68.21
810.603	68.26
810.913	68.44
811.222	68.39
811.532	67.29
811.841	68.15
812.151	68.57
812.46	67.56
812.769	67.67
813.079	67.79
813.388	67.51
813.697	68.38
814.006	68
814.315	68.41
814.624	68.77
814.933	68.42
815.242	68.58
815.551	69.11
815.86	69.83
816.169	69.57
816.478	70.75
816.786	70.81
817.095	70.55
817.404	70.24
817.712	70.24
818.021	70.85
818.33	70.94
818.638	71.48
818.947	72.42
819.255	72.13
819.563	71.85
819.872	71.83
820.18	71.48
820.488	71.49
820.796	71.5
821.105	71.59
821.413	71.85
821.721	72
822.029	72.01
822.337	72.01
822.645	72.28
822.953	72
823.26	71.93
823.568	71.93
823.876	71.94
824.184	71.92
824.491	71.86
824.799	71.69
825.107	71.5
825.414	71.15
825.722	71.12
826.029	71.14
826.337	71.2
826.644	71.31
826.951	71.34
827.259	71.38
827.566	71.15
827.873	70.87
828.18	70.91
828.488	70.58
828.795	70.42
829.102	70.06
829.409	70.33
829.716	70.48
830.023	70.47
830.329	70.58
830.636	70.57
830.943	70.8
831.25	70.98
831.557	70.87
831.863	71.07
832.17	71.12
832.476	70.69
832.783	70.87
833.089	70.68
833.396	70.76
833.702	70.46
834.009	70.53
834.315	70.4
834.621	70.02
834.928	70.14
835.234	70.08
835.54	70.19
835.846	69.69
836.152	69.52
836.458	69.03
836.764	68.72
837.07	68.62
837.376	68.18
837.682	67.9
837.988	68.15
838.293	67.92
838.599	68.51
838.905	68.86
839.211	67.97
839.516	68.6
839.822	68.33
840.127	68.47
840.433	68.71
840.738	69.03
841.044	69.99
841.349	69.98
841.654	70.45
841.959	70.55
842.265	71.5
842.57	72.14
842.875	72.08
843.18	73.12
843.485	73.89
843.79	74.16
844.095	74.52
844.4	74.99
844.705	74.83
845.01	74.08
845.315	75.05
845.619	75.49
845.924	75.16
846.229	76.44
846.533	77.88
846.838	78.26
847.142	79.08
847.447	78.96
847.751	80.24
848.056	79.93
848.36	80.63
848.664	80.7
848.969	82.5
849.273	84.5
849.577	82.95
849.881	82.6
850.185	83.82
850.489	84.97
850.794	81.86
851.097	83.8
851.401	84.56
851.705	81.8
852.009	82.65
852.313	84.17
852.617	85.79
852.92	84.53
853.224	83.48
853.528	82.24
853.831	81.86
854.135	82.06
854.438	78.65
854.742	79.08
855.045	78.11
855.349	76.03
855.652	76.98
855.955	78.75
856.259	78.31
856.562	77.4
856.865	75.69
857.168	76.84
857.471	77.3
857.774	76.52
858.077	78.8
858.38	77.8
858.683	74.92
858.986	72.25
859.289	71.42
859.592	71.48
859.894	74.3
860.197	73.61
860.5	72.16
860.802	73.74
861.105	73
861.407	72.15
861.71	71.43
862.012	66.67
862.315	63.63
862.617	63.8
862.919	63.6
863.222	62.98
863.524	65.21
863.826	63.03
864.128	63.21
864.43	62.59
864.732	65.13
865.034	66.42
865.336	68.19
865.638	66.95
865.94	66.53
866.242	64.09
866.544	62.5
866.846	64.54
867.147	66.21
867.449	65.36
867.751	65.81
868.052	65.66
868.354	69.4
868.655	71.42
868.957	71.33
869.258	72.65
869.56	74.57
869.861	70.94
870.162	72.17
870.463	71.34
870.765	72.47
871.066	70.37
871.367	68.47
871.668	62.53
871.969	61.09
872.27	59.52
872.571	58.64
872.872	60.66
873.173	58.19
873.473	57.88
873.774	56.14
874.075	55.75
874.376	54.45
874.676	55.67
874.977	53.5
875.277	53.16
875.578	52.63
875.878	50.77
876.179	52.26
876.479	51.57
876.78	51.52
877.08	49.12
877.38	47.42
877.68	47
877.981	51.98
878.281	55.19
878.581	59.24
