Data from BA56830_Reflection_00009.txt Node
Date: Mon Nov 18 16:04:04 EST 2019
User: vgr7
Spectrometer: USB2G7710
Scans to average: 3
Trigger mode: 4
Integration Time (sec): 2.000000E-2
Electric dark correction enabled: true
Boxcar width: 10
XAxis mode: Wavelengths
Number of Pixels in Spectrum: 2048
>>>>>Begin Spectral Data<<<<<
177.721	-326.52
178.105	-272.55
178.488	-110.61
178.871	-147.97
179.254	-21.95
179.636	237.25
180.019	433.33
180.402	189.47
180.785	-14.43
181.168	6.43
181.55	5.98
181.933	69.63
182.316	60.35
182.698	69.25
183.081	87.71
183.463	67.45
183.846	95.94
184.228	111.55
184.611	405.26
184.993	-224.68
185.376	-460.98
185.758	-224.84
186.14	-233.33
186.522	-66.12
186.904	-140.31
187.287	360.27
187.669	77.44
188.051	-37.25
188.433	33100
188.815	153.14
189.197	29.86
189.579	36.65
189.961	43.14
190.342	24.66
190.724	29.7
191.106	44.25
191.488	42.61
191.869	40.63
192.251	28.45
192.633	36.39
193.014	22.31
193.396	-31.2
193.777	-30.22
194.159	-32.53
194.54	-4.85
194.922	3.52
195.303	35.99
195.684	-17.74
196.065	2.59
196.447	-27.56
196.828	-38.5
197.209	-11.81
197.59	-37.2
197.971	-24.85
198.352	-3.17
198.733	-4.38
199.114	3.1
199.495	4.88
199.876	8.78
200.257	13.01
200.638	1.12
201.018	-9.58
201.399	-24
201.78	-28.08
202.16	-37.65
202.541	-52.83
202.922	-83.67
203.302	-113.62
203.683	-96.61
204.063	-163.43
204.444	-140.54
204.824	-90.61
205.204	-94.52
205.585	-99.36
205.965	-101.65
206.345	-108.54
206.725	-136.02
207.106	-156.53
207.486	-210.52
207.866	-146.62
208.246	-111.69
208.626	-120.92
209.006	-76.28
209.386	-76.68
209.766	-86.07
210.145	-66.2
210.525	-45.34
210.905	-30.36
211.285	-14.67
211.664	-18.56
212.044	-21.34
212.424	-9.56
212.803	-23.56
213.183	-19.35
213.562	-4.45
213.942	-2.08
214.321	-9.73
214.701	-12.03
215.08	-25.51
215.459	-24.74
215.838	-38.01
216.218	-39.43
216.597	-39.48
216.976	-40.45
217.355	-26.53
217.734	-18.74
218.113	-18.38
218.492	-24.92
218.871	-25.61
219.25	-16.09
219.629	-22.31
220.008	-31.78
220.387	-46.19
220.766	-35.79
221.144	-49.97
221.523	-50.49
221.902	-57.36
222.28	-70.76
222.659	-56.26
223.037	-44.06
223.416	-44.66
223.794	-42.18
224.173	-41.37
224.551	-35.83
224.929	-36.59
225.308	-30.46
225.686	-30.33
226.064	-28.38
226.442	-22.59
226.821	-20.26
227.199	-21.32
227.577	-18.61
227.955	-13.48
228.333	-9.81
228.711	-9.78
229.089	-4.67
229.467	-5.24
229.845	-2.59
230.222	-0.55
230.6	-2.13
230.978	1.32
231.356	2.62
231.733	3.14
232.111	4.48
232.488	5.23
232.866	5.54
233.243	4.31
233.621	3.84
233.998	5.14
234.376	2.69
234.753	2.45
235.13	3.64
235.508	4.52
235.885	4.62
236.262	3.77
236.639	3.5
237.016	3.04
237.393	5.07
237.77	4.59
238.147	5.33
238.524	5.64
238.901	4.53
239.278	4.97
239.655	5.3
240.032	5.42
240.409	4.64
240.785	4.31
241.162	4.61
241.539	5.18
241.915	4.86
242.292	5.01
242.668	5.21
243.045	4.96
243.421	4.95
243.798	4.65
244.174	4.8
244.551	4.79
244.927	4.56
245.303	4.75
245.679	4.71
246.056	4.46
246.432	4.45
246.808	4.31
247.184	3.73
247.56	3.54
247.936	3.41
248.312	3.49
248.688	3.52
249.064	3.46
249.44	3.26
249.815	3.22
250.191	3.35
250.567	3.22
250.943	2.93
251.318	2.95
251.694	3.16
252.069	2.99
252.445	2.86
252.82	2.91
253.196	2.41
253.571	2.53
253.947	2.67
254.322	2.69
254.697	2.88
255.073	3.27
255.448	3.23
255.823	3.14
256.198	3.34
256.573	3.3
256.948	3.46
257.323	3.58
257.698	3.68
258.073	3.74
258.448	3.58
258.823	3.85
259.198	3.62
259.573	3.45
259.948	3.6
260.322	3.72
260.697	3.75
261.072	3.73
261.446	3.66
261.821	3.55
262.195	3.57
262.57	3.56
262.944	3.53
263.319	3.34
263.693	3.35
264.067	3.25
264.442	3.12
264.816	2.95
265.19	2.94
265.564	2.92
265.938	2.78
266.313	2.9
266.687	2.83
267.061	3.12
267.435	3.38
267.809	3.13
268.183	3.03
268.556	3.1
268.93	3.32
269.304	3.26
269.678	3.49
270.051	3.44
270.425	3.4
270.799	3.41
271.172	3.54
271.546	3.38
271.919	3.34
272.293	3.49
272.666	3.65
273.04	3.56
273.413	3.55
273.787	3.51
274.16	3.53
274.533	3.53
274.906	3.53
275.279	3.35
275.653	3.39
276.026	3.3
276.399	3.18
276.772	3.05
277.145	3.05
277.518	2.94
277.891	3.08
278.263	3.19
278.636	3.07
279.009	3.19
279.382	3.48
279.755	3.58
280.127	3.68
280.5	3.54
280.872	3.7
281.245	3.8
281.617	3.97
281.99	4
282.362	3.99
282.735	3.78
283.107	3.73
283.479	3.81
283.852	3.9
284.224	3.85
284.596	3.92
284.968	3.95
285.34	3.89
285.713	3.76
286.085	3.65
286.457	3.78
286.829	3.82
287.201	3.74
287.572	3.67
287.944	3.68
288.316	3.67
288.688	3.65
289.06	3.61
289.431	3.52
289.803	3.58
290.175	3.53
290.546	3.65
290.918	3.82
291.289	3.81
291.661	3.88
292.032	3.99
292.403	3.91
292.775	3.94
293.146	4.01
293.517	3.98
293.889	4.07
294.26	4.02
294.631	3.86
295.002	3.78
295.373	3.85
295.744	3.79
296.115	3.86
296.486	3.62
296.857	3.59
297.228	3.79
297.599	3.76
297.97	3.85
298.34	3.93
298.711	3.93
299.082	3.97
299.452	3.91
299.823	3.92
300.194	3.91
300.564	3.9
300.935	3.91
301.305	3.92
301.676	4
302.046	4.13
302.416	4.34
302.787	4.44
303.157	4.43
303.527	4.45
303.897	4.5
304.267	5.01
304.637	5.15
305.008	5
305.378	5.06
305.748	5.12
306.117	5.09
306.487	5.15
306.857	5.1
307.227	5.16
307.597	5.14
307.967	5.24
308.336	5.29
308.706	5.3
309.076	5.48
309.445	5.3
309.815	5.27
310.184	5.27
310.554	5.35
310.923	5.37
311.293	5.34
311.662	5.32
312.031	5.15
312.401	5.13
312.77	5.28
313.139	5.33
313.508	5.33
313.877	5.34
314.246	5.36
314.616	5.37
314.985	5.42
315.353	5.55
315.722	5.63
316.091	5.7
316.46	5.74
316.829	5.83
317.198	6.21
317.567	6.36
317.935	6.28
318.304	6.37
318.672	6.46
319.041	6.72
319.41	6.76
319.778	6.81
320.147	6.82
320.515	6.77
320.883	6.75
321.252	6.89
321.62	6.94
321.988	6.92
322.357	6.94
322.725	7.01
323.093	7.17
323.461	7.24
323.829	7.28
324.197	7.4
324.565	7.54
324.933	7.35
325.301	7.37
325.669	7.44
326.037	7.48
326.405	7.51
326.772	7.51
327.14	7.59
327.508	7.58
327.875	7.6
328.243	7.71
328.61	7.74
328.978	7.8
329.346	8.02
329.713	8.06
330.08	8.14
330.448	8.24
330.815	8.18
331.182	8.25
331.55	8.28
331.917	8.4
332.284	8.26
332.651	8.32
333.018	8.3
333.385	8.4
333.752	8.5
334.119	8.57
334.486	8.55
334.853	8.65
335.22	8.75
335.587	8.82
335.954	8.74
336.32	8.82
336.687	8.84
337.054	8.8
337.42	9.02
337.787	9.18
338.153	9.09
338.52	9.06
338.886	8.95
339.253	8.9
339.619	8.9
339.986	9
340.352	9.15
340.718	9.2
341.084	9.14
341.451	9.21
341.817	9.28
342.183	9.21
342.549	9.17
342.915	9.22
343.281	9.25
343.647	9.35
344.013	9.39
344.379	9.33
344.745	9.38
345.11	9.27
345.476	9.25
345.842	9.23
346.208	9.33
346.573	9.41
346.939	9.54
347.304	9.5
347.67	9.43
348.035	9.4
348.401	9.39
348.766	9.47
349.132	9.42
349.497	9.32
349.862	9.56
350.228	9.59
350.593	9.54
350.958	9.59
351.323	9.56
351.688	9.59
352.053	9.77
352.418	9.79
352.783	9.77
353.148	9.77
353.513	9.9
353.878	9.76
354.243	9.81
354.608	9.83
354.972	9.81
355.337	9.91
355.702	9.88
356.066	10
356.431	9.92
356.795	9.9
357.16	9.95
357.524	9.81
357.889	9.75
358.253	9.72
358.618	9.64
358.982	9.59
359.346	9.53
359.71	9.4
360.075	9.34
360.439	9.37
360.803	9.33
361.167	9.28
361.531	9.29
361.895	9.28
362.259	9.24
362.623	9.21
362.987	9.13
363.351	9.1
363.714	9.05
364.078	9.09
364.442	9.01
364.806	8.96
365.169	8.93
365.533	8.9
365.896	8.92
366.26	8.93
366.623	8.98
366.987	8.95
367.35	8.96
367.714	8.93
368.077	8.87
368.44	8.83
368.803	8.79
369.167	8.77
369.53	8.58
369.893	8.56
370.256	8.57
370.619	8.59
370.982	8.59
371.345	8.51
371.708	8.46
372.071	8.4
372.434	8.38
372.797	8.32
373.159	8.26
373.522	8.2
373.885	8.18
374.247	8.04
374.61	7.99
374.973	7.88
375.335	7.84
375.698	7.81
376.06	7.68
376.423	7.63
376.785	7.65
377.147	7.72
377.51	7.65
377.872	7.6
378.234	7.52
378.596	7.47
378.958	7.38
379.321	7.34
379.683	7.29
380.045	7.28
380.407	7.23
380.769	7.21
381.13	7.15
381.492	7.04
381.854	7.01
382.216	6.93
382.578	6.89
382.939	6.8
383.301	6.72
383.663	6.69
384.024	6.6
384.386	6.53
384.747	6.47
385.109	6.4
385.47	6.31
385.832	6.27
386.193	6.25
386.554	6.2
386.916	6.13
387.277	6.13
387.638	6.09
387.999	6.06
388.36	6.02
388.721	5.99
389.082	6
389.443	5.98
389.804	5.96
390.165	5.91
390.526	5.86
390.887	5.8
391.248	5.8
391.609	5.82
391.969	5.79
392.33	5.75
392.691	5.69
393.051	5.67
393.412	5.64
393.772	5.57
394.133	5.54
394.493	5.51
394.854	5.46
395.214	5.41
395.574	5.33
395.935	5.3
396.295	5.26
396.655	5.18
397.015	5.13
397.376	5.07
397.736	5.05
398.096	5.02
398.456	4.99
398.816	4.93
399.176	4.87
399.535	4.82
399.895	4.77
400.255	4.77
400.615	4.74
400.975	4.69
401.334	4.65
401.694	4.59
402.054	4.56
402.413	4.53
402.773	4.49
403.132	4.49
403.492	4.48
403.851	4.45
404.211	4.45
404.57	4.39
404.929	4.42
405.288	4.38
405.648	4.39
406.007	4.36
406.366	4.36
406.725	4.36
407.084	4.33
407.443	4.31
407.802	4.28
408.161	4.26
408.52	4.25
408.879	4.23
409.238	4.23
409.596	4.24
409.955	4.25
410.314	4.25
410.673	4.23
411.031	4.19
411.39	4.18
411.748	4.16
412.107	4.18
412.465	4.12
412.824	4.11
413.182	4.07
413.54	4.06
413.899	4.06
414.257	4.02
414.615	4.05
414.974	4.07
415.332	4.07
415.69	4.06
416.048	4.03
416.406	4.02
416.764	4
417.122	3.97
417.48	3.92
417.838	3.91
418.195	3.89
418.553	3.88
418.911	3.87
419.269	3.89
419.626	3.86
419.984	3.85
420.342	3.83
420.699	3.84
421.057	3.84
421.414	3.8
421.772	3.8
422.129	3.78
422.486	3.75
422.844	3.73
423.201	3.7
423.558	3.7
423.915	3.7
424.273	3.69
424.63	3.66
424.987	3.67
425.344	3.66
425.701	3.66
426.058	3.65
426.415	3.64
426.772	3.61
427.128	3.6
427.485	3.6
427.842	3.58
428.199	3.57
428.555	3.56
428.912	3.57
429.269	3.55
429.625	3.52
429.982	3.52
430.338	3.52
430.695	3.52
431.051	3.5
431.407	3.5
431.764	3.49
432.12	3.48
432.476	3.48
432.832	3.48
433.189	3.47
433.545	3.48
433.901	3.47
434.257	3.47
434.613	3.5
434.969	3.5
435.325	3.49
435.681	3.48
436.036	3.47
436.392	3.46
436.748	3.47
437.104	3.47
437.459	3.47
437.815	3.48
438.171	3.48
438.526	3.48
438.882	3.47
439.237	3.47
439.593	3.5
439.948	3.49
440.304	3.47
440.659	3.46
441.014	3.45
441.369	3.43
441.725	3.43
442.08	3.43
442.435	3.43
442.79	3.44
443.145	3.46
443.5	3.44
443.855	3.44
444.21	3.44
444.565	3.45
444.92	3.44
445.275	3.41
445.629	3.43
445.984	3.41
446.339	3.41
446.693	3.4
447.048	3.38
447.403	3.38
447.757	3.38
448.112	3.36
448.466	3.36
448.82	3.36
449.175	3.37
449.529	3.32
449.883	3.3
450.238	3.28
450.592	3.26
450.946	3.25
451.3	3.24
451.654	3.22
452.008	3.21
452.362	3.2
452.716	3.2
453.07	3.18
453.424	3.18
453.778	3.16
454.132	3.15
454.486	3.15
454.839	3.16
455.193	3.16
455.547	3.16
455.9	3.17
456.254	3.19
456.607	3.2
456.961	3.21
457.314	3.21
457.668	3.21
458.021	3.2
458.375	3.21
458.728	3.21
459.081	3.23
459.434	3.23
459.787	3.25
460.141	3.25
460.494	3.26
460.847	3.27
461.2	3.28
461.553	3.29
461.906	3.3
462.259	3.29
462.611	3.31
462.964	3.32
463.317	3.32
463.67	3.3
464.022	3.29
464.375	3.29
464.728	3.3
465.08	3.31
465.433	3.33
465.785	3.35
466.138	3.36
466.49	3.34
466.843	3.35
467.195	3.35
467.547	3.35
467.899	3.36
468.252	3.37
468.604	3.38
468.956	3.37
469.308	3.36
469.66	3.36
470.012	3.36
470.364	3.37
470.716	3.39
471.068	3.4
471.42	3.42
471.772	3.45
472.123	3.45
472.475	3.47
472.827	3.47
473.178	3.48
473.53	3.49
473.882	3.5
474.233	3.49
474.585	3.45
474.936	3.46
475.288	3.45
475.639	3.44
475.99	3.45
476.342	3.45
476.693	3.47
477.044	3.48
477.395	3.48
477.746	3.46
478.097	3.44
478.448	3.43
478.8	3.41
479.15	3.4
479.501	3.38
479.852	3.38
480.203	3.38
480.554	3.38
480.905	3.39
481.255	3.39
481.606	3.39
481.957	3.41
482.307	3.41
482.658	3.42
483.009	3.42
483.359	3.41
483.709	3.42
484.06	3.42
484.41	3.43
484.761	3.43
485.111	3.44
485.461	3.44
485.811	3.45
486.162	3.45
486.512	3.46
486.862	3.47
487.212	3.47
487.562	3.48
487.912	3.48
488.262	3.47
488.612	3.48
488.961	3.49
489.311	3.49
489.661	3.49
490.011	3.49
490.36	3.5
490.71	3.51
491.06	3.52
491.409	3.52
491.759	3.53
492.108	3.55
492.458	3.57
492.807	3.59
493.157	3.59
493.506	3.59
493.855	3.61
494.204	3.62
494.554	3.64
494.903	3.65
495.252	3.67
495.601	3.7
495.95	3.71
496.299	3.75
496.648	3.76
496.997	3.78
497.346	3.82
497.695	3.85
498.043	3.89
498.392	3.91
498.741	3.95
499.09	3.94
499.438	3.97
499.787	4
500.135	4.03
500.484	4.05
500.832	4.09
501.181	4.12
501.529	4.17
501.878	4.21
502.226	4.27
502.574	4.32
502.923	4.35
503.271	4.39
503.619	4.43
503.967	4.49
504.315	4.52
504.663	4.57
505.011	4.61
505.359	4.64
505.707	4.73
506.055	4.77
506.403	4.85
506.751	4.9
507.098	4.95
507.446	5.01
507.794	5.08
508.141	5.16
508.489	5.22
508.837	5.28
509.184	5.33
509.531	5.41
509.879	5.46
510.226	5.54
510.574	5.62
510.921	5.7
511.268	5.75
511.616	5.84
511.963	5.91
512.31	5.99
512.657	6.07
513.004	6.13
513.351	6.22
513.698	6.3
514.045	6.38
514.392	6.47
514.739	6.55
515.086	6.64
515.432	6.72
515.779	6.79
516.126	6.89
516.473	6.98
516.819	7.06
517.166	7.15
517.512	7.25
517.859	7.32
518.205	7.38
518.552	7.47
518.898	7.53
519.245	7.61
519.591	7.67
519.937	7.76
520.283	7.85
520.629	7.94
520.976	8.05
521.322	8.17
521.668	8.29
522.014	8.42
522.36	8.56
522.706	8.68
523.052	8.82
523.398	8.98
523.743	9.15
524.089	9.33
524.435	9.48
524.781	9.62
525.126	9.76
525.472	9.89
525.817	10.03
526.163	10.15
526.509	10.27
526.854	10.37
527.199	10.49
527.545	10.59
527.89	10.71
528.235	10.82
528.581	10.93
528.926	11.06
529.271	11.19
529.616	11.3
529.961	11.43
530.306	11.57
530.651	11.7
530.996	11.83
531.341	11.95
531.686	12.11
532.031	12.27
532.376	12.45
532.721	12.64
533.065	12.82
533.41	13.03
533.755	13.24
534.099	13.47
534.444	13.68
534.788	13.91
535.133	14.1
535.477	14.31
535.822	14.55
536.166	14.79
536.51	15.07
536.855	15.34
537.199	15.63
537.543	15.95
537.887	16.24
538.231	16.57
538.576	16.9
538.92	17.22
539.264	17.51
539.608	17.81
539.951	18.09
540.295	18.36
540.639	18.61
540.983	18.83
541.327	19.06
541.671	19.32
542.014	19.58
542.358	19.84
542.701	20.08
543.045	20.34
543.389	20.57
543.732	20.8
544.075	21.1
544.419	21.4
544.762	21.66
545.105	21.97
545.449	22.28
545.792	22.59
546.135	22.91
546.478	23.29
546.821	23.63
547.165	23.99
547.508	24.38
547.851	24.78
548.194	25.18
548.536	25.58
548.879	25.94
549.222	26.33
549.565	26.69
549.908	27.08
550.25	27.46
550.593	27.84
550.936	28.21
551.278	28.55
551.621	28.92
551.963	29.32
552.306	29.7
552.648	30.04
552.991	30.41
553.333	30.75
553.675	31.04
554.017	31.38
554.36	31.66
554.702	31.96
555.044	32.23
555.386	32.56
555.728	32.89
556.07	33.24
556.412	33.51
556.754	33.82
557.096	34.15
557.438	34.47
557.78	34.73
558.121	35.07
558.463	35.37
558.805	35.66
559.147	35.93
559.488	36.16
559.83	36.47
560.171	36.75
560.513	37.02
560.854	37.32
561.196	37.62
561.537	37.91
561.878	38.16
562.22	38.42
562.561	38.67
562.902	38.94
563.243	39.19
563.584	39.46
563.925	39.7
564.266	39.94
564.607	40.2
564.948	40.49
565.289	40.73
565.63	40.99
565.971	41.19
566.312	41.37
566.653	41.68
566.993	41.85
567.334	42.07
567.675	42.27
568.015	42.45
568.356	42.62
568.696	42.76
569.037	43
569.377	43.24
569.718	43.42
570.058	43.57
570.398	43.7
570.739	43.91
571.079	44.14
571.419	44.3
571.759	44.45
572.099	44.63
572.439	44.81
572.779	44.98
573.119	45.12
573.459	45.32
573.799	45.47
574.139	45.64
574.479	45.76
574.819	45.95
575.158	46.13
575.498	46.25
575.838	46.49
576.177	46.66
576.517	46.85
576.856	47.02
577.196	47.18
577.535	47.42
577.875	47.5
578.214	47.72
578.553	47.87
578.893	48.04
579.232	48.2
579.571	48.34
579.91	48.52
580.25	48.66
580.589	48.75
580.928	48.88
581.267	49
581.606	49.16
581.945	49.27
582.283	49.43
582.622	49.59
582.961	49.73
583.3	49.78
583.639	49.82
583.977	49.9
584.316	50.01
584.654	50.09
584.993	50.22
585.332	50.26
585.67	50.47
586.008	50.53
586.347	50.65
586.685	50.66
587.024	50.66
587.362	50.7
587.7	50.75
588.038	50.84
588.376	50.92
588.715	51.01
589.053	51.04
589.391	51.08
589.729	51.17
590.067	51.25
590.404	51.31
590.742	51.41
591.08	51.47
591.418	51.55
591.756	51.6
592.093	51.74
592.431	51.83
592.769	51.76
593.106	51.88
593.444	51.95
593.781	52.11
594.119	52.29
594.456	52.38
594.793	52.59
595.131	52.67
595.468	52.79
595.805	52.87
596.143	52.95
596.48	53.09
596.817	53.18
597.154	53.2
597.491	53.31
597.828	53.36
598.165	53.48
598.502	53.54
598.839	53.68
599.176	53.75
599.512	53.8
599.849	53.95
600.186	54.06
600.523	54.16
600.859	54.25
601.196	54.23
601.532	54.34
601.869	54.32
602.205	54.35
602.542	54.42
602.878	54.45
603.215	54.47
603.551	54.45
603.887	54.44
604.223	54.53
604.56	54.61
604.896	54.68
605.232	54.7
605.568	54.73
605.904	54.76
606.24	54.8
606.576	54.88
606.912	54.89
607.248	54.89
607.583	54.82
607.919	54.83
608.255	54.92
608.591	54.99
608.926	55.03
609.262	55.16
609.597	55.26
609.933	55.41
610.268	55.53
610.604	55.6
610.939	55.73
611.275	55.77
611.61	55.89
611.945	55.92
612.281	56.04
612.616	56.14
612.951	56.25
613.286	56.39
613.621	56.44
613.956	56.57
614.291	56.64
614.626	56.78
614.961	56.84
615.296	56.92
615.631	57.01
615.966	57.04
616.3	57.07
616.635	56.99
616.97	56.94
617.304	56.94
617.639	57.07
617.973	57.06
618.308	57.08
618.642	57
618.977	57.1
619.311	57.1
619.646	57.13
619.98	57.17
620.314	57.06
620.648	57.14
620.983	57.15
621.317	57.22
621.651	57.18
621.985	57.25
622.319	57.23
622.653	57.31
622.987	57.38
623.321	57.4
623.655	57.53
623.988	57.66
624.322	57.72
624.656	57.69
624.99	57.78
625.323	57.83
625.657	57.87
625.99	57.86
626.324	57.92
626.657	57.99
626.991	57.95
627.324	58.04
627.658	57.97
627.991	58.01
628.324	57.98
628.657	58.15
628.991	58.15
629.324	58.17
629.657	58.2
629.99	58.26
630.323	58.3
630.656	58.26
630.989	58.21
631.322	58.22
631.655	58.18
631.987	58.18
632.32	58.18
632.653	58.2
632.986	58.21
633.318	58.25
633.651	58.26
633.984	58.27
634.316	58.28
634.649	58.39
634.981	58.42
635.313	58.5
635.646	58.46
635.978	58.43
636.31	58.46
636.643	58.47
636.975	58.58
637.307	58.61
637.639	58.66
637.971	58.75
638.303	58.76
638.635	58.84
638.967	58.93
639.299	58.9
639.631	58.88
639.963	58.88
640.295	58.84
640.626	58.79
640.958	58.81
641.29	58.88
641.621	58.93
641.953	59.01
642.285	59.09
642.616	59.15
642.948	59.38
643.279	59.42
643.61	59.4
643.942	59.27
644.273	59.24
644.604	59.22
644.936	59.09
645.267	59.08
645.598	59.19
645.929	59.11
646.26	59.27
646.591	59.24
646.922	59.34
647.253	59.51
647.584	59.5
647.915	59.67
648.245	59.68
648.576	59.59
648.907	59.57
649.238	59.48
649.568	59.51
649.899	59.42
650.229	59.53
650.56	59.59
650.89	59.69
651.221	59.74
651.551	59.77
651.882	59.98
652.212	60.08
652.542	60.04
652.872	60.16
653.203	60.11
653.533	60.2
653.863	60.23
654.193	60.08
654.523	60.13
654.853	60.04
655.183	60.11
655.513	60.19
655.843	60.29
656.172	60.45
656.502	60.41
656.832	60.43
657.162	60.46
657.491	60.39
657.821	60.33
658.15	60.23
658.48	60.3
658.809	60.3
659.139	60.22
659.468	60.23
659.798	60.19
660.127	60.24
660.456	60.28
660.785	60.3
661.115	60.38
661.444	60.52
661.773	60.48
662.102	60.4
662.431	60.41
662.76	60.43
663.089	60.3
663.418	60.33
663.747	60.41
664.076	60.34
664.404	60.42
664.733	60.55
665.062	60.65
665.39	60.49
665.719	60.36
666.048	60.51
666.376	60.66
666.705	60.7
667.033	60.68
667.362	60.74
667.69	60.67
668.018	60.7
668.347	60.61
668.675	60.67
669.003	60.57
669.331	60.58
669.659	60.49
669.987	60.63
670.315	60.79
670.643	60.83
670.971	60.88
671.299	60.95
671.627	60.86
671.955	60.89
672.283	60.97
672.61	61.08
672.938	61.08
673.266	60.87
673.593	60.83
673.921	60.84
674.249	60.73
674.576	60.75
674.904	60.76
675.231	60.88
675.558	60.87
675.886	61.06
676.213	60.98
676.54	61.02
676.867	61.06
677.195	61.01
677.522	60.87
677.849	60.75
678.176	60.81
678.503	60.92
678.83	61
679.157	61.25
679.484	61.25
679.81	61.31
680.137	61.41
680.464	61.49
680.791	61.51
681.117	61.56
681.444	61.68
681.771	61.7
682.097	61.67
682.424	61.77
682.75	61.76
683.077	61.83
683.403	61.93
683.729	61.9
684.056	61.85
684.382	61.85
684.708	62.02
685.034	61.98
685.36	61.94
685.686	62.03
686.012	61.95
686.339	62.02
686.664	62.09
686.99	62.03
687.316	61.99
687.642	62.03
687.968	62.02
688.294	61.98
688.619	62.14
688.945	62.06
689.271	61.98
689.596	62
689.922	62.01
690.247	61.86
690.573	61.96
690.898	61.87
691.224	62.12
691.549	61.97
691.874	62.03
692.2	61.95
692.525	61.91
692.85	61.8
693.175	61.82
693.5	61.8
693.825	61.9
694.15	61.96
694.475	61.95
694.8	61.94
695.125	61.97
695.45	61.9
695.775	62.05
696.099	62.1
696.424	62.18
696.749	62.19
697.073	62.27
697.398	62.32
697.723	62.4
698.047	62.25
698.372	62.36
698.696	62.18
699.02	62.24
699.345	62.2
699.669	62.15
699.993	62.07
700.318	62.01
700.642	62.05
700.966	62.01
701.29	62.11
701.614	62.1
701.938	62.02
702.262	62.03
702.586	61.94
702.91	62.04
703.234	61.9
703.557	61.92
703.881	61.84
704.205	61.76
704.529	61.81
704.852	62.01
705.176	62.01
705.499	62.22
705.823	62.34
706.146	62.39
706.47	62.51
706.793	62.57
707.117	62.53
707.44	62.43
707.763	62.44
708.086	62.3
708.409	62.41
708.733	62.58
709.056	62.56
709.379	62.58
709.702	62.53
710.025	62.65
710.348	62.66
710.671	62.83
710.993	62.75
711.316	62.61
711.639	62.54
711.962	62.46
712.284	62.51
712.607	62.51
712.93	62.61
713.252	62.51
713.575	62.47
713.897	62.61
714.22	62.7
714.542	62.67
714.864	62.58
715.187	62.63
715.509	62.51
715.831	62.44
716.153	62.53
716.475	62.58
716.798	62.55
717.12	62.49
717.442	62.38
717.764	62.49
718.085	62.48
718.407	62.36
718.729	62.43
719.051	62.36
719.373	62.27
719.695	62.05
720.016	62.26
720.338	62.32
720.659	62.18
720.981	61.97
721.302	61.85
721.624	62.11
721.945	62.18
722.267	62.25
722.588	62.28
722.909	62.36
723.231	62.19
723.552	62.32
723.873	62.59
724.194	62.56
724.515	62.4
724.836	62.54
725.157	62.53
725.478	62.63
725.799	62.82
726.12	62.81
726.441	62.84
726.762	62.72
727.083	62.58
727.403	62.53
727.724	62.53
728.045	62.72
728.365	62.71
728.686	62.5
729.006	62.68
729.327	62.84
729.647	62.76
729.967	62.72
730.288	62.71
730.608	62.62
730.928	62.78
731.249	62.67
731.569	62.91
731.889	63.12
732.209	63.09
732.529	62.9
732.849	62.99
733.169	63.02
733.489	63.21
733.809	63.3
734.129	63.37
734.448	63.51
734.768	63.6
735.088	63.67
735.408	63.85
735.727	63.93
736.047	63.89
736.366	63.8
736.686	63.72
737.005	63.62
737.325	63.52
737.644	63.59
737.963	63.85
738.283	63.58
738.602	63.61
738.921	63.49
739.24	63.57
739.56	63.31
739.879	63.17
740.198	62.85
740.517	63.27
740.836	63.67
741.155	63.68
741.473	63.48
741.792	63.36
742.111	63.18
742.43	63
742.748	62.84
743.067	62.8
743.386	62.9
743.704	63.03
744.023	63.02
744.341	62.92
744.66	62.8
744.978	62.95
745.297	62.77
745.615	62.93
745.933	62.95
746.252	63.12
746.57	63.29
746.888	63.38
747.206	62.78
747.524	62.84
747.842	62.62
748.16	62.69
748.478	62.7
748.796	62.89
749.114	63.01
749.432	62.99
749.749	63.22
750.067	63.3
750.385	62.91
750.703	63.08
751.02	63.02
751.338	62.96
751.655	62.67
751.973	62.55
752.29	62.77
752.608	62.71
752.925	62.81
753.242	62.68
753.56	62.69
753.877	62.72
754.194	62.16
754.511	62.55
754.828	62.32
755.145	62.41
755.462	62.51
755.779	62.11
756.096	62.21
756.413	62.04
756.73	62.02
757.047	62.42
757.364	62.53
757.68	62.59
757.997	62.61
758.314	62.47
758.63	62.57
758.947	62.08
759.264	61.99
759.58	62.1
759.896	62.37
760.213	62.23
760.529	62.1
760.846	62.2
761.162	62.01
761.478	62.49
761.794	62.27
762.11	62.12
762.426	62.09
762.743	62.14
763.059	62.03
763.375	61.91
763.69	61.89
764.006	61.94
764.322	61.91
764.638	61.76
764.954	61.94
765.27	61.95
765.585	62.13
765.901	62.19
766.216	61.82
766.532	61.76
766.848	61.88
767.163	62.17
767.478	61.9
767.794	62.25
768.109	61.89
768.424	61.96
768.74	62.13
769.055	62.38
769.37	62.26
769.685	62.43
770	62.82
770.315	62.86
770.63	62.72
770.945	62.76
771.26	63.1
771.575	62.85
771.89	63
772.205	62.82
772.52	62.61
772.834	62.59
773.149	62.46
773.464	62.75
773.778	62.53
774.093	62.91
774.407	62.53
774.722	62.5
775.036	62.8
775.351	62.83
775.665	62.77
775.979	62.59
776.293	62.65
776.608	62.7
776.922	62.05
777.236	61.41
777.55	61.34
777.864	60.99
778.178	61.4
778.492	61.22
778.806	60.92
779.12	61.57
779.434	61.96
779.747	61.87
780.061	61.52
780.375	61.67
780.689	61.71
781.002	61.96
781.316	62.12
781.629	61.67
781.943	61.49
782.256	61.32
782.57	61.73
782.883	61.56
783.196	61.07
783.51	61.83
783.823	62.55
784.136	62.81
784.449	63.15
784.762	63.3
785.075	63.18
785.388	63.44
785.701	63.05
786.014	62.93
786.327	62.87
786.64	62.97
786.953	63.01
787.266	62.85
787.578	62.49
787.891	62.65
788.204	63.31
788.516	63.89
788.829	63.88
789.141	63.65
789.454	63.84
789.766	64.24
790.079	63.94
790.391	63.79
790.703	63.34
791.016	62.79
791.328	62.44
791.64	62.67
791.952	62.7
792.264	63.16
792.576	62.85
792.888	63.28
793.2	63.55
793.512	63.86
793.824	64.01
794.136	64.07
794.448	64.17
794.76	63.62
795.071	62.98
795.383	63.19
795.695	63.34
796.006	63.38
796.318	62.92
796.629	63.11
796.941	63.17
797.252	63.19
797.564	64.13
797.875	64.79
798.186	64.74
798.497	65.08
798.809	64.48
799.12	64.88
799.431	64.76
799.742	63.95
800.053	63.93
800.364	63.58
800.675	63.34
800.986	63.3
801.297	63.13
801.608	63.15
801.918	63.24
802.229	63.63
802.54	63.13
802.851	63.41
803.161	63.21
803.472	63.48
803.782	63.55
804.093	63.34
804.403	62.85
804.714	62.22
805.024	62.04
805.334	62.29
805.645	62.49
805.955	62.44
806.265	63
806.575	62.86
806.885	62.74
807.195	62.87
807.505	62.1
807.815	62.86
808.125	62.89
808.435	62.89
808.745	61.93
809.055	62.02
809.365	61.65
809.674	61.76
809.984	61.51
810.294	61.22
810.603	61.63
810.913	61.93
811.222	62.36
811.532	62.77
811.841	63.11
812.151	63.14
812.46	63.14
812.769	63.04
813.079	62.82
813.388	63.34
813.697	63.18
814.006	64.01
814.315	64.02
814.624	63.12
814.933	62.99
815.242	63.88
815.551	64.23
815.86	64.4
816.169	64.48
816.478	63.92
816.786	64.5
817.095	64.07
817.404	63.5
817.712	63.47
818.021	63.65
818.33	63.31
818.638	63.13
818.947	63.27
819.255	63.52
819.563	63.88
819.872	63.67
820.18	64.13
820.488	64.41
820.796	64.02
821.105	64.89
821.413	65.14
821.721	65.09
822.029	65.03
822.337	65.12
822.645	65.16
822.953	65.28
823.26	65.01
823.568	65.06
823.876	65.21
824.184	65
824.491	64.8
824.799	64.84
825.107	64.95
825.414	64.97
825.722	65.06
826.029	64.82
826.337	65.11
826.644	65.03
826.951	64.69
827.259	64.89
827.566	64.76
827.873	64.51
828.18	64.33
828.488	64.33
828.795	64.28
829.102	64.48
829.409	64.88
829.716	65.03
830.023	64.86
830.329	64.79
830.636	65.09
830.943	65.25
831.25	65.2
831.557	65.08
831.863	64.85
832.17	64.55
832.476	65.04
832.783	64.88
833.089	64.44
833.396	64.8
833.702	64.52
834.009	64.15
834.315	64.14
834.621	63.98
834.928	64.14
835.234	64.2
835.54	63.7
835.846	62.73
836.152	63.1
836.458	63.12
836.764	63
837.07	63.35
837.376	63.18
837.682	63.17
837.988	63.41
838.293	63.58
838.599	63.52
838.905	62.93
839.211	62.62
839.516	63.1
839.822	63.54
840.127	63.35
840.433	62.77
840.738	62.63
841.044	63.09
841.349	62.5
841.654	62.67
841.959	62.79
842.265	63.29
842.57	63.58
842.875	64.24
843.18	64.01
843.485	63.75
843.79	63.75
844.095	63.13
844.4	62.51
844.705	62.68
845.01	62.83
845.315	63.69
845.619	62.54
845.924	62.91
846.229	62.09
846.533	62.44
846.838	64.15
847.142	64.33
847.447	63.04
847.751	63.34
848.056	62.54
848.36	62.47
848.664	62.08
848.969	61.26
849.273	60.61
849.577	62.06
849.881	61.38
850.185	60.96
850.489	59.87
850.794	59.1
851.097	58.93
851.401	59.88
851.705	58.17
852.009	59.41
852.313	58.12
852.617	56.47
852.92	56.33
853.224	55.62
853.528	56.27
853.831	58.19
854.135	58.32
854.438	57.96
854.742	57.47
855.045	57.39
855.349	56.41
855.652	54.74
855.955	52.69
856.259	53.75
856.562	55.96
856.865	57.52
857.168	57.86
857.471	58.3
857.774	57.66
858.077	58.39
858.38	59.83
858.683	58.74
858.986	60.79
859.289	60.32
859.592	60.03
859.894	58.38
860.197	58.7
860.5	59.22
860.802	58.16
861.105	58.21
861.407	56.97
861.71	56.56
862.012	59.15
862.315	59.8
862.617	60.27
862.919	59.13
863.222	62.25
863.524	64.05
863.826	62.28
864.128	61.16
864.43	59.52
864.732	57.63
865.034	59.84
865.336	58.21
865.638	58.39
865.94	57.51
866.242	56.82
866.544	58.69
866.846	58.29
867.147	60.41
867.449	61.49
867.751	64.85
868.052	65.65
868.354	67.05
868.655	66.85
868.957	66.16
869.258	66.81
869.56	65.68
869.861	62.61
870.162	62.98
870.463	64.53
870.765	68.72
871.066	69.22
871.367	70.44
871.668	71.61
871.969	71.95
872.27	70
872.571	72.74
872.872	70.03
873.173	68.86
873.473	68.7
873.774	68.4
874.075	67.12
874.376	66.54
874.676	62
874.977	61.93
875.277	63.12
875.578	63.86
875.878	62.19
876.179	64.36
876.479	65.13
876.78	64.65
877.08	62.35
877.38	62.42
877.68	60.66
877.981	60.02
878.281	59.99
878.581	63.84
