Data from BA56813_Reflection_00008.txt Node
Date: Mon Nov 18 15:50:54 EST 2019
User: vgr7
Spectrometer: USB2G7710
Scans to average: 3
Trigger mode: 4
Integration Time (sec): 2.000000E-2
Electric dark correction enabled: true
Boxcar width: 10
XAxis mode: Wavelengths
Number of Pixels in Spectrum: 2048
>>>>>Begin Spectral Data<<<<<
177.721	23.17
178.105	39.93
178.488	111.47
178.871	39.31
179.254	86.23
179.636	-178.69
180.019	-15.58
180.402	119.23
180.785	187.36
181.168	176.35
181.55	39.97
181.933	106.79
182.316	75.88
182.698	75.55
183.081	67.85
183.463	74.56
183.846	61.25
184.228	53.51
184.611	39.01
184.993	43.96
185.376	76.04
185.758	117.12
186.14	97.98
186.522	122.99
186.904	88.93
187.287	91.63
187.669	79.66
188.051	82.35
188.433	111.26
188.815	100.76
189.197	92.43
189.579	105.32
189.961	81.95
190.342	78.46
190.724	125.3
191.106	251.77
191.488	-624.55
191.869	-152.37
192.251	-236.3
192.633	-291.92
193.014	-1199.4
193.396	-846.49
193.777	-1161.78
194.159	-2626.32
194.54	-594.52
194.922	-1638.26
195.303	-251.25
195.684	-171.56
196.065	-98.78
196.447	-124.68
196.828	-122.91
197.209	-117.75
197.59	-132.55
197.971	-83.75
198.352	-59.5
198.733	-109.09
199.114	-69.32
199.495	-90.36
199.876	-137.11
200.257	-80.74
200.638	-62.18
201.018	-32.77
201.399	-9.2
201.78	-0.23
202.16	-14.88
202.541	-68.22
202.922	-111.67
203.302	-135.71
203.683	-129.3
204.063	-206.09
204.444	-209.18
204.824	-162.04
205.204	-130.15
205.585	-98.16
205.965	-100
206.345	-1207.69
206.725	398.7
207.106	229.97
207.486	179.05
207.866	136.93
208.246	202.28
208.626	261.82
209.006	148.28
209.386	169.86
209.766	229.89
210.145	327.19
210.525	-1045.99
210.905	-191.73
211.285	-246.94
211.664	-1035.59
212.044	-1985.71
212.424	-169.49
212.803	2870.49
213.183	-940.61
213.562	-463.74
213.942	-241.98
214.321	-72.49
214.701	-71.49
215.08	-74.17
215.459	-49.98
215.838	-38.47
216.218	-26.44
216.597	-29.71
216.976	-42.92
217.355	-37.87
217.734	-46.8
218.113	-25.88
218.492	-32.53
218.871	-34.76
219.25	-31.07
219.629	-52.91
220.008	-48.86
220.387	-54.38
220.766	-40.33
221.144	-54.01
221.523	-73.33
221.902	-83.57
222.28	-86.4
222.659	-80.25
223.037	-61.38
223.416	-66.96
223.794	-74.18
224.173	-68.29
224.551	-59.1
224.929	-53.63
225.308	-41.95
225.686	-31.29
226.064	-31.33
226.442	-21.83
226.821	-16.44
227.199	-18.58
227.577	-11.98
227.955	-9.4
228.333	-9.64
228.711	-8.16
229.089	-4.22
229.467	-2.86
229.845	-3.65
230.222	-2.8
230.6	-3.02
230.978	-4.52
231.356	-2.39
231.733	-4.54
232.111	-1.95
232.488	-2
232.866	-1.58
233.243	-1.45
233.621	-2.29
233.998	-1.48
234.376	-3.39
234.753	-3.09
235.13	-3.14
235.508	-1.25
235.885	-1.38
236.262	-1.22
236.639	-1.78
237.016	-3.03
237.393	-0.81
237.77	0.34
238.147	0.19
238.524	0.38
238.901	1.64
239.278	2.07
239.655	3.91
240.032	3.4
240.409	4.13
240.785	4.75
241.162	4.63
241.539	5.1
241.915	5.4
242.292	5.45
242.668	5.26
243.045	5.53
243.421	5.14
243.798	5.06
244.174	4.89
244.551	4.76
244.927	4.71
245.303	4.74
245.679	4.92
246.056	5.03
246.432	5.01
246.808	4.93
247.184	4.53
247.56	4.11
247.936	4.32
248.312	4.01
248.688	3.74
249.064	3.83
249.44	3.88
249.815	3.52
250.191	3.58
250.567	3.57
250.943	3.23
251.318	3.13
251.694	3.16
252.069	3.19
252.445	3.39
252.82	3.61
253.196	3.3
253.571	2.96
253.947	3.02
254.322	3.47
254.697	3.24
255.073	3.29
255.448	3.36
255.823	3.29
256.198	3.41
256.573	3.53
256.948	3.54
257.323	3.53
257.698	3.65
258.073	3.61
258.448	3.58
258.823	3.87
259.198	3.82
259.573	3.83
259.948	3.85
260.322	3.72
260.697	3.67
261.072	3.76
261.446	3.9
261.821	3.91
262.195	3.91
262.57	4.01
262.944	4.08
263.319	4.13
263.693	4.02
264.067	4.15
264.442	4.24
264.816	4.23
265.19	4.08
265.564	4.21
265.938	4.16
266.313	4.21
266.687	4.31
267.061	4.52
267.435	4.42
267.809	4.38
268.183	4.4
268.556	4.35
268.93	4.23
269.304	4.16
269.678	4.05
270.051	3.84
270.425	3.79
270.799	3.65
271.172	3.71
271.546	3.75
271.919	3.56
272.293	3.48
272.666	3.4
273.04	3.44
273.413	3.21
273.787	3.29
274.16	3.22
274.533	3.12
274.906	3.12
275.279	3.07
275.653	3.02
276.026	3.01
276.399	3
276.772	3.12
277.145	3.17
277.518	3.18
277.891	3.29
278.263	3.25
278.636	3.44
279.009	3.31
279.382	3.37
279.755	3.46
280.127	3.49
280.5	3.6
280.872	3.65
281.245	3.83
281.617	3.9
281.99	3.86
282.362	3.84
282.735	3.87
283.107	3.79
283.479	3.83
283.852	3.73
284.224	3.8
284.596	3.75
284.968	3.76
285.34	3.81
285.713	3.74
286.085	3.78
286.457	3.89
286.829	3.96
287.201	3.94
287.572	3.82
287.944	3.76
288.316	3.74
288.688	3.7
289.06	3.58
289.431	3.52
289.803	3.59
290.175	3.53
290.546	3.55
290.918	3.77
291.289	3.74
291.661	3.87
292.032	3.87
292.403	3.91
292.775	3.89
293.146	3.78
293.517	3.74
293.889	3.78
294.26	3.64
294.631	3.67
295.002	3.73
295.373	3.78
295.744	3.92
296.115	3.87
296.486	3.96
296.857	3.98
297.228	4.15
297.599	4.14
297.97	4.17
298.34	4.22
298.711	4.26
299.082	4.32
299.452	4.32
299.823	4.5
300.194	4.41
300.564	4.28
300.935	4.4
301.305	4.45
301.676	4.43
302.046	4.49
302.416	4.59
302.787	4.55
303.157	4.63
303.527	4.51
303.897	4.63
304.267	4.81
304.637	5.02
305.008	4.86
305.378	4.91
305.748	4.89
306.117	4.85
306.487	4.75
306.857	4.86
307.227	4.88
307.597	4.79
307.967	4.89
308.336	5.06
308.706	5.06
309.076	5.14
309.445	5.26
309.815	5.3
310.184	5.27
310.554	5.46
310.923	5.48
311.293	5.73
311.662	5.79
312.031	5.7
312.401	5.64
312.77	5.83
313.139	5.98
313.508	6.13
313.877	6.15
314.246	6.26
314.616	6.23
314.985	6.19
315.353	6.2
315.722	6.44
316.091	6.35
316.46	6.28
316.829	6.34
317.198	6.36
317.567	6.43
317.935	6.53
318.304	6.46
318.672	6.54
319.041	6.53
319.41	6.65
319.778	6.75
320.147	6.85
320.515	6.77
320.883	6.68
321.252	6.8
321.62	6.81
321.988	6.86
322.357	6.98
322.725	7.21
323.093	7.27
323.461	7.17
323.829	7.39
324.197	7.67
324.565	7.62
324.933	7.62
325.301	7.62
325.669	7.59
326.037	7.61
326.405	7.76
326.772	7.69
327.14	7.57
327.508	7.51
327.875	7.44
328.243	7.64
328.61	7.63
328.978	7.59
329.346	7.69
329.713	7.65
330.08	7.66
330.448	7.58
330.815	7.52
331.182	7.42
331.55	7.43
331.917	7.32
332.284	7.58
332.651	7.56
333.018	7.61
333.385	7.68
333.752	7.8
334.119	7.83
334.486	7.83
334.853	7.88
335.22	7.92
335.587	8.02
335.954	7.89
336.32	7.99
336.687	8
337.054	7.95
337.42	7.99
337.787	8.07
338.153	8.1
338.52	8.21
338.886	8.28
339.253	8.3
339.619	8.35
339.986	8.22
340.352	8.39
340.718	8.35
341.084	8.4
341.451	8.39
341.817	8.38
342.183	8.34
342.549	8.41
342.915	8.44
343.281	8.53
343.647	8.5
344.013	8.56
344.379	8.48
344.745	8.51
345.11	8.54
345.476	8.54
345.842	8.64
346.208	8.66
346.573	8.71
346.939	8.75
347.304	8.78
347.67	8.76
348.035	8.69
348.401	8.69
348.766	8.61
349.132	8.6
349.497	8.53
349.862	8.63
350.228	8.54
350.593	8.6
350.958	8.56
351.323	8.59
351.688	8.57
352.053	8.71
352.418	8.74
352.783	8.74
353.148	8.73
353.513	8.69
353.878	8.67
354.243	8.75
354.608	8.7
354.972	8.67
355.337	8.76
355.702	8.83
356.066	8.9
356.431	8.91
356.795	8.91
357.16	8.95
357.524	8.86
357.889	8.93
358.253	8.9
358.618	8.89
358.982	8.91
359.346	8.9
359.71	8.86
360.075	8.86
360.439	8.9
360.803	8.86
361.167	8.83
361.531	8.81
361.895	8.71
362.259	8.72
362.623	8.72
362.987	8.65
363.351	8.58
363.714	8.55
364.078	8.59
364.442	8.56
364.806	8.55
365.169	8.59
365.533	8.57
365.896	8.54
366.26	8.56
366.623	8.52
366.987	8.48
367.35	8.51
367.714	8.53
368.077	8.49
368.44	8.5
368.803	8.52
369.167	8.49
369.53	8.51
369.893	8.47
370.256	8.42
370.619	8.41
370.982	8.35
371.345	8.28
371.708	8.25
372.071	8.24
372.434	8.19
372.797	8.14
373.159	8.11
373.522	8.09
373.885	8.05
374.247	8.05
374.61	8.06
374.973	7.97
375.335	7.89
375.698	7.86
376.06	7.85
376.423	7.79
376.785	7.81
377.147	7.81
377.51	7.77
377.872	7.77
378.234	7.77
378.596	7.77
378.958	7.74
379.321	7.66
379.683	7.64
380.045	7.56
380.407	7.56
380.769	7.56
381.13	7.48
381.492	7.41
381.854	7.38
382.216	7.34
382.578	7.37
382.939	7.31
383.301	7.28
383.663	7.19
384.024	7.18
384.386	7.13
384.747	7.04
385.109	7.01
385.47	7
385.832	6.92
386.193	6.9
386.554	6.87
386.916	6.85
387.277	6.84
387.638	6.79
387.999	6.71
388.36	6.65
388.721	6.65
389.082	6.59
389.443	6.53
389.804	6.47
390.165	6.43
390.526	6.39
390.887	6.35
391.248	6.37
391.609	6.32
391.969	6.31
392.33	6.27
392.691	6.23
393.051	6.16
393.412	6.18
393.772	6.12
394.133	6.09
394.493	6.08
394.854	6.02
395.214	6.05
395.574	6
395.935	5.92
396.295	5.9
396.655	5.88
397.015	5.81
397.376	5.79
397.736	5.71
398.096	5.7
398.456	5.66
398.816	5.63
399.176	5.56
399.535	5.48
399.895	5.47
400.255	5.47
400.615	5.45
400.975	5.42
401.334	5.4
401.694	5.37
402.054	5.32
402.413	5.29
402.773	5.24
403.132	5.23
403.492	5.24
403.851	5.21
404.211	5.19
404.57	5.22
404.929	5.21
405.288	5.18
405.648	5.16
406.007	5.12
406.366	5.1
406.725	5.11
407.084	5.13
407.443	5.11
407.802	5.11
408.161	5.05
408.52	5
408.879	5
409.238	5
409.596	4.97
409.955	4.97
410.314	4.98
410.673	4.96
411.031	4.96
411.39	4.94
411.748	4.94
412.107	4.91
412.465	4.88
412.824	4.89
413.182	4.85
413.54	4.86
413.899	4.83
414.257	4.8
414.615	4.75
414.974	4.75
415.332	4.72
415.69	4.71
416.048	4.71
416.406	4.68
416.764	4.64
417.122	4.63
417.48	4.6
417.838	4.57
418.195	4.55
418.553	4.53
418.911	4.52
419.269	4.51
419.626	4.49
419.984	4.48
420.342	4.47
420.699	4.46
421.057	4.43
421.414	4.41
421.772	4.39
422.129	4.4
422.486	4.38
422.844	4.37
423.201	4.35
423.558	4.34
423.915	4.34
424.273	4.33
424.63	4.31
424.987	4.3
425.344	4.29
425.701	4.27
426.058	4.27
426.415	4.25
426.772	4.25
427.128	4.22
427.485	4.2
427.842	4.16
428.199	4.16
428.555	4.18
428.912	4.17
429.269	4.17
429.625	4.13
429.982	4.11
430.338	4.08
430.695	4.1
431.051	4.05
431.407	4.04
431.764	4.04
432.12	4.06
432.476	4.04
432.832	4.02
433.189	4.02
433.545	4.01
433.901	4.01
434.257	3.99
434.613	4.02
434.969	4.02
435.325	4.03
435.681	4.03
436.036	4.01
436.392	4.01
436.748	4.01
437.104	4.02
437.459	4.02
437.815	4.01
438.171	4.01
438.526	4.04
438.882	4.03
439.237	4.03
439.593	4.02
439.948	4.02
440.304	4.05
440.659	4.05
441.014	4.06
441.369	4.04
441.725	4.04
442.08	4.01
442.435	4.01
442.79	4.01
443.145	4
443.5	3.99
443.855	3.98
444.21	3.97
444.565	3.97
444.92	3.97
445.275	3.96
445.629	3.95
445.984	3.94
446.339	3.94
446.693	3.91
447.048	3.9
447.403	3.88
447.757	3.86
448.112	3.83
448.466	3.81
448.82	3.8
449.175	3.8
449.529	3.79
449.883	3.79
450.238	3.77
450.592	3.78
450.946	3.75
451.3	3.75
451.654	3.73
452.008	3.71
452.362	3.69
452.716	3.7
453.07	3.69
453.424	3.69
453.778	3.67
454.132	3.68
454.486	3.68
454.839	3.67
455.193	3.66
455.547	3.67
455.9	3.68
456.254	3.68
456.607	3.67
456.961	3.67
457.314	3.65
457.668	3.65
458.021	3.64
458.375	3.64
458.728	3.65
459.081	3.67
459.434	3.67
459.787	3.68
460.141	3.68
460.494	3.69
460.847	3.68
461.2	3.69
461.553	3.7
461.906	3.7
462.259	3.71
462.611	3.73
462.964	3.75
463.317	3.75
463.67	3.77
464.022	3.78
464.375	3.79
464.728	3.82
465.08	3.84
465.433	3.84
465.785	3.86
466.138	3.85
466.49	3.85
466.843	3.84
467.195	3.87
467.547	3.86
467.899	3.85
468.252	3.88
468.604	3.91
468.956	3.9
469.308	3.91
469.66	3.92
470.012	3.91
470.364	3.91
470.716	3.9
471.068	3.89
471.42	3.9
471.772	3.89
472.123	3.87
472.475	3.89
472.827	3.87
473.178	3.87
473.53	3.88
473.882	3.9
474.233	3.91
474.585	3.9
474.936	3.91
475.288	3.92
475.639	3.92
475.99	3.92
476.342	3.94
476.693	3.95
477.044	3.96
477.395	3.97
477.746	3.97
478.097	3.96
478.448	3.97
478.8	3.98
479.15	3.97
479.501	3.99
479.852	3.99
480.203	4.01
480.554	4.02
480.905	4.04
481.255	4.04
481.606	4.04
481.957	4.05
482.307	4.05
482.658	4.05
483.009	4.05
483.359	4.05
483.709	4.05
484.06	4.05
484.41	4.05
484.761	4.05
485.111	4.05
485.461	4.06
485.811	4.06
486.162	4.06
486.512	4.07
486.862	4.06
487.212	4.05
487.562	4.06
487.912	4.06
488.262	4.05
488.612	4.05
488.961	4.04
489.311	4.03
489.661	4.03
490.011	4.03
490.36	4.03
490.71	4.03
491.06	4.03
491.409	4.02
491.759	4.03
492.108	4.02
492.458	4.02
492.807	4.02
493.157	4.02
493.506	4.04
493.855	4.04
494.204	4.04
494.554	4.05
494.903	4.05
495.252	4.07
495.601	4.08
495.95	4.11
496.299	4.14
496.648	4.17
496.997	4.19
497.346	4.23
497.695	4.26
498.043	4.3
498.392	4.31
498.741	4.34
499.09	4.36
499.438	4.41
499.787	4.44
500.135	4.5
500.484	4.55
500.832	4.58
501.181	4.63
501.529	4.69
501.878	4.74
502.226	4.79
502.574	4.82
502.923	4.86
503.271	4.91
503.619	4.97
503.967	5.02
504.315	5.09
504.663	5.13
505.011	5.19
505.359	5.24
505.707	5.31
506.055	5.37
506.403	5.44
506.751	5.5
507.098	5.59
507.446	5.65
507.794	5.71
508.141	5.77
508.489	5.85
508.837	5.93
509.184	6
509.531	6.09
509.879	6.18
510.226	6.28
510.574	6.34
510.921	6.42
511.268	6.5
511.616	6.57
511.963	6.65
512.31	6.74
512.657	6.85
513.004	6.93
513.351	7.05
513.698	7.15
514.045	7.26
514.392	7.36
514.739	7.49
515.086	7.61
515.432	7.76
515.779	7.86
516.126	7.97
516.473	8.09
516.819	8.22
517.166	8.33
517.512	8.43
517.859	8.54
518.205	8.64
518.552	8.77
518.898	8.88
519.245	9.01
519.591	9.12
519.937	9.24
520.283	9.4
520.629	9.54
520.976	9.7
521.322	9.87
521.668	10.05
522.014	10.23
522.36	10.41
522.706	10.61
523.052	10.83
523.398	11.08
523.743	11.33
524.089	11.56
524.435	11.79
524.781	12.04
525.126	12.3
525.472	12.53
525.817	12.71
526.163	12.89
526.509	13.08
526.854	13.25
527.199	13.41
527.545	13.57
527.89	13.74
528.235	13.9
528.581	14.08
528.926	14.24
529.271	14.4
529.616	14.56
529.961	14.74
530.306	14.93
530.651	15.13
530.996	15.32
531.341	15.55
531.686	15.77
532.031	15.99
532.376	16.2
532.721	16.43
533.065	16.69
533.41	16.95
533.755	17.19
534.099	17.47
534.444	17.73
534.788	17.99
535.133	18.26
535.477	18.53
535.822	18.8
536.166	19.11
536.51	19.45
536.855	19.8
537.199	20.15
537.543	20.52
537.887	20.87
538.231	21.23
538.576	21.58
538.92	21.97
539.264	22.31
539.608	22.63
539.951	22.95
540.295	23.25
540.639	23.55
540.983	23.85
541.327	24.12
541.671	24.43
542.014	24.7
542.358	24.97
542.701	25.24
543.045	25.51
543.389	25.77
543.732	26.04
544.075	26.34
544.419	26.6
544.762	26.87
545.105	27.2
545.449	27.51
545.792	27.84
546.135	28.19
546.478	28.53
546.821	28.9
547.165	29.24
547.508	29.62
547.851	29.96
548.194	30.33
548.536	30.72
548.879	31.08
549.222	31.45
549.565	31.84
549.908	32.24
550.25	32.61
550.593	33
550.936	33.36
551.278	33.69
551.621	34.1
551.963	34.47
552.306	34.78
552.648	35.16
552.991	35.49
553.333	35.75
553.675	36.09
554.017	36.4
554.36	36.74
554.702	37
555.044	37.33
555.386	37.63
555.728	37.9
556.07	38.2
556.412	38.5
556.754	38.78
557.096	39.05
557.438	39.31
557.78	39.64
558.121	39.91
558.463	40.26
558.805	40.54
559.147	40.9
559.488	41.19
559.83	41.43
560.171	41.66
560.513	42.03
560.854	42.26
561.196	42.54
561.537	42.85
561.878	43.13
562.22	43.35
562.561	43.58
562.902	43.82
563.243	44.05
563.584	44.27
563.925	44.48
564.266	44.68
564.607	44.93
564.948	45.1
565.289	45.32
565.63	45.48
565.971	45.61
566.312	45.79
566.653	45.99
566.993	46.16
567.334	46.33
567.675	46.47
568.015	46.73
568.356	46.87
568.696	47.02
569.037	47.21
569.377	47.41
569.718	47.58
570.058	47.79
570.398	47.95
570.739	48.15
571.079	48.32
571.419	48.56
571.759	48.71
572.099	48.93
572.439	49.12
572.779	49.27
573.119	49.45
573.459	49.61
573.799	49.78
574.139	49.94
574.479	50.15
574.819	50.29
575.158	50.36
575.498	50.53
575.838	50.65
576.177	50.8
576.517	50.95
576.856	51.14
577.196	51.22
577.535	51.42
577.875	51.55
578.214	51.7
578.553	51.81
578.893	51.92
579.232	52.09
579.571	52.22
579.91	52.41
580.25	52.56
580.589	52.64
580.928	52.75
581.267	52.89
581.606	53
581.945	53.06
582.283	53.15
582.622	53.32
582.961	53.39
583.3	53.52
583.639	53.51
583.977	53.58
584.316	53.68
584.654	53.7
584.993	53.81
585.332	53.87
585.67	53.95
586.008	54.05
586.347	54.06
586.685	54.18
587.024	54.27
587.362	54.31
587.7	54.45
588.038	54.56
588.376	54.66
588.715	54.71
589.053	54.91
589.391	55.1
589.729	55.21
590.067	55.41
590.404	55.47
590.742	55.6
591.08	55.76
591.418	55.85
591.756	55.96
592.093	56.01
592.431	56.17
592.769	56.3
593.106	56.44
593.444	56.53
593.781	56.54
594.119	56.62
594.456	56.78
594.793	56.8
595.131	56.77
595.468	56.91
595.805	56.98
596.143	56.98
596.48	57.01
596.817	57
597.154	57.05
597.491	57.13
597.828	57.28
598.165	57.29
598.502	57.48
598.839	57.58
599.176	57.6
599.512	57.65
599.849	57.72
600.186	57.78
600.523	57.81
600.859	57.89
601.196	57.98
601.532	58.03
601.869	58.08
602.205	58.14
602.542	58.08
602.878	58.16
603.215	58.22
603.551	58.26
603.887	58.31
604.223	58.26
604.56	58.32
604.896	58.35
605.232	58.43
605.568	58.4
605.904	58.46
606.24	58.5
606.576	58.5
606.912	58.54
607.248	58.5
607.583	58.59
607.919	58.63
608.255	58.72
608.591	58.72
608.926	58.85
609.262	58.92
609.597	59.02
609.933	58.97
610.268	58.97
610.604	59.06
610.939	59.14
611.275	59.22
611.61	59.24
611.945	59.23
612.281	59.17
612.616	59.15
612.951	59.2
613.286	59.31
613.621	59.41
613.956	59.34
614.291	59.39
614.626	59.4
614.961	59.45
615.296	59.39
615.631	59.44
615.966	59.41
616.3	59.5
616.635	59.52
616.97	59.71
617.304	59.76
617.639	59.72
617.973	59.68
618.308	59.73
618.642	59.74
618.977	59.81
619.311	59.93
619.646	59.99
619.98	59.97
620.314	60.05
620.648	60.14
620.983	60.29
621.317	60.29
621.651	60.31
621.985	60.38
622.319	60.4
622.653	60.48
622.987	60.42
623.321	60.4
623.655	60.32
623.988	60.3
624.322	60.37
624.656	60.38
624.99	60.5
625.323	60.48
625.657	60.55
625.99	60.57
626.324	60.57
626.657	60.62
626.991	60.68
627.324	60.67
627.658	60.64
627.991	60.63
628.324	60.78
628.657	60.84
628.991	60.78
629.324	60.86
629.657	60.85
629.99	60.93
630.323	60.95
630.656	61.05
630.989	61.11
631.322	61.08
631.655	61.09
631.987	61.16
632.32	61.23
632.653	61.13
632.986	61.08
633.318	61.08
633.651	61.09
633.984	61.04
634.316	61.05
634.649	61.05
634.981	61.09
635.313	61.12
635.646	61.17
635.978	61.23
636.31	61.24
636.643	61.28
636.975	61.28
637.307	61.29
637.639	61.24
637.971	61.22
638.303	61.35
638.635	61.44
638.967	61.29
639.299	61.25
639.631	61.3
639.963	61.38
640.295	61.5
640.626	61.6
640.958	61.62
641.29	61.59
641.621	61.69
641.953	61.66
642.285	61.68
642.616	61.59
642.948	61.63
643.279	61.58
643.61	61.57
643.942	61.64
644.273	61.55
644.604	61.71
644.936	61.77
645.267	61.75
645.598	61.79
645.929	61.75
646.26	61.95
646.591	62.1
646.922	62.05
647.253	62.06
647.584	61.97
647.915	61.98
648.245	62.05
648.576	61.95
648.907	62
649.238	61.91
649.568	61.97
649.899	61.93
650.229	62.02
650.56	61.98
650.89	61.97
651.221	62.18
651.551	62.17
651.882	62.16
652.212	62.22
652.542	62.19
652.872	62.27
653.203	62.05
653.533	61.94
653.863	62.07
654.193	62.01
654.523	62.13
654.853	62.11
655.183	62.06
655.513	62.19
655.843	62.13
656.172	62.15
656.502	62.13
656.832	62.19
657.162	62.17
657.491	62.24
657.821	62.2
658.15	62.2
658.48	62.21
658.809	62.21
659.139	62.04
659.468	62.05
659.798	62.07
660.127	62.18
660.456	62.3
660.785	62.38
661.115	62.37
661.444	62.39
661.773	62.57
662.102	62.66
662.431	62.63
662.76	62.75
663.089	62.82
663.418	62.84
663.747	62.91
664.076	62.85
664.404	62.92
664.733	63.08
665.062	63.09
665.39	63.01
665.719	63.04
666.048	63.27
666.376	63.31
666.705	63.22
667.033	63.21
667.362	63.05
667.69	62.98
668.018	63.11
668.347	63.05
668.675	62.94
669.003	62.92
669.331	62.92
669.659	62.91
669.987	62.82
670.315	62.81
670.643	62.68
670.971	62.79
671.299	62.73
671.627	62.62
671.955	62.6
672.283	62.76
672.61	62.75
672.938	62.71
673.266	62.67
673.593	62.82
673.921	62.86
674.249	62.88
674.576	62.72
674.904	62.6
675.231	62.49
675.558	62.57
675.886	62.6
676.213	62.61
676.54	62.66
676.867	62.87
677.195	63.14
677.522	63.21
677.849	63.25
678.176	63.28
678.503	63.26
678.83	63.27
679.157	63.15
679.484	63.01
679.81	62.88
680.137	62.77
680.464	62.8
680.791	62.74
681.117	62.85
681.444	62.89
681.771	62.97
682.097	63.12
682.424	63.16
682.75	63.2
683.077	63.21
683.403	63.14
683.729	63.07
684.056	62.86
684.382	62.87
684.708	62.78
685.034	62.83
685.36	62.83
685.686	62.84
686.012	62.84
686.339	63
686.664	63.05
686.99	63.21
687.316	63.08
687.642	63.11
687.968	63.08
688.294	63.22
688.619	63.26
688.945	63.18
689.271	62.95
689.596	62.69
689.922	62.69
690.247	62.74
690.573	62.67
690.898	62.84
691.224	62.92
691.549	62.91
691.874	62.92
692.2	62.9
692.525	62.91
692.85	62.96
693.175	62.88
693.5	62.91
693.825	62.85
694.15	62.95
694.475	62.98
694.8	63.14
695.125	63.19
695.45	63.3
695.775	63.32
696.099	63.54
696.424	63.74
696.749	63.76
697.073	63.67
697.398	63.67
697.723	63.59
698.047	63.46
698.372	63.47
698.696	63.39
699.02	63.48
699.345	63.25
699.669	63.31
699.993	63.42
700.318	63.48
700.642	63.61
700.966	63.61
701.29	63.57
701.614	63.52
701.938	63.46
702.262	63.3
702.586	63.36
702.91	63.18
703.234	63.22
703.557	63.25
703.881	63.32
704.205	63.28
704.529	63.26
704.852	63.31
705.176	63.35
705.499	63.35
705.823	63.29
706.146	63.61
706.47	63.56
706.793	63.37
707.117	63.31
707.44	63.17
707.763	63.13
708.086	63.36
708.409	63.3
708.733	63.18
709.056	63.2
709.379	63.18
709.702	63.13
710.025	63.04
710.348	62.84
710.671	62.71
710.993	62.82
711.316	62.92
711.639	63.11
711.962	63.3
712.284	63.44
712.607	63.48
712.93	63.46
713.252	63.56
713.575	63.75
713.897	63.9
714.22	64.05
714.542	64.21
714.864	64.12
715.187	64.12
715.509	64.43
715.831	64.56
716.153	64.69
716.475	65.01
716.798	65.36
717.12	65.46
717.442	65.75
717.764	65.72
718.085	65.68
718.407	65.63
718.729	65.46
719.051	65.36
719.373	65.29
719.695	65.31
720.016	65
720.338	64.87
720.659	64.95
720.981	64.89
721.302	64.94
721.624	65.01
721.945	65.13
722.267	64.97
722.588	64.72
722.909	64.43
723.231	64.18
723.552	63.69
723.873	63.86
724.194	63.66
724.515	63.76
724.836	63.85
725.157	63.88
725.478	63.97
725.799	64.08
726.12	64.19
726.441	64.19
726.762	64.43
727.083	64.62
727.403	64.58
727.724	64.4
728.045	64.21
728.365	64.14
728.686	63.99
729.006	64.01
729.327	64.08
729.647	64.44
729.967	64.42
730.288	64.85
730.608	64.77
730.928	64.88
731.249	64.85
731.569	64.74
731.889	64.75
732.209	64.87
732.529	64.9
732.849	64.87
733.169	64.77
733.489	64.77
733.809	64.78
734.129	64.57
734.448	64.65
734.768	64.93
735.088	65
735.408	65.06
735.727	64.93
736.047	64.93
736.366	64.62
736.686	64.66
737.005	64.46
737.325	64.41
737.644	64.24
737.963	64.09
738.283	64.07
738.602	64.01
738.921	63.94
739.24	64.12
739.56	64.38
739.879	64.48
740.198	64.69
740.517	64.6
740.836	64.5
741.155	64.59
741.473	64.3
741.792	64
742.111	64.24
742.43	64.32
742.748	64.54
743.067	64.62
743.386	64.75
743.704	64.55
744.023	64.63
744.341	64.79
744.66	65.08
744.978	65.22
745.297	65.24
745.615	65.12
745.933	64.56
746.252	64.25
746.57	64.46
746.888	64.09
747.206	64.09
747.524	64.43
747.842	64.44
748.16	64.53
748.478	64.64
748.796	64.33
749.114	64.49
749.432	64.17
749.749	64.23
750.067	64.34
750.385	64.47
750.703	64.67
751.02	64.52
751.338	64.64
751.655	64.3
751.973	64.48
752.29	64.5
752.608	64.63
752.925	64.78
753.242	64.42
753.56	64.71
753.877	64.6
754.194	64.73
754.511	64.79
754.828	64.79
755.145	64.89
755.462	64.83
755.779	64.61
756.096	64.6
756.413	64.67
756.73	64.89
757.047	64.89
757.364	64.69
757.68	64.81
757.997	64.84
758.314	65.29
758.63	64.96
758.947	64.88
759.264	65.19
759.58	65.01
759.896	65.08
760.213	65.02
760.529	64.95
760.846	64.89
761.162	64.82
761.478	64.74
761.794	64.64
762.11	64.86
762.426	64.69
762.743	64.97
763.059	64.76
763.375	64.52
763.69	64.7
764.006	64.63
764.322	64.8
764.638	64.69
764.954	64.74
765.27	64.73
765.585	64.96
765.901	64.89
766.216	64.89
766.532	65.15
766.848	65.07
767.163	65.32
767.478	65.12
767.794	65.06
768.109	65.18
768.424	65.65
768.74	65.69
769.055	65.93
769.37	65.78
769.685	66.11
770	66.09
770.315	65.85
770.63	65.95
770.945	65.74
771.26	65.79
771.575	65.56
771.89	65.81
772.205	65.24
772.52	65.51
772.834	65.42
773.149	65.72
773.464	65.62
773.778	65.53
774.093	65.72
774.407	65.87
774.722	66.14
775.036	65.48
775.351	65.66
775.665	65.51
775.979	65.39
776.293	65.01
776.608	65.14
776.922	65.29
777.236	65.68
777.55	65.57
777.864	65.81
778.178	65.58
778.492	65.77
778.806	65.97
779.12	65.54
779.434	65.72
779.747	65.54
780.061	65.92
780.375	65.75
780.689	65.73
781.002	65.64
781.316	65.59
781.629	66.13
781.943	65.83
782.256	66.04
782.57	66.28
782.883	66.63
783.196	66.28
783.51	66.1
783.823	65.65
784.136	65.81
784.449	65.49
784.762	65.52
785.075	65.31
785.388	65.27
785.701	65.41
786.014	65.26
786.327	65.07
786.64	65.05
786.953	64.99
787.266	64.59
787.578	64.71
787.891	63.98
788.204	63.71
788.516	63.87
788.829	64.12
789.141	63.93
789.454	63.75
789.766	63.7
790.079	63.83
790.391	64.06
790.703	63.78
791.016	63.33
791.328	63.5
791.64	63.54
791.952	63.58
792.264	63.31
792.576	63.22
792.888	63.14
793.2	63.16
793.512	63.13
793.824	63.81
794.136	63.8
794.448	63.76
794.76	63.75
795.071	63.47
795.383	63.57
795.695	63.95
796.006	64.59
796.318	65
796.629	64.82
796.941	64.84
797.252	65.19
797.564	65.2
797.875	65.05
798.186	64.8
798.497	65.11
798.809	64.72
799.12	65.39
799.431	65.33
799.742	65.22
800.053	66.18
800.364	66.59
800.675	66.69
800.986	67.58
801.297	67.64
801.608	67.51
801.918	67.22
802.229	66.96
802.54	66.3
802.851	66.44
803.161	67.05
803.472	67
803.782	67.34
804.093	67.58
804.403	68.45
804.714	69.07
805.024	69.37
805.334	70
805.645	69.7
805.955	69.96
806.265	69.98
806.575	68.81
806.885	68.22
807.195	68.37
807.505	67.9
807.815	67.88
808.125	67.59
808.435	67.82
808.745	66.81
809.055	66.84
809.365	66.78
809.674	66.71
809.984	66.67
810.294	65.97
810.603	65.82
810.913	64.91
811.222	64.42
811.532	64.14
811.841	64.16
812.151	64.53
812.46	64.19
812.769	64.36
813.079	65.03
813.388	64.32
813.697	63.85
814.006	64.42
814.315	64.56
814.624	64.94
814.933	64.61
815.242	64.81
815.551	65.02
815.86	65.03
816.169	64.01
816.478	63.4
816.786	63.54
817.095	63.64
817.404	64.27
817.712	64.39
818.021	64.22
818.33	64.05
818.638	63.58
818.947	63.89
819.255	63.75
819.563	63.27
819.872	63.73
820.18	63.9
820.488	63.75
820.796	63.83
821.105	64.09
821.413	64.44
821.721	64.76
822.029	64.77
822.337	64.79
822.645	64.83
822.953	65.01
823.26	65
823.568	64.93
823.876	64.83
824.184	64.84
824.491	64.79
824.799	64.71
825.107	64.73
825.414	64.68
825.722	64.7
826.029	65.04
826.337	65.18
826.644	65.31
826.951	65.36
827.259	65.35
827.566	65.26
827.873	65.11
828.18	65.42
828.488	65.33
828.795	65.29
829.102	65.6
829.409	65.77
829.716	65.72
830.023	66.17
830.329	66.4
830.636	66.25
830.943	66.33
831.25	66.53
831.557	66.32
831.863	65.95
832.17	65.66
832.476	65.47
832.783	65.16
833.089	65.22
833.396	65.45
833.702	65.24
834.009	65.11
834.315	65.19
834.621	64.58
834.928	64.59
835.234	64.57
835.54	64.24
835.846	64.06
836.152	64.12
836.458	63.42
836.764	62.94
837.07	62.9
837.376	63.15
837.682	63.1
837.988	63.37
838.293	63.93
838.599	64.81
838.905	64.62
839.211	64.5
839.516	63.45
839.822	63.1
840.127	63.72
840.433	64.12
840.738	63.96
841.044	63.51
841.349	62.9
841.654	63.66
841.959	64.05
842.265	63.33
842.57	63.79
842.875	63.63
843.18	64.12
843.485	64.86
843.79	64.39
844.095	64.02
844.4	64.48
844.705	64.1
845.01	62.89
845.315	62.73
845.619	63.05
845.924	63.92
846.229	64.05
846.533	63.46
846.838	63.71
847.142	62.12
847.447	62.56
847.751	63.36
848.056	60.5
848.36	58.7
848.664	59.82
848.969	59.38
849.273	60.91
849.577	62.67
849.881	62.59
850.185	61.2
850.489	62.78
850.794	61.61
851.097	62.63
851.401	62.33
851.705	62.46
852.009	62.47
852.313	63.7
852.617	64.65
852.92	64.1
853.224	62.12
853.528	64.84
853.831	63.68
854.135	64.62
854.438	66.91
854.742	69.14
855.045	69.06
855.349	71.99
855.652	71.97
855.955	70.31
856.259	68.52
856.562	69.04
856.865	68.12
857.168	67.53
857.471	67.88
857.774	69.16
858.077	69.05
858.38	68.19
858.683	67.17
858.986	65.36
859.289	65.49
859.592	67.9
859.894	65.34
860.197	67.05
860.5	67.44
860.802	66.7
861.105	67.52
861.407	67.2
861.71	62.17
862.012	60.89
862.315	60.82
862.617	62.62
862.919	63.43
863.222	63.36
863.524	64.19
863.826	61.64
864.128	61.4
864.43	59.9
864.732	60.96
865.034	61.8
865.336	63.83
865.638	65.25
865.94	62.29
866.242	65.02
866.544	62.72
866.846	62.41
867.147	60.12
867.449	59
867.751	59.59
868.052	63
868.354	65.6
868.655	65.83
868.957	64.11
869.258	64.27
869.56	66.32
869.861	65.81
870.162	67.81
870.463	67.47
870.765	71.15
871.066	70.25
871.367	70.44
871.668	70.86
871.969	68.29
872.27	71.15
872.571	69.1
872.872	71.08
873.173	69.6
873.473	70
873.774	70.73
874.075	71.13
874.376	72.08
874.676	72.09
874.977	70.35
875.277	72.39
875.578	72.05
875.878	71.54
876.179	73.06
876.479	73.26
876.78	73.87
877.08	71.21
877.38	71.95
877.68	71.16
877.981	67.5
878.281	69.58
878.581	67.86
