Data from BA56832_Reflection_00003.txt Node
Date: Mon Nov 18 16:09:34 EST 2019
User: vgr7
Spectrometer: USB2G7710
Scans to average: 3
Trigger mode: 4
Integration Time (sec): 2.000000E-2
Electric dark correction enabled: true
Boxcar width: 10
XAxis mode: Wavelengths
Number of Pixels in Spectrum: 2048
>>>>>Begin Spectral Data<<<<<
177.721	-10.09
178.105	-24.45
178.488	-34.03
178.871	-91.56
179.254	2.35
179.636	29.39
180.019	-320.74
180.402	7.69
180.785	-446.39
181.168	216.44
181.55	39.69
181.933	73.99
182.316	177.26
182.698	285.27
183.081	164.54
183.463	167.78
183.846	118.01
184.228	84.56
184.611	34.3
184.993	48.19
185.376	5.44
185.758	-75.56
186.14	-120.67
186.522	-270.44
186.904	-3240.43
187.287	-1340.68
187.669	1013.67
188.051	18.84
188.433	140.63
188.815	251.77
189.197	123.26
189.579	89.07
189.961	67.78
190.342	104.64
190.724	134.68
191.106	108.84
191.488	110.69
191.869	105.76
192.251	100.41
192.633	87.36
193.014	118.42
193.396	35.58
193.777	-70.95
194.159	-140.45
194.54	-35.29
194.922	24.57
195.303	22.84
195.684	-35.14
196.065	43.1
196.447	35.68
196.828	22.97
197.209	20.92
197.59	5.08
197.971	19.72
198.352	48.17
198.733	28.01
199.114	20.76
199.495	12.93
199.876	-9.94
200.257	6.06
200.638	25.24
201.018	33.83
201.399	49.1
201.78	62.94
202.16	54.93
202.541	39.18
202.922	29.46
203.302	27.89
203.683	15.19
204.063	-19.52
204.444	-57.17
204.824	-29.22
205.204	-3.59
205.585	26.01
205.965	22.59
206.345	2.99
206.725	-12.48
207.106	-46.11
207.486	-91.82
207.866	-66.5
208.246	-164.64
208.626	1513.79
209.006	-1143.48
209.386	-489.61
209.766	-271.2
210.145	-155.34
210.525	-91.76
210.905	-87.17
211.285	-56.79
211.664	-50.23
212.044	-28.9
212.424	-7.13
212.803	-11.88
213.183	0.81
213.562	-6.97
213.942	-17.1
214.321	-15.75
214.701	-4.8
215.08	6.47
215.459	12.43
215.838	4.18
216.218	-2.56
216.597	-3.12
216.976	3.81
217.355	-1.09
217.734	8.18
218.113	23.84
218.492	30.55
218.871	33.13
219.25	15.08
219.629	-14.46
220.008	-29.31
220.387	-48.34
220.766	-46.18
221.144	-93.89
221.523	-127.97
221.902	-139.17
222.28	-107.73
222.659	-59.66
223.037	-54.54
223.416	-61.29
223.794	-53.06
224.173	-57.15
224.551	-52.44
224.929	-43.5
225.308	-27.11
225.686	-21.38
226.064	-18.75
226.442	-15.21
226.821	-10.35
227.199	-6.28
227.577	-1.93
227.955	-1.56
228.333	-1.58
228.711	2.14
229.089	7.02
229.467	1.81
229.845	0.11
230.222	-0.03
230.6	-4.83
230.978	-3.58
231.356	-1.96
231.733	0.22
232.111	0.15
232.488	1.06
232.866	1.75
233.243	0.26
233.621	1.12
233.998	0.71
234.376	1.27
234.753	3.3
235.13	3.09
235.508	5.63
235.885	4.95
236.262	5.76
236.639	4.94
237.016	3.54
237.393	6.42
237.77	7.23
238.147	7.57
238.524	7.82
238.901	7.59
239.278	8.11
239.655	7.85
240.032	7.95
240.409	7.33
240.785	6.94
241.162	7.57
241.539	7.86
241.915	7.41
242.292	6.79
242.668	6.3
243.045	6.05
243.421	5.5
243.798	5.1
244.174	4.92
244.551	4.87
244.927	4.98
245.303	4.92
245.679	4.82
246.056	4.83
246.432	4.58
246.808	4.52
247.184	4.16
247.56	4.06
247.936	4.3
248.312	4.28
248.688	4.18
249.064	4.02
249.44	3.73
249.815	3.89
250.191	4.19
250.567	4.4
250.943	4.39
251.318	4.42
251.694	4.66
252.069	4.67
252.445	4.68
252.82	4.58
253.196	4.12
253.571	4.25
253.947	4.39
254.322	5.06
254.697	4.94
255.073	4.92
255.448	4.65
255.823	4.34
256.198	4.4
256.573	4.59
256.948	4.57
257.323	4.7
257.698	4.68
258.073	4.67
258.448	4.47
258.823	4.43
259.198	4.37
259.573	4.38
259.948	4.43
260.322	4.46
260.697	4.6
261.072	4.61
261.446	4.55
261.821	4.34
262.195	4.25
262.57	4.4
262.944	4.42
263.319	4.46
263.693	4.34
264.067	4.4
264.442	4.43
264.816	4.4
265.19	4.34
265.564	4.4
265.938	4.21
266.313	4.23
266.687	4.39
267.061	4.58
267.435	4.59
267.809	4.49
268.183	4.53
268.556	4.21
268.93	4.39
269.304	4.26
269.678	4.39
270.051	4.41
270.425	4.35
270.799	4.34
271.172	4.45
271.546	4.53
271.919	4.58
272.293	4.52
272.666	4.59
273.04	4.59
273.413	4.44
273.787	4.49
274.16	4.44
274.533	4.41
274.906	4.39
275.279	4.31
275.653	4.27
276.026	4.16
276.399	4.38
276.772	4.39
277.145	4.46
277.518	4.54
277.891	4.47
278.263	4.41
278.636	4.36
279.009	4.28
279.382	4.44
279.755	4.28
280.127	4.44
280.5	4.43
280.872	4.44
281.245	4.5
281.617	4.69
281.99	4.7
282.362	4.67
282.735	4.38
283.107	4.4
283.479	4.63
283.852	4.63
284.224	4.58
284.596	4.58
284.968	4.65
285.34	4.65
285.713	4.58
286.085	4.72
286.457	4.91
286.829	4.93
287.201	4.91
287.572	4.87
287.944	4.81
288.316	4.87
288.688	4.79
289.06	4.85
289.431	4.81
289.803	4.84
290.175	4.89
290.546	5.06
290.918	4.95
291.289	4.89
291.661	5.03
292.032	5.02
292.403	5
292.775	5.08
293.146	4.89
293.517	4.97
293.889	4.86
294.26	4.83
294.631	4.84
295.002	4.73
295.373	4.71
295.744	4.69
296.115	4.76
296.486	4.8
296.857	4.75
297.228	4.72
297.599	4.75
297.97	4.7
298.34	4.66
298.711	4.8
299.082	4.8
299.452	4.7
299.823	4.75
300.194	4.72
300.564	4.55
300.935	4.68
301.305	4.63
301.676	4.69
302.046	4.55
302.416	4.65
302.787	4.65
303.157	4.81
303.527	4.75
303.897	4.71
304.267	4.72
304.637	4.75
305.008	4.7
305.378	4.67
305.748	4.72
306.117	4.71
306.487	4.67
306.857	4.54
307.227	4.62
307.597	4.64
307.967	4.74
308.336	4.82
308.706	4.78
309.076	4.93
309.445	4.87
309.815	4.97
310.184	4.88
310.554	4.94
310.923	4.9
311.293	4.98
311.662	4.8
312.031	4.78
312.401	4.71
312.77	4.81
313.139	4.8
313.508	4.82
313.877	4.94
314.246	4.97
314.616	5.03
314.985	4.9
315.353	4.91
315.722	4.83
316.091	4.84
316.46	4.7
316.829	4.65
317.198	4.72
317.567	4.8
317.935	4.75
318.304	4.83
318.672	4.93
319.041	4.85
319.41	4.94
319.778	4.87
320.147	4.79
320.515	4.55
320.883	4.64
321.252	4.63
321.62	4.46
321.988	4.44
322.357	4.34
322.725	4.38
323.093	4.47
323.461	4.53
323.829	4.51
324.197	4.7
324.565	4.63
324.933	4.64
325.301	4.58
325.669	4.67
326.037	4.58
326.405	4.52
326.772	4.69
327.14	4.75
327.508	4.85
327.875	4.84
328.243	5.02
328.61	4.89
328.978	4.89
329.346	4.97
329.713	4.88
330.08	4.94
330.448	4.97
330.815	4.9
331.182	4.88
331.55	4.84
331.917	4.84
332.284	4.98
332.651	4.87
333.018	4.83
333.385	4.79
333.752	4.92
334.119	4.97
334.486	4.78
334.853	4.6
335.22	4.47
335.587	4.5
335.954	4.39
336.32	4.42
336.687	4.34
337.054	4.38
337.42	4.49
337.787	4.44
338.153	4.41
338.52	4.36
338.886	4.19
339.253	4.17
339.619	4.17
339.986	4.08
340.352	4.24
340.718	4.21
341.084	4.15
341.451	4.11
341.817	4.07
342.183	4.09
342.549	4.24
342.915	4.34
343.281	4.37
343.647	4.49
344.013	4.53
344.379	4.6
344.745	4.53
345.11	4.45
345.476	4.55
345.842	4.57
346.208	4.61
346.573	4.78
346.939	4.82
347.304	4.65
347.67	4.59
348.035	4.56
348.401	4.56
348.766	4.58
349.132	4.56
349.497	4.57
349.862	4.63
350.228	4.64
350.593	4.67
350.958	4.7
351.323	4.64
351.688	4.65
352.053	4.62
352.418	4.67
352.783	4.69
353.148	4.7
353.513	4.69
353.878	4.72
354.243	4.75
354.608	4.76
354.972	4.88
355.337	4.97
355.702	4.99
356.066	5.05
356.431	4.99
356.795	4.96
357.16	4.96
357.524	4.87
357.889	4.76
358.253	4.78
358.618	4.78
358.982	4.8
359.346	4.7
359.71	4.7
360.075	4.7
360.439	4.75
360.803	4.7
361.167	4.7
361.531	4.66
361.895	4.63
362.259	4.66
362.623	4.69
362.987	4.68
363.351	4.65
363.714	4.68
364.078	4.68
364.442	4.62
364.806	4.6
365.169	4.67
365.533	4.72
365.896	4.68
366.26	4.65
366.623	4.59
366.987	4.68
367.35	4.71
367.714	4.72
368.077	4.7
368.44	4.74
368.803	4.75
369.167	4.68
369.53	4.59
369.893	4.53
370.256	4.54
370.619	4.53
370.982	4.49
371.345	4.41
371.708	4.52
372.071	4.59
372.434	4.6
372.797	4.58
373.159	4.59
373.522	4.58
373.885	4.64
374.247	4.71
374.61	4.69
374.973	4.66
375.335	4.71
375.698	4.75
376.06	4.69
376.423	4.69
376.785	4.75
377.147	4.88
377.51	4.92
377.872	4.93
378.234	4.91
378.596	4.94
378.958	4.96
379.321	4.9
379.683	4.89
380.045	4.88
380.407	4.86
380.769	4.84
381.13	4.86
381.492	4.83
381.854	4.83
382.216	4.84
382.578	4.83
382.939	4.78
383.301	4.76
383.663	4.77
384.024	4.77
384.386	4.8
384.747	4.77
385.109	4.74
385.47	4.69
385.832	4.71
386.193	4.7
386.554	4.71
386.916	4.7
387.277	4.72
387.638	4.74
387.999	4.77
388.36	4.82
388.721	4.82
389.082	4.81
389.443	4.77
389.804	4.79
390.165	4.79
390.526	4.78
390.887	4.79
391.248	4.84
391.609	4.85
391.969	4.82
392.33	4.76
392.691	4.75
393.051	4.76
393.412	4.75
393.772	4.71
394.133	4.68
394.493	4.69
394.854	4.68
395.214	4.64
395.574	4.64
395.935	4.6
396.295	4.58
396.655	4.63
397.015	4.64
397.376	4.61
397.736	4.65
398.096	4.67
398.456	4.66
398.816	4.63
399.176	4.58
399.535	4.57
399.895	4.59
400.255	4.63
400.615	4.62
400.975	4.63
401.334	4.65
401.694	4.66
402.054	4.65
402.413	4.65
402.773	4.61
403.132	4.6
403.492	4.61
403.851	4.61
404.211	4.56
404.57	4.56
404.929	4.58
405.288	4.54
405.648	4.52
406.007	4.49
406.366	4.49
406.725	4.53
407.084	4.54
407.443	4.56
407.802	4.53
408.161	4.55
408.52	4.54
408.879	4.56
409.238	4.54
409.596	4.54
409.955	4.52
410.314	4.54
410.673	4.52
411.031	4.52
411.39	4.53
411.748	4.54
412.107	4.54
412.465	4.52
412.824	4.52
413.182	4.54
413.54	4.55
413.899	4.58
414.257	4.57
414.615	4.57
414.974	4.59
415.332	4.6
415.69	4.61
416.048	4.59
416.406	4.59
416.764	4.61
417.122	4.61
417.48	4.6
417.838	4.63
418.195	4.64
418.553	4.64
418.911	4.65
419.269	4.65
419.626	4.66
419.984	4.67
420.342	4.68
420.699	4.67
421.057	4.68
421.414	4.66
421.772	4.64
422.129	4.65
422.486	4.63
422.844	4.63
423.201	4.63
423.558	4.63
423.915	4.63
424.273	4.63
424.63	4.63
424.987	4.63
425.344	4.64
425.701	4.65
426.058	4.62
426.415	4.61
426.772	4.63
427.128	4.61
427.485	4.61
427.842	4.62
428.199	4.63
428.555	4.62
428.912	4.62
429.269	4.65
429.625	4.62
429.982	4.63
430.338	4.62
430.695	4.61
431.051	4.6
431.407	4.6
431.764	4.6
432.12	4.59
432.476	4.6
432.832	4.57
433.189	4.57
433.545	4.6
433.901	4.62
434.257	4.59
434.613	4.6
434.969	4.59
435.325	4.58
435.681	4.58
436.036	4.58
436.392	4.6
436.748	4.58
437.104	4.58
437.459	4.58
437.815	4.59
438.171	4.6
438.526	4.62
438.882	4.63
439.237	4.63
439.593	4.65
439.948	4.65
440.304	4.66
440.659	4.66
441.014	4.64
441.369	4.62
441.725	4.62
442.08	4.61
442.435	4.62
442.79	4.62
443.145	4.63
443.5	4.63
443.855	4.61
444.21	4.61
444.565	4.64
444.92	4.64
445.275	4.63
445.629	4.61
445.984	4.62
446.339	4.61
446.693	4.6
447.048	4.6
447.403	4.61
447.757	4.61
448.112	4.61
448.466	4.62
448.82	4.63
449.175	4.64
449.529	4.62
449.883	4.6
450.238	4.61
450.592	4.61
450.946	4.6
451.3	4.6
451.654	4.61
452.008	4.6
452.362	4.6
452.716	4.6
453.07	4.63
453.424	4.62
453.778	4.61
454.132	4.6
454.486	4.6
454.839	4.61
455.193	4.58
455.547	4.59
455.9	4.59
456.254	4.6
456.607	4.61
456.961	4.63
457.314	4.65
457.668	4.66
458.021	4.65
458.375	4.67
458.728	4.69
459.081	4.68
459.434	4.68
459.787	4.69
460.141	4.69
460.494	4.67
460.847	4.68
461.2	4.68
461.553	4.7
461.906	4.72
462.259	4.71
462.611	4.73
462.964	4.73
463.317	4.73
463.67	4.72
464.022	4.72
464.375	4.72
464.728	4.71
465.08	4.7
465.433	4.7
465.785	4.67
466.138	4.66
466.49	4.66
466.843	4.66
467.195	4.65
467.547	4.68
467.899	4.67
468.252	4.66
468.604	4.66
468.956	4.64
469.308	4.63
469.66	4.63
470.012	4.62
470.364	4.62
470.716	4.63
471.068	4.65
471.42	4.66
471.772	4.65
472.123	4.67
472.475	4.69
472.827	4.7
473.178	4.73
473.53	4.74
473.882	4.74
474.233	4.74
474.585	4.71
474.936	4.68
475.288	4.71
475.639	4.73
475.99	4.75
476.342	4.73
476.693	4.73
477.044	4.76
477.395	4.76
477.746	4.75
478.097	4.77
478.448	4.77
478.8	4.75
479.15	4.74
479.501	4.73
479.852	4.73
480.203	4.73
480.554	4.75
480.905	4.76
481.255	4.77
481.606	4.78
481.957	4.81
482.307	4.82
482.658	4.82
483.009	4.81
483.359	4.81
483.709	4.82
484.06	4.83
484.41	4.83
484.761	4.84
485.111	4.85
485.461	4.84
485.811	4.84
486.162	4.85
486.512	4.87
486.862	4.87
487.212	4.87
487.562	4.88
487.912	4.88
488.262	4.87
488.612	4.87
488.961	4.88
489.311	4.88
489.661	4.88
490.011	4.89
490.36	4.9
490.71	4.9
491.06	4.91
491.409	4.9
491.759	4.9
492.108	4.9
492.458	4.88
492.807	4.88
493.157	4.88
493.506	4.89
493.855	4.89
494.204	4.89
494.554	4.9
494.903	4.88
495.252	4.89
495.601	4.89
495.95	4.9
496.299	4.9
496.648	4.88
496.997	4.87
497.346	4.86
497.695	4.87
498.043	4.88
498.392	4.87
498.741	4.86
499.09	4.87
499.438	4.89
499.787	4.91
500.135	4.93
500.484	4.95
500.832	4.95
501.181	4.94
501.529	4.95
501.878	4.96
502.226	4.96
502.574	4.96
502.923	4.97
503.271	4.97
503.619	4.98
503.967	5.01
504.315	5
504.663	5
505.011	4.98
505.359	4.97
505.707	4.97
506.055	4.98
506.403	4.98
506.751	4.96
507.098	4.97
507.446	4.97
507.794	4.94
508.141	4.96
508.489	4.95
508.837	4.96
509.184	4.96
509.531	4.96
509.879	4.96
510.226	4.97
510.574	4.95
510.921	4.95
511.268	4.94
511.616	4.96
511.963	4.98
512.31	5
512.657	5
513.004	4.99
513.351	5
513.698	5.01
514.045	5.01
514.392	5.02
514.739	5.04
515.086	5.05
515.432	5.02
515.779	5.02
516.126	5.01
516.473	5.01
516.819	5.03
517.166	5.03
517.512	5.03
517.859	5.04
518.205	5.04
518.552	5.05
518.898	5.06
519.245	5.04
519.591	5.03
519.937	5.03
520.283	5.06
520.629	5.07
520.976	5.06
521.322	5.06
521.668	5.06
522.014	5.06
522.36	5.06
522.706	5.09
523.052	5.11
523.398	5.13
523.743	5.13
524.089	5.12
524.435	5.13
524.781	5.15
525.126	5.17
525.472	5.18
525.817	5.17
526.163	5.18
526.509	5.2
526.854	5.21
527.199	5.22
527.545	5.22
527.89	5.22
528.235	5.22
528.581	5.22
528.926	5.22
529.271	5.21
529.616	5.22
529.961	5.22
530.306	5.22
530.651	5.22
530.996	5.23
531.341	5.23
531.686	5.23
532.031	5.22
532.376	5.22
532.721	5.21
533.065	5.21
533.41	5.21
533.755	5.2
534.099	5.22
534.444	5.23
534.788	5.22
535.133	5.22
535.477	5.22
535.822	5.22
536.166	5.22
536.51	5.22
536.855	5.22
537.199	5.24
537.543	5.23
537.887	5.24
538.231	5.23
538.576	5.25
538.92	5.24
539.264	5.23
539.608	5.25
539.951	5.25
540.295	5.26
540.639	5.28
540.983	5.28
541.327	5.27
541.671	5.26
542.014	5.25
542.358	5.25
542.701	5.26
543.045	5.26
543.389	5.28
543.732	5.28
544.075	5.28
544.419	5.27
544.762	5.27
545.105	5.28
545.449	5.29
545.792	5.29
546.135	5.32
546.478	5.34
546.821	5.34
547.165	5.33
547.508	5.31
547.851	5.3
548.194	5.28
548.536	5.3
548.879	5.3
549.222	5.32
549.565	5.31
549.908	5.32
550.25	5.34
550.593	5.32
550.936	5.3
551.278	5.29
551.621	5.32
551.963	5.33
552.306	5.31
552.648	5.32
552.991	5.33
553.333	5.32
553.675	5.33
554.017	5.33
554.36	5.37
554.702	5.39
555.044	5.38
555.386	5.41
555.728	5.36
556.07	5.39
556.412	5.4
556.754	5.4
557.096	5.39
557.438	5.36
557.78	5.42
558.121	5.42
558.463	5.44
558.805	5.4
559.147	5.4
559.488	5.41
559.83	5.4
560.171	5.4
560.513	5.41
560.854	5.42
561.196	5.39
561.537	5.35
561.878	5.36
562.22	5.37
562.561	5.35
562.902	5.38
563.243	5.36
563.584	5.41
563.925	5.43
564.266	5.42
564.607	5.44
564.948	5.43
565.289	5.48
565.63	5.5
565.971	5.52
566.312	5.49
566.653	5.51
566.993	5.5
567.334	5.48
567.675	5.49
568.015	5.48
568.356	5.47
568.696	5.49
569.037	5.47
569.377	5.51
569.718	5.51
570.058	5.5
570.398	5.5
570.739	5.48
571.079	5.48
571.419	5.49
571.759	5.5
572.099	5.49
572.439	5.46
572.779	5.45
573.119	5.45
573.459	5.49
573.799	5.48
574.139	5.47
574.479	5.49
574.819	5.48
575.158	5.49
575.498	5.52
575.838	5.5
576.177	5.49
576.517	5.46
576.856	5.47
577.196	5.5
577.535	5.5
577.875	5.48
578.214	5.48
578.553	5.5
578.893	5.46
579.232	5.43
579.571	5.44
579.91	5.46
580.25	5.49
580.589	5.5
580.928	5.49
581.267	5.49
581.606	5.49
581.945	5.51
582.283	5.49
582.622	5.49
582.961	5.53
583.3	5.6
583.639	5.63
583.977	5.68
584.316	5.6
584.654	5.6
584.993	5.62
585.332	5.6
585.67	5.62
586.008	5.66
586.347	5.66
586.685	5.65
587.024	5.62
587.362	5.61
587.7	5.59
588.038	5.65
588.376	5.66
588.715	5.64
589.053	5.65
589.391	5.67
589.729	5.65
590.067	5.62
590.404	5.6
590.742	5.58
591.08	5.52
591.418	5.6
591.756	5.64
592.093	5.65
592.431	5.68
592.769	5.65
593.106	5.64
593.444	5.67
593.781	5.64
594.119	5.67
594.456	5.68
594.793	5.66
595.131	5.6
595.468	5.62
595.805	5.66
596.143	5.69
596.48	5.65
596.817	5.7
597.154	5.72
597.491	5.7
597.828	5.74
598.165	5.72
598.502	5.67
598.839	5.66
599.176	5.64
599.512	5.61
599.849	5.65
600.186	5.62
600.523	5.63
600.859	5.65
601.196	5.61
601.532	5.61
601.869	5.59
602.205	5.59
602.542	5.61
602.878	5.59
603.215	5.56
603.551	5.59
603.887	5.56
604.223	5.54
604.56	5.55
604.896	5.51
605.232	5.59
605.568	5.62
605.904	5.62
606.24	5.67
606.576	5.65
606.912	5.66
607.248	5.65
607.583	5.66
607.919	5.68
608.255	5.7
608.591	5.73
608.926	5.77
609.262	5.83
609.597	5.79
609.933	5.78
610.268	5.78
610.604	5.79
610.939	5.8
611.275	5.8
611.61	5.81
611.945	5.88
612.281	5.83
612.616	5.82
612.951	5.86
613.286	5.85
613.621	5.92
613.956	5.92
614.291	5.97
614.626	5.97
614.961	5.96
615.296	6
615.631	5.95
615.966	5.96
616.3	5.92
616.635	5.93
616.97	5.92
617.304	5.91
617.639	5.92
617.973	5.91
618.308	5.95
618.642	5.96
618.977	5.92
619.311	5.89
619.646	5.9
619.98	5.9
620.314	5.92
620.648	5.92
620.983	5.91
621.317	5.93
621.651	5.96
621.985	6.01
622.319	6.01
622.653	6.03
622.987	6.04
623.321	6.07
623.655	6.11
623.988	6.18
624.322	6.22
624.656	6.25
624.99	6.23
625.323	6.2
625.657	6.16
625.99	6.18
626.324	6.22
626.657	6.23
626.991	6.22
627.324	6.16
627.658	6.13
627.991	6.13
628.324	6.12
628.657	6.08
628.991	6.05
629.324	6.07
629.657	6.06
629.99	6.07
630.323	6.08
630.656	6.05
630.989	6.02
631.322	6.02
631.655	6
631.987	6.01
632.32	6.08
632.653	6.13
632.986	6.15
633.318	6.15
633.651	6.14
633.984	6.16
634.316	6.2
634.649	6.22
634.981	6.18
635.313	6.2
635.646	6.21
635.978	6.23
636.31	6.22
636.643	6.25
636.975	6.2
637.307	6.19
637.639	6.22
637.971	6.19
638.303	6.16
638.635	6.18
638.967	6.18
639.299	6.18
639.631	6.1
639.963	6.02
640.295	6.06
640.626	6.06
640.958	6.11
641.29	6.12
641.621	6.12
641.953	6.16
642.285	6.2
642.616	6.25
642.948	6.22
643.279	6.2
643.61	6.19
643.942	6.17
644.273	6.18
644.604	6.19
644.936	6.18
645.267	6.22
645.598	6.24
645.929	6.27
646.26	6.28
646.591	6.35
646.922	6.36
647.253	6.34
647.584	6.3
647.915	6.24
648.245	6.22
648.576	6.22
648.907	6.23
649.238	6.19
649.568	6.17
649.899	6.15
650.229	6.16
650.56	6.14
650.89	6.23
651.221	6.24
651.551	6.21
651.882	6.23
652.212	6.27
652.542	6.23
652.872	6.19
653.203	6.14
653.533	6.19
653.863	6.21
654.193	6.18
654.523	6.25
654.853	6.3
655.183	6.27
655.513	6.23
655.843	6.21
656.172	6.2
656.502	6.23
656.832	6.2
657.162	6.25
657.491	6.25
657.821	6.25
658.15	6.23
658.48	6.24
658.809	6.23
659.139	6.19
659.468	6.18
659.798	6.16
660.127	6.18
660.456	6.15
660.785	6.22
661.115	6.2
661.444	6.19
661.773	6.16
662.102	6.17
662.431	6.25
662.76	6.28
663.089	6.34
663.418	6.29
663.747	6.34
664.076	6.34
664.404	6.41
664.733	6.42
665.062	6.48
665.39	6.51
665.719	6.51
666.048	6.55
666.376	6.56
666.705	6.6
667.033	6.61
667.362	6.61
667.69	6.55
668.018	6.61
668.347	6.61
668.675	6.63
669.003	6.66
669.331	6.58
669.659	6.6
669.987	6.54
670.315	6.58
670.643	6.6
670.971	6.6
671.299	6.52
671.627	6.46
671.955	6.33
672.283	6.34
672.61	6.4
672.938	6.3
673.266	6.36
673.593	6.5
673.921	6.46
674.249	6.48
674.576	6.46
674.904	6.47
675.231	6.47
675.558	6.44
675.886	6.49
676.213	6.57
676.54	6.63
676.867	6.67
677.195	6.59
677.522	6.65
677.849	6.66
678.176	6.7
678.503	6.73
678.83	6.83
679.157	6.82
679.484	6.81
679.81	6.85
680.137	6.8
680.464	6.7
680.791	6.75
681.117	6.77
681.444	6.74
681.771	6.77
682.097	6.77
682.424	6.77
682.75	6.7
683.077	6.64
683.403	6.67
683.729	6.63
684.056	6.73
684.382	6.72
684.708	6.67
685.034	6.64
685.36	6.63
685.686	6.7
686.012	6.62
686.339	6.58
686.664	6.61
686.99	6.58
687.316	6.57
687.642	6.54
687.968	6.46
688.294	6.54
688.619	6.56
688.945	6.59
689.271	6.62
689.596	6.71
689.922	6.78
690.247	6.74
690.573	6.78
690.898	6.77
691.224	6.75
691.549	6.82
691.874	6.86
692.2	6.95
692.525	6.87
692.85	7
693.175	7.1
693.5	7.09
693.825	7.18
694.15	7.14
694.475	7.13
694.8	7.16
695.125	7.04
695.45	7.02
695.775	7.09
696.099	7.07
696.424	7.06
696.749	7.04
697.073	6.99
697.398	6.98
697.723	6.94
698.047	6.91
698.372	6.81
698.696	6.9
699.02	6.85
699.345	6.92
699.669	6.86
699.993	6.78
700.318	6.84
700.642	6.78
700.966	6.78
701.29	6.85
701.614	6.91
701.938	7.06
702.262	7.06
702.586	6.89
702.91	6.79
703.234	6.85
703.557	6.89
703.881	6.92
704.205	6.96
704.529	7.04
704.852	7
705.176	7.09
705.499	6.91
705.823	6.98
706.146	6.88
706.47	6.82
706.793	6.9
707.117	6.84
707.44	6.86
707.763	6.95
708.086	6.91
708.409	6.89
708.733	6.82
709.056	6.75
709.379	6.9
709.702	7.04
710.025	6.95
710.348	6.86
710.671	6.81
710.993	6.87
711.316	6.76
711.639	6.82
711.962	6.84
712.284	6.96
712.607	6.83
712.93	6.92
713.252	7.02
713.575	6.93
713.897	7
714.22	7
714.542	7.05
714.864	6.92
715.187	6.91
715.509	6.94
715.831	6.97
716.153	7.09
716.475	7.15
716.798	7.17
717.12	7.19
717.442	7.12
717.764	7.11
718.085	7.17
718.407	7.24
718.729	7.23
719.051	7.15
719.373	7.24
719.695	7.18
720.016	7.18
720.338	7.14
720.659	6.97
720.981	7.03
721.302	6.9
721.624	6.94
721.945	6.94
722.267	6.77
722.588	6.67
722.909	6.5
723.231	6.33
723.552	6.42
723.873	6.46
724.194	6.6
724.515	6.65
724.836	6.58
725.157	6.62
725.478	6.44
725.799	6.49
726.12	6.31
726.441	6.41
726.762	6.38
727.083	6.5
727.403	6.61
727.724	6.56
728.045	6.72
728.365	6.8
728.686	6.67
729.006	6.93
729.327	6.98
729.647	7.13
729.967	7.18
730.288	7.13
730.608	7.13
730.928	7.13
731.249	7.04
731.569	7.22
731.889	7.15
732.209	7.23
732.529	7.13
732.849	7.34
733.169	7.28
733.489	7.31
733.809	7.44
734.129	7.42
734.448	7.66
734.768	7.6
735.088	7.54
735.408	7.69
735.727	7.68
736.047	7.71
736.366	7.48
736.686	7.53
737.005	7.42
737.325	7.4
737.644	7.5
737.963	7.56
738.283	7.35
738.602	7.4
738.921	7.56
739.24	7.72
739.56	7.43
739.879	7.44
740.198	7.32
740.517	7.26
740.836	7.42
741.155	7.17
741.473	7.13
741.792	7.18
742.111	7.37
742.43	7.23
742.748	7.19
743.067	7.24
743.386	7.34
743.704	7.37
744.023	7.62
744.341	7.5
744.66	7.49
744.978	7.59
745.297	7.67
745.615	7.75
745.933	7.69
746.252	8
746.57	7.95
746.888	8
747.206	7.86
747.524	7.74
747.842	7.88
748.16	8.17
748.478	8.29
748.796	8.21
749.114	8.54
749.432	8.58
749.749	8.75
750.067	8.61
750.385	8.74
750.703	8.69
751.02	8.67
751.338	8.37
751.655	8.5
751.973	8.5
752.29	8.39
752.608	8.45
752.925	8.51
753.242	8.49
753.56	8.48
753.877	8.49
754.194	8.51
754.511	8.41
754.828	8.04
755.145	8.08
755.462	7.86
755.779	7.6
756.096	7.71
756.413	7.64
756.73	7.8
757.047	7.68
757.364	7.52
757.68	7.6
757.997	7.97
758.314	7.54
758.63	7.29
758.947	7.21
759.264	7
759.58	6.86
759.896	7.17
760.213	7.28
760.529	7.38
760.846	7.35
761.162	7.38
761.478	7.47
761.794	7.55
762.11	7.75
762.426	7.74
762.743	7.96
763.059	7.97
763.375	7.98
763.69	8.14
764.006	8.18
764.322	8.28
764.638	8.31
764.954	8.68
765.27	8.66
765.585	8.63
765.901	8.74
766.216	8.77
766.532	8.52
766.848	8.53
767.163	8.61
767.478	8.62
767.794	8.51
768.109	8.63
768.424	8.57
768.74	8.44
769.055	8.51
769.37	8.47
769.685	8.29
770	8.51
770.315	8.23
770.63	8.28
770.945	8.24
771.26	8.13
771.575	7.77
771.89	7.94
772.205	7.88
772.52	7.94
772.834	8.03
773.149	8.29
773.464	8.08
773.778	8.16
774.093	8.1
774.407	8.42
774.722	8.21
775.036	8.09
775.351	8.07
775.665	8.04
775.979	7.69
776.293	8.04
776.608	7.57
776.922	7.95
777.236	7.66
777.55	7.72
777.864	7.79
778.178	8.19
778.492	8.31
778.806	8.76
779.12	9.04
779.434	8.93
779.747	9.15
780.061	9.43
780.375	9.37
780.689	9.63
781.002	9.62
781.316	10
781.629	10.11
781.943	10.33
782.256	10.58
782.57	10.86
782.883	10.88
783.196	10.76
783.51	10.41
783.823	10.47
784.136	10.32
784.449	10.36
784.762	10.49
785.075	10.37
785.388	10.14
785.701	9.78
786.014	9.42
786.327	8.96
786.64	9.02
786.953	9.34
787.266	8.97
787.578	8.61
787.891	8.84
788.204	8.82
788.516	8.69
788.829	8.57
789.141	8.52
789.454	8.45
789.766	8.86
790.079	9.23
790.391	9.44
790.703	9.61
791.016	9.25
791.328	9.1
791.64	9.39
791.952	9.49
792.264	9.38
792.576	9.45
792.888	9.66
793.2	9.75
793.512	9.1
793.824	9.41
794.136	9.71
794.448	8.94
794.76	8.79
795.071	8.57
795.383	8.24
795.695	8.23
796.006	7.92
796.318	7.77
796.629	7.93
796.941	7.86
797.252	7.92
797.564	8.48
797.875	8.63
798.186	8.26
798.497	8.31
798.809	8.63
799.12	8.96
799.431	8.66
799.742	8.31
800.053	8.78
800.364	8.77
800.675	8.68
800.986	8.94
801.297	9.5
801.608	9.61
801.918	9.46
802.229	9.41
802.54	9.82
802.851	9.75
803.161	9.53
803.472	9.24
803.782	9.01
804.093	8.87
804.403	8.28
804.714	8.52
805.024	8.19
805.334	8.18
805.645	8.49
805.955	9.04
806.265	9.13
806.575	9.01
806.885	8.99
807.195	9.29
807.505	9.62
807.815	9.01
808.125	9.29
808.435	9.96
808.745	9.8
809.055	10.06
809.365	10.15
809.674	9.91
809.984	10.85
810.294	10.86
810.603	10.81
810.913	11.32
811.222	11.47
811.532	11.63
811.841	12.17
812.151	12.18
812.46	11.88
812.769	12.51
813.079	12.23
813.388	12.2
813.697	12.44
814.006	11.97
814.315	11.7
814.624	11.73
814.933	11.75
815.242	12.25
815.551	12.71
815.86	12.75
816.169	12.92
816.478	12.58
816.786	12.16
817.095	12.24
817.404	12.11
817.712	11.57
818.021	11.61
818.33	10.9
818.638	10.64
818.947	11
819.255	10.82
819.563	10.98
819.872	10.78
820.18	10.37
820.488	10.2
820.796	10.43
821.105	10.3
821.413	10.21
821.721	10.12
822.029	10.03
822.337	10.13
822.645	10.07
822.953	9.98
823.26	10.19
823.568	10.1
823.876	10.14
824.184	10.17
824.491	10.06
824.799	10.12
825.107	10.22
825.414	10.13
825.722	10.1
826.029	10.08
826.337	10.34
826.644	10.48
826.951	10.58
827.259	10.56
827.566	10.65
827.873	10.85
828.18	10.93
828.488	10.84
828.795	11.02
829.102	11.09
829.409	11.2
829.716	11.04
830.023	11.42
830.329	11.44
830.636	11.53
830.943	11.57
831.25	11.39
831.557	10.9
831.863	11.19
832.17	10.7
832.476	10.8
832.783	10.55
833.089	10.85
833.396	11.24
833.702	11.6
834.009	11.48
834.315	11.07
834.621	11.03
834.928	10.9
835.234	10.48
835.54	10.53
835.846	10.48
836.152	10.79
836.458	10.27
836.764	10.07
837.07	10.34
837.376	10.2
837.682	10.72
837.988	11.2
838.293	10.81
838.599	11.86
838.905	11.56
839.211	11.28
839.516	10.69
839.822	10.27
840.127	9.84
840.433	9.91
840.738	10.51
841.044	10.06
841.349	10.87
841.654	10.19
841.959	10.31
842.265	10.39
842.57	10.71
842.875	10.9
843.18	11.41
843.485	11.11
843.79	13.36
844.095	12.12
844.4	14.08
844.705	13.24
845.01	12.53
845.315	13.09
845.619	12.89
845.924	13.76
846.229	14.24
846.533	14.31
846.838	14.36
847.142	13.34
847.447	13.26
847.751	12.39
848.056	13.57
848.36	13.94
848.664	15.01
848.969	13.64
849.273	13.04
849.577	12.41
849.881	11.58
850.185	10.38
850.489	12.07
850.794	10.79
851.097	13.41
851.401	13.89
851.705	12.39
852.009	13.87
852.313	12.33
852.617	13.26
852.92	14.07
853.224	14.04
853.528	14.52
853.831	16.18
854.135	15.11
854.438	17.13
854.742	16.67
855.045	16.36
855.349	16.3
855.652	17.17
855.955	17.37
856.259	18.19
856.562	16.81
856.865	17.15
857.168	16.33
857.471	15.89
857.774	16.61
858.077	19.04
858.38	19.57
858.683	19.63
858.986	18.24
859.289	17.22
859.592	18.02
859.894	19.13
860.197	16.32
860.5	16.68
860.802	15.63
861.105	16
861.407	14.88
861.71	15.4
862.012	17.72
862.315	17.34
862.617	16.5
862.919	16.16
863.222	16.59
863.524	15.46
863.826	16.89
864.128	16.38
864.43	15.76
864.732	16.3
865.034	15.4
865.336	16.44
865.638	16.42
865.94	15.46
866.242	15.23
866.544	16.9
866.846	18.95
867.147	20.22
867.449	20.72
867.751	23.26
868.052	24.38
868.354	21.52
868.655	22.66
868.957	23.67
869.258	23.75
869.56	22.34
869.861	23.32
870.162	21.11
870.463	21.25
870.765	21.02
871.066	18.26
871.367	20.93
871.668	18.54
871.969	17.26
872.27	17.55
872.571	16.18
872.872	17.85
873.173	16.07
873.473	14.88
873.774	14.52
874.075	13.56
874.376	11.18
874.676	14.15
874.977	12.13
875.277	14.07
875.578	15.01
875.878	15.62
876.179	15.07
876.479	15
876.78	14.56
877.08	14.82
877.38	16.66
877.68	15.29
877.981	17.66
878.281	20.87
878.581	22.67
