Data from BA56825_Reflection_00004.txt Node
Date: Mon Nov 18 15:37:22 EST 2019
User: vgr7
Spectrometer: USB2G7710
Scans to average: 3
Trigger mode: 4
Integration Time (sec): 2.000000E-2
Electric dark correction enabled: true
Boxcar width: 10
XAxis mode: Wavelengths
Number of Pixels in Spectrum: 2048
>>>>>Begin Spectral Data<<<<<
177.721	163.23
178.105	59.79
178.488	32.12
178.871	100
179.254	62.46
179.636	7.02
180.019	79.5
180.402	49.09
180.785	-20.36
181.168	48.47
181.55	2747.06
181.933	108.87
182.316	47.02
182.698	56.11
183.081	49.85
183.463	146.31
183.846	597.98
184.228	-391.96
184.611	-302.74
184.993	-32.96
185.376	-10.39
185.758	-20.38
186.14	-70.19
186.522	-22.31
186.904	-53.04
187.287	-135.34
187.669	-49.38
188.051	-72.12
188.433	-41.33
188.815	-25.52
189.197	-29.96
189.579	-42.51
189.961	-21.22
190.342	-31.61
190.724	-14.93
191.106	-19.31
191.488	-17.29
191.869	-1.06
192.251	1.71
192.633	-0.02
193.014	-20.25
193.396	-39.87
193.777	-29.46
194.159	-6.97
194.54	0.37
194.922	13.23
195.303	25.89
195.684	22.26
196.065	45.98
196.447	45.04
196.828	38.37
197.209	37.7
197.59	36.94
197.971	30.88
198.352	38.03
198.733	28.79
199.114	30.87
199.495	37.68
199.876	31.91
200.257	31.25
200.638	33.24
201.018	42.01
201.399	44.83
201.78	39.04
202.16	27.12
202.541	14
202.922	-9.99
203.302	-22.57
203.683	-26.65
204.063	-40.44
204.444	-45.34
204.824	-39.36
205.204	-31.09
205.585	-31.14
205.965	-22.63
206.345	-27.79
206.725	-28.18
207.106	-44.29
207.486	-66.72
207.866	-88
208.246	-85.22
208.626	-80.18
209.006	-49.76
209.386	-41.68
209.766	-41.94
210.145	-35.37
210.525	-33.52
210.905	-6.63
211.285	-0.56
211.664	13.98
212.044	15.99
212.424	28.55
212.803	46.57
213.183	30.78
213.562	43.4
213.942	34.9
214.321	28.96
214.701	24.68
215.08	19.62
215.459	26.79
215.838	23.39
216.218	9.62
216.597	41.48
216.976	23.7
217.355	16.48
217.734	15.39
218.113	27.22
218.492	39.12
218.871	21.7
219.25	32.64
219.629	42.32
220.008	48.43
220.387	41.47
220.766	20.67
221.144	18.7
221.523	13.51
221.902	19.76
222.28	13.06
222.659	21
223.037	30.15
223.416	25.05
223.794	25.32
224.173	20.67
224.551	15.94
224.929	9.81
225.308	10.56
225.686	9.44
226.064	14.03
226.442	14.24
226.821	14.74
227.199	11.88
227.577	5.86
227.955	3.89
228.333	3.23
228.711	6.07
229.089	8.68
229.467	7
229.845	5.15
230.222	6.53
230.6	4.68
230.978	4.7
231.356	6.29
231.733	5.66
232.111	7.8
232.488	7.71
232.866	10.08
233.243	9.7
233.621	8.24
233.998	7.48
234.376	5.17
234.753	5.5
235.13	7.06
235.508	7.57
235.885	8.04
236.262	7.76
236.639	6.59
237.016	4.3
237.393	5.28
237.77	5.39
238.147	5.46
238.524	6.15
238.901	5.77
239.278	5.38
239.655	6.7
240.032	5.73
240.409	5.85
240.785	4.68
241.162	4.86
241.539	5.7
241.915	5.48
242.292	5.91
242.668	5.67
243.045	5.56
243.421	5.63
243.798	5.83
244.174	5.79
244.551	5.85
244.927	6.42
245.303	6.55
245.679	6.6
246.056	6.53
246.432	6.61
246.808	6.81
247.184	6.82
247.56	6.46
247.936	6.55
248.312	6.5
248.688	6.72
249.064	6.95
249.44	7.04
249.815	7.04
250.191	7.09
250.567	7.42
250.943	7.16
251.318	7.35
251.694	7.21
252.069	7.3
252.445	7.36
252.82	7.24
253.196	7.15
253.571	7.13
253.947	7.35
254.322	7.15
254.697	7.06
255.073	6.99
255.448	6.83
255.823	6.76
256.198	6.71
256.573	6.81
256.948	6.65
257.323	6.45
257.698	6.5
258.073	6.42
258.448	6.27
258.823	6.43
259.198	6.33
259.573	6.18
259.948	5.99
260.322	6.09
260.697	6.01
261.072	5.91
261.446	5.92
261.821	5.73
262.195	5.84
262.57	5.76
262.944	5.67
263.319	5.85
263.693	5.73
264.067	5.79
264.442	5.84
264.816	5.8
265.19	5.77
265.564	5.64
265.938	5.54
266.313	5.48
266.687	5.46
267.061	5.54
267.435	5.79
267.809	5.79
268.183	5.68
268.556	5.68
268.93	5.83
269.304	5.85
269.678	5.94
270.051	5.86
270.425	6.04
270.799	6.25
271.172	6.24
271.546	6.48
271.919	6.43
272.293	6.28
272.666	6.37
273.04	6.58
273.413	6.56
273.787	6.71
274.16	6.7
274.533	6.53
274.906	6.44
275.279	6.33
275.653	6.52
276.026	6.47
276.399	6.5
276.772	6.56
277.145	6.43
277.518	6.48
277.891	6.5
278.263	6.23
278.636	6.13
279.009	6.22
279.382	6.18
279.755	6.2
280.127	6.35
280.5	6.23
280.872	6.11
281.245	6.26
281.617	6.27
281.99	6.42
282.362	6.56
282.735	6.47
283.107	6.47
283.479	6.49
283.852	6.66
284.224	6.68
284.596	6.72
284.968	6.92
285.34	6.94
285.713	6.98
286.085	7.08
286.457	7.22
286.829	7.17
287.201	7.09
287.572	7.01
287.944	7
288.316	7.02
288.688	6.98
289.06	7.08
289.431	7.12
289.803	7.07
290.175	7.12
290.546	7.31
290.918	7.44
291.289	7.41
291.661	7.54
292.032	7.61
292.403	7.51
292.775	7.55
293.146	7.55
293.517	7.53
293.889	7.56
294.26	7.47
294.631	7.39
295.002	7.41
295.373	7.48
295.744	7.52
296.115	7.61
296.486	7.62
296.857	7.61
297.228	7.75
297.599	7.66
297.97	7.72
298.34	7.76
298.711	7.73
299.082	7.7
299.452	7.63
299.823	7.73
300.194	7.79
300.564	7.67
300.935	7.82
301.305	7.92
301.676	8.04
302.046	8.17
302.416	8.35
302.787	8.35
303.157	8.39
303.527	8.43
303.897	8.39
304.267	8.47
304.637	8.42
305.008	8.29
305.378	8.56
305.748	8.58
306.117	8.48
306.487	8.54
306.857	8.6
307.227	8.53
307.597	8.47
307.967	8.51
308.336	8.63
308.706	8.61
309.076	8.57
309.445	8.41
309.815	8.39
310.184	8.3
310.554	8.38
310.923	8.36
311.293	8.27
311.662	8.18
312.031	8.31
312.401	8.29
312.77	8.38
313.139	8.41
313.508	8.4
313.877	8.33
314.246	8.37
314.616	8.42
314.985	8.52
315.353	8.5
315.722	8.56
316.091	8.53
316.46	8.39
316.829	8.37
317.198	8.46
317.567	8.4
317.935	8.43
318.304	8.62
318.672	8.55
319.041	8.66
319.41	8.75
319.778	8.72
320.147	8.8
320.515	8.64
320.883	8.52
321.252	8.62
321.62	8.71
321.988	8.54
322.357	8.48
322.725	8.33
323.093	8.34
323.461	8.23
323.829	8.27
324.197	8.33
324.565	8.35
324.933	8.34
325.301	8.46
325.669	8.54
326.037	8.4
326.405	8.49
326.772	8.55
327.14	8.7
327.508	8.54
327.875	8.44
328.243	8.54
328.61	8.48
328.978	8.52
329.346	8.64
329.713	8.8
330.08	8.88
330.448	8.83
330.815	8.81
331.182	8.9
331.55	8.96
331.917	9.03
332.284	9.17
332.651	9.23
333.018	9.16
333.385	9.11
333.752	9.22
334.119	9.25
334.486	9.17
334.853	9.1
335.22	9.13
335.587	9.16
335.954	9.06
336.32	9.12
336.687	9.04
337.054	8.97
337.42	8.98
337.787	8.99
338.153	9.13
338.52	9.12
338.886	8.95
339.253	8.81
339.619	8.82
339.986	8.66
340.352	8.55
340.718	8.53
341.084	8.59
341.451	8.58
341.817	8.63
342.183	8.6
342.549	8.6
342.915	8.63
343.281	8.66
343.647	8.74
344.013	8.69
344.379	8.58
344.745	8.61
345.11	8.49
345.476	8.44
345.842	8.37
346.208	8.36
346.573	8.47
346.939	8.5
347.304	8.33
347.67	8.25
348.035	8.33
348.401	8.38
348.766	8.25
349.132	8.2
349.497	8.2
349.862	8.25
350.228	8.32
350.593	8.28
350.958	8.24
351.323	8.28
351.688	8.33
352.053	8.46
352.418	8.55
352.783	8.61
353.148	8.61
353.513	8.66
353.878	8.7
354.243	8.74
354.608	8.81
354.972	8.97
355.337	9.13
355.702	9.11
356.066	9.07
356.431	9.15
356.795	9.15
357.16	9.16
357.524	9.11
357.889	9.01
358.253	8.99
358.618	8.98
358.982	8.87
359.346	8.83
359.71	8.8
360.075	8.76
360.439	8.77
360.803	8.76
361.167	8.71
361.531	8.71
361.895	8.67
362.259	8.61
362.623	8.57
362.987	8.54
363.351	8.59
363.714	8.59
364.078	8.53
364.442	8.52
364.806	8.51
365.169	8.58
365.533	8.63
365.896	8.62
366.26	8.6
366.623	8.59
366.987	8.63
367.35	8.62
367.714	8.61
368.077	8.55
368.44	8.55
368.803	8.53
369.167	8.43
369.53	8.43
369.893	8.48
370.256	8.51
370.619	8.5
370.982	8.4
371.345	8.41
371.708	8.46
372.071	8.5
372.434	8.46
372.797	8.41
373.159	8.35
373.522	8.34
373.885	8.39
374.247	8.44
374.61	8.42
374.973	8.39
375.335	8.35
375.698	8.45
376.06	8.42
376.423	8.47
376.785	8.51
377.147	8.51
377.51	8.47
377.872	8.49
378.234	8.44
378.596	8.5
378.958	8.5
379.321	8.48
379.683	8.42
380.045	8.4
380.407	8.36
380.769	8.39
381.13	8.4
381.492	8.41
381.854	8.43
382.216	8.37
382.578	8.38
382.939	8.37
383.301	8.34
383.663	8.35
384.024	8.35
384.386	8.37
384.747	8.38
385.109	8.45
385.47	8.41
385.832	8.46
386.193	8.43
386.554	8.41
386.916	8.4
387.277	8.44
387.638	8.44
387.999	8.46
388.36	8.5
388.721	8.51
389.082	8.47
389.443	8.46
389.804	8.47
390.165	8.48
390.526	8.51
390.887	8.5
391.248	8.51
391.609	8.48
391.969	8.47
392.33	8.43
392.691	8.4
393.051	8.36
393.412	8.34
393.772	8.37
394.133	8.37
394.493	8.38
394.854	8.37
395.214	8.37
395.574	8.34
395.935	8.26
396.295	8.3
396.655	8.28
397.015	8.28
397.376	8.26
397.736	8.24
398.096	8.21
398.456	8.19
398.816	8.21
399.176	8.19
399.535	8.17
399.895	8.17
400.255	8.15
400.615	8.19
400.975	8.19
401.334	8.14
401.694	8.16
402.054	8.13
402.413	8.13
402.773	8.13
403.132	8.15
403.492	8.16
403.851	8.12
404.211	8.18
404.57	8.17
404.929	8.21
405.288	8.21
405.648	8.2
406.007	8.24
406.366	8.24
406.725	8.27
407.084	8.29
407.443	8.28
407.802	8.28
408.161	8.22
408.52	8.21
408.879	8.24
409.238	8.18
409.596	8.19
409.955	8.15
410.314	8.17
410.673	8.14
411.031	8.15
411.39	8.14
411.748	8.09
412.107	8.1
412.465	8.07
412.824	8.08
413.182	8.05
413.54	8.02
413.899	8.02
414.257	8.03
414.615	8.02
414.974	8.06
415.332	8.07
415.69	8.08
416.048	8.08
416.406	8.08
416.764	8.1
417.122	8.09
417.48	8.09
417.838	8.08
418.195	8.1
418.553	8.1
418.911	8.11
419.269	8.11
419.626	8.1
419.984	8.09
420.342	8.07
420.699	8.08
421.057	8.07
421.414	8.05
421.772	8.04
422.129	8.01
422.486	8
422.844	8.01
423.201	8
423.558	8.01
423.915	7.99
424.273	7.98
424.63	7.98
424.987	7.97
425.344	7.97
425.701	7.96
426.058	7.95
426.415	7.95
426.772	7.94
427.128	7.94
427.485	7.95
427.842	7.93
428.199	7.94
428.555	7.95
428.912	7.96
429.269	7.96
429.625	7.97
429.982	7.98
430.338	7.98
430.695	7.98
431.051	7.95
431.407	7.94
431.764	7.96
432.12	7.95
432.476	7.95
432.832	7.93
433.189	7.94
433.545	7.92
433.901	7.93
434.257	7.94
434.613	7.94
434.969	7.94
435.325	7.96
435.681	7.94
436.036	7.92
436.392	7.91
436.748	7.91
437.104	7.91
437.459	7.9
437.815	7.89
438.171	7.9
438.526	7.92
438.882	7.94
439.237	7.93
439.593	7.93
439.948	7.93
440.304	7.95
440.659	7.95
441.014	7.98
441.369	7.97
441.725	7.96
442.08	7.97
442.435	7.95
442.79	7.96
443.145	7.96
443.5	7.95
443.855	7.96
444.21	7.95
444.565	7.95
444.92	7.95
445.275	7.91
445.629	7.89
445.984	7.88
446.339	7.87
446.693	7.86
447.048	7.84
447.403	7.82
447.757	7.8
448.112	7.78
448.466	7.76
448.82	7.74
449.175	7.73
449.529	7.7
449.883	7.69
450.238	7.66
450.592	7.66
450.946	7.65
451.3	7.63
451.654	7.63
452.008	7.62
452.362	7.61
452.716	7.62
453.07	7.63
453.424	7.63
453.778	7.61
454.132	7.61
454.486	7.64
454.839	7.67
455.193	7.68
455.547	7.69
455.9	7.71
456.254	7.73
456.607	7.72
456.961	7.71
457.314	7.72
457.668	7.73
458.021	7.72
458.375	7.74
458.728	7.75
459.081	7.74
459.434	7.75
459.787	7.76
460.141	7.78
460.494	7.79
460.847	7.77
461.2	7.79
461.553	7.79
461.906	7.77
462.259	7.77
462.611	7.77
462.964	7.78
463.317	7.79
463.67	7.78
464.022	7.8
464.375	7.8
464.728	7.84
465.08	7.84
465.433	7.86
465.785	7.86
466.138	7.85
466.49	7.85
466.843	7.86
467.195	7.86
467.547	7.85
467.899	7.85
468.252	7.86
468.604	7.87
468.956	7.86
469.308	7.87
469.66	7.88
470.012	7.88
470.364	7.9
470.716	7.89
471.068	7.91
471.42	7.89
471.772	7.91
472.123	7.9
472.475	7.91
472.827	7.9
473.178	7.89
473.53	7.91
473.882	7.94
474.233	7.93
474.585	7.93
474.936	7.91
475.288	7.94
475.639	7.97
475.99	7.98
476.342	8.01
476.693	8.02
477.044	8.04
477.395	8.04
477.746	8.02
478.097	8.02
478.448	8.02
478.8	8.04
479.15	8.03
479.501	8.03
479.852	8.05
480.203	8.06
480.554	8.08
480.905	8.09
481.255	8.09
481.606	8.11
481.957	8.12
482.307	8.13
482.658	8.12
483.009	8.12
483.359	8.13
483.709	8.13
484.06	8.13
484.41	8.13
484.761	8.13
485.111	8.14
485.461	8.14
485.811	8.13
486.162	8.14
486.512	8.16
486.862	8.15
487.212	8.16
487.562	8.16
487.912	8.15
488.262	8.15
488.612	8.15
488.961	8.14
489.311	8.15
489.661	8.14
490.011	8.14
490.36	8.13
490.71	8.13
491.06	8.13
491.409	8.12
491.759	8.12
492.108	8.14
492.458	8.13
492.807	8.14
493.157	8.15
493.506	8.14
493.855	8.15
494.204	8.15
494.554	8.16
494.903	8.16
495.252	8.18
495.601	8.2
495.95	8.21
496.299	8.23
496.648	8.25
496.997	8.29
497.346	8.33
497.695	8.37
498.043	8.39
498.392	8.38
498.741	8.39
499.09	8.4
499.438	8.41
499.787	8.45
500.135	8.47
500.484	8.49
500.832	8.52
501.181	8.54
501.529	8.56
501.878	8.57
502.226	8.58
502.574	8.57
502.923	8.57
503.271	8.57
503.619	8.57
503.967	8.55
504.315	8.52
504.663	8.51
505.011	8.52
505.359	8.53
505.707	8.55
506.055	8.56
506.403	8.58
506.751	8.57
507.098	8.58
507.446	8.58
507.794	8.58
508.141	8.58
508.489	8.59
508.837	8.61
509.184	8.61
509.531	8.64
509.879	8.68
510.226	8.7
510.574	8.71
510.921	8.72
511.268	8.75
511.616	8.76
511.963	8.77
512.31	8.77
512.657	8.78
513.004	8.79
513.351	8.81
513.698	8.82
514.045	8.85
514.392	8.84
514.739	8.85
515.086	8.9
515.432	8.91
515.779	8.92
516.126	8.93
516.473	8.94
516.819	8.97
517.166	8.94
517.512	8.93
517.859	8.94
518.205	8.95
518.552	8.96
518.898	8.99
519.245	9.02
519.591	9.02
519.937	9.03
520.283	9.05
520.629	9.07
520.976	9.08
521.322	9.1
521.668	9.13
522.014	9.15
522.36	9.13
522.706	9.15
523.052	9.15
523.398	9.16
523.743	9.19
524.089	9.18
524.435	9.2
524.781	9.22
525.126	9.24
525.472	9.25
525.817	9.26
526.163	9.26
526.509	9.26
526.854	9.27
527.199	9.29
527.545	9.28
527.89	9.29
528.235	9.28
528.581	9.28
528.926	9.28
529.271	9.29
529.616	9.3
529.961	9.3
530.306	9.32
530.651	9.33
530.996	9.32
531.341	9.32
531.686	9.33
532.031	9.35
532.376	9.36
532.721	9.37
533.065	9.37
533.41	9.37
533.755	9.37
534.099	9.38
534.444	9.37
534.788	9.4
535.133	9.42
535.477	9.43
535.822	9.43
536.166	9.43
536.51	9.43
536.855	9.45
537.199	9.46
537.543	9.45
537.887	9.47
538.231	9.46
538.576	9.47
538.92	9.48
539.264	9.45
539.608	9.45
539.951	9.47
540.295	9.48
540.639	9.5
540.983	9.51
541.327	9.51
541.671	9.51
542.014	9.51
542.358	9.51
542.701	9.51
543.045	9.51
543.389	9.53
543.732	9.53
544.075	9.53
544.419	9.53
544.762	9.56
545.105	9.55
545.449	9.57
545.792	9.59
546.135	9.61
546.478	9.63
546.821	9.61
547.165	9.61
547.508	9.62
547.851	9.64
548.194	9.64
548.536	9.64
548.879	9.66
549.222	9.67
549.565	9.66
549.908	9.66
550.25	9.69
550.593	9.68
550.936	9.67
551.278	9.67
551.621	9.69
551.963	9.68
552.306	9.68
552.648	9.7
552.991	9.7
553.333	9.7
553.675	9.73
554.017	9.74
554.36	9.74
554.702	9.73
555.044	9.69
555.386	9.71
555.728	9.7
556.07	9.7
556.412	9.66
556.754	9.7
557.096	9.69
557.438	9.7
557.78	9.71
558.121	9.74
558.463	9.76
558.805	9.75
559.147	9.75
559.488	9.75
559.83	9.72
560.171	9.71
560.513	9.72
560.854	9.74
561.196	9.7
561.537	9.71
561.878	9.71
562.22	9.72
562.561	9.75
562.902	9.75
563.243	9.73
563.584	9.78
563.925	9.77
564.266	9.77
564.607	9.78
564.948	9.78
565.289	9.76
565.63	9.73
565.971	9.72
566.312	9.75
566.653	9.73
566.993	9.76
567.334	9.76
567.675	9.76
568.015	9.75
568.356	9.78
568.696	9.81
569.037	9.83
569.377	9.88
569.718	9.86
570.058	9.86
570.398	9.87
570.739	9.88
571.079	9.87
571.419	9.86
571.759	9.84
572.099	9.86
572.439	9.88
572.779	9.88
573.119	9.91
573.459	9.9
573.799	9.92
574.139	9.9
574.479	9.91
574.819	9.9
575.158	9.88
575.498	9.86
575.838	9.89
576.177	9.87
576.517	9.84
576.856	9.88
577.196	9.91
577.535	9.94
577.875	9.93
578.214	9.92
578.553	9.96
578.893	9.99
579.232	9.97
579.571	9.99
579.91	10.02
580.25	9.98
580.589	10
580.928	10.02
581.267	10.04
581.606	10.03
581.945	10.02
582.283	10.03
582.622	10.01
582.961	9.97
583.3	9.97
583.639	9.99
583.977	9.91
584.316	9.9
584.654	9.86
584.993	9.87
585.332	9.92
585.67	9.95
586.008	9.93
586.347	9.94
586.685	9.91
587.024	9.89
587.362	9.97
587.7	9.96
588.038	9.96
588.376	9.97
588.715	10
589.053	10.05
589.391	10.07
589.729	10.1
590.067	10.07
590.404	10.1
590.742	10.11
591.08	10.13
591.418	10.11
591.756	10.14
592.093	10.15
592.431	10.14
592.769	10.12
593.106	10.16
593.444	10.12
593.781	10.15
594.119	10.17
594.456	10.15
594.793	10.13
595.131	10.15
595.468	10.12
595.805	10.15
596.143	10.14
596.48	10.17
596.817	10.19
597.154	10.22
597.491	10.22
597.828	10.2
598.165	10.2
598.502	10.23
598.839	10.22
599.176	10.21
599.512	10.19
599.849	10.2
600.186	10.17
600.523	10.25
600.859	10.27
601.196	10.29
601.532	10.29
601.869	10.29
602.205	10.29
602.542	10.3
602.878	10.28
603.215	10.26
603.551	10.26
603.887	10.27
604.223	10.24
604.56	10.25
604.896	10.25
605.232	10.27
605.568	10.28
605.904	10.28
606.24	10.32
606.576	10.38
606.912	10.39
607.248	10.38
607.583	10.37
607.919	10.35
608.255	10.33
608.591	10.34
608.926	10.36
609.262	10.38
609.597	10.38
609.933	10.38
610.268	10.41
610.604	10.41
610.939	10.4
611.275	10.43
611.61	10.41
611.945	10.46
612.281	10.47
612.616	10.45
612.951	10.41
613.286	10.38
613.621	10.31
613.956	10.26
614.291	10.29
614.626	10.26
614.961	10.22
615.296	10.23
615.631	10.26
615.966	10.21
616.3	10.2
616.635	10.24
616.97	10.24
617.304	10.24
617.639	10.22
617.973	10.19
618.308	10.19
618.642	10.23
618.977	10.17
619.311	10.13
619.646	10.16
619.98	10.18
620.314	10.15
620.648	10.18
620.983	10.23
621.317	10.27
621.651	10.3
621.985	10.38
622.319	10.33
622.653	10.33
622.987	10.38
623.321	10.36
623.655	10.38
623.988	10.44
624.322	10.39
624.656	10.42
624.99	10.46
625.323	10.45
625.657	10.46
625.99	10.51
626.324	10.56
626.657	10.53
626.991	10.58
627.324	10.57
627.658	10.59
627.991	10.56
628.324	10.57
628.657	10.57
628.991	10.57
629.324	10.6
629.657	10.6
629.99	10.61
630.323	10.6
630.656	10.58
630.989	10.54
631.322	10.59
631.655	10.59
631.987	10.55
632.32	10.59
632.653	10.57
632.986	10.58
633.318	10.57
633.651	10.62
633.984	10.61
634.316	10.63
634.649	10.63
634.981	10.6
635.313	10.61
635.646	10.57
635.978	10.5
636.31	10.47
636.643	10.52
636.975	10.49
637.307	10.49
637.639	10.47
637.971	10.47
638.303	10.47
638.635	10.46
638.967	10.54
639.299	10.51
639.631	10.48
639.963	10.38
640.295	10.35
640.626	10.33
640.958	10.36
641.29	10.37
641.621	10.38
641.953	10.42
642.285	10.38
642.616	10.46
642.948	10.48
643.279	10.48
643.61	10.4
643.942	10.36
644.273	10.39
644.604	10.39
644.936	10.38
645.267	10.35
645.598	10.36
645.929	10.36
646.26	10.39
646.591	10.44
646.922	10.54
647.253	10.61
647.584	10.61
647.915	10.52
648.245	10.51
648.576	10.5
648.907	10.6
649.238	10.67
649.568	10.61
649.899	10.62
650.229	10.67
650.56	10.72
650.89	10.81
651.221	10.75
651.551	10.72
651.882	10.72
652.212	10.77
652.542	10.79
652.872	10.73
653.203	10.7
653.533	10.69
653.863	10.64
654.193	10.64
654.523	10.67
654.853	10.71
655.183	10.75
655.513	10.78
655.843	10.75
656.172	10.7
656.502	10.71
656.832	10.74
657.162	10.66
657.491	10.61
657.821	10.57
658.15	10.62
658.48	10.7
658.809	10.7
659.139	10.73
659.468	10.73
659.798	10.71
660.127	10.74
660.456	10.79
660.785	10.79
661.115	10.78
661.444	10.74
661.773	10.82
662.102	10.81
662.431	10.77
662.76	10.77
663.089	10.73
663.418	10.79
663.747	10.82
664.076	10.86
664.404	10.89
664.733	10.97
665.062	10.95
665.39	10.85
665.719	10.83
666.048	10.84
666.376	10.87
666.705	10.93
667.033	10.9
667.362	10.84
667.69	10.88
668.018	10.88
668.347	10.91
668.675	10.88
669.003	10.92
669.331	11.03
669.659	10.99
669.987	11.01
670.315	11.08
670.643	11.03
670.971	11.04
671.299	11.07
671.627	11.05
671.955	11.13
672.283	11.19
672.61	11.25
672.938	11.18
673.266	11.12
673.593	11.15
673.921	11.26
674.249	11.2
674.576	11.13
674.904	11.08
675.231	11.11
675.558	11.08
675.886	11.02
676.213	10.88
676.54	10.85
676.867	10.85
677.195	10.7
677.522	10.69
677.849	10.69
678.176	10.67
678.503	10.63
678.83	10.62
679.157	10.59
679.484	10.53
679.81	10.59
680.137	10.54
680.464	10.5
680.791	10.46
681.117	10.46
681.444	10.54
681.771	10.59
682.097	10.59
682.424	10.59
682.75	10.62
683.077	10.74
683.403	10.81
683.729	10.79
684.056	10.92
684.382	10.92
684.708	10.94
685.034	10.99
685.36	10.98
685.686	11
686.012	10.99
686.339	11.13
686.664	11.04
686.99	11.16
687.316	11.1
687.642	11.1
687.968	11.16
688.294	11.2
688.619	11.27
688.945	11.19
689.271	11.24
689.596	11.13
689.922	11.09
690.247	11.03
690.573	11.01
690.898	10.96
691.224	11.02
691.549	11.16
691.874	11.18
692.2	11.29
692.525	11.33
692.85	11.4
693.175	11.34
693.5	11.28
693.825	11.25
694.15	11.32
694.475	11.35
694.8	11.37
695.125	11.26
695.45	11.13
695.775	11.2
696.099	11.14
696.424	11.16
696.749	11.06
697.073	11.18
697.398	11.27
697.723	11.28
698.047	11.18
698.372	11.13
698.696	11.13
699.02	11.1
699.345	11.09
699.669	11.08
699.993	11.13
700.318	11.27
700.642	11.39
700.966	11.41
701.29	11.39
701.614	11.38
701.938	11.43
702.262	11.61
702.586	11.64
702.91	11.66
703.234	11.81
703.557	12.03
703.881	11.96
704.205	12.05
704.529	12.06
704.852	12.3
705.176	12.33
705.499	12.34
705.823	12.35
706.146	12.29
706.47	12.41
706.793	12.3
707.117	12.27
707.44	12.07
707.763	12.09
708.086	12.01
708.409	11.97
708.733	11.98
709.056	11.88
709.379	11.95
709.702	11.93
710.025	11.88
710.348	11.63
710.671	11.63
710.993	11.59
711.316	11.62
711.639	11.59
711.962	11.56
712.284	11.58
712.607	11.66
712.93	11.72
713.252	11.58
713.575	11.72
713.897	11.81
714.22	11.93
714.542	11.98
714.864	12.09
715.187	12.12
715.509	12.18
715.831	12.24
716.153	12.24
716.475	12.33
716.798	12.45
717.12	12.59
717.442	12.6
717.764	12.54
718.085	12.55
718.407	12.51
718.729	12.56
719.051	12.63
719.373	12.45
719.695	12.48
720.016	12.6
720.338	12.56
720.659	12.56
720.981	12.51
721.302	12.42
721.624	12.38
721.945	12.32
722.267	12.2
722.588	12.19
722.909	12.01
723.231	12
723.552	11.86
723.873	11.95
724.194	11.96
724.515	12.03
724.836	11.8
725.157	11.73
725.478	11.7
725.799	11.68
726.12	11.8
726.441	11.75
726.762	11.75
727.083	11.71
727.403	11.62
727.724	11.74
728.045	11.76
728.365	11.69
728.686	11.86
729.006	11.93
729.327	11.77
729.647	12.1
729.967	11.97
730.288	12.09
730.608	12.01
730.928	11.87
731.249	11.66
731.569	11.97
731.889	12.03
732.209	12.01
732.529	11.93
732.849	11.88
733.169	11.81
733.489	11.75
733.809	11.79
734.129	11.9
734.448	11.91
734.768	11.92
735.088	12.12
735.408	12.11
735.727	12.13
736.047	12.28
736.366	11.91
736.686	12.08
737.005	12.04
737.325	12.18
737.644	12.51
737.963	12.61
738.283	12.31
738.602	12.46
738.921	12.43
739.24	12.46
739.56	12.56
739.879	12.9
740.198	12.94
740.517	12.79
740.836	12.73
741.155	12.49
741.473	12.7
741.792	12.6
742.111	12.53
742.43	12.52
742.748	12.51
743.067	12.77
743.386	12.65
743.704	12.59
744.023	12.52
744.341	12.18
744.66	12.44
744.978	12.66
745.297	12.62
745.615	12.55
745.933	12.58
746.252	12.52
746.57	12.15
746.888	12.27
747.206	12.37
747.524	12.26
747.842	12.38
748.16	12.29
748.478	12.37
748.796	12.5
749.114	12.72
749.432	12.64
749.749	12.52
750.067	12.55
750.385	12.57
750.703	12.73
751.02	12.8
751.338	12.71
751.655	12.62
751.973	12.42
752.29	12.67
752.608	12.74
752.925	12.87
753.242	12.92
753.56	13.01
753.877	13.15
754.194	13.13
754.511	13.2
754.828	13.08
755.145	13.07
755.462	13.13
755.779	13.08
756.096	13.09
756.413	13.24
756.73	13.45
757.047	13.4
757.364	13.13
757.68	13.33
757.997	13.37
758.314	13.27
758.63	13.52
758.947	13.31
759.264	13.28
759.58	13.32
759.896	13.66
760.213	13.47
760.529	13.51
760.846	13.54
761.162	13.46
761.478	13.61
761.794	13.49
762.11	13.37
762.426	13.29
762.743	13.28
763.059	13.4
763.375	13.25
763.69	13.25
764.006	13.29
764.322	13.22
764.638	13.24
764.954	13.51
765.27	13.53
765.585	13.6
765.901	13.49
766.216	13.59
766.532	13.19
766.848	13.35
767.163	13.35
767.478	13.34
767.794	13.32
768.109	13.11
768.424	13.2
768.74	13.47
769.055	13.52
769.37	13.59
769.685	13.42
770	13.62
770.315	13.67
770.63	13.71
770.945	13.83
771.26	13.93
771.575	13.65
771.89	13.56
772.205	13.7
772.52	14.19
772.834	13.86
773.149	14.27
773.464	13.96
773.778	13.89
774.093	14.01
774.407	14.53
774.722	14.62
775.036	14.54
775.351	14.74
775.665	14.4
775.979	14.25
776.293	14.23
776.608	14.17
776.922	14.14
777.236	14.22
777.55	14.01
777.864	13.98
778.178	14.27
778.492	14.22
778.806	14.22
779.12	13.84
779.434	14
779.747	14.01
780.061	14.56
780.375	14.45
780.689	14.28
781.002	13.66
781.316	13.62
781.629	13.93
781.943	13.72
782.256	14.22
782.57	14.45
782.883	14.47
783.196	14.11
783.51	14.35
783.823	14.01
784.136	13.96
784.449	13.76
784.762	13.68
785.075	13.94
785.388	14.12
785.701	14.2
786.014	14.28
786.327	14.04
786.64	14.1
786.953	14.3
787.266	14.32
787.578	14.55
787.891	14.98
788.204	14.68
788.516	14.58
788.829	13.87
789.141	14.02
789.454	14
789.766	14.43
790.079	14.62
790.391	14.69
790.703	14.86
791.016	14.8
791.328	14.86
791.64	14.74
791.952	14.36
792.264	13.84
792.576	13.71
792.888	14.05
793.2	13.56
793.512	13.51
793.824	14.03
794.136	14.14
794.448	13.64
794.76	13.61
795.071	13.54
795.383	14.18
795.695	13.93
796.006	13.66
796.318	13.23
796.629	13.3
796.941	13.9
797.252	14.08
797.564	14.22
797.875	13.85
798.186	13.8
798.497	14.38
798.809	14.78
799.12	14.8
799.431	14.65
799.742	14.82
800.053	15.16
800.364	14.98
800.675	15.37
800.986	15.4
801.297	15.35
801.608	15.16
801.918	15
802.229	15.58
802.54	15.77
802.851	15.89
803.161	16.18
803.472	16.02
803.782	16.21
804.093	16.22
804.403	16.26
804.714	16.26
805.024	15.81
805.334	15.53
805.645	15.94
805.955	15.68
806.265	15.45
806.575	15.26
806.885	15.56
807.195	15.16
807.505	15.49
807.815	16.15
808.125	16.58
808.435	17.11
808.745	17.02
809.055	17.33
809.365	17.84
809.674	17.05
809.984	17.1
810.294	16.65
810.603	16.96
810.913	17.22
811.222	17.52
811.532	17.81
811.841	19.02
812.151	19.01
812.46	19.22
812.769	19.57
813.079	19.53
813.388	18.95
813.697	18.83
814.006	19.23
814.315	18.84
814.624	18.95
814.933	18.42
815.242	18.17
815.551	17.87
815.86	17.87
816.169	18.19
816.478	17.98
816.786	18.24
817.095	17.96
817.404	18.06
817.712	17.81
818.021	17.7
818.33	16.9
818.638	16.74
818.947	16.61
819.255	16.72
819.563	16.51
819.872	16.63
820.18	16.66
820.488	16.33
820.796	16.2
821.105	15.96
821.413	15.91
821.721	15.87
822.029	15.84
822.337	15.75
822.645	15.8
822.953	15.71
823.26	15.82
823.568	15.81
823.876	15.75
824.184	15.75
824.491	15.74
824.799	15.83
825.107	15.81
825.414	15.85
825.722	15.79
826.029	15.86
826.337	15.8
826.644	15.88
826.951	15.79
827.259	15.76
827.566	15.79
827.873	15.84
828.18	16.04
828.488	16.24
828.795	16.03
829.102	15.95
829.409	16.17
829.716	15.76
830.023	15.77
830.329	15.7
830.636	15.56
830.943	15.45
831.25	15.33
831.557	15.37
831.863	15.51
832.17	15.28
832.476	15.23
832.783	15.34
833.089	15
833.396	15.55
833.702	16.07
834.009	16.1
834.315	15.75
834.621	15.16
834.928	14.82
835.234	15.2
835.54	14.94
835.846	14.9
836.152	15.36
836.458	15.91
836.764	16.08
837.07	16.41
837.376	16.13
837.682	16.25
837.988	15.22
838.293	14.97
838.599	15.4
838.905	15.48
839.211	15.41
839.516	15.71
839.822	15.32
840.127	14.8
840.433	15.11
840.738	15.46
841.044	15.81
841.349	16.84
841.654	16.29
841.959	16.54
842.265	16.9
842.57	16.98
842.875	15.24
843.18	15.61
843.485	15.53
843.79	16.04
844.095	15.37
844.4	18.32
844.705	17.53
845.01	16.38
845.315	16.01
845.619	15.24
845.924	14.82
846.229	15.49
846.533	15.42
846.838	14.54
847.142	13.91
847.447	13.49
847.751	11.72
848.056	11.36
848.36	10.95
848.664	9.89
848.969	9.49
849.273	10.39
849.577	9.82
849.881	8.9
850.185	9.1
850.489	9.94
850.794	6.89
851.097	7.65
851.401	7.34
851.705	8.32
852.009	10.15
852.313	9.13
852.617	8.13
852.92	9.94
853.224	11.11
853.528	13.88
853.831	14.52
854.135	14.4
854.438	16.83
854.742	15.99
855.045	16.34
855.349	16.96
855.652	16.43
855.955	14.94
856.259	15.08
856.562	14.46
856.865	13.97
857.168	15.35
857.471	16.05
857.774	16.55
858.077	16.24
858.38	15.96
858.683	17.42
858.986	17.93
859.289	16.55
859.592	15.42
859.894	13.86
860.197	13.26
860.5	14.2
860.802	12.92
861.105	14.88
861.407	15.13
861.71	14.96
862.012	16.98
862.315	17.74
862.617	19.84
862.919	21.16
863.222	20.67
863.524	22.31
863.826	22.45
864.128	24.61
864.43	25.21
864.732	26.14
865.034	24.98
865.336	23.82
865.638	22.5
865.94	23.43
866.242	24.66
866.544	25.62
866.846	25.5
867.147	26.32
867.449	26.07
867.751	27.09
868.052	27.29
868.354	26.42
868.655	28.65
868.957	25.56
869.258	25.82
869.56	27.02
869.861	24.2
870.162	24.56
870.463	23.3
870.765	22.46
871.066	21.63
871.367	21.05
871.668	21.02
871.969	18.64
872.27	19.31
872.571	18.45
872.872	17.14
873.173	15.98
873.473	16.27
873.774	16.76
874.075	15.33
874.376	13.93
874.676	15.31
874.977	12.82
875.277	16.11
875.578	15.16
875.878	14.42
876.179	16.11
876.479	15.48
876.78	15.04
877.08	13.69
877.38	12.21
877.68	13.73
877.981	13.75
878.281	18.67
878.581	16.63
