Data from BA56814_Reflection_00014.txt Node
Date: Mon Nov 18 15:40:52 EST 2019
User: vgr7
Spectrometer: USB2G7710
Scans to average: 3
Trigger mode: 4
Integration Time (sec): 2.000000E-2
Electric dark correction enabled: true
Boxcar width: 10
XAxis mode: Wavelengths
Number of Pixels in Spectrum: 2048
>>>>>Begin Spectral Data<<<<<
177.721	72.25
178.105	14.21
178.488	57.55
178.871	15.11
179.254	61.4
179.636	-109.25
180.019	34.02
180.402	55.17
180.785	-210.68
181.168	-217.49
181.55	-227.08
181.933	13
182.316	102.73
182.698	102.49
183.081	74.29
183.463	77.45
183.846	98.3
184.228	107.47
184.611	54.38
184.993	127.75
185.376	55.93
185.758	88.63
186.14	26.66
186.522	24
186.904	4.8
187.287	42.83
187.669	-1.05
188.051	-0.29
188.433	-9.49
188.815	-9.46
189.197	54.95
189.579	65.87
189.961	128.6
190.342	63.38
190.724	15.1
191.106	-2.51
191.488	-1.55
191.869	-19.06
192.251	-21.66
192.633	-3.21
193.014	-11.92
193.396	63.76
193.777	86.53
194.159	124.43
194.54	432.16
194.922	2427.87
195.303	275.23
195.684	962.39
196.065	-137.46
196.447	-74.98
196.828	-337.3
197.209	-233.94
197.59	-69.1
197.971	-36.56
198.352	-20.35
198.733	-53.13
199.114	-45.57
199.495	-37.23
199.876	-42.53
200.257	-51.22
200.638	-33.14
201.018	-53.4
201.399	-45.15
201.78	-42.27
202.16	-152.95
202.541	-216.76
202.922	-226.87
203.302	-237.59
203.683	-240.99
204.063	-733.01
204.444	-1120.16
204.824	-373.14
205.204	-261.83
205.585	-287.21
205.965	-318.43
206.345	-452.22
206.725	-761.86
207.106	-2536.87
207.486	713.38
207.866	-17030.43
208.246	-474.26
208.626	-514.01
209.006	-231.55
209.386	-223.14
209.766	-174.54
210.145	-155.99
210.525	-90.26
210.905	-59.37
211.285	-21.74
211.664	-26.52
212.044	-19.28
212.424	-14.01
212.803	-32.85
213.183	-42.82
213.562	-47.36
213.942	-37.29
214.321	-34.61
214.701	-27.89
215.08	-24.11
215.459	-23.09
215.838	-39.36
216.218	-53.07
216.597	-42.02
216.976	-67.51
217.355	-43.77
217.734	-46.59
218.113	-35.96
218.492	-39.93
218.871	-50.89
219.25	-45.28
219.629	-55.37
220.008	-57.75
220.387	-69.39
220.766	-62.42
221.144	-77.56
221.523	-99.19
221.902	-93.36
222.28	-65.1
222.659	-81.57
223.037	-70.03
223.416	-63.88
223.794	-58.88
224.173	-38.96
224.551	-40.4
224.929	-27.71
225.308	-29.16
225.686	-16.66
226.064	-16
226.442	-4.39
226.821	-1.35
227.199	-8.37
227.577	-6.13
227.955	-4.76
228.333	-1.79
228.711	-0.93
229.089	0.39
229.467	-0.61
229.845	-1.16
230.222	-2.63
230.6	-2.37
230.978	-1.56
231.356	0.1
231.733	-0.79
232.111	1.37
232.488	2.08
232.866	2.64
233.243	2.15
233.621	1.74
233.998	1.97
234.376	0.59
234.753	0.23
235.13	2.21
235.508	3.29
235.885	4.16
236.262	3.86
236.639	3.78
237.016	4.28
237.393	4.94
237.77	4.77
238.147	5.01
238.524	4.95
238.901	4.69
239.278	4.04
239.655	5.15
240.032	4.63
240.409	4.19
240.785	3.84
241.162	3.78
241.539	3.85
241.915	3.86
242.292	3.5
242.668	3.67
243.045	3.44
243.421	3.37
243.798	3.28
244.174	3.42
244.551	3.19
244.927	2.95
245.303	3.04
245.679	3.02
246.056	3.01
246.432	2.95
246.808	2.96
247.184	2.91
247.56	2.68
247.936	2.46
248.312	2.57
248.688	2.68
249.064	2.71
249.44	2.63
249.815	2.53
250.191	2.72
250.567	2.82
250.943	2.88
251.318	2.74
251.694	2.57
252.069	2.38
252.445	2.54
252.82	2.56
253.196	2.37
253.571	2.29
253.947	2.34
254.322	2.57
254.697	2.57
255.073	2.41
255.448	2.37
255.823	2.53
256.198	2.57
256.573	2.65
256.948	2.62
257.323	2.68
257.698	2.94
258.073	2.71
258.448	2.6
258.823	2.5
259.198	2.49
259.573	2.5
259.948	2.54
260.322	2.51
260.697	2.67
261.072	2.71
261.446	2.78
261.821	2.75
262.195	2.72
262.57	2.58
262.944	2.52
263.319	2.54
263.693	2.46
264.067	2.59
264.442	2.54
264.816	2.53
265.19	2.29
265.564	2.23
265.938	2.27
266.313	2.18
266.687	2.14
267.061	2.24
267.435	2.29
267.809	2.24
268.183	2.23
268.556	2.02
268.93	2.04
269.304	2.12
269.678	2.21
270.051	2.12
270.425	2.3
270.799	2.35
271.172	2.37
271.546	2.44
271.919	2.19
272.293	2.07
272.666	2.17
273.04	2.38
273.413	2.21
273.787	2.26
274.16	2.33
274.533	2.38
274.906	2.27
275.279	2.27
275.653	2.42
276.026	2.35
276.399	2.37
276.772	2.4
277.145	2.27
277.518	2.24
277.891	2.36
278.263	2.15
278.636	2.12
279.009	2.19
279.382	2.21
279.755	2.34
280.127	2.59
280.5	2.72
280.872	2.63
281.245	2.62
281.617	2.79
281.99	2.74
282.362	2.92
282.735	2.85
283.107	2.72
283.479	2.67
283.852	2.69
284.224	2.79
284.596	2.8
284.968	2.9
285.34	2.83
285.713	2.77
286.085	2.88
286.457	2.97
286.829	2.93
287.201	2.93
287.572	2.79
287.944	2.61
288.316	2.56
288.688	2.7
289.06	2.73
289.431	2.59
289.803	2.54
290.175	2.46
290.546	2.53
290.918	2.65
291.289	2.62
291.661	2.64
292.032	2.59
292.403	2.61
292.775	2.62
293.146	2.64
293.517	2.62
293.889	2.67
294.26	2.67
294.631	2.68
295.002	2.61
295.373	2.78
295.744	2.93
296.115	2.87
296.486	2.67
296.857	2.72
297.228	2.79
297.599	2.72
297.97	2.7
298.34	2.73
298.711	2.79
299.082	2.74
299.452	2.74
299.823	2.84
300.194	2.81
300.564	2.76
300.935	2.76
301.305	2.75
301.676	2.8
302.046	2.83
302.416	2.91
302.787	3.02
303.157	2.93
303.527	2.84
303.897	2.83
304.267	2.85
304.637	2.92
305.008	2.91
305.378	3.23
305.748	3.34
306.117	3.38
306.487	3.46
306.857	3.58
307.227	3.65
307.597	3.57
307.967	3.6
308.336	3.68
308.706	3.67
309.076	3.61
309.445	3.41
309.815	3.42
310.184	3.34
310.554	3.43
310.923	3.52
311.293	3.65
311.662	3.66
312.031	3.81
312.401	3.77
312.77	3.84
313.139	3.73
313.508	3.69
313.877	3.71
314.246	3.77
314.616	3.76
314.985	3.72
315.353	3.63
315.722	3.7
316.091	3.49
316.46	3.58
316.829	3.72
317.198	3.9
317.567	3.89
317.935	3.91
318.304	3.87
318.672	3.82
319.041	3.69
319.41	3.87
319.778	3.7
320.147	3.64
320.515	3.51
320.883	3.41
321.252	3.48
321.62	3.43
321.988	3.3
322.357	3.2
322.725	3.31
323.093	3.41
323.461	3.43
323.829	3.65
324.197	3.59
324.565	3.6
324.933	3.57
325.301	3.69
325.669	3.66
326.037	3.59
326.405	3.71
326.772	3.9
327.14	3.81
327.508	3.96
327.875	3.93
328.243	3.97
328.61	3.98
328.978	3.87
329.346	3.92
329.713	3.89
330.08	4.11
330.448	4.06
330.815	4.01
331.182	3.94
331.55	3.99
331.917	3.94
332.284	4.15
332.651	4.21
333.018	4.1
333.385	4.17
333.752	4.12
334.119	4.12
334.486	3.89
334.853	3.76
335.22	3.64
335.587	3.78
335.954	3.8
336.32	3.98
336.687	4
337.054	3.93
337.42	3.92
337.787	3.93
338.153	3.94
338.52	4.01
338.886	3.99
339.253	3.84
339.619	3.9
339.986	3.75
340.352	3.79
340.718	3.77
341.084	3.79
341.451	3.91
341.817	3.85
342.183	3.89
342.549	3.97
342.915	4.06
343.281	4.08
343.647	4.04
344.013	3.98
344.379	3.99
344.745	4.08
345.11	4.16
345.476	4.13
345.842	4.1
346.208	4.02
346.573	4.15
346.939	4.26
347.304	4.24
347.67	4.23
348.035	4.25
348.401	4.39
348.766	4.43
349.132	4.38
349.497	4.42
349.862	4.49
350.228	4.49
350.593	4.5
350.958	4.46
351.323	4.46
351.688	4.46
352.053	4.53
352.418	4.58
352.783	4.51
353.148	4.45
353.513	4.53
353.878	4.5
354.243	4.44
354.608	4.4
354.972	4.5
355.337	4.5
355.702	4.5
356.066	4.45
356.431	4.4
356.795	4.41
357.16	4.4
357.524	4.34
357.889	4.33
358.253	4.35
358.618	4.35
358.982	4.3
359.346	4.27
359.71	4.24
360.075	4.22
360.439	4.23
360.803	4.21
361.167	4.16
361.531	4.21
361.895	4.16
362.259	4.15
362.623	4.15
362.987	4.2
363.351	4.13
363.714	4.13
364.078	4.02
364.442	4
364.806	3.94
365.169	3.94
365.533	3.96
365.896	3.9
366.26	3.85
366.623	3.88
366.987	3.83
367.35	3.83
367.714	3.77
368.077	3.72
368.44	3.74
368.803	3.75
369.167	3.7
369.53	3.69
369.893	3.67
370.256	3.64
370.619	3.59
370.982	3.56
371.345	3.54
371.708	3.63
372.071	3.62
372.434	3.67
372.797	3.7
373.159	3.69
373.522	3.71
373.885	3.73
374.247	3.75
374.61	3.81
374.973	3.8
375.335	3.8
375.698	3.84
376.06	3.81
376.423	3.76
376.785	3.79
377.147	3.83
377.51	3.83
377.872	3.83
378.234	3.82
378.596	3.89
378.958	3.89
379.321	3.87
379.683	3.8
380.045	3.79
380.407	3.78
380.769	3.75
381.13	3.71
381.492	3.67
381.854	3.71
382.216	3.65
382.578	3.63
382.939	3.61
383.301	3.55
383.663	3.51
384.024	3.49
384.386	3.47
384.747	3.43
385.109	3.44
385.47	3.44
385.832	3.44
386.193	3.42
386.554	3.43
386.916	3.43
387.277	3.44
387.638	3.4
387.999	3.35
388.36	3.37
388.721	3.41
389.082	3.38
389.443	3.34
389.804	3.34
390.165	3.31
390.526	3.29
390.887	3.3
391.248	3.35
391.609	3.4
391.969	3.35
392.33	3.35
392.691	3.31
393.051	3.27
393.412	3.25
393.772	3.21
394.133	3.18
394.493	3.19
394.854	3.22
395.214	3.22
395.574	3.19
395.935	3.17
396.295	3.13
396.655	3.14
397.015	3.09
397.376	3.1
397.736	3.1
398.096	3.13
398.456	3.13
398.816	3.1
399.176	3.03
399.535	3.04
399.895	3.03
400.255	3.03
400.615	3.03
400.975	3.03
401.334	3
401.694	2.97
402.054	2.94
402.413	2.92
402.773	2.9
403.132	2.88
403.492	2.88
403.851	2.87
404.211	2.88
404.57	2.89
404.929	2.9
405.288	2.88
405.648	2.84
406.007	2.85
406.366	2.84
406.725	2.86
407.084	2.9
407.443	2.91
407.802	2.91
408.161	2.9
408.52	2.85
408.879	2.82
409.238	2.85
409.596	2.85
409.955	2.84
410.314	2.84
410.673	2.86
411.031	2.85
411.39	2.86
411.748	2.82
412.107	2.83
412.465	2.81
412.824	2.81
413.182	2.8
413.54	2.8
413.899	2.8
414.257	2.81
414.615	2.75
414.974	2.77
415.332	2.76
415.69	2.75
416.048	2.75
416.406	2.8
416.764	2.77
417.122	2.78
417.48	2.75
417.838	2.75
418.195	2.77
418.553	2.75
418.911	2.74
419.269	2.76
419.626	2.76
419.984	2.75
420.342	2.75
420.699	2.74
421.057	2.73
421.414	2.72
421.772	2.72
422.129	2.72
422.486	2.69
422.844	2.67
423.201	2.66
423.558	2.67
423.915	2.66
424.273	2.67
424.63	2.64
424.987	2.66
425.344	2.65
425.701	2.63
426.058	2.64
426.415	2.64
426.772	2.61
427.128	2.61
427.485	2.59
427.842	2.59
428.199	2.6
428.555	2.59
428.912	2.59
429.269	2.58
429.625	2.57
429.982	2.58
430.338	2.59
430.695	2.6
431.051	2.58
431.407	2.59
431.764	2.58
432.12	2.57
432.476	2.56
432.832	2.56
433.189	2.56
433.545	2.57
433.901	2.56
434.257	2.57
434.613	2.56
434.969	2.6
435.325	2.62
435.681	2.61
436.036	2.6
436.392	2.6
436.748	2.6
437.104	2.6
437.459	2.59
437.815	2.6
438.171	2.59
438.526	2.6
438.882	2.59
439.237	2.58
439.593	2.62
439.948	2.62
440.304	2.6
440.659	2.6
441.014	2.6
441.369	2.61
441.725	2.62
442.08	2.62
442.435	2.58
442.79	2.57
443.145	2.56
443.5	2.55
443.855	2.55
444.21	2.54
444.565	2.55
444.92	2.56
445.275	2.57
445.629	2.57
445.984	2.58
446.339	2.56
446.693	2.55
447.048	2.53
447.403	2.52
447.757	2.54
448.112	2.53
448.466	2.53
448.82	2.52
449.175	2.52
449.529	2.52
449.883	2.52
450.238	2.5
450.592	2.52
450.946	2.51
451.3	2.51
451.654	2.52
452.008	2.53
452.362	2.52
452.716	2.52
453.07	2.51
453.424	2.51
453.778	2.53
454.132	2.53
454.486	2.53
454.839	2.52
455.193	2.5
455.547	2.5
455.9	2.51
456.254	2.5
456.607	2.5
456.961	2.49
457.314	2.49
457.668	2.52
458.021	2.49
458.375	2.5
458.728	2.5
459.081	2.5
459.434	2.47
459.787	2.48
460.141	2.47
460.494	2.49
460.847	2.49
461.2	2.48
461.553	2.49
461.906	2.5
462.259	2.5
462.611	2.53
462.964	2.53
463.317	2.52
463.67	2.52
464.022	2.51
464.375	2.51
464.728	2.52
465.08	2.51
465.433	2.53
465.785	2.55
466.138	2.55
466.49	2.53
466.843	2.54
467.195	2.53
467.547	2.53
467.899	2.54
468.252	2.53
468.604	2.55
468.956	2.54
469.308	2.54
469.66	2.54
470.012	2.52
470.364	2.52
470.716	2.53
471.068	2.53
471.42	2.52
471.772	2.55
472.123	2.56
472.475	2.56
472.827	2.56
473.178	2.55
473.53	2.53
473.882	2.54
474.233	2.54
474.585	2.53
474.936	2.53
475.288	2.52
475.639	2.52
475.99	2.52
476.342	2.53
476.693	2.53
477.044	2.53
477.395	2.53
477.746	2.54
478.097	2.53
478.448	2.53
478.8	2.55
479.15	2.53
479.501	2.51
479.852	2.51
480.203	2.51
480.554	2.53
480.905	2.55
481.255	2.56
481.606	2.56
481.957	2.58
482.307	2.58
482.658	2.57
483.009	2.57
483.359	2.57
483.709	2.57
484.06	2.57
484.41	2.58
484.761	2.59
485.111	2.59
485.461	2.59
485.811	2.59
486.162	2.6
486.512	2.61
486.862	2.63
487.212	2.63
487.562	2.64
487.912	2.63
488.262	2.63
488.612	2.63
488.961	2.63
489.311	2.64
489.661	2.64
490.011	2.64
490.36	2.65
490.71	2.65
491.06	2.65
491.409	2.67
491.759	2.65
492.108	2.65
492.458	2.65
492.807	2.65
493.157	2.65
493.506	2.66
493.855	2.66
494.204	2.65
494.554	2.66
494.903	2.65
495.252	2.66
495.601	2.68
495.95	2.67
496.299	2.67
496.648	2.65
496.997	2.66
497.346	2.68
497.695	2.69
498.043	2.7
498.392	2.7
498.741	2.69
499.09	2.69
499.438	2.7
499.787	2.71
500.135	2.73
500.484	2.75
500.832	2.75
501.181	2.74
501.529	2.77
501.878	2.8
502.226	2.82
502.574	2.83
502.923	2.82
503.271	2.85
503.619	2.88
503.967	2.91
504.315	2.91
504.663	2.91
505.011	2.92
505.359	2.95
505.707	2.99
506.055	3.01
506.403	3.04
506.751	3.07
507.098	3.1
507.446	3.1
507.794	3.1
508.141	3.13
508.489	3.16
508.837	3.18
509.184	3.18
509.531	3.22
509.879	3.26
510.226	3.31
510.574	3.33
510.921	3.34
511.268	3.37
511.616	3.4
511.963	3.44
512.31	3.46
512.657	3.49
513.004	3.51
513.351	3.54
513.698	3.58
514.045	3.59
514.392	3.61
514.739	3.67
515.086	3.73
515.432	3.75
515.779	3.77
516.126	3.8
516.473	3.85
516.819	3.88
517.166	3.9
517.512	3.92
517.859	3.96
518.205	4
518.552	4.05
518.898	4.09
519.245	4.13
519.591	4.17
519.937	4.21
520.283	4.26
520.629	4.31
520.976	4.38
521.322	4.45
521.668	4.52
522.014	4.56
522.36	4.62
522.706	4.68
523.052	4.77
523.398	4.86
523.743	4.96
524.089	5.06
524.435	5.15
524.781	5.24
525.126	5.34
525.472	5.42
525.817	5.48
526.163	5.55
526.509	5.63
526.854	5.69
527.199	5.75
527.545	5.81
527.89	5.88
528.235	5.95
528.581	6.04
528.926	6.11
529.271	6.19
529.616	6.28
529.961	6.38
530.306	6.46
530.651	6.55
530.996	6.63
531.341	6.73
531.686	6.84
532.031	6.96
532.376	7.07
532.721	7.19
533.065	7.33
533.41	7.47
533.755	7.61
534.099	7.77
534.444	7.94
534.788	8.1
535.133	8.24
535.477	8.39
535.822	8.55
536.166	8.73
536.51	8.95
536.855	9.16
537.199	9.38
537.543	9.62
537.887	9.85
538.231	10.08
538.576	10.31
538.92	10.52
539.264	10.75
539.608	10.95
539.951	11.15
540.295	11.33
540.639	11.54
540.983	11.72
541.327	11.89
541.671	12.06
542.014	12.25
542.358	12.44
542.701	12.64
543.045	12.84
543.389	13.03
543.732	13.21
544.075	13.4
544.419	13.58
544.762	13.77
545.105	13.97
545.449	14.23
545.792	14.46
546.135	14.71
546.478	14.97
546.821	15.25
547.165	15.52
547.508	15.84
547.851	16.07
548.194	16.35
548.536	16.64
548.879	16.97
549.222	17.27
549.565	17.56
549.908	17.84
550.25	18.11
550.593	18.41
550.936	18.7
551.278	19
551.621	19.3
551.963	19.65
552.306	19.97
552.648	20.25
552.991	20.56
553.333	20.87
553.675	21.16
554.017	21.44
554.36	21.73
554.702	21.95
555.044	22.26
555.386	22.55
555.728	22.82
556.07	23.07
556.412	23.32
556.754	23.57
557.096	23.82
557.438	24.12
557.78	24.41
558.121	24.72
558.463	25
558.805	25.29
559.147	25.56
559.488	25.81
559.83	26.04
560.171	26.26
560.513	26.5
560.854	26.72
561.196	26.94
561.537	27.22
561.878	27.44
562.22	27.68
562.561	27.94
562.902	28.17
563.243	28.36
563.584	28.61
563.925	28.89
564.266	29.12
564.607	29.31
564.948	29.51
565.289	29.72
565.63	29.91
565.971	30.14
566.312	30.34
566.653	30.47
566.993	30.69
567.334	30.87
567.675	31.09
568.015	31.28
568.356	31.48
568.696	31.61
569.037	31.83
569.377	31.99
569.718	32.18
570.058	32.37
570.398	32.6
570.739	32.78
571.079	32.93
571.419	33.12
571.759	33.29
572.099	33.43
572.439	33.55
572.779	33.71
573.119	33.86
573.459	33.99
573.799	34.22
574.139	34.35
574.479	34.5
574.819	34.66
575.158	34.8
575.498	34.92
575.838	35.11
576.177	35.26
576.517	35.46
576.856	35.6
577.196	35.73
577.535	35.8
577.875	35.95
578.214	36.05
578.553	36.22
578.893	36.39
579.232	36.58
579.571	36.76
579.91	36.89
580.25	37.02
580.589	37.15
580.928	37.34
581.267	37.53
581.606	37.67
581.945	37.72
582.283	37.88
582.622	38.01
582.961	38.16
583.3	38.32
583.639	38.39
583.977	38.42
584.316	38.56
584.654	38.73
584.993	38.87
585.332	39.09
585.67	39.17
586.008	39.18
586.347	39.26
586.685	39.37
587.024	39.47
587.362	39.57
587.7	39.66
588.038	39.68
588.376	39.72
588.715	39.84
589.053	39.96
589.391	40.06
589.729	40.17
590.067	40.19
590.404	40.25
590.742	40.38
591.08	40.5
591.418	40.59
591.756	40.73
592.093	40.75
592.431	40.77
592.769	40.86
593.106	40.99
593.444	41.05
593.781	41.1
594.119	41.24
594.456	41.25
594.793	41.3
595.131	41.36
595.468	41.41
595.805	41.47
596.143	41.54
596.48	41.58
596.817	41.67
597.154	41.73
597.491	41.8
597.828	41.83
598.165	41.9
598.502	41.93
598.839	41.95
599.176	41.98
599.512	42.12
599.849	42.15
600.186	42.22
600.523	42.28
600.859	42.4
601.196	42.42
601.532	42.55
601.869	42.62
602.205	42.67
602.542	42.67
602.878	42.69
603.215	42.77
603.551	42.89
603.887	42.89
604.223	42.92
604.56	42.99
604.896	43.04
605.232	43.09
605.568	43.19
605.904	43.22
606.24	43.32
606.576	43.31
606.912	43.36
607.248	43.43
607.583	43.58
607.919	43.59
608.255	43.61
608.591	43.62
608.926	43.75
609.262	43.82
609.597	43.94
609.933	43.97
610.268	44.03
610.604	44.05
610.939	44.21
611.275	44.25
611.61	44.3
611.945	44.32
612.281	44.31
612.616	44.38
612.951	44.52
613.286	44.58
613.621	44.64
613.956	44.69
614.291	44.81
614.626	44.78
614.961	44.84
615.296	44.92
615.631	45.01
615.966	44.97
616.3	45.09
616.635	45.23
616.97	45.3
617.304	45.33
617.639	45.36
617.973	45.25
618.308	45.36
618.642	45.38
618.977	45.46
619.311	45.59
619.646	45.61
619.98	45.55
620.314	45.6
620.648	45.59
620.983	45.65
621.317	45.61
621.651	45.64
621.985	45.66
622.319	45.81
622.653	45.86
622.987	45.92
623.321	45.93
623.655	45.88
623.988	45.93
624.322	45.95
624.656	46.04
624.99	46.08
625.323	46.09
625.657	46.17
625.99	46.19
626.324	46.24
626.657	46.27
626.991	46.35
627.324	46.37
627.658	46.41
627.991	46.53
628.324	46.55
628.657	46.6
628.991	46.62
629.324	46.52
629.657	46.55
629.99	46.59
630.323	46.59
630.656	46.65
630.989	46.69
631.322	46.72
631.655	46.69
631.987	46.75
632.32	46.79
632.653	46.79
632.986	46.87
633.318	46.85
633.651	46.8
633.984	46.84
634.316	46.86
634.649	46.95
634.981	46.95
635.313	46.97
635.646	46.97
635.978	46.97
636.31	47.09
636.643	47.14
636.975	47.16
637.307	47.17
637.639	47.19
637.971	47.31
638.303	47.32
638.635	47.28
638.967	47.35
639.299	47.48
639.631	47.48
639.963	47.44
640.295	47.58
640.626	47.65
640.958	47.72
641.29	47.77
641.621	47.76
641.953	47.68
642.285	47.82
642.616	47.8
642.948	47.82
643.279	47.81
643.61	47.84
643.942	47.8
644.273	47.77
644.604	47.74
644.936	47.62
645.267	47.74
645.598	47.9
645.929	47.88
646.26	47.83
646.591	47.82
646.922	47.89
647.253	47.9
647.584	47.85
647.915	47.76
648.245	47.76
648.576	47.81
648.907	47.92
649.238	47.81
649.568	47.77
649.899	48
650.229	48.12
650.56	48.12
650.89	48.19
651.221	48.38
651.551	48.47
651.882	48.58
652.212	48.56
652.542	48.51
652.872	48.54
653.203	48.53
653.533	48.68
653.863	48.71
654.193	48.67
654.523	48.74
654.853	48.84
655.183	48.83
655.513	48.79
655.843	48.91
656.172	48.97
656.502	49.15
656.832	49.07
657.162	49.03
657.491	49.02
657.821	49.06
658.15	48.92
658.48	49
658.809	48.9
659.139	48.96
659.468	48.91
659.798	48.99
660.127	49.04
660.456	48.99
660.785	49.01
661.115	49.06
661.444	49.07
661.773	49.04
662.102	49.05
662.431	49.07
662.76	48.99
663.089	48.96
663.418	48.94
663.747	48.87
664.076	48.73
664.404	48.66
664.733	48.63
665.062	48.76
665.39	48.79
665.719	48.89
666.048	48.73
666.376	48.82
666.705	48.75
667.033	48.73
667.362	48.74
667.69	48.75
668.018	48.73
668.347	48.73
668.675	48.8
669.003	48.96
669.331	49.1
669.659	49.11
669.987	49.17
670.315	49.18
670.643	49.18
670.971	49.32
671.299	49.46
671.627	49.47
671.955	49.44
672.283	49.3
672.61	49.32
672.938	49.45
673.266	49.46
673.593	49.63
673.921	49.77
674.249	49.82
674.576	49.85
674.904	49.83
675.231	49.86
675.558	49.88
675.886	49.78
676.213	49.75
676.54	49.88
676.867	49.95
677.195	49.94
677.522	50.08
677.849	50.19
678.176	50.21
678.503	50.21
678.83	50.32
679.157	50.47
679.484	50.49
679.81	50.52
680.137	50.59
680.464	50.53
680.791	50.44
681.117	50.43
681.444	50.34
681.771	50.41
682.097	50.38
682.424	50.31
682.75	50.28
683.077	50.23
683.403	50.16
683.729	50.06
684.056	50.16
684.382	50.19
684.708	50.23
685.034	50.12
685.36	50.12
685.686	50.12
686.012	50.05
686.339	50.19
686.664	50.18
686.99	50.16
687.316	50.09
687.642	50.09
687.968	50.13
688.294	50.19
688.619	50.28
688.945	50.42
689.271	50.42
689.596	50.49
689.922	50.48
690.247	50.5
690.573	50.74
690.898	50.65
691.224	50.64
691.549	50.51
691.874	50.62
692.2	50.66
692.525	50.62
692.85	50.51
693.175	50.36
693.5	50.42
693.825	50.42
694.15	50.55
694.475	50.41
694.8	50.44
695.125	50.47
695.45	50.42
695.775	50.5
696.099	50.55
696.424	50.59
696.749	50.59
697.073	50.53
697.398	50.33
697.723	50.29
698.047	50.23
698.372	50.22
698.696	50.21
699.02	50.26
699.345	50.23
699.669	50.46
699.993	50.5
700.318	50.58
700.642	50.5
700.966	50.43
701.29	50.54
701.614	50.49
701.938	50.49
702.262	50.38
702.586	50.26
702.91	50.2
703.234	50.17
703.557	50.28
703.881	50.31
704.205	50.34
704.529	50.46
704.852	50.48
705.176	50.63
705.499	50.68
705.823	50.73
706.146	50.69
706.47	50.43
706.793	50.5
707.117	50.34
707.44	50.43
707.763	50.52
708.086	50.52
708.409	50.63
708.733	50.58
709.056	50.65
709.379	50.75
709.702	50.85
710.025	50.89
710.348	50.72
710.671	50.68
710.993	50.82
711.316	50.82
711.639	50.81
711.962	50.82
712.284	50.78
712.607	50.65
712.93	50.83
713.252	50.84
713.575	50.83
713.897	50.92
714.22	50.89
714.542	50.63
714.864	50.71
715.187	50.71
715.509	50.94
715.831	50.9
716.153	50.82
716.475	50.75
716.798	50.72
717.12	50.92
717.442	50.96
717.764	50.92
718.085	50.61
718.407	50.69
718.729	50.65
719.051	50.89
719.373	51.03
719.695	51
720.016	51.15
720.338	51.18
720.659	51.15
720.981	51.25
721.302	51.6
721.624	51.56
721.945	51.57
722.267	51.25
722.588	51.45
722.909	51.68
723.231	51.69
723.552	51.7
723.873	51.54
724.194	51.55
724.515	51.64
724.836	52.14
725.157	52.14
725.478	52.19
725.799	51.97
726.12	52.07
726.441	51.98
726.762	51.76
727.083	51.59
727.403	51.59
727.724	51.57
728.045	51.55
728.365	51.66
728.686	51.59
729.006	51.62
729.327	51.45
729.647	51.29
729.967	51.35
730.288	51.49
730.608	51.64
730.928	51.59
731.249	51.51
731.569	51.46
731.889	51.33
732.209	51.26
732.529	51.26
732.849	50.93
733.169	50.91
733.489	51.06
733.809	51.12
734.129	51.22
734.448	51.21
734.768	51.28
735.088	51.08
735.408	51.3
735.727	51.62
736.047	51.66
736.366	51.76
736.686	51.8
737.005	51.79
737.325	51.74
737.644	51.96
737.963	52.01
738.283	52.02
738.602	52.22
738.921	51.92
739.24	52.27
739.56	52.44
739.879	52.38
740.198	52.3
740.517	52.15
740.836	52
741.155	51.86
741.473	51.85
741.792	52.17
742.111	51.79
742.43	51.68
742.748	51.89
743.067	51.96
743.386	52.08
743.704	52.02
744.023	52.09
744.341	51.99
744.66	51.96
744.978	51.99
745.297	51.99
745.615	52.08
745.933	52
746.252	52.28
746.57	52.43
746.888	52.73
747.206	52.88
747.524	52.86
747.842	52.98
748.16	52.96
748.478	52.87
748.796	53.19
749.114	53.1
749.432	53.01
749.749	53.12
750.067	52.79
750.385	52.99
750.703	52.9
751.02	52.8
751.338	52.73
751.655	52.71
751.973	52.74
752.29	53.3
752.608	53.05
752.925	53
753.242	52.79
753.56	52.55
753.877	52.46
754.194	52.64
754.511	52.84
754.828	52.94
755.145	52.96
755.462	52.69
755.779	52.37
756.096	52.56
756.413	52.56
756.73	52.65
757.047	52.48
757.364	52.55
757.68	52.53
757.997	52.51
758.314	52.46
758.63	52.68
758.947	52.3
759.264	52.33
759.58	52.34
759.896	52.83
760.213	53.11
760.529	53.14
760.846	52.94
761.162	52.61
761.478	52.28
761.794	51.91
762.11	52.03
762.426	52.21
762.743	51.88
763.059	51.92
763.375	52.01
763.69	51.97
764.006	51.93
764.322	52.15
764.638	52.3
764.954	52.29
765.27	52.13
765.585	52.12
765.901	52.27
766.216	52.11
766.532	51.93
766.848	51.87
767.163	51.85
767.478	51.92
767.794	52.17
768.109	52.32
768.424	52.73
768.74	52.8
769.055	52.96
769.37	53.04
769.685	52.54
770	52.83
770.315	52.86
770.63	52.86
770.945	52.43
771.26	52.14
771.575	52.08
771.89	52.16
772.205	52.31
772.52	52.02
772.834	52
773.149	51.63
773.464	51.51
773.778	51.89
774.093	52.07
774.407	52.19
774.722	52.37
775.036	52.3
775.351	52.4
775.665	52.11
775.979	52.35
776.293	53.01
776.608	52.88
776.922	53.11
777.236	52.96
777.55	53.36
777.864	54.17
778.178	54.53
778.492	54.48
778.806	54.45
779.12	54.69
779.434	54.81
779.747	55.06
780.061	55.01
780.375	54.75
780.689	54.98
781.002	55.18
781.316	55.23
781.629	55.45
781.943	55.38
782.256	56.15
782.57	56.1
782.883	55.87
783.196	55.45
783.51	55.33
783.823	55.49
784.136	55.29
784.449	54.86
784.762	54.89
785.075	55.19
785.388	55.23
785.701	54.89
786.014	54.61
786.327	54.92
786.64	55.13
786.953	55.49
787.266	55.04
787.578	54.74
787.891	54.71
788.204	54.75
788.516	54.81
788.829	54.37
789.141	54.13
789.454	54.27
789.766	54.82
790.079	54.91
790.391	55.42
790.703	55.76
791.016	55.8
791.328	55.55
791.64	55.15
791.952	54.95
792.264	54.88
792.576	55.33
792.888	54.83
793.2	54.87
793.512	54.6
793.824	54.98
794.136	54.66
794.448	54.43
794.76	53.88
795.071	53.3
795.383	53.06
795.695	52.91
796.006	52.8
796.318	52.57
796.629	51.99
796.941	51.35
797.252	51.49
797.564	51.82
797.875	51.54
798.186	51.41
798.497	51.45
798.809	51.94
799.12	51.81
799.431	52.41
799.742	52.26
800.053	52.71
800.364	52.17
800.675	52.54
800.986	52.54
801.297	52.63
801.608	53
801.918	53.13
802.229	53.69
802.54	53.5
802.851	53.36
803.161	53.91
803.472	53.95
803.782	54.15
804.093	53.52
804.403	54.03
804.714	54.11
805.024	54.35
805.334	53.72
805.645	54.51
805.955	54.34
806.265	54.09
806.575	53.22
806.885	52.85
807.195	52.59
807.505	52.41
807.815	52.44
808.125	52.42
808.435	52.68
808.745	52.94
809.055	52.69
809.365	53.3
809.674	53.42
809.984	53.93
810.294	53.18
810.603	53.02
810.913	52.9
811.222	53.55
811.532	53.76
811.841	54.43
812.151	53.87
812.46	53.81
812.769	53.41
813.079	53.94
813.388	54.35
813.697	54.79
814.006	55.26
814.315	55.26
814.624	55.52
814.933	55.38
815.242	54.83
815.551	55.37
815.86	54.92
816.169	53.84
816.478	53.61
816.786	53.85
817.095	54.41
817.404	54.37
817.712	53.65
818.021	53.75
818.33	53.37
818.638	53.37
818.947	53.03
819.255	53
819.563	53.4
819.872	53.12
820.18	53.13
820.488	52.9
820.796	52.91
821.105	52.74
821.413	52.79
821.721	52.76
822.029	52.88
822.337	53.11
822.645	53.32
822.953	53.29
823.26	53.25
823.568	53.36
823.876	53.45
824.184	53.5
824.491	53.26
824.799	53.27
825.107	53.29
825.414	53.46
825.722	53.64
826.029	53.36
826.337	53.5
826.644	53.37
826.951	53.42
827.259	53.36
827.566	53.64
827.873	53.53
828.18	53.92
828.488	53.69
828.795	53.38
829.102	53.45
829.409	53.57
829.716	53.4
830.023	53.4
830.329	53.37
830.636	53.33
830.943	53.71
831.25	54.1
831.557	54.21
831.863	54.22
832.17	54.03
832.476	54.42
832.783	54.42
833.089	54.35
833.396	54.19
833.702	54.73
834.009	54.85
834.315	55.16
834.621	54.62
834.928	55.01
835.234	55.1
835.54	55.27
835.846	55.15
836.152	55.36
836.458	54.83
836.764	54.71
837.07	54.86
837.376	54.19
837.682	53.67
837.988	53.61
838.293	53.6
838.599	53.81
838.905	53.66
839.211	54.25
839.516	54.36
839.822	54.84
840.127	54.65
840.433	54.35
840.738	54.56
841.044	54.31
841.349	54.23
841.654	54.52
841.959	53.66
842.265	53.62
842.57	54.05
842.875	54.83
843.18	55.76
843.485	55.53
843.79	56.76
844.095	55.57
844.4	56.07
844.705	55.11
845.01	55.71
845.315	56.01
845.619	55.21
845.924	55.19
846.229	54.37
846.533	54.63
846.838	54.79
847.142	52.46
847.447	53.4
847.751	53.44
848.056	52.88
848.36	55.42
848.664	55.41
848.969	55.1
849.273	53.57
849.577	49.61
849.881	48.9
850.185	51.04
850.489	54.01
850.794	52.64
851.097	53.18
851.401	52.57
851.705	52.36
852.009	53.03
852.313	55.11
852.617	56.12
852.92	55.95
853.224	53.53
853.528	57.87
853.831	56.17
854.135	57.17
854.438	55.24
854.742	52.51
855.045	51.05
855.349	51.6
855.652	52.86
855.955	54.95
856.259	57.01
856.562	54.72
856.865	55.09
857.168	54.85
857.471	56.62
857.774	56.95
858.077	57.54
858.38	56.8
858.683	57
858.986	57.83
859.289	55.65
859.592	57.97
859.894	56.81
860.197	58.79
860.5	59.13
860.802	59.92
861.105	61.36
861.407	60.64
861.71	59.05
862.012	57.15
862.315	58.05
862.617	56.3
862.919	57.69
863.222	57.67
863.524	58.22
863.826	57.56
864.128	58.8
864.43	59.54
864.732	60.94
865.034	59.85
865.336	56.89
865.638	58.25
865.94	57.54
866.242	56.07
866.544	54.8
866.846	51.93
867.147	53.89
867.449	54.87
867.751	57.34
868.052	59.49
868.354	59.13
868.655	58.8
868.957	57.22
869.258	56.45
869.56	58.01
869.861	59.07
870.162	58.3
870.463	57.19
870.765	57.24
871.066	55.29
871.367	57.81
871.668	60.91
871.969	62.87
872.27	62.35
872.571	62.32
872.872	62.48
873.173	61
873.473	60.25
873.774	56.47
874.075	55.03
874.376	51.76
874.676	52.92
874.977	52.05
875.277	56.44
875.578	55.4
875.878	53.22
876.179	51.18
876.479	51.45
876.78	50.37
877.08	47.98
877.38	49.05
877.68	45.59
877.981	44.19
878.281	41.87
878.581	40.87
