Data from BA56814_Reflection_00002.txt Node
Date: Mon Nov 18 15:40:18 EST 2019
User: vgr7
Spectrometer: USB2G7710
Scans to average: 3
Trigger mode: 4
Integration Time (sec): 2.000000E-2
Electric dark correction enabled: true
Boxcar width: 10
XAxis mode: Wavelengths
Number of Pixels in Spectrum: 2048
>>>>>Begin Spectral Data<<<<<
177.721	-390.93
178.105	-176.14
178.488	-141.36
178.871	-97.79
179.254	-93
179.636	-166.52
180.019	-38.45
180.402	31.03
180.785	1459.22
181.168	143.73
181.55	89.28
181.933	113.79
182.316	146.42
182.698	149.72
183.081	85.6
183.463	153.77
183.846	152.68
184.228	146.3
184.611	123.34
184.993	238.75
185.376	109.07
185.758	116.25
186.14	63.33
186.522	94.79
186.904	92.82
187.287	103.57
187.669	154.41
188.051	128.18
188.433	185.03
188.815	195.39
189.197	265.73
189.579	224.23
189.961	227.84
190.342	189.78
190.724	126.87
191.106	144.08
191.488	100.84
191.869	121.12
192.251	112.4
192.633	125.19
193.014	126.69
193.396	216.89
193.777	361.79
194.159	570.23
194.54	1209.54
194.922	5247.54
195.303	976.13
195.684	3090.83
196.065	-245.96
196.447	-156.75
196.828	-871.06
197.209	-350.09
197.59	-159.8
197.971	-133.23
198.352	-80.06
198.733	-89.66
199.114	-66.37
199.495	-58.78
199.876	-59.53
200.257	-37.3
200.638	-16.93
201.018	-5.95
201.399	-11.16
201.78	-16.62
202.16	-43.15
202.541	-98.82
202.922	-129.15
203.302	-111.16
203.683	-101.63
204.063	-540.47
204.444	-939.79
204.824	-212.91
205.204	-210.37
205.585	-223.25
205.965	-178.34
206.345	-219.33
206.725	-300
207.106	-1117.88
207.486	318.6
207.866	-8595.65
208.246	-242.29
208.626	-350.07
209.006	-293.58
209.386	-231.88
209.766	-193.75
210.145	-218.74
210.525	-132.79
210.905	-105.44
211.285	-115.86
211.664	-67.03
212.044	-43.69
212.424	-26.38
212.803	-55.6
213.183	-48.08
213.562	-55.19
213.942	-58.23
214.321	-60
214.701	-56.56
215.08	-52.22
215.459	-43.1
215.838	-46.24
216.218	-63.98
216.597	-38.22
216.976	-38.11
217.355	-34.67
217.734	-16.61
218.113	-20.59
218.492	-25.65
218.871	-28.88
219.25	-28.95
219.629	-30.81
220.008	-32.59
220.387	-38.15
220.766	-29.25
221.144	-51.7
221.523	-52.32
221.902	-67.96
222.28	-60.55
222.659	-70.52
223.037	-65.4
223.416	-63.25
223.794	-53.29
224.173	-45.6
224.551	-49.1
224.929	-30.68
225.308	-18.53
225.686	-21.92
226.064	-12.28
226.442	-6.49
226.821	-3.6
227.199	-1.11
227.577	-6.4
227.955	-6.47
228.333	-7.34
228.711	-4.13
229.089	1.57
229.467	-0.27
229.845	0.37
230.222	-0.69
230.6	-1.41
230.978	-1.07
231.356	-0.23
231.733	-1.48
232.111	-0.39
232.488	-0.48
232.866	-0.16
233.243	-0.56
233.621	0.01
233.998	-0.15
234.376	-0.29
234.753	-0.33
235.13	-1.04
235.508	1.15
235.885	1.65
236.262	1.7
236.639	1.06
237.016	0.24
237.393	2.13
237.77	2.9
238.147	3.88
238.524	4.01
238.901	4.32
239.278	4.21
239.655	4.64
240.032	4.78
240.409	4.38
240.785	4.4
241.162	4.06
241.539	4.11
241.915	3.7
242.292	3.13
242.668	2.98
243.045	3.23
243.421	3.01
243.798	2.77
244.174	2.74
244.551	2.56
244.927	2.75
245.303	2.6
245.679	2.69
246.056	2.85
246.432	2.74
246.808	2.55
247.184	2.36
247.56	2.26
247.936	2.27
248.312	2.3
248.688	2.09
249.064	2.12
249.44	2.13
249.815	2.32
250.191	2.65
250.567	2.79
250.943	2.73
251.318	2.77
251.694	2.87
252.069	2.95
252.445	3.11
252.82	2.87
253.196	3.19
253.571	3.03
253.947	2.92
254.322	3.42
254.697	3.42
255.073	3.54
255.448	3.51
255.823	3.45
256.198	3.7
256.573	3.86
256.948	3.96
257.323	3.86
257.698	3.9
258.073	3.85
258.448	3.86
258.823	3.87
259.198	3.78
259.573	3.74
259.948	3.68
260.322	3.64
260.697	3.52
261.072	3.29
261.446	3.32
261.821	3.24
262.195	3.2
262.57	3.23
262.944	3.13
263.319	3.16
263.693	3.05
264.067	3
264.442	3.13
264.816	3.07
265.19	2.96
265.564	2.8
265.938	2.56
266.313	2.55
266.687	2.49
267.061	2.6
267.435	2.72
267.809	2.67
268.183	2.7
268.556	2.86
268.93	2.97
269.304	3.03
269.678	3.16
270.051	3.07
270.425	3.1
270.799	3.22
271.172	3.23
271.546	3.39
271.919	3.23
272.293	3.01
272.666	2.93
273.04	3
273.413	3.06
273.787	3.17
274.16	3.06
274.533	3.22
274.906	3.28
275.279	3.16
275.653	3.3
276.026	3.39
276.399	3.34
276.772	3.34
277.145	3.29
277.518	3.27
277.891	3.2
278.263	3.28
278.636	3.35
279.009	3.38
279.382	3.42
279.755	3.5
280.127	3.66
280.5	3.94
280.872	4.01
281.245	4.07
281.617	4.09
281.99	4.14
282.362	4.08
282.735	3.78
283.107	3.9
283.479	3.87
283.852	3.85
284.224	3.9
284.596	3.94
284.968	3.88
285.34	3.94
285.713	4.07
286.085	3.97
286.457	4.05
286.829	4.08
287.201	3.99
287.572	3.97
287.944	3.85
288.316	3.69
288.688	3.62
289.06	3.51
289.431	3.41
289.803	3.42
290.175	3.48
290.546	3.77
290.918	3.73
291.289	3.78
291.661	3.69
292.032	3.71
292.403	3.7
292.775	3.8
293.146	3.8
293.517	3.67
293.889	3.81
294.26	3.77
294.631	3.83
295.002	3.92
295.373	3.97
295.744	4.06
296.115	4.26
296.486	4.2
296.857	4.36
297.228	4.43
297.599	4.48
297.97	4.38
298.34	4.34
298.711	4.42
299.082	4.36
299.452	4.52
299.823	4.66
300.194	4.72
300.564	4.59
300.935	4.52
301.305	4.75
301.676	4.7
302.046	4.7
302.416	4.76
302.787	4.68
303.157	4.57
303.527	4.47
303.897	4.37
304.267	4.41
304.637	4.41
305.008	4.46
305.378	4.56
305.748	4.64
306.117	4.59
306.487	4.61
306.857	4.69
307.227	4.56
307.597	4.48
307.967	4.38
308.336	4.46
308.706	4.46
309.076	4.33
309.445	4.3
309.815	4.36
310.184	4.21
310.554	4.32
310.923	4.36
311.293	4.48
311.662	4.48
312.031	4.51
312.401	4.44
312.77	4.52
313.139	4.53
313.508	4.5
313.877	4.53
314.246	4.46
314.616	4.39
314.985	4.39
315.353	4.3
315.722	4.28
316.091	4.3
316.46	4.21
316.829	4.22
317.198	4.19
317.567	4.05
317.935	4.05
318.304	4.07
318.672	4.18
319.041	4.1
319.41	4.04
319.778	4.04
320.147	4.02
320.515	3.92
320.883	3.81
321.252	3.86
321.62	3.8
321.988	3.73
322.357	3.67
322.725	3.56
323.093	3.61
323.461	3.64
323.829	3.69
324.197	3.9
324.565	3.93
324.933	3.94
325.301	4.03
325.669	4.12
326.037	4.05
326.405	4
326.772	3.99
327.14	4.01
327.508	4.09
327.875	4.12
328.243	4.2
328.61	4.15
328.978	4.17
329.346	4.21
329.713	4.32
330.08	4.43
330.448	4.49
330.815	4.57
331.182	4.68
331.55	4.72
331.917	4.64
332.284	4.67
332.651	4.66
333.018	4.71
333.385	4.76
333.752	4.75
334.119	4.91
334.486	5
334.853	5.05
335.22	5.09
335.587	5.07
335.954	5.14
336.32	5.06
336.687	5.06
337.054	5.15
337.42	5.08
337.787	5.16
338.153	5.29
338.52	5.27
338.886	5.09
339.253	5.08
339.619	5.03
339.986	5.04
340.352	5.11
340.718	4.99
341.084	4.86
341.451	4.95
341.817	4.76
342.183	4.7
342.549	4.63
342.915	4.57
343.281	4.58
343.647	4.5
344.013	4.63
344.379	4.55
344.745	4.48
345.11	4.59
345.476	4.53
345.842	4.49
346.208	4.48
346.573	4.54
346.939	4.52
347.304	4.58
347.67	4.49
348.035	4.46
348.401	4.49
348.766	4.51
349.132	4.46
349.497	4.47
349.862	4.48
350.228	4.5
350.593	4.47
350.958	4.43
351.323	4.42
351.688	4.36
352.053	4.43
352.418	4.46
352.783	4.41
353.148	4.38
353.513	4.35
353.878	4.33
354.243	4.36
354.608	4.37
354.972	4.34
355.337	4.38
355.702	4.45
356.066	4.54
356.431	4.59
356.795	4.67
357.16	4.7
357.524	4.68
357.889	4.67
358.253	4.7
358.618	4.8
358.982	4.85
359.346	4.84
359.71	4.82
360.075	4.8
360.439	4.84
360.803	4.82
361.167	4.78
361.531	4.75
361.895	4.71
362.259	4.72
362.623	4.69
362.987	4.66
363.351	4.64
363.714	4.61
364.078	4.59
364.442	4.53
364.806	4.53
365.169	4.55
365.533	4.59
365.896	4.61
366.26	4.56
366.623	4.51
366.987	4.52
367.35	4.56
367.714	4.54
368.077	4.54
368.44	4.54
368.803	4.6
369.167	4.62
369.53	4.61
369.893	4.64
370.256	4.67
370.619	4.69
370.982	4.69
371.345	4.67
371.708	4.65
372.071	4.61
372.434	4.67
372.797	4.65
373.159	4.6
373.522	4.54
373.885	4.54
374.247	4.58
374.61	4.61
374.973	4.57
375.335	4.6
375.698	4.58
376.06	4.61
376.423	4.6
376.785	4.64
377.147	4.69
377.51	4.63
377.872	4.69
378.234	4.73
378.596	4.72
378.958	4.69
379.321	4.69
379.683	4.78
380.045	4.74
380.407	4.75
380.769	4.76
381.13	4.79
381.492	4.79
381.854	4.78
382.216	4.76
382.578	4.77
382.939	4.76
383.301	4.74
383.663	4.72
384.024	4.73
384.386	4.74
384.747	4.74
385.109	4.81
385.47	4.72
385.832	4.74
386.193	4.75
386.554	4.81
386.916	4.85
387.277	4.84
387.638	4.88
387.999	4.88
388.36	4.89
388.721	4.93
389.082	4.95
389.443	4.93
389.804	4.94
390.165	4.93
390.526	4.98
390.887	4.99
391.248	5.01
391.609	5.02
391.969	4.98
392.33	4.96
392.691	4.92
393.051	4.95
393.412	4.93
393.772	4.88
394.133	4.84
394.493	4.83
394.854	4.83
395.214	4.82
395.574	4.85
395.935	4.85
396.295	4.84
396.655	4.81
397.015	4.8
397.376	4.82
397.736	4.85
398.096	4.79
398.456	4.75
398.816	4.75
399.176	4.74
399.535	4.76
399.895	4.78
400.255	4.82
400.615	4.81
400.975	4.8
401.334	4.85
401.694	4.87
402.054	4.85
402.413	4.85
402.773	4.82
403.132	4.78
403.492	4.77
403.851	4.73
404.211	4.73
404.57	4.74
404.929	4.73
405.288	4.73
405.648	4.74
406.007	4.77
406.366	4.74
406.725	4.74
407.084	4.72
407.443	4.73
407.802	4.74
408.161	4.76
408.52	4.76
408.879	4.75
409.238	4.78
409.596	4.8
409.955	4.8
410.314	4.81
410.673	4.81
411.031	4.8
411.39	4.83
411.748	4.82
412.107	4.8
412.465	4.79
412.824	4.79
413.182	4.77
413.54	4.78
413.899	4.82
414.257	4.82
414.615	4.83
414.974	4.84
415.332	4.81
415.69	4.8
416.048	4.8
416.406	4.79
416.764	4.77
417.122	4.77
417.48	4.74
417.838	4.75
418.195	4.75
418.553	4.78
418.911	4.78
419.269	4.78
419.626	4.78
419.984	4.79
420.342	4.81
420.699	4.83
421.057	4.83
421.414	4.82
421.772	4.82
422.129	4.81
422.486	4.8
422.844	4.8
423.201	4.81
423.558	4.8
423.915	4.81
424.273	4.81
424.63	4.8
424.987	4.81
425.344	4.81
425.701	4.82
426.058	4.82
426.415	4.83
426.772	4.84
427.128	4.84
427.485	4.82
427.842	4.79
428.199	4.78
428.555	4.79
428.912	4.8
429.269	4.79
429.625	4.79
429.982	4.78
430.338	4.79
430.695	4.78
431.051	4.79
431.407	4.79
431.764	4.78
432.12	4.75
432.476	4.78
432.832	4.77
433.189	4.76
433.545	4.75
433.901	4.74
434.257	4.74
434.613	4.77
434.969	4.78
435.325	4.8
435.681	4.8
436.036	4.81
436.392	4.79
436.748	4.8
437.104	4.79
437.459	4.8
437.815	4.8
438.171	4.81
438.526	4.82
438.882	4.82
439.237	4.83
439.593	4.86
439.948	4.84
440.304	4.84
440.659	4.84
441.014	4.86
441.369	4.86
441.725	4.85
442.08	4.83
442.435	4.82
442.79	4.82
443.145	4.83
443.5	4.82
443.855	4.83
444.21	4.82
444.565	4.84
444.92	4.85
445.275	4.85
445.629	4.85
445.984	4.84
446.339	4.83
446.693	4.81
447.048	4.8
447.403	4.8
447.757	4.78
448.112	4.78
448.466	4.77
448.82	4.76
449.175	4.77
449.529	4.77
449.883	4.77
450.238	4.76
450.592	4.75
450.946	4.74
451.3	4.74
451.654	4.73
452.008	4.73
452.362	4.7
452.716	4.69
453.07	4.69
453.424	4.69
453.778	4.71
454.132	4.72
454.486	4.72
454.839	4.71
455.193	4.71
455.547	4.72
455.9	4.72
456.254	4.71
456.607	4.71
456.961	4.69
457.314	4.7
457.668	4.7
458.021	4.7
458.375	4.7
458.728	4.7
459.081	4.71
459.434	4.7
459.787	4.71
460.141	4.73
460.494	4.71
460.847	4.71
461.2	4.7
461.553	4.69
461.906	4.7
462.259	4.72
462.611	4.72
462.964	4.73
463.317	4.72
463.67	4.72
464.022	4.73
464.375	4.73
464.728	4.74
465.08	4.74
465.433	4.74
465.785	4.73
466.138	4.72
466.49	4.72
466.843	4.7
467.195	4.72
467.547	4.7
467.899	4.72
468.252	4.69
468.604	4.68
468.956	4.68
469.308	4.67
469.66	4.66
470.012	4.68
470.364	4.69
470.716	4.67
471.068	4.68
471.42	4.7
471.772	4.7
472.123	4.73
472.475	4.74
472.827	4.76
473.178	4.77
473.53	4.78
473.882	4.76
474.233	4.79
474.585	4.77
474.936	4.8
475.288	4.8
475.639	4.81
475.99	4.82
476.342	4.82
476.693	4.83
477.044	4.85
477.395	4.84
477.746	4.8
478.097	4.83
478.448	4.83
478.8	4.82
479.15	4.83
479.501	4.81
479.852	4.81
480.203	4.82
480.554	4.84
480.905	4.84
481.255	4.86
481.606	4.88
481.957	4.9
482.307	4.89
482.658	4.9
483.009	4.91
483.359	4.92
483.709	4.93
484.06	4.94
484.41	4.94
484.761	4.95
485.111	4.96
485.461	4.97
485.811	4.98
486.162	4.97
486.512	4.98
486.862	4.99
487.212	4.98
487.562	4.98
487.912	4.98
488.262	4.98
488.612	4.97
488.961	4.96
489.311	4.96
489.661	4.96
490.011	4.95
490.36	4.95
490.71	4.94
491.06	4.94
491.409	4.94
491.759	4.94
492.108	4.92
492.458	4.91
492.807	4.9
493.157	4.89
493.506	4.9
493.855	4.89
494.204	4.88
494.554	4.88
494.903	4.86
495.252	4.85
495.601	4.86
495.95	4.88
496.299	4.87
496.648	4.87
496.997	4.88
497.346	4.88
497.695	4.88
498.043	4.87
498.392	4.85
498.741	4.85
499.09	4.84
499.438	4.88
499.787	4.9
500.135	4.89
500.484	4.9
500.832	4.91
501.181	4.92
501.529	4.91
501.878	4.92
502.226	4.96
502.574	4.97
502.923	4.95
503.271	4.94
503.619	4.96
503.967	4.96
504.315	4.94
504.663	4.92
505.011	4.93
505.359	4.95
505.707	4.98
506.055	4.99
506.403	5.02
506.751	5.02
507.098	5.02
507.446	5.05
507.794	5.05
508.141	5.05
508.489	5.04
508.837	5.05
509.184	5.07
509.531	5.07
509.879	5.08
510.226	5.12
510.574	5.13
510.921	5.13
511.268	5.13
511.616	5.16
511.963	5.18
512.31	5.18
512.657	5.17
513.004	5.15
513.351	5.17
513.698	5.17
514.045	5.18
514.392	5.16
514.739	5.17
515.086	5.17
515.432	5.16
515.779	5.17
516.126	5.18
516.473	5.19
516.819	5.21
517.166	5.21
517.512	5.18
517.859	5.19
518.205	5.19
518.552	5.21
518.898	5.21
519.245	5.21
519.591	5.23
519.937	5.24
520.283	5.25
520.629	5.24
520.976	5.24
521.322	5.24
521.668	5.27
522.014	5.24
522.36	5.25
522.706	5.25
523.052	5.27
523.398	5.3
523.743	5.3
524.089	5.29
524.435	5.29
524.781	5.31
525.126	5.33
525.472	5.33
525.817	5.34
526.163	5.33
526.509	5.35
526.854	5.36
527.199	5.36
527.545	5.37
527.89	5.36
528.235	5.36
528.581	5.37
528.926	5.36
529.271	5.37
529.616	5.37
529.961	5.37
530.306	5.37
530.651	5.36
530.996	5.36
531.341	5.37
531.686	5.38
532.031	5.38
532.376	5.36
532.721	5.36
533.065	5.35
533.41	5.36
533.755	5.36
534.099	5.36
534.444	5.35
534.788	5.35
535.133	5.36
535.477	5.37
535.822	5.37
536.166	5.38
536.51	5.39
536.855	5.39
537.199	5.39
537.543	5.4
537.887	5.4
538.231	5.39
538.576	5.4
538.92	5.38
539.264	5.38
539.608	5.38
539.951	5.38
540.295	5.4
540.639	5.41
540.983	5.39
541.327	5.38
541.671	5.38
542.014	5.38
542.358	5.39
542.701	5.37
543.045	5.37
543.389	5.37
543.732	5.38
544.075	5.38
544.419	5.39
544.762	5.38
545.105	5.39
545.449	5.4
545.792	5.41
546.135	5.4
546.478	5.41
546.821	5.42
547.165	5.41
547.508	5.4
547.851	5.37
548.194	5.38
548.536	5.4
548.879	5.41
549.222	5.39
549.565	5.39
549.908	5.4
550.25	5.37
550.593	5.36
550.936	5.35
551.278	5.37
551.621	5.36
551.963	5.37
552.306	5.33
552.648	5.32
552.991	5.34
553.333	5.38
553.675	5.37
554.017	5.37
554.36	5.37
554.702	5.38
555.044	5.4
555.386	5.4
555.728	5.39
556.07	5.41
556.412	5.41
556.754	5.4
557.096	5.39
557.438	5.45
557.78	5.44
558.121	5.44
558.463	5.42
558.805	5.42
559.147	5.4
559.488	5.43
559.83	5.45
560.171	5.4
560.513	5.42
560.854	5.41
561.196	5.41
561.537	5.43
561.878	5.41
562.22	5.42
562.561	5.43
562.902	5.43
563.243	5.47
563.584	5.47
563.925	5.5
564.266	5.49
564.607	5.47
564.948	5.48
565.289	5.49
565.63	5.48
565.971	5.48
566.312	5.48
566.653	5.48
566.993	5.46
567.334	5.45
567.675	5.43
568.015	5.45
568.356	5.44
568.696	5.45
569.037	5.46
569.377	5.47
569.718	5.45
570.058	5.46
570.398	5.43
570.739	5.42
571.079	5.39
571.419	5.41
571.759	5.43
572.099	5.42
572.439	5.43
572.779	5.44
573.119	5.48
573.459	5.5
573.799	5.51
574.139	5.53
574.479	5.53
574.819	5.52
575.158	5.48
575.498	5.49
575.838	5.48
576.177	5.48
576.517	5.46
576.856	5.48
577.196	5.47
577.535	5.46
577.875	5.5
578.214	5.51
578.553	5.55
578.893	5.52
579.232	5.53
579.571	5.52
579.91	5.52
580.25	5.46
580.589	5.45
580.928	5.45
581.267	5.43
581.606	5.45
581.945	5.43
582.283	5.48
582.622	5.48
582.961	5.47
583.3	5.49
583.639	5.51
583.977	5.53
584.316	5.52
584.654	5.51
584.993	5.51
585.332	5.53
585.67	5.49
586.008	5.49
586.347	5.5
586.685	5.49
587.024	5.48
587.362	5.54
587.7	5.56
588.038	5.59
588.376	5.62
588.715	5.62
589.053	5.64
589.391	5.62
589.729	5.61
590.067	5.61
590.404	5.58
590.742	5.59
591.08	5.5
591.418	5.51
591.756	5.54
592.093	5.51
592.431	5.48
592.769	5.47
593.106	5.5
593.444	5.5
593.781	5.5
594.119	5.53
594.456	5.49
594.793	5.46
595.131	5.4
595.468	5.41
595.805	5.43
596.143	5.45
596.48	5.46
596.817	5.5
597.154	5.51
597.491	5.51
597.828	5.5
598.165	5.56
598.502	5.56
598.839	5.54
599.176	5.55
599.512	5.59
599.849	5.66
600.186	5.68
600.523	5.69
600.859	5.73
601.196	5.69
601.532	5.73
601.869	5.74
602.205	5.76
602.542	5.76
602.878	5.74
603.215	5.74
603.551	5.74
603.887	5.74
604.223	5.71
604.56	5.72
604.896	5.73
605.232	5.72
605.568	5.72
605.904	5.71
606.24	5.74
606.576	5.73
606.912	5.65
607.248	5.63
607.583	5.65
607.919	5.64
608.255	5.64
608.591	5.63
608.926	5.63
609.262	5.67
609.597	5.65
609.933	5.68
610.268	5.68
610.604	5.67
610.939	5.63
611.275	5.67
611.61	5.68
611.945	5.7
612.281	5.7
612.616	5.7
612.951	5.77
613.286	5.77
613.621	5.76
613.956	5.79
614.291	5.81
614.626	5.78
614.961	5.72
615.296	5.72
615.631	5.69
615.966	5.69
616.3	5.66
616.635	5.66
616.97	5.64
617.304	5.61
617.639	5.65
617.973	5.61
618.308	5.57
618.642	5.6
618.977	5.55
619.311	5.52
619.646	5.51
619.98	5.44
620.314	5.47
620.648	5.48
620.983	5.48
621.317	5.45
621.651	5.46
621.985	5.47
622.319	5.48
622.653	5.48
622.987	5.54
623.321	5.56
623.655	5.6
623.988	5.61
624.322	5.65
624.656	5.62
624.99	5.7
625.323	5.73
625.657	5.75
625.99	5.76
626.324	5.77
626.657	5.78
626.991	5.79
627.324	5.79
627.658	5.8
627.991	5.8
628.324	5.8
628.657	5.8
628.991	5.79
629.324	5.82
629.657	5.85
629.99	5.84
630.323	5.8
630.656	5.77
630.989	5.76
631.322	5.75
631.655	5.75
631.987	5.78
632.32	5.77
632.653	5.71
632.986	5.73
633.318	5.74
633.651	5.75
633.984	5.76
634.316	5.69
634.649	5.71
634.981	5.71
635.313	5.73
635.646	5.74
635.978	5.79
636.31	5.76
636.643	5.72
636.975	5.71
637.307	5.72
637.639	5.72
637.971	5.73
638.303	5.7
638.635	5.64
638.967	5.61
639.299	5.61
639.631	5.59
639.963	5.58
640.295	5.6
640.626	5.65
640.958	5.65
641.29	5.67
641.621	5.59
641.953	5.6
642.285	5.62
642.616	5.63
642.948	5.68
643.279	5.68
643.61	5.72
643.942	5.71
644.273	5.74
644.604	5.75
644.936	5.76
645.267	5.79
645.598	5.77
645.929	5.82
646.26	5.84
646.591	5.88
646.922	5.86
647.253	5.86
647.584	5.84
647.915	5.9
648.245	5.93
648.576	6
648.907	6
649.238	5.94
649.568	5.93
649.899	5.96
650.229	5.96
650.56	5.99
650.89	6.01
651.221	6
651.551	5.96
651.882	5.94
652.212	5.93
652.542	6.01
652.872	5.95
653.203	5.89
653.533	5.91
653.863	5.95
654.193	5.92
654.523	5.93
654.853	5.88
655.183	5.93
655.513	5.99
655.843	6.01
656.172	6.03
656.502	6.01
656.832	5.91
657.162	5.95
657.491	5.94
657.821	5.95
658.15	5.9
658.48	5.99
658.809	5.99
659.139	5.99
659.468	5.92
659.798	5.98
660.127	6.06
660.456	6.05
660.785	6.08
661.115	6.15
661.444	6.17
661.773	6.19
662.102	6.18
662.431	6.12
662.76	6.11
663.089	6.09
663.418	6.1
663.747	6.13
664.076	6.21
664.404	6.19
664.733	6.24
665.062	6.3
665.39	6.24
665.719	6.28
666.048	6.36
666.376	6.42
666.705	6.41
667.033	6.37
667.362	6.41
667.69	6.4
668.018	6.35
668.347	6.34
668.675	6.35
669.003	6.32
669.331	6.34
669.659	6.44
669.987	6.53
670.315	6.51
670.643	6.57
670.971	6.41
671.299	6.47
671.627	6.41
671.955	6.4
672.283	6.4
672.61	6.29
672.938	6.25
673.266	6.32
673.593	6.31
673.921	6.41
674.249	6.34
674.576	6.31
674.904	6.3
675.231	6.25
675.558	6.17
675.886	6.18
676.213	6.15
676.54	6.04
676.867	5.98
677.195	5.95
677.522	5.89
677.849	5.96
678.176	5.93
678.503	5.88
678.83	5.85
679.157	5.88
679.484	5.94
679.81	5.88
680.137	5.78
680.464	5.72
680.791	5.66
681.117	5.65
681.444	5.64
681.771	5.63
682.097	5.57
682.424	5.61
682.75	5.57
683.077	5.54
683.403	5.55
683.729	5.56
684.056	5.64
684.382	5.61
684.708	5.63
685.034	5.58
685.36	5.6
685.686	5.59
686.012	5.56
686.339	5.64
686.664	5.73
686.99	5.82
687.316	5.86
687.642	5.92
687.968	5.96
688.294	5.98
688.619	5.94
688.945	6.02
689.271	6
689.596	5.95
689.922	5.95
690.247	5.89
690.573	5.95
690.898	5.96
691.224	6.04
691.549	6.02
691.874	6.06
692.2	6.06
692.525	6.19
692.85	6.21
693.175	6.26
693.5	6.14
693.825	6.2
694.15	6.21
694.475	6.2
694.8	6.27
695.125	6.29
695.45	6.3
695.775	6.24
696.099	6.33
696.424	6.44
696.749	6.39
697.073	6.45
697.398	6.43
697.723	6.43
698.047	6.33
698.372	6.35
698.696	6.39
699.02	6.34
699.345	6.25
699.669	6.24
699.993	6.12
700.318	6.17
700.642	6.1
700.966	6.09
701.29	6.09
701.614	6.02
701.938	6.2
702.262	6.23
702.586	6.35
702.91	6.31
703.234	6.33
703.557	6.41
703.881	6.31
704.205	6.31
704.529	6.25
704.852	6.26
705.176	6.27
705.499	6.23
705.823	6.4
706.146	6.36
706.47	6.27
706.793	6.27
707.117	6.32
707.44	6.29
707.763	6.42
708.086	6.27
708.409	6.32
708.733	6.02
709.056	6.04
709.379	6.06
709.702	6.07
710.025	6.01
710.348	5.97
710.671	6.08
710.993	6.17
711.316	6.17
711.639	6.4
711.962	6.35
712.284	6.42
712.607	6.44
712.93	6.52
713.252	6.59
713.575	6.6
713.897	6.67
714.22	6.64
714.542	6.54
714.864	6.7
715.187	6.62
715.509	6.75
715.831	6.8
716.153	6.73
716.475	6.64
716.798	6.67
717.12	6.68
717.442	6.61
717.764	6.52
718.085	6.46
718.407	6.33
718.729	6.38
719.051	6.33
719.373	6.29
719.695	6.26
720.016	6.4
720.338	6.46
720.659	6.46
720.981	6.38
721.302	6.34
721.624	6.25
721.945	6.25
722.267	6.14
722.588	6
722.909	5.86
723.231	5.83
723.552	5.82
723.873	5.96
724.194	6.02
724.515	5.88
724.836	5.95
725.157	6.08
725.478	5.8
725.799	5.86
726.12	5.9
726.441	5.93
726.762	5.7
727.083	5.63
727.403	5.65
727.724	5.86
728.045	5.94
728.365	5.86
728.686	5.92
729.006	5.89
729.327	6.02
729.647	6.18
729.967	6.21
730.288	6.15
730.608	6.14
730.928	6.17
731.249	6.13
731.569	6.33
731.889	6.29
732.209	6.38
732.529	6.17
732.849	6.07
733.169	6.01
733.489	6.07
733.809	6.13
734.129	6.05
734.448	6
734.768	6.04
735.088	6.2
735.408	6.16
735.727	6.2
736.047	6.19
736.366	6.24
736.686	6.34
737.005	6.49
737.325	6.39
737.644	6.46
737.963	6.86
738.283	6.63
738.602	6.72
738.921	6.89
739.24	7.09
739.56	7.09
739.879	7.11
740.198	7.19
740.517	7.25
740.836	7.27
741.155	7.3
741.473	7.13
741.792	7.2
742.111	7.22
742.43	7.29
742.748	7.33
743.067	7.32
743.386	7.1
743.704	6.91
744.023	7.06
744.341	6.92
744.66	6.7
744.978	6.72
745.297	6.49
745.615	6.47
745.933	6.58
746.252	6.55
746.57	6.47
746.888	6.42
747.206	6.25
747.524	6.19
747.842	5.96
748.16	6.25
748.478	6.18
748.796	6.18
749.114	6.29
749.432	6.1
749.749	6.04
750.067	6.25
750.385	6.19
750.703	6.25
751.02	6.25
751.338	6.09
751.655	6.08
751.973	6.12
752.29	6.11
752.608	5.97
752.925	5.91
753.242	5.83
753.56	5.71
753.877	5.79
754.194	5.9
754.511	6.14
754.828	6.04
755.145	5.99
755.462	5.94
755.779	5.68
756.096	5.79
756.413	5.88
756.73	5.81
757.047	5.93
757.364	5.61
757.68	5.48
757.997	5.56
758.314	5.42
758.63	5.45
758.947	5.41
759.264	5.27
759.58	5.27
759.896	5.64
760.213	5.79
760.529	5.8
760.846	5.84
761.162	5.73
761.478	5.7
761.794	5.61
762.11	5.72
762.426	5.83
762.743	5.92
763.059	5.95
763.375	6.21
763.69	6.46
764.006	6.64
764.322	6.82
764.638	6.84
764.954	7.15
765.27	7.02
765.585	7.06
765.901	7.28
766.216	7.42
766.532	7.1
766.848	7.03
767.163	7
767.478	6.96
767.794	7.23
768.109	7.27
768.424	7.34
768.74	7.33
769.055	7.46
769.37	7.65
769.685	7.41
770	7.21
770.315	6.98
770.63	6.7
770.945	6.49
771.26	6.71
771.575	6.54
771.89	6.69
772.205	6.28
772.52	6.12
772.834	6.01
773.149	6.42
773.464	6.65
773.778	6.72
774.093	6.42
774.407	6.25
774.722	6.19
775.036	6.29
775.351	6.54
775.665	6.1
775.979	5.87
776.293	5.83
776.608	5.7
776.922	5.46
777.236	5.55
777.55	5.69
777.864	5.42
778.178	5.46
778.492	5.53
778.806	5.81
779.12	5.87
779.434	5.8
779.747	5.86
780.061	5.56
780.375	6.08
780.689	6.37
781.002	6.48
781.316	6.56
781.629	6.66
781.943	6.75
782.256	7.22
782.57	7.34
782.883	7.84
783.196	7.91
783.51	8.01
783.823	7.98
784.136	8.43
784.449	8.78
784.762	8.91
785.075	8.97
785.388	9.04
785.701	9.2
786.014	8.86
786.327	8.72
786.64	9.14
786.953	8.46
787.266	8.61
787.578	8.52
787.891	8.37
788.204	8.54
788.516	8.37
788.829	7.97
789.141	8.02
789.454	7.66
789.766	7.95
790.079	8.25
790.391	8.23
790.703	8.03
791.016	7.75
791.328	7.66
791.64	7.67
791.952	7.85
792.264	7.36
792.576	7.76
792.888	7.67
793.2	7.96
793.512	8.44
793.824	8.38
794.136	8.2
794.448	8.28
794.76	8.04
795.071	7.53
795.383	7.49
795.695	7.09
796.006	6.95
796.318	6.83
796.629	6.84
796.941	6.89
797.252	7.1
797.564	6.88
797.875	7.06
798.186	6.78
798.497	6.65
798.809	7.07
799.12	7.19
799.431	7.45
799.742	7.12
800.053	7.48
800.364	7.18
800.675	6.94
800.986	6.47
801.297	6.07
801.608	6.35
801.918	6.31
802.229	6.42
802.54	6.46
802.851	6.36
803.161	6.06
803.472	5.99
803.782	5.96
804.093	6.26
804.403	5.96
804.714	6.73
805.024	6.54
805.334	6.49
805.645	6.67
805.955	6.56
806.265	6.67
806.575	5.97
806.885	5.84
807.195	6.42
807.505	6.77
807.815	7.15
808.125	7.3
808.435	7.49
808.745	7.44
809.055	7.93
809.365	7.6
809.674	7.39
809.984	8.22
810.294	7.44
810.603	7.5
810.913	8.04
811.222	7.73
811.532	7.93
811.841	7.9
812.151	8.39
812.46	8.17
812.769	7.91
813.079	8.1
813.388	8.58
813.697	8.8
814.006	8.66
814.315	8.51
814.624	8.18
814.933	8.17
815.242	8.48
815.551	8.49
815.86	8.88
816.169	8.85
816.478	7.67
816.786	8.08
817.095	8.06
817.404	8.01
817.712	7.61
818.021	7.76
818.33	7.5
818.638	6.74
818.947	7.25
819.255	7.08
819.563	7.09
819.872	7.1
820.18	7.06
820.488	7.23
820.796	7.28
821.105	7.33
821.413	7.5
821.721	7.4
822.029	7.35
822.337	7.38
822.645	7.44
822.953	7.59
823.26	7.53
823.568	7.39
823.876	7.4
824.184	7.39
824.491	7.31
824.799	7.41
825.107	7.49
825.414	7.42
825.722	7.67
826.029	7.65
826.337	7.81
826.644	7.76
826.951	7.77
827.259	7.8
827.566	7.84
827.873	7.8
828.18	7.81
828.488	7.82
828.795	7.83
829.102	7.82
829.409	8.08
829.716	8.14
830.023	8.18
830.329	7.54
830.636	7.76
830.943	7.98
831.25	8
831.557	7.84
831.863	7.67
832.17	7.08
832.476	7.13
832.783	6.97
833.089	6.77
833.396	6.48
833.702	6.64
834.009	7.03
834.315	7.28
834.621	7.59
834.928	7.91
835.234	7.54
835.54	8.07
835.846	7.73
836.152	7.72
836.458	8.29
836.764	8.52
837.07	8.25
837.376	7.73
837.682	7.3
837.988	7.75
838.293	7.96
838.599	8.08
838.905	8.06
839.211	8.14
839.516	8.71
839.822	9.33
840.127	9.42
840.433	8.43
840.738	8.24
841.044	7.65
841.349	7.29
841.654	7.39
841.959	6.54
842.265	6.44
842.57	7.03
842.875	6.18
843.18	7.69
843.485	8.29
843.79	8.83
844.095	8.95
844.4	9.04
844.705	8.23
845.01	7.55
845.315	7.19
845.619	5.29
845.924	5.23
846.229	5.35
846.533	5.78
846.838	5.22
847.142	3.78
847.447	2.9
847.751	2.55
848.056	1.5
848.36	1.25
848.664	0.69
848.969	-0.07
849.273	-0.89
849.577	-1.9
849.881	-1.88
850.185	-1.07
850.489	0.6
850.794	-1.31
851.097	-1.02
851.401	-1.49
851.705	-1.39
852.009	1.44
852.313	0.98
852.617	0.31
852.92	-0.83
853.224	-0.48
853.528	0.89
853.831	0.87
854.135	1.13
854.438	0.68
854.742	-0.71
855.045	-1.41
855.349	-1.41
855.652	0.49
855.955	0.87
856.259	-1.69
856.562	-2.62
856.865	-4.06
857.168	-4.2
857.471	-2.72
857.774	-1.15
858.077	-2.5
858.38	-2.02
858.683	-3.69
858.986	-3.66
859.289	-4.05
859.592	-3.84
859.894	-4.8
860.197	-2.06
860.5	-1.66
860.802	0.77
861.105	2.27
861.407	4.38
861.71	3.38
862.012	3.02
862.315	1.96
862.617	2.62
862.919	4.89
863.222	4.31
863.524	5.15
863.826	4.69
864.128	5.65
864.43	7.15
864.732	6.95
865.034	9.33
865.336	10.14
865.638	9.43
865.94	8.87
866.242	9.05
866.544	8.03
866.846	5.15
867.147	5.84
867.449	5.83
867.751	3.68
868.052	5.96
868.354	4.46
868.655	5.07
868.957	5.24
869.258	2.54
869.56	5.57
869.861	6.17
870.162	5.99
870.463	7.94
870.765	9.43
871.066	9.68
871.367	8.46
871.668	6.61
871.969	5.98
872.27	5.4
872.571	3.97
872.872	2.79
873.173	4.92
873.473	3.95
873.774	4.18
874.075	5.39
874.376	4.37
874.676	5.63
874.977	1.34
875.277	2.41
875.578	3.71
875.878	1.35
876.179	0.68
876.479	1
876.78	-2.22
877.08	-4.14
877.38	-6.95
877.68	-7.23
877.981	-6.65
878.281	-4.55
878.581	-1.6
