Data from BA56852_Reflection_00001.txt Node
Date: Mon Nov 18 15:22:22 EST 2019
User: vgr7
Spectrometer: USB2G7710
Scans to average: 3
Trigger mode: 4
Integration Time (sec): 2.000000E-2
Electric dark correction enabled: true
Boxcar width: 10
XAxis mode: Wavelengths
Number of Pixels in Spectrum: 2048
>>>>>Begin Spectral Data<<<<<
177.721	-84.42
178.105	-204.15
178.488	-426.89
178.871	-293.69
179.254	-204.73
179.636	-155.12
180.019	-1122.75
180.402	148.39
180.785	-313.79
181.168	109.58
181.55	180.94
181.933	123.27
182.316	89.5
182.698	112.66
183.081	93.19
183.463	115.84
183.846	116.55
184.228	156.43
184.611	228.69
184.993	242.45
185.376	171.81
185.758	181.37
186.14	157.85
186.522	179.17
186.904	152.32
187.287	170.24
187.669	168.55
188.051	151.06
188.433	125.32
188.815	137.27
189.197	126.32
189.579	119.97
189.961	118.83
190.342	177.71
190.724	276.63
191.106	322.96
191.488	265.46
191.869	388.91
192.251	589.65
192.633	389.59
193.014	460.12
193.396	699.18
193.777	296.28
194.159	417.49
194.54	472.33
194.922	-24531.58
195.303	-4083.49
195.684	-956.75
196.065	-382.5
196.447	-402.49
196.828	-460.69
197.209	-312.47
197.59	-461.91
197.971	-362.55
198.352	-268.19
198.733	-308.81
199.114	-198.78
199.495	-164.23
199.876	-118.06
200.257	-97.97
200.638	-100.36
201.018	-128.27
201.399	-108.08
201.78	-101.95
202.16	-98.93
202.541	-108.97
202.922	-124.98
203.302	-173.68
203.683	-192.53
204.063	-302.84
204.444	-215.32
204.824	-242.25
205.204	-211.22
205.585	-146.69
205.965	-126.64
206.345	-187.83
206.725	-286.12
207.106	-413.96
207.486	-339.53
207.866	-351.16
208.246	-321.47
208.626	-441.35
209.006	-311.16
209.386	-826.73
209.766	-1288.72
210.145	722.14
210.525	2250.29
210.905	3942.7
211.285	-307.88
211.664	-250.57
212.044	-171.95
212.424	-193.11
212.803	-235.9
213.183	-218.51
213.562	-257.2
213.942	-577.62
214.321	-264.76
214.701	-172.91
215.08	-153.37
215.459	-173.26
215.838	-384.7
216.218	-509.31
216.597	-162.31
216.976	-128.63
217.355	-83.3
217.734	-84.55
218.113	-87.11
218.492	-127.08
218.871	-173.1
219.25	-172.1
219.629	-162.75
220.008	-175.44
220.387	-172.61
220.766	-115.65
221.144	-139.14
221.523	-102.12
221.902	-102.43
222.28	-105.05
222.659	-95.94
223.037	-94.37
223.416	-100.75
223.794	-66.09
224.173	-65.6
224.551	-58.07
224.929	-70.96
225.308	-63.14
225.686	-50.1
226.064	-38.05
226.442	-29.84
226.821	-20.68
227.199	-16.8
227.577	-14.05
227.955	-16.06
228.333	-10.35
228.711	-8.31
229.089	-3.77
229.467	-4.54
229.845	0.63
230.222	-2.83
230.6	-5.72
230.978	-3.91
231.356	-1.98
231.733	-3.35
232.111	-2.65
232.488	-3.32
232.866	-0.83
233.243	0.23
233.621	0.13
233.998	0.84
234.376	1.21
234.753	1.5
235.13	1.49
235.508	1.73
235.885	2.61
236.262	1.98
236.639	1.13
237.016	0.64
237.393	2.19
237.77	3.18
238.147	4.07
238.524	4.82
238.901	4.47
239.278	4.46
239.655	5.53
240.032	5.36
240.409	5.27
240.785	5.22
241.162	4.8
241.539	5.01
241.915	5.12
242.292	4.8
242.668	5.11
243.045	4.61
243.421	4.58
243.798	4.44
244.174	4.27
244.551	4.32
244.927	4.27
245.303	4.17
245.679	4.14
246.056	4.2
246.432	4.34
246.808	4.55
247.184	4.43
247.56	4.19
247.936	4.22
248.312	4.15
248.688	4.12
249.064	4.14
249.44	4.2
249.815	3.98
250.191	4.17
250.567	3.85
250.943	3.96
251.318	4.05
251.694	4.14
252.069	3.88
252.445	4
252.82	4
253.196	3.58
253.571	3.42
253.947	3.29
254.322	2.92
254.697	2.72
255.073	2.71
255.448	2.67
255.823	2.67
256.198	2.59
256.573	2.43
256.948	2.59
257.323	2.74
257.698	2.74
258.073	2.6
258.448	2.62
258.823	2.71
259.198	2.68
259.573	2.71
259.948	2.89
260.322	2.8
260.697	2.94
261.072	3.07
261.446	3.1
261.821	3.13
262.195	3.3
262.57	3.13
262.944	3
263.319	2.97
263.693	2.78
264.067	2.83
264.442	3.07
264.816	2.91
265.19	2.63
265.564	2.64
265.938	2.67
266.313	2.55
266.687	2.52
267.061	2.66
267.435	2.71
267.809	2.7
268.183	2.69
268.556	2.61
268.93	2.56
269.304	2.45
269.678	2.6
270.051	2.54
270.425	2.68
270.799	2.84
271.172	2.91
271.546	3.04
271.919	3.03
272.293	2.89
272.666	3
273.04	3.05
273.413	3.04
273.787	3.03
274.16	3.05
274.533	3.1
274.906	2.88
275.279	2.76
275.653	2.82
276.026	2.66
276.399	2.66
276.772	2.88
277.145	2.78
277.518	2.86
277.891	2.95
278.263	2.77
278.636	2.8
279.009	2.66
279.382	2.76
279.755	2.75
280.127	2.93
280.5	3.08
280.872	3.14
281.245	3.32
281.617	3.41
281.99	3.58
282.362	3.48
282.735	3.49
283.107	3.53
283.479	3.48
283.852	3.76
284.224	3.62
284.596	3.59
284.968	3.76
285.34	3.69
285.713	3.51
286.085	3.66
286.457	3.79
286.829	3.86
287.201	3.81
287.572	3.7
287.944	3.64
288.316	3.38
288.688	3.38
289.06	3.37
289.431	3.33
289.803	3.33
290.175	3.36
290.546	3.49
290.918	3.57
291.289	3.65
291.661	3.62
292.032	3.62
292.403	3.56
292.775	3.58
293.146	3.47
293.517	3.58
293.889	3.55
294.26	3.42
294.631	3.46
295.002	3.55
295.373	3.77
295.744	3.76
296.115	3.8
296.486	3.74
296.857	3.77
297.228	3.93
297.599	3.91
297.97	3.97
298.34	3.93
298.711	4.02
299.082	4.05
299.452	4
299.823	4.16
300.194	4.18
300.564	4.15
300.935	4.23
301.305	4.27
301.676	4.38
302.046	4.43
302.416	4.4
302.787	4.34
303.157	4.31
303.527	4.49
303.897	4.58
304.267	4.74
304.637	4.7
305.008	4.59
305.378	4.64
305.748	4.73
306.117	4.7
306.487	4.6
306.857	4.58
307.227	4.47
307.597	4.37
307.967	4.49
308.336	4.44
308.706	4.53
309.076	4.58
309.445	4.55
309.815	4.51
310.184	4.54
310.554	4.51
310.923	4.51
311.293	4.24
311.662	4.22
312.031	4.23
312.401	4.2
312.77	4.29
313.139	4.41
313.508	4.4
313.877	4.37
314.246	4.27
314.616	4.26
314.985	4.34
315.353	4.35
315.722	4.16
316.091	4.1
316.46	3.96
316.829	3.94
317.198	3.97
317.567	3.93
317.935	3.88
318.304	3.96
318.672	3.87
319.041	4.01
319.41	4.03
319.778	3.97
320.147	4.06
320.515	3.91
320.883	3.55
321.252	3.56
321.62	3.52
321.988	3.53
322.357	3.35
322.725	3.36
323.093	3.43
323.461	3.51
323.829	3.68
324.197	3.78
324.565	3.78
324.933	3.79
325.301	3.85
325.669	3.97
326.037	3.87
326.405	3.88
326.772	3.98
327.14	4.08
327.508	3.98
327.875	3.86
328.243	3.93
328.61	4.05
328.978	4.04
329.346	4.14
329.713	4.17
330.08	4.29
330.448	4.29
330.815	4.26
331.182	4.24
331.55	4.09
331.917	4
332.284	4.04
332.651	3.99
333.018	4.05
333.385	3.96
333.752	4.01
334.119	4.04
334.486	3.98
334.853	4.04
335.22	4.16
335.587	4.18
335.954	4.14
336.32	4.16
336.687	4.13
337.054	4.22
337.42	4.29
337.787	4.31
338.153	4.33
338.52	4.29
338.886	4.3
339.253	4.31
339.619	4.38
339.986	4.31
340.352	4.39
340.718	4.44
341.084	4.44
341.451	4.48
341.817	4.54
342.183	4.44
342.549	4.34
342.915	4.36
343.281	4.4
343.647	4.38
344.013	4.39
344.379	4.35
344.745	4.24
345.11	4.26
345.476	4.24
345.842	4.24
346.208	4.35
346.573	4.37
346.939	4.39
347.304	4.33
347.67	4.36
348.035	4.24
348.401	4.26
348.766	4.3
349.132	4.26
349.497	4.22
349.862	4.31
350.228	4.26
350.593	4.21
350.958	4.27
351.323	4.31
351.688	4.26
352.053	4.28
352.418	4.34
352.783	4.33
353.148	4.29
353.513	4.33
353.878	4.33
354.243	4.36
354.608	4.39
354.972	4.34
355.337	4.35
355.702	4.45
356.066	4.37
356.431	4.33
356.795	4.34
357.16	4.31
357.524	4.3
357.889	4.32
358.253	4.38
358.618	4.38
358.982	4.34
359.346	4.33
359.71	4.37
360.075	4.37
360.439	4.36
360.803	4.41
361.167	4.35
361.531	4.27
361.895	4.21
362.259	4.17
362.623	4.25
362.987	4.24
363.351	4.18
363.714	4.26
364.078	4.24
364.442	4.27
364.806	4.3
365.169	4.3
365.533	4.31
365.896	4.27
366.26	4.21
366.623	4.18
366.987	4.21
367.35	4.15
367.714	4.11
368.077	4.06
368.44	4.09
368.803	4.1
369.167	4.11
369.53	4.05
369.893	4.05
370.256	4.05
370.619	4.1
370.982	4.09
371.345	4
371.708	4.05
372.071	3.97
372.434	3.99
372.797	4.01
373.159	4.01
373.522	4.03
373.885	4.04
374.247	4.08
374.61	4.04
374.973	4.04
375.335	4.07
375.698	4.1
376.06	4.08
376.423	4.08
376.785	4.1
377.147	4.14
377.51	4.11
377.872	4.06
378.234	3.98
378.596	3.98
378.958	3.94
379.321	3.91
379.683	3.96
380.045	3.92
380.407	3.92
380.769	3.94
381.13	3.92
381.492	3.91
381.854	3.85
382.216	3.83
382.578	3.87
382.939	3.83
383.301	3.8
383.663	3.79
384.024	3.77
384.386	3.81
384.747	3.86
385.109	3.96
385.47	3.95
385.832	3.98
386.193	4.03
386.554	4.05
386.916	4.03
387.277	4.02
387.638	4.05
387.999	4.03
388.36	4.02
388.721	4.04
389.082	4.05
389.443	4.09
389.804	4.11
390.165	4.13
390.526	4.18
390.887	4.21
391.248	4.23
391.609	4.25
391.969	4.24
392.33	4.21
392.691	4.2
393.051	4.25
393.412	4.24
393.772	4.18
394.133	4.18
394.493	4.18
394.854	4.15
395.214	4.13
395.574	4.1
395.935	4.07
396.295	4.08
396.655	4.07
397.015	4.06
397.376	4.06
397.736	4.04
398.096	4.03
398.456	3.99
398.816	3.97
399.176	3.94
399.535	3.91
399.895	3.91
400.255	3.88
400.615	3.86
400.975	3.87
401.334	3.91
401.694	3.94
402.054	3.96
402.413	4
402.773	3.99
403.132	4.03
403.492	4.06
403.851	4.05
404.211	4.08
404.57	4.08
404.929	4.09
405.288	4.08
405.648	4.07
406.007	4.09
406.366	4.08
406.725	4.12
407.084	4.13
407.443	4.13
407.802	4.15
408.161	4.14
408.52	4.12
408.879	4.09
409.238	4.05
409.596	4.05
409.955	4.01
410.314	4.01
410.673	3.95
411.031	3.93
411.39	3.91
411.748	3.88
412.107	3.88
412.465	3.88
412.824	3.91
413.182	3.89
413.54	3.88
413.899	3.9
414.257	3.9
414.615	3.89
414.974	3.87
415.332	3.85
415.69	3.83
416.048	3.84
416.406	3.88
416.764	3.87
417.122	3.92
417.48	3.92
417.838	3.92
418.195	3.95
418.553	3.95
418.911	3.95
419.269	3.95
419.626	3.96
419.984	3.96
420.342	3.94
420.699	3.94
421.057	3.93
421.414	3.92
421.772	3.92
422.129	3.94
422.486	3.95
422.844	3.95
423.201	3.97
423.558	3.96
423.915	3.94
424.273	3.95
424.63	3.92
424.987	3.92
425.344	3.92
425.701	3.91
426.058	3.92
426.415	3.91
426.772	3.91
427.128	3.91
427.485	3.9
427.842	3.9
428.199	3.9
428.555	3.91
428.912	3.91
429.269	3.92
429.625	3.91
429.982	3.89
430.338	3.9
430.695	3.89
431.051	3.88
431.407	3.87
431.764	3.86
432.12	3.87
432.476	3.88
432.832	3.87
433.189	3.89
433.545	3.87
433.901	3.87
434.257	3.85
434.613	3.87
434.969	3.86
435.325	3.88
435.681	3.87
436.036	3.86
436.392	3.85
436.748	3.82
437.104	3.81
437.459	3.8
437.815	3.81
438.171	3.81
438.526	3.82
438.882	3.82
439.237	3.84
439.593	3.86
439.948	3.85
440.304	3.85
440.659	3.86
441.014	3.87
441.369	3.86
441.725	3.87
442.08	3.84
442.435	3.85
442.79	3.84
443.145	3.83
443.5	3.83
443.855	3.83
444.21	3.83
444.565	3.83
444.92	3.86
445.275	3.84
445.629	3.85
445.984	3.86
446.339	3.86
446.693	3.84
447.048	3.82
447.403	3.81
447.757	3.82
448.112	3.8
448.466	3.8
448.82	3.8
449.175	3.8
449.529	3.79
449.883	3.79
450.238	3.79
450.592	3.82
450.946	3.81
451.3	3.82
451.654	3.83
452.008	3.82
452.362	3.8
452.716	3.8
453.07	3.77
453.424	3.77
453.778	3.76
454.132	3.78
454.486	3.78
454.839	3.79
455.193	3.79
455.547	3.79
455.9	3.79
456.254	3.79
456.607	3.8
456.961	3.79
457.314	3.78
457.668	3.79
458.021	3.79
458.375	3.8
458.728	3.79
459.081	3.79
459.434	3.79
459.787	3.79
460.141	3.78
460.494	3.8
460.847	3.79
461.2	3.78
461.553	3.78
461.906	3.77
462.259	3.77
462.611	3.77
462.964	3.78
463.317	3.77
463.67	3.76
464.022	3.76
464.375	3.78
464.728	3.8
465.08	3.8
465.433	3.77
465.785	3.75
466.138	3.75
466.49	3.75
466.843	3.76
467.195	3.76
467.547	3.77
467.899	3.77
468.252	3.76
468.604	3.79
468.956	3.78
469.308	3.78
469.66	3.76
470.012	3.76
470.364	3.75
470.716	3.77
471.068	3.78
471.42	3.78
471.772	3.77
472.123	3.78
472.475	3.78
472.827	3.81
473.178	3.83
473.53	3.82
473.882	3.82
474.233	3.83
474.585	3.82
474.936	3.82
475.288	3.83
475.639	3.85
475.99	3.84
476.342	3.85
476.693	3.87
477.044	3.89
477.395	3.9
477.746	3.9
478.097	3.87
478.448	3.87
478.8	3.85
479.15	3.84
479.501	3.83
479.852	3.86
480.203	3.85
480.554	3.86
480.905	3.88
481.255	3.9
481.606	3.9
481.957	3.91
482.307	3.92
482.658	3.91
483.009	3.9
483.359	3.9
483.709	3.89
484.06	3.89
484.41	3.9
484.761	3.91
485.111	3.91
485.461	3.92
485.811	3.92
486.162	3.93
486.512	3.94
486.862	3.95
487.212	3.94
487.562	3.94
487.912	3.93
488.262	3.93
488.612	3.93
488.961	3.93
489.311	3.94
489.661	3.94
490.011	3.94
490.36	3.94
490.71	3.94
491.06	3.95
491.409	3.95
491.759	3.94
492.108	3.94
492.458	3.93
492.807	3.93
493.157	3.94
493.506	3.94
493.855	3.94
494.204	3.94
494.554	3.95
494.903	3.96
495.252	3.96
495.601	3.98
495.95	3.99
496.299	3.98
496.648	3.96
496.997	3.96
497.346	3.97
497.695	3.99
498.043	3.99
498.392	3.97
498.741	3.99
499.09	3.99
499.438	4
499.787	4.01
500.135	4.01
500.484	4.01
500.832	4.03
501.181	4.02
501.529	4.02
501.878	4.01
502.226	4
502.574	4.01
502.923	3.99
503.271	3.98
503.619	3.99
503.967	4.01
504.315	4.01
504.663	4
505.011	4
505.359	4.01
505.707	4.03
506.055	4.01
506.403	4.03
506.751	4.02
507.098	4.01
507.446	4.03
507.794	4.02
508.141	4.03
508.489	4.05
508.837	4.06
509.184	4.08
509.531	4.07
509.879	4.09
510.226	4.1
510.574	4.1
510.921	4.11
511.268	4.11
511.616	4.13
511.963	4.15
512.31	4.16
512.657	4.18
513.004	4.17
513.351	4.18
513.698	4.17
514.045	4.19
514.392	4.21
514.739	4.19
515.086	4.19
515.432	4.19
515.779	4.17
516.126	4.18
516.473	4.19
516.819	4.22
517.166	4.22
517.512	4.21
517.859	4.21
518.205	4.21
518.552	4.22
518.898	4.22
519.245	4.21
519.591	4.21
519.937	4.18
520.283	4.21
520.629	4.21
520.976	4.23
521.322	4.24
521.668	4.23
522.014	4.26
522.36	4.27
522.706	4.27
523.052	4.27
523.398	4.29
523.743	4.28
524.089	4.28
524.435	4.27
524.781	4.29
525.126	4.31
525.472	4.31
525.817	4.29
526.163	4.29
526.509	4.3
526.854	4.32
527.199	4.34
527.545	4.35
527.89	4.35
528.235	4.35
528.581	4.35
528.926	4.35
529.271	4.35
529.616	4.35
529.961	4.35
530.306	4.36
530.651	4.35
530.996	4.35
531.341	4.36
531.686	4.38
532.031	4.38
532.376	4.36
532.721	4.37
533.065	4.39
533.41	4.41
533.755	4.4
534.099	4.4
534.444	4.39
534.788	4.38
535.133	4.39
535.477	4.38
535.822	4.38
536.166	4.38
536.51	4.39
536.855	4.39
537.199	4.4
537.543	4.4
537.887	4.41
538.231	4.41
538.576	4.4
538.92	4.38
539.264	4.39
539.608	4.41
539.951	4.41
540.295	4.41
540.639	4.41
540.983	4.43
541.327	4.42
541.671	4.43
542.014	4.43
542.358	4.43
542.701	4.43
543.045	4.44
543.389	4.46
543.732	4.45
544.075	4.46
544.419	4.46
544.762	4.45
545.105	4.46
545.449	4.46
545.792	4.46
546.135	4.46
546.478	4.47
546.821	4.45
547.165	4.43
547.508	4.45
547.851	4.42
548.194	4.39
548.536	4.39
548.879	4.37
549.222	4.36
549.565	4.35
549.908	4.36
550.25	4.36
550.593	4.35
550.936	4.33
551.278	4.32
551.621	4.32
551.963	4.32
552.306	4.27
552.648	4.26
552.991	4.3
553.333	4.31
553.675	4.29
554.017	4.32
554.36	4.33
554.702	4.31
555.044	4.34
555.386	4.36
555.728	4.38
556.07	4.41
556.412	4.41
556.754	4.41
557.096	4.39
557.438	4.39
557.78	4.4
558.121	4.42
558.463	4.42
558.805	4.45
559.147	4.44
559.488	4.46
559.83	4.47
560.171	4.46
560.513	4.5
560.854	4.48
561.196	4.46
561.537	4.47
561.878	4.44
562.22	4.4
562.561	4.37
562.902	4.35
563.243	4.33
563.584	4.31
563.925	4.33
564.266	4.3
564.607	4.31
564.948	4.32
565.289	4.31
565.63	4.32
565.971	4.3
566.312	4.32
566.653	4.33
566.993	4.35
567.334	4.34
567.675	4.31
568.015	4.32
568.356	4.3
568.696	4.31
569.037	4.33
569.377	4.36
569.718	4.39
570.058	4.41
570.398	4.42
570.739	4.45
571.079	4.46
571.419	4.48
571.759	4.49
572.099	4.48
572.439	4.49
572.779	4.49
573.119	4.49
573.459	4.48
573.799	4.5
574.139	4.49
574.479	4.49
574.819	4.49
575.158	4.5
575.498	4.53
575.838	4.51
576.177	4.49
576.517	4.51
576.856	4.5
577.196	4.47
577.535	4.48
577.875	4.47
578.214	4.46
578.553	4.47
578.893	4.46
579.232	4.47
579.571	4.46
579.91	4.45
580.25	4.45
580.589	4.42
580.928	4.45
581.267	4.42
581.606	4.36
581.945	4.37
582.283	4.34
582.622	4.35
582.961	4.38
583.3	4.44
583.639	4.43
583.977	4.43
584.316	4.43
584.654	4.41
584.993	4.42
585.332	4.45
585.67	4.45
586.008	4.45
586.347	4.41
586.685	4.43
587.024	4.45
587.362	4.42
587.7	4.45
588.038	4.42
588.376	4.44
588.715	4.46
589.053	4.48
589.391	4.52
589.729	4.49
590.067	4.48
590.404	4.45
590.742	4.48
591.08	4.51
591.418	4.55
591.756	4.6
592.093	4.6
592.431	4.57
592.769	4.56
593.106	4.58
593.444	4.6
593.781	4.59
594.119	4.57
594.456	4.6
594.793	4.59
595.131	4.58
595.468	4.58
595.805	4.62
596.143	4.64
596.48	4.63
596.817	4.63
597.154	4.62
597.491	4.61
597.828	4.58
598.165	4.55
598.502	4.5
598.839	4.47
599.176	4.43
599.512	4.4
599.849	4.41
600.186	4.43
600.523	4.41
600.859	4.43
601.196	4.43
601.532	4.45
601.869	4.45
602.205	4.43
602.542	4.44
602.878	4.44
603.215	4.39
603.551	4.39
603.887	4.4
604.223	4.41
604.56	4.44
604.896	4.48
605.232	4.49
605.568	4.52
605.904	4.53
606.24	4.59
606.576	4.6
606.912	4.57
607.248	4.57
607.583	4.58
607.919	4.55
608.255	4.58
608.591	4.56
608.926	4.58
609.262	4.63
609.597	4.66
609.933	4.66
610.268	4.7
610.604	4.73
610.939	4.73
611.275	4.75
611.61	4.72
611.945	4.69
612.281	4.7
612.616	4.67
612.951	4.69
613.286	4.69
613.621	4.75
613.956	4.74
614.291	4.69
614.626	4.72
614.961	4.76
615.296	4.72
615.631	4.72
615.966	4.71
616.3	4.69
616.635	4.66
616.97	4.66
617.304	4.6
617.639	4.6
617.973	4.64
618.308	4.63
618.642	4.64
618.977	4.63
619.311	4.65
619.646	4.72
619.98	4.69
620.314	4.69
620.648	4.66
620.983	4.71
621.317	4.72
621.651	4.7
621.985	4.67
622.319	4.69
622.653	4.69
622.987	4.68
623.321	4.66
623.655	4.68
623.988	4.72
624.322	4.71
624.656	4.73
624.99	4.74
625.323	4.76
625.657	4.77
625.99	4.8
626.324	4.76
626.657	4.74
626.991	4.75
627.324	4.74
627.658	4.74
627.991	4.73
628.324	4.74
628.657	4.72
628.991	4.72
629.324	4.69
629.657	4.69
629.99	4.71
630.323	4.66
630.656	4.68
630.989	4.71
631.322	4.74
631.655	4.66
631.987	4.63
632.32	4.6
632.653	4.57
632.986	4.56
633.318	4.62
633.651	4.6
633.984	4.59
634.316	4.58
634.649	4.56
634.981	4.48
635.313	4.49
635.646	4.49
635.978	4.52
636.31	4.56
636.643	4.59
636.975	4.57
637.307	4.62
637.639	4.57
637.971	4.5
638.303	4.51
638.635	4.5
638.967	4.5
639.299	4.58
639.631	4.57
639.963	4.54
640.295	4.5
640.626	4.51
640.958	4.53
641.29	4.57
641.621	4.62
641.953	4.67
642.285	4.69
642.616	4.76
642.948	4.75
643.279	4.75
643.61	4.76
643.942	4.78
644.273	4.81
644.604	4.81
644.936	4.82
645.267	4.78
645.598	4.84
645.929	4.84
646.26	4.76
646.591	4.78
646.922	4.79
647.253	4.8
647.584	4.76
647.915	4.71
648.245	4.63
648.576	4.65
648.907	4.65
649.238	4.59
649.568	4.58
649.899	4.61
650.229	4.6
650.56	4.58
650.89	4.62
651.221	4.61
651.551	4.59
651.882	4.63
652.212	4.69
652.542	4.68
652.872	4.68
653.203	4.7
653.533	4.76
653.863	4.79
654.193	4.76
654.523	4.81
654.853	4.87
655.183	4.92
655.513	4.86
655.843	4.91
656.172	4.98
656.502	5.02
656.832	4.98
657.162	5
657.491	4.98
657.821	4.98
658.15	4.95
658.48	4.98
658.809	4.95
659.139	4.93
659.468	4.93
659.798	4.91
660.127	4.93
660.456	4.91
660.785	4.89
661.115	4.92
661.444	4.92
661.773	4.94
662.102	4.9
662.431	4.94
662.76	4.94
663.089	4.91
663.418	4.81
663.747	4.82
664.076	4.86
664.404	4.86
664.733	4.89
665.062	4.91
665.39	4.87
665.719	4.81
666.048	4.82
666.376	4.76
666.705	4.75
667.033	4.74
667.362	4.75
667.69	4.75
668.018	4.79
668.347	4.76
668.675	4.7
669.003	4.71
669.331	4.76
669.659	4.68
669.987	4.64
670.315	4.72
670.643	4.71
670.971	4.67
671.299	4.71
671.627	4.71
671.955	4.82
672.283	4.9
672.61	4.95
672.938	4.93
673.266	5.03
673.593	5.13
673.921	5.06
674.249	5.08
674.576	5.05
674.904	4.99
675.231	4.99
675.558	4.99
675.886	4.96
676.213	4.92
676.54	5.07
676.867	5.19
677.195	5.16
677.522	5.23
677.849	5.3
678.176	5.25
678.503	5.21
678.83	5.14
679.157	5.06
679.484	5.1
679.81	5.15
680.137	5.11
680.464	5.07
680.791	5.11
681.117	5.04
681.444	5.11
681.771	5.15
682.097	5.17
682.424	5.19
682.75	5.24
683.077	5.29
683.403	5.25
683.729	5.13
684.056	5.15
684.382	5.1
684.708	4.99
685.034	5.01
685.36	5
685.686	4.94
686.012	4.94
686.339	4.91
686.664	4.86
686.99	4.89
687.316	4.85
687.642	4.86
687.968	4.92
688.294	4.85
688.619	4.87
688.945	4.86
689.271	4.85
689.596	4.73
689.922	4.68
690.247	4.61
690.573	4.65
690.898	4.66
691.224	4.71
691.549	4.72
691.874	4.72
692.2	4.74
692.525	4.81
692.85	4.92
693.175	4.95
693.5	5
693.825	4.93
694.15	4.96
694.475	4.93
694.8	4.91
695.125	4.9
695.45	4.8
695.775	4.82
696.099	4.84
696.424	4.95
696.749	4.86
697.073	4.83
697.398	4.88
697.723	4.9
698.047	4.87
698.372	4.95
698.696	4.94
699.02	4.93
699.345	4.85
699.669	4.82
699.993	4.76
700.318	4.8
700.642	4.81
700.966	4.81
701.29	4.9
701.614	4.88
701.938	4.85
702.262	5.07
702.586	5.05
702.91	5.05
703.234	5.03
703.557	5.26
703.881	5.24
704.205	5.17
704.529	5.17
704.852	5.15
705.176	5.14
705.499	5.3
705.823	5.42
706.146	5.55
706.47	5.57
706.793	5.56
707.117	5.64
707.44	5.72
707.763	5.76
708.086	5.6
708.409	5.57
708.733	5.69
709.056	5.57
709.379	5.68
709.702	5.55
710.025	5.54
710.348	5.43
710.671	5.51
710.993	5.54
711.316	5.48
711.639	5.5
711.962	5.5
712.284	5.48
712.607	5.36
712.93	5.32
713.252	5.28
713.575	5.36
713.897	5.27
714.22	5.24
714.542	5.19
714.864	5.13
715.187	5.21
715.509	5.26
715.831	5.27
716.153	5.2
716.475	5.36
716.798	5.57
717.12	5.55
717.442	5.55
717.764	5.49
718.085	5.56
718.407	5.49
718.729	5.37
719.051	5.36
719.373	5.31
719.695	5.38
720.016	5.37
720.338	5.42
720.659	5.25
720.981	5.3
721.302	5.38
721.624	5.52
721.945	5.49
722.267	5.28
722.588	5.13
722.909	5.06
723.231	4.97
723.552	4.68
723.873	4.71
724.194	4.68
724.515	4.81
724.836	4.83
725.157	4.98
725.478	4.88
725.799	4.84
726.12	4.87
726.441	4.88
726.762	5.07
727.083	4.82
727.403	5.01
727.724	5.1
728.045	5.05
728.365	5.08
728.686	5.08
729.006	5.08
729.327	5.07
729.647	5.17
729.967	5.14
730.288	5.19
730.608	5.14
730.928	5.12
731.249	4.94
731.569	5
731.889	5.08
732.209	5.26
732.529	5.26
732.849	5.36
733.169	5.17
733.489	4.99
733.809	5.18
734.129	5.09
734.448	4.91
734.768	4.89
735.088	4.75
735.408	4.57
735.727	4.7
736.047	4.71
736.366	4.52
736.686	4.8
737.005	4.86
737.325	4.83
737.644	5.07
737.963	5.24
738.283	5.07
738.602	4.92
738.921	4.91
739.24	4.83
739.56	4.65
739.879	4.85
740.198	4.99
740.517	4.97
740.836	5.02
741.155	5.1
741.473	5.24
741.792	5.3
742.111	5.6
742.43	5.53
742.748	5.63
743.067	5.8
743.386	5.59
743.704	5.54
744.023	5.69
744.341	5.47
744.66	5.59
744.978	5.59
745.297	5.59
745.615	5.69
745.933	5.67
746.252	5.73
746.57	5.66
746.888	5.51
747.206	5.38
747.524	5.57
747.842	5.59
748.16	5.57
748.478	5.84
748.796	5.98
749.114	6.21
749.432	6.1
749.749	6.22
750.067	6.07
750.385	6.2
750.703	6.19
751.02	6.1
751.338	5.94
751.655	5.93
751.973	6.09
752.29	5.87
752.608	6.01
752.925	5.92
753.242	5.71
753.56	5.53
753.877	5.55
754.194	5.41
754.511	5.32
754.828	5.15
755.145	5.02
755.462	4.9
755.779	4.95
756.096	5.15
756.413	5.24
756.73	5.23
757.047	5.14
757.364	5.18
757.68	5.13
757.997	5.03
758.314	5.07
758.63	4.95
758.947	5.1
759.264	4.94
759.58	4.98
759.896	5.28
760.213	5.54
760.529	5.62
760.846	5.66
761.162	5.68
761.478	5.84
761.794	5.74
762.11	5.69
762.426	5.61
762.743	5.66
763.059	5.49
763.375	5.82
763.69	5.79
764.006	5.74
764.322	5.65
764.638	5.68
764.954	5.76
765.27	5.66
765.585	5.53
765.901	5.67
766.216	5.75
766.532	5.52
766.848	5.39
767.163	5.53
767.478	5.52
767.794	5.59
768.109	5.41
768.424	5.64
768.74	5.63
769.055	5.73
769.37	5.59
769.685	5.58
770	5.43
770.315	5.41
770.63	5.54
770.945	5.74
771.26	5.83
771.575	5.68
771.89	5.76
772.205	5.95
772.52	5.69
772.834	5.74
773.149	5.93
773.464	5.96
773.778	6.12
774.093	5.69
774.407	5.84
774.722	5.77
775.036	5.89
775.351	6.08
775.665	5.54
775.979	5.59
776.293	5.68
776.608	5.38
776.922	5.59
777.236	5.46
777.55	5.54
777.864	5.55
778.178	5.82
778.492	6.3
778.806	6.14
779.12	6.24
779.434	6.36
779.747	6.45
780.061	6.5
780.375	5.96
780.689	6.33
781.002	6.33
781.316	6.53
781.629	6.2
781.943	6.09
782.256	6.5
782.57	6.4
782.883	6.86
783.196	7.17
783.51	6.53
783.823	6.03
784.136	6.31
784.449	6.4
784.762	6.22
785.075	6.06
785.388	6.32
785.701	6.43
786.014	6.21
786.327	6.17
786.64	6.52
786.953	6.44
787.266	6.34
787.578	5.9
787.891	6.24
788.204	6.19
788.516	6.57
788.829	6.63
789.141	7.24
789.454	6.66
789.766	6.73
790.079	7.05
790.391	7.64
790.703	7.47
791.016	7.45
791.328	7.29
791.64	7.3
791.952	7.72
792.264	7.48
792.576	7.68
792.888	7.31
793.2	7.14
793.512	7.43
793.824	7.59
794.136	7.48
794.448	6.94
794.76	6.77
795.071	6.23
795.383	5.95
795.695	5.44
796.006	5.74
796.318	5.99
796.629	6.48
796.941	6.14
797.252	6.23
797.564	6.06
797.875	6.37
798.186	5.73
798.497	5.44
798.809	5.55
799.12	5.02
799.431	5.18
799.742	4.71
800.053	4.77
800.364	4.34
800.675	4.41
800.986	4.31
801.297	4.37
801.608	4.07
801.918	3.9
802.229	3.78
802.54	3.57
802.851	2.98
803.161	2.95
803.472	3.5
803.782	3.68
804.093	3.84
804.403	3.46
804.714	3.88
805.024	3.67
805.334	3.96
805.645	4.61
805.955	4.8
806.265	5.62
806.575	5.18
806.885	4.9
807.195	5.31
807.505	5.54
807.815	5.85
808.125	6.02
808.435	6.35
808.745	6.43
809.055	6.66
809.365	6.81
809.674	6.04
809.984	5.83
810.294	5.54
810.603	5.13
810.913	5.1
811.222	5
811.532	5.21
811.841	5.31
812.151	5.52
812.46	5.77
812.769	5.57
813.079	5.87
813.388	6.89
813.697	6.95
814.006	7.39
814.315	7.47
814.624	7.15
814.933	7.39
815.242	7.26
815.551	7.44
815.86	7.53
816.169	7.49
816.478	7.21
816.786	7.49
817.095	8.17
817.404	8.8
817.712	8.7
818.021	8.73
818.33	8.39
818.638	8.27
818.947	8.27
819.255	7.92
819.563	8
819.872	7.65
820.18	7.61
820.488	7.39
820.796	7.39
821.105	7.47
821.413	7.39
821.721	7.41
822.029	7.34
822.337	7.14
822.645	7.24
822.953	7.3
823.26	7.35
823.568	7.17
823.876	7.13
824.184	7.18
824.491	7.09
824.799	7.11
825.107	7.01
825.414	7.14
825.722	7.25
826.029	7.18
826.337	7.24
826.644	7.21
826.951	7.2
827.259	7.11
827.566	7.03
827.873	6.84
828.18	6.9
828.488	6.76
828.795	6.99
829.102	6.95
829.409	7
829.716	6.73
830.023	6.69
830.329	6.44
830.636	6.57
830.943	6.46
831.25	6.12
831.557	6.18
831.863	5.64
832.17	5.17
832.476	5.25
832.783	5.22
833.089	5.06
833.396	5.07
833.702	5.25
834.009	5.57
834.315	5.79
834.621	5.84
834.928	5.83
835.234	5.51
835.54	5.47
835.846	5.38
836.152	5.57
836.458	5.6
836.764	6.29
837.07	5.92
837.376	5.79
837.682	6.26
837.988	5.97
838.293	5.96
838.599	6.44
838.905	6.33
839.211	6.11
839.516	6.24
839.822	6.22
840.127	6.28
840.433	6.72
840.738	6.63
841.044	6.64
841.349	6.46
841.654	6.9
841.959	6.45
842.265	6.95
842.57	6.54
842.875	7.46
843.18	6.88
843.485	7.17
843.79	7.09
844.095	5.83
844.4	6.83
844.705	6.99
845.01	7.29
845.315	6.81
845.619	6.18
845.924	5.8
846.229	5.95
846.533	6.34
846.838	5.37
847.142	6.02
847.447	4.1
847.751	3.57
848.056	1.62
848.36	3.87
848.664	4.19
848.969	4.24
849.273	3.66
849.577	1.09
849.881	0.19
850.185	1.74
850.489	4.65
850.794	2.76
851.097	3.2
851.401	2.54
851.705	2.53
852.009	3.3
852.313	3.37
852.617	3.23
852.92	2.8
853.224	2.28
853.528	3.22
853.831	4.49
854.135	5.29
854.438	6.36
854.742	6.41
855.045	5.09
855.349	4.58
855.652	3.93
855.955	3.91
856.259	5.16
856.562	3.78
856.865	3.54
857.168	4.95
857.471	3.71
857.774	2.84
858.077	4.76
858.38	6.4
858.683	8.07
858.986	7.09
859.289	6.95
859.592	6.09
859.894	6.28
860.197	5.51
860.5	4.88
860.802	4.63
861.105	4
861.407	2.48
861.71	2.79
862.012	3.39
862.315	4.87
862.617	2.97
862.919	2.65
863.222	1.85
863.524	2.54
863.826	4.34
864.128	3.62
864.43	1.88
864.732	2.4
865.034	0.83
865.336	2.45
865.638	0.36
865.94	0.16
866.242	0.86
866.544	1.49
866.846	4.71
867.147	6.05
867.449	5.89
867.751	6.41
868.052	8.1
868.354	5.46
868.655	8.77
868.957	9.09
869.258	10.49
869.56	9.16
869.861	6.92
870.162	6.91
870.463	8.27
870.765	6.87
871.066	6.62
871.367	5.76
871.668	3.1
871.969	2.33
872.27	3.44
872.571	1.18
872.872	2.09
873.173	-1.41
873.473	-2.22
873.774	-2.01
874.075	-0.68
874.376	-2.7
874.676	0.57
874.977	-3.04
875.277	-1.68
875.578	-3.72
875.878	-2.97
876.179	-2.66
876.479	-4.72
876.78	-5.2
877.08	-3.19
877.38	-5.15
877.68	-4.14
877.981	-1.31
878.281	1.73
878.581	2.38
