Data from BA56852_Reflection_00007.txt Node
Date: Mon Nov 18 15:23:03 EST 2019
User: vgr7
Spectrometer: USB2G7710
Scans to average: 3
Trigger mode: 4
Integration Time (sec): 2.000000E-2
Electric dark correction enabled: true
Boxcar width: 10
XAxis mode: Wavelengths
Number of Pixels in Spectrum: 2048
>>>>>Begin Spectral Data<<<<<
177.721	-100.14
178.105	-204.15
178.488	-298.46
178.871	-263.79
179.254	-178.46
179.636	-53.69
180.019	-312.32
180.402	161.29
180.785	528.57
181.168	23.32
181.55	3.88
181.933	55.12
182.316	51.42
182.698	48.08
183.081	35.35
183.463	32.69
183.846	32.6
184.228	49.98
184.611	56.57
184.993	81.35
185.376	66.57
185.758	134.66
186.14	89.15
186.522	86.81
186.904	75.93
187.287	79.78
187.669	34.67
188.051	38.54
188.433	30.36
188.815	26.45
189.197	40.26
189.579	39.1
189.961	51.75
190.342	91.91
190.724	129.44
191.106	122.3
191.488	101.97
191.869	123.22
192.251	169.43
192.633	97.46
193.014	109.16
193.396	210.81
193.777	51.89
194.159	113.45
194.54	127.47
194.922	-8584.21
195.303	-1138.53
195.684	-375.54
196.065	-124.22
196.447	-76.47
196.828	-70.78
197.209	-55.21
197.59	-102.91
197.971	-41.82
198.352	0.44
198.733	-34.21
199.114	-12.72
199.495	16.49
199.876	12.56
200.257	26.49
200.638	28.6
201.018	21.91
201.399	47.44
201.78	25.73
202.16	24.98
202.541	19.99
202.922	28.59
203.302	-5.53
203.683	-29.51
204.063	-53
204.444	-77
204.824	-68.1
205.204	-48.13
205.585	-25.49
205.965	-20.4
206.345	-47.84
206.725	-57.1
207.106	-185.85
207.486	-167.45
207.866	-171.96
208.246	-162.83
208.626	-206.12
209.006	-127.09
209.386	-500
209.766	-674.48
210.145	463.8
210.525	1019.08
210.905	2021.35
211.285	-133.5
211.664	-79.31
212.044	-61.47
212.424	-50.09
212.803	-74.25
213.183	-105.04
213.562	-109.98
213.942	-288.09
214.321	-61.23
214.701	-74.58
215.08	-49.56
215.459	-34.68
215.838	0.86
216.218	-141.18
216.597	-44.44
216.976	-42.16
217.355	-6.31
217.734	-15.34
218.113	4.66
218.492	-32.27
218.871	-48.84
219.25	-23.55
219.629	-4.29
220.008	38.95
220.387	53.3
220.766	44.58
221.144	40.22
221.523	23.04
221.902	11.75
222.28	-2.52
222.659	-1.11
223.037	14.25
223.416	2.28
223.794	-8.34
224.173	1.16
224.551	5.25
224.929	0.59
225.308	-4.7
225.686	-2.76
226.064	-4.18
226.442	0.42
226.821	2.97
227.199	1.9
227.577	0.74
227.955	-2.32
228.333	-4.39
228.711	-1.14
229.089	2.37
229.467	-0.26
229.845	1.06
230.222	3.36
230.6	4.96
230.978	4.3
231.356	5.84
231.733	4.27
232.111	4.25
232.488	3.39
232.866	5.45
233.243	6.83
233.621	4.92
233.998	5.76
234.376	5.37
234.753	6.32
235.13	6.2
235.508	8.55
235.885	8.78
236.262	6.66
236.639	4.14
237.016	3.21
237.393	5.67
237.77	6.28
238.147	5.27
238.524	4.21
238.901	4.51
239.278	4.5
239.655	5.21
240.032	5.46
240.409	5.43
240.785	4.78
241.162	5.05
241.539	5.61
241.915	5.49
242.292	5.46
242.668	5.43
243.045	5.52
243.421	5.07
243.798	4.79
244.174	4.85
244.551	5.12
244.927	5.24
245.303	4.93
245.679	4.64
246.056	4.81
246.432	5.05
246.808	4.93
247.184	4.88
247.56	4.92
247.936	4.79
248.312	4.75
248.688	4.87
249.064	4.56
249.44	4.55
249.815	4.54
250.191	4.67
250.567	4.57
250.943	4.48
251.318	4.6
251.694	4.58
252.069	4.77
252.445	4.8
252.82	4.91
253.196	5.02
253.571	5.22
253.947	5.36
254.322	5.22
254.697	5.52
255.073	5.45
255.448	5.23
255.823	5.2
256.198	5.2
256.573	5.06
256.948	5.05
257.323	4.97
257.698	4.81
258.073	4.5
258.448	4.46
258.823	4.27
259.198	4.13
259.573	4.18
259.948	4.15
260.322	4.1
260.697	4.09
261.072	4.06
261.446	4.16
261.821	4
262.195	4.15
262.57	3.91
262.944	3.7
263.319	3.63
263.693	3.51
264.067	3.61
264.442	3.64
264.816	3.53
265.19	3.35
265.564	3.6
265.938	3.68
266.313	3.67
266.687	3.62
267.061	3.71
267.435	3.68
267.809	3.7
268.183	3.66
268.556	3.37
268.93	3.37
269.304	3.37
269.678	3.42
270.051	3.34
270.425	3.42
270.799	3.56
271.172	3.7
271.546	3.87
271.919	3.74
272.293	3.77
272.666	3.83
273.04	4
273.413	3.8
273.787	3.81
274.16	3.71
274.533	3.96
274.906	3.86
275.279	3.81
275.653	3.8
276.026	3.68
276.399	3.85
276.772	3.9
277.145	3.79
277.518	3.94
277.891	3.87
278.263	3.89
278.636	4.01
279.009	3.92
279.382	4.01
279.755	3.93
280.127	3.99
280.5	4.11
280.872	4.22
281.245	4.31
281.617	4.37
281.99	4.4
282.362	4.35
282.735	4.27
283.107	4.34
283.479	4.47
283.852	4.62
284.224	4.57
284.596	4.42
284.968	4.46
285.34	4.39
285.713	4.47
286.085	4.44
286.457	4.37
286.829	4.36
287.201	4.38
287.572	4.43
287.944	4.3
288.316	4.26
288.688	4.11
289.06	4.03
289.431	4.01
289.803	4.07
290.175	4.03
290.546	4.28
290.918	4.21
291.289	4.2
291.661	4.21
292.032	4.37
292.403	4.43
292.775	4.49
293.146	4.47
293.517	4.42
293.889	4.56
294.26	4.62
294.631	4.67
295.002	4.51
295.373	4.52
295.744	4.58
296.115	4.6
296.486	4.59
296.857	4.57
297.228	4.62
297.599	4.56
297.97	4.6
298.34	4.6
298.711	4.7
299.082	4.74
299.452	4.84
299.823	4.89
300.194	5.01
300.564	4.87
300.935	5.08
301.305	5.1
301.676	5.04
302.046	5.08
302.416	5.16
302.787	5.13
303.157	5.1
303.527	5.17
303.897	5.37
304.267	5.58
304.637	5.79
305.008	5.89
305.378	6.13
305.748	6.19
306.117	6.03
306.487	6.11
306.857	6.06
307.227	6.01
307.597	5.95
307.967	5.91
308.336	5.94
308.706	5.86
309.076	5.9
309.445	5.88
309.815	5.79
310.184	5.92
310.554	6.04
310.923	6.09
311.293	6.11
311.662	5.91
312.031	5.83
312.401	5.76
312.77	5.87
313.139	5.78
313.508	5.76
313.877	5.82
314.246	5.77
314.616	5.77
314.985	5.79
315.353	5.82
315.722	5.94
316.091	6.01
316.46	6.04
316.829	6.1
317.198	6.26
317.567	6.38
317.935	6.33
318.304	6.42
318.672	6.54
319.041	6.54
319.41	6.74
319.778	6.86
320.147	7.02
320.515	7.01
320.883	7.09
321.252	7.22
321.62	7.27
321.988	7.3
322.357	7.38
322.725	7.4
323.093	7.36
323.461	7.34
323.829	7.64
324.197	7.82
324.565	7.89
324.933	7.94
325.301	8.03
325.669	8.02
326.037	8.03
326.405	8.15
326.772	8.29
327.14	8.45
327.508	8.54
327.875	8.53
328.243	8.6
328.61	8.71
328.978	8.72
329.346	8.91
329.713	9
330.08	9.05
330.448	9.17
330.815	9.2
331.182	9.3
331.55	9.17
331.917	9.2
332.284	9.29
332.651	9.34
333.018	9.4
333.385	9.57
333.752	9.55
334.119	9.59
334.486	9.49
334.853	9.45
335.22	9.39
335.587	9.44
335.954	9.39
336.32	9.36
336.687	9.5
337.054	9.47
337.42	9.58
337.787	9.72
338.153	9.86
338.52	10.02
338.886	9.98
339.253	9.98
339.619	10.02
339.986	10
340.352	10.07
340.718	10.12
341.084	10.06
341.451	10.27
341.817	10.32
342.183	10.48
342.549	10.51
342.915	10.73
343.281	10.75
343.647	10.78
344.013	10.86
344.379	10.84
344.745	10.88
345.11	10.8
345.476	10.76
345.842	10.74
346.208	10.74
346.573	10.88
346.939	11.02
347.304	11.04
347.67	11.07
348.035	11.1
348.401	11.19
348.766	11.28
349.132	11.28
349.497	11.33
349.862	11.43
350.228	11.38
350.593	11.35
350.958	11.47
351.323	11.52
351.688	11.53
352.053	11.62
352.418	11.68
352.783	11.69
353.148	11.79
353.513	11.75
353.878	11.87
354.243	11.89
354.608	11.89
354.972	11.86
355.337	11.89
355.702	11.94
356.066	11.92
356.431	11.94
356.795	11.91
357.16	11.9
357.524	11.84
357.889	11.88
358.253	11.89
358.618	11.87
358.982	11.89
359.346	11.86
359.71	11.79
360.075	11.77
360.439	11.72
360.803	11.65
361.167	11.64
361.531	11.54
361.895	11.54
362.259	11.49
362.623	11.47
362.987	11.42
363.351	11.39
363.714	11.32
364.078	11.27
364.442	11.21
364.806	11.23
365.169	11.13
365.533	11.09
365.896	11.04
366.26	11.03
366.623	11.03
366.987	11.01
367.35	10.96
367.714	10.95
368.077	10.92
368.44	10.89
368.803	10.78
369.167	10.7
369.53	10.57
369.893	10.55
370.256	10.52
370.619	10.51
370.982	10.43
371.345	10.36
371.708	10.3
372.071	10.26
372.434	10.09
372.797	10.06
373.159	10
373.522	9.92
373.885	9.8
374.247	9.64
374.61	9.6
374.973	9.5
375.335	9.34
375.698	9.32
376.06	9.22
376.423	9.21
376.785	9.18
377.147	9.17
377.51	9.1
377.872	9.03
378.234	8.98
378.596	8.94
378.958	8.9
379.321	8.88
379.683	8.79
380.045	8.72
380.407	8.71
380.769	8.68
381.13	8.57
381.492	8.46
381.854	8.46
382.216	8.35
382.578	8.36
382.939	8.26
383.301	8.21
383.663	8.09
384.024	8.05
384.386	8.02
384.747	7.95
385.109	7.92
385.47	7.85
385.832	7.76
386.193	7.69
386.554	7.61
386.916	7.52
387.277	7.51
387.638	7.51
387.999	7.41
388.36	7.33
388.721	7.34
389.082	7.28
389.443	7.19
389.804	7.14
390.165	7.05
390.526	7.07
390.887	7.02
391.248	7.04
391.609	6.96
391.969	6.89
392.33	6.85
392.691	6.79
393.051	6.75
393.412	6.67
393.772	6.61
394.133	6.6
394.493	6.55
394.854	6.52
395.214	6.44
395.574	6.39
395.935	6.34
396.295	6.29
396.655	6.25
397.015	6.2
397.376	6.16
397.736	6.13
398.096	6.1
398.456	6.04
398.816	5.98
399.176	5.94
399.535	5.89
399.895	5.88
400.255	5.82
400.615	5.79
400.975	5.76
401.334	5.73
401.694	5.69
402.054	5.64
402.413	5.54
402.773	5.47
403.132	5.46
403.492	5.38
403.851	5.36
404.211	5.33
404.57	5.31
404.929	5.28
405.288	5.26
405.648	5.22
406.007	5.21
406.366	5.2
406.725	5.22
407.084	5.22
407.443	5.19
407.802	5.17
408.161	5.15
408.52	5.14
408.879	5.11
409.238	5.09
409.596	5.09
409.955	5.1
410.314	5.12
410.673	5.09
411.031	5.1
411.39	5.06
411.748	5.06
412.107	5.03
412.465	5.03
412.824	5.02
413.182	4.95
413.54	4.93
413.899	4.9
414.257	4.88
414.615	4.85
414.974	4.83
415.332	4.79
415.69	4.74
416.048	4.72
416.406	4.71
416.764	4.67
417.122	4.67
417.48	4.65
417.838	4.64
418.195	4.64
418.553	4.62
418.911	4.59
419.269	4.58
419.626	4.59
419.984	4.56
420.342	4.54
420.699	4.53
421.057	4.51
421.414	4.51
421.772	4.48
422.129	4.47
422.486	4.44
422.844	4.44
423.201	4.42
423.558	4.41
423.915	4.4
424.273	4.4
424.63	4.37
424.987	4.36
425.344	4.36
425.701	4.36
426.058	4.35
426.415	4.35
426.772	4.34
427.128	4.3
427.485	4.29
427.842	4.27
428.199	4.29
428.555	4.29
428.912	4.26
429.269	4.26
429.625	4.25
429.982	4.24
430.338	4.25
430.695	4.25
431.051	4.25
431.407	4.24
431.764	4.22
432.12	4.23
432.476	4.22
432.832	4.18
433.189	4.17
433.545	4.16
433.901	4.16
434.257	4.17
434.613	4.16
434.969	4.16
435.325	4.15
435.681	4.14
436.036	4.14
436.392	4.13
436.748	4.11
437.104	4.11
437.459	4.11
437.815	4.09
438.171	4.11
438.526	4.1
438.882	4.1
439.237	4.11
439.593	4.11
439.948	4.11
440.304	4.12
440.659	4.12
441.014	4.12
441.369	4.09
441.725	4.07
442.08	4.08
442.435	4.09
442.79	4.09
443.145	4.06
443.5	4.05
443.855	4.05
444.21	4.04
444.565	4.04
444.92	4.04
445.275	4.04
445.629	4.03
445.984	4.01
446.339	4.01
446.693	3.99
447.048	3.97
447.403	3.96
447.757	3.94
448.112	3.91
448.466	3.9
448.82	3.9
449.175	3.89
449.529	3.88
449.883	3.86
450.238	3.85
450.592	3.87
450.946	3.85
451.3	3.84
451.654	3.86
452.008	3.83
452.362	3.81
452.716	3.8
453.07	3.79
453.424	3.79
453.778	3.79
454.132	3.76
454.486	3.73
454.839	3.74
455.193	3.72
455.547	3.74
455.9	3.77
456.254	3.76
456.607	3.76
456.961	3.75
457.314	3.74
457.668	3.75
458.021	3.74
458.375	3.75
458.728	3.76
459.081	3.76
459.434	3.77
459.787	3.77
460.141	3.78
460.494	3.78
460.847	3.77
461.2	3.77
461.553	3.79
461.906	3.8
462.259	3.81
462.611	3.84
462.964	3.86
463.317	3.85
463.67	3.87
464.022	3.87
464.375	3.88
464.728	3.89
465.08	3.9
465.433	3.9
465.785	3.91
466.138	3.9
466.49	3.9
466.843	3.92
467.195	3.94
467.547	3.93
467.899	3.92
468.252	3.92
468.604	3.93
468.956	3.91
469.308	3.93
469.66	3.94
470.012	3.93
470.364	3.92
470.716	3.91
471.068	3.93
471.42	3.94
471.772	3.96
472.123	3.98
472.475	3.98
472.827	3.99
473.178	3.99
473.53	4
473.882	4.01
474.233	4.01
474.585	4.01
474.936	4.02
475.288	4.04
475.639	4.04
475.99	4.05
476.342	4.08
476.693	4.07
477.044	4.08
477.395	4.07
477.746	4.08
478.097	4.08
478.448	4.06
478.8	4.05
479.15	4.04
479.501	4.05
479.852	4.06
480.203	4.06
480.554	4.08
480.905	4.06
481.255	4.06
481.606	4.07
481.957	4.07
482.307	4.07
482.658	4.07
483.009	4.07
483.359	4.07
483.709	4.06
484.06	4.06
484.41	4.06
484.761	4.07
485.111	4.07
485.461	4.07
485.811	4.08
486.162	4.09
486.512	4.09
486.862	4.08
487.212	4.08
487.562	4.09
487.912	4.08
488.262	4.09
488.612	4.09
488.961	4.09
489.311	4.09
489.661	4.09
490.011	4.09
490.36	4.1
490.71	4.11
491.06	4.13
491.409	4.14
491.759	4.15
492.108	4.15
492.458	4.17
492.807	4.17
493.157	4.18
493.506	4.17
493.855	4.19
494.204	4.2
494.554	4.2
494.903	4.21
495.252	4.22
495.601	4.25
495.95	4.27
496.299	4.28
496.648	4.31
496.997	4.36
497.346	4.38
497.695	4.4
498.043	4.41
498.392	4.41
498.741	4.44
499.09	4.44
499.438	4.49
499.787	4.52
500.135	4.55
500.484	4.6
500.832	4.66
501.181	4.71
501.529	4.74
501.878	4.82
502.226	4.85
502.574	4.89
502.923	4.93
503.271	4.96
503.619	5
503.967	5.05
504.315	5.07
504.663	5.13
505.011	5.18
505.359	5.24
505.707	5.33
506.055	5.36
506.403	5.42
506.751	5.49
507.098	5.52
507.446	5.59
507.794	5.65
508.141	5.71
508.489	5.77
508.837	5.83
509.184	5.86
509.531	5.93
509.879	6.01
510.226	6.08
510.574	6.15
510.921	6.23
511.268	6.31
511.616	6.38
511.963	6.46
512.31	6.55
512.657	6.62
513.004	6.7
513.351	6.79
513.698	6.9
514.045	6.99
514.392	7.12
514.739	7.2
515.086	7.3
515.432	7.42
515.779	7.53
516.126	7.66
516.473	7.82
516.819	7.93
517.166	8.03
517.512	8.15
517.859	8.26
518.205	8.35
518.552	8.46
518.898	8.58
519.245	8.69
519.591	8.81
519.937	8.95
520.283	9.09
520.629	9.26
520.976	9.43
521.322	9.61
521.668	9.79
522.014	10.01
522.36	10.2
522.706	10.4
523.052	10.62
523.398	10.88
523.743	11.12
524.089	11.39
524.435	11.65
524.781	11.89
525.126	12.14
525.472	12.38
525.817	12.58
526.163	12.79
526.509	12.98
526.854	13.17
527.199	13.35
527.545	13.52
527.89	13.69
528.235	13.88
528.581	14.06
528.926	14.24
529.271	14.45
529.616	14.65
529.961	14.86
530.306	15.08
530.651	15.3
530.996	15.54
531.341	15.79
531.686	16.05
532.031	16.33
532.376	16.61
532.721	16.9
533.065	17.2
533.41	17.52
533.755	17.84
534.099	18.17
534.444	18.51
534.788	18.86
535.133	19.19
535.477	19.51
535.822	19.88
536.166	20.29
536.51	20.7
536.855	21.12
537.199	21.58
537.543	22.07
537.887	22.55
538.231	23.06
538.576	23.53
538.92	23.99
539.264	24.44
539.608	24.87
539.951	25.3
540.295	25.68
540.639	26.02
540.983	26.39
541.327	26.73
541.671	27.11
542.014	27.43
542.358	27.79
542.701	28.13
543.045	28.46
543.389	28.8
543.732	29.15
544.075	29.51
544.419	29.85
544.762	30.19
545.105	30.55
545.449	30.9
545.792	31.3
546.135	31.72
546.478	32.13
546.821	32.58
547.165	33.02
547.508	33.46
547.851	33.95
548.194	34.42
548.536	34.94
548.879	35.38
549.222	35.81
549.565	36.24
549.908	36.7
550.25	37.16
550.593	37.6
550.936	38.02
551.278	38.43
551.621	38.91
551.963	39.35
552.306	39.69
552.648	40.1
552.991	40.53
553.333	40.91
553.675	41.24
554.017	41.61
554.36	41.89
554.702	42.2
555.044	42.52
555.386	42.87
555.728	43.2
556.07	43.53
556.412	43.86
556.754	44.25
557.096	44.63
557.438	45.01
557.78	45.23
558.121	45.57
558.463	45.96
558.805	46.26
559.147	46.56
559.488	46.88
559.83	47.21
560.171	47.45
560.513	47.75
560.854	48.01
561.196	48.27
561.537	48.61
561.878	48.96
562.22	49.19
562.561	49.38
562.902	49.58
563.243	49.78
563.584	50.08
563.925	50.24
564.266	50.43
564.607	50.59
564.948	50.8
565.289	50.97
565.63	51.19
565.971	51.38
566.312	51.55
566.653	51.76
566.993	51.91
567.334	52.12
567.675	52.31
568.015	52.49
568.356	52.66
568.696	52.8
569.037	52.9
569.377	53.12
569.718	53.33
570.058	53.49
570.398	53.72
570.739	53.85
571.079	53.98
571.419	54.17
571.759	54.32
572.099	54.48
572.439	54.63
572.779	54.7
573.119	54.83
573.459	54.99
573.799	55.11
574.139	55.24
574.479	55.34
574.819	55.44
575.158	55.57
575.498	55.7
575.838	55.82
576.177	56
576.517	56.03
576.856	56.11
577.196	56.29
577.535	56.32
577.875	56.47
578.214	56.63
578.553	56.74
578.893	56.83
579.232	57
579.571	57.12
579.91	57.22
580.25	57.32
580.589	57.42
580.928	57.58
581.267	57.72
581.606	57.79
581.945	57.92
582.283	58.03
582.622	58.19
582.961	58.3
583.3	58.36
583.639	58.57
583.977	58.66
584.316	58.69
584.654	58.79
584.993	58.8
585.332	58.84
585.67	58.86
586.008	59.02
586.347	59.1
586.685	59.2
587.024	59.41
587.362	59.49
587.7	59.53
588.038	59.56
588.376	59.59
588.715	59.7
589.053	59.74
589.391	59.84
589.729	59.95
590.067	59.95
590.404	60.03
590.742	60.08
591.08	60.22
591.418	60.37
591.756	60.42
592.093	60.51
592.431	60.6
592.769	60.67
593.106	60.65
593.444	60.67
593.781	60.69
594.119	60.66
594.456	60.68
594.793	60.78
595.131	60.77
595.468	60.75
595.805	60.78
596.143	60.85
596.48	60.87
596.817	60.87
597.154	60.96
597.491	61.03
597.828	61.07
598.165	61.06
598.502	60.99
598.839	61.09
599.176	61.11
599.512	61.2
599.849	61.3
600.186	61.41
600.523	61.46
600.859	61.52
601.196	61.59
601.532	61.68
601.869	61.69
602.205	61.82
602.542	61.91
602.878	61.97
603.215	62
603.551	62.06
603.887	62.17
604.223	62.22
604.56	62.17
604.896	62.25
605.232	62.29
605.568	62.32
605.904	62.29
606.24	62.36
606.576	62.37
606.912	62.38
607.248	62.41
607.583	62.48
607.919	62.53
608.255	62.61
608.591	62.62
608.926	62.68
609.262	62.72
609.597	62.82
609.933	62.87
610.268	62.9
610.604	62.92
610.939	62.96
611.275	62.99
611.61	63.12
611.945	63.18
612.281	63.22
612.616	63.32
612.951	63.43
613.286	63.5
613.621	63.57
613.956	63.58
614.291	63.65
614.626	63.73
614.961	63.78
615.296	63.78
615.631	63.89
615.966	64
616.3	64
616.635	63.92
616.97	64.01
617.304	64.08
617.639	64.18
617.973	64.21
618.308	64.32
618.642	64.39
618.977	64.37
619.311	64.36
619.646	64.34
619.98	64.39
620.314	64.43
620.648	64.48
620.983	64.53
621.317	64.55
621.651	64.62
621.985	64.61
622.319	64.62
622.653	64.53
622.987	64.35
623.321	64.4
623.655	64.43
623.988	64.33
624.322	64.29
624.656	64.21
624.99	64.16
625.323	64.17
625.657	64.14
625.99	64.16
626.324	64.22
626.657	64.25
626.991	64.25
627.324	64.21
627.658	64.27
627.991	64.37
628.324	64.38
628.657	64.32
628.991	64.35
629.324	64.31
629.657	64.52
629.99	64.63
630.323	64.62
630.656	64.71
630.989	64.8
631.322	64.86
631.655	64.96
631.987	64.95
632.32	64.92
632.653	64.95
632.986	64.99
633.318	64.92
633.651	64.98
633.984	65.08
634.316	65.17
634.649	65.11
634.981	65.04
635.313	65.08
635.646	65.18
635.978	65.14
636.31	65.23
636.643	65.13
636.975	65.21
637.307	65.3
637.639	65.34
637.971	65.33
638.303	65.34
638.635	65.32
638.967	65.37
639.299	65.43
639.631	65.53
639.963	65.5
640.295	65.57
640.626	65.67
640.958	65.65
641.29	65.69
641.621	65.79
641.953	65.78
642.285	65.74
642.616	65.7
642.948	65.78
643.279	65.8
643.61	65.79
643.942	65.74
644.273	65.67
644.604	65.67
644.936	65.79
645.267	65.7
645.598	65.67
645.929	65.72
646.26	65.62
646.591	65.5
646.922	65.61
647.253	65.71
647.584	65.59
647.915	65.54
648.245	65.43
648.576	65.38
648.907	65.45
649.238	65.49
649.568	65.41
649.899	65.37
650.229	65.56
650.56	65.6
650.89	65.75
651.221	65.88
651.551	65.87
651.882	65.78
652.212	65.85
652.542	65.95
652.872	65.9
653.203	66.05
653.533	66.13
653.863	66.15
654.193	66.15
654.523	66.22
654.853	66.38
655.183	66.54
655.513	66.71
655.843	66.77
656.172	66.84
656.502	66.96
656.832	67.03
657.162	66.94
657.491	66.96
657.821	66.94
658.15	66.86
658.48	66.95
658.809	66.98
659.139	67.05
659.468	67.05
659.798	67.11
660.127	67.1
660.456	67.1
660.785	67.09
661.115	67.08
661.444	67.2
661.773	67.14
662.102	67.08
662.431	66.95
662.76	67.1
663.089	67.13
663.418	67.21
663.747	67.28
664.076	67.19
664.404	67.28
664.733	67.25
665.062	67.19
665.39	67.2
665.719	67.17
666.048	67.1
666.376	66.99
666.705	66.95
667.033	66.84
667.362	66.78
667.69	66.71
668.018	66.73
668.347	66.65
668.675	66.57
669.003	66.46
669.331	66.46
669.659	66.25
669.987	66.17
670.315	66.06
670.643	65.91
670.971	65.99
671.299	65.96
671.627	65.93
671.955	66.14
672.283	66.06
672.61	66.04
672.938	66.18
673.266	66.35
673.593	66.45
673.921	66.53
674.249	66.59
674.576	66.7
674.904	66.89
675.231	66.88
675.558	66.86
675.886	66.87
676.213	66.99
676.54	67.09
676.867	67.11
677.195	67.17
677.522	67.31
677.849	67.32
678.176	67.26
678.503	67.41
678.83	67.34
679.157	67.33
679.484	67.39
679.81	67.34
680.137	67.37
680.464	67.42
680.791	67.46
681.117	67.44
681.444	67.33
681.771	67.23
682.097	67.12
682.424	67.28
682.75	67.25
683.077	67.34
683.403	67.37
683.729	67.5
684.056	67.54
684.382	67.67
684.708	67.72
685.034	67.71
685.36	67.66
685.686	67.71
686.012	67.6
686.339	67.63
686.664	67.83
686.99	67.81
687.316	67.68
687.642	67.81
687.968	67.82
688.294	67.87
688.619	67.98
688.945	68.24
689.271	68.26
689.596	68.5
689.922	68.35
690.247	68.21
690.573	68.15
690.898	68.12
691.224	67.93
691.549	67.89
691.874	67.89
692.2	67.84
692.525	67.72
692.85	67.93
693.175	67.94
693.5	67.69
693.825	67.78
694.15	67.94
694.475	67.88
694.8	67.8
695.125	67.77
695.45	67.69
695.775	67.83
696.099	67.8
696.424	67.79
696.749	67.73
697.073	67.83
697.398	67.78
697.723	67.76
698.047	67.73
698.372	67.84
698.696	67.87
699.02	67.91
699.345	68.02
699.669	67.98
699.993	67.96
700.318	68
700.642	67.76
700.966	67.64
701.29	67.64
701.614	67.77
701.938	67.98
702.262	68.01
702.586	67.74
702.91	67.67
703.234	67.73
703.557	67.82
703.881	67.82
704.205	67.97
704.529	68.14
704.852	68.32
705.176	68.43
705.499	68.53
705.823	68.53
706.146	68.52
706.47	68.61
706.793	68.86
707.117	68.91
707.44	69.02
707.763	69.02
708.086	69.08
708.409	69.3
708.733	68.96
709.056	68.92
709.379	68.88
709.702	69.07
710.025	69.07
710.348	69.14
710.671	69.08
710.993	69.11
711.316	69.05
711.639	69.05
711.962	68.98
712.284	69
712.607	69.01
712.93	68.83
713.252	69.01
713.575	68.87
713.897	68.89
714.22	69.09
714.542	69.11
714.864	68.98
715.187	68.83
715.509	69.11
715.831	69.28
716.153	69.44
716.475	69.16
716.798	68.91
717.12	68.78
717.442	68.83
717.764	68.78
718.085	68.85
718.407	68.79
718.729	68.67
719.051	68.59
719.373	68.51
719.695	68.46
720.016	68.13
720.338	68.27
720.659	68.44
720.981	68.38
721.302	68.53
721.624	68.68
721.945	68.68
722.267	68.66
722.588	68.4
722.909	68.38
723.231	68.61
723.552	68.79
723.873	68.95
724.194	69.15
724.515	68.9
724.836	68.54
725.157	68.41
725.478	68.28
725.799	68.43
726.12	68.49
726.441	68.85
726.762	68.96
727.083	69.02
727.403	68.83
727.724	68.96
728.045	69.05
728.365	69.02
728.686	69.13
729.006	69.07
729.327	69.18
729.647	68.99
729.967	69.08
730.288	69.12
730.608	69.01
730.928	69.02
731.249	69.01
731.569	69.33
731.889	69.64
732.209	69.87
732.529	69.77
732.849	69.88
733.169	69.74
733.489	69.7
733.809	69.58
734.129	69.53
734.448	69.47
734.768	69.17
735.088	69.25
735.408	69.23
735.727	69.15
736.047	69.3
736.366	69.52
736.686	69.37
737.005	68.94
737.325	68.86
737.644	68.73
737.963	68.89
738.283	68.76
738.602	68.66
738.921	68.54
739.24	68.77
739.56	69.01
739.879	69.16
740.198	69.5
740.517	69.45
740.836	69.29
741.155	69.33
741.473	69.25
741.792	68.8
742.111	68.77
742.43	68.74
742.748	68.42
743.067	68.7
743.386	68.71
743.704	69.28
744.023	69.3
744.341	69.27
744.66	69.18
744.978	69.17
745.297	69.28
745.615	69.67
745.933	69.46
746.252	69.23
746.57	69.08
746.888	68.99
747.206	69.04
747.524	69.17
747.842	68.99
748.16	69.63
748.478	70.12
748.796	69.94
749.114	70.17
749.432	70.16
749.749	69.82
750.067	69.67
750.385	69.66
750.703	69.92
751.02	70
751.338	70.11
751.655	70.37
751.973	70.01
752.29	69.68
752.608	69.84
752.925	69.89
753.242	69.8
753.56	69.54
753.877	69.06
754.194	69.24
754.511	69.09
754.828	68.7
755.145	68.4
755.462	68.37
755.779	68.56
756.096	68.56
756.413	68.41
756.73	68.68
757.047	68.72
757.364	68.78
757.68	68.83
757.997	68.99
758.314	68.7
758.63	69.24
758.947	69.27
759.264	69.23
759.58	68.94
759.896	69.19
760.213	69.37
760.529	69.8
760.846	69.72
761.162	69.66
761.478	69.76
761.794	70.13
762.11	70.06
762.426	69.85
762.743	69.82
763.059	69.92
763.375	70.09
763.69	70.02
764.006	70.12
764.322	70.13
764.638	70.16
764.954	70.23
765.27	69.74
765.585	69.54
765.901	69.65
766.216	69.88
766.532	69.93
766.848	69.94
767.163	70.2
767.478	70.36
767.794	70.62
768.109	70.36
768.424	70.08
768.74	70.34
769.055	70.31
769.37	70.45
769.685	70.25
770	70.1
770.315	70.27
770.63	70.04
770.945	69.57
771.26	69.46
771.575	69.8
771.89	70.22
772.205	70.71
772.52	70.66
772.834	70.47
773.149	70.1
773.464	70.24
773.778	70.08
774.093	69.93
774.407	69.86
774.722	70
775.036	70.3
775.351	70.4
775.665	70.52
775.979	70.55
776.293	70.6
776.608	70.51
776.922	70.31
777.236	70.37
777.55	71.22
777.864	71.27
778.178	71.43
778.492	71.86
778.806	71.38
779.12	71.16
779.434	71.71
779.747	72.27
780.061	71.76
780.375	71.62
780.689	71.3
781.002	71.86
781.316	72.3
781.629	72.04
781.943	72.02
782.256	72.13
782.57	71.96
782.883	72.58
783.196	72.39
783.51	72.17
783.823	72.46
784.136	72.43
784.449	72.55
784.762	72
785.075	71.54
785.388	72.2
785.701	72.24
786.014	71.25
786.327	70.59
786.64	71.31
786.953	70.91
787.266	71.41
787.578	70.88
787.891	71.31
788.204	71.61
788.516	71.5
788.829	71.16
789.141	71.33
789.454	71.22
789.766	71.82
790.079	72.52
790.391	72.15
790.703	71.66
791.016	70.99
791.328	71.16
791.64	71.23
791.952	70.95
792.264	70.66
792.576	71.67
792.888	72.45
793.2	72.3
793.512	72.81
793.824	72.29
794.136	71.76
794.448	71.21
794.76	71.05
795.071	70.87
795.383	70.74
795.695	70.82
796.006	70.48
796.318	70.14
796.629	70.04
796.941	70.24
797.252	70.72
797.564	71.47
797.875	71.51
798.186	71.5
798.497	71.5
798.809	71.79
799.12	71.72
799.431	71.47
799.742	70.86
800.053	71.01
800.364	71.12
800.675	71.39
800.986	71.68
801.297	71.85
801.608	71.68
801.918	71.84
802.229	71.82
802.54	72.62
802.851	72.08
803.161	71.7
803.472	71.36
803.782	71.01
804.093	70.53
804.403	70.11
804.714	69.84
805.024	69.62
805.334	69.73
805.645	69.19
805.955	68.8
806.265	69.19
806.575	68.47
806.885	68.77
807.195	69.51
807.505	69.64
807.815	69.37
808.125	69.35
808.435	69.46
808.745	69.56
809.055	68.74
809.365	69.63
809.674	69.71
809.984	69.33
810.294	68.65
810.603	69.45
810.913	69.92
811.222	70
811.532	69.94
811.841	70.22
812.151	70.78
812.46	71.31
812.769	71.24
813.079	70.38
813.388	70.08
813.697	69.24
814.006	68.7
814.315	68.92
814.624	68.67
814.933	68.34
815.242	68.54
815.551	68.52
815.86	68.78
816.169	68.72
816.478	69.21
816.786	69.6
817.095	69.92
817.404	69.48
817.712	69.56
818.021	69.88
818.33	69.81
818.638	69.46
818.947	69.33
819.255	69.46
819.563	69.97
819.872	70.2
820.18	70.9
820.488	70.87
820.796	71.07
821.105	71.53
821.413	71.8
821.721	71.94
822.029	72.14
822.337	71.87
822.645	72.02
822.953	72.01
823.26	72.04
823.568	71.77
823.876	71.84
824.184	71.65
824.491	71.59
824.799	71.46
825.107	71.36
825.414	71.24
825.722	71.19
826.029	71.45
826.337	71.41
826.644	71.33
826.951	71.3
827.259	71.22
827.566	70.8
827.873	70.74
828.18	70.35
828.488	70.01
828.795	70.3
829.102	69.99
829.409	70.1
829.716	69.94
830.023	70.07
830.329	69.94
830.636	70.21
830.943	70.64
831.25	70.55
831.557	71.11
831.863	71.34
832.17	72.23
832.476	72.28
832.783	72.43
833.089	72.11
833.396	71.99
833.702	72
834.009	72.77
834.315	73.06
834.621	73.36
834.928	73.44
835.234	73.43
835.54	73.61
835.846	73.59
836.152	74.06
836.458	74.23
836.764	74.44
837.07	74.19
837.376	73.57
837.682	73.29
837.988	72.94
838.293	73.01
838.599	72.44
838.905	71.6
839.211	71.31
839.516	71.1
839.822	71.88
840.127	71.88
840.433	71.81
840.738	71.05
841.044	71.23
841.349	71.56
841.654	70.29
841.959	70.53
842.265	70.3
842.57	68.16
842.875	68.02
843.18	68.39
843.485	68.44
843.79	68.51
844.095	69.48
844.4	71.09
844.705	71.31
845.01	70.86
845.315	71.84
845.619	71.07
845.924	71.54
846.229	70.64
846.533	70.79
846.838	70.94
847.142	70.72
847.447	70.02
847.751	69.41
848.056	68.37
848.36	68.23
848.664	66.06
848.969	69.2
849.273	68.23
849.577	66.84
849.881	68.04
850.185	68.53
850.489	68.99
850.794	66.02
851.097	65.37
851.401	63.86
851.705	64.67
852.009	68.49
852.313	70.26
852.617	70.46
852.92	68.92
853.224	69.87
853.528	69.97
853.831	70.36
854.135	68.99
854.438	68.99
854.742	68.24
855.045	71.18
855.349	68.75
855.652	68.94
855.955	68.87
856.259	68.47
856.562	67.13
856.865	65.48
857.168	65.29
857.471	66.95
857.774	67.52
858.077	69.21
858.38	68.27
858.683	65.76
858.986	67.35
859.289	68.63
859.592	66.15
859.894	69.11
860.197	66.71
860.5	69.09
860.802	70.11
861.105	70.18
861.407	68.99
861.71	72.67
862.012	71.42
862.315	70.97
862.617	73.36
862.919	75.09
863.222	75.83
863.524	77.26
863.826	78.73
864.128	82.05
864.43	83.35
864.732	82.39
865.034	82.1
865.336	76.94
865.638	73.32
865.94	74.08
866.242	70.28
866.544	74
866.846	74.19
867.147	73.85
867.449	75.66
867.751	77.01
868.052	75.68
868.354	77.16
868.655	76.13
868.957	72.24
869.258	74.8
869.56	76.21
869.861	72.23
870.162	68.58
870.463	66.73
870.765	64.92
871.066	63.52
871.367	63.84
871.668	66.06
871.969	68.57
872.27	70.33
872.571	72.35
872.872	71.29
873.173	70.33
873.473	71.92
873.774	72.38
874.075	72.13
874.376	68.48
874.676	69.07
874.977	70.84
875.277	71
875.578	69.39
875.878	68.97
876.179	72.31
876.479	74.17
876.78	73.7
877.08	71.38
877.38	73.8
877.68	75.11
877.981	76.98
878.281	78.3
878.581	74.92
