Data from BA56832_Reflection_00013.txt Node
Date: Mon Nov 18 16:10:08 EST 2019
User: vgr7
Spectrometer: USB2G7710
Scans to average: 3
Trigger mode: 4
Integration Time (sec): 2.000000E-2
Electric dark correction enabled: true
Boxcar width: 10
XAxis mode: Wavelengths
Number of Pixels in Spectrum: 2048
>>>>>Begin Spectral Data<<<<<
177.721	-18.67
178.105	28.26
178.488	30.58
178.871	85.06
179.254	32.01
179.636	-148.09
180.019	19.77
180.402	307.69
180.785	605.15
181.168	319.18
181.55	39.69
181.933	76.55
182.316	103.61
182.698	140.28
183.081	110.86
183.463	140.37
183.846	179.09
184.228	125.32
184.611	181.59
184.993	146.13
185.376	143.93
185.758	209.6
186.14	350.81
186.522	696.93
186.904	8376.6
187.287	5879.66
187.669	-1878.42
188.051	-435.08
188.433	-433.42
188.815	-696.26
189.197	-376.13
189.579	-223.47
189.961	-204.21
190.342	-277.57
190.724	-271.23
191.106	-237.37
191.488	-260.72
191.869	-186.66
192.251	-174.91
192.633	-216.11
193.014	-310.46
193.396	-457.98
193.777	-688.2
194.159	-935.96
194.54	-324.79
194.922	-244.29
195.303	-288.85
195.684	-250.09
196.065	-153.53
196.447	-132.12
196.828	-131.82
197.209	-138.06
197.59	-122.78
197.971	-136.19
198.352	-192.95
198.733	-206.16
199.114	-138.87
199.495	-107.85
199.876	-175.84
200.257	-138.32
200.638	-97.72
201.018	-85.09
201.399	-72.02
201.78	-66.05
202.16	-74.18
202.541	-119.49
202.922	-223.06
203.302	-255.46
203.683	-213.36
204.063	-256.41
204.444	-286.35
204.824	-185.91
205.204	-183.72
205.585	-184.01
205.965	-173.08
206.345	-172.27
206.725	-173.91
207.106	-288.29
207.486	-524.15
207.866	-491.23
208.246	-1021.78
208.626	16410.34
209.006	-4326.09
209.386	-1315.58
209.766	-754.69
210.145	-437.15
210.525	-270.35
210.905	-193.29
211.285	-141.24
211.664	-148.52
212.044	-136.62
212.424	-118.65
212.803	-207.05
213.183	-198.53
213.562	-154.57
213.942	-152.31
214.321	-118.22
214.701	-127.56
215.08	-105.41
215.459	-80.2
215.838	-67.88
216.218	-74.88
216.597	-57.07
216.976	-49.6
217.355	-45.18
217.734	-33.54
218.113	-52.59
218.492	-82.35
218.871	-81.17
219.25	-65.38
219.629	-70.67
220.008	-103.87
220.387	-101.68
220.766	-75.01
221.144	-99.44
221.523	-134.79
221.902	-151.17
222.28	-167.23
222.659	-121.04
223.037	-116.9
223.416	-119.54
223.794	-109.39
224.173	-97.73
224.551	-90.27
224.929	-80.03
225.308	-66.27
225.686	-57.91
226.064	-48.12
226.442	-39.88
226.821	-32.94
227.199	-32.19
227.577	-31.57
227.955	-28.09
228.333	-25.21
228.711	-21.38
229.089	-15.1
229.467	-16.34
229.845	-14.79
230.222	-11.34
230.6	-12.92
230.978	-10.84
231.356	-9.03
231.733	-8.23
232.111	-5.73
232.488	-2.48
232.866	-1.21
233.243	-2.22
233.621	-0.78
233.998	1.44
234.376	1.81
234.753	0.47
235.13	0.67
235.508	2.38
235.885	1.6
236.262	-0.14
236.639	-1.12
237.016	-1.17
237.393	0.06
237.77	0.78
238.147	0.89
238.524	3.02
238.901	3.42
239.278	3.25
239.655	4
240.032	3.89
240.409	2.81
240.785	2.73
241.162	3.25
241.539	3.64
241.915	2.84
242.292	2.47
242.668	2.57
243.045	2.72
243.421	2.73
243.798	2.84
244.174	2.83
244.551	3.13
244.927	3.09
245.303	3.15
245.679	3.23
246.056	3.41
246.432	3.2
246.808	3.18
247.184	3.16
247.56	2.92
247.936	2.69
248.312	2.8
248.688	2.69
249.064	2.46
249.44	2.35
249.815	2.58
250.191	2.88
250.567	3.09
250.943	2.9
251.318	3.06
251.694	3.06
252.069	3.16
252.445	3.02
252.82	2.76
253.196	2.84
253.571	2.65
253.947	2.73
254.322	2.64
254.697	2.36
255.073	2.28
255.448	2.35
255.823	2.54
256.198	2.72
256.573	2.83
256.948	3.01
257.323	2.99
257.698	3.02
258.073	3.06
258.448	3
258.823	3.18
259.198	3.07
259.573	3.1
259.948	3.05
260.322	3.07
260.697	3.24
261.072	3.12
261.446	3.27
261.821	3.1
262.195	3.22
262.57	3.28
262.944	3.3
263.319	3.24
263.693	3.13
264.067	3.28
264.442	3.35
264.816	3.19
265.19	3.21
265.564	3.3
265.938	3.16
266.313	2.99
266.687	2.88
267.061	2.96
267.435	2.87
267.809	2.92
268.183	3.11
268.556	2.93
268.93	3.03
269.304	2.88
269.678	2.97
270.051	2.77
270.425	2.98
270.799	3.07
271.172	3.17
271.546	3.23
271.919	2.93
272.293	2.81
272.666	2.88
273.04	2.87
273.413	2.79
273.787	2.83
274.16	3.02
274.533	2.93
274.906	2.82
275.279	2.87
275.653	2.8
276.026	2.7
276.399	2.74
276.772	2.67
277.145	2.69
277.518	2.7
277.891	2.89
278.263	2.72
278.636	2.66
279.009	2.72
279.382	2.8
279.755	3.01
280.127	3.11
280.5	3.21
280.872	3.42
281.245	3.35
281.617	3.41
281.99	3.47
282.362	3.55
282.735	3.56
283.107	3.47
283.479	3.5
283.852	3.47
284.224	3.61
284.596	3.62
284.968	3.68
285.34	3.64
285.713	3.6
286.085	3.58
286.457	3.71
286.829	3.69
287.201	3.77
287.572	3.58
287.944	3.49
288.316	3.5
288.688	3.38
289.06	3.47
289.431	3.43
289.803	3.41
290.175	3.4
290.546	3.47
290.918	3.42
291.289	3.44
291.661	3.4
292.032	3.47
292.403	3.48
292.775	3.46
293.146	3.36
293.517	3.51
293.889	3.61
294.26	3.62
294.631	3.64
295.002	3.5
295.373	3.73
295.744	3.84
296.115	3.81
296.486	3.73
296.857	3.7
297.228	3.79
297.599	3.76
297.97	3.79
298.34	3.81
298.711	3.97
299.082	3.91
299.452	3.99
299.823	3.99
300.194	4.03
300.564	3.95
300.935	4.13
301.305	4.01
301.676	4.05
302.046	3.94
302.416	3.97
302.787	3.94
303.157	4.04
303.527	3.97
303.897	3.97
304.267	4.17
304.637	4.18
305.008	4.24
305.378	4.25
305.748	4.33
306.117	4.33
306.487	4.37
306.857	4.57
307.227	4.62
307.597	4.5
307.967	4.58
308.336	4.8
308.706	4.77
309.076	4.69
309.445	4.61
309.815	4.63
310.184	4.59
310.554	4.74
310.923	4.58
311.293	4.73
311.662	4.79
312.031	4.64
312.401	4.68
312.77	4.7
313.139	4.87
313.508	4.77
313.877	4.74
314.246	4.8
314.616	4.74
314.985	4.78
315.353	4.87
315.722	4.79
316.091	4.76
316.46	4.76
316.829	4.95
317.198	5.01
317.567	5.07
317.935	5.17
318.304	5.29
318.672	5.36
319.041	5.44
319.41	5.48
319.778	5.6
320.147	5.72
320.515	5.71
320.883	5.55
321.252	5.67
321.62	5.66
321.988	5.51
322.357	5.63
322.725	5.54
323.093	5.43
323.461	5.45
323.829	5.47
324.197	5.57
324.565	5.64
324.933	5.6
325.301	5.61
325.669	5.59
326.037	5.49
326.405	5.49
326.772	5.35
327.14	5.4
327.508	5.43
327.875	5.33
328.243	5.35
328.61	5.33
328.978	5.38
329.346	5.45
329.713	5.46
330.08	5.44
330.448	5.39
330.815	5.46
331.182	5.57
331.55	5.74
331.917	5.8
332.284	5.73
332.651	5.78
333.018	5.77
333.385	5.87
333.752	5.91
334.119	5.99
334.486	6.01
334.853	6.01
335.22	6.03
335.587	6.07
335.954	5.97
336.32	5.94
336.687	5.92
337.054	5.9
337.42	5.93
337.787	5.97
338.153	6.1
338.52	6.15
338.886	6.05
339.253	5.91
339.619	5.87
339.986	5.81
340.352	5.85
340.718	5.87
341.084	5.81
341.451	5.92
341.817	5.95
342.183	6.1
342.549	6.03
342.915	6.1
343.281	6.11
343.647	6.14
344.013	6.22
344.379	6.14
344.745	6.21
345.11	6.31
345.476	6.26
345.842	6.28
346.208	6.28
346.573	6.4
346.939	6.45
347.304	6.48
347.67	6.55
348.035	6.52
348.401	6.59
348.766	6.72
349.132	6.65
349.497	6.64
349.862	6.61
350.228	6.68
350.593	6.65
350.958	6.73
351.323	6.8
351.688	6.88
352.053	7.04
352.418	7.09
352.783	7.1
353.148	7.19
353.513	7.19
353.878	7.2
354.243	7.2
354.608	7.17
354.972	7.12
355.337	7.2
355.702	7.28
356.066	7.27
356.431	7.13
356.795	7.17
357.16	7.14
357.524	7.05
357.889	7.03
358.253	7.05
358.618	7.01
358.982	6.98
359.346	6.93
359.71	6.79
360.075	6.69
360.439	6.7
360.803	6.7
361.167	6.57
361.531	6.53
361.895	6.44
362.259	6.4
362.623	6.42
362.987	6.36
363.351	6.28
363.714	6.29
364.078	6.31
364.442	6.27
364.806	6.27
365.169	6.26
365.533	6.24
365.896	6.18
366.26	6.14
366.623	6.13
366.987	6.1
367.35	6.14
367.714	6.16
368.077	6.06
368.44	6.01
368.803	6.06
369.167	6.01
369.53	5.98
369.893	5.99
370.256	5.9
370.619	5.83
370.982	5.84
371.345	5.74
371.708	5.77
372.071	5.73
372.434	5.64
372.797	5.68
373.159	5.65
373.522	5.63
373.885	5.64
374.247	5.59
374.61	5.58
374.973	5.52
375.335	5.46
375.698	5.5
376.06	5.49
376.423	5.47
376.785	5.5
377.147	5.52
377.51	5.47
377.872	5.51
378.234	5.49
378.596	5.49
378.958	5.48
379.321	5.39
379.683	5.38
380.045	5.44
380.407	5.35
380.769	5.3
381.13	5.29
381.492	5.2
381.854	5.21
382.216	5.15
382.578	5.15
382.939	5.13
383.301	5.08
383.663	5.02
384.024	4.97
384.386	5
384.747	4.98
385.109	4.96
385.47	4.89
385.832	4.91
386.193	4.91
386.554	4.87
386.916	4.86
387.277	4.87
387.638	4.8
387.999	4.74
388.36	4.72
388.721	4.69
389.082	4.68
389.443	4.64
389.804	4.65
390.165	4.66
390.526	4.66
390.887	4.6
391.248	4.62
391.609	4.63
391.969	4.56
392.33	4.54
392.691	4.53
393.051	4.49
393.412	4.46
393.772	4.42
394.133	4.42
394.493	4.41
394.854	4.35
395.214	4.33
395.574	4.36
395.935	4.34
396.295	4.33
396.655	4.3
397.015	4.25
397.376	4.23
397.736	4.2
398.096	4.21
398.456	4.2
398.816	4.15
399.176	4.11
399.535	4.09
399.895	4.09
400.255	4.05
400.615	4.07
400.975	4.02
401.334	3.99
401.694	3.96
402.054	3.94
402.413	3.92
402.773	3.88
403.132	3.85
403.492	3.85
403.851	3.83
404.211	3.84
404.57	3.85
404.929	3.8
405.288	3.77
405.648	3.72
406.007	3.72
406.366	3.7
406.725	3.71
407.084	3.72
407.443	3.69
407.802	3.71
408.161	3.68
408.52	3.67
408.879	3.67
409.238	3.67
409.596	3.62
409.955	3.62
410.314	3.63
410.673	3.62
411.031	3.6
411.39	3.58
411.748	3.57
412.107	3.59
412.465	3.61
412.824	3.61
413.182	3.6
413.54	3.6
413.899	3.59
414.257	3.6
414.615	3.58
414.974	3.58
415.332	3.57
415.69	3.56
416.048	3.55
416.406	3.54
416.764	3.53
417.122	3.54
417.48	3.51
417.838	3.51
418.195	3.49
418.553	3.49
418.911	3.47
419.269	3.47
419.626	3.45
419.984	3.44
420.342	3.44
420.699	3.45
421.057	3.43
421.414	3.43
421.772	3.39
422.129	3.37
422.486	3.36
422.844	3.34
423.201	3.33
423.558	3.31
423.915	3.32
424.273	3.32
424.63	3.32
424.987	3.32
425.344	3.31
425.701	3.31
426.058	3.3
426.415	3.3
426.772	3.3
427.128	3.29
427.485	3.29
427.842	3.27
428.199	3.25
428.555	3.26
428.912	3.27
429.269	3.28
429.625	3.29
429.982	3.31
430.338	3.31
430.695	3.33
431.051	3.34
431.407	3.34
431.764	3.32
432.12	3.31
432.476	3.31
432.832	3.31
433.189	3.33
433.545	3.32
433.901	3.31
434.257	3.3
434.613	3.31
434.969	3.3
435.325	3.3
435.681	3.29
436.036	3.3
436.392	3.26
436.748	3.27
437.104	3.26
437.459	3.24
437.815	3.24
438.171	3.24
438.526	3.26
438.882	3.26
439.237	3.27
439.593	3.28
439.948	3.29
440.304	3.29
440.659	3.27
441.014	3.27
441.369	3.27
441.725	3.26
442.08	3.25
442.435	3.24
442.79	3.24
443.145	3.25
443.5	3.24
443.855	3.24
444.21	3.23
444.565	3.25
444.92	3.25
445.275	3.22
445.629	3.22
445.984	3.2
446.339	3.17
446.693	3.16
447.048	3.14
447.403	3.14
447.757	3.12
448.112	3.11
448.466	3.11
448.82	3.12
449.175	3.13
449.529	3.13
449.883	3.13
450.238	3.12
450.592	3.12
450.946	3.11
451.3	3.1
451.654	3.11
452.008	3.1
452.362	3.07
452.716	3.09
453.07	3.09
453.424	3.1
453.778	3.1
454.132	3.09
454.486	3.09
454.839	3.07
455.193	3.07
455.547	3.08
455.9	3.08
456.254	3.08
456.607	3.08
456.961	3.08
457.314	3.09
457.668	3.08
458.021	3.06
458.375	3.09
458.728	3.09
459.081	3.08
459.434	3.07
459.787	3.09
460.141	3.09
460.494	3.09
460.847	3.08
461.2	3.07
461.553	3.08
461.906	3.1
462.259	3.11
462.611	3.12
462.964	3.13
463.317	3.15
463.67	3.14
464.022	3.13
464.375	3.12
464.728	3.12
465.08	3.14
465.433	3.15
465.785	3.13
466.138	3.15
466.49	3.15
466.843	3.16
467.195	3.15
467.547	3.16
467.899	3.15
468.252	3.17
468.604	3.19
468.956	3.17
469.308	3.16
469.66	3.17
470.012	3.18
470.364	3.17
470.716	3.17
471.068	3.18
471.42	3.19
471.772	3.2
472.123	3.2
472.475	3.21
472.827	3.21
473.178	3.23
473.53	3.21
473.882	3.23
474.233	3.24
474.585	3.22
474.936	3.23
475.288	3.23
475.639	3.22
475.99	3.21
476.342	3.24
476.693	3.22
477.044	3.22
477.395	3.21
477.746	3.2
478.097	3.18
478.448	3.17
478.8	3.18
479.15	3.17
479.501	3.2
479.852	3.19
480.203	3.19
480.554	3.19
480.905	3.22
481.255	3.23
481.606	3.22
481.957	3.24
482.307	3.23
482.658	3.24
483.009	3.25
483.359	3.25
483.709	3.26
484.06	3.27
484.41	3.28
484.761	3.28
485.111	3.28
485.461	3.29
485.811	3.29
486.162	3.29
486.512	3.3
486.862	3.29
487.212	3.3
487.562	3.31
487.912	3.32
488.262	3.31
488.612	3.31
488.961	3.32
489.311	3.31
489.661	3.31
490.011	3.32
490.36	3.31
490.71	3.31
491.06	3.31
491.409	3.31
491.759	3.3
492.108	3.31
492.458	3.31
492.807	3.32
493.157	3.33
493.506	3.34
493.855	3.33
494.204	3.33
494.554	3.34
494.903	3.33
495.252	3.32
495.601	3.33
495.95	3.34
496.299	3.33
496.648	3.34
496.997	3.34
497.346	3.34
497.695	3.36
498.043	3.39
498.392	3.39
498.741	3.39
499.09	3.42
499.438	3.44
499.787	3.46
500.135	3.47
500.484	3.48
500.832	3.5
501.181	3.5
501.529	3.53
501.878	3.53
502.226	3.54
502.574	3.56
502.923	3.57
503.271	3.6
503.619	3.62
503.967	3.66
504.315	3.68
504.663	3.7
505.011	3.72
505.359	3.72
505.707	3.76
506.055	3.78
506.403	3.79
506.751	3.82
507.098	3.83
507.446	3.86
507.794	3.89
508.141	3.9
508.489	3.95
508.837	3.96
509.184	3.99
509.531	4.02
509.879	4.06
510.226	4.09
510.574	4.08
510.921	4.11
511.268	4.11
511.616	4.15
511.963	4.19
512.31	4.2
512.657	4.23
513.004	4.24
513.351	4.27
513.698	4.3
514.045	4.31
514.392	4.34
514.739	4.36
515.086	4.37
515.432	4.4
515.779	4.41
516.126	4.45
516.473	4.48
516.819	4.49
517.166	4.51
517.512	4.53
517.859	4.57
518.205	4.59
518.552	4.63
518.898	4.66
519.245	4.67
519.591	4.7
519.937	4.71
520.283	4.75
520.629	4.78
520.976	4.81
521.322	4.84
521.668	4.88
522.014	4.92
522.36	4.97
522.706	5
523.052	5.06
523.398	5.11
523.743	5.16
524.089	5.22
524.435	5.27
524.781	5.31
525.126	5.36
525.472	5.41
525.817	5.44
526.163	5.47
526.509	5.52
526.854	5.55
527.199	5.59
527.545	5.63
527.89	5.65
528.235	5.69
528.581	5.72
528.926	5.76
529.271	5.81
529.616	5.84
529.961	5.88
530.306	5.91
530.651	5.95
530.996	6
531.341	6.03
531.686	6.08
532.031	6.13
532.376	6.18
532.721	6.24
533.065	6.3
533.41	6.37
533.755	6.43
534.099	6.51
534.444	6.59
534.788	6.65
535.133	6.73
535.477	6.81
535.822	6.89
536.166	6.99
536.51	7.1
536.855	7.21
537.199	7.34
537.543	7.48
537.887	7.62
538.231	7.75
538.576	7.91
538.92	8.07
539.264	8.21
539.608	8.34
539.951	8.46
540.295	8.57
540.639	8.69
540.983	8.82
541.327	8.95
541.671	9.06
542.014	9.2
542.358	9.33
542.701	9.46
543.045	9.63
543.389	9.77
543.732	9.9
544.075	10.07
544.419	10.25
544.762	10.44
545.105	10.6
545.449	10.82
545.792	11
546.135	11.2
546.478	11.43
546.821	11.69
547.165	11.97
547.508	12.27
547.851	12.55
548.194	12.78
548.536	13.07
548.879	13.4
549.222	13.71
549.565	14.04
549.908	14.36
550.25	14.65
550.593	15.02
550.936	15.37
551.278	15.71
551.621	16.04
551.963	16.38
552.306	16.73
552.648	17.08
552.991	17.46
553.333	17.82
553.675	18.17
554.017	18.52
554.36	18.86
554.702	19.21
555.044	19.6
555.386	20.04
555.728	20.46
556.07	20.84
556.412	21.21
556.754	21.62
557.096	22.05
557.438	22.46
557.78	22.87
558.121	23.27
558.463	23.71
558.805	24.17
559.147	24.62
559.488	25.09
559.83	25.5
560.171	25.93
560.513	26.39
560.854	26.82
561.196	27.2
561.537	27.64
561.878	28.1
562.22	28.54
562.561	28.96
562.902	29.39
563.243	29.82
563.584	30.26
563.925	30.72
564.266	31.1
564.607	31.5
564.948	31.87
565.289	32.31
565.63	32.69
565.971	33.05
566.312	33.38
566.653	33.73
566.993	34.08
567.334	34.44
567.675	34.76
568.015	35.15
568.356	35.58
568.696	35.9
569.037	36.27
569.377	36.61
569.718	36.93
570.058	37.29
570.398	37.68
570.739	38.06
571.079	38.39
571.419	38.79
571.759	39.16
572.099	39.49
572.439	39.82
572.779	40.07
573.119	40.36
573.459	40.71
573.799	41.03
574.139	41.34
574.479	41.63
574.819	41.92
575.158	42.18
575.498	42.5
575.838	42.88
576.177	43.12
576.517	43.4
576.856	43.72
577.196	43.98
577.535	44.22
577.875	44.44
578.214	44.72
578.553	44.96
578.893	45.18
579.232	45.43
579.571	45.66
579.91	46.01
580.25	46.3
580.589	46.52
580.928	46.76
581.267	46.98
581.606	47.21
581.945	47.48
582.283	47.78
582.622	47.96
582.961	48.14
583.3	48.38
583.639	48.63
583.977	48.81
584.316	49
584.654	49.18
584.993	49.43
585.332	49.61
585.67	49.82
586.008	50.04
586.347	50.19
586.685	50.44
587.024	50.61
587.362	50.78
587.7	50.97
588.038	51.18
588.376	51.41
588.715	51.54
589.053	51.78
589.391	51.95
589.729	52.07
590.067	52.24
590.404	52.44
590.742	52.55
591.08	52.67
591.418	52.85
591.756	52.99
592.093	53.16
592.431	53.32
592.769	53.44
593.106	53.66
593.444	53.83
593.781	53.99
594.119	54.14
594.456	54.26
594.793	54.43
595.131	54.55
595.468	54.71
595.805	54.87
596.143	54.94
596.48	55
596.817	55.17
597.154	55.27
597.491	55.33
597.828	55.55
598.165	55.8
598.502	55.89
598.839	56.06
599.176	56.22
599.512	56.4
599.849	56.57
600.186	56.64
600.523	56.77
600.859	56.85
601.196	56.92
601.532	57.02
601.869	57.1
602.205	57.21
602.542	57.29
602.878	57.36
603.215	57.46
603.551	57.62
603.887	57.69
604.223	57.83
604.56	57.93
604.896	57.96
605.232	57.96
605.568	58.06
605.904	58.14
606.24	58.16
606.576	58.21
606.912	58.34
607.248	58.39
607.583	58.51
607.919	58.6
608.255	58.69
608.591	58.78
608.926	58.91
609.262	58.95
609.597	58.93
609.933	59.05
610.268	59.13
610.604	59.2
610.939	59.27
611.275	59.25
611.61	59.31
611.945	59.35
612.281	59.45
612.616	59.51
612.951	59.62
613.286	59.68
613.621	59.74
613.956	59.74
614.291	59.88
614.626	59.97
614.961	60.1
615.296	60.26
615.631	60.33
615.966	60.35
616.3	60.58
616.635	60.65
616.97	60.7
617.304	60.8
617.639	60.88
617.973	60.98
618.308	61.13
618.642	61.14
618.977	61.17
619.311	61.13
619.646	61.1
619.98	61.06
620.314	61.13
620.648	61.19
620.983	61.26
621.317	61.28
621.651	61.31
621.985	61.28
622.319	61.3
622.653	61.33
622.987	61.34
623.321	61.25
623.655	61.5
623.988	61.61
624.322	61.6
624.656	61.61
624.99	61.66
625.323	61.68
625.657	61.86
625.99	61.92
626.324	62.05
626.657	62.25
626.991	62.35
627.324	62.45
627.658	62.49
627.991	62.54
628.324	62.66
628.657	62.7
628.991	62.71
629.324	62.74
629.657	62.79
629.99	62.95
630.323	63.03
630.656	62.96
630.989	62.96
631.322	63.05
631.655	63.13
631.987	63.08
632.32	63.08
632.653	63.08
632.986	63.1
633.318	63.07
633.651	62.99
633.984	63.04
634.316	63.03
634.649	63.07
634.981	63.13
635.313	63.07
635.646	63.11
635.978	63.22
636.31	63.24
636.643	63.27
636.975	63.18
637.307	63.19
637.639	63.21
637.971	63.32
638.303	63.31
638.635	63.35
638.967	63.46
639.299	63.57
639.631	63.57
639.963	63.63
640.295	63.77
640.626	63.83
640.958	63.75
641.29	63.94
641.621	63.9
641.953	63.87
642.285	63.91
642.616	63.98
642.948	64.06
643.279	64.04
643.61	64.07
643.942	64.09
644.273	64.04
644.604	64.05
644.936	64.08
645.267	64.14
645.598	64.05
645.929	64
646.26	64.02
646.591	64.01
646.922	63.95
647.253	63.96
647.584	64.09
647.915	64.17
648.245	64.07
648.576	64.11
648.907	64.06
649.238	64.15
649.568	64.11
649.899	63.99
650.229	64.05
650.56	64.08
650.89	64.13
651.221	64.21
651.551	64.23
651.882	64.15
652.212	64.21
652.542	64.26
652.872	64.24
653.203	64.07
653.533	64.15
653.863	64.3
654.193	64.28
654.523	64.23
654.853	64.23
655.183	64.24
655.513	64.36
655.843	64.46
656.172	64.45
656.502	64.47
656.832	64.61
657.162	64.75
657.491	64.76
657.821	64.95
658.15	64.94
658.48	64.96
658.809	65.07
659.139	65.08
659.468	65.19
659.798	65.36
660.127	65.54
660.456	65.54
660.785	65.57
661.115	65.62
661.444	65.71
661.773	65.68
662.102	65.74
662.431	65.75
662.76	65.8
663.089	65.75
663.418	65.81
663.747	65.85
664.076	65.73
664.404	65.86
664.733	65.77
665.062	65.84
665.39	65.79
665.719	65.71
666.048	65.77
666.376	65.67
666.705	65.68
667.033	65.65
667.362	65.76
667.69	65.82
668.018	65.95
668.347	65.91
668.675	66.02
669.003	66.15
669.331	66.13
669.659	66.06
669.987	66.16
670.315	66.23
670.643	66.19
670.971	66.29
671.299	66.3
671.627	66.35
671.955	66.32
672.283	66.38
672.61	66.38
672.938	66.31
673.266	66.46
673.593	66.42
673.921	66.49
674.249	66.42
674.576	66.27
674.904	66.14
675.231	66.2
675.558	66.33
675.886	66.15
676.213	66.14
676.54	66.16
676.867	66.19
677.195	66.18
677.522	66.14
677.849	66.2
678.176	66.14
678.503	66.04
678.83	66.05
679.157	66.02
679.484	65.92
679.81	65.91
680.137	65.95
680.464	65.87
680.791	65.71
681.117	65.82
681.444	65.91
681.771	65.85
682.097	65.72
682.424	65.5
682.75	65.48
683.077	65.57
683.403	65.69
683.729	65.58
684.056	65.67
684.382	65.89
684.708	65.86
685.034	65.87
685.36	65.94
685.686	66.1
686.012	66.22
686.339	66.41
686.664	66.45
686.99	66.27
687.316	66.26
687.642	66.46
687.968	66.29
688.294	66.32
688.619	66.57
688.945	66.8
689.271	67.12
689.596	67.14
689.922	67.14
690.247	67.03
690.573	67.12
690.898	67.06
691.224	66.84
691.549	66.85
691.874	66.8
692.2	66.72
692.525	66.6
692.85	66.52
693.175	66.46
693.5	66.31
693.825	66.41
694.15	66.45
694.475	66.46
694.8	66.45
695.125	66.45
695.45	66.29
695.775	66.22
696.099	66.07
696.424	66.19
696.749	66.16
697.073	66.18
697.398	66.26
697.723	66.22
698.047	66.21
698.372	66.2
698.696	66.31
699.02	66.39
699.345	66.51
699.669	66.73
699.993	66.75
700.318	66.89
700.642	66.79
700.966	66.9
701.29	66.85
701.614	66.91
701.938	66.92
702.262	66.99
702.586	66.99
702.91	67.07
703.234	67.07
703.557	67.09
703.881	67.33
704.205	67.28
704.529	67.42
704.852	67.5
705.176	67.62
705.499	67.65
705.823	67.66
706.146	67.68
706.47	67.48
706.793	67.48
707.117	67.46
707.44	67.66
707.763	67.59
708.086	67.68
708.409	67.64
708.733	67.61
709.056	67.66
709.379	67.66
709.702	67.76
710.025	67.7
710.348	67.71
710.671	67.43
710.993	67.52
711.316	67.47
711.639	67.52
711.962	67.4
712.284	67.42
712.607	67.41
712.93	67.27
713.252	67.35
713.575	67.51
713.897	67.58
714.22	67.41
714.542	67.46
714.864	67.43
715.187	67.64
715.509	67.63
715.831	67.56
716.153	67.55
716.475	67.23
716.798	67.16
717.12	67.04
717.442	67.12
717.764	66.89
718.085	66.8
718.407	66.81
718.729	66.86
719.051	66.8
719.373	66.57
719.695	66.54
720.016	66.28
720.338	65.97
720.659	65.9
720.981	66.17
721.302	65.98
721.624	65.95
721.945	65.49
722.267	65.45
722.588	65.45
722.909	65.47
723.231	65.72
723.552	65.76
723.873	65.94
724.194	65.97
724.515	66.04
724.836	65.98
725.157	66
725.478	65.81
725.799	65.8
726.12	66.06
726.441	65.99
726.762	65.94
727.083	66.14
727.403	66.16
727.724	65.9
728.045	65.91
728.365	65.83
728.686	65.85
729.006	65.9
729.327	65.81
729.647	65.91
729.967	66
730.288	66.1
730.608	65.89
730.928	65.84
731.249	66.17
731.569	66.46
731.889	66.44
732.209	66.57
732.529	66.47
732.849	66.53
733.169	66.6
733.489	66.66
733.809	66.63
734.129	66.65
734.448	66.84
734.768	66.92
735.088	67.22
735.408	67.48
735.727	67.44
736.047	67.41
736.366	67.24
736.686	67.12
737.005	67.35
737.325	67.52
737.644	67.66
737.963	67.38
738.283	67.29
738.602	67.42
738.921	67.25
739.24	67.45
739.56	67.64
739.879	67.81
740.198	67.95
740.517	67.78
740.836	67.86
741.155	67.62
741.473	67.73
741.792	67.49
742.111	67.5
742.43	67.59
742.748	67.46
743.067	67.47
743.386	67.46
743.704	67.29
744.023	66.83
744.341	66.85
744.66	66.88
744.978	66.51
745.297	66.62
745.615	66.66
745.933	66.57
746.252	66.08
746.57	65.89
746.888	66.07
747.206	66.39
747.524	66.46
747.842	66.4
748.16	66.36
748.478	66.55
748.796	66.55
749.114	66.66
749.432	67.07
749.749	67.13
750.067	66.94
750.385	66.82
750.703	67.5
751.02	67.38
751.338	67.39
751.655	67.54
751.973	67.42
752.29	67.55
752.608	67.34
752.925	67.61
753.242	67.57
753.56	67.74
753.877	67.62
754.194	67.42
754.511	67.5
754.828	67.46
755.145	67.33
755.462	67.2
755.779	67.38
756.096	67.32
756.413	67.49
756.73	67.61
757.047	67.68
757.364	67.44
757.68	67.7
757.997	67.77
758.314	67.94
758.63	67.75
758.947	67.99
759.264	68.03
759.58	68.04
759.896	68.19
760.213	67.66
760.529	67.56
760.846	67.44
761.162	67.46
761.478	67.51
761.794	67.35
762.11	67.53
762.426	67.31
762.743	67.44
763.059	67.41
763.375	67.71
763.69	67.87
764.006	67.85
764.322	67.7
764.638	67.58
764.954	67.46
765.27	67.54
765.585	67.47
765.901	67.53
766.216	67.42
766.532	67.26
766.848	67.57
767.163	67.62
767.478	67.78
767.794	67.94
768.109	67.89
768.424	68.14
768.74	68.19
769.055	68.26
769.37	67.93
769.685	67.99
770	67.67
770.315	67.43
770.63	67.54
770.945	67.33
771.26	67.51
771.575	67.41
771.89	67.29
772.205	67.14
772.52	67.2
772.834	67.22
773.149	67.52
773.464	67.62
773.778	67.83
774.093	67.73
774.407	67.98
774.722	67.92
775.036	67.8
775.351	67.75
775.665	67.58
775.979	67.89
776.293	67.68
776.608	68.05
776.922	67.96
777.236	67.77
777.55	68.01
777.864	67.91
778.178	68.38
778.492	68.42
778.806	68.58
779.12	68.55
779.434	68.48
779.747	68.5
780.061	68.26
780.375	67.91
780.689	67.42
781.002	67.09
781.316	67.07
781.629	67.39
781.943	67.13
782.256	67.23
782.57	67.2
782.883	67.01
783.196	66.3
783.51	66.13
783.823	66.11
784.136	66.29
784.449	66.07
784.762	66.09
785.075	65.62
785.388	65.14
785.701	65.29
786.014	65.07
786.327	64.55
786.64	64.9
786.953	65.16
787.266	65.7
787.578	65.56
787.891	65.89
788.204	65.64
788.516	65.4
788.829	65.39
789.141	65.37
789.454	65.8
789.766	66.2
790.079	66.6
790.391	66.95
790.703	66.72
791.016	67.04
791.328	66.53
791.64	66.69
791.952	67.11
792.264	67.22
792.576	67.65
792.888	67.97
793.2	68.07
793.512	67.68
793.824	67.37
794.136	67.61
794.448	67.53
794.76	66.99
795.071	67.31
795.383	67.6
795.695	68.32
796.006	68.23
796.318	68.63
796.629	68.77
796.941	68.24
797.252	68.21
797.564	68.22
797.875	68.65
798.186	68.98
798.497	69.28
798.809	69.28
799.12	68.9
799.431	68.89
799.742	68.45
800.053	68.93
800.364	68.98
800.675	69.16
800.986	68.6
801.297	69.62
801.608	69.46
801.918	69.01
802.229	68.07
802.54	68.52
802.851	68.27
803.161	67.96
803.472	68
803.782	67.92
804.093	67.85
804.403	67.73
804.714	67.75
805.024	66.51
805.334	65.97
805.645	66.14
805.955	65.88
806.265	66.06
806.575	65.77
806.885	66.47
807.195	66.59
807.505	67.25
807.815	66.46
808.125	66.39
808.435	66.72
808.745	66.49
809.055	66.02
809.365	65.26
809.674	65.1
809.984	65.4
810.294	65.63
810.603	66.17
810.913	66.14
811.222	66.27
811.532	67.59
811.841	67.62
812.151	68.14
812.46	68.92
812.769	68.79
813.079	68.43
813.388	68.42
813.697	68.05
814.006	67.24
814.315	67.53
814.624	67.94
814.933	68.35
815.242	68.85
815.551	68.55
815.86	69.06
816.169	68.92
816.478	69.08
816.786	68.53
817.095	68.41
817.404	68.34
817.712	68.54
818.021	68.15
818.33	69.05
818.638	69.18
818.947	69.12
819.255	69.02
819.563	69.36
819.872	69.29
820.18	69.16
820.488	69.45
820.796	70.04
821.105	70.16
821.413	69.91
821.721	69.69
822.029	69.94
822.337	70.13
822.645	70.22
822.953	70.06
823.26	70.04
823.568	69.82
823.876	69.81
824.184	69.69
824.491	69.61
824.799	69.37
825.107	69.24
825.414	69.18
825.722	69.32
826.029	69.25
826.337	69.22
826.644	69.41
826.951	69.41
827.259	69.14
827.566	68.8
827.873	68.81
828.18	68.86
828.488	68.8
828.795	68.76
829.102	68.47
829.409	68.77
829.716	68.85
830.023	68.98
830.329	69.28
830.636	69.3
830.943	69.5
831.25	69.75
831.557	69.52
831.863	69.33
832.17	68.87
832.476	68.98
832.783	68.64
833.089	68.32
833.396	68.34
833.702	68.45
834.009	68.93
834.315	68.75
834.621	69.05
834.928	68.71
835.234	68.47
835.54	68.88
835.846	68.55
836.152	68.65
836.458	68.48
836.764	67.75
837.07	67.85
837.376	67.51
837.682	67.17
837.988	67.31
838.293	67.05
838.599	67.65
838.905	67.52
839.211	67.51
839.516	68.28
839.822	68.21
840.127	67.82
840.433	68.15
840.738	67.34
841.044	67.22
841.349	66.37
841.654	65.86
841.959	65.72
842.265	66.58
842.57	66.48
842.875	66.88
843.18	67.52
843.485	67.21
843.79	66.79
844.095	68.5
844.4	69.85
844.705	70.21
845.01	69.75
845.315	70.8
845.619	71.94
845.924	71.19
846.229	70.74
846.533	70.47
846.838	71.1
847.142	73.53
847.447	74.53
847.751	76.22
848.056	76.91
848.36	77.13
848.664	77.16
848.969	78.2
849.273	79.39
849.577	78.24
849.881	76.97
850.185	79.39
850.489	77.57
850.794	76.29
851.097	77.4
851.401	77.14
851.705	76.48
852.009	75.8
852.313	75
852.617	75.43
852.92	74.33
853.224	69.06
853.528	66.91
853.831	64.71
854.135	66.21
854.438	66.36
854.742	67.25
855.045	64.39
855.349	64.54
855.652	63.14
855.955	66.78
856.259	67.4
856.562	67.52
856.865	67.91
857.168	67.82
857.471	67.94
857.774	68.14
858.077	67.41
858.38	67.1
858.683	65.84
858.986	64.77
859.289	66.1
859.592	70.89
859.894	71.99
860.197	71.88
860.5	70.08
860.802	68.27
861.105	68.14
861.407	68.55
861.71	68.32
862.012	68.26
862.315	65.02
862.617	65.39
862.919	64.83
863.222	62.06
863.524	62.91
863.826	63.35
864.128	62.48
864.43	62.38
864.732	63.17
865.034	63.41
865.336	64.52
865.638	61.19
865.94	57.1
866.242	58
866.544	54.64
866.846	54.47
867.147	54.64
867.449	54.66
867.751	55.78
868.052	58.03
868.354	57.46
868.655	57.35
868.957	57.72
869.258	56.33
869.56	59.16
869.861	55.73
870.162	55.06
870.463	56.94
870.765	56.84
871.066	56.95
871.367	59.32
871.668	59.69
871.969	61.66
872.27	61.29
872.571	61.63
872.872	64.81
873.173	63.91
873.473	63.17
873.774	61.18
874.075	59.45
874.376	55.41
874.676	57.19
874.977	57.7
875.277	60.37
875.578	63.48
875.878	62.6
876.179	65.01
876.479	65.57
876.78	63.35
877.08	63.16
877.38	61.45
877.68	59.39
877.981	58.84
878.281	58.69
878.581	63.25
