Data from BA56814_Reflection_00009.txt Node
Date: Mon Nov 18 15:40:36 EST 2019
User: vgr7
Spectrometer: USB2G7710
Scans to average: 3
Trigger mode: 4
Integration Time (sec): 2.000000E-2
Electric dark correction enabled: true
Boxcar width: 10
XAxis mode: Wavelengths
Number of Pixels in Spectrum: 2048
>>>>>Begin Spectral Data<<<<<
177.721	7.15
178.105	3.49
178.488	-54.64
178.871	-62.99
179.254	-33.9
179.636	-289.87
180.019	-54.14
180.402	124.14
180.785	1177.67
181.168	105.7
181.55	188.47
181.933	79.31
182.316	134.81
182.698	131.7
183.081	126.22
183.463	232.7
183.846	153.53
184.228	147.05
184.611	114.32
184.993	227.85
185.376	148.61
185.758	199.92
186.14	145.57
186.522	123.43
186.904	106.74
187.287	112.06
187.669	124.99
188.051	118.65
188.433	171.64
188.815	168.02
189.197	165.16
189.579	130.72
189.961	168.12
190.342	133.67
190.724	75.82
191.106	80.01
191.488	66.01
191.869	66.87
192.251	77.92
192.633	86.59
193.014	88.38
193.396	105.26
193.777	212.61
194.159	370.23
194.54	831.45
194.922	3001.64
195.303	598.49
195.684	1668.81
196.065	-62.74
196.447	-93.79
196.828	-642.77
197.209	-471.69
197.59	-174.4
197.971	-191.84
198.352	-135.65
198.733	-146.02
199.114	-120.51
199.495	-77.77
199.876	-110.85
200.257	-81.27
200.638	-67.58
201.018	-90.12
201.399	-135.65
201.78	-143.15
202.16	-164.77
202.541	-241.2
202.922	-332.18
203.302	-277.27
203.683	-324.76
204.063	-1096.46
204.444	-1403.98
204.824	-473.99
205.204	-430.29
205.585	-421.18
205.965	-405.99
206.345	-523.05
206.725	-970.1
207.106	-2665.36
207.486	809.62
207.866	-20378.26
208.246	-651.06
208.626	-700.3
209.006	-455.08
209.386	-384.72
209.766	-305.63
210.145	-388.03
210.525	-247.51
210.905	-172.22
211.285	-186.96
211.664	-95.39
212.044	-80.58
212.424	-65.37
212.803	-74.46
213.183	-55.48
213.562	-69.24
213.942	-71.83
214.321	-81.8
214.701	-58.1
215.08	-66.7
215.459	-51.22
215.838	-52.52
216.218	-61.67
216.597	-45.24
216.976	-44.35
217.355	-42.49
217.734	-44.21
218.113	-23.77
218.492	-22.61
218.871	-32.68
219.25	-24.26
219.629	-45.22
220.008	-58.96
220.387	-69.15
220.766	-63.85
221.144	-81.41
221.523	-98.74
221.902	-100.33
222.28	-70.62
222.659	-91.58
223.037	-65.73
223.416	-71.13
223.794	-80.42
224.173	-58.64
224.551	-72.79
224.929	-70.97
225.308	-43.08
225.686	-35.48
226.064	-41.63
226.442	-38.58
226.821	-29.78
227.199	-28.83
227.577	-24.17
227.955	-19
228.333	-17.39
228.711	-16.21
229.089	-14.28
229.467	-13.45
229.845	-13.68
230.222	-13.1
230.6	-11.2
230.978	-13.84
231.356	-11.85
231.733	-10.58
232.111	-11.71
232.488	-8.02
232.866	-7.24
233.243	-9.71
233.621	-9.58
233.998	-6.52
234.376	-8.11
234.753	-8.21
235.13	-8.26
235.508	-7.94
235.885	-7.59
236.262	-7.46
236.639	-6.99
237.016	-5.97
237.393	-4.51
237.77	-2.51
238.147	-1.82
238.524	-1.12
238.901	0.39
239.278	0.48
239.655	1.56
240.032	2.03
240.409	1.41
240.785	1.78
241.162	2.4
241.539	2.75
241.915	2.6
242.292	3.09
242.668	3.05
243.045	3.01
243.421	2.64
243.798	2.48
244.174	2.13
244.551	2.18
244.927	2.07
245.303	2.03
245.679	1.85
246.056	1.67
246.432	1.6
246.808	1.7
247.184	1.53
247.56	1.17
247.936	1.13
248.312	1.11
248.688	1.11
249.064	1.04
249.44	0.91
249.815	0.94
250.191	0.84
250.567	0.91
250.943	0.88
251.318	1.04
251.694	0.96
252.069	1.1
252.445	0.84
252.82	0.74
253.196	0.45
253.571	0.75
253.947	1.14
254.322	1.1
254.697	0.9
255.073	1.05
255.448	1.25
255.823	1.44
256.198	1.58
256.573	1.41
256.948	1.29
257.323	1.4
257.698	1.28
258.073	1.32
258.448	1.26
258.823	1.4
259.198	1.33
259.573	1.4
259.948	1.52
260.322	1.65
260.697	1.66
261.072	1.74
261.446	1.64
261.821	1.35
262.195	1.43
262.57	1.32
262.944	1.23
263.319	1.01
263.693	0.8
264.067	0.72
264.442	0.81
264.816	0.9
265.19	0.73
265.564	0.84
265.938	1.06
266.313	1.2
266.687	1.12
267.061	1.24
267.435	1.28
267.809	1.2
268.183	1.12
268.556	0.98
268.93	1.12
269.304	1.08
269.678	1.25
270.051	1.25
270.425	1.33
270.799	1.28
271.172	1.38
271.546	1.52
271.919	1.52
272.293	1.4
272.666	1.46
273.04	1.6
273.413	1.55
273.787	1.4
274.16	1.31
274.533	1.2
274.906	1.13
275.279	1.08
275.653	1.16
276.026	1.2
276.399	1.43
276.772	1.35
277.145	1.26
277.518	1.23
277.891	1.17
278.263	1.32
278.636	1.42
279.009	1.6
279.382	1.67
279.755	1.65
280.127	1.83
280.5	1.93
280.872	1.93
281.245	1.77
281.617	1.83
281.99	1.83
282.362	1.9
282.735	1.83
283.107	1.84
283.479	1.71
283.852	1.8
284.224	1.79
284.596	1.73
284.968	1.86
285.34	1.9
285.713	1.93
286.085	1.95
286.457	2
286.829	2.02
287.201	1.88
287.572	1.86
287.944	1.68
288.316	1.47
288.688	1.37
289.06	1.46
289.431	1.45
289.803	1.52
290.175	1.53
290.546	1.59
290.918	1.56
291.289	1.58
291.661	1.56
292.032	1.56
292.403	1.6
292.775	1.58
293.146	1.58
293.517	1.51
293.889	1.48
294.26	1.53
294.631	1.44
295.002	1.46
295.373	1.65
295.744	1.8
296.115	1.92
296.486	1.79
296.857	1.79
297.228	1.85
297.599	1.78
297.97	1.85
298.34	2.02
298.711	2.12
299.082	2.18
299.452	2.23
299.823	2.27
300.194	2.3
300.564	2.35
300.935	2.33
301.305	2.45
301.676	2.57
302.046	2.56
302.416	2.7
302.787	2.83
303.157	2.69
303.527	2.68
303.897	2.64
304.267	3.05
304.637	3.1
305.008	3.2
305.378	3.35
305.748	3.34
306.117	3.2
306.487	3.29
306.857	3.36
307.227	3.43
307.597	3.31
307.967	3.26
308.336	3.2
308.706	3.37
309.076	3.48
309.445	3.37
309.815	3.35
310.184	3.37
310.554	3.36
310.923	3.43
311.293	3.38
311.662	3.43
312.031	3.28
312.401	3.31
312.77	3.35
313.139	3.29
313.508	3.35
313.877	3.46
314.246	3.39
314.616	3.36
314.985	3.3
315.353	3.48
315.722	3.58
316.091	3.68
316.46	3.5
316.829	3.42
317.198	3.43
317.567	3.4
317.935	3.38
318.304	3.5
318.672	3.56
319.041	3.81
319.41	3.86
319.778	4.08
320.147	4.22
320.515	4.31
320.883	4.3
321.252	4.26
321.62	4.32
321.988	4.37
322.357	4.45
322.725	4.62
323.093	4.69
323.461	4.7
323.829	4.69
324.197	4.88
324.565	4.96
324.933	5.12
325.301	5.28
325.669	5.43
326.037	5.43
326.405	5.56
326.772	5.63
327.14	5.78
327.508	5.75
327.875	5.73
328.243	5.6
328.61	5.86
328.978	5.98
329.346	5.98
329.713	6.03
330.08	6.08
330.448	6.01
330.815	5.96
331.182	6.03
331.55	6.25
331.917	6.29
332.284	6.38
332.651	6.3
333.018	6.33
333.385	6.32
333.752	6.38
334.119	6.32
334.486	6.19
334.853	6.18
335.22	6.12
335.587	6.14
335.954	6.24
336.32	6.11
336.687	6.08
337.054	6.07
337.42	6.19
337.787	6.24
338.153	6.24
338.52	6.31
338.886	6.38
339.253	6.35
339.619	6.47
339.986	6.56
340.352	6.68
340.718	6.73
341.084	6.61
341.451	6.63
341.817	6.61
342.183	6.73
342.549	6.83
342.915	7.01
343.281	7.03
343.647	6.96
344.013	6.98
344.379	7
344.745	7.15
345.11	7.03
345.476	6.93
345.842	7.04
346.208	7.09
346.573	7.11
346.939	7.18
347.304	7.15
347.67	7.02
348.035	7.03
348.401	7.05
348.766	7.2
349.132	7.16
349.497	7.28
349.862	7.41
350.228	7.39
350.593	7.32
350.958	7.42
351.323	7.52
351.688	7.61
352.053	7.76
352.418	7.83
352.783	7.9
353.148	7.95
353.513	7.89
353.878	7.8
354.243	7.86
354.608	7.82
354.972	7.78
355.337	7.88
355.702	7.93
356.066	8
356.431	7.99
356.795	8.12
357.16	8.1
357.524	7.99
357.889	7.99
358.253	8.01
358.618	8.03
358.982	8.01
359.346	7.99
359.71	7.95
360.075	7.92
360.439	7.92
360.803	7.94
361.167	7.93
361.531	8.01
361.895	7.91
362.259	7.86
362.623	7.92
362.987	7.9
363.351	7.87
363.714	7.79
364.078	7.74
364.442	7.64
364.806	7.59
365.169	7.6
365.533	7.55
365.896	7.56
366.26	7.53
366.623	7.47
366.987	7.44
367.35	7.42
367.714	7.28
368.077	7.27
368.44	7.22
368.803	7.26
369.167	7.13
369.53	7.16
369.893	7.15
370.256	7.08
370.619	7.07
370.982	7.03
371.345	7
371.708	7.02
372.071	7
372.434	6.95
372.797	6.94
373.159	6.84
373.522	6.85
373.885	6.79
374.247	6.81
374.61	6.73
374.973	6.63
375.335	6.69
375.698	6.7
376.06	6.61
376.423	6.6
376.785	6.65
377.147	6.67
377.51	6.67
377.872	6.67
378.234	6.61
378.596	6.56
378.958	6.5
379.321	6.43
379.683	6.4
380.045	6.37
380.407	6.28
380.769	6.25
381.13	6.14
381.492	6.11
381.854	6.05
382.216	6.07
382.578	6.03
382.939	5.95
383.301	5.87
383.663	5.89
384.024	5.78
384.386	5.72
384.747	5.65
385.109	5.59
385.47	5.53
385.832	5.5
386.193	5.48
386.554	5.47
386.916	5.46
387.277	5.42
387.638	5.42
387.999	5.39
388.36	5.38
388.721	5.36
389.082	5.3
389.443	5.29
389.804	5.25
390.165	5.21
390.526	5.21
390.887	5.16
391.248	5.18
391.609	5.17
391.969	5.15
392.33	5.11
392.691	5.05
393.051	5
393.412	4.94
393.772	4.91
394.133	4.87
394.493	4.83
394.854	4.8
395.214	4.76
395.574	4.74
395.935	4.71
396.295	4.69
396.655	4.65
397.015	4.61
397.376	4.58
397.736	4.59
398.096	4.54
398.456	4.53
398.816	4.46
399.176	4.39
399.535	4.34
399.895	4.28
400.255	4.26
400.615	4.19
400.975	4.18
401.334	4.14
401.694	4.1
402.054	4.05
402.413	4.02
402.773	3.97
403.132	3.95
403.492	3.89
403.851	3.87
404.211	3.87
404.57	3.84
404.929	3.81
405.288	3.78
405.648	3.73
406.007	3.72
406.366	3.71
406.725	3.71
407.084	3.74
407.443	3.76
407.802	3.78
408.161	3.78
408.52	3.75
408.879	3.71
409.238	3.68
409.596	3.7
409.955	3.66
410.314	3.65
410.673	3.62
411.031	3.62
411.39	3.58
411.748	3.53
412.107	3.54
412.465	3.5
412.824	3.46
413.182	3.45
413.54	3.43
413.899	3.39
414.257	3.36
414.615	3.29
414.974	3.26
415.332	3.24
415.69	3.21
416.048	3.19
416.406	3.22
416.764	3.2
417.122	3.18
417.48	3.16
417.838	3.19
418.195	3.16
418.553	3.15
418.911	3.12
419.269	3.11
419.626	3.08
419.984	3.06
420.342	3.06
420.699	3.06
421.057	3.03
421.414	3.02
421.772	3.01
422.129	2.99
422.486	2.98
422.844	2.96
423.201	2.96
423.558	2.95
423.915	2.93
424.273	2.93
424.63	2.91
424.987	2.9
425.344	2.86
425.701	2.84
426.058	2.83
426.415	2.83
426.772	2.81
427.128	2.8
427.485	2.81
427.842	2.81
428.199	2.8
428.555	2.8
428.912	2.81
429.269	2.81
429.625	2.81
429.982	2.79
430.338	2.78
430.695	2.77
431.051	2.77
431.407	2.74
431.764	2.72
432.12	2.73
432.476	2.72
432.832	2.72
433.189	2.75
433.545	2.73
433.901	2.73
434.257	2.74
434.613	2.75
434.969	2.72
435.325	2.72
435.681	2.72
436.036	2.71
436.392	2.7
436.748	2.7
437.104	2.69
437.459	2.68
437.815	2.67
438.171	2.67
438.526	2.69
438.882	2.69
439.237	2.7
439.593	2.68
439.948	2.67
440.304	2.66
440.659	2.65
441.014	2.65
441.369	2.62
441.725	2.61
442.08	2.6
442.435	2.62
442.79	2.6
443.145	2.57
443.5	2.56
443.855	2.56
444.21	2.55
444.565	2.54
444.92	2.56
445.275	2.55
445.629	2.54
445.984	2.52
446.339	2.5
446.693	2.49
447.048	2.47
447.403	2.47
447.757	2.45
448.112	2.44
448.466	2.44
448.82	2.45
449.175	2.44
449.529	2.43
449.883	2.4
450.238	2.39
450.592	2.4
450.946	2.37
451.3	2.36
451.654	2.35
452.008	2.35
452.362	2.31
452.716	2.31
453.07	2.32
453.424	2.3
453.778	2.3
454.132	2.3
454.486	2.31
454.839	2.32
455.193	2.32
455.547	2.33
455.9	2.33
456.254	2.35
456.607	2.37
456.961	2.38
457.314	2.38
457.668	2.39
458.021	2.39
458.375	2.4
458.728	2.42
459.081	2.43
459.434	2.43
459.787	2.42
460.141	2.46
460.494	2.45
460.847	2.48
461.2	2.47
461.553	2.49
461.906	2.5
462.259	2.51
462.611	2.54
462.964	2.57
463.317	2.56
463.67	2.54
464.022	2.54
464.375	2.54
464.728	2.56
465.08	2.58
465.433	2.59
465.785	2.61
466.138	2.61
466.49	2.62
466.843	2.66
467.195	2.69
467.547	2.66
467.899	2.69
468.252	2.68
468.604	2.72
468.956	2.71
469.308	2.72
469.66	2.71
470.012	2.72
470.364	2.71
470.716	2.73
471.068	2.76
471.42	2.76
471.772	2.78
472.123	2.79
472.475	2.78
472.827	2.78
473.178	2.8
473.53	2.78
473.882	2.77
474.233	2.75
474.585	2.74
474.936	2.73
475.288	2.74
475.639	2.73
475.99	2.74
476.342	2.72
476.693	2.73
477.044	2.74
477.395	2.73
477.746	2.73
478.097	2.71
478.448	2.68
478.8	2.67
479.15	2.65
479.501	2.65
479.852	2.64
480.203	2.63
480.554	2.62
480.905	2.64
481.255	2.64
481.606	2.64
481.957	2.65
482.307	2.65
482.658	2.63
483.009	2.63
483.359	2.64
483.709	2.65
484.06	2.65
484.41	2.65
484.761	2.64
485.111	2.65
485.461	2.66
485.811	2.67
486.162	2.68
486.512	2.69
486.862	2.69
487.212	2.7
487.562	2.71
487.912	2.73
488.262	2.73
488.612	2.74
488.961	2.75
489.311	2.76
489.661	2.77
490.011	2.79
490.36	2.8
490.71	2.81
491.06	2.82
491.409	2.83
491.759	2.84
492.108	2.86
492.458	2.87
492.807	2.87
493.157	2.88
493.506	2.92
493.855	2.92
494.204	2.94
494.554	2.96
494.903	2.97
495.252	2.98
495.601	3.01
495.95	3.03
496.299	3.07
496.648	3.11
496.997	3.14
497.346	3.18
497.695	3.23
498.043	3.27
498.392	3.28
498.741	3.33
499.09	3.36
499.438	3.41
499.787	3.44
500.135	3.48
500.484	3.52
500.832	3.55
501.181	3.62
501.529	3.66
501.878	3.71
502.226	3.76
502.574	3.81
502.923	3.87
503.271	3.91
503.619	3.95
503.967	4.02
504.315	4.07
504.663	4.14
505.011	4.2
505.359	4.26
505.707	4.35
506.055	4.42
506.403	4.49
506.751	4.56
507.098	4.63
507.446	4.72
507.794	4.79
508.141	4.87
508.489	4.97
508.837	5.07
509.184	5.15
509.531	5.22
509.879	5.3
510.226	5.39
510.574	5.49
510.921	5.58
511.268	5.65
511.616	5.72
511.963	5.8
512.31	5.89
512.657	5.98
513.004	6.08
513.351	6.19
513.698	6.31
514.045	6.41
514.392	6.53
514.739	6.65
515.086	6.78
515.432	6.88
515.779	6.96
516.126	7.07
516.473	7.21
516.819	7.35
517.166	7.48
517.512	7.58
517.859	7.69
518.205	7.81
518.552	7.95
518.898	8.07
519.245	8.19
519.591	8.31
519.937	8.44
520.283	8.57
520.629	8.7
520.976	8.85
521.322	9.01
521.668	9.15
522.014	9.31
522.36	9.49
522.706	9.69
523.052	9.9
523.398	10.11
523.743	10.31
524.089	10.52
524.435	10.71
524.781	10.93
525.126	11.12
525.472	11.29
525.817	11.43
526.163	11.58
526.509	11.74
526.854	11.88
527.199	12.01
527.545	12.14
527.89	12.28
528.235	12.42
528.581	12.56
528.926	12.7
529.271	12.86
529.616	13
529.961	13.15
530.306	13.31
530.651	13.48
530.996	13.66
531.341	13.83
531.686	14.03
532.031	14.2
532.376	14.38
532.721	14.59
533.065	14.81
533.41	15.03
533.755	15.25
534.099	15.47
534.444	15.71
534.788	15.95
535.133	16.15
535.477	16.37
535.822	16.61
536.166	16.86
536.51	17.11
536.855	17.41
537.199	17.66
537.543	17.95
537.887	18.24
538.231	18.49
538.576	18.81
538.92	19.08
539.264	19.34
539.608	19.59
539.951	19.82
540.295	20.05
540.639	20.28
540.983	20.48
541.327	20.66
541.671	20.85
542.014	21.04
542.358	21.25
542.701	21.47
543.045	21.68
543.389	21.9
543.732	22.09
544.075	22.29
544.419	22.52
544.762	22.71
545.105	22.91
545.449	23.16
545.792	23.34
546.135	23.56
546.478	23.83
546.821	24.11
547.165	24.39
547.508	24.66
547.851	24.89
548.194	25.16
548.536	25.48
548.879	25.78
549.222	26.04
549.565	26.3
549.908	26.54
550.25	26.74
550.593	26.97
550.936	27.22
551.278	27.46
551.621	27.69
551.963	27.96
552.306	28.24
552.648	28.49
552.991	28.78
553.333	29.06
553.675	29.24
554.017	29.43
554.36	29.6
554.702	29.82
555.044	30.05
555.386	30.27
555.728	30.44
556.07	30.64
556.412	30.82
556.754	31
557.096	31.15
557.438	31.34
557.78	31.59
558.121	31.82
558.463	32.03
558.805	32.19
559.147	32.37
559.488	32.5
559.83	32.66
560.171	32.82
560.513	32.97
560.854	33.17
561.196	33.35
561.537	33.52
561.878	33.67
562.22	33.82
562.561	33.92
562.902	34.09
563.243	34.19
563.584	34.34
563.925	34.51
564.266	34.6
564.607	34.71
564.948	34.78
565.289	34.92
565.63	35.04
565.971	35.23
566.312	35.32
566.653	35.38
566.993	35.49
567.334	35.64
567.675	35.77
568.015	35.9
568.356	35.97
568.696	36.06
569.037	36.16
569.377	36.26
569.718	36.4
570.058	36.49
570.398	36.58
570.739	36.7
571.079	36.82
571.419	36.98
571.759	37.12
572.099	37.24
572.439	37.29
572.779	37.39
573.119	37.42
573.459	37.53
573.799	37.69
574.139	37.79
574.479	37.86
574.819	37.94
575.158	37.98
575.498	38.09
575.838	38.23
576.177	38.35
576.517	38.42
576.856	38.48
577.196	38.54
577.535	38.67
577.875	38.77
578.214	38.81
578.553	38.9
578.893	39
579.232	39.14
579.571	39.19
579.91	39.26
580.25	39.37
580.589	39.44
580.928	39.5
581.267	39.57
581.606	39.63
581.945	39.65
582.283	39.8
582.622	39.87
582.961	39.93
583.3	39.93
583.639	40.01
583.977	40.03
584.316	40.06
584.654	40.11
584.993	40.11
585.332	40.22
585.67	40.29
586.008	40.3
586.347	40.32
586.685	40.43
587.024	40.39
587.362	40.42
587.7	40.49
588.038	40.51
588.376	40.6
588.715	40.62
589.053	40.74
589.391	40.74
589.729	40.81
590.067	40.82
590.404	40.84
590.742	40.87
591.08	40.89
591.418	40.96
591.756	41
592.093	41.05
592.431	41.03
592.769	41.02
593.106	41.03
593.444	41.03
593.781	41.07
594.119	41.17
594.456	41.21
594.793	41.21
595.131	41.25
595.468	41.25
595.805	41.29
596.143	41.32
596.48	41.39
596.817	41.43
597.154	41.48
597.491	41.51
597.828	41.55
598.165	41.61
598.502	41.66
598.839	41.72
599.176	41.76
599.512	41.82
599.849	41.84
600.186	41.91
600.523	41.96
600.859	42.04
601.196	42.13
601.532	42.18
601.869	42.18
602.205	42.22
602.542	42.21
602.878	42.18
603.215	42.13
603.551	42.19
603.887	42.2
604.223	42.18
604.56	42.23
604.896	42.27
605.232	42.31
605.568	42.33
605.904	42.36
606.24	42.43
606.576	42.48
606.912	42.55
607.248	42.53
607.583	42.58
607.919	42.58
608.255	42.58
608.591	42.6
608.926	42.66
609.262	42.72
609.597	42.76
609.933	42.84
610.268	42.93
610.604	42.89
610.939	42.92
611.275	42.98
611.61	43
611.945	43.04
612.281	43.11
612.616	43.18
612.951	43.22
613.286	43.22
613.621	43.23
613.956	43.21
614.291	43.25
614.626	43.24
614.961	43.18
615.296	43.15
615.631	43.19
615.966	43.26
616.3	43.27
616.635	43.39
616.97	43.4
617.304	43.36
617.639	43.37
617.973	43.31
618.308	43.31
618.642	43.38
618.977	43.38
619.311	43.32
619.646	43.33
619.98	43.33
620.314	43.35
620.648	43.38
620.983	43.45
621.317	43.46
621.651	43.47
621.985	43.49
622.319	43.59
622.653	43.64
622.987	43.69
623.321	43.66
623.655	43.63
623.988	43.62
624.322	43.67
624.656	43.74
624.99	43.82
625.323	43.81
625.657	43.81
625.99	43.78
626.324	43.82
626.657	43.83
626.991	43.78
627.324	43.78
627.658	43.82
627.991	43.8
628.324	43.83
628.657	43.87
628.991	43.94
629.324	43.95
629.657	43.91
629.99	43.91
630.323	43.92
630.656	43.91
630.989	43.99
631.322	43.97
631.655	43.97
631.987	43.92
632.32	43.97
632.653	43.97
632.986	44.03
633.318	44.07
633.651	44.06
633.984	44.12
634.316	44.13
634.649	44.07
634.981	44.17
635.313	44.18
635.646	44.21
635.978	44.18
636.31	44.19
636.643	44.21
636.975	44.14
637.307	44.13
637.639	44.16
637.971	44.11
638.303	44.07
638.635	44.03
638.967	44.15
639.299	44.12
639.631	44.13
639.963	44.08
640.295	44.05
640.626	44.07
640.958	44.07
641.29	44.05
641.621	44.1
641.953	44.13
642.285	44.12
642.616	44.09
642.948	44.08
643.279	44.01
643.61	44
643.942	44.01
644.273	44.01
644.604	43.96
644.936	43.93
645.267	44.05
645.598	44.1
645.929	44.16
646.26	44.16
646.591	44.13
646.922	44.21
647.253	44.28
647.584	44.32
647.915	44.3
648.245	44.36
648.576	44.46
648.907	44.43
649.238	44.47
649.568	44.55
649.899	44.61
650.229	44.57
650.56	44.65
650.89	44.75
651.221	44.77
651.551	44.9
651.882	45.01
652.212	44.97
652.542	44.98
652.872	44.87
653.203	44.91
653.533	44.98
653.863	45.08
654.193	45.04
654.523	45.01
654.853	45.08
655.183	45.11
655.513	45.04
655.843	45.08
656.172	45
656.502	45.03
656.832	45
657.162	45.12
657.491	45.14
657.821	45.1
658.15	45.15
658.48	45.22
658.809	45.17
659.139	45.27
659.468	45.23
659.798	45.28
660.127	45.31
660.456	45.33
660.785	45.3
661.115	45.29
661.444	45.21
661.773	45.11
662.102	44.99
662.431	45.07
662.76	44.97
663.089	45.06
663.418	45.02
663.747	45.11
664.076	45.13
664.404	45.1
664.733	45.1
665.062	45.11
665.39	45
665.719	45.08
666.048	45.05
666.376	45.12
666.705	45.11
667.033	45.12
667.362	45.02
667.69	44.92
668.018	44.98
668.347	45.12
668.675	45.25
669.003	45.29
669.331	45.26
669.659	45.23
669.987	45.2
670.315	45.25
670.643	45.18
670.971	45.13
671.299	45.17
671.627	45.21
671.955	45.17
672.283	45.17
672.61	45.15
672.938	45.07
673.266	45.03
673.593	45.16
673.921	45.19
674.249	45.29
674.576	45.25
674.904	45.09
675.231	45.1
675.558	45
675.886	45.12
676.213	45.13
676.54	45.2
676.867	45.33
677.195	45.23
677.522	45.27
677.849	45.21
678.176	45.17
678.503	45.23
678.83	45.2
679.157	45.16
679.484	45.13
679.81	45.18
680.137	45.26
680.464	45.15
680.791	45.17
681.117	45.09
681.444	45.15
681.771	45.35
682.097	45.3
682.424	45.36
682.75	45.31
683.077	45.29
683.403	45.31
683.729	45.2
684.056	45.29
684.382	45.25
684.708	45.38
685.034	45.41
685.36	45.33
685.686	45.46
686.012	45.45
686.339	45.57
686.664	45.57
686.99	45.59
687.316	45.55
687.642	45.55
687.968	45.73
688.294	45.68
688.619	45.65
688.945	45.75
689.271	45.81
689.596	45.8
689.922	45.71
690.247	45.69
690.573	45.82
690.898	45.9
691.224	45.93
691.549	45.85
691.874	45.78
692.2	45.81
692.525	45.91
692.85	45.92
693.175	45.8
693.5	45.61
693.825	45.52
694.15	45.57
694.475	45.5
694.8	45.32
695.125	45.39
695.45	45.38
695.775	45.28
696.099	45.2
696.424	45.32
696.749	45.28
697.073	45.34
697.398	45.24
697.723	45.09
698.047	45.11
698.372	45.15
698.696	45.18
699.02	45.08
699.345	45
699.669	45.19
699.993	45.19
700.318	45.39
700.642	45.44
700.966	45.45
701.29	45.44
701.614	45.42
701.938	45.57
702.262	45.54
702.586	45.72
702.91	45.76
703.234	45.77
703.557	45.87
703.881	45.86
704.205	45.86
704.529	46.06
704.852	46.02
705.176	46.07
705.499	46.17
705.823	46.4
706.146	46.41
706.47	46.3
706.793	46.34
707.117	46.23
707.44	46.16
707.763	46.18
708.086	46.24
708.409	46.32
708.733	46.19
709.056	46.29
709.379	46.24
709.702	46.24
710.025	46.24
710.348	46.14
710.671	46.03
710.993	45.97
711.316	45.98
711.639	46.08
711.962	46.02
712.284	45.83
712.607	45.78
712.93	45.66
713.252	45.67
713.575	45.73
713.897	45.69
714.22	45.63
714.542	45.65
714.864	45.75
715.187	45.74
715.509	45.53
715.831	45.42
716.153	45.39
716.475	45.35
716.798	45.27
717.12	45.44
717.442	45.58
717.764	45.67
718.085	45.68
718.407	45.62
718.729	45.66
719.051	45.79
719.373	45.69
719.695	45.95
720.016	46.04
720.338	46.18
720.659	46.32
720.981	46.39
721.302	46.4
721.624	46.28
721.945	46.13
722.267	46.49
722.588	46.63
722.909	46.65
723.231	46.63
723.552	46.62
723.873	46.49
724.194	46.58
724.515	46.53
724.836	46.4
725.157	46.43
725.478	46.34
725.799	46.47
726.12	46.67
726.441	46.45
726.762	46.26
727.083	46.07
727.403	46.1
727.724	46.29
728.045	46.19
728.365	46.3
728.686	46.57
729.006	46.31
729.327	46.19
729.647	46.16
729.967	46.39
730.288	46.49
730.608	46.56
730.928	46.35
731.249	46.43
731.569	46.43
731.889	46.46
732.209	46.51
732.529	46.44
732.849	46.12
733.169	46.11
733.489	46.18
733.809	46.18
734.129	46.04
734.448	46.03
734.768	45.87
735.088	45.63
735.408	45.58
735.727	45.84
736.047	45.78
736.366	45.69
736.686	45.69
737.005	45.52
737.325	45.43
737.644	45.54
737.963	45.43
738.283	45.42
738.602	45.49
738.921	45.38
739.24	45.61
739.56	45.92
739.879	46
740.198	45.91
740.517	45.8
740.836	45.87
741.155	45.51
741.473	45.83
741.792	45.9
742.111	45.69
742.43	45.6
742.748	45.59
743.067	45.76
743.386	45.68
743.704	45.68
744.023	45.61
744.341	45.72
744.66	45.9
744.978	45.84
745.297	45.43
745.615	45.52
745.933	45.61
746.252	45.38
746.57	45.43
746.888	45.34
747.206	45.36
747.524	45.35
747.842	45.41
748.16	45.34
748.478	45.45
748.796	45.66
749.114	45.67
749.432	45.92
749.749	46.08
750.067	45.93
750.385	46.02
750.703	46.22
751.02	45.86
751.338	45.61
751.655	45.58
751.973	45.98
752.29	45.95
752.608	45.74
752.925	45.93
753.242	46.03
753.56	46.05
753.877	45.97
754.194	45.93
754.511	46.33
754.828	46.41
755.145	46.54
755.462	46.63
755.779	46.33
756.096	46.41
756.413	46.4
756.73	46.2
757.047	46.53
757.364	46.55
757.68	46.86
757.997	47.16
758.314	47.03
758.63	46.91
758.947	46.94
759.264	46.87
759.58	46.8
759.896	46.89
760.213	46.69
760.529	46.82
760.846	46.73
761.162	46.66
761.478	46.84
761.794	46.58
762.11	46.57
762.426	46.99
762.743	46.94
763.059	47.01
763.375	47.19
763.69	47.08
764.006	47.17
764.322	47.28
764.638	47.2
764.954	47.62
765.27	47.72
765.585	47.73
765.901	47.67
766.216	47.86
766.532	47.75
766.848	48.14
767.163	48.15
767.478	48.15
767.794	47.79
768.109	47.42
768.424	47.82
768.74	47.95
769.055	47.63
769.37	47.54
769.685	47.23
770	47.25
770.315	46.91
770.63	46.73
770.945	46.25
771.26	46.24
771.575	45.68
771.89	45.63
772.205	45.66
772.52	45.74
772.834	45.43
773.149	45.03
773.464	44.72
773.778	44.93
774.093	45
774.407	45.53
774.722	45.67
775.036	45.06
775.351	45.14
775.665	45.22
775.979	45.05
776.293	45.45
776.608	45.4
776.922	45.62
777.236	45.33
777.55	45.35
777.864	45.34
778.178	45.66
778.492	45.56
778.806	45.51
779.12	45.74
779.434	45.71
779.747	45.72
780.061	45.69
780.375	45.42
780.689	45.56
781.002	45.4
781.316	45.79
781.629	46.18
781.943	45.74
782.256	45.97
782.57	46.06
782.883	45.77
783.196	45.87
783.51	45.78
783.823	46
784.136	46.1
784.449	46.11
784.762	46.29
785.075	46.39
785.388	46.32
785.701	45.94
786.014	45.61
786.327	46.05
786.64	46.18
786.953	46.26
787.266	45.82
787.578	46.01
787.891	45.91
788.204	46.13
788.516	46.37
788.829	45.68
789.141	45.57
789.454	45.97
789.766	45.81
790.079	45.83
790.391	45.56
790.703	45.6
791.016	45.6
791.328	45.77
791.64	45.73
791.952	45.69
792.264	45.46
792.576	45.8
792.888	45.34
793.2	45.52
793.512	45.9
793.824	46.32
794.136	46.2
794.448	46.02
794.76	45.48
795.071	45.11
795.383	45.52
795.695	45.65
796.006	45.08
796.318	45.34
796.629	45.21
796.941	45.19
797.252	45.61
797.564	45.84
797.875	45.55
798.186	45.94
798.497	46.05
798.809	46.22
799.12	46.05
799.431	46.42
799.742	46.39
800.053	46.48
800.364	46.45
800.675	46.21
800.986	46.38
801.297	46.33
801.608	46.39
801.918	46.16
802.229	46.68
802.54	46.42
802.851	45.98
803.161	45.92
803.472	46.09
803.782	45.95
804.093	45.93
804.403	45.34
804.714	44.44
805.024	44.55
805.334	44.31
805.645	44.8
805.955	44.95
806.265	44.7
806.575	44.03
806.885	44.21
807.195	44.4
807.505	44.18
807.815	44.53
808.125	45.14
808.435	45.61
808.745	45.16
809.055	46.14
809.365	46.52
809.674	46.51
809.984	47.35
810.294	47.31
810.603	46.6
810.913	47.3
811.222	48.14
811.532	47.7
811.841	47.87
812.151	48.05
812.46	47.76
812.769	47.78
813.079	47.67
813.388	47.63
813.697	48.04
814.006	47.41
814.315	47.6
814.624	47.07
814.933	46.68
815.242	46.69
815.551	45.86
815.86	46.51
816.169	46.76
816.478	46.45
816.786	46.64
817.095	47.23
817.404	47.39
817.712	46.67
818.021	47
818.33	47.2
818.638	46.49
818.947	46.03
819.255	45.72
819.563	45.82
819.872	45.55
820.18	45.54
820.488	45.6
820.796	45.35
821.105	45.66
821.413	45.8
821.721	45.51
822.029	45.64
822.337	45.52
822.645	45.42
822.953	45.47
823.26	45.3
823.568	45.27
823.876	45.21
824.184	45.3
824.491	45.19
824.799	45.05
825.107	45.08
825.414	45.25
825.722	45.32
826.029	45.28
826.337	45.32
826.644	45.15
826.951	45.2
827.259	45.24
827.566	44.99
827.873	44.98
828.18	45.27
828.488	45.12
828.795	44.86
829.102	45.09
829.409	45.14
829.716	45.25
830.023	45.11
830.329	44.93
830.636	44.82
830.943	44.87
831.25	45.05
831.557	45.11
831.863	45.07
832.17	44.82
832.476	45.17
832.783	45.37
833.089	45.41
833.396	45.84
833.702	46.14
834.009	46.2
834.315	46.59
834.621	46.24
834.928	46.13
835.234	46.22
835.54	45.93
835.846	45.35
836.152	44.89
836.458	44.84
836.764	44.92
837.07	44.69
837.376	44.72
837.682	44.54
837.988	44.55
838.293	44.32
838.599	44.7
838.905	44.42
839.211	43.65
839.516	43.73
839.822	42.74
840.127	42.13
840.433	42.22
840.738	40.9
841.044	40.68
841.349	40.57
841.654	39.66
841.959	40.54
842.265	40.58
842.57	41.54
842.875	42.02
843.18	42.6
843.485	42.56
843.79	43.15
844.095	43.14
844.4	42.94
844.705	42.93
845.01	43.29
845.315	43.14
845.619	43.74
845.924	44.91
846.229	46.43
846.533	47.58
846.838	47.71
847.142	47.29
847.447	48.45
847.751	49.41
848.056	52.02
848.36	49.3
848.664	50.14
848.969	48.75
849.273	47.93
849.577	47.56
849.881	49.09
850.185	48.58
850.489	50.66
850.794	51.8
851.097	52.18
851.401	52.26
851.705	52.22
852.009	53.23
852.313	50.96
852.617	49.74
852.92	46.74
853.224	47.24
853.528	48.18
853.831	45.99
854.135	45.08
854.438	43.11
854.742	44.4
855.045	44.07
855.349	45.9
855.652	46.36
855.955	43.75
856.259	43.73
856.562	42.87
856.865	41.06
857.168	41.17
857.471	41.06
857.774	39.55
858.077	38.55
858.38	38.16
858.683	38.45
858.986	39.61
859.289	40.87
859.592	39.48
859.894	42.54
860.197	44.58
860.5	43.23
860.802	43.97
861.105	43.86
861.407	45.09
861.71	44.36
862.012	43.68
862.315	44.71
862.617	43.47
862.919	43.73
863.222	43.57
863.524	42.49
863.826	43.62
864.128	43.86
864.43	46
864.732	45.83
865.034	44.85
865.336	43.03
865.638	41.56
865.94	41.18
866.242	37.4
866.544	35.56
866.846	35.28
867.147	37.74
867.449	40.13
867.751	38.6
868.052	36.96
868.354	35.73
868.655	35.72
868.957	34.55
869.258	35.97
869.56	34.3
869.861	34.28
870.162	34.41
870.463	33.68
870.765	32.02
871.066	31.7
871.367	31.91
871.668	32.76
871.969	35.34
872.27	33.43
872.571	35.62
872.872	37.96
873.173	39.51
873.473	38.14
873.774	35.99
874.075	36.37
874.376	36.9
874.676	38.91
874.977	38.97
875.277	41.86
875.578	39.75
875.878	41.35
876.179	41.53
876.479	39.79
876.78	40.98
877.08	42.03
877.38	41.7
877.68	43.43
877.981	43.15
878.281	41.08
878.581	45.4
