Data from BA56832_Reflection_00012.txt Node
Date: Mon Nov 18 16:10:05 EST 2019
User: vgr7
Spectrometer: USB2G7710
Scans to average: 3
Trigger mode: 4
Integration Time (sec): 2.000000E-2
Electric dark correction enabled: true
Boxcar width: 10
XAxis mode: Wavelengths
Number of Pixels in Spectrum: 2048
>>>>>Begin Spectral Data<<<<<
177.721	-24.68
178.105	19.47
178.488	41.63
178.871	87.7
179.254	139.56
179.636	69.47
180.019	-115.26
180.402	338.46
180.785	-2518.56
181.168	1161.64
181.55	170.13
181.933	116.2
182.316	266.06
182.698	426.81
183.081	223.96
183.463	284.31
183.846	275.41
184.228	205
184.611	313.72
184.993	305.82
185.376	262.32
185.758	323.08
186.14	470.29
186.522	840.88
186.904	9972.34
187.287	8981.36
187.669	-3281.29
188.051	-678.54
188.433	-665.4
188.815	-864.66
189.197	-578.09
189.579	-306.43
189.961	-264.83
190.342	-331.32
190.724	-252.47
191.106	-219.22
191.488	-252.28
191.869	-166.73
192.251	-133.98
192.633	-224.35
193.014	-286.15
193.396	-484.74
193.777	-710.89
194.159	-983.15
194.54	-469.54
194.922	-349.59
195.303	-373.64
195.684	-327.4
196.065	-209.51
196.447	-178.87
196.828	-169.44
197.209	-127.22
197.59	-123.94
197.971	-143.16
198.352	-128.31
198.733	-271.21
199.114	-137.13
199.495	-121.44
199.876	-177.81
200.257	-134.15
200.638	-76.09
201.018	-78.03
201.399	-54.11
201.78	-51.63
202.16	-62.84
202.541	-88.89
202.922	-167.93
203.302	-196.11
203.683	-163.08
204.063	-176.91
204.444	-194.3
204.824	-154.84
205.204	-179.92
205.585	-161.41
205.965	-136.54
206.345	-143.06
206.725	-128.2
207.106	-255.88
207.486	-445.28
207.866	-506.18
208.246	-1267.68
208.626	20031.03
209.006	-5082.61
209.386	-1557.14
209.766	-829.99
210.145	-511.44
210.525	-309.85
210.905	-219.21
211.285	-150.08
211.664	-132.83
212.044	-148.47
212.424	-135.89
212.803	-187.83
213.183	-165.78
213.562	-157.92
213.942	-164.5
214.321	-155.79
214.701	-183.92
215.08	-138.8
215.459	-114.53
215.838	-100.15
216.218	-78.05
216.597	-51.9
216.976	-54.83
217.355	-55.31
217.734	-67.35
218.113	-81.44
218.492	-124.43
218.871	-113.67
219.25	-110.48
219.629	-108.55
220.008	-130.1
220.387	-114.32
220.766	-100.24
221.144	-161.92
221.523	-218.36
221.902	-285.08
222.28	-210.36
222.659	-128.72
223.037	-107.84
223.416	-97.93
223.794	-91.4
224.173	-92.05
224.551	-78.79
224.929	-73.33
225.308	-54.85
225.686	-36.86
226.064	-29.59
226.442	-21.81
226.821	-21.64
227.199	-23.32
227.577	-27.86
227.955	-24.21
228.333	-23.15
228.711	-21.91
229.089	-14.29
229.467	-13.36
229.845	-11.14
230.222	-13.13
230.6	-12.79
230.978	-12.47
231.356	-9.61
231.733	-9.03
232.111	-9.1
232.488	-10.92
232.866	-9.79
233.243	-13.59
233.621	-15.55
233.998	-13.28
234.376	-14.44
234.753	-13.03
235.13	-12.89
235.508	-11.97
235.885	-11.58
236.262	-13.32
236.639	-11.92
237.016	-10.41
237.393	-7.31
237.77	-5.39
238.147	-4.95
238.524	-4.01
238.901	-2.42
239.278	-2.08
239.655	-0.82
240.032	-0.13
240.409	0.46
240.785	0.8
241.162	1.91
241.539	2.18
241.915	2.21
242.292	2.4
242.668	2.43
243.045	3.04
243.421	3.27
243.798	3.51
244.174	3.94
244.551	3.77
244.927	3.45
245.303	3.44
245.679	3.41
246.056	3.68
246.432	3.89
246.808	3.88
247.184	3.5
247.56	3.21
247.936	3.18
248.312	3.35
248.688	3.42
249.064	3.31
249.44	3.34
249.815	3.4
250.191	3.72
250.567	3.58
250.943	3.21
251.318	3.48
251.694	3.58
252.069	3.42
252.445	3.72
252.82	3.83
253.196	3.75
253.571	3.73
253.947	3.8
254.322	3.67
254.697	3.45
255.073	3.76
255.448	4.15
255.823	4.11
256.198	4.32
256.573	4.53
256.948	4.7
257.323	4.81
257.698	4.84
258.073	4.73
258.448	4.81
258.823	4.94
259.198	4.79
259.573	4.75
259.948	4.77
260.322	4.65
260.697	4.69
261.072	4.63
261.446	4.68
261.821	4.69
262.195	4.7
262.57	4.65
262.944	4.53
263.319	4.44
263.693	4.34
264.067	4.29
264.442	4.19
264.816	4.05
265.19	3.89
265.564	3.84
265.938	3.6
266.313	3.49
266.687	3.44
267.061	3.47
267.435	3.42
267.809	3.52
268.183	3.75
268.556	3.67
268.93	3.85
269.304	3.66
269.678	3.86
270.051	3.84
270.425	4.04
270.799	4.13
271.172	4.15
271.546	4.28
271.919	4.14
272.293	4.08
272.666	4.14
273.04	4.32
273.413	4.2
273.787	4.27
274.16	4.31
274.533	4.22
274.906	4.17
275.279	4.15
275.653	4.05
276.026	3.91
276.399	3.89
276.772	3.84
277.145	4.06
277.518	3.91
277.891	3.84
278.263	3.77
278.636	3.83
279.009	3.67
279.382	3.78
279.755	3.81
280.127	4.01
280.5	4.11
280.872	4.07
281.245	4
281.617	4.04
281.99	4.11
282.362	4.24
282.735	4.18
283.107	4.31
283.479	4.35
283.852	4.37
284.224	4.3
284.596	4.28
284.968	4.27
285.34	4.25
285.713	4.27
286.085	4.29
286.457	4.36
286.829	4.5
287.201	4.45
287.572	4.5
287.944	4.36
288.316	4.29
288.688	4.33
289.06	4.44
289.431	4.47
289.803	4.44
290.175	4.4
290.546	4.56
290.918	4.51
291.289	4.45
291.661	4.5
292.032	4.73
292.403	4.7
292.775	4.69
293.146	4.81
293.517	4.9
293.889	4.92
294.26	4.91
294.631	4.97
295.002	5.03
295.373	5.05
295.744	5.21
296.115	5.38
296.486	5.38
296.857	5.46
297.228	5.66
297.599	5.63
297.97	5.73
298.34	5.84
298.711	5.79
299.082	5.93
299.452	6
299.823	6.06
300.194	6.18
300.564	6.29
300.935	6.29
301.305	6.28
301.676	6.33
302.046	6.41
302.416	6.6
302.787	6.65
303.157	6.76
303.527	6.64
303.897	6.75
304.267	6.88
304.637	7.09
305.008	7.1
305.378	7.42
305.748	7.56
306.117	7.54
306.487	7.7
306.857	7.78
307.227	7.95
307.597	7.96
307.967	8.03
308.336	8.19
308.706	8.24
309.076	8.45
309.445	8.52
309.815	8.61
310.184	8.56
310.554	8.67
310.923	8.66
311.293	8.98
311.662	8.97
312.031	9.01
312.401	9
312.77	9.16
313.139	9.12
313.508	9.15
313.877	9.17
314.246	9.33
314.616	9.28
314.985	9.27
315.353	9.3
315.722	9.33
316.091	9.25
316.46	9.31
316.829	9.36
317.198	9.47
317.567	9.44
317.935	9.45
318.304	9.38
318.672	9.46
319.041	9.45
319.41	9.48
319.778	9.61
320.147	9.72
320.515	9.7
320.883	9.58
321.252	9.71
321.62	9.82
321.988	9.85
322.357	10.08
322.725	10.14
323.093	10.28
323.461	10.47
323.829	10.7
324.197	10.83
324.565	10.92
324.933	10.96
325.301	11.03
325.669	11.17
326.037	11.32
326.405	11.39
326.772	11.48
327.14	11.6
327.508	11.55
327.875	11.39
328.243	11.4
328.61	11.53
328.978	11.58
329.346	11.62
329.713	11.74
330.08	11.73
330.448	11.71
330.815	11.77
331.182	11.81
331.55	11.83
331.917	11.82
332.284	11.77
332.651	11.73
333.018	11.79
333.385	11.89
333.752	11.95
334.119	12.21
334.486	12.13
334.853	12.12
335.22	12.17
335.587	12.36
335.954	12.41
336.32	12.58
336.687	12.63
337.054	12.67
337.42	12.57
337.787	12.71
338.153	12.79
338.52	12.77
338.886	12.68
339.253	12.55
339.619	12.64
339.986	12.73
340.352	12.82
340.718	12.87
341.084	12.84
341.451	12.87
341.817	12.94
342.183	13.04
342.549	13.04
342.915	13.06
343.281	13.07
343.647	13.05
344.013	13.02
344.379	13.09
344.745	13.17
345.11	13.26
345.476	13.18
345.842	13.25
346.208	13.23
346.573	13.43
346.939	13.57
347.304	13.57
347.67	13.57
348.035	13.58
348.401	13.56
348.766	13.55
349.132	13.63
349.497	13.48
349.862	13.48
350.228	13.46
350.593	13.44
350.958	13.4
351.323	13.5
351.688	13.55
352.053	13.49
352.418	13.53
352.783	13.58
353.148	13.58
353.513	13.52
353.878	13.6
354.243	13.52
354.608	13.51
354.972	13.42
355.337	13.43
355.702	13.46
356.066	13.56
356.431	13.49
356.795	13.44
357.16	13.44
357.524	13.36
357.889	13.36
358.253	13.39
358.618	13.47
358.982	13.34
359.346	13.27
359.71	13.18
360.075	13.1
360.439	13.05
360.803	13.08
361.167	13.02
361.531	12.97
361.895	12.95
362.259	12.93
362.623	12.9
362.987	12.89
363.351	12.82
363.714	12.72
364.078	12.73
364.442	12.67
364.806	12.64
365.169	12.6
365.533	12.59
365.896	12.55
366.26	12.43
366.623	12.46
366.987	12.44
367.35	12.43
367.714	12.39
368.077	12.25
368.44	12.15
368.803	12.22
369.167	12.21
369.53	12.06
369.893	11.98
370.256	12.04
370.619	11.95
370.982	11.88
371.345	11.78
371.708	11.76
372.071	11.61
372.434	11.52
372.797	11.44
373.159	11.27
373.522	11.23
373.885	11.19
374.247	11.09
374.61	11.03
374.973	10.93
375.335	10.88
375.698	10.9
376.06	10.83
376.423	10.71
376.785	10.63
377.147	10.59
377.51	10.48
377.872	10.34
378.234	10.3
378.596	10.26
378.958	10.2
379.321	10.12
379.683	10.16
380.045	10.08
380.407	10.05
380.769	10.02
381.13	9.87
381.492	9.8
381.854	9.75
382.216	9.7
382.578	9.67
382.939	9.6
383.301	9.51
383.663	9.46
384.024	9.39
384.386	9.34
384.747	9.28
385.109	9.24
385.47	9.15
385.832	9.05
386.193	9.01
386.554	8.95
386.916	8.84
387.277	8.72
387.638	8.7
387.999	8.62
388.36	8.59
388.721	8.56
389.082	8.53
389.443	8.4
389.804	8.34
390.165	8.24
390.526	8.2
390.887	8.13
391.248	8.07
391.609	8.01
391.969	7.92
392.33	7.88
392.691	7.86
393.051	7.83
393.412	7.78
393.772	7.68
394.133	7.67
394.493	7.64
394.854	7.65
395.214	7.56
395.574	7.57
395.935	7.5
396.295	7.45
396.655	7.34
397.015	7.29
397.376	7.22
397.736	7.18
398.096	7.11
398.456	7.08
398.816	7.04
399.176	6.97
399.535	6.91
399.895	6.85
400.255	6.77
400.615	6.69
400.975	6.66
401.334	6.65
401.694	6.59
402.054	6.52
402.413	6.44
402.773	6.4
403.132	6.3
403.492	6.26
403.851	6.2
404.211	6.18
404.57	6.17
404.929	6.12
405.288	6.08
405.648	6.04
406.007	5.97
406.366	5.95
406.725	5.97
407.084	5.94
407.443	5.92
407.802	5.91
408.161	5.87
408.52	5.81
408.879	5.78
409.238	5.73
409.596	5.74
409.955	5.73
410.314	5.71
410.673	5.69
411.031	5.65
411.39	5.64
411.748	5.61
412.107	5.58
412.465	5.55
412.824	5.55
413.182	5.54
413.54	5.56
413.899	5.54
414.257	5.5
414.615	5.46
414.974	5.41
415.332	5.38
415.69	5.37
416.048	5.36
416.406	5.34
416.764	5.3
417.122	5.25
417.48	5.22
417.838	5.19
418.195	5.17
418.553	5.15
418.911	5.11
419.269	5.1
419.626	5.07
419.984	5.05
420.342	5
420.699	4.96
421.057	4.91
421.414	4.88
421.772	4.86
422.129	4.85
422.486	4.84
422.844	4.83
423.201	4.8
423.558	4.77
423.915	4.74
424.273	4.74
424.63	4.72
424.987	4.69
425.344	4.69
425.701	4.66
426.058	4.64
426.415	4.62
426.772	4.6
427.128	4.59
427.485	4.57
427.842	4.55
428.199	4.54
428.555	4.53
428.912	4.52
429.269	4.51
429.625	4.49
429.982	4.48
430.338	4.44
430.695	4.44
431.051	4.44
431.407	4.45
431.764	4.42
432.12	4.4
432.476	4.4
432.832	4.39
433.189	4.39
433.545	4.4
433.901	4.4
434.257	4.39
434.613	4.39
434.969	4.4
435.325	4.43
435.681	4.44
436.036	4.43
436.392	4.41
436.748	4.41
437.104	4.39
437.459	4.39
437.815	4.39
438.171	4.4
438.526	4.39
438.882	4.36
439.237	4.37
439.593	4.38
439.948	4.37
440.304	4.36
440.659	4.35
441.014	4.33
441.369	4.32
441.725	4.31
442.08	4.3
442.435	4.28
442.79	4.26
443.145	4.24
443.5	4.22
443.855	4.2
444.21	4.19
444.565	4.18
444.92	4.17
445.275	4.13
445.629	4.12
445.984	4.1
446.339	4.1
446.693	4.08
447.048	4.05
447.403	4.02
447.757	4
448.112	3.98
448.466	3.98
448.82	3.96
449.175	3.96
449.529	3.93
449.883	3.92
450.238	3.9
450.592	3.9
450.946	3.88
451.3	3.87
451.654	3.84
452.008	3.83
452.362	3.81
452.716	3.81
453.07	3.8
453.424	3.78
453.778	3.78
454.132	3.75
454.486	3.76
454.839	3.78
455.193	3.78
455.547	3.79
455.9	3.78
456.254	3.8
456.607	3.81
456.961	3.81
457.314	3.81
457.668	3.82
458.021	3.81
458.375	3.82
458.728	3.82
459.081	3.84
459.434	3.83
459.787	3.85
460.141	3.84
460.494	3.85
460.847	3.86
461.2	3.85
461.553	3.87
461.906	3.89
462.259	3.89
462.611	3.9
462.964	3.91
463.317	3.92
463.67	3.91
464.022	3.9
464.375	3.89
464.728	3.91
465.08	3.92
465.433	3.95
465.785	3.95
466.138	3.95
466.49	3.97
466.843	4.01
467.195	4.01
467.547	4.03
467.899	4.02
468.252	4.02
468.604	4.06
468.956	4.04
469.308	4.03
469.66	4.03
470.012	4.05
470.364	4.07
470.716	4.07
471.068	4.07
471.42	4.09
471.772	4.14
472.123	4.16
472.475	4.16
472.827	4.16
473.178	4.18
473.53	4.19
473.882	4.18
474.233	4.18
474.585	4.18
474.936	4.19
475.288	4.21
475.639	4.23
475.99	4.23
476.342	4.24
476.693	4.24
477.044	4.23
477.395	4.22
477.746	4.2
478.097	4.2
478.448	4.19
478.8	4.17
479.15	4.15
479.501	4.13
479.852	4.13
480.203	4.13
480.554	4.13
480.905	4.12
481.255	4.13
481.606	4.13
481.957	4.15
482.307	4.14
482.658	4.14
483.009	4.15
483.359	4.14
483.709	4.15
484.06	4.15
484.41	4.16
484.761	4.17
485.111	4.18
485.461	4.18
485.811	4.19
486.162	4.2
486.512	4.21
486.862	4.21
487.212	4.22
487.562	4.22
487.912	4.23
488.262	4.24
488.612	4.25
488.961	4.25
489.311	4.25
489.661	4.26
490.011	4.28
490.36	4.28
490.71	4.29
491.06	4.31
491.409	4.32
491.759	4.33
492.108	4.34
492.458	4.34
492.807	4.36
493.157	4.38
493.506	4.41
493.855	4.43
494.204	4.45
494.554	4.47
494.903	4.48
495.252	4.49
495.601	4.54
495.95	4.56
496.299	4.58
496.648	4.6
496.997	4.62
497.346	4.65
497.695	4.68
498.043	4.71
498.392	4.75
498.741	4.77
499.09	4.79
499.438	4.84
499.787	4.9
500.135	4.93
500.484	4.95
500.832	4.98
501.181	5.02
501.529	5.06
501.878	5.09
502.226	5.15
502.574	5.19
502.923	5.21
503.271	5.25
503.619	5.33
503.967	5.39
504.315	5.44
504.663	5.49
505.011	5.54
505.359	5.58
505.707	5.62
506.055	5.68
506.403	5.74
506.751	5.81
507.098	5.85
507.446	5.91
507.794	5.98
508.141	6.02
508.489	6.1
508.837	6.16
509.184	6.21
509.531	6.28
509.879	6.34
510.226	6.4
510.574	6.45
510.921	6.48
511.268	6.53
511.616	6.62
511.963	6.67
512.31	6.73
512.657	6.8
513.004	6.86
513.351	6.93
513.698	6.99
514.045	7.03
514.392	7.11
514.739	7.18
515.086	7.25
515.432	7.34
515.779	7.4
516.126	7.48
516.473	7.54
516.819	7.6
517.166	7.64
517.512	7.71
517.859	7.8
518.205	7.89
518.552	7.97
518.898	8.01
519.245	8.09
519.591	8.15
519.937	8.21
520.283	8.28
520.629	8.35
520.976	8.43
521.322	8.52
521.668	8.6
522.014	8.69
522.36	8.79
522.706	8.88
523.052	9.02
523.398	9.13
523.743	9.27
524.089	9.4
524.435	9.56
524.781	9.68
525.126	9.79
525.472	9.9
525.817	10
526.163	10.08
526.509	10.17
526.854	10.25
527.199	10.34
527.545	10.43
527.89	10.51
528.235	10.6
528.581	10.69
528.926	10.79
529.271	10.88
529.616	10.96
529.961	11.04
530.306	11.12
530.651	11.22
530.996	11.35
531.341	11.47
531.686	11.57
532.031	11.69
532.376	11.81
532.721	11.95
533.065	12.07
533.41	12.24
533.755	12.4
534.099	12.58
534.444	12.75
534.788	12.92
535.133	13.07
535.477	13.27
535.822	13.45
536.166	13.62
536.51	13.84
536.855	14.09
537.199	14.35
537.543	14.61
537.887	14.88
538.231	15.11
538.576	15.39
538.92	15.66
539.264	15.91
539.608	16.16
539.951	16.41
540.295	16.63
540.639	16.81
540.983	17.01
541.327	17.23
541.671	17.45
542.014	17.67
542.358	17.91
542.701	18.11
543.045	18.32
543.389	18.56
543.732	18.8
544.075	19.05
544.419	19.31
544.762	19.55
545.105	19.8
545.449	20.1
545.792	20.35
546.135	20.66
546.478	20.99
546.821	21.31
547.165	21.65
547.508	22.01
547.851	22.39
548.194	22.74
548.536	23.13
548.879	23.5
549.222	23.84
549.565	24.2
549.908	24.62
550.25	25.03
550.593	25.4
550.936	25.78
551.278	26.13
551.621	26.5
551.963	26.9
552.306	27.33
552.648	27.72
552.991	28.1
553.333	28.44
553.675	28.77
554.017	29.14
554.36	29.52
554.702	29.86
555.044	30.27
555.386	30.67
555.728	31.04
556.07	31.44
556.412	31.81
556.754	32.25
557.096	32.62
557.438	33.07
557.78	33.47
558.121	33.89
558.463	34.33
558.805	34.76
559.147	35.18
559.488	35.59
559.83	35.95
560.171	36.36
560.513	36.83
560.854	37.24
561.196	37.64
561.537	38.02
561.878	38.46
562.22	38.82
562.561	39.2
562.902	39.61
563.243	39.95
563.584	40.34
563.925	40.69
564.266	41.02
564.607	41.31
564.948	41.67
565.289	42.01
565.63	42.3
565.971	42.63
566.312	42.91
566.653	43.18
566.993	43.49
567.334	43.82
567.675	44.07
568.015	44.4
568.356	44.72
568.696	44.99
569.037	45.24
569.377	45.54
569.718	45.85
570.058	46.1
570.398	46.39
570.739	46.65
571.079	46.9
571.419	47.19
571.759	47.48
572.099	47.7
572.439	47.9
572.779	48.13
573.119	48.33
573.459	48.59
573.799	48.85
574.139	49.06
574.479	49.24
574.819	49.49
575.158	49.71
575.498	49.92
575.838	50.21
576.177	50.44
576.517	50.67
576.856	50.85
577.196	51.06
577.535	51.28
577.875	51.51
578.214	51.72
578.553	51.88
578.893	52.08
579.232	52.29
579.571	52.49
579.91	52.76
580.25	52.99
580.589	53.07
580.928	53.2
581.267	53.4
581.606	53.6
581.945	53.8
582.283	53.99
582.622	54.16
582.961	54.26
583.3	54.37
583.639	54.5
583.977	54.63
584.316	54.75
584.654	54.86
584.993	55.04
585.332	55.21
585.67	55.4
586.008	55.57
586.347	55.73
586.685	55.92
587.024	55.99
587.362	56.05
587.7	56.29
588.038	56.49
588.376	56.55
588.715	56.64
589.053	56.74
589.391	56.88
589.729	56.94
590.067	57.07
590.404	57.3
590.742	57.41
591.08	57.46
591.418	57.65
591.756	57.76
592.093	57.89
592.431	58
592.769	58.05
593.106	58.19
593.444	58.23
593.781	58.35
594.119	58.45
594.456	58.54
594.793	58.64
595.131	58.76
595.468	58.93
595.805	59.05
596.143	59.15
596.48	59.19
596.817	59.34
597.154	59.4
597.491	59.46
597.828	59.57
598.165	59.76
598.502	59.76
598.839	59.88
599.176	59.93
599.512	60.11
599.849	60.28
600.186	60.31
600.523	60.44
600.859	60.51
601.196	60.58
601.532	60.71
601.869	60.71
602.205	60.76
602.542	60.84
602.878	60.89
603.215	60.99
603.551	61.06
603.887	61.1
604.223	61.16
604.56	61.24
604.896	61.29
605.232	61.35
605.568	61.43
605.904	61.47
606.24	61.47
606.576	61.43
606.912	61.49
607.248	61.51
607.583	61.55
607.919	61.65
608.255	61.74
608.591	61.8
608.926	61.89
609.262	61.9
609.597	61.91
609.933	61.95
610.268	61.89
610.604	61.91
610.939	61.96
611.275	62.03
611.61	62.02
611.945	62.06
612.281	62.13
612.616	62.2
612.951	62.25
613.286	62.35
613.621	62.44
613.956	62.44
614.291	62.53
614.626	62.71
614.961	62.71
615.296	62.76
615.631	62.77
615.966	62.86
616.3	62.98
616.635	63
616.97	63.02
617.304	63.14
617.639	63.24
617.973	63.26
618.308	63.25
618.642	63.24
618.977	63.3
619.311	63.31
619.646	63.26
619.98	63.3
620.314	63.42
620.648	63.47
620.983	63.53
621.317	63.58
621.651	63.62
621.985	63.6
622.319	63.58
622.653	63.62
622.987	63.66
623.321	63.68
623.655	63.78
623.988	63.9
624.322	63.84
624.656	63.89
624.99	63.93
625.323	64.02
625.657	64.16
625.99	64.16
626.324	64.2
626.657	64.27
626.991	64.31
627.324	64.3
627.658	64.31
627.991	64.34
628.324	64.38
628.657	64.3
628.991	64.33
629.324	64.43
629.657	64.57
629.99	64.65
630.323	64.68
630.656	64.71
630.989	64.76
631.322	64.89
631.655	64.84
631.987	64.89
632.32	64.97
632.653	64.98
632.986	65.12
633.318	65.07
633.651	65.14
633.984	65.17
634.316	65.17
634.649	65.21
634.981	65.23
635.313	65.24
635.646	65.31
635.978	65.4
636.31	65.45
636.643	65.48
636.975	65.45
637.307	65.51
637.639	65.47
637.971	65.47
638.303	65.41
638.635	65.42
638.967	65.38
639.299	65.32
639.631	65.4
639.963	65.36
640.295	65.38
640.626	65.31
640.958	65.35
641.29	65.43
641.621	65.44
641.953	65.43
642.285	65.54
642.616	65.64
642.948	65.63
643.279	65.58
643.61	65.58
643.942	65.55
644.273	65.54
644.604	65.6
644.936	65.71
645.267	65.73
645.598	65.87
645.929	65.87
646.26	65.9
646.591	65.9
646.922	65.79
647.253	65.78
647.584	65.82
647.915	65.86
648.245	65.76
648.576	65.84
648.907	65.8
649.238	65.84
649.568	65.74
649.899	65.78
650.229	65.87
650.56	65.81
650.89	65.79
651.221	65.72
651.551	65.63
651.882	65.61
652.212	65.72
652.542	65.74
652.872	65.74
653.203	65.84
653.533	65.85
653.863	66.01
654.193	66.08
654.523	66.07
654.853	66.11
655.183	66.1
655.513	66.03
655.843	66.12
656.172	66.18
656.502	66.26
656.832	66.28
657.162	66.27
657.491	66.36
657.821	66.5
658.15	66.58
658.48	66.67
658.809	66.69
659.139	66.71
659.468	66.65
659.798	66.67
660.127	66.55
660.456	66.51
660.785	66.59
661.115	66.63
661.444	66.73
661.773	66.7
662.102	66.77
662.431	66.84
662.76	66.85
663.089	66.8
663.418	66.77
663.747	66.76
664.076	66.81
664.404	66.81
664.733	66.7
665.062	66.67
665.39	66.66
665.719	66.6
666.048	66.65
666.376	66.72
666.705	66.82
667.033	66.9
667.362	66.89
667.69	66.8
668.018	66.87
668.347	66.96
668.675	67
669.003	67.11
669.331	67.11
669.659	67.03
669.987	66.87
670.315	66.86
670.643	66.94
670.971	66.98
671.299	66.93
671.627	67.04
671.955	67.01
672.283	66.98
672.61	66.93
672.938	66.94
673.266	67.06
673.593	67.04
673.921	67.08
674.249	67.17
674.576	67.13
674.904	66.99
675.231	66.94
675.558	67.04
675.886	66.9
676.213	66.96
676.54	67.04
676.867	67.19
677.195	67.41
677.522	67.36
677.849	67.37
678.176	67.48
678.503	67.46
678.83	67.5
679.157	67.58
679.484	67.54
679.81	67.47
680.137	67.4
680.464	67.43
680.791	67.34
681.117	67.4
681.444	67.44
681.771	67.42
682.097	67.39
682.424	67.26
682.75	67.25
683.077	67.14
683.403	67.09
683.729	67.07
684.056	66.99
684.382	67.11
684.708	67.11
685.034	67.11
685.36	67.15
685.686	67.16
686.012	67.01
686.339	67.16
686.664	67.39
686.99	67.31
687.316	67.22
687.642	67.31
687.968	67.18
688.294	67.15
688.619	67.28
688.945	67.33
689.271	67.44
689.596	67.67
689.922	67.85
690.247	67.88
690.573	67.89
690.898	67.82
691.224	67.58
691.549	67.61
691.874	67.61
692.2	67.4
692.525	67.29
692.85	67.53
693.175	67.43
693.5	67.26
693.825	67.41
694.15	67.54
694.475	67.61
694.8	67.58
695.125	67.65
695.45	67.62
695.775	67.81
696.099	67.94
696.424	67.88
696.749	67.79
697.073	67.82
697.398	67.92
697.723	67.91
698.047	67.93
698.372	67.75
698.696	67.63
699.02	67.89
699.345	68.16
699.669	68.29
699.993	68.35
700.318	68.35
700.642	68.28
700.966	68.28
701.29	68.24
701.614	68.32
701.938	68.28
702.262	68.38
702.586	68.24
702.91	68.05
703.234	67.98
703.557	67.99
703.881	68.07
704.205	68.07
704.529	68.09
704.852	68.14
705.176	68.39
705.499	68.54
705.823	68.41
706.146	68.33
706.47	68.14
706.793	68.09
707.117	68.09
707.44	68.23
707.763	68.12
708.086	68.39
708.409	68.21
708.733	68.18
709.056	67.93
709.379	67.85
709.702	67.87
710.025	67.98
710.348	68.09
710.671	68.05
710.993	68.02
711.316	68.2
711.639	68.33
711.962	68.24
712.284	68.12
712.607	68.1
712.93	68.02
713.252	67.92
713.575	68.04
713.897	67.94
714.22	67.67
714.542	67.95
714.864	67.66
715.187	67.85
715.509	67.84
715.831	68.13
716.153	68.25
716.475	68.33
716.798	68.4
717.12	68.22
717.442	68.32
717.764	68.11
718.085	67.98
718.407	68.04
718.729	68.03
719.051	68.03
719.373	68.1
719.695	68.07
720.016	67.98
720.338	67.75
720.659	67.76
720.981	68.07
721.302	67.72
721.624	67.82
721.945	67.72
722.267	67.81
722.588	67.63
722.909	67.53
723.231	67.25
723.552	67.08
723.873	67.18
724.194	67.05
724.515	67.08
724.836	67.09
725.157	67.06
725.478	66.9
725.799	66.96
726.12	66.86
726.441	66.89
726.762	67.14
727.083	67.37
727.403	67.57
727.724	67.34
728.045	67.48
728.365	67.51
728.686	67.55
729.006	67.6
729.327	67.53
729.647	67.62
729.967	67.74
730.288	67.75
730.608	67.67
730.928	67.74
731.249	67.94
731.569	68.08
731.889	67.76
732.209	67.86
732.529	67.95
732.849	68.05
733.169	68.21
733.489	68.08
733.809	67.92
734.129	67.89
734.448	67.93
734.768	68.01
735.088	68.03
735.408	68.09
735.727	68.05
736.047	67.95
736.366	67.71
736.686	67.66
737.005	67.64
737.325	67.71
737.644	67.8
737.963	67.59
738.283	67.4
738.602	67.96
738.921	68.04
739.24	68.13
739.56	68.2
739.879	67.97
740.198	68.11
740.517	68.22
740.836	68.17
741.155	68.06
741.473	67.7
741.792	67.72
742.111	67.82
742.43	67.89
742.748	68.02
743.067	68.17
743.386	68.41
743.704	68.61
744.023	68.48
744.341	68.44
744.66	68.5
744.978	68.39
745.297	68.06
745.615	68.1
745.933	67.85
746.252	67.7
746.57	67.8
746.888	68
747.206	67.88
747.524	67.73
747.842	67.84
748.16	68.12
748.478	67.97
748.796	67.99
749.114	67.77
749.432	68.01
749.749	68.03
750.067	67.97
750.385	67.87
750.703	67.96
751.02	67.62
751.338	67.54
751.655	67.38
751.973	67.32
752.29	67.37
752.608	67.29
752.925	67.39
753.242	67.31
753.56	67.24
753.877	67.25
754.194	67.39
754.511	67.25
754.828	67.3
755.145	67.23
755.462	67.08
755.779	67.07
756.096	67.29
756.413	67.46
756.73	67.54
757.047	67.39
757.364	67.47
757.68	67.9
757.997	67.97
758.314	68.19
758.63	68.42
758.947	68.6
759.264	68.48
759.58	68.61
759.896	68.85
760.213	68.62
760.529	68.71
760.846	68.41
761.162	68.52
761.478	68.61
761.794	68.51
762.11	68.54
762.426	68.79
762.743	68.63
763.059	68.55
763.375	68.71
763.69	68.88
764.006	69.07
764.322	68.9
764.638	68.8
764.954	68.86
765.27	68.54
765.585	68.29
765.901	68.47
766.216	68.39
766.532	68.23
766.848	68.2
767.163	68.18
767.478	68.63
767.794	68.63
768.109	68.13
768.424	68.29
768.74	68.36
769.055	68.35
769.37	68.14
769.685	68.09
770	67.88
770.315	67.79
770.63	67.58
770.945	67.78
771.26	68
771.575	67.96
771.89	68.39
772.205	68.27
772.52	67.9
772.834	67.53
773.149	68.05
773.464	68.02
773.778	68.29
774.093	67.99
774.407	67.91
774.722	68.74
775.036	68.82
775.351	68.99
775.665	68.8
775.979	68.91
776.293	68.58
776.608	68.88
776.922	68.46
777.236	67.91
777.55	67.93
777.864	67.83
778.178	67.91
778.492	67.48
778.806	67.7
779.12	68.32
779.434	68.4
779.747	68.01
780.061	68.34
780.375	67.64
780.689	66.93
781.002	67.07
781.316	66.44
781.629	66.08
781.943	65.52
782.256	65.47
782.57	65.46
782.883	65.96
783.196	65.25
783.51	65.24
783.823	65.34
784.136	65.18
784.449	64.96
784.762	65.07
785.075	65.61
785.388	65.33
785.701	65
786.014	65.54
786.327	64.98
786.64	65.19
786.953	65.76
787.266	66.44
787.578	66.26
787.891	66.32
788.204	66.75
788.516	66.92
788.829	66.63
789.141	66.88
789.454	66.91
789.766	67.45
790.079	67.92
790.391	68.49
790.703	68.34
791.016	68.64
791.328	68.38
791.64	67.98
791.952	68.34
792.264	68.97
792.576	68.5
792.888	68.76
793.2	68.42
793.512	68.49
793.824	67.92
794.136	68.58
794.448	68.8
794.76	68.34
795.071	68.32
795.383	68.43
795.695	68.34
796.006	67.32
796.318	67.29
796.629	67.02
796.941	66.76
797.252	67.19
797.564	67.46
797.875	67.5
798.186	67.74
798.497	67.56
798.809	67
799.12	67.37
799.431	67.43
799.742	67.42
800.053	67.3
800.364	68.35
800.675	67.49
800.986	67.37
801.297	67.58
801.608	67.87
801.918	68.26
802.229	68.13
802.54	68.98
802.851	68.55
803.161	68.64
803.472	67.93
803.782	67.94
804.093	67.51
804.403	68.02
804.714	68.14
805.024	67.4
805.334	67.45
805.645	67.03
805.955	66.78
806.265	66.17
806.575	65.84
806.885	65.74
807.195	66.75
807.505	66.89
807.815	66.96
808.125	66.74
808.435	66.7
808.745	66.66
809.055	66.63
809.365	66.36
809.674	66.8
809.984	67.67
810.294	67.78
810.603	68.43
810.913	68.41
811.222	68.15
811.532	68.65
811.841	68.85
812.151	68.95
812.46	70.17
812.769	70.85
813.079	70.77
813.388	70.23
813.697	69.91
814.006	69.75
814.315	70.12
814.624	69.88
814.933	70.23
815.242	69.86
815.551	70.1
815.86	70.77
816.169	69.86
816.478	70.07
816.786	69.51
817.095	69.37
817.404	68.88
817.712	69.26
818.021	69.71
818.33	69.44
818.638	69.64
818.947	68.87
819.255	68.19
819.563	68.23
819.872	68.04
820.18	68
820.488	68.02
820.796	68.33
821.105	68.6
821.413	68.66
821.721	68.79
822.029	68.75
822.337	68.76
822.645	68.88
822.953	68.6
823.26	68.54
823.568	68.47
823.876	68.57
824.184	68.61
824.491	68.45
824.799	68.49
825.107	68.38
825.414	68.28
825.722	68.43
826.029	68.54
826.337	68.59
826.644	68.71
826.951	68.77
827.259	68.63
827.566	68.37
827.873	68.07
828.18	68.13
828.488	68.17
828.795	68.02
829.102	67.96
829.409	68.4
829.716	68.7
830.023	68.53
830.329	68.65
830.636	68.12
830.943	68.22
831.25	68.34
831.557	68.4
831.863	68.68
832.17	68.76
832.476	68.46
832.783	68.4
833.089	68.11
833.396	68.15
833.702	67.89
834.009	67.96
834.315	68.15
834.621	67.99
834.928	67.93
835.234	68
835.54	67.87
835.846	67.71
836.152	67.51
836.458	67.01
836.764	66.22
837.07	66.66
837.376	66.71
837.682	66.52
837.988	66.92
838.293	66.77
838.599	66.99
838.905	67.64
839.211	67.94
839.516	68.78
839.822	68.29
840.127	68.49
840.433	68.8
840.738	68.54
841.044	68.4
841.349	67.96
841.654	67.35
841.959	68.09
842.265	68.57
842.57	68.11
842.875	69.88
843.18	70.95
843.485	71.23
843.79	70.73
844.095	71.69
844.4	71.42
844.705	70.55
845.01	68.9
845.315	69.51
845.619	69.53
845.924	68.73
846.229	69.55
846.533	70.77
846.838	71.16
847.142	72.05
847.447	71.26
847.751	72.85
848.056	72.27
848.36	70.53
848.664	69.76
848.969	69.73
849.273	70.11
849.577	69.93
849.881	68.81
850.185	70.51
850.489	68.91
850.794	67.89
851.097	69.89
851.401	72.37
851.705	69.27
852.009	69.78
852.313	69.06
852.617	68.76
852.92	66.11
853.224	65.51
853.528	63.94
853.831	63.72
854.135	63.39
854.438	64.98
854.742	67.9
855.045	68.04
855.349	69.26
855.652	66.87
855.955	67.06
856.259	66.76
856.562	68.54
856.865	68.19
857.168	68.67
857.471	66.54
857.774	66.2
858.077	66.04
858.38	66.44
858.683	63.53
858.986	63.59
859.289	63.82
859.592	65.38
859.894	66.97
860.197	68.57
860.5	66.26
860.802	64.73
861.105	62.85
861.407	60.94
861.71	60.8
862.012	60.59
862.315	59.4
862.617	59.71
862.919	57.92
863.222	56.62
863.524	55.64
863.826	57.5
864.128	56.81
864.43	57.19
864.732	58.34
865.034	59.99
865.336	60.6
865.638	59.61
865.94	57.56
866.242	56.99
866.544	55.82
866.846	56.61
867.147	57
867.449	56.47
867.751	58.76
868.052	58.12
868.354	59.51
868.655	60.57
868.957	60.97
869.258	62.19
869.56	63.51
869.861	62.6
870.162	63.91
870.463	66.13
870.765	65.59
871.066	60.61
871.367	60.06
871.668	57.58
871.969	56.33
872.27	55.8
872.571	55.29
872.872	55.76
873.173	56.07
873.473	58.34
873.774	58.35
874.075	57.78
874.376	56.5
874.676	57.68
874.977	57.19
875.277	58.46
875.578	58.24
875.878	57.96
876.179	59.65
876.479	57.74
876.78	55.57
877.08	56.69
877.38	59.02
877.68	59.49
877.981	62
878.281	66.55
878.581	69.78
