Data from BA56825_Reflection_00005.txt Node
Date: Mon Nov 18 15:37:24 EST 2019
User: vgr7
Spectrometer: USB2G7710
Scans to average: 3
Trigger mode: 4
Integration Time (sec): 2.000000E-2
Electric dark correction enabled: true
Boxcar width: 10
XAxis mode: Wavelengths
Number of Pixels in Spectrum: 2048
>>>>>Begin Spectral Data<<<<<
177.721	-120.14
178.105	-15.28
178.488	25.37
178.871	29.75
179.254	-2.02
179.636	-174.79
180.019	-100.46
180.402	47.27
180.785	263.45
181.168	-264.5
181.55	-6370.59
181.933	255.67
182.316	129.59
182.698	123.6
183.081	160.68
183.463	443.05
183.846	1128.34
184.228	-774.6
184.611	-760.27
184.993	-211.04
185.376	-85.37
185.758	-107.4
186.14	-211.6
186.522	-221.72
186.904	-187.44
187.287	-253.43
187.669	-128.41
188.051	-134.12
188.433	-117.17
188.815	-96.1
189.197	-99.49
189.579	-80.33
189.961	-44.27
190.342	-22.84
190.724	-12.24
191.106	-1.93
191.488	-3.76
191.869	-2.29
192.251	-13.66
192.633	0.21
193.014	-16.8
193.396	-31.11
193.777	-34.01
194.159	-22.31
194.54	-2.05
194.922	14.77
195.303	12.83
195.684	26.14
196.065	31.69
196.447	29.98
196.828	32.01
197.209	31.26
197.59	28.35
197.971	0.87
198.352	-4.9
198.733	-16.01
199.114	-22.9
199.495	-26.97
199.876	-12.07
200.257	-8.01
200.638	-7.3
201.018	0.42
201.399	-10.68
201.78	-3.9
202.16	-7.89
202.541	-25.25
202.922	-43.81
203.302	-59.06
203.683	-71.9
204.063	-75.84
204.444	-64.16
204.824	-57.52
205.204	-55.15
205.585	-51.93
205.965	-41.58
206.345	-49.67
206.725	-46.79
207.106	-61.7
207.486	-82
207.866	-121.8
208.246	-148.91
208.626	-130.16
209.006	-100.31
209.386	-109.83
209.766	-109.21
210.145	-78.87
210.525	-54.39
210.905	-40.79
211.285	-21.93
211.664	-21.8
212.044	-40.68
212.424	-63.63
212.803	-89.47
213.183	-76.15
213.562	-58.37
213.942	-58.28
214.321	-58.03
214.701	-78.28
215.08	-69.42
215.459	-42.03
215.838	-32.67
216.218	-39.22
216.597	-53.11
216.976	-70.37
217.355	-21.6
217.734	2.89
218.113	-2.43
218.492	-32.11
218.871	-29.33
219.25	-40.88
219.629	-38.31
220.008	-38.83
220.387	-31.24
220.766	-33.7
221.144	-41.2
221.523	-56.93
221.902	-50.09
222.28	-42.22
222.659	-21.36
223.037	-15.39
223.416	-22.61
223.794	-32.19
224.173	-28.34
224.551	-19.76
224.929	-13.09
225.308	-15.39
225.686	-21.96
226.064	-23.21
226.442	-21.31
226.821	-17.65
227.199	-13.61
227.577	-11.2
227.955	-6.38
228.333	-3.62
228.711	-2.14
229.089	-0.47
229.467	-1.68
229.845	-2.45
230.222	-2.4
230.6	-4.2
230.978	-3.32
231.356	-0.52
231.733	1.05
232.111	1.47
232.488	2.66
232.866	3.1
233.243	3.25
233.621	4.42
233.998	8.29
234.376	8.43
234.753	8.34
235.13	8.33
235.508	7.75
235.885	6.75
236.262	5.8
236.639	6.21
237.016	6.12
237.393	7.47
237.77	8.72
238.147	8.97
238.524	9.61
238.901	9.69
239.278	9.31
239.655	9.78
240.032	9.67
240.409	8.73
240.785	8.9
241.162	8.74
241.539	8.35
241.915	7.79
242.292	7.8
242.668	7.96
243.045	7.85
243.421	7.78
243.798	7.86
244.174	7.88
244.551	8.04
244.927	7.7
245.303	7.71
245.679	7.5
246.056	7.24
246.432	7.26
246.808	7.33
247.184	6.8
247.56	6.59
247.936	6.56
248.312	6.69
248.688	6.51
249.064	6.46
249.44	6.48
249.815	6.51
250.191	6.68
250.567	6.49
250.943	6.3
251.318	6.45
251.694	6.37
252.069	6.32
252.445	6.27
252.82	6.53
253.196	6.39
253.571	6.59
253.947	7.05
254.322	6.93
254.697	6.5
255.073	6.69
255.448	6.63
255.823	6.95
256.198	7.14
256.573	7.35
256.948	7.54
257.323	7.55
257.698	7.34
258.073	7.07
258.448	7.15
258.823	7.24
259.198	7.26
259.573	7.4
259.948	7.34
260.322	7.3
260.697	7.2
261.072	7.15
261.446	6.93
261.821	6.63
262.195	6.72
262.57	6.66
262.944	6.79
263.319	6.88
263.693	6.73
264.067	6.56
264.442	6.67
264.816	6.58
265.19	6.57
265.564	6.48
265.938	6.5
266.313	6.33
266.687	6.34
267.061	6.34
267.435	6.42
267.809	6.45
268.183	6.53
268.556	6.29
268.93	6.35
269.304	6.55
269.678	6.74
270.051	6.66
270.425	6.7
270.799	6.7
271.172	6.79
271.546	6.66
271.919	6.66
272.293	6.38
272.666	6.44
273.04	6.47
273.413	6.49
273.787	6.53
274.16	6.65
274.533	6.56
274.906	6.41
275.279	6.23
275.653	6.18
276.026	6.02
276.399	6.28
276.772	6.37
277.145	6.42
277.518	6.45
277.891	6.36
278.263	6.51
278.636	6.47
279.009	6.31
279.382	6.35
279.755	6.31
280.127	6.51
280.5	6.55
280.872	6.7
281.245	6.86
281.617	6.95
281.99	6.99
282.362	6.99
282.735	6.96
283.107	6.92
283.479	7.1
283.852	7.09
284.224	7.06
284.596	6.95
284.968	6.9
285.34	6.74
285.713	6.87
286.085	6.95
286.457	6.88
286.829	6.97
287.201	7
287.572	6.88
287.944	6.68
288.316	6.63
288.688	6.51
289.06	6.45
289.431	6.44
289.803	6.51
290.175	6.66
290.546	6.88
290.918	6.98
291.289	6.99
291.661	7.14
292.032	7.34
292.403	7.45
292.775	7.61
293.146	7.69
293.517	7.52
293.889	7.46
294.26	7.66
294.631	7.71
295.002	7.72
295.373	7.97
295.744	8.08
296.115	8.04
296.486	8.01
296.857	8.09
297.228	8.25
297.599	8.2
297.97	8.26
298.34	8.25
298.711	8.25
299.082	8.21
299.452	8.29
299.823	8.24
300.194	8.19
300.564	8.07
300.935	8.28
301.305	8.48
301.676	8.55
302.046	8.55
302.416	8.63
302.787	8.76
303.157	8.75
303.527	8.81
303.897	8.93
304.267	9.23
304.637	9.03
305.008	8.91
305.378	8.95
305.748	8.98
306.117	8.94
306.487	8.94
306.857	8.99
307.227	8.92
307.597	8.96
307.967	9.05
308.336	9.19
308.706	9.18
309.076	9.22
309.445	9.21
309.815	9.15
310.184	9.04
310.554	9.08
310.923	9.16
311.293	9.21
311.662	9.14
312.031	9.02
312.401	9.23
312.77	9.32
313.139	9.34
313.508	9.25
313.877	9.23
314.246	9.32
314.616	9.45
314.985	9.37
315.353	9.27
315.722	9.24
316.091	9.23
316.46	9.15
316.829	9.21
317.198	9.28
317.567	9.42
317.935	9.49
318.304	9.57
318.672	9.39
319.041	9.51
319.41	9.69
319.778	9.79
320.147	9.81
320.515	9.68
320.883	9.58
321.252	9.68
321.62	9.74
321.988	9.71
322.357	9.53
322.725	9.6
323.093	9.74
323.461	9.74
323.829	9.78
324.197	9.9
324.565	9.85
324.933	9.9
325.301	9.89
325.669	9.89
326.037	9.77
326.405	9.95
326.772	9.96
327.14	10.05
327.508	9.9
327.875	9.86
328.243	9.89
328.61	10.04
328.978	10.02
329.346	10.11
329.713	10.07
330.08	10.14
330.448	10.17
330.815	9.99
331.182	10.08
331.55	9.91
331.917	9.83
332.284	9.88
332.651	9.86
333.018	9.75
333.385	9.75
333.752	9.92
334.119	9.94
334.486	9.74
334.853	9.57
335.22	9.62
335.587	9.64
335.954	9.65
336.32	9.66
336.687	9.73
337.054	9.66
337.42	9.68
337.787	9.83
338.153	9.85
338.52	10.07
338.886	9.99
339.253	10.1
339.619	10.09
339.986	9.96
340.352	9.95
340.718	9.97
341.084	9.96
341.451	9.9
341.817	9.83
342.183	9.98
342.549	10.09
342.915	10.15
343.281	10.21
343.647	10.21
344.013	10.13
344.379	10.07
344.745	10.14
345.11	10.2
345.476	10.16
345.842	10.16
346.208	10.07
346.573	10.13
346.939	10.18
347.304	10.13
347.67	10.16
348.035	10.02
348.401	10.04
348.766	10.05
349.132	10.03
349.497	10.01
349.862	9.99
350.228	9.95
350.593	9.98
350.958	9.91
351.323	9.91
351.688	9.92
352.053	9.94
352.418	10.05
352.783	9.98
353.148	9.88
353.513	9.91
353.878	9.99
354.243	10.08
354.608	10
354.972	10.05
355.337	10.11
355.702	10.3
356.066	10.32
356.431	10.3
356.795	10.33
357.16	10.35
357.524	10.28
357.889	10.2
358.253	10.29
358.618	10.35
358.982	10.39
359.346	10.38
359.71	10.44
360.075	10.36
360.439	10.47
360.803	10.49
361.167	10.42
361.531	10.36
361.895	10.24
362.259	10.26
362.623	10.25
362.987	10.21
363.351	10.16
363.714	10.11
364.078	10.13
364.442	10.03
364.806	9.99
365.169	10.01
365.533	10.1
365.896	9.94
366.26	9.88
366.623	9.87
366.987	9.86
367.35	9.83
367.714	9.8
368.077	9.68
368.44	9.69
368.803	9.69
369.167	9.67
369.53	9.7
369.893	9.71
370.256	9.78
370.619	9.77
370.982	9.72
371.345	9.77
371.708	9.75
372.071	9.78
372.434	9.79
372.797	9.81
373.159	9.79
373.522	9.83
373.885	9.84
374.247	9.8
374.61	9.83
374.973	9.76
375.335	9.78
375.698	9.79
376.06	9.74
376.423	9.81
376.785	9.82
377.147	9.8
377.51	9.83
377.872	9.8
378.234	9.82
378.596	9.91
378.958	9.91
379.321	9.91
379.683	9.96
380.045	9.95
380.407	9.93
380.769	9.93
381.13	9.94
381.492	9.95
381.854	9.96
382.216	9.92
382.578	9.97
382.939	9.9
383.301	9.91
383.663	9.93
384.024	9.89
384.386	9.95
384.747	10.01
385.109	9.97
385.47	9.95
385.832	9.97
386.193	9.93
386.554	9.95
386.916	9.93
387.277	9.93
387.638	9.94
387.999	9.94
388.36	9.9
388.721	9.93
389.082	9.92
389.443	9.9
389.804	9.9
390.165	9.87
390.526	9.88
390.887	9.89
391.248	9.89
391.609	9.93
391.969	9.92
392.33	9.88
392.691	9.88
393.051	9.88
393.412	9.86
393.772	9.81
394.133	9.79
394.493	9.84
394.854	9.81
395.214	9.8
395.574	9.83
395.935	9.84
396.295	9.84
396.655	9.84
397.015	9.88
397.376	9.89
397.736	9.93
398.096	9.95
398.456	9.95
398.816	9.94
399.176	9.89
399.535	9.83
399.895	9.8
400.255	9.76
400.615	9.74
400.975	9.73
401.334	9.75
401.694	9.74
402.054	9.7
402.413	9.68
402.773	9.66
403.132	9.62
403.492	9.61
403.851	9.6
404.211	9.58
404.57	9.54
404.929	9.54
405.288	9.49
405.648	9.51
406.007	9.5
406.366	9.47
406.725	9.47
407.084	9.5
407.443	9.51
407.802	9.56
408.161	9.54
408.52	9.52
408.879	9.54
409.238	9.56
409.596	9.57
409.955	9.61
410.314	9.63
410.673	9.62
411.031	9.61
411.39	9.59
411.748	9.59
412.107	9.59
412.465	9.57
412.824	9.6
413.182	9.58
413.54	9.59
413.899	9.63
414.257	9.62
414.615	9.65
414.974	9.64
415.332	9.61
415.69	9.63
416.048	9.63
416.406	9.59
416.764	9.59
417.122	9.55
417.48	9.5
417.838	9.51
418.195	9.52
418.553	9.54
418.911	9.53
419.269	9.55
419.626	9.56
419.984	9.57
420.342	9.57
420.699	9.56
421.057	9.54
421.414	9.52
421.772	9.54
422.129	9.52
422.486	9.51
422.844	9.52
423.201	9.5
423.558	9.49
423.915	9.49
424.273	9.49
424.63	9.5
424.987	9.52
425.344	9.5
425.701	9.52
426.058	9.51
426.415	9.51
426.772	9.47
427.128	9.46
427.485	9.46
427.842	9.44
428.199	9.44
428.555	9.43
428.912	9.44
429.269	9.43
429.625	9.41
429.982	9.43
430.338	9.4
430.695	9.42
431.051	9.43
431.407	9.44
431.764	9.41
432.12	9.4
432.476	9.42
432.832	9.41
433.189	9.4
433.545	9.37
433.901	9.37
434.257	9.36
434.613	9.37
434.969	9.37
435.325	9.36
435.681	9.34
436.036	9.35
436.392	9.35
436.748	9.35
437.104	9.37
437.459	9.36
437.815	9.4
438.171	9.41
438.526	9.41
438.882	9.43
439.237	9.44
439.593	9.47
439.948	9.46
440.304	9.46
440.659	9.46
441.014	9.49
441.369	9.48
441.725	9.49
442.08	9.5
442.435	9.5
442.79	9.5
443.145	9.5
443.5	9.49
443.855	9.47
444.21	9.47
444.565	9.46
444.92	9.47
445.275	9.44
445.629	9.43
445.984	9.41
446.339	9.37
446.693	9.36
447.048	9.35
447.403	9.34
447.757	9.32
448.112	9.29
448.466	9.28
448.82	9.28
449.175	9.3
449.529	9.26
449.883	9.23
450.238	9.24
450.592	9.24
450.946	9.26
451.3	9.26
451.654	9.25
452.008	9.24
452.362	9.21
452.716	9.21
453.07	9.22
453.424	9.22
453.778	9.24
454.132	9.23
454.486	9.22
454.839	9.2
455.193	9.2
455.547	9.23
455.9	9.25
456.254	9.25
456.607	9.22
456.961	9.26
457.314	9.28
457.668	9.28
458.021	9.29
458.375	9.28
458.728	9.28
459.081	9.28
459.434	9.3
459.787	9.32
460.141	9.33
460.494	9.32
460.847	9.32
461.2	9.32
461.553	9.33
461.906	9.33
462.259	9.35
462.611	9.37
462.964	9.38
463.317	9.37
463.67	9.38
464.022	9.38
464.375	9.36
464.728	9.36
465.08	9.36
465.433	9.37
465.785	9.37
466.138	9.39
466.49	9.39
466.843	9.37
467.195	9.37
467.547	9.38
467.899	9.39
468.252	9.41
468.604	9.43
468.956	9.44
469.308	9.44
469.66	9.43
470.012	9.42
470.364	9.4
470.716	9.42
471.068	9.42
471.42	9.44
471.772	9.47
472.123	9.48
472.475	9.48
472.827	9.49
473.178	9.51
473.53	9.49
473.882	9.52
474.233	9.54
474.585	9.54
474.936	9.53
475.288	9.56
475.639	9.55
475.99	9.56
476.342	9.55
476.693	9.57
477.044	9.56
477.395	9.57
477.746	9.6
478.097	9.59
478.448	9.59
478.8	9.56
479.15	9.56
479.501	9.56
479.852	9.57
480.203	9.56
480.554	9.58
480.905	9.61
481.255	9.61
481.606	9.61
481.957	9.62
482.307	9.63
482.658	9.62
483.009	9.64
483.359	9.64
483.709	9.65
484.06	9.66
484.41	9.66
484.761	9.67
485.111	9.68
485.461	9.68
485.811	9.68
486.162	9.69
486.512	9.71
486.862	9.72
487.212	9.73
487.562	9.74
487.912	9.74
488.262	9.74
488.612	9.74
488.961	9.74
489.311	9.75
489.661	9.76
490.011	9.76
490.36	9.75
490.71	9.77
491.06	9.78
491.409	9.77
491.759	9.78
492.108	9.79
492.458	9.79
492.807	9.8
493.157	9.81
493.506	9.82
493.855	9.81
494.204	9.8
494.554	9.82
494.903	9.82
495.252	9.81
495.601	9.82
495.95	9.85
496.299	9.84
496.648	9.84
496.997	9.85
497.346	9.88
497.695	9.9
498.043	9.91
498.392	9.92
498.741	9.93
499.09	9.92
499.438	9.93
499.787	9.95
500.135	9.96
500.484	9.98
500.832	10
501.181	10.02
501.529	10.08
501.878	10.07
502.226	10.09
502.574	10.12
502.923	10.12
503.271	10.12
503.619	10.16
503.967	10.19
504.315	10.19
504.663	10.2
505.011	10.2
505.359	10.21
505.707	10.23
506.055	10.24
506.403	10.27
506.751	10.3
507.098	10.31
507.446	10.36
507.794	10.38
508.141	10.41
508.489	10.42
508.837	10.43
509.184	10.44
509.531	10.47
509.879	10.49
510.226	10.54
510.574	10.55
510.921	10.55
511.268	10.54
511.616	10.55
511.963	10.55
512.31	10.58
512.657	10.6
513.004	10.63
513.351	10.65
513.698	10.66
514.045	10.66
514.392	10.67
514.739	10.67
515.086	10.7
515.432	10.69
515.779	10.7
516.126	10.71
516.473	10.7
516.819	10.7
517.166	10.71
517.512	10.7
517.859	10.72
518.205	10.73
518.552	10.76
518.898	10.77
519.245	10.79
519.591	10.78
519.937	10.77
520.283	10.79
520.629	10.79
520.976	10.78
521.322	10.79
521.668	10.8
522.014	10.81
522.36	10.81
522.706	10.82
523.052	10.85
523.398	10.86
523.743	10.9
524.089	10.94
524.435	10.96
524.781	10.99
525.126	11.01
525.472	11.03
525.817	11.07
526.163	11.07
526.509	11.09
526.854	11.12
527.199	11.13
527.545	11.11
527.89	11.12
528.235	11.14
528.581	11.14
528.926	11.16
529.271	11.15
529.616	11.17
529.961	11.17
530.306	11.17
530.651	11.18
530.996	11.2
531.341	11.19
531.686	11.2
532.031	11.19
532.376	11.19
532.721	11.19
533.065	11.19
533.41	11.19
533.755	11.19
534.099	11.19
534.444	11.21
534.788	11.24
535.133	11.26
535.477	11.26
535.822	11.26
536.166	11.27
536.51	11.3
536.855	11.31
537.199	11.33
537.543	11.34
537.887	11.34
538.231	11.33
538.576	11.34
538.92	11.36
539.264	11.37
539.608	11.39
539.951	11.42
540.295	11.4
540.639	11.42
540.983	11.43
541.327	11.41
541.671	11.39
542.014	11.39
542.358	11.41
542.701	11.43
543.045	11.43
543.389	11.42
543.732	11.41
544.075	11.42
544.419	11.43
544.762	11.43
545.105	11.45
545.449	11.46
545.792	11.47
546.135	11.46
546.478	11.45
546.821	11.46
547.165	11.43
547.508	11.43
547.851	11.44
548.194	11.44
548.536	11.46
548.879	11.49
549.222	11.5
549.565	11.48
549.908	11.51
550.25	11.54
550.593	11.54
550.936	11.54
551.278	11.52
551.621	11.52
551.963	11.57
552.306	11.54
552.648	11.53
552.991	11.55
553.333	11.56
553.675	11.58
554.017	11.58
554.36	11.63
554.702	11.65
555.044	11.62
555.386	11.66
555.728	11.66
556.07	11.7
556.412	11.71
556.754	11.73
557.096	11.71
557.438	11.73
557.78	11.75
558.121	11.75
558.463	11.76
558.805	11.76
559.147	11.74
559.488	11.73
559.83	11.75
560.171	11.76
560.513	11.78
560.854	11.77
561.196	11.77
561.537	11.77
561.878	11.78
562.22	11.78
562.561	11.74
562.902	11.74
563.243	11.7
563.584	11.7
563.925	11.7
564.266	11.7
564.607	11.69
564.948	11.72
565.289	11.76
565.63	11.79
565.971	11.76
566.312	11.74
566.653	11.75
566.993	11.76
567.334	11.73
567.675	11.71
568.015	11.76
568.356	11.76
568.696	11.74
569.037	11.74
569.377	11.77
569.718	11.8
570.058	11.81
570.398	11.86
570.739	11.87
571.079	11.88
571.419	11.86
571.759	11.88
572.099	11.88
572.439	11.88
572.779	11.89
573.119	11.92
573.459	11.94
573.799	11.96
574.139	11.96
574.479	11.97
574.819	11.95
575.158	11.9
575.498	11.87
575.838	11.89
576.177	11.89
576.517	11.87
576.856	11.87
577.196	11.89
577.535	11.87
577.875	11.86
578.214	11.85
578.553	11.89
578.893	11.87
579.232	11.87
579.571	11.88
579.91	11.85
580.25	11.88
580.589	11.86
580.928	11.83
581.267	11.87
581.606	11.87
581.945	11.91
582.283	11.97
582.622	12
582.961	12.01
583.3	11.99
583.639	12.04
583.977	12.02
584.316	12
584.654	12
584.993	12
585.332	12
585.67	11.99
586.008	11.99
586.347	11.96
586.685	11.94
587.024	11.96
587.362	11.95
587.7	11.97
588.038	12.02
588.376	12
588.715	12.04
589.053	12.08
589.391	12.07
589.729	12.08
590.067	12.04
590.404	12.09
590.742	12.07
591.08	12.07
591.418	12.11
591.756	12.08
592.093	12.06
592.431	12.06
592.769	12.07
593.106	12.09
593.444	12.09
593.781	12.11
594.119	12.12
594.456	12.12
594.793	12.11
595.131	12.12
595.468	12.12
595.805	12.11
596.143	12.06
596.48	12.08
596.817	12.05
597.154	12.11
597.491	12.1
597.828	12.1
598.165	12.12
598.502	12.08
598.839	12.12
599.176	12.13
599.512	12.17
599.849	12.16
600.186	12.18
600.523	12.2
600.859	12.25
601.196	12.24
601.532	12.23
601.869	12.24
602.205	12.21
602.542	12.24
602.878	12.24
603.215	12.26
603.551	12.26
603.887	12.29
604.223	12.31
604.56	12.33
604.896	12.31
605.232	12.31
605.568	12.35
605.904	12.33
606.24	12.36
606.576	12.32
606.912	12.33
607.248	12.34
607.583	12.37
607.919	12.31
608.255	12.3
608.591	12.33
608.926	12.32
609.262	12.36
609.597	12.31
609.933	12.33
610.268	12.34
610.604	12.33
610.939	12.32
611.275	12.33
611.61	12.34
611.945	12.34
612.281	12.32
612.616	12.36
612.951	12.42
613.286	12.4
613.621	12.43
613.956	12.44
614.291	12.41
614.626	12.4
614.961	12.4
615.296	12.44
615.631	12.51
615.966	12.52
616.3	12.45
616.635	12.51
616.97	12.5
617.304	12.49
617.639	12.52
617.973	12.53
618.308	12.49
618.642	12.47
618.977	12.49
619.311	12.49
619.646	12.45
619.98	12.4
620.314	12.44
620.648	12.47
620.983	12.5
621.317	12.56
621.651	12.57
621.985	12.59
622.319	12.62
622.653	12.58
622.987	12.62
623.321	12.68
623.655	12.69
623.988	12.74
624.322	12.74
624.656	12.75
624.99	12.82
625.323	12.85
625.657	12.8
625.99	12.83
626.324	12.82
626.657	12.83
626.991	12.88
627.324	12.86
627.658	12.87
627.991	12.86
628.324	12.82
628.657	12.8
628.991	12.76
629.324	12.73
629.657	12.73
629.99	12.75
630.323	12.69
630.656	12.66
630.989	12.72
631.322	12.72
631.655	12.7
631.987	12.59
632.32	12.59
632.653	12.66
632.986	12.63
633.318	12.68
633.651	12.7
633.984	12.66
634.316	12.65
634.649	12.59
634.981	12.54
635.313	12.53
635.646	12.5
635.978	12.57
636.31	12.54
636.643	12.52
636.975	12.46
637.307	12.51
637.639	12.55
637.971	12.47
638.303	12.49
638.635	12.44
638.967	12.53
639.299	12.49
639.631	12.45
639.963	12.45
640.295	12.45
640.626	12.43
640.958	12.45
641.29	12.49
641.621	12.49
641.953	12.59
642.285	12.59
642.616	12.7
642.948	12.68
643.279	12.63
643.61	12.65
643.942	12.65
644.273	12.69
644.604	12.67
644.936	12.6
645.267	12.63
645.598	12.67
645.929	12.69
646.26	12.77
646.591	12.74
646.922	12.71
647.253	12.67
647.584	12.59
647.915	12.62
648.245	12.65
648.576	12.7
648.907	12.69
649.238	12.72
649.568	12.68
649.899	12.63
650.229	12.79
650.56	12.79
650.89	12.81
651.221	12.79
651.551	12.83
651.882	12.84
652.212	12.81
652.542	12.76
652.872	12.69
653.203	12.59
653.533	12.66
653.863	12.74
654.193	12.84
654.523	12.97
654.853	12.98
655.183	12.94
655.513	12.94
655.843	12.93
656.172	12.91
656.502	12.92
656.832	12.99
657.162	12.98
657.491	12.99
657.821	12.98
658.15	13.02
658.48	13.03
658.809	13.03
659.139	13.02
659.468	13.1
659.798	13.12
660.127	13.19
660.456	13.21
660.785	13.21
661.115	13.18
661.444	13.2
661.773	13.18
662.102	13.18
662.431	13.19
662.76	13.17
663.089	13.23
663.418	13.17
663.747	13.18
664.076	13.11
664.404	13.14
664.733	13.26
665.062	13.16
665.39	13.13
665.719	13.12
666.048	13.16
666.376	13.13
666.705	13.17
667.033	13.2
667.362	13.28
667.69	13.28
668.018	13.24
668.347	13.18
668.675	13.16
669.003	13.22
669.331	13.26
669.659	13.4
669.987	13.34
670.315	13.43
670.643	13.38
670.971	13.5
671.299	13.54
671.627	13.46
671.955	13.52
672.283	13.49
672.61	13.56
672.938	13.54
673.266	13.57
673.593	13.65
673.921	13.46
674.249	13.35
674.576	13.38
674.904	13.46
675.231	13.52
675.558	13.55
675.886	13.5
676.213	13.52
676.54	13.38
676.867	13.44
677.195	13.49
677.522	13.55
677.849	13.48
678.176	13.41
678.503	13.46
678.83	13.43
679.157	13.45
679.484	13.41
679.81	13.44
680.137	13.42
680.464	13.39
680.791	13.52
681.117	13.59
681.444	13.54
681.771	13.52
682.097	13.46
682.424	13.44
682.75	13.41
683.077	13.35
683.403	13.39
683.729	13.37
684.056	13.31
684.382	13.33
684.708	13.28
685.034	13.31
685.36	13.28
685.686	13.24
686.012	13.21
686.339	13.28
686.664	13.27
686.99	13.29
687.316	13.26
687.642	13.17
687.968	13.16
688.294	13.18
688.619	13.2
688.945	13.21
689.271	13.16
689.596	13.18
689.922	13.19
690.247	13.18
690.573	13.13
690.898	13.13
691.224	13.08
691.549	13.18
691.874	13.09
692.2	13.07
692.525	13.19
692.85	13.32
693.175	13.29
693.5	13.24
693.825	13.21
694.15	13.24
694.475	13.36
694.8	13.46
695.125	13.43
695.45	13.3
695.775	13.29
696.099	13.39
696.424	13.33
696.749	13.26
697.073	13.31
697.398	13.31
697.723	13.35
698.047	13.43
698.372	13.37
698.696	13.47
699.02	13.49
699.345	13.45
699.669	13.46
699.993	13.49
700.318	13.51
700.642	13.51
700.966	13.5
701.29	13.49
701.614	13.41
701.938	13.46
702.262	13.6
702.586	13.61
702.91	13.51
703.234	13.56
703.557	13.66
703.881	13.63
704.205	13.69
704.529	13.62
704.852	13.44
705.176	13.43
705.499	13.34
705.823	13.31
706.146	13.24
706.47	13.2
706.793	13.17
707.117	13.11
707.44	13.14
707.763	13.15
708.086	13.26
708.409	13.24
708.733	13.18
709.056	13.21
709.379	13.33
709.702	13.42
710.025	13.42
710.348	13.44
710.671	13.43
710.993	13.43
711.316	13.4
711.639	13.51
711.962	13.58
712.284	13.63
712.607	13.62
712.93	13.72
713.252	13.72
713.575	13.72
713.897	13.89
714.22	13.9
714.542	13.85
714.864	13.81
715.187	13.82
715.509	13.93
715.831	13.88
716.153	13.89
716.475	14
716.798	14.09
717.12	14.11
717.442	14.13
717.764	14.11
718.085	14.2
718.407	14.26
718.729	14.19
719.051	14.29
719.373	14.3
719.695	14.24
720.016	14.21
720.338	14.08
720.659	13.93
720.981	13.88
721.302	13.87
721.624	13.74
721.945	13.8
722.267	13.82
722.588	13.81
722.909	13.65
723.231	13.57
723.552	13.61
723.873	13.67
724.194	13.62
724.515	13.66
724.836	13.7
725.157	13.69
725.478	13.89
725.799	13.95
726.12	14.07
726.441	14.19
726.762	14.33
727.083	14.43
727.403	14.47
727.724	14.69
728.045	14.78
728.365	14.88
728.686	14.87
729.006	14.94
729.327	14.95
729.647	15.01
729.967	14.88
730.288	14.79
730.608	14.65
730.928	14.78
731.249	14.75
731.569	14.9
731.889	14.94
732.209	14.94
732.529	14.82
732.849	14.77
733.169	14.73
733.489	14.69
733.809	14.69
734.129	14.8
734.448	14.67
734.768	14.66
735.088	14.86
735.408	14.82
735.727	14.88
736.047	15.02
736.366	14.88
736.686	15.08
737.005	15.1
737.325	15.22
737.644	15.02
737.963	15.05
738.283	14.73
738.602	14.66
738.921	14.47
739.24	14.59
739.56	14.59
739.879	14.63
740.198	14.61
740.517	14.67
740.836	14.57
741.155	14.53
741.473	14.58
741.792	14.23
742.111	14.19
742.43	14.06
742.748	13.89
743.067	14.11
743.386	14.02
743.704	14
744.023	14.11
744.341	14.1
744.66	14.31
744.978	14.38
745.297	14.47
745.615	14.57
745.933	14.37
746.252	14.28
746.57	14.31
746.888	14.4
747.206	14.62
747.524	14.64
747.842	14.85
748.16	15.11
748.478	15.19
748.796	15.19
749.114	15.22
749.432	15.25
749.749	15.16
750.067	15.14
750.385	15.28
750.703	15.02
751.02	15.05
751.338	14.92
751.655	15.08
751.973	14.94
752.29	14.87
752.608	14.86
752.925	14.96
753.242	14.86
753.56	14.77
753.877	14.74
754.194	14.74
754.511	14.69
754.828	14.62
755.145	14.57
755.462	14.51
755.779	14.73
756.096	14.78
756.413	14.83
756.73	14.83
757.047	14.9
757.364	15.12
757.68	15.3
757.997	15.15
758.314	14.92
758.63	15.07
758.947	15.29
759.264	15.58
759.58	15.74
759.896	15.77
760.213	15.62
760.529	15.73
760.846	15.68
761.162	15.69
761.478	15.54
761.794	15.46
762.11	15.69
762.426	15.43
762.743	15.55
763.059	15.63
763.375	15.71
763.69	15.78
764.006	15.82
764.322	15.9
764.638	16.02
764.954	16.24
765.27	16.13
765.585	15.83
765.901	15.78
766.216	15.73
766.532	15.77
766.848	15.83
767.163	15.65
767.478	15.74
767.794	15.77
768.109	15.66
768.424	15.86
768.74	16.09
769.055	16.04
769.37	15.79
769.685	15.89
770	15.95
770.315	15.7
770.63	15.69
770.945	15.53
771.26	15.64
771.575	15.54
771.89	15.6
772.205	15.8
772.52	15.9
772.834	15.68
773.149	15.56
773.464	15.54
773.778	15.51
774.093	15.34
774.407	15.16
774.722	15.23
775.036	15.13
775.351	14.78
775.665	14.93
775.979	15.18
776.293	15.01
776.608	14.78
776.922	14.7
777.236	14.72
777.55	14.51
777.864	14.42
778.178	14.72
778.492	14.85
778.806	15.06
779.12	15.03
779.434	15.42
779.747	15.53
780.061	15.53
780.375	15.44
780.689	15.9
781.002	16.26
781.316	16.39
781.629	16.66
781.943	16.82
782.256	16.78
782.57	16.4
782.883	16.6
783.196	16.57
783.51	16.97
783.823	16.86
784.136	17.3
784.449	17.37
784.762	17.34
785.075	17.21
785.388	17.16
785.701	16.98
786.014	16.46
786.327	16.11
786.64	16.63
786.953	16.6
787.266	16.16
787.578	16.03
787.891	15.9
788.204	15.52
788.516	15.53
788.829	15.48
789.141	15.87
789.454	15.4
789.766	15.76
790.079	15.88
790.391	16.05
790.703	16.06
791.016	15.83
791.328	15.79
791.64	15.78
791.952	15.77
792.264	15.78
792.576	16.14
792.888	16.59
793.2	16.34
793.512	16.74
793.824	17
794.136	16.74
794.448	17.04
794.76	17.41
795.071	17.04
795.383	17.15
795.695	17.19
796.006	17.61
796.318	17.36
796.629	17.37
796.941	16.89
797.252	17.17
797.564	17.71
797.875	17.56
798.186	17.46
798.497	17.77
798.809	18.07
799.12	17.74
799.431	17.68
799.742	18.01
800.053	18.11
800.364	18.01
800.675	17.94
800.986	17.62
801.297	17.8
801.608	18.06
801.918	17.88
802.229	17.96
802.54	17.99
802.851	17.86
803.161	17.73
803.472	18.54
803.782	18.39
804.093	17.82
804.403	17.68
804.714	17.73
805.024	17.68
805.334	17.22
805.645	17.99
805.955	17.98
806.265	17.92
806.575	17.24
806.885	17.36
807.195	18.17
807.505	18.12
807.815	18.05
808.125	18.09
808.435	18.59
808.745	18.22
809.055	18.09
809.365	18.25
809.674	17.51
809.984	17.31
810.294	16.92
810.603	17.32
810.913	17.23
811.222	17.89
811.532	17.51
811.841	18.14
812.151	18.49
812.46	18.91
812.769	18.24
813.079	19.16
813.388	19.17
813.697	18.24
814.006	18.36
814.315	17.75
814.624	17.58
814.933	17.6
815.242	17.47
815.551	17.99
815.86	18.04
816.169	18.25
816.478	17.61
816.786	17.87
817.095	18.08
817.404	18.5
817.712	18.23
818.021	18.51
818.33	18.2
818.638	17.83
818.947	17.67
819.255	18.17
819.563	17.78
819.872	17.5
820.18	18.19
820.488	18.18
820.796	18.47
821.105	18.45
821.413	18.25
821.721	18.35
822.029	18.26
822.337	18.19
822.645	18.29
822.953	18.26
823.26	18.45
823.568	18.36
823.876	18.32
824.184	18.32
824.491	18.3
824.799	18.18
825.107	18.08
825.414	18.07
825.722	18.11
826.029	18.17
826.337	18.32
826.644	18.15
826.951	18.05
827.259	17.94
827.566	17.85
827.873	17.89
828.18	17.89
828.488	17.76
828.795	18.01
829.102	17.92
829.409	17.97
829.716	17.52
830.023	17.46
830.329	17.63
830.636	17.54
830.943	17.41
831.25	17.4
831.557	17.38
831.863	17.43
832.17	16.66
832.476	16.8
832.783	16.88
833.089	16.67
833.396	17.26
833.702	17.35
834.009	17.56
834.315	17.58
834.621	17.79
834.928	17.75
835.234	17.73
835.54	17.37
835.846	17.7
836.152	17.67
836.458	17.77
836.764	17.77
837.07	17.76
837.376	17.96
837.682	18.27
837.988	18.53
838.293	18.43
838.599	19.15
838.905	18.62
839.211	18.74
839.516	19.35
839.822	19.84
840.127	18.96
840.433	19.13
840.738	19.02
841.044	18.83
841.349	19.04
841.654	19.01
841.959	20.12
842.265	20.31
842.57	21.56
842.875	21.45
843.18	21.07
843.485	21.22
843.79	20.15
844.095	19.96
844.4	20.44
844.705	20.56
845.01	20.33
845.315	20.15
845.619	19.1
845.924	18.7
846.229	17.26
846.533	19.97
846.838	19.09
847.142	19.65
847.447	19.06
847.751	19.14
848.056	17.71
848.36	17.24
848.664	17.08
848.969	16.64
849.273	16.78
849.577	16.45
849.881	16.19
850.185	18.51
850.489	18.14
850.794	17.58
851.097	16.65
851.401	16.89
851.705	16.89
852.009	18.49
852.313	17.28
852.617	17.02
852.92	16.17
853.224	16.57
853.528	16.52
853.831	15.79
854.135	16.36
854.438	16.53
854.742	16.5
855.045	16.2
855.349	14.86
855.652	15
855.955	14.15
856.259	14.78
856.562	14.49
856.865	13.49
857.168	12.64
857.471	13.28
857.774	12.44
858.077	15.06
858.38	14.24
858.683	13.43
858.986	14.33
859.289	13.3
859.592	14.59
859.894	13.55
860.197	13.8
860.5	12.52
860.802	12.78
861.105	12.85
861.407	13.28
861.71	13.78
862.012	13.71
862.315	14.94
862.617	13.37
862.919	12.8
863.222	14.98
863.524	15.3
863.826	16.38
864.128	19.18
864.43	17.68
864.732	18.77
865.034	19.56
865.336	17.46
865.638	16.82
865.94	15.93
866.242	18.26
866.544	19.16
866.846	19.69
867.147	19.65
867.449	19.69
867.751	18.51
868.052	19.71
868.354	16.86
868.655	16.9
868.957	17.25
869.258	17.78
869.56	16.86
869.861	17.18
870.162	17.6
870.463	16.76
870.765	16.01
871.066	15.22
871.367	15.28
871.668	17.12
871.969	17.68
872.27	16.31
872.571	14.16
872.872	15.79
873.173	14.59
873.473	16.92
873.774	17.61
874.075	17.42
874.376	16.01
874.676	19.67
874.977	18.78
875.277	21.01
875.578	19.95
875.878	20.08
876.179	20.16
876.479	18.7
876.78	17.64
877.08	18.54
877.38	18.14
877.68	19.01
877.981	18.62
878.281	19.25
878.581	21.93
