Data from BA56832_Reflection_00011.txt Node
Date: Mon Nov 18 16:10:03 EST 2019
User: vgr7
Spectrometer: USB2G7710
Scans to average: 3
Trigger mode: 4
Integration Time (sec): 2.000000E-2
Electric dark correction enabled: true
Boxcar width: 10
XAxis mode: Wavelengths
Number of Pixels in Spectrum: 2048
>>>>>Begin Spectral Data<<<<<
177.721	-15.81
178.105	-14.2
178.488	-19.86
178.871	-18.63
179.254	29.54
179.636	-37.4
180.019	-23.29
180.402	300
180.785	-2034.02
181.168	963.01
181.55	154.7
181.933	126.87
182.316	223.47
182.698	248.45
183.081	174.76
183.463	161.69
183.846	252.7
184.228	205.62
184.611	240.79
184.993	183.04
185.376	196.05
185.758	347.33
186.14	432.62
186.522	877.35
186.904	11142.55
187.287	10015.25
187.669	-4065.47
188.051	-836.73
188.433	-729.62
188.815	-1028.9
189.197	-571.97
189.579	-314.79
189.961	-255.54
190.342	-316.06
190.724	-307.62
191.106	-255.98
191.488	-337.25
191.869	-223
192.251	-213.77
192.633	-264.49
193.014	-401.84
193.396	-574.93
193.777	-830.41
194.159	-1187.64
194.54	-413.72
194.922	-350.34
195.303	-346.91
195.684	-290.32
196.065	-177.2
196.447	-179.26
196.828	-184.84
197.209	-219.15
197.59	-219.64
197.971	-268.91
198.352	-335.06
198.733	-490.63
199.114	-297.34
199.495	-254.81
199.876	-308.82
200.257	-212.36
200.638	-208.54
201.018	-179.14
201.399	-153.34
201.78	-148.66
202.16	-166.07
202.541	-229.81
202.922	-335.68
203.302	-392.02
203.683	-309.85
204.063	-339.7
204.444	-375.27
204.824	-252.54
205.204	-213.32
205.585	-230.97
205.965	-207.66
206.345	-197.51
206.725	-179.09
207.106	-351.96
207.486	-603.99
207.866	-644.77
208.246	-1452.69
208.626	18824.14
209.006	-4308.7
209.386	-1279.22
209.766	-593.53
210.145	-379.08
210.525	-262.34
210.905	-177.66
211.285	-138.63
211.664	-158.28
212.044	-183.3
212.424	-176.78
212.803	-262.25
213.183	-245.99
213.562	-176.18
213.942	-167.09
214.321	-165.28
214.701	-179.33
215.08	-130.08
215.459	-113.2
215.838	-107.91
216.218	-97.29
216.597	-80.79
216.976	-85.21
217.355	-90.07
217.734	-125.13
218.113	-123.81
218.492	-159.66
218.871	-170.08
219.25	-188.91
219.629	-155.4
220.008	-160.93
220.387	-184.98
220.766	-143.89
221.144	-204.03
221.523	-239.4
221.902	-297.73
222.28	-222.76
222.659	-159.77
223.037	-146.4
223.416	-122.67
223.794	-97.91
224.173	-95.56
224.551	-68.21
224.929	-67.44
225.308	-44.15
225.686	-36.2
226.064	-30.4
226.442	-23.05
226.821	-23.73
227.199	-18.85
227.577	-20.52
227.955	-18.56
228.333	-16.08
228.711	-11.44
229.089	-5.56
229.467	-6.22
229.845	-4.47
230.222	-3.52
230.6	-3.7
230.978	-2.25
231.356	-1.88
231.733	-3.58
232.111	-3.91
232.488	-4.5
232.866	-4.89
233.243	-7.32
233.621	-5.68
233.998	-6.55
234.376	-9.93
234.753	-8.82
235.13	-8.43
235.508	-8.11
235.885	-9.32
236.262	-8.78
236.639	-8.91
237.016	-8.52
237.393	-5.92
237.77	-4.23
238.147	-3.1
238.524	-2.3
238.901	-1.04
239.278	-1.13
239.655	0.24
240.032	0.56
240.409	-0.09
240.785	1.12
241.162	1.74
241.539	1.97
241.915	2.62
242.292	2.97
242.668	3.08
243.045	3.53
243.421	3.86
243.798	3.83
244.174	3.96
244.551	4.14
244.927	3.82
245.303	3.97
245.679	3.98
246.056	4.02
246.432	4.05
246.808	3.92
247.184	3.88
247.56	3.76
247.936	3.76
248.312	3.84
248.688	3.84
249.064	3.77
249.44	3.86
249.815	4
250.191	4.36
250.567	4.47
250.943	4.17
251.318	4.06
251.694	4.29
252.069	4.36
252.445	4.17
252.82	4.62
253.196	4.13
253.571	4.23
253.947	4.37
254.322	4.49
254.697	4.4
255.073	4.26
255.448	4.12
255.823	3.96
256.198	4.2
256.573	4.01
256.948	4.14
257.323	4.24
257.698	4.25
258.073	4.12
258.448	4.13
258.823	4.29
259.198	4.14
259.573	4.09
259.948	4.12
260.322	4.16
260.697	3.81
261.072	3.87
261.446	3.79
261.821	3.8
262.195	3.89
262.57	3.8
262.944	3.89
263.319	3.85
263.693	4.01
264.067	4.11
264.442	4.27
264.816	4.21
265.19	3.9
265.564	3.76
265.938	3.78
266.313	3.66
266.687	3.65
267.061	3.92
267.435	4
267.809	3.95
268.183	4.1
268.556	4.33
268.93	4.33
269.304	4.33
269.678	4.32
270.051	4.21
270.425	4.46
270.799	4.5
271.172	4.5
271.546	4.53
271.919	4.48
272.293	4.4
272.666	4.38
273.04	4.48
273.413	4.54
273.787	4.52
274.16	4.49
274.533	4.69
274.906	4.53
275.279	4.53
275.653	4.48
276.026	4.26
276.399	4.15
276.772	4.32
277.145	4.33
277.518	4.26
277.891	4.22
278.263	4.13
278.636	4.07
279.009	4.09
279.382	4.01
279.755	3.91
280.127	4.06
280.5	4.08
280.872	4.2
281.245	4.09
281.617	4.1
281.99	4.34
282.362	4.24
282.735	4.39
283.107	4.48
283.479	4.41
283.852	4.48
284.224	4.65
284.596	4.51
284.968	4.57
285.34	4.62
285.713	4.59
286.085	4.54
286.457	4.62
286.829	4.69
287.201	4.61
287.572	4.7
287.944	4.45
288.316	4.54
288.688	4.59
289.06	4.76
289.431	4.72
289.803	4.74
290.175	4.79
290.546	4.77
290.918	4.68
291.289	4.97
291.661	5.01
292.032	5.01
292.403	5.16
292.775	5.23
293.146	5.26
293.517	5.38
293.889	5.64
294.26	5.63
294.631	5.64
295.002	5.73
295.373	5.69
295.744	5.89
296.115	5.94
296.486	5.83
296.857	5.82
297.228	6.03
297.599	5.96
297.97	5.95
298.34	6.01
298.711	6.14
299.082	5.99
299.452	6.12
299.823	6.2
300.194	6.25
300.564	6.16
300.935	6.17
301.305	6.24
301.676	6.28
302.046	6.4
302.416	6.64
302.787	6.78
303.157	6.86
303.527	6.89
303.897	6.92
304.267	7.21
304.637	7.37
305.008	7.34
305.378	7.57
305.748	7.69
306.117	7.76
306.487	7.84
306.857	7.97
307.227	7.93
307.597	8.06
307.967	8.13
308.336	8.26
308.706	8.35
309.076	8.38
309.445	8.46
309.815	8.54
310.184	8.56
310.554	8.76
310.923	8.88
311.293	8.98
311.662	9.01
312.031	8.97
312.401	8.96
312.77	9.08
313.139	9.14
313.508	9.29
313.877	9.28
314.246	9.25
314.616	9.36
314.985	9.47
315.353	9.36
315.722	9.5
316.091	9.68
316.46	9.71
316.829	9.79
317.198	9.75
317.567	9.68
317.935	9.7
318.304	9.6
318.672	9.65
319.041	9.8
319.41	9.95
319.778	10.1
320.147	10.2
320.515	10.28
320.883	10.28
321.252	10.3
321.62	10.46
321.988	10.78
322.357	10.73
322.725	10.88
323.093	11.18
323.461	11.06
323.829	11.09
324.197	11.29
324.565	11.38
324.933	11.46
325.301	11.64
325.669	11.66
326.037	11.72
326.405	11.77
326.772	11.67
327.14	11.77
327.508	11.69
327.875	11.69
328.243	11.72
328.61	11.82
328.978	11.7
329.346	11.82
329.713	11.71
330.08	11.77
330.448	11.75
330.815	11.63
331.182	11.77
331.55	11.79
331.917	11.82
332.284	11.91
332.651	11.97
333.018	11.96
333.385	12.06
333.752	12.21
334.119	12.23
334.486	12.33
334.853	12.33
335.22	12.39
335.587	12.5
335.954	12.51
336.32	12.49
336.687	12.6
337.054	12.48
337.42	12.65
337.787	12.76
338.153	12.83
338.52	12.89
338.886	12.98
339.253	12.95
339.619	12.87
339.986	12.93
340.352	12.98
340.718	13
341.084	13.07
341.451	13.09
341.817	13.24
342.183	13.26
342.549	13.29
342.915	13.35
343.281	13.34
343.647	13.33
344.013	13.37
344.379	13.41
344.745	13.53
345.11	13.44
345.476	13.5
345.842	13.42
346.208	13.53
346.573	13.57
346.939	13.72
347.304	13.72
347.67	13.66
348.035	13.57
348.401	13.66
348.766	13.56
349.132	13.56
349.497	13.47
349.862	13.55
350.228	13.59
350.593	13.58
350.958	13.59
351.323	13.62
351.688	13.69
352.053	13.74
352.418	13.74
352.783	13.8
353.148	13.84
353.513	13.91
353.878	13.8
354.243	13.78
354.608	13.75
354.972	13.85
355.337	13.9
355.702	14.05
356.066	14.07
356.431	14.09
356.795	14.1
357.16	14.16
357.524	14.02
357.889	14
358.253	14.03
358.618	14.01
358.982	13.99
359.346	13.89
359.71	13.78
360.075	13.72
360.439	13.73
360.803	13.64
361.167	13.62
361.531	13.66
361.895	13.53
362.259	13.45
362.623	13.39
362.987	13.36
363.351	13.27
363.714	13.17
364.078	13.13
364.442	13.1
364.806	13
365.169	13.02
365.533	12.97
365.896	12.91
366.26	12.82
366.623	12.81
366.987	12.8
367.35	12.79
367.714	12.76
368.077	12.64
368.44	12.58
368.803	12.54
369.167	12.42
369.53	12.48
369.893	12.51
370.256	12.44
370.619	12.38
370.982	12.28
371.345	12.23
371.708	12.21
372.071	12.14
372.434	12.07
372.797	12.03
373.159	11.91
373.522	11.85
373.885	11.79
374.247	11.67
374.61	11.59
374.973	11.44
375.335	11.42
375.698	11.37
376.06	11.27
376.423	11.19
376.785	11.16
377.147	11.08
377.51	10.91
377.872	10.89
378.234	10.77
378.596	10.74
378.958	10.67
379.321	10.55
379.683	10.53
380.045	10.46
380.407	10.35
380.769	10.3
381.13	10.25
381.492	10.21
381.854	10.23
382.216	10.1
382.578	10.06
382.939	9.97
383.301	9.89
383.663	9.85
384.024	9.77
384.386	9.75
384.747	9.67
385.109	9.66
385.47	9.58
385.832	9.52
386.193	9.46
386.554	9.43
386.916	9.4
387.277	9.28
387.638	9.22
387.999	9.16
388.36	9.08
388.721	8.99
389.082	8.86
389.443	8.71
389.804	8.69
390.165	8.66
390.526	8.57
390.887	8.51
391.248	8.46
391.609	8.39
391.969	8.3
392.33	8.24
392.691	8.19
393.051	8.12
393.412	8.09
393.772	8.02
394.133	7.94
394.493	7.87
394.854	7.79
395.214	7.74
395.574	7.7
395.935	7.66
396.295	7.6
396.655	7.58
397.015	7.56
397.376	7.51
397.736	7.43
398.096	7.37
398.456	7.33
398.816	7.3
399.176	7.27
399.535	7.18
399.895	7.09
400.255	6.99
400.615	6.91
400.975	6.83
401.334	6.75
401.694	6.71
402.054	6.66
402.413	6.64
402.773	6.55
403.132	6.49
403.492	6.41
403.851	6.39
404.211	6.34
404.57	6.29
404.929	6.26
405.288	6.23
405.648	6.22
406.007	6.19
406.366	6.14
406.725	6.09
407.084	6.09
407.443	6.08
407.802	6.09
408.161	6.09
408.52	6.06
408.879	6.03
409.238	6.03
409.596	6.01
409.955	5.97
410.314	5.95
410.673	5.93
411.031	5.89
411.39	5.86
411.748	5.83
412.107	5.83
412.465	5.78
412.824	5.74
413.182	5.69
413.54	5.67
413.899	5.65
414.257	5.63
414.615	5.57
414.974	5.58
415.332	5.52
415.69	5.46
416.048	5.41
416.406	5.4
416.764	5.34
417.122	5.28
417.48	5.24
417.838	5.22
418.195	5.18
418.553	5.18
418.911	5.14
419.269	5.11
419.626	5.08
419.984	5.06
420.342	5.04
420.699	5.02
421.057	4.99
421.414	4.96
421.772	4.93
422.129	4.91
422.486	4.86
422.844	4.84
423.201	4.82
423.558	4.81
423.915	4.78
424.273	4.77
424.63	4.75
424.987	4.73
425.344	4.73
425.701	4.71
426.058	4.68
426.415	4.66
426.772	4.65
427.128	4.62
427.485	4.59
427.842	4.56
428.199	4.54
428.555	4.5
428.912	4.49
429.269	4.46
429.625	4.43
429.982	4.44
430.338	4.43
430.695	4.43
431.051	4.42
431.407	4.44
431.764	4.41
432.12	4.41
432.476	4.42
432.832	4.4
433.189	4.42
433.545	4.42
433.901	4.42
434.257	4.4
434.613	4.41
434.969	4.41
435.325	4.41
435.681	4.43
436.036	4.43
436.392	4.42
436.748	4.44
437.104	4.45
437.459	4.43
437.815	4.42
438.171	4.41
438.526	4.41
438.882	4.4
439.237	4.4
439.593	4.41
439.948	4.39
440.304	4.37
440.659	4.35
441.014	4.34
441.369	4.34
441.725	4.32
442.08	4.31
442.435	4.3
442.79	4.27
443.145	4.26
443.5	4.25
443.855	4.23
444.21	4.2
444.565	4.18
444.92	4.18
445.275	4.15
445.629	4.14
445.984	4.13
446.339	4.11
446.693	4.08
447.048	4.06
447.403	4.05
447.757	4.03
448.112	4.04
448.466	4.03
448.82	4.02
449.175	4.02
449.529	4.01
449.883	3.98
450.238	3.97
450.592	3.95
450.946	3.93
451.3	3.92
451.654	3.92
452.008	3.93
452.362	3.91
452.716	3.89
453.07	3.89
453.424	3.88
453.778	3.88
454.132	3.88
454.486	3.89
454.839	3.87
455.193	3.87
455.547	3.86
455.9	3.87
456.254	3.86
456.607	3.87
456.961	3.87
457.314	3.86
457.668	3.89
458.021	3.88
458.375	3.89
458.728	3.88
459.081	3.89
459.434	3.87
459.787	3.89
460.141	3.91
460.494	3.89
460.847	3.92
461.2	3.91
461.553	3.91
461.906	3.91
462.259	3.94
462.611	3.94
462.964	3.95
463.317	3.96
463.67	3.99
464.022	3.97
464.375	3.99
464.728	4.05
465.08	4.04
465.433	4.06
465.785	4.06
466.138	4.07
466.49	4.06
466.843	4.09
467.195	4.09
467.547	4.1
467.899	4.12
468.252	4.12
468.604	4.15
468.956	4.16
469.308	4.18
469.66	4.16
470.012	4.17
470.364	4.17
470.716	4.17
471.068	4.15
471.42	4.15
471.772	4.15
472.123	4.12
472.475	4.13
472.827	4.13
473.178	4.15
473.53	4.15
473.882	4.17
474.233	4.17
474.585	4.16
474.936	4.15
475.288	4.17
475.639	4.17
475.99	4.16
476.342	4.16
476.693	4.16
477.044	4.17
477.395	4.17
477.746	4.16
478.097	4.16
478.448	4.14
478.8	4.14
479.15	4.13
479.501	4.13
479.852	4.14
480.203	4.16
480.554	4.16
480.905	4.18
481.255	4.19
481.606	4.2
481.957	4.21
482.307	4.22
482.658	4.21
483.009	4.21
483.359	4.21
483.709	4.22
484.06	4.22
484.41	4.23
484.761	4.23
485.111	4.24
485.461	4.26
485.811	4.27
486.162	4.28
486.512	4.3
486.862	4.32
487.212	4.32
487.562	4.32
487.912	4.32
488.262	4.32
488.612	4.32
488.961	4.34
489.311	4.35
489.661	4.36
490.011	4.37
490.36	4.38
490.71	4.4
491.06	4.41
491.409	4.43
491.759	4.44
492.108	4.45
492.458	4.46
492.807	4.46
493.157	4.49
493.506	4.51
493.855	4.52
494.204	4.53
494.554	4.57
494.903	4.6
495.252	4.62
495.601	4.67
495.95	4.69
496.299	4.69
496.648	4.72
496.997	4.74
497.346	4.77
497.695	4.81
498.043	4.83
498.392	4.85
498.741	4.89
499.09	4.91
499.438	4.94
499.787	4.96
500.135	5.02
500.484	5.05
500.832	5.08
501.181	5.11
501.529	5.14
501.878	5.17
502.226	5.21
502.574	5.26
502.923	5.28
503.271	5.33
503.619	5.39
503.967	5.44
504.315	5.47
504.663	5.51
505.011	5.57
505.359	5.61
505.707	5.66
506.055	5.73
506.403	5.79
506.751	5.83
507.098	5.92
507.446	5.98
507.794	6.03
508.141	6.09
508.489	6.16
508.837	6.21
509.184	6.26
509.531	6.33
509.879	6.39
510.226	6.47
510.574	6.53
510.921	6.6
511.268	6.65
511.616	6.74
511.963	6.82
512.31	6.89
512.657	6.95
513.004	7.04
513.351	7.08
513.698	7.16
514.045	7.25
514.392	7.31
514.739	7.37
515.086	7.46
515.432	7.54
515.779	7.59
516.126	7.69
516.473	7.74
516.819	7.83
517.166	7.89
517.512	7.95
517.859	8.02
518.205	8.08
518.552	8.15
518.898	8.21
519.245	8.28
519.591	8.34
519.937	8.41
520.283	8.46
520.629	8.56
520.976	8.64
521.322	8.72
521.668	8.82
522.014	8.91
522.36	9.02
522.706	9.12
523.052	9.27
523.398	9.39
523.743	9.53
524.089	9.65
524.435	9.8
524.781	9.94
525.126	10.07
525.472	10.19
525.817	10.3
526.163	10.4
526.509	10.49
526.854	10.56
527.199	10.67
527.545	10.77
527.89	10.86
528.235	10.94
528.581	11.04
528.926	11.13
529.271	11.24
529.616	11.32
529.961	11.42
530.306	11.51
530.651	11.62
530.996	11.73
531.341	11.85
531.686	11.98
532.031	12.1
532.376	12.23
532.721	12.36
533.065	12.5
533.41	12.67
533.755	12.83
534.099	13.03
534.444	13.19
534.788	13.36
535.133	13.53
535.477	13.71
535.822	13.91
536.166	14.12
536.51	14.36
536.855	14.63
537.199	14.9
537.543	15.16
537.887	15.43
538.231	15.73
538.576	16
538.92	16.26
539.264	16.53
539.608	16.8
539.951	17.03
540.295	17.27
540.639	17.49
540.983	17.71
541.327	17.91
541.671	18.14
542.014	18.35
542.358	18.57
542.701	18.78
543.045	19.01
543.389	19.25
543.732	19.48
544.075	19.74
544.419	19.96
544.762	20.23
545.105	20.51
545.449	20.78
545.792	21.08
546.135	21.4
546.478	21.7
546.821	22.02
547.165	22.36
547.508	22.71
547.851	23.08
548.194	23.43
548.536	23.83
548.879	24.19
549.222	24.61
549.565	25.01
549.908	25.41
550.25	25.81
550.593	26.19
550.936	26.59
551.278	27
551.621	27.45
551.963	27.85
552.306	28.2
552.648	28.57
552.991	28.93
553.333	29.27
553.675	29.68
554.017	30.06
554.36	30.45
554.702	30.86
555.044	31.22
555.386	31.65
555.728	32.06
556.07	32.48
556.412	32.83
556.754	33.24
557.096	33.66
557.438	34.1
557.78	34.54
558.121	34.95
558.463	35.33
558.805	35.78
559.147	36.2
559.488	36.67
559.83	37.13
560.171	37.56
560.513	38.04
560.854	38.46
561.196	38.91
561.537	39.31
561.878	39.7
562.22	40.05
562.561	40.46
562.902	40.84
563.243	41.19
563.584	41.64
563.925	42.05
564.266	42.38
564.607	42.69
564.948	43.04
565.289	43.36
565.63	43.63
565.971	43.92
566.312	44.2
566.653	44.55
566.993	44.84
567.334	45.24
567.675	45.51
568.015	45.79
568.356	46.09
568.696	46.43
569.037	46.68
569.377	47.01
569.718	47.26
570.058	47.53
570.398	47.81
570.739	48
571.079	48.22
571.419	48.53
571.759	48.74
572.099	48.93
572.439	49.23
572.779	49.47
573.119	49.69
573.459	49.95
573.799	50.18
574.139	50.4
574.479	50.58
574.819	50.77
575.158	51
575.498	51.18
575.838	51.4
576.177	51.63
576.517	51.82
576.856	52.02
577.196	52.25
577.535	52.46
577.875	52.74
578.214	52.97
578.553	53.13
578.893	53.39
579.232	53.59
579.571	53.71
579.91	53.93
580.25	54.13
580.589	54.25
580.928	54.36
581.267	54.55
581.606	54.71
581.945	54.98
582.283	55.13
582.622	55.3
582.961	55.43
583.3	55.57
583.639	55.79
583.977	55.95
584.316	56.08
584.654	56.24
584.993	56.45
585.332	56.59
585.67	56.72
586.008	56.88
586.347	57.09
586.685	57.3
587.024	57.48
587.362	57.55
587.7	57.71
588.038	57.83
588.376	57.95
588.715	58
589.053	58.04
589.391	58.17
589.729	58.27
590.067	58.41
590.404	58.54
590.742	58.59
591.08	58.66
591.418	58.79
591.756	58.88
592.093	58.93
592.431	59.08
592.769	59.14
593.106	59.3
593.444	59.33
593.781	59.36
594.119	59.46
594.456	59.5
594.793	59.64
595.131	59.71
595.468	59.82
595.805	59.94
596.143	60.03
596.48	60.09
596.817	60.17
597.154	60.18
597.491	60.3
597.828	60.44
598.165	60.55
598.502	60.58
598.839	60.72
599.176	60.76
599.512	60.77
599.849	60.92
600.186	61.01
600.523	61.15
600.859	61.25
601.196	61.29
601.532	61.45
601.869	61.46
602.205	61.59
602.542	61.7
602.878	61.77
603.215	61.83
603.551	61.96
603.887	62.04
604.223	62.18
604.56	62.23
604.896	62.28
605.232	62.37
605.568	62.43
605.904	62.51
606.24	62.57
606.576	62.71
606.912	62.73
607.248	62.76
607.583	62.75
607.919	62.81
608.255	62.88
608.591	62.95
608.926	63.05
609.262	63.06
609.597	63.06
609.933	63.11
610.268	63.15
610.604	63.12
610.939	63.14
611.275	63.2
611.61	63.24
611.945	63.26
612.281	63.31
612.616	63.41
612.951	63.37
613.286	63.49
613.621	63.47
613.956	63.52
614.291	63.6
614.626	63.73
614.961	63.91
615.296	63.96
615.631	64.02
615.966	64.09
616.3	64.17
616.635	64.26
616.97	64.2
617.304	64.36
617.639	64.54
617.973	64.48
618.308	64.41
618.642	64.37
618.977	64.42
619.311	64.42
619.646	64.4
619.98	64.46
620.314	64.42
620.648	64.51
620.983	64.66
621.317	64.7
621.651	64.72
621.985	64.71
622.319	64.83
622.653	64.81
622.987	64.81
623.321	64.86
623.655	64.88
623.988	65.04
624.322	65.05
624.656	64.99
624.99	65.12
625.323	65.21
625.657	65.31
625.99	65.36
626.324	65.46
626.657	65.49
626.991	65.55
627.324	65.63
627.658	65.65
627.991	65.62
628.324	65.63
628.657	65.68
628.991	65.67
629.324	65.67
629.657	65.79
629.99	65.88
630.323	65.92
630.656	65.9
630.989	65.95
631.322	66
631.655	66.05
631.987	66.13
632.32	66.08
632.653	66.14
632.986	66.15
633.318	66.15
633.651	66.21
633.984	66.19
634.316	66.27
634.649	66.29
634.981	66.35
635.313	66.33
635.646	66.36
635.978	66.36
636.31	66.46
636.643	66.46
636.975	66.39
637.307	66.42
637.639	66.44
637.971	66.46
638.303	66.49
638.635	66.49
638.967	66.39
639.299	66.46
639.631	66.44
639.963	66.54
640.295	66.56
640.626	66.55
640.958	66.63
641.29	66.67
641.621	66.71
641.953	66.68
642.285	66.75
642.616	66.79
642.948	66.84
643.279	66.8
643.61	66.8
643.942	66.77
644.273	66.76
644.604	66.75
644.936	66.76
645.267	66.71
645.598	66.75
645.929	66.8
646.26	66.92
646.591	66.95
646.922	66.87
647.253	66.88
647.584	66.97
647.915	66.95
648.245	66.83
648.576	66.72
648.907	66.78
649.238	66.77
649.568	66.81
649.899	66.8
650.229	66.77
650.56	66.77
650.89	66.86
651.221	66.88
651.551	66.95
651.882	66.88
652.212	66.84
652.542	66.94
652.872	66.92
653.203	66.83
653.533	66.9
653.863	66.97
654.193	66.96
654.523	66.97
654.853	67.03
655.183	67.03
655.513	67.11
655.843	67.2
656.172	67.31
656.502	67.33
656.832	67.32
657.162	67.46
657.491	67.51
657.821	67.64
658.15	67.65
658.48	67.65
658.809	67.73
659.139	67.81
659.468	67.83
659.798	67.99
660.127	68.1
660.456	68.02
660.785	68.02
661.115	68.01
661.444	68.01
661.773	67.92
662.102	67.98
662.431	68.05
662.76	67.98
663.089	67.88
663.418	67.9
663.747	67.92
664.076	67.89
664.404	67.9
664.733	67.78
665.062	67.71
665.39	67.61
665.719	67.58
666.048	67.52
666.376	67.52
666.705	67.46
667.033	67.44
667.362	67.64
667.69	67.64
668.018	67.61
668.347	67.72
668.675	67.74
669.003	67.85
669.331	67.85
669.659	67.82
669.987	67.7
670.315	67.69
670.643	67.85
670.971	67.79
671.299	67.8
671.627	67.8
671.955	67.88
672.283	67.94
672.61	67.92
672.938	68.04
673.266	68.03
673.593	67.99
673.921	67.89
674.249	67.67
674.576	67.71
674.904	67.7
675.231	67.7
675.558	67.84
675.886	67.59
676.213	67.54
676.54	67.54
676.867	67.79
677.195	67.83
677.522	67.78
677.849	67.78
678.176	67.78
678.503	67.86
678.83	68.05
679.157	68.09
679.484	68.11
679.81	68.04
680.137	68.07
680.464	68.07
680.791	68.07
681.117	68.21
681.444	68.26
681.771	68.34
682.097	68.28
682.424	68.19
682.75	68.36
683.077	68.31
683.403	68.39
683.729	68.42
684.056	68.42
684.382	68.5
684.708	68.56
685.034	68.74
685.36	68.67
685.686	68.63
686.012	68.66
686.339	68.65
686.664	68.73
686.99	68.68
687.316	68.66
687.642	68.79
687.968	68.56
688.294	68.53
688.619	68.67
688.945	68.71
689.271	68.79
689.596	68.83
689.922	69
690.247	69.03
690.573	68.92
690.898	69.03
691.224	68.93
691.549	69.05
691.874	68.96
692.2	68.84
692.525	68.66
692.85	68.64
693.175	68.58
693.5	68.43
693.825	68.45
694.15	68.41
694.475	68.4
694.8	68.47
695.125	68.39
695.45	68.31
695.775	68.24
696.099	68.24
696.424	68.27
696.749	68.21
697.073	68.15
697.398	68.08
697.723	68.02
698.047	67.99
698.372	67.76
698.696	67.75
699.02	67.95
699.345	68.16
699.669	68.36
699.993	68.55
700.318	68.68
700.642	68.69
700.966	68.79
701.29	68.64
701.614	68.71
701.938	68.69
702.262	68.75
702.586	68.86
702.91	69
703.234	69.11
703.557	69.18
703.881	69.47
704.205	69.63
704.529	69.71
704.852	69.78
705.176	69.96
705.499	69.96
705.823	70
706.146	69.67
706.47	69.48
706.793	69.25
707.117	69.39
707.44	69.31
707.763	69.15
708.086	69.45
708.409	69.51
708.733	69.67
709.056	69.54
709.379	69.61
709.702	69.5
710.025	69.37
710.348	69.45
710.671	68.91
710.993	68.97
711.316	68.86
711.639	68.8
711.962	68.82
712.284	68.75
712.607	68.74
712.93	68.87
713.252	68.9
713.575	69.07
713.897	68.99
714.22	68.99
714.542	69.17
714.864	69.06
715.187	69.16
715.509	69.11
715.831	69.23
716.153	69.06
716.475	68.92
716.798	68.83
717.12	68.68
717.442	69
717.764	68.66
718.085	68.71
718.407	68.9
718.729	68.81
719.051	68.81
719.373	68.68
719.695	68.56
720.016	68.37
720.338	68.1
720.659	68.16
720.981	68.32
721.302	67.97
721.624	68.07
721.945	67.75
722.267	67.7
722.588	67.55
722.909	67.53
723.231	67.66
723.552	67.58
723.873	67.65
724.194	67.71
724.515	67.86
724.836	67.8
725.157	67.69
725.478	67.49
725.799	67.43
726.12	67.5
726.441	67.44
726.762	67.57
727.083	67.88
727.403	67.69
727.724	67.75
728.045	67.92
728.365	67.83
728.686	67.88
729.006	68.02
729.327	67.89
729.647	68
729.967	67.9
730.288	68.03
730.608	67.95
730.928	67.77
731.249	67.98
731.569	67.68
731.889	67.58
732.209	67.86
732.529	67.98
732.849	67.96
733.169	68.1
733.489	68.04
733.809	67.79
734.129	67.78
734.448	67.67
734.768	67.81
735.088	67.81
735.408	67.93
735.727	67.72
736.047	67.89
736.366	67.78
736.686	67.85
737.005	68.05
737.325	68.15
737.644	68.1
737.963	68.14
738.283	68.46
738.602	68.47
738.921	68.29
739.24	68.24
739.56	68.31
739.879	68.49
740.198	68.45
740.517	68.7
740.836	68.93
741.155	68.96
741.473	68.8
741.792	68.82
742.111	68.98
742.43	69.2
742.748	69.18
743.067	69.15
743.386	69.45
743.704	69.46
744.023	69.15
744.341	69.29
744.66	69.07
744.978	68.95
745.297	68.94
745.615	69.14
745.933	69.13
746.252	68.92
746.57	68.59
746.888	68.87
747.206	68.68
747.524	68.7
747.842	68.61
748.16	68.84
748.478	68.79
748.796	68.66
749.114	68.77
749.432	68.71
749.749	68.98
750.067	68.62
750.385	68.4
750.703	68.72
751.02	68.93
751.338	68.82
751.655	69.04
751.973	68.98
752.29	68.83
752.608	68.77
752.925	69.28
753.242	69.55
753.56	69.64
753.877	69.52
754.194	69.46
754.511	69.49
754.828	69.59
755.145	69.55
755.462	69.76
755.779	69.7
756.096	69.66
756.413	69.83
756.73	69.78
757.047	69.65
757.364	69.55
757.68	69.51
757.997	69.9
758.314	69.83
758.63	70.07
758.947	70.06
759.264	69.65
759.58	69.31
759.896	69.34
760.213	68.85
760.529	68.98
760.846	69.04
761.162	69
761.478	68.84
761.794	68.63
762.11	68.57
762.426	68.49
762.743	68.71
763.059	68.21
763.375	68.52
763.69	68.94
764.006	68.69
764.322	68.67
764.638	68.53
764.954	68.71
765.27	68.65
765.585	68.76
765.901	69.21
766.216	69.29
766.532	69.18
766.848	69.52
767.163	69.38
767.478	69.28
767.794	69.19
768.109	68.91
768.424	69.32
768.74	69.54
769.055	69.56
769.37	69.44
769.685	69.88
770	69.69
770.315	69.25
770.63	69.48
770.945	69.36
771.26	69.31
771.575	69.24
771.89	69.36
772.205	69.42
772.52	69.11
772.834	68.62
773.149	68.69
773.464	68.34
773.778	68.73
774.093	68.83
774.407	69.09
774.722	69.37
775.036	68.93
775.351	68.78
775.665	68.62
775.979	68.82
776.293	68.46
776.608	68.27
776.922	68.27
777.236	68.33
777.55	68.44
777.864	68.31
778.178	67.87
778.492	67.39
778.806	67.14
779.12	67.56
779.434	67.98
779.747	67.76
780.061	68.02
780.375	67.86
780.689	67.37
781.002	67.32
781.316	67.5
781.629	67.5
781.943	67.43
782.256	67.44
782.57	67.41
782.883	67.49
783.196	67.29
783.51	67.12
783.823	67.17
784.136	67.05
784.449	67.08
784.762	67.48
785.075	67.44
785.388	67.05
785.701	66.4
786.014	66.32
786.327	66.38
786.64	66.21
786.953	66.13
787.266	66.44
787.578	66.43
787.891	66.38
788.204	66.57
788.516	65.99
788.829	66.01
789.141	65.42
789.454	65.81
789.766	65.9
790.079	65.99
790.391	66.37
790.703	66.52
791.016	66.46
791.328	66.09
791.64	66.31
791.952	66.59
792.264	66.55
792.576	66.24
792.888	66.29
793.2	66.46
793.512	66.64
793.824	66.41
794.136	66.23
794.448	65.84
794.76	65.83
795.071	65.91
795.383	66
795.695	66.47
796.006	66.28
796.318	66.86
796.629	66.85
796.941	66.29
797.252	65.91
797.564	66.48
797.875	66.71
798.186	66.9
798.497	67.24
798.809	67.55
799.12	67.52
799.431	67.39
799.742	67.66
800.053	67.45
800.364	67.61
800.675	67.24
800.986	67.53
801.297	67.61
801.608	67.99
801.918	68.12
802.229	68.56
802.54	68.05
802.851	67.23
803.161	66.77
803.472	66.68
803.782	67.04
804.093	66.29
804.403	66.97
804.714	66.99
805.024	66.61
805.334	66.44
805.645	67.21
805.955	66.82
806.265	66.49
806.575	66.29
806.885	66.53
807.195	67.68
807.505	67.54
807.815	66.9
808.125	66.83
808.435	67.03
808.745	66.32
809.055	66.91
809.365	67.18
809.674	67.83
809.984	68.36
810.294	68.02
810.603	68.73
810.913	68.45
811.222	68.92
811.532	69
811.841	69.57
812.151	68.94
812.46	69.79
812.769	69.45
813.079	69.58
813.388	68.98
813.697	68.01
814.006	68.17
814.315	68.42
814.624	68.18
814.933	68.32
815.242	68.76
815.551	68.41
815.86	68.43
816.169	68.03
816.478	68.4
816.786	68.49
817.095	68.53
817.404	67.34
817.712	66.97
818.021	67.2
818.33	67.22
818.638	67.64
818.947	68.04
819.255	68.26
819.563	67.91
819.872	67.83
820.18	68.15
820.488	68.45
820.796	69.23
821.105	69.35
821.413	69.44
821.721	69.54
822.029	69.56
822.337	69.85
822.645	69.9
822.953	69.76
823.26	69.69
823.568	69.63
823.876	69.88
824.184	69.99
824.491	69.86
824.799	69.88
825.107	70
825.414	70.1
825.722	70.26
826.029	70.68
826.337	70.77
826.644	70.7
826.951	70.54
827.259	70.33
827.566	70.15
827.873	69.76
828.18	69.79
828.488	69.79
828.795	69.71
829.102	69.64
829.409	69.63
829.716	69.81
830.023	69.74
830.329	69.69
830.636	69.31
830.943	69.48
831.25	69.56
831.557	69.04
831.863	68.26
832.17	67.9
832.476	67.32
832.783	67.63
833.089	67.39
833.396	67.75
833.702	67.92
834.009	68.33
834.315	68.83
834.621	68.26
834.928	68.03
835.234	67.89
835.54	67.55
835.846	67.42
836.152	67.61
836.458	67.33
836.764	66.92
837.07	67.22
837.376	66.98
837.682	66.75
837.988	66.79
838.293	67.24
838.599	67.17
838.905	67.06
839.211	66.78
839.516	67.98
839.822	67.56
840.127	66.78
840.433	66.81
840.738	66.33
841.044	67.04
841.349	66.82
841.654	66.03
841.959	67.4
842.265	68.48
842.57	67.62
842.875	67.65
843.18	68.56
843.485	68.27
843.79	67.7
844.095	67.51
844.4	68.37
844.705	67.2
845.01	67.98
845.315	68.25
845.619	68.44
845.924	67.39
846.229	67.04
846.533	67.11
846.838	65.6
847.142	65.85
847.447	64.03
847.751	64.71
848.056	64.55
848.36	61.81
848.664	60.2
848.969	62.07
849.273	63.25
849.577	62.64
849.881	61.54
850.185	64.4
850.489	64.42
850.794	63.35
851.097	63.5
851.401	64.05
851.705	64.67
852.009	65.63
852.313	65.74
852.617	64.6
852.92	64.41
853.224	64.2
853.528	64.27
853.831	64.76
854.135	65.18
854.438	63.67
854.742	66
855.045	67.26
855.349	65.71
855.652	65.02
855.955	65.74
856.259	67.65
856.562	65.91
856.865	64.65
857.168	65.83
857.471	66.89
857.774	65.05
858.077	64.36
858.38	64.73
858.683	63.49
858.986	65.56
859.289	66.35
859.592	67.59
859.894	68.08
860.197	66.65
860.5	69.02
860.802	69.23
861.105	69.09
861.407	66.28
861.71	67.29
862.012	66.88
862.315	64.55
862.617	64.01
862.919	63.45
863.222	61.94
863.524	60.52
863.826	61.14
864.128	61.14
864.43	61.03
864.732	59.89
865.034	59.79
865.336	60.21
865.638	59.21
865.94	59.37
866.242	58.79
866.544	58.34
866.846	56.76
867.147	60.56
867.449	61.01
867.751	63.54
868.052	62.65
868.354	63.97
868.655	64.43
868.957	63.1
869.258	64.15
869.56	65.1
869.861	65.64
870.162	65.12
870.463	65.68
870.765	66.18
871.066	66.64
871.367	68.29
871.668	65.38
871.969	64.74
872.27	63.55
872.571	62.5
872.872	62.69
873.173	62.19
873.473	59.49
873.774	59.29
874.075	58.92
874.376	58.65
874.676	57.64
874.977	60.18
875.277	62.86
875.578	64.78
875.878	65.94
876.179	66.09
876.479	66.29
876.78	65.66
877.08	65.14
877.38	63.92
877.68	63.02
877.981	65.07
878.281	66.67
878.581	70.08
