Data from BA56832_Reflection_00006.txt Node
Date: Mon Nov 18 16:09:48 EST 2019
User: vgr7
Spectrometer: USB2G7710
Scans to average: 3
Trigger mode: 4
Integration Time (sec): 2.000000E-2
Electric dark correction enabled: true
Boxcar width: 10
XAxis mode: Wavelengths
Number of Pixels in Spectrum: 2048
>>>>>Begin Spectral Data<<<<<
177.721	29.94
178.105	35.58
178.488	55.51
178.871	93.85
179.254	93.82
179.636	-1.15
180.019	-324.66
180.402	323.08
180.785	-1023.71
181.168	106.85
181.55	50.91
181.933	69.72
182.316	105.05
182.698	108.06
183.081	73.8
183.463	68.77
183.846	63.19
184.228	33.91
184.611	53.07
184.993	62.38
185.376	15.86
185.758	71.87
186.14	88.16
186.522	194.05
186.904	2929.79
187.287	2659.32
187.669	-382.01
188.051	-190.23
188.433	-50.72
188.815	10.6
189.197	-84.82
189.579	-16.4
189.961	-25.07
190.342	-59.92
190.724	-54.06
191.106	-34.48
191.488	-59.26
191.869	-25.39
192.251	-7.07
192.633	7.09
193.014	10.83
193.396	-55.6
193.777	-10.44
194.159	-10.11
194.54	-8.8
194.922	23.08
195.303	57.98
195.684	72.97
196.065	83.16
196.447	66.04
196.828	52.35
197.209	56.24
197.59	53.12
197.971	41.07
198.352	92.43
198.733	135.56
199.114	78.6
199.495	96.48
199.876	87.49
200.257	41.23
200.638	35.86
201.018	47.26
201.399	57.07
201.78	60.68
202.16	45.62
202.541	63.35
202.922	60.28
203.302	30.44
203.683	-1.07
204.063	2.11
204.444	-17.09
204.824	-11.21
205.204	26
205.585	-1.46
205.965	17.09
206.345	-6.38
206.725	-22.85
207.106	-33.6
207.486	-64.56
207.866	-92.42
208.246	-239.58
208.626	4479.31
209.006	-1578.26
209.386	-681.82
209.766	-408.59
210.145	-203.16
210.525	-140.98
210.905	-73.18
211.285	-45.66
211.664	-61.38
212.044	-89.95
212.424	-88.92
212.803	-151.85
213.183	-162.46
213.562	-121.77
213.942	-110.93
214.321	-103.04
214.701	-120.88
215.08	-104.21
215.459	-88.71
215.838	-83.39
216.218	-70.23
216.597	-50.56
216.976	-38.38
217.355	-28.9
217.734	-28.27
218.113	-37.51
218.492	-35.82
218.871	-63.99
219.25	-75.94
219.629	-83.71
220.008	-52.32
220.387	-60.51
220.766	-42.17
221.144	-61.5
221.523	-43.83
221.902	-80.55
222.28	-37.33
222.659	-12.17
223.037	3.12
223.416	-9.3
223.794	-6.65
224.173	-4.14
224.551	-0.2
224.929	-4.93
225.308	1.9
225.686	0.6
226.064	11.08
226.442	3.53
226.821	13.08
227.199	8.57
227.577	7.08
227.955	4.84
228.333	12.92
228.711	12.55
229.089	15.37
229.467	12.03
229.845	13.75
230.222	8.97
230.6	9.43
230.978	8.1
231.356	7.15
231.733	9.06
232.111	9.22
232.488	7.87
232.866	6.82
233.243	5.74
233.621	7.54
233.998	6.69
234.376	7.92
234.753	6.95
235.13	7.87
235.508	8
235.885	6.57
236.262	3.06
236.639	3.38
237.016	3.75
237.393	5.09
237.77	4.72
238.147	5.67
238.524	5.07
238.901	5.93
239.278	6.66
239.655	7.36
240.032	7.04
240.409	7.25
240.785	7.6
241.162	7.4
241.539	7.25
241.915	6.69
242.292	6.6
242.668	6.61
243.045	6.83
243.421	6.96
243.798	7.4
244.174	7.7
244.551	7.87
244.927	7.62
245.303	7.42
245.679	7.58
246.056	7.24
246.432	7.24
246.808	7.41
247.184	7.06
247.56	6.76
247.936	6.9
248.312	6.77
248.688	6.68
249.064	6.58
249.44	6.55
249.815	6.61
250.191	6.53
250.567	6.41
250.943	6.27
251.318	6.5
251.694	6.36
252.069	6.04
252.445	5.76
252.82	5.76
253.196	5.81
253.571	5.46
253.947	5.77
254.322	5.74
254.697	5.59
255.073	5.69
255.448	5.66
255.823	5.45
256.198	5.42
256.573	5.3
256.948	5.55
257.323	5.71
257.698	5.77
258.073	5.82
258.448	5.84
258.823	5.83
259.198	5.62
259.573	5.6
259.948	5.85
260.322	5.85
260.697	5.79
261.072	5.76
261.446	5.92
261.821	5.84
262.195	5.97
262.57	5.9
262.944	5.84
263.319	5.83
263.693	5.88
264.067	5.82
264.442	6.06
264.816	5.97
265.19	5.81
265.564	5.77
265.938	5.7
266.313	5.75
266.687	5.9
267.061	6.09
267.435	5.99
267.809	5.59
268.183	5.68
268.556	5.67
268.93	5.86
269.304	5.63
269.678	5.57
270.051	5.51
270.425	5.47
270.799	5.57
271.172	5.56
271.546	5.52
271.919	5.56
272.293	5.45
272.666	5.52
273.04	5.57
273.413	5.37
273.787	5.39
274.16	5.42
274.533	5.4
274.906	5.2
275.279	5.15
275.653	5.42
276.026	5.28
276.399	5.17
276.772	5.14
277.145	5.15
277.518	5.25
277.891	5.21
278.263	5.33
278.636	5.43
279.009	5.41
279.382	5.58
279.755	5.43
280.127	5.64
280.5	5.72
280.872	5.79
281.245	5.85
281.617	6.03
281.99	5.98
282.362	5.89
282.735	5.92
283.107	5.94
283.479	5.91
283.852	6.05
284.224	6.25
284.596	6.17
284.968	6.25
285.34	6.37
285.713	6.46
286.085	6.29
286.457	6.39
286.829	6.56
287.201	6.48
287.572	6.52
287.944	6.36
288.316	6.34
288.688	6.28
289.06	6.4
289.431	6.33
289.803	6.34
290.175	6.42
290.546	6.63
290.918	6.72
291.289	6.73
291.661	6.74
292.032	6.76
292.403	6.72
292.775	6.81
293.146	6.75
293.517	6.7
293.889	6.91
294.26	6.88
294.631	6.89
295.002	6.91
295.373	7.01
295.744	7.14
296.115	7.17
296.486	7.08
296.857	7.03
297.228	7.15
297.599	7.28
297.97	7.24
298.34	7.15
298.711	7.22
299.082	7.18
299.452	7.31
299.823	7.37
300.194	7.38
300.564	7.33
300.935	7.39
301.305	7.4
301.676	7.38
302.046	7.43
302.416	7.47
302.787	7.52
303.157	7.46
303.527	7.48
303.897	7.41
304.267	7.63
304.637	7.7
305.008	7.75
305.378	7.75
305.748	7.89
306.117	7.87
306.487	7.78
306.857	7.93
307.227	7.94
307.597	7.84
307.967	8.05
308.336	8.05
308.706	8.05
309.076	8.1
309.445	8.06
309.815	8.06
310.184	8.06
310.554	8.11
310.923	8.3
311.293	8.24
311.662	8.19
312.031	8.07
312.401	8.13
312.77	8.07
313.139	8.12
313.508	8.13
313.877	8.23
314.246	8.48
314.616	8.38
314.985	8.4
315.353	8.26
315.722	8.26
316.091	8.27
316.46	8.25
316.829	8.23
317.198	8.36
317.567	8.24
317.935	8.16
318.304	8.15
318.672	8.02
319.041	8.03
319.41	8.17
319.778	8.28
320.147	8.24
320.515	8.12
320.883	8.04
321.252	8.08
321.62	7.86
321.988	7.65
322.357	7.61
322.725	7.52
323.093	7.88
323.461	7.88
323.829	7.89
324.197	7.88
324.565	7.93
324.933	7.93
325.301	7.91
325.669	7.99
326.037	7.87
326.405	7.94
326.772	8.03
327.14	8.05
327.508	8.08
327.875	8.1
328.243	8.01
328.61	7.92
328.978	7.94
329.346	8.23
329.713	8.15
330.08	8.35
330.448	8.28
330.815	8.07
331.182	8.14
331.55	8.2
331.917	8.39
332.284	8.48
332.651	8.41
333.018	8.51
333.385	8.46
333.752	8.51
334.119	8.53
334.486	8.42
334.853	8.42
335.22	8.3
335.587	8.35
335.954	8.46
336.32	8.44
336.687	8.32
337.054	8.27
337.42	8.4
337.787	8.31
338.153	8.41
338.52	8.54
338.886	8.48
339.253	8.32
339.619	8.21
339.986	8.23
340.352	8.23
340.718	8.23
341.084	8.13
341.451	8.11
341.817	8.04
342.183	8.09
342.549	8.04
342.915	8.1
343.281	8.04
343.647	7.97
344.013	7.96
344.379	7.88
344.745	7.75
345.11	7.73
345.476	7.7
345.842	7.69
346.208	7.65
346.573	7.64
346.939	7.81
347.304	7.79
347.67	7.61
348.035	7.65
348.401	7.61
348.766	7.74
349.132	7.83
349.497	7.84
349.862	7.93
350.228	7.96
350.593	7.89
350.958	7.93
351.323	8.05
351.688	8.06
352.053	8.25
352.418	8.34
352.783	8.32
353.148	8.34
353.513	8.32
353.878	8.27
354.243	8.21
354.608	8.09
354.972	8.07
355.337	8.14
355.702	8.19
356.066	8.29
356.431	8.26
356.795	8.24
357.16	8.2
357.524	8.08
357.889	8.05
358.253	8.15
358.618	8.16
358.982	8.08
359.346	8.11
359.71	8
360.075	7.97
360.439	7.93
360.803	7.93
361.167	7.85
361.531	7.88
361.895	7.89
362.259	7.9
362.623	7.89
362.987	7.9
363.351	7.82
363.714	7.82
364.078	7.76
364.442	7.71
364.806	7.77
365.169	7.76
365.533	7.82
365.896	7.79
366.26	7.81
366.623	7.82
366.987	7.84
367.35	7.84
367.714	7.84
368.077	7.87
368.44	7.86
368.803	7.87
369.167	7.87
369.53	7.88
369.893	7.99
370.256	8.03
370.619	8.04
370.982	8.04
371.345	7.96
371.708	8.02
372.071	8.09
372.434	8.06
372.797	8.07
373.159	8.03
373.522	8.1
373.885	8.1
374.247	8.08
374.61	8.1
374.973	8.09
375.335	8.16
375.698	8.19
376.06	8.22
376.423	8.28
376.785	8.26
377.147	8.29
377.51	8.24
377.872	8.3
378.234	8.26
378.596	8.3
378.958	8.3
379.321	8.29
379.683	8.29
380.045	8.29
380.407	8.32
380.769	8.3
381.13	8.22
381.492	8.17
381.854	8.18
382.216	8.15
382.578	8.16
382.939	8.13
383.301	8.08
383.663	8.04
384.024	8.03
384.386	8.07
384.747	8.08
385.109	8.1
385.47	8.01
385.832	8.06
386.193	8.05
386.554	8.08
386.916	8.05
387.277	8.04
387.638	8.07
387.999	7.99
388.36	7.98
388.721	7.98
389.082	8.04
389.443	8.03
389.804	8.05
390.165	8.06
390.526	8.06
390.887	8.1
391.248	8.14
391.609	8.1
391.969	8.08
392.33	8.06
392.691	8.02
393.051	8.06
393.412	8.04
393.772	8.03
394.133	8.06
394.493	8.1
394.854	8.09
395.214	8.1
395.574	8.14
395.935	8.18
396.295	8.19
396.655	8.13
397.015	8.16
397.376	8.14
397.736	8.17
398.096	8.18
398.456	8.18
398.816	8.15
399.176	8.16
399.535	8.17
399.895	8.15
400.255	8.13
400.615	8.13
400.975	8.14
401.334	8.16
401.694	8.13
402.054	8.1
402.413	8.12
402.773	8.09
403.132	8.06
403.492	8.05
403.851	8.06
404.211	8.07
404.57	8.05
404.929	8.07
405.288	8.02
405.648	8
406.007	8
406.366	8.01
406.725	8.03
407.084	8.05
407.443	8.07
407.802	8.11
408.161	8.13
408.52	8.13
408.879	8.11
409.238	8.09
409.596	8.07
409.955	8.07
410.314	8.1
410.673	8.12
411.031	8.11
411.39	8.08
411.748	8.08
412.107	8.12
412.465	8.11
412.824	8.13
413.182	8.13
413.54	8.12
413.899	8.12
414.257	8.13
414.615	8.08
414.974	8.06
415.332	8.07
415.69	8.04
416.048	8.01
416.406	8
416.764	8
417.122	8.01
417.48	7.97
417.838	7.96
418.195	7.95
418.553	7.95
418.911	7.93
419.269	7.94
419.626	7.92
419.984	7.91
420.342	7.91
420.699	7.9
421.057	7.9
421.414	7.89
421.772	7.87
422.129	7.88
422.486	7.86
422.844	7.85
423.201	7.84
423.558	7.83
423.915	7.82
424.273	7.82
424.63	7.8
424.987	7.79
425.344	7.78
425.701	7.78
426.058	7.77
426.415	7.77
426.772	7.77
427.128	7.75
427.485	7.75
427.842	7.76
428.199	7.76
428.555	7.75
428.912	7.74
429.269	7.76
429.625	7.74
429.982	7.75
430.338	7.71
430.695	7.7
431.051	7.71
431.407	7.71
431.764	7.71
432.12	7.71
432.476	7.74
432.832	7.73
433.189	7.72
433.545	7.72
433.901	7.73
434.257	7.72
434.613	7.73
434.969	7.72
435.325	7.7
435.681	7.72
436.036	7.71
436.392	7.71
436.748	7.7
437.104	7.69
437.459	7.68
437.815	7.69
438.171	7.71
438.526	7.72
438.882	7.71
439.237	7.72
439.593	7.71
439.948	7.68
440.304	7.69
440.659	7.68
441.014	7.69
441.369	7.68
441.725	7.66
442.08	7.66
442.435	7.65
442.79	7.62
443.145	7.6
443.5	7.59
443.855	7.58
444.21	7.57
444.565	7.58
444.92	7.59
445.275	7.57
445.629	7.58
445.984	7.57
446.339	7.56
446.693	7.55
447.048	7.54
447.403	7.53
447.757	7.54
448.112	7.55
448.466	7.53
448.82	7.54
449.175	7.56
449.529	7.56
449.883	7.55
450.238	7.56
450.592	7.56
450.946	7.56
451.3	7.56
451.654	7.56
452.008	7.55
452.362	7.51
452.716	7.52
453.07	7.51
453.424	7.49
453.778	7.49
454.132	7.47
454.486	7.49
454.839	7.51
455.193	7.5
455.547	7.51
455.9	7.5
456.254	7.49
456.607	7.46
456.961	7.45
457.314	7.43
457.668	7.45
458.021	7.43
458.375	7.44
458.728	7.44
459.081	7.45
459.434	7.43
459.787	7.43
460.141	7.43
460.494	7.43
460.847	7.43
461.2	7.42
461.553	7.43
461.906	7.42
462.259	7.41
462.611	7.41
462.964	7.41
463.317	7.44
463.67	7.43
464.022	7.45
464.375	7.45
464.728	7.5
465.08	7.51
465.433	7.53
465.785	7.51
466.138	7.52
466.49	7.51
466.843	7.5
467.195	7.54
467.547	7.54
467.899	7.56
468.252	7.58
468.604	7.61
468.956	7.6
469.308	7.6
469.66	7.62
470.012	7.6
470.364	7.6
470.716	7.59
471.068	7.6
471.42	7.6
471.772	7.61
472.123	7.6
472.475	7.58
472.827	7.57
473.178	7.59
473.53	7.58
473.882	7.57
474.233	7.59
474.585	7.58
474.936	7.58
475.288	7.58
475.639	7.59
475.99	7.61
476.342	7.61
476.693	7.61
477.044	7.6
477.395	7.6
477.746	7.61
478.097	7.59
478.448	7.61
478.8	7.59
479.15	7.59
479.501	7.59
479.852	7.6
480.203	7.63
480.554	7.65
480.905	7.67
481.255	7.68
481.606	7.71
481.957	7.72
482.307	7.72
482.658	7.72
483.009	7.71
483.359	7.72
483.709	7.73
484.06	7.74
484.41	7.75
484.761	7.76
485.111	7.77
485.461	7.77
485.811	7.76
486.162	7.76
486.512	7.77
486.862	7.76
487.212	7.76
487.562	7.75
487.912	7.76
488.262	7.75
488.612	7.74
488.961	7.74
489.311	7.73
489.661	7.74
490.011	7.75
490.36	7.74
490.71	7.73
491.06	7.72
491.409	7.72
491.759	7.71
492.108	7.71
492.458	7.71
492.807	7.71
493.157	7.73
493.506	7.74
493.855	7.75
494.204	7.74
494.554	7.75
494.903	7.75
495.252	7.72
495.601	7.73
495.95	7.73
496.299	7.73
496.648	7.73
496.997	7.73
497.346	7.73
497.695	7.75
498.043	7.74
498.392	7.76
498.741	7.78
499.09	7.79
499.438	7.79
499.787	7.8
500.135	7.8
500.484	7.82
500.832	7.82
501.181	7.82
501.529	7.85
501.878	7.88
502.226	7.9
502.574	7.92
502.923	7.96
503.271	7.95
503.619	7.96
503.967	7.96
504.315	7.97
504.663	7.97
505.011	7.97
505.359	7.98
505.707	8.01
506.055	7.99
506.403	7.97
506.751	7.99
507.098	8
507.446	8.04
507.794	8.03
508.141	8.04
508.489	8.05
508.837	8.05
509.184	8.04
509.531	8.06
509.879	8.08
510.226	8.07
510.574	8.11
510.921	8.13
511.268	8.18
511.616	8.2
511.963	8.21
512.31	8.2
512.657	8.22
513.004	8.22
513.351	8.26
513.698	8.29
514.045	8.3
514.392	8.29
514.739	8.28
515.086	8.31
515.432	8.32
515.779	8.33
516.126	8.34
516.473	8.36
516.819	8.37
517.166	8.38
517.512	8.39
517.859	8.4
518.205	8.4
518.552	8.38
518.898	8.38
519.245	8.39
519.591	8.41
519.937	8.39
520.283	8.39
520.629	8.39
520.976	8.41
521.322	8.42
521.668	8.44
522.014	8.43
522.36	8.44
522.706	8.45
523.052	8.47
523.398	8.48
523.743	8.5
524.089	8.52
524.435	8.51
524.781	8.51
525.126	8.53
525.472	8.51
525.817	8.52
526.163	8.52
526.509	8.53
526.854	8.52
527.199	8.55
527.545	8.55
527.89	8.55
528.235	8.55
528.581	8.55
528.926	8.55
529.271	8.56
529.616	8.56
529.961	8.57
530.306	8.58
530.651	8.59
530.996	8.59
531.341	8.58
531.686	8.59
532.031	8.6
532.376	8.61
532.721	8.63
533.065	8.63
533.41	8.65
533.755	8.66
534.099	8.68
534.444	8.67
534.788	8.68
535.133	8.68
535.477	8.69
535.822	8.69
536.166	8.68
536.51	8.68
536.855	8.69
537.199	8.7
537.543	8.7
537.887	8.71
538.231	8.69
538.576	8.7
538.92	8.7
539.264	8.7
539.608	8.68
539.951	8.68
540.295	8.67
540.639	8.65
540.983	8.64
541.327	8.64
541.671	8.64
542.014	8.64
542.358	8.66
542.701	8.64
543.045	8.65
543.389	8.66
543.732	8.67
544.075	8.66
544.419	8.64
544.762	8.63
545.105	8.59
545.449	8.62
545.792	8.61
546.135	8.61
546.478	8.63
546.821	8.63
547.165	8.64
547.508	8.67
547.851	8.67
548.194	8.66
548.536	8.67
548.879	8.69
549.222	8.68
549.565	8.69
549.908	8.71
550.25	8.7
550.593	8.68
550.936	8.66
551.278	8.66
551.621	8.68
551.963	8.68
552.306	8.71
552.648	8.73
552.991	8.73
553.333	8.73
553.675	8.73
554.017	8.72
554.36	8.72
554.702	8.74
555.044	8.76
555.386	8.83
555.728	8.84
556.07	8.86
556.412	8.88
556.754	8.89
557.096	8.9
557.438	8.91
557.78	8.96
558.121	9
558.463	9
558.805	8.99
559.147	9.01
559.488	9.02
559.83	8.97
560.171	8.98
560.513	9
560.854	8.98
561.196	8.97
561.537	8.98
561.878	8.99
562.22	8.99
562.561	8.94
562.902	8.95
563.243	8.93
563.584	8.93
563.925	8.92
564.266	8.91
564.607	8.91
564.948	8.89
565.289	8.86
565.63	8.86
565.971	8.86
566.312	8.84
566.653	8.86
566.993	8.86
567.334	8.85
567.675	8.82
568.015	8.85
568.356	8.86
568.696	8.87
569.037	8.86
569.377	8.84
569.718	8.87
570.058	8.87
570.398	8.87
570.739	8.86
571.079	8.85
571.419	8.85
571.759	8.85
572.099	8.83
572.439	8.84
572.779	8.84
573.119	8.86
573.459	8.9
573.799	8.91
574.139	8.93
574.479	8.96
574.819	8.98
575.158	8.98
575.498	8.99
575.838	8.97
576.177	8.94
576.517	8.96
576.856	8.92
577.196	8.89
577.535	8.87
577.875	8.89
578.214	8.93
578.553	8.95
578.893	8.95
579.232	8.97
579.571	8.99
579.91	9.01
580.25	9.03
580.589	8.99
580.928	8.95
581.267	8.93
581.606	8.91
581.945	8.88
582.283	8.84
582.622	8.86
582.961	8.84
583.3	8.85
583.639	8.85
583.977	8.88
584.316	8.91
584.654	8.94
584.993	8.97
585.332	8.97
585.67	8.95
586.008	8.97
586.347	8.97
586.685	8.96
587.024	8.95
587.362	8.94
587.7	8.95
588.038	8.98
588.376	8.98
588.715	9
589.053	9.01
589.391	9.04
589.729	9.02
590.067	9.05
590.404	9.09
590.742	9.09
591.08	9.04
591.418	9.02
591.756	9
592.093	8.97
592.431	8.95
592.769	8.93
593.106	8.94
593.444	8.94
593.781	8.96
594.119	8.97
594.456	8.93
594.793	8.95
595.131	8.92
595.468	8.94
595.805	8.92
596.143	8.93
596.48	8.93
596.817	8.94
597.154	8.96
597.491	8.96
597.828	8.96
598.165	9.01
598.502	9.01
598.839	9.03
599.176	9.03
599.512	9.03
599.849	9.07
600.186	9.07
600.523	9.11
600.859	9.13
601.196	9.11
601.532	9.13
601.869	9.15
602.205	9.18
602.542	9.17
602.878	9.18
603.215	9.16
603.551	9.16
603.887	9.18
604.223	9.13
604.56	9.12
604.896	9.11
605.232	9.12
605.568	9.13
605.904	9.12
606.24	9.16
606.576	9.15
606.912	9.15
607.248	9.13
607.583	9.12
607.919	9.1
608.255	9.12
608.591	9.13
608.926	9.11
609.262	9.11
609.597	9.09
609.933	9.11
610.268	9.15
610.604	9.18
610.939	9.16
611.275	9.22
611.61	9.2
611.945	9.22
612.281	9.22
612.616	9.19
612.951	9.2
613.286	9.17
613.621	9.17
613.956	9.15
614.291	9.17
614.626	9.18
614.961	9.19
615.296	9.18
615.631	9.17
615.966	9.15
616.3	9.13
616.635	9.16
616.97	9.13
617.304	9.11
617.639	9.09
617.973	9.06
618.308	9.06
618.642	9.07
618.977	9.07
619.311	9.08
619.646	9.12
619.98	9.09
620.314	9.09
620.648	9.1
620.983	9.14
621.317	9.15
621.651	9.16
621.985	9.14
622.319	9.13
622.653	9.15
622.987	9.21
623.321	9.22
623.655	9.23
623.988	9.29
624.322	9.23
624.656	9.24
624.99	9.28
625.323	9.28
625.657	9.33
625.99	9.29
626.324	9.3
626.657	9.26
626.991	9.27
627.324	9.3
627.658	9.29
627.991	9.3
628.324	9.26
628.657	9.24
628.991	9.28
629.324	9.29
629.657	9.32
629.99	9.33
630.323	9.3
630.656	9.29
630.989	9.26
631.322	9.32
631.655	9.32
631.987	9.28
632.32	9.28
632.653	9.24
632.986	9.33
633.318	9.36
633.651	9.39
633.984	9.41
634.316	9.42
634.649	9.46
634.981	9.41
635.313	9.45
635.646	9.49
635.978	9.45
636.31	9.48
636.643	9.44
636.975	9.46
637.307	9.53
637.639	9.53
637.971	9.55
638.303	9.51
638.635	9.5
638.967	9.57
639.299	9.59
639.631	9.56
639.963	9.45
640.295	9.43
640.626	9.39
640.958	9.42
641.29	9.37
641.621	9.34
641.953	9.38
642.285	9.35
642.616	9.33
642.948	9.31
643.279	9.27
643.61	9.27
643.942	9.19
644.273	9.16
644.604	9.15
644.936	9.11
645.267	9.18
645.598	9.18
645.929	9.21
646.26	9.24
646.591	9.25
646.922	9.25
647.253	9.28
647.584	9.31
647.915	9.25
648.245	9.25
648.576	9.3
648.907	9.3
649.238	9.31
649.568	9.27
649.899	9.34
650.229	9.39
650.56	9.4
650.89	9.48
651.221	9.53
651.551	9.5
651.882	9.51
652.212	9.47
652.542	9.49
652.872	9.41
653.203	9.38
653.533	9.46
653.863	9.53
654.193	9.48
654.523	9.44
654.853	9.52
655.183	9.56
655.513	9.5
655.843	9.47
656.172	9.49
656.502	9.6
656.832	9.53
657.162	9.59
657.491	9.58
657.821	9.54
658.15	9.51
658.48	9.6
658.809	9.65
659.139	9.69
659.468	9.63
659.798	9.64
660.127	9.68
660.456	9.65
660.785	9.63
661.115	9.6
661.444	9.69
661.773	9.63
662.102	9.61
662.431	9.66
662.76	9.7
663.089	9.7
663.418	9.61
663.747	9.65
664.076	9.64
664.404	9.65
664.733	9.69
665.062	9.72
665.39	9.65
665.719	9.57
666.048	9.57
666.376	9.64
666.705	9.67
667.033	9.6
667.362	9.64
667.69	9.67
668.018	9.68
668.347	9.67
668.675	9.67
669.003	9.7
669.331	9.7
669.659	9.67
669.987	9.62
670.315	9.7
670.643	9.66
670.971	9.61
671.299	9.7
671.627	9.71
671.955	9.66
672.283	9.68
672.61	9.67
672.938	9.74
673.266	9.7
673.593	9.77
673.921	9.8
674.249	9.71
674.576	9.7
674.904	9.71
675.231	9.67
675.558	9.75
675.886	9.77
676.213	9.75
676.54	9.8
676.867	9.89
677.195	9.78
677.522	9.84
677.849	9.89
678.176	9.81
678.503	9.81
678.83	9.81
679.157	9.76
679.484	9.82
679.81	9.67
680.137	9.71
680.464	9.66
680.791	9.68
681.117	9.7
681.444	9.69
681.771	9.7
682.097	9.71
682.424	9.65
682.75	9.57
683.077	9.59
683.403	9.63
683.729	9.56
684.056	9.71
684.382	9.67
684.708	9.51
685.034	9.46
685.36	9.49
685.686	9.48
686.012	9.45
686.339	9.39
686.664	9.44
686.99	9.43
687.316	9.37
687.642	9.4
687.968	9.38
688.294	9.45
688.619	9.43
688.945	9.39
689.271	9.41
689.596	9.44
689.922	9.44
690.247	9.32
690.573	9.36
690.898	9.31
691.224	9.4
691.549	9.55
691.874	9.62
692.2	9.5
692.525	9.53
692.85	9.55
693.175	9.63
693.5	9.69
693.825	9.72
694.15	9.68
694.475	9.68
694.8	9.69
695.125	9.6
695.45	9.62
695.775	9.65
696.099	9.69
696.424	9.78
696.749	9.77
697.073	9.87
697.398	9.83
697.723	9.8
698.047	9.71
698.372	9.62
698.696	9.62
699.02	9.64
699.345	9.64
699.669	9.83
699.993	9.85
700.318	9.88
700.642	9.84
700.966	9.92
701.29	9.97
701.614	10.05
701.938	10.09
702.262	10.17
702.586	10.2
702.91	10.24
703.234	10.16
703.557	10.25
703.881	10.18
704.205	10.28
704.529	10.34
704.852	10.41
705.176	10.41
705.499	10.37
705.823	10.36
706.146	10.27
706.47	10.06
706.793	9.96
707.117	9.89
707.44	9.94
707.763	9.98
708.086	9.96
708.409	9.9
708.733	9.97
709.056	9.97
709.379	10.12
709.702	10.11
710.025	10.02
710.348	9.94
710.671	9.88
710.993	9.88
711.316	9.89
711.639	9.82
711.962	10.06
712.284	10.18
712.607	10.29
712.93	10.45
713.252	10.45
713.575	10.6
713.897	10.71
714.22	10.66
714.542	10.67
714.864	10.69
715.187	10.69
715.509	10.65
715.831	10.64
716.153	10.5
716.475	10.48
716.798	10.63
717.12	10.51
717.442	10.62
717.764	10.5
718.085	10.47
718.407	10.59
718.729	10.41
719.051	10.42
719.373	10.34
719.695	10.29
720.016	10.42
720.338	10.23
720.659	10.04
720.981	10.01
721.302	9.99
721.624	9.83
721.945	9.77
722.267	9.81
722.588	9.74
722.909	9.77
723.231	9.61
723.552	9.61
723.873	9.78
724.194	9.66
724.515	9.78
724.836	9.81
725.157	9.86
725.478	9.86
725.799	9.84
726.12	9.8
726.441	9.67
726.762	9.68
727.083	9.87
727.403	10.11
727.724	10.26
728.045	10.21
728.365	10.22
728.686	10.26
729.006	10.28
729.327	10.14
729.647	10.1
729.967	10.17
730.288	10.26
730.608	10
730.928	9.91
731.249	10
731.569	10.14
731.889	10.07
732.209	10.16
732.529	10.1
732.849	10.3
733.169	10.45
733.489	10.29
733.809	10.13
734.129	9.94
734.448	9.92
734.768	9.94
735.088	10.13
735.408	10.27
735.727	10.35
736.047	10.65
736.366	10.75
736.686	10.74
737.005	10.77
737.325	10.99
737.644	11.25
737.963	11.18
738.283	10.97
738.602	11
738.921	10.89
739.24	10.9
739.56	10.67
739.879	10.65
740.198	10.71
740.517	10.72
740.836	10.92
741.155	11.04
741.473	10.9
741.792	10.75
742.111	10.61
742.43	10.52
742.748	10.36
743.067	10.38
743.386	10.44
743.704	10.46
744.023	10.62
744.341	10.46
744.66	10.71
744.978	10.88
745.297	10.98
745.615	11.15
745.933	11.14
746.252	11.38
746.57	11.32
746.888	11.45
747.206	11.69
747.524	11.79
747.842	11.56
748.16	12.07
748.478	12.2
748.796	12.21
749.114	12.27
749.432	12.22
749.749	12.24
750.067	12.21
750.385	11.81
750.703	11.71
751.02	11.68
751.338	11.28
751.655	11.11
751.973	10.99
752.29	10.98
752.608	11.1
752.925	11.03
753.242	11.02
753.56	10.85
753.877	10.68
754.194	10.51
754.511	10.54
754.828	10.37
755.145	10.37
755.462	10.37
755.779	10.35
756.096	10.31
756.413	10.33
756.73	10.5
757.047	10.75
757.364	10.74
757.68	10.83
757.997	10.81
758.314	10.77
758.63	10.72
758.947	10.6
759.264	10.49
759.58	10.39
759.896	10.47
760.213	10.61
760.529	10.93
760.846	10.86
761.162	10.96
761.478	10.67
761.794	10.69
762.11	10.78
762.426	10.92
762.743	10.97
763.059	10.93
763.375	11.04
763.69	11.1
764.006	11.22
764.322	11.34
764.638	11.52
764.954	11.65
765.27	11.78
765.585	11.79
765.901	12.1
766.216	12.16
766.532	12.05
766.848	12.3
767.163	12.26
767.478	12.2
767.794	12.22
768.109	12.44
768.424	12.46
768.74	12.55
769.055	12.45
769.37	12.46
769.685	12.51
770	12.4
770.315	12.4
770.63	12.42
770.945	12.37
771.26	12.1
771.575	12.23
771.89	11.83
772.205	11.97
772.52	11.42
772.834	11.44
773.149	11.97
773.464	11.47
773.778	11.39
774.093	11.23
774.407	11.3
774.722	11.12
775.036	11.19
775.351	11.4
775.665	11.53
775.979	11.73
776.293	11.77
776.608	11.58
776.922	11.31
777.236	11.21
777.55	11.5
777.864	11.59
778.178	11.82
778.492	12.19
778.806	11.72
779.12	11.8
779.434	11.62
779.747	11.26
780.061	11.55
780.375	11.24
780.689	11.56
781.002	11.37
781.316	11.56
781.629	11.43
781.943	11.4
782.256	11.36
782.57	10.95
782.883	10.91
783.196	11.25
783.51	11.27
783.823	11.04
784.136	10.96
784.449	11.14
784.762	10.86
785.075	10.92
785.388	11.51
785.701	11.77
786.014	12.16
786.327	12.18
786.64	12.23
786.953	12.68
787.266	12.61
787.578	12.48
787.891	12.88
788.204	13.09
788.516	12.95
788.829	12.92
789.141	13.27
789.454	13.25
789.766	13.33
790.079	13.65
790.391	13.98
790.703	13.72
791.016	13.69
791.328	13.59
791.64	13.58
791.952	13.18
792.264	12.76
792.576	12.39
792.888	12.69
793.2	12.99
793.512	12.76
793.824	12.7
794.136	13.1
794.448	12.98
794.76	12.73
795.071	12.14
795.383	12.14
795.695	12.05
796.006	12.11
796.318	11.91
796.629	11.94
796.941	11.62
797.252	11.93
797.564	12.2
797.875	12.4
798.186	12.07
798.497	12.66
798.809	13.3
799.12	13.72
799.431	13.49
799.742	13.12
800.053	13.44
800.364	13.89
800.675	14.05
800.986	13.76
801.297	13.9
801.608	14.03
801.918	13.61
802.229	13.89
802.54	13.73
802.851	13.46
803.161	12.92
803.472	13.28
803.782	13.54
804.093	13.25
804.403	13.02
804.714	13.37
805.024	12.65
805.334	12.15
805.645	11.88
805.955	11.84
806.265	11.84
806.575	11.32
806.885	11.36
807.195	11.39
807.505	11.4
807.815	11.5
808.125	11.99
808.435	12.29
808.745	12.24
809.055	12.52
809.365	12.91
809.674	13.09
809.984	13.33
810.294	12.76
810.603	13.39
810.913	13.7
811.222	13.87
811.532	14.2
811.841	14.71
812.151	15.29
812.46	15.3
812.769	14.96
813.079	15.39
813.388	15.14
813.697	14.85
814.006	14.65
814.315	14.03
814.624	13.68
814.933	13.64
815.242	13.48
815.551	13.62
815.86	13.49
816.169	13.54
816.478	12.73
816.786	12.57
817.095	12.48
817.404	12.86
817.712	12.4
818.021	13.04
818.33	12.91
818.638	12.35
818.947	12.67
819.255	12.79
819.563	12.72
819.872	12.81
820.18	12.98
820.488	13.09
820.796	13.38
821.105	13.46
821.413	13.61
821.721	13.5
822.029	13.45
822.337	13.41
822.645	13.37
822.953	13.44
823.26	13.51
823.568	13.47
823.876	13.37
824.184	13.54
824.491	13.47
824.799	13.47
825.107	13.58
825.414	13.52
825.722	13.6
826.029	13.62
826.337	13.63
826.644	13.64
826.951	13.62
827.259	13.55
827.566	13.45
827.873	13.18
828.18	13.29
828.488	13.29
828.795	13.34
829.102	13.51
829.409	13.75
829.716	13.82
830.023	13.82
830.329	13.64
830.636	13.45
830.943	13.46
831.25	13.37
831.557	13.17
831.863	13.31
832.17	13.37
832.476	13.5
832.783	13.94
833.089	13.88
833.396	14.05
833.702	14.34
834.009	14.15
834.315	14.39
834.621	14.54
834.928	14.53
835.234	14.62
835.54	14.47
835.846	13.89
836.152	14.1
836.458	14.12
836.764	14.42
837.07	14.46
837.376	13.97
837.682	14.06
837.988	13.94
838.293	14.08
838.599	13.93
838.905	14.29
839.211	13.82
839.516	13.64
839.822	13.69
840.127	13.7
840.433	13.96
840.738	13.84
841.044	14.56
841.349	14.8
841.654	14.38
841.959	14.42
842.265	15.74
842.57	15.45
842.875	15.15
843.18	14.94
843.485	15.33
843.79	15.55
844.095	15.41
844.4	17.27
844.705	15.56
845.01	15.51
845.315	15.02
845.619	14.68
845.924	14.17
846.229	13.97
846.533	13.92
846.838	14.81
847.142	15.09
847.447	11.89
847.751	11.11
848.056	11.95
848.36	12.59
848.664	11.88
848.969	11.45
849.273	11.09
849.577	10.09
849.881	10.2
850.185	12.19
850.489	13.9
850.794	11.95
851.097	13.89
851.401	15.81
851.705	12.33
852.009	12.38
852.313	13.37
852.617	13.57
852.92	14
853.224	12.71
853.528	12.66
853.831	13.98
854.135	16.14
854.438	14.87
854.742	13.42
855.045	13.48
855.349	13.28
855.652	14.2
855.955	15.66
856.259	14.26
856.562	14.15
856.865	12.47
857.168	11.58
857.471	11.91
857.774	10.98
858.077	12.74
858.38	12.4
858.683	12.54
858.986	11.1
859.289	10.95
859.592	13.29
859.894	14.14
860.197	16.64
860.5	15.69
860.802	15.38
861.105	17.19
861.407	16.79
861.71	16.43
862.012	16.22
862.315	13.71
862.617	13.2
862.919	13.05
863.222	12.61
863.524	14.17
863.826	15.43
864.128	14.75
864.43	15.7
864.732	16.42
865.034	16.74
865.336	18.2
865.638	17.47
865.94	14.84
866.242	13.7
866.544	11.91
866.846	11.26
867.147	11.83
867.449	10.17
867.751	7.03
868.052	7.59
868.354	7.98
868.655	9.34
868.957	12
869.258	11.77
869.56	12.56
869.861	11.35
870.162	10.21
870.463	11.25
870.765	8.1
871.066	7.73
871.367	6.01
871.668	5.83
871.969	5.74
872.27	4.9
872.571	6.46
872.872	3.85
873.173	3.7
873.473	2.99
873.774	3.91
874.075	6.83
874.376	5.56
874.676	6.1
874.977	5.41
875.277	6.75
875.578	6.73
875.878	6.14
876.179	6.03
876.479	4.8
876.78	3.35
877.08	6.37
877.38	5.92
877.68	7.17
877.981	6.84
878.281	6.14
878.581	10.61
