Data from BA56825_Reflection_00001.txt Node
Date: Mon Nov 18 15:37:11 EST 2019
User: vgr7
Spectrometer: USB2G7710
Scans to average: 3
Trigger mode: 4
Integration Time (sec): 2.000000E-2
Electric dark correction enabled: true
Boxcar width: 10
XAxis mode: Wavelengths
Number of Pixels in Spectrum: 2048
>>>>>Begin Spectral Data<<<<<
177.721	-134.19
178.105	41.02
178.488	13.46
178.871	82.44
179.254	38.4
179.636	-1.24
180.019	-32.12
180.402	74.55
180.785	94.06
181.168	-98.47
181.55	-1429.41
181.933	149.26
182.316	141.05
182.698	157.57
183.081	179.26
183.463	350.43
183.846	1006.88
184.228	-832.48
184.611	-694.52
184.993	-201.37
185.376	-96.55
185.758	-91.77
186.14	-201.44
186.522	-150.56
186.904	-154.53
187.287	-218.74
187.669	-95.52
188.051	-83.29
188.433	-79.08
188.815	-48.2
189.197	-60.17
189.579	-62.18
189.961	-47.86
190.342	-25.68
190.724	1.43
191.106	5.22
191.488	-15.56
191.869	3.61
192.251	-3.22
192.633	-10.98
193.014	-8.84
193.396	-44.67
193.777	-42.05
194.159	-42.15
194.54	-44.27
194.922	-23.65
195.303	-26.93
195.684	-25.28
196.065	-18.43
196.447	-15.73
196.828	-21.43
197.209	-19.46
197.59	-14.42
197.971	-28.17
198.352	-21.07
198.733	-26.72
199.114	-29.76
199.495	-15.01
199.876	-20.52
200.257	-22.9
200.638	-14.37
201.018	-11.64
201.399	1.47
201.78	7.1
202.16	10.2
202.541	-0.05
202.922	-13.43
203.302	-21.04
203.683	-27.73
204.063	-27.88
204.444	-12.12
204.824	-24.26
205.204	-12.42
205.585	-9.97
205.965	3.89
206.345	-8.22
206.725	-35.78
207.106	-28.06
207.486	-39.1
207.866	-48.88
208.246	-49.73
208.626	-72.2
209.006	-55.1
209.386	-62.28
209.766	-64.79
210.145	-44.83
210.525	-27.23
210.905	-9.15
211.285	-4.39
211.664	-5.8
212.044	-2.32
212.424	-18.24
212.803	-21.26
213.183	-35.2
213.562	-30.53
213.942	-41.43
214.321	-31.3
214.701	-19.04
215.08	-36.94
215.459	-48.62
215.838	-37.95
216.218	-40.98
216.597	-28.82
216.976	-21.92
217.355	-10.08
217.734	-16.39
218.113	-30.15
218.492	-32.11
218.871	-48.03
219.25	-20.58
219.629	-19.37
220.008	-27.15
220.387	-25.16
220.766	-14.66
221.144	-20.7
221.523	-29.86
221.902	-25.16
222.28	-36.84
222.659	-24.11
223.037	-7.97
223.416	-7.5
223.794	-17.77
224.173	-2.37
224.551	2.43
224.929	-1.57
225.308	0.54
225.686	2.88
226.064	3.08
226.442	5.3
226.821	7.83
227.199	6.53
227.577	6.28
227.955	6.95
228.333	7.67
228.711	9.95
229.089	14.41
229.467	12.94
229.845	12.35
230.222	13
230.6	10.29
230.978	8.55
231.356	12.19
231.733	12.92
232.111	10.3
232.488	10.11
232.866	11.11
233.243	10.7
233.621	8.9
233.998	9.08
234.376	8.43
234.753	6.78
235.13	6.62
235.508	7.15
235.885	6.9
236.262	5.37
236.639	3.35
237.016	0.57
237.393	2.06
237.77	2.31
238.147	2.37
238.524	3.35
238.901	4.04
239.278	3.24
239.655	3.42
240.032	3.41
240.409	3.3
240.785	3.23
241.162	3.49
241.539	3.68
241.915	3.92
242.292	3.54
242.668	3.44
243.045	3.63
243.421	3.56
243.798	3.31
244.174	3.68
244.551	4.08
244.927	4.37
245.303	4.29
245.679	4.59
246.056	4.59
246.432	4.17
246.808	4.21
247.184	3.93
247.56	3.88
247.936	3.94
248.312	3.89
248.688	3.82
249.064	3.55
249.44	3.84
249.815	3.82
250.191	4.23
250.567	4.44
250.943	4.31
251.318	4.53
251.694	4.88
252.069	4.9
252.445	4.79
252.82	4.81
253.196	4.83
253.571	4.34
253.947	4.54
254.322	5.12
254.697	5.03
255.073	4.84
255.448	4.8
255.823	4.85
256.198	5.02
256.573	4.91
256.948	5.21
257.323	5.23
257.698	5.25
258.073	5.01
258.448	4.99
258.823	4.87
259.198	4.65
259.573	4.58
259.948	4.55
260.322	4.75
260.697	4.65
261.072	4.51
261.446	4.7
261.821	4.44
262.195	4.42
262.57	4.55
262.944	4.67
263.319	4.54
263.693	4.63
264.067	4.6
264.442	4.58
264.816	4.59
265.19	4.53
265.564	4.42
265.938	4.45
266.313	4.33
266.687	4.48
267.061	4.66
267.435	4.57
267.809	4.57
268.183	4.36
268.556	4.41
268.93	4.56
269.304	4.63
269.678	4.87
270.051	4.81
270.425	4.75
270.799	4.71
271.172	4.84
271.546	4.71
271.919	4.61
272.293	4.79
272.666	4.68
273.04	4.6
273.413	4.76
273.787	4.63
274.16	4.55
274.533	4.73
274.906	4.64
275.279	4.62
275.653	4.65
276.026	4.54
276.399	4.56
276.772	4.65
277.145	4.53
277.518	4.45
277.891	4.53
278.263	4.46
278.636	4.44
279.009	4.43
279.382	4.59
279.755	4.62
280.127	4.65
280.5	4.73
280.872	4.82
281.245	4.62
281.617	4.79
281.99	5.04
282.362	4.83
282.735	4.77
283.107	4.86
283.479	4.86
283.852	4.88
284.224	4.77
284.596	4.69
284.968	4.74
285.34	4.79
285.713	4.67
286.085	4.73
286.457	4.78
286.829	4.76
287.201	4.71
287.572	4.64
287.944	4.63
288.316	4.67
288.688	4.49
289.06	4.55
289.431	4.6
289.803	4.57
290.175	4.7
290.546	4.83
290.918	4.79
291.289	4.8
291.661	4.9
292.032	5.03
292.403	5.01
292.775	4.98
293.146	4.91
293.517	5.03
293.889	5
294.26	4.98
294.631	4.98
295.002	4.97
295.373	5.07
295.744	4.99
296.115	4.98
296.486	4.99
296.857	4.96
297.228	4.98
297.599	4.94
297.97	4.88
298.34	4.91
298.711	5
299.082	4.97
299.452	4.9
299.823	4.96
300.194	5.01
300.564	4.99
300.935	5.13
301.305	4.96
301.676	5.14
302.046	5.19
302.416	5.34
302.787	5.38
303.157	5.46
303.527	5.5
303.897	5.46
304.267	5.6
304.637	5.68
305.008	5.58
305.378	5.6
305.748	5.58
306.117	5.43
306.487	5.29
306.857	5.29
307.227	5.34
307.597	5.5
307.967	5.5
308.336	5.43
308.706	5.42
309.076	5.6
309.445	5.39
309.815	5.28
310.184	5.27
310.554	5.25
310.923	5.06
311.293	5
311.662	5.06
312.031	4.96
312.401	4.92
312.77	5
313.139	5.12
313.508	5.29
313.877	5.32
314.246	5.38
314.616	5.36
314.985	5.33
315.353	4.99
315.722	4.98
316.091	4.94
316.46	4.74
316.829	4.67
317.198	4.69
317.567	4.9
317.935	4.83
318.304	4.86
318.672	4.89
319.041	5.08
319.41	4.97
319.778	5.1
320.147	5.16
320.515	5.13
320.883	4.92
321.252	4.83
321.62	4.79
321.988	4.86
322.357	4.93
322.725	5.1
323.093	5.18
323.461	5.27
323.829	5.43
324.197	5.5
324.565	5.48
324.933	5.48
325.301	5.25
325.669	5.34
326.037	5.15
326.405	5.14
326.772	5.11
327.14	5.3
327.508	5.38
327.875	5.19
328.243	5.12
328.61	5.21
328.978	5.2
329.346	5.25
329.713	5.13
330.08	5.21
330.448	5.12
330.815	5.18
331.182	5.12
331.55	5.07
331.917	5.17
332.284	5.29
332.651	5.33
333.018	5.41
333.385	5.37
333.752	5.55
334.119	5.72
334.486	5.61
334.853	5.51
335.22	5.37
335.587	5.57
335.954	5.69
336.32	5.67
336.687	5.57
337.054	5.53
337.42	5.53
337.787	5.49
338.153	5.37
338.52	5.39
338.886	5.34
339.253	5.36
339.619	5.29
339.986	5.2
340.352	5.26
340.718	5.3
341.084	5.13
341.451	5.2
341.817	5.18
342.183	5.21
342.549	5.22
342.915	5.26
343.281	5.24
343.647	5.08
344.013	5.03
344.379	5.05
344.745	5.15
345.11	5.07
345.476	5.11
345.842	5.17
346.208	5.16
346.573	5.2
346.939	5.28
347.304	5.26
347.67	5.25
348.035	5.14
348.401	5.12
348.766	5.23
349.132	5.12
349.497	5.07
349.862	5.21
350.228	5.13
350.593	4.98
350.958	4.94
351.323	5.05
351.688	5.11
352.053	5.15
352.418	5.16
352.783	5.19
353.148	5.16
353.513	5.23
353.878	5.21
354.243	5.26
354.608	5.16
354.972	5.23
355.337	5.31
355.702	5.39
356.066	5.43
356.431	5.42
356.795	5.49
357.16	5.41
357.524	5.31
357.889	5.3
358.253	5.46
358.618	5.53
358.982	5.48
359.346	5.44
359.71	5.4
360.075	5.36
360.439	5.41
360.803	5.4
361.167	5.32
361.531	5.28
361.895	5.26
362.259	5.21
362.623	5.18
362.987	5.15
363.351	5.1
363.714	5.15
364.078	5.15
364.442	5.05
364.806	5.12
365.169	5.13
365.533	5.17
365.896	5.13
366.26	5.08
366.623	5.06
366.987	5.04
367.35	5.06
367.714	5.06
368.077	5.06
368.44	5.04
368.803	5.02
369.167	5.02
369.53	4.93
369.893	4.95
370.256	4.99
370.619	4.96
370.982	4.92
371.345	4.84
371.708	4.82
372.071	4.87
372.434	4.85
372.797	4.79
373.159	4.78
373.522	4.79
373.885	4.86
374.247	4.89
374.61	4.88
374.973	4.84
375.335	4.82
375.698	4.87
376.06	4.83
376.423	4.85
376.785	4.92
377.147	4.97
377.51	5.02
377.872	5.06
378.234	5.11
378.596	5.18
378.958	5.17
379.321	5.18
379.683	5.22
380.045	5.22
380.407	5.25
380.769	5.27
381.13	5.28
381.492	5.22
381.854	5.23
382.216	5.23
382.578	5.26
382.939	5.25
383.301	5.25
383.663	5.24
384.024	5.21
384.386	5.25
384.747	5.25
385.109	5.28
385.47	5.25
385.832	5.19
386.193	5.2
386.554	5.22
386.916	5.24
387.277	5.23
387.638	5.25
387.999	5.26
388.36	5.25
388.721	5.25
389.082	5.26
389.443	5.27
389.804	5.3
390.165	5.27
390.526	5.32
390.887	5.28
391.248	5.34
391.609	5.37
391.969	5.34
392.33	5.36
392.691	5.32
393.051	5.29
393.412	5.35
393.772	5.33
394.133	5.36
394.493	5.34
394.854	5.29
395.214	5.27
395.574	5.31
395.935	5.29
396.295	5.3
396.655	5.27
397.015	5.27
397.376	5.28
397.736	5.32
398.096	5.3
398.456	5.32
398.816	5.31
399.176	5.26
399.535	5.28
399.895	5.27
400.255	5.3
400.615	5.3
400.975	5.23
401.334	5.23
401.694	5.2
402.054	5.22
402.413	5.28
402.773	5.26
403.132	5.22
403.492	5.25
403.851	5.23
404.211	5.26
404.57	5.24
404.929	5.23
405.288	5.23
405.648	5.21
406.007	5.2
406.366	5.21
406.725	5.27
407.084	5.26
407.443	5.27
407.802	5.28
408.161	5.28
408.52	5.31
408.879	5.28
409.238	5.25
409.596	5.22
409.955	5.21
410.314	5.25
410.673	5.26
411.031	5.27
411.39	5.29
411.748	5.27
412.107	5.27
412.465	5.26
412.824	5.28
413.182	5.25
413.54	5.25
413.899	5.28
414.257	5.25
414.615	5.23
414.974	5.22
415.332	5.21
415.69	5.21
416.048	5.2
416.406	5.21
416.764	5.22
417.122	5.25
417.48	5.23
417.838	5.23
418.195	5.23
418.553	5.21
418.911	5.21
419.269	5.21
419.626	5.22
419.984	5.24
420.342	5.23
420.699	5.26
421.057	5.26
421.414	5.23
421.772	5.24
422.129	5.25
422.486	5.24
422.844	5.25
423.201	5.24
423.558	5.25
423.915	5.27
424.273	5.29
424.63	5.28
424.987	5.29
425.344	5.3
425.701	5.28
426.058	5.29
426.415	5.3
426.772	5.3
427.128	5.29
427.485	5.27
427.842	5.26
428.199	5.26
428.555	5.24
428.912	5.26
429.269	5.24
429.625	5.23
429.982	5.24
430.338	5.22
430.695	5.25
431.051	5.23
431.407	5.22
431.764	5.18
432.12	5.18
432.476	5.17
432.832	5.15
433.189	5.16
433.545	5.15
433.901	5.14
434.257	5.15
434.613	5.17
434.969	5.16
435.325	5.15
435.681	5.14
436.036	5.14
436.392	5.14
436.748	5.15
437.104	5.14
437.459	5.14
437.815	5.15
438.171	5.15
438.526	5.14
438.882	5.15
439.237	5.17
439.593	5.15
439.948	5.15
440.304	5.17
440.659	5.17
441.014	5.19
441.369	5.17
441.725	5.17
442.08	5.16
442.435	5.18
442.79	5.2
443.145	5.22
443.5	5.22
443.855	5.21
444.21	5.21
444.565	5.21
444.92	5.21
445.275	5.2
445.629	5.19
445.984	5.2
446.339	5.18
446.693	5.18
447.048	5.18
447.403	5.17
447.757	5.19
448.112	5.2
448.466	5.17
448.82	5.17
449.175	5.18
449.529	5.17
449.883	5.15
450.238	5.13
450.592	5.14
450.946	5.13
451.3	5.15
451.654	5.15
452.008	5.14
452.362	5.14
452.716	5.15
453.07	5.17
453.424	5.16
453.778	5.17
454.132	5.16
454.486	5.17
454.839	5.18
455.193	5.14
455.547	5.13
455.9	5.15
456.254	5.17
456.607	5.16
456.961	5.16
457.314	5.17
457.668	5.17
458.021	5.14
458.375	5.16
458.728	5.17
459.081	5.16
459.434	5.17
459.787	5.16
460.141	5.14
460.494	5.14
460.847	5.14
461.2	5.12
461.553	5.12
461.906	5.12
462.259	5.12
462.611	5.15
462.964	5.15
463.317	5.14
463.67	5.14
464.022	5.15
464.375	5.14
464.728	5.15
465.08	5.16
465.433	5.17
465.785	5.17
466.138	5.15
466.49	5.18
466.843	5.19
467.195	5.18
467.547	5.21
467.899	5.22
468.252	5.23
468.604	5.26
468.956	5.29
469.308	5.28
469.66	5.28
470.012	5.26
470.364	5.26
470.716	5.26
471.068	5.25
471.42	5.24
471.772	5.26
472.123	5.25
472.475	5.23
472.827	5.25
473.178	5.22
473.53	5.23
473.882	5.23
474.233	5.23
474.585	5.23
474.936	5.2
475.288	5.18
475.639	5.19
475.99	5.2
476.342	5.18
476.693	5.18
477.044	5.19
477.395	5.19
477.746	5.19
478.097	5.19
478.448	5.19
478.8	5.2
479.15	5.2
479.501	5.2
479.852	5.23
480.203	5.24
480.554	5.26
480.905	5.27
481.255	5.28
481.606	5.28
481.957	5.29
482.307	5.31
482.658	5.33
483.009	5.34
483.359	5.34
483.709	5.35
484.06	5.36
484.41	5.37
484.761	5.38
485.111	5.38
485.461	5.39
485.811	5.4
486.162	5.4
486.512	5.41
486.862	5.42
487.212	5.42
487.562	5.43
487.912	5.42
488.262	5.42
488.612	5.42
488.961	5.42
489.311	5.42
489.661	5.42
490.011	5.41
490.36	5.4
490.71	5.41
491.06	5.4
491.409	5.4
491.759	5.4
492.108	5.39
492.458	5.38
492.807	5.36
493.157	5.36
493.506	5.34
493.855	5.33
494.204	5.33
494.554	5.35
494.903	5.33
495.252	5.34
495.601	5.36
495.95	5.36
496.299	5.36
496.648	5.37
496.997	5.38
497.346	5.39
497.695	5.42
498.043	5.4
498.392	5.39
498.741	5.4
499.09	5.38
499.438	5.41
499.787	5.42
500.135	5.45
500.484	5.45
500.832	5.46
501.181	5.47
501.529	5.46
501.878	5.46
502.226	5.46
502.574	5.43
502.923	5.41
503.271	5.41
503.619	5.42
503.967	5.44
504.315	5.42
504.663	5.41
505.011	5.41
505.359	5.41
505.707	5.41
506.055	5.42
506.403	5.46
506.751	5.43
507.098	5.45
507.446	5.46
507.794	5.47
508.141	5.47
508.489	5.48
508.837	5.48
509.184	5.47
509.531	5.48
509.879	5.5
510.226	5.51
510.574	5.51
510.921	5.5
511.268	5.49
511.616	5.5
511.963	5.5
512.31	5.48
512.657	5.5
513.004	5.54
513.351	5.55
513.698	5.55
514.045	5.58
514.392	5.6
514.739	5.59
515.086	5.59
515.432	5.6
515.779	5.57
516.126	5.62
516.473	5.63
516.819	5.64
517.166	5.64
517.512	5.67
517.859	5.67
518.205	5.69
518.552	5.7
518.898	5.71
519.245	5.75
519.591	5.74
519.937	5.74
520.283	5.72
520.629	5.71
520.976	5.72
521.322	5.72
521.668	5.7
522.014	5.72
522.36	5.72
522.706	5.72
523.052	5.77
523.398	5.76
523.743	5.76
524.089	5.76
524.435	5.77
524.781	5.78
525.126	5.77
525.472	5.77
525.817	5.77
526.163	5.77
526.509	5.76
526.854	5.78
527.199	5.78
527.545	5.78
527.89	5.8
528.235	5.79
528.581	5.8
528.926	5.8
529.271	5.79
529.616	5.79
529.961	5.79
530.306	5.8
530.651	5.8
530.996	5.81
531.341	5.82
531.686	5.81
532.031	5.81
532.376	5.83
532.721	5.84
533.065	5.83
533.41	5.84
533.755	5.84
534.099	5.84
534.444	5.84
534.788	5.86
535.133	5.86
535.477	5.86
535.822	5.85
536.166	5.85
536.51	5.86
536.855	5.87
537.199	5.87
537.543	5.86
537.887	5.85
538.231	5.84
538.576	5.84
538.92	5.85
539.264	5.84
539.608	5.83
539.951	5.82
540.295	5.83
540.639	5.84
540.983	5.84
541.327	5.85
541.671	5.84
542.014	5.85
542.358	5.85
542.701	5.85
543.045	5.87
543.389	5.87
543.732	5.87
544.075	5.88
544.419	5.89
544.762	5.89
545.105	5.89
545.449	5.9
545.792	5.92
546.135	5.93
546.478	5.94
546.821	5.94
547.165	5.96
547.508	5.97
547.851	5.97
548.194	5.97
548.536	5.95
548.879	5.98
549.222	5.94
549.565	5.93
549.908	5.94
550.25	5.94
550.593	5.93
550.936	5.93
551.278	5.93
551.621	5.95
551.963	5.96
552.306	5.96
552.648	5.95
552.991	5.95
553.333	5.92
553.675	5.9
554.017	5.95
554.36	5.95
554.702	5.96
555.044	5.94
555.386	5.93
555.728	5.96
556.07	5.99
556.412	6
556.754	6.01
557.096	6
557.438	5.99
557.78	6
558.121	6.01
558.463	6.02
558.805	6.01
559.147	5.99
559.488	6.01
559.83	6.04
560.171	6.02
560.513	6.05
560.854	6.03
561.196	6.01
561.537	5.98
561.878	5.96
562.22	5.98
562.561	6
562.902	5.98
563.243	5.93
563.584	5.94
563.925	5.96
564.266	5.92
564.607	5.91
564.948	5.92
565.289	5.91
565.63	5.93
565.971	5.9
566.312	5.92
566.653	5.93
566.993	5.9
567.334	5.94
567.675	5.94
568.015	5.96
568.356	5.96
568.696	6
569.037	6.01
569.377	6.02
569.718	6.04
570.058	6.06
570.398	6.04
570.739	6.05
571.079	6.02
571.419	6.07
571.759	6.07
572.099	6.08
572.439	6.08
572.779	6.06
573.119	6.12
573.459	6.13
573.799	6.14
574.139	6.15
574.479	6.15
574.819	6.15
575.158	6.15
575.498	6.14
575.838	6.16
576.177	6.14
576.517	6.14
576.856	6.13
577.196	6.11
577.535	6.15
577.875	6.16
578.214	6.19
578.553	6.2
578.893	6.23
579.232	6.23
579.571	6.23
579.91	6.23
580.25	6.2
580.589	6.18
580.928	6.16
581.267	6.17
581.606	6.18
581.945	6.16
582.283	6.17
582.622	6.19
582.961	6.15
583.3	6.17
583.639	6.19
583.977	6.22
584.316	6.23
584.654	6.23
584.993	6.19
585.332	6.18
585.67	6.17
586.008	6.15
586.347	6.12
586.685	6.09
587.024	6.11
587.362	6.1
587.7	6.11
588.038	6.1
588.376	6.07
588.715	6.03
589.053	6.08
589.391	6.05
589.729	6.05
590.067	6.02
590.404	6.05
590.742	6.04
591.08	5.97
591.418	5.96
591.756	5.95
592.093	5.98
592.431	5.98
592.769	6
593.106	6.04
593.444	6.04
593.781	6.08
594.119	6.08
594.456	6.13
594.793	6.15
595.131	6.16
595.468	6.19
595.805	6.25
596.143	6.22
596.48	6.24
596.817	6.25
597.154	6.27
597.491	6.27
597.828	6.27
598.165	6.33
598.502	6.36
598.839	6.38
599.176	6.39
599.512	6.4
599.849	6.42
600.186	6.39
600.523	6.43
600.859	6.44
601.196	6.45
601.532	6.44
601.869	6.39
602.205	6.36
602.542	6.37
602.878	6.32
603.215	6.33
603.551	6.34
603.887	6.35
604.223	6.36
604.56	6.34
604.896	6.35
605.232	6.32
605.568	6.32
605.904	6.33
606.24	6.31
606.576	6.32
606.912	6.31
607.248	6.33
607.583	6.35
607.919	6.33
608.255	6.3
608.591	6.33
608.926	6.35
609.262	6.42
609.597	6.43
609.933	6.47
610.268	6.47
610.604	6.47
610.939	6.44
611.275	6.49
611.61	6.51
611.945	6.55
612.281	6.55
612.616	6.61
612.951	6.6
613.286	6.63
613.621	6.63
613.956	6.67
614.291	6.72
614.626	6.72
614.961	6.72
615.296	6.74
615.631	6.73
615.966	6.74
616.3	6.67
616.635	6.65
616.97	6.63
617.304	6.63
617.639	6.61
617.973	6.64
618.308	6.6
618.642	6.63
618.977	6.57
619.311	6.59
619.646	6.56
619.98	6.54
620.314	6.59
620.648	6.6
620.983	6.55
621.317	6.53
621.651	6.48
621.985	6.48
622.319	6.49
622.653	6.4
622.987	6.41
623.321	6.44
623.655	6.45
623.988	6.49
624.322	6.5
624.656	6.55
624.99	6.57
625.323	6.53
625.657	6.52
625.99	6.55
626.324	6.55
626.657	6.52
626.991	6.56
627.324	6.55
627.658	6.55
627.991	6.57
628.324	6.53
628.657	6.54
628.991	6.53
629.324	6.52
629.657	6.6
629.99	6.61
630.323	6.62
630.656	6.61
630.989	6.59
631.322	6.63
631.655	6.64
631.987	6.62
632.32	6.64
632.653	6.61
632.986	6.6
633.318	6.61
633.651	6.64
633.984	6.6
634.316	6.54
634.649	6.51
634.981	6.49
635.313	6.54
635.646	6.6
635.978	6.62
636.31	6.66
636.643	6.63
636.975	6.59
637.307	6.62
637.639	6.65
637.971	6.64
638.303	6.65
638.635	6.56
638.967	6.59
639.299	6.62
639.631	6.65
639.963	6.65
640.295	6.65
640.626	6.69
640.958	6.71
641.29	6.75
641.621	6.73
641.953	6.7
642.285	6.74
642.616	6.7
642.948	6.77
643.279	6.76
643.61	6.81
643.942	6.86
644.273	6.81
644.604	6.85
644.936	6.83
645.267	6.82
645.598	6.89
645.929	6.9
646.26	6.88
646.591	6.88
646.922	6.86
647.253	6.92
647.584	6.86
647.915	6.86
648.245	6.87
648.576	6.89
648.907	6.97
649.238	6.84
649.568	6.82
649.899	6.72
650.229	6.74
650.56	6.71
650.89	6.68
651.221	6.73
651.551	6.66
651.882	6.66
652.212	6.65
652.542	6.63
652.872	6.53
653.203	6.56
653.533	6.6
653.863	6.65
654.193	6.58
654.523	6.65
654.853	6.69
655.183	6.66
655.513	6.65
655.843	6.63
656.172	6.68
656.502	6.69
656.832	6.8
657.162	6.81
657.491	6.77
657.821	6.83
658.15	6.84
658.48	6.86
658.809	6.87
659.139	6.83
659.468	6.85
659.798	6.9
660.127	6.92
660.456	6.89
660.785	6.86
661.115	6.87
661.444	6.82
661.773	6.78
662.102	6.79
662.431	6.81
662.76	6.83
663.089	6.82
663.418	6.77
663.747	6.65
664.076	6.67
664.404	6.69
664.733	6.68
665.062	6.71
665.39	6.69
665.719	6.64
666.048	6.74
666.376	6.73
666.705	6.72
667.033	6.67
667.362	6.71
667.69	6.68
668.018	6.75
668.347	6.74
668.675	6.76
669.003	6.81
669.331	6.84
669.659	6.78
669.987	6.77
670.315	6.84
670.643	6.97
670.971	7.01
671.299	7.11
671.627	7.1
671.955	7.1
672.283	7.05
672.61	7.13
672.938	7.05
673.266	7.1
673.593	7.13
673.921	7.13
674.249	7.1
674.576	7.05
674.904	6.96
675.231	6.93
675.558	7.01
675.886	6.95
676.213	6.98
676.54	7.09
676.867	7.15
677.195	6.97
677.522	6.89
677.849	6.84
678.176	6.77
678.503	6.73
678.83	6.7
679.157	6.71
679.484	6.7
679.81	6.75
680.137	6.63
680.464	6.6
680.791	6.63
681.117	6.63
681.444	6.73
681.771	6.71
682.097	6.8
682.424	6.7
682.75	6.72
683.077	6.67
683.403	6.59
683.729	6.58
684.056	6.78
684.382	6.85
684.708	6.78
685.034	6.8
685.36	6.85
685.686	6.85
686.012	6.9
686.339	6.95
686.664	6.93
686.99	7.02
687.316	7.05
687.642	7.04
687.968	7.06
688.294	7.1
688.619	7.21
688.945	7.18
689.271	7.2
689.596	7.14
689.922	7.13
690.247	7.06
690.573	7.1
690.898	7.15
691.224	7.06
691.549	7.09
691.874	7.14
692.2	7.17
692.525	7.11
692.85	7.19
693.175	7.16
693.5	7.17
693.825	7.16
694.15	7.14
694.475	7.12
694.8	7.14
695.125	7.14
695.45	7.1
695.775	7.13
696.099	7.19
696.424	7.24
696.749	7.25
697.073	7.33
697.398	7.34
697.723	7.27
698.047	7.31
698.372	7.34
698.696	7.29
699.02	7.19
699.345	7.19
699.669	7.17
699.993	7.1
700.318	7.07
700.642	7.2
700.966	7.22
701.29	7.32
701.614	7.27
701.938	7.19
702.262	7.19
702.586	7.23
702.91	7.21
703.234	7.18
703.557	7.19
703.881	7.15
704.205	7.07
704.529	7
704.852	6.97
705.176	7.03
705.499	7.13
705.823	7.21
706.146	7.44
706.47	7.52
706.793	7.52
707.117	7.62
707.44	7.47
707.763	7.46
708.086	7.33
708.409	7.38
708.733	7.45
709.056	7.48
709.379	7.54
709.702	7.51
710.025	7.61
710.348	7.62
710.671	7.72
710.993	7.83
711.316	7.96
711.639	8.07
711.962	8.09
712.284	8.09
712.607	8.17
712.93	8.11
713.252	7.97
713.575	8.02
713.897	7.97
714.22	8.1
714.542	8.15
714.864	8.17
715.187	8.16
715.509	8.11
715.831	8.11
716.153	8.02
716.475	8.02
716.798	8.12
717.12	8.07
717.442	8.14
717.764	7.99
718.085	7.97
718.407	7.94
718.729	7.93
719.051	7.95
719.373	7.85
719.695	7.78
720.016	7.88
720.338	8
720.659	7.97
720.981	7.79
721.302	7.81
721.624	7.74
721.945	7.62
722.267	7.77
722.588	7.72
722.909	7.7
723.231	7.66
723.552	7.48
723.873	7.67
724.194	7.65
724.515	7.81
724.836	7.77
725.157	7.75
725.478	7.66
725.799	7.63
726.12	7.63
726.441	7.63
726.762	7.57
727.083	7.51
727.403	7.56
727.724	7.81
728.045	7.78
728.365	7.89
728.686	7.93
729.006	7.9
729.327	7.92
729.647	7.85
729.967	7.95
730.288	8.03
730.608	7.95
730.928	8
731.249	7.83
731.569	8
731.889	7.95
732.209	7.96
732.529	7.78
732.849	7.79
733.169	7.66
733.489	7.71
733.809	7.69
734.129	7.64
734.448	7.52
734.768	7.61
735.088	7.79
735.408	7.83
735.727	7.88
736.047	7.91
736.366	8.07
736.686	8.15
737.005	8.17
737.325	8.2
737.644	8.07
737.963	8.13
738.283	7.94
738.602	7.84
738.921	7.85
739.24	7.95
739.56	7.94
739.879	8.25
740.198	8.22
740.517	8.15
740.836	8.23
741.155	8.22
741.473	8.03
741.792	7.93
742.111	7.94
742.43	7.95
742.748	7.81
743.067	7.71
743.386	7.77
743.704	7.65
744.023	7.58
744.341	7.57
744.66	7.87
744.978	7.8
745.297	8.1
745.615	8.18
745.933	8.14
746.252	8.36
746.57	8.26
746.888	8.28
747.206	8.45
747.524	8.4
747.842	8.45
748.16	8.56
748.478	8.66
748.796	8.76
749.114	8.78
749.432	8.89
749.749	8.92
750.067	8.82
750.385	8.99
750.703	9.19
751.02	9.35
751.338	9.1
751.655	9.03
751.973	9.13
752.29	9.14
752.608	9.38
752.925	9.14
753.242	9.05
753.56	8.92
753.877	8.98
754.194	9
754.511	9.13
754.828	9.17
755.145	8.91
755.462	8.91
755.779	8.85
756.096	8.86
756.413	8.83
756.73	8.8
757.047	8.59
757.364	8.75
757.68	8.26
757.997	8.23
758.314	8.34
758.63	8.01
758.947	8.08
759.264	7.77
759.58	7.75
759.896	7.66
760.213	7.8
760.529	7.85
760.846	7.85
761.162	7.52
761.478	7.56
761.794	7.34
762.11	7.44
762.426	7.44
762.743	7.69
763.059	7.71
763.375	7.75
763.69	7.94
764.006	7.76
764.322	8.02
764.638	8.29
764.954	8.36
765.27	8.47
765.585	8.33
765.901	8.5
766.216	8.64
766.532	8.83
766.848	8.8
767.163	8.61
767.478	8.65
767.794	8.73
768.109	8.77
768.424	9.02
768.74	8.85
769.055	8.8
769.37	8.53
769.685	8.5
770	8.6
770.315	8.44
770.63	8.25
770.945	8.45
771.26	8.5
771.575	8.36
771.89	8.47
772.205	8.34
772.52	8.54
772.834	8.15
773.149	7.92
773.464	8.05
773.778	8.35
774.093	8.12
774.407	8.31
774.722	8.18
775.036	8.29
775.351	8.65
775.665	8.63
775.979	8.6
776.293	8.59
776.608	8.56
776.922	8.67
777.236	8.97
777.55	8.72
777.864	8.54
778.178	8.87
778.492	8.76
778.806	8.85
779.12	8.82
779.434	9.03
779.747	8.84
780.061	8.61
780.375	8.33
780.689	8.75
781.002	9.16
781.316	9.23
781.629	9.5
781.943	9.52
782.256	9.58
782.57	9.62
782.883	9.47
783.196	9
783.51	8.88
783.823	9.01
784.136	9.25
784.449	9.2
784.762	9.22
785.075	8.87
785.388	9.29
785.701	9.28
786.014	9.33
786.327	9.84
786.64	10.41
786.953	10.67
787.266	10.35
787.578	9.74
787.891	9.79
788.204	9.32
788.516	9.33
788.829	9.69
789.141	10.33
789.454	10.71
789.766	11.28
790.079	11.61
790.391	11.64
790.703	11.75
791.016	11.77
791.328	11.81
791.64	12.42
791.952	12.49
792.264	12.24
792.576	12.43
792.888	12.31
793.2	12.32
793.512	12.23
793.824	12.34
794.136	12.79
794.448	12.56
794.76	13.02
795.071	12.91
795.383	12.23
795.695	11.57
796.006	11.9
796.318	11.45
796.629	11.18
796.941	11.09
797.252	10.8
797.564	10.94
797.875	10.88
798.186	10.35
798.497	10.36
798.809	10.49
799.12	10.51
799.431	10.39
799.742	9.96
800.053	10.3
800.364	10.27
800.675	9.8
800.986	9.68
801.297	9.4
801.608	9.12
801.918	9.61
802.229	9.69
802.54	8.7
802.851	9.08
803.161	9.01
803.472	8.74
803.782	9.48
804.093	9.49
804.403	9.58
804.714	9.97
805.024	9.46
805.334	9.51
805.645	9.41
805.955	9.64
806.265	10.02
806.575	9.49
806.885	9.95
807.195	10.42
807.505	10.59
807.815	10.59
808.125	10.62
808.435	10.71
808.745	10.46
809.055	11.57
809.365	11.18
809.674	11.12
809.984	11.48
810.294	10.71
810.603	10.25
810.913	10.38
811.222	10.61
811.532	11.38
811.841	11.75
812.151	12.35
812.46	12.65
812.769	11.93
813.079	12.25
813.388	12.1
813.697	12.62
814.006	12.47
814.315	12.52
814.624	12.54
814.933	12.73
815.242	13.11
815.551	12.75
815.86	13.86
816.169	13.53
816.478	12.9
816.786	13.33
817.095	13.9
817.404	13.6
817.712	13.3
818.021	12.83
818.33	12.8
818.638	12.5
818.947	11.97
819.255	12.27
819.563	12.19
819.872	11.83
820.18	11.72
820.488	11.71
820.796	11.61
821.105	11.66
821.413	11.43
821.721	11.27
822.029	11.23
822.337	10.9
822.645	11.02
822.953	11.01
823.26	11.02
823.568	10.84
823.876	10.75
824.184	10.72
824.491	10.57
824.799	10.41
825.107	10.25
825.414	10.34
825.722	10.37
826.029	10.35
826.337	10.48
826.644	10.43
826.951	10.44
827.259	10.52
827.566	10.38
827.873	10.5
828.18	10.39
828.488	10.4
828.795	10.51
829.102	10.69
829.409	10.93
829.716	10.53
830.023	10.79
830.329	11.03
830.636	11.26
830.943	11.55
831.25	11.8
831.557	12.07
831.863	11.77
832.17	11.76
832.476	11.76
832.783	11.72
833.089	11.67
833.396	11.86
833.702	12.11
834.009	12.14
834.315	12.22
834.621	12.64
834.928	12.55
835.234	12.44
835.54	11.85
835.846	11.79
836.152	12.07
836.458	12.45
836.764	12.2
837.07	11.96
837.376	11.75
837.682	11.64
837.988	12.01
838.293	12.38
838.599	12.56
838.905	12.45
839.211	12.25
839.516	12.19
839.822	12.42
840.127	12.34
840.433	13.27
840.738	13.73
841.044	13.37
841.349	14.37
841.654	14.57
841.959	15.63
842.265	15.49
842.57	15.44
842.875	14.5
843.18	14.6
843.485	14.5
843.79	15.79
844.095	15.29
844.4	14.23
844.705	13.37
845.01	13.05
845.315	12.61
845.619	13.28
845.924	13.44
846.229	13.22
846.533	14
846.838	12.18
847.142	11.01
847.447	10.62
847.751	8.83
848.056	7.91
848.36	7.65
848.664	8.22
848.969	8.85
849.273	8.24
849.577	8.61
849.881	8.51
850.185	8.7
850.489	10.1
850.794	9.55
851.097	9.88
851.401	9.92
851.705	10.66
852.009	10.89
852.313	11.48
852.617	11.76
852.92	11.17
853.224	14.25
853.528	13.91
853.831	14.55
854.135	13.95
854.438	15.07
854.742	13.93
855.045	11.34
855.349	10.94
855.652	11.74
855.955	11.52
856.259	9.98
856.562	7.51
856.865	6.03
857.168	7.68
857.471	8.2
857.774	8.48
858.077	10.01
858.38	10.21
858.683	9.59
858.986	9.85
859.289	9.85
859.592	7.74
859.894	7.93
860.197	7.67
860.5	9.45
860.802	8.84
861.105	10.45
861.407	12.09
861.71	13.95
862.012	14.75
862.315	16.36
862.617	18.06
862.919	19.4
863.222	19.09
863.524	17.76
863.826	19.79
864.128	18.82
864.43	18.22
864.732	18.41
865.034	16.83
865.336	16.52
865.638	13.78
865.94	15.17
866.242	17.48
866.544	17.44
866.846	16.11
867.147	17.35
867.449	17.94
867.751	17.92
868.052	17.17
868.354	14.94
868.655	14.81
868.957	15.35
869.258	14.63
869.56	16.86
869.861	17.59
870.162	16.6
870.463	17.36
870.765	16.01
871.066	13.65
871.367	14.68
871.668	16.14
871.969	17.88
872.27	15.9
872.571	14.36
872.872	16.18
873.173	16.22
873.473	16.31
873.774	16.6
874.075	18.03
874.376	17.45
874.676	19.05
874.977	17.3
875.277	17.15
875.578	18.36
875.878	17.89
876.179	18.69
876.479	18.24
876.78	18.79
877.08	20.23
877.38	22.41
877.68	22.84
877.981	20.67
878.281	20.99
878.581	22.92
