Data from BA56814_Reflection_00006.txt Node
Date: Mon Nov 18 15:40:27 EST 2019
User: vgr7
Spectrometer: USB2G7710
Scans to average: 3
Trigger mode: 4
Integration Time (sec): 2.000000E-2
Electric dark correction enabled: true
Boxcar width: 10
XAxis mode: Wavelengths
Number of Pixels in Spectrum: 2048
>>>>>Begin Spectral Data<<<<<
177.721	80.79
178.105	75.87
178.488	143.66
178.871	107.64
179.254	92.76
179.636	40.53
180.019	-26.55
180.402	55.17
180.785	-424.27
181.168	14.45
181.55	260.86
181.933	157.29
182.316	226.96
182.698	234.24
183.081	161.7
183.463	287.34
183.846	329.4
184.228	203.06
184.611	141.38
184.993	224.88
185.376	166.1
185.758	290.09
186.14	213.15
186.522	209.32
186.904	188.91
187.287	166.99
187.669	189.95
188.051	157.19
188.433	215.32
188.815	301.72
189.197	326.87
189.579	214.68
189.961	200.93
190.342	160.25
190.724	151.59
191.106	195.34
191.488	145.32
191.869	146.09
192.251	139.52
192.633	173.14
193.014	195.57
193.396	268.32
193.777	440.71
194.159	677.1
194.54	1690.11
194.922	7083.61
195.303	1405.14
195.684	4448.62
196.065	-336.03
196.447	-307.2
196.828	-1366.24
197.209	-694.92
197.59	-333.51
197.971	-280.66
198.352	-194.9
198.733	-161.17
199.114	-110.83
199.495	-88.83
199.876	-125.56
200.257	-118.29
200.638	-99.71
201.018	-112.54
201.399	-159.07
201.78	-179.88
202.16	-266.92
202.541	-380.2
202.922	-425.7
203.302	-359.99
203.683	-353.67
204.063	-1125.93
204.444	-1443.77
204.824	-437.23
205.204	-333.2
205.585	-325.24
205.965	-353.46
206.345	-454.62
206.725	-852.58
207.106	-2883.24
207.486	824.31
207.866	-17378.26
208.246	-519.52
208.626	-633.23
209.006	-413.37
209.386	-382.1
209.766	-291.21
210.145	-286.46
210.525	-158.53
210.905	-118.33
211.285	-124.04
211.664	-73.89
212.044	-69.76
212.424	-66.17
212.803	-86.09
213.183	-92.02
213.562	-93.41
213.942	-73.84
214.321	-68.14
214.701	-57.44
215.08	-56.97
215.459	-42.72
215.838	-53.13
216.218	-67.33
216.597	-42.4
216.976	-49.79
217.355	-36.49
217.734	-39.28
218.113	-37.3
218.492	-40.28
218.871	-46.49
219.25	-46.91
219.629	-57.26
220.008	-52.43
220.387	-53.77
220.766	-54.42
221.144	-107.62
221.523	-132.54
221.902	-160.55
222.28	-157.39
222.659	-165.1
223.037	-148.1
223.416	-155.28
223.794	-136.64
224.173	-106.31
224.551	-86.48
224.929	-75.98
225.308	-62.31
225.686	-45.36
226.064	-39.89
226.442	-32.58
226.821	-25.19
227.199	-25.27
227.577	-25.55
227.955	-21.75
228.333	-19.55
228.711	-16.66
229.089	-6.24
229.467	-5.34
229.845	-5.1
230.222	-2.24
230.6	-2.22
230.978	-1.42
231.356	0.63
231.733	0.47
232.111	-0.51
232.488	-2.69
232.866	-1.11
233.243	-0.67
233.621	-2.21
233.998	-1.18
234.376	-0.55
234.753	-1.51
235.13	-0.24
235.508	-0.27
235.885	-0.43
236.262	-1.03
236.639	-1
237.016	-2.19
237.393	-1.37
237.77	-0.34
238.147	-0.43
238.524	-1.08
238.901	-0.37
239.278	0.01
239.655	0.79
240.032	1.68
240.409	1.55
240.785	1.48
241.162	1.76
241.539	2.35
241.915	1.99
242.292	1.62
242.668	1.86
243.045	1.9
243.421	2.05
243.798	2
244.174	2.03
244.551	2.22
244.927	2.49
245.303	2.58
245.679	2.83
246.056	3.03
246.432	3.17
246.808	3.02
247.184	2.74
247.56	2.49
247.936	2.42
248.312	2.52
248.688	2.63
249.064	2.56
249.44	2.37
249.815	2.38
250.191	2.53
250.567	2.68
250.943	2.74
251.318	2.9
251.694	2.84
252.069	2.98
252.445	2.83
252.82	2.32
253.196	2.27
253.571	2.02
253.947	2.04
254.322	1.9
254.697	1.78
255.073	1.78
255.448	1.85
255.823	1.96
256.198	2.23
256.573	2.39
256.948	2.41
257.323	2.65
257.698	2.88
258.073	2.86
258.448	2.7
258.823	2.83
259.198	2.74
259.573	2.71
259.948	2.68
260.322	2.83
260.697	3.03
261.072	3.05
261.446	3.31
261.821	3.25
262.195	3.42
262.57	3.49
262.944	3.53
263.319	3.69
263.693	3.7
264.067	3.66
264.442	3.67
264.816	3.65
265.19	3.64
265.564	3.52
265.938	3.5
266.313	3.47
266.687	3.43
267.061	3.41
267.435	3.64
267.809	3.68
268.183	3.56
268.556	3.56
268.93	3.56
269.304	3.35
269.678	3.4
270.051	3.48
270.425	3.63
270.799	3.84
271.172	3.84
271.546	3.65
271.919	3.62
272.293	3.49
272.666	3.66
273.04	3.69
273.413	3.83
273.787	3.84
274.16	3.8
274.533	3.66
274.906	3.7
275.279	3.61
275.653	3.62
276.026	3.67
276.399	3.47
276.772	3.46
277.145	3.46
277.518	3.45
277.891	3.23
278.263	3.03
278.636	2.91
279.009	2.68
279.382	2.94
279.755	3.03
280.127	3.08
280.5	3.11
280.872	3.26
281.245	3.09
281.617	3.13
281.99	3.39
282.362	3.48
282.735	3.52
283.107	3.47
283.479	3.51
283.852	3.43
284.224	3.64
284.596	3.6
284.968	3.62
285.34	3.57
285.713	3.62
286.085	3.66
286.457	3.78
286.829	3.85
287.201	3.88
287.572	3.85
287.944	3.86
288.316	3.79
288.688	3.57
289.06	3.68
289.431	3.74
289.803	3.57
290.175	3.63
290.546	3.59
290.918	3.63
291.289	3.6
291.661	3.62
292.032	3.54
292.403	3.61
292.775	3.63
293.146	3.57
293.517	3.58
293.889	3.62
294.26	3.48
294.631	3.55
295.002	3.46
295.373	3.4
295.744	3.43
296.115	3.4
296.486	3.43
296.857	3.45
297.228	3.41
297.599	3.38
297.97	3.38
298.34	3.36
298.711	3.35
299.082	3.35
299.452	3.39
299.823	3.47
300.194	3.5
300.564	3.38
300.935	3.6
301.305	3.49
301.676	3.58
302.046	3.69
302.416	3.89
302.787	3.87
303.157	3.81
303.527	3.68
303.897	3.58
304.267	3.65
304.637	3.58
305.008	3.58
305.378	3.76
305.748	3.66
306.117	3.68
306.487	3.77
306.857	3.75
307.227	3.85
307.597	3.85
307.967	3.86
308.336	3.96
308.706	3.83
309.076	3.91
309.445	3.79
309.815	3.7
310.184	3.48
310.554	3.51
310.923	3.71
311.293	3.81
311.662	3.98
312.031	3.86
312.401	3.86
312.77	3.93
313.139	3.9
313.508	4.04
313.877	4.06
314.246	4.08
314.616	4.11
314.985	4.04
315.353	3.97
315.722	3.96
316.091	4.01
316.46	4.03
316.829	4.14
317.198	4.23
317.567	4.16
317.935	4.25
318.304	4.29
318.672	4.24
319.041	4.38
319.41	4.39
319.778	4.49
320.147	4.41
320.515	4.31
320.883	4.34
321.252	4.4
321.62	4.35
321.988	4.18
322.357	4.1
322.725	4.11
323.093	4.19
323.461	4.27
323.829	4.3
324.197	4.36
324.565	4.48
324.933	4.32
325.301	4.54
325.669	4.46
326.037	4.4
326.405	4.28
326.772	4.22
327.14	4.28
327.508	4.28
327.875	4.23
328.243	4.26
328.61	4.23
328.978	4.1
329.346	4.28
329.713	4.38
330.08	4.47
330.448	4.36
330.815	4.26
331.182	4.19
331.55	4.22
331.917	4.25
332.284	4.23
332.651	4.41
333.018	4.32
333.385	4.39
333.752	4.52
334.119	4.54
334.486	4.47
334.853	4.4
335.22	4.43
335.587	4.59
335.954	4.46
336.32	4.52
336.687	4.57
337.054	4.53
337.42	4.57
337.787	4.61
338.153	4.82
338.52	4.84
338.886	4.71
339.253	4.59
339.619	4.48
339.986	4.5
340.352	4.52
340.718	4.48
341.084	4.5
341.451	4.56
341.817	4.57
342.183	4.57
342.549	4.64
342.915	4.68
343.281	4.68
343.647	4.84
344.013	4.75
344.379	4.8
344.745	4.78
345.11	4.7
345.476	4.62
345.842	4.53
346.208	4.58
346.573	4.79
346.939	4.88
347.304	4.99
347.67	4.9
348.035	4.86
348.401	4.98
348.766	5.04
349.132	4.93
349.497	4.9
349.862	5.01
350.228	4.96
350.593	4.97
350.958	5.07
351.323	5.1
351.688	5.13
352.053	5.09
352.418	5.11
352.783	5.15
353.148	5.16
353.513	5.15
353.878	5.23
354.243	5.18
354.608	5.15
354.972	5.14
355.337	5.18
355.702	5.29
356.066	5.3
356.431	5.26
356.795	5.35
357.16	5.41
357.524	5.28
357.889	5.26
358.253	5.26
358.618	5.18
358.982	5.14
359.346	5.17
359.71	5.13
360.075	5.18
360.439	5.21
360.803	5.27
361.167	5.23
361.531	5.13
361.895	5.13
362.259	5.14
362.623	5.12
362.987	5.16
363.351	5.08
363.714	5.05
364.078	4.98
364.442	4.88
364.806	4.87
365.169	4.95
365.533	4.97
365.896	4.97
366.26	4.95
366.623	5
366.987	5.05
367.35	5.04
367.714	5
368.077	4.97
368.44	4.87
368.803	4.94
369.167	4.94
369.53	4.91
369.893	4.92
370.256	4.9
370.619	4.91
370.982	4.9
371.345	4.85
371.708	4.92
372.071	4.94
372.434	4.9
372.797	4.89
373.159	4.83
373.522	4.84
373.885	4.87
374.247	4.86
374.61	4.8
374.973	4.76
375.335	4.72
375.698	4.74
376.06	4.75
376.423	4.73
376.785	4.82
377.147	4.88
377.51	4.87
377.872	4.89
378.234	4.87
378.596	4.91
378.958	4.9
379.321	4.91
379.683	4.96
380.045	5.01
380.407	4.97
380.769	5.01
381.13	4.99
381.492	4.98
381.854	4.94
382.216	4.93
382.578	4.98
382.939	5.02
383.301	4.99
383.663	5.02
384.024	5.02
384.386	5.03
384.747	5
385.109	5.02
385.47	4.98
385.832	4.97
386.193	4.95
386.554	4.94
386.916	4.94
387.277	4.89
387.638	4.92
387.999	4.91
388.36	4.92
388.721	4.95
389.082	4.97
389.443	4.96
389.804	5
390.165	4.98
390.526	4.98
390.887	5
391.248	4.98
391.609	4.99
391.969	4.97
392.33	4.93
392.691	4.9
393.051	4.92
393.412	4.88
393.772	4.89
394.133	4.9
394.493	4.87
394.854	4.89
395.214	4.84
395.574	4.86
395.935	4.83
396.295	4.81
396.655	4.77
397.015	4.77
397.376	4.74
397.736	4.73
398.096	4.73
398.456	4.75
398.816	4.77
399.176	4.77
399.535	4.74
399.895	4.78
400.255	4.79
400.615	4.78
400.975	4.82
401.334	4.83
401.694	4.85
402.054	4.83
402.413	4.82
402.773	4.83
403.132	4.84
403.492	4.84
403.851	4.87
404.211	4.91
404.57	4.91
404.929	4.91
405.288	4.91
405.648	4.9
406.007	4.89
406.366	4.87
406.725	4.87
407.084	4.85
407.443	4.85
407.802	4.84
408.161	4.83
408.52	4.79
408.879	4.75
409.238	4.75
409.596	4.78
409.955	4.76
410.314	4.76
410.673	4.72
411.031	4.73
411.39	4.69
411.748	4.67
412.107	4.69
412.465	4.69
412.824	4.69
413.182	4.7
413.54	4.69
413.899	4.7
414.257	4.71
414.615	4.72
414.974	4.72
415.332	4.69
415.69	4.69
416.048	4.69
416.406	4.69
416.764	4.67
417.122	4.68
417.48	4.7
417.838	4.71
418.195	4.73
418.553	4.72
418.911	4.72
419.269	4.73
419.626	4.73
419.984	4.72
420.342	4.73
420.699	4.73
421.057	4.75
421.414	4.73
421.772	4.72
422.129	4.73
422.486	4.72
422.844	4.73
423.201	4.74
423.558	4.74
423.915	4.75
424.273	4.74
424.63	4.74
424.987	4.74
425.344	4.73
425.701	4.73
426.058	4.75
426.415	4.74
426.772	4.73
427.128	4.72
427.485	4.73
427.842	4.73
428.199	4.74
428.555	4.71
428.912	4.73
429.269	4.74
429.625	4.72
429.982	4.71
430.338	4.72
430.695	4.71
431.051	4.72
431.407	4.72
431.764	4.73
432.12	4.7
432.476	4.69
432.832	4.69
433.189	4.69
433.545	4.67
433.901	4.67
434.257	4.67
434.613	4.68
434.969	4.68
435.325	4.67
435.681	4.64
436.036	4.66
436.392	4.66
436.748	4.66
437.104	4.66
437.459	4.67
437.815	4.66
438.171	4.66
438.526	4.67
438.882	4.68
439.237	4.69
439.593	4.74
439.948	4.74
440.304	4.74
440.659	4.75
441.014	4.76
441.369	4.75
441.725	4.74
442.08	4.74
442.435	4.72
442.79	4.71
443.145	4.73
443.5	4.71
443.855	4.7
444.21	4.7
444.565	4.71
444.92	4.71
445.275	4.7
445.629	4.71
445.984	4.69
446.339	4.67
446.693	4.64
447.048	4.61
447.403	4.6
447.757	4.6
448.112	4.57
448.466	4.57
448.82	4.58
449.175	4.59
449.529	4.56
449.883	4.56
450.238	4.56
450.592	4.55
450.946	4.52
451.3	4.51
451.654	4.49
452.008	4.48
452.362	4.46
452.716	4.46
453.07	4.45
453.424	4.46
453.778	4.47
454.132	4.48
454.486	4.48
454.839	4.5
455.193	4.47
455.547	4.49
455.9	4.49
456.254	4.49
456.607	4.48
456.961	4.51
457.314	4.52
457.668	4.52
458.021	4.51
458.375	4.54
458.728	4.55
459.081	4.55
459.434	4.55
459.787	4.57
460.141	4.59
460.494	4.6
460.847	4.6
461.2	4.6
461.553	4.62
461.906	4.63
462.259	4.64
462.611	4.66
462.964	4.67
463.317	4.65
463.67	4.66
464.022	4.66
464.375	4.67
464.728	4.68
465.08	4.68
465.433	4.69
465.785	4.67
466.138	4.67
466.49	4.67
466.843	4.67
467.195	4.66
467.547	4.65
467.899	4.65
468.252	4.64
468.604	4.65
468.956	4.64
469.308	4.64
469.66	4.62
470.012	4.63
470.364	4.64
470.716	4.64
471.068	4.65
471.42	4.64
471.772	4.64
472.123	4.64
472.475	4.64
472.827	4.67
473.178	4.72
473.53	4.72
473.882	4.75
474.233	4.75
474.585	4.75
474.936	4.73
475.288	4.73
475.639	4.75
475.99	4.76
476.342	4.75
476.693	4.75
477.044	4.77
477.395	4.76
477.746	4.74
478.097	4.75
478.448	4.76
478.8	4.79
479.15	4.78
479.501	4.78
479.852	4.8
480.203	4.79
480.554	4.79
480.905	4.8
481.255	4.82
481.606	4.83
481.957	4.84
482.307	4.85
482.658	4.86
483.009	4.86
483.359	4.86
483.709	4.86
484.06	4.87
484.41	4.87
484.761	4.88
485.111	4.89
485.461	4.89
485.811	4.89
486.162	4.89
486.512	4.9
486.862	4.91
487.212	4.91
487.562	4.91
487.912	4.9
488.262	4.9
488.612	4.9
488.961	4.9
489.311	4.9
489.661	4.9
490.011	4.89
490.36	4.89
490.71	4.9
491.06	4.9
491.409	4.9
491.759	4.9
492.108	4.89
492.458	4.9
492.807	4.89
493.157	4.9
493.506	4.9
493.855	4.89
494.204	4.88
494.554	4.88
494.903	4.88
495.252	4.87
495.601	4.89
495.95	4.9
496.299	4.91
496.648	4.92
496.997	4.94
497.346	4.95
497.695	4.96
498.043	4.95
498.392	4.96
498.741	4.95
499.09	4.96
499.438	4.99
499.787	4.99
500.135	5.03
500.484	5.04
500.832	5.06
501.181	5.1
501.529	5.11
501.878	5.15
502.226	5.17
502.574	5.2
502.923	5.19
503.271	5.19
503.619	5.23
503.967	5.23
504.315	5.21
504.663	5.22
505.011	5.23
505.359	5.25
505.707	5.27
506.055	5.28
506.403	5.31
506.751	5.31
507.098	5.34
507.446	5.32
507.794	5.31
508.141	5.31
508.489	5.32
508.837	5.34
509.184	5.35
509.531	5.35
509.879	5.37
510.226	5.39
510.574	5.41
510.921	5.4
511.268	5.42
511.616	5.45
511.963	5.48
512.31	5.48
512.657	5.52
513.004	5.53
513.351	5.56
513.698	5.57
514.045	5.58
514.392	5.6
514.739	5.64
515.086	5.67
515.432	5.69
515.779	5.68
516.126	5.69
516.473	5.71
516.819	5.73
517.166	5.74
517.512	5.75
517.859	5.76
518.205	5.77
518.552	5.79
518.898	5.78
519.245	5.8
519.591	5.82
519.937	5.81
520.283	5.82
520.629	5.82
520.976	5.81
521.322	5.85
521.668	5.83
522.014	5.84
522.36	5.87
522.706	5.89
523.052	5.91
523.398	5.94
523.743	5.95
524.089	5.97
524.435	5.99
524.781	6.02
525.126	6.03
525.472	6.05
525.817	6.05
526.163	6.06
526.509	6.08
526.854	6.09
527.199	6.11
527.545	6.11
527.89	6.12
528.235	6.13
528.581	6.14
528.926	6.15
529.271	6.15
529.616	6.15
529.961	6.16
530.306	6.18
530.651	6.16
530.996	6.16
531.341	6.17
531.686	6.17
532.031	6.16
532.376	6.18
532.721	6.18
533.065	6.18
533.41	6.19
533.755	6.2
534.099	6.22
534.444	6.23
534.788	6.24
535.133	6.24
535.477	6.26
535.822	6.25
536.166	6.27
536.51	6.29
536.855	6.3
537.199	6.31
537.543	6.32
537.887	6.34
538.231	6.35
538.576	6.37
538.92	6.39
539.264	6.4
539.608	6.42
539.951	6.43
540.295	6.45
540.639	6.47
540.983	6.47
541.327	6.46
541.671	6.44
542.014	6.46
542.358	6.47
542.701	6.48
543.045	6.49
543.389	6.48
543.732	6.48
544.075	6.49
544.419	6.49
544.762	6.49
545.105	6.52
545.449	6.53
545.792	6.53
546.135	6.54
546.478	6.54
546.821	6.53
547.165	6.54
547.508	6.53
547.851	6.53
548.194	6.52
548.536	6.53
548.879	6.56
549.222	6.55
549.565	6.54
549.908	6.54
550.25	6.54
550.593	6.57
550.936	6.56
551.278	6.57
551.621	6.57
551.963	6.57
552.306	6.56
552.648	6.53
552.991	6.53
553.333	6.53
553.675	6.54
554.017	6.53
554.36	6.53
554.702	6.53
555.044	6.53
555.386	6.56
555.728	6.57
556.07	6.57
556.412	6.57
556.754	6.59
557.096	6.56
557.438	6.55
557.78	6.53
558.121	6.54
558.463	6.54
558.805	6.52
559.147	6.54
559.488	6.52
559.83	6.57
560.171	6.57
560.513	6.62
560.854	6.6
561.196	6.59
561.537	6.62
561.878	6.64
562.22	6.66
562.561	6.64
562.902	6.65
563.243	6.63
563.584	6.64
563.925	6.67
564.266	6.69
564.607	6.69
564.948	6.7
565.289	6.71
565.63	6.71
565.971	6.71
566.312	6.67
566.653	6.67
566.993	6.65
567.334	6.69
567.675	6.68
568.015	6.7
568.356	6.73
568.696	6.7
569.037	6.69
569.377	6.68
569.718	6.68
570.058	6.68
570.398	6.69
570.739	6.69
571.079	6.68
571.419	6.68
571.759	6.72
572.099	6.76
572.439	6.77
572.779	6.76
573.119	6.77
573.459	6.82
573.799	6.83
574.139	6.83
574.479	6.82
574.819	6.8
575.158	6.79
575.498	6.78
575.838	6.8
576.177	6.77
576.517	6.79
576.856	6.81
577.196	6.8
577.535	6.82
577.875	6.84
578.214	6.82
578.553	6.86
578.893	6.8
579.232	6.78
579.571	6.78
579.91	6.76
580.25	6.75
580.589	6.76
580.928	6.75
581.267	6.75
581.606	6.71
581.945	6.69
582.283	6.68
582.622	6.68
582.961	6.66
583.3	6.72
583.639	6.76
583.977	6.76
584.316	6.76
584.654	6.73
584.993	6.69
585.332	6.71
585.67	6.68
586.008	6.68
586.347	6.64
586.685	6.62
587.024	6.65
587.362	6.68
587.7	6.69
588.038	6.72
588.376	6.72
588.715	6.76
589.053	6.77
589.391	6.77
589.729	6.81
590.067	6.84
590.404	6.84
590.742	6.79
591.08	6.75
591.418	6.75
591.756	6.77
592.093	6.83
592.431	6.87
592.769	6.88
593.106	6.87
593.444	6.87
593.781	6.91
594.119	6.94
594.456	6.89
594.793	6.89
595.131	6.88
595.468	6.89
595.805	6.88
596.143	6.9
596.48	6.92
596.817	6.91
597.154	6.88
597.491	6.86
597.828	6.85
598.165	6.87
598.502	6.89
598.839	6.9
599.176	6.89
599.512	6.93
599.849	6.92
600.186	6.96
600.523	7
600.859	7
601.196	7.02
601.532	7.05
601.869	7.03
602.205	7.02
602.542	7.02
602.878	7.02
603.215	7.03
603.551	7
603.887	7
604.223	7
604.56	7.05
604.896	7.08
605.232	7.1
605.568	7.12
605.904	7.11
606.24	7.12
606.576	7.07
606.912	7.05
607.248	7.07
607.583	7.03
607.919	7.03
608.255	7.04
608.591	7.04
608.926	7.05
609.262	7.1
609.597	7.11
609.933	7.15
610.268	7.12
610.604	7.16
610.939	7.13
611.275	7.17
611.61	7.13
611.945	7.16
612.281	7.1
612.616	7.1
612.951	7.12
613.286	7.09
613.621	7.12
613.956	7.14
614.291	7.12
614.626	7.13
614.961	7.11
615.296	7.04
615.631	7.08
615.966	7.1
616.3	7.09
616.635	7.11
616.97	7.02
617.304	7.03
617.639	7.06
617.973	7.09
618.308	7.08
618.642	7.1
618.977	7.08
619.311	7.12
619.646	7.14
619.98	7.14
620.314	7.13
620.648	7.14
620.983	7.17
621.317	7.21
621.651	7.22
621.985	7.25
622.319	7.25
622.653	7.21
622.987	7.21
623.321	7.17
623.655	7.17
623.988	7.19
624.322	7.2
624.656	7.2
624.99	7.24
625.323	7.21
625.657	7.21
625.99	7.21
626.324	7.24
626.657	7.23
626.991	7.2
627.324	7.23
627.658	7.2
627.991	7.19
628.324	7.14
628.657	7.16
628.991	7.17
629.324	7.23
629.657	7.22
629.99	7.26
630.323	7.28
630.656	7.32
630.989	7.35
631.322	7.36
631.655	7.39
631.987	7.36
632.32	7.41
632.653	7.37
632.986	7.41
633.318	7.42
633.651	7.39
633.984	7.42
634.316	7.41
634.649	7.42
634.981	7.44
635.313	7.43
635.646	7.45
635.978	7.42
636.31	7.42
636.643	7.42
636.975	7.4
637.307	7.41
637.639	7.34
637.971	7.4
638.303	7.44
638.635	7.33
638.967	7.37
639.299	7.36
639.631	7.35
639.963	7.26
640.295	7.29
640.626	7.32
640.958	7.31
641.29	7.32
641.621	7.29
641.953	7.25
642.285	7.33
642.616	7.31
642.948	7.34
643.279	7.32
643.61	7.35
643.942	7.35
644.273	7.31
644.604	7.31
644.936	7.23
645.267	7.21
645.598	7.25
645.929	7.21
646.26	7.22
646.591	7.23
646.922	7.25
647.253	7.17
647.584	7.15
647.915	7.16
648.245	7.17
648.576	7.23
648.907	7.25
649.238	7.15
649.568	7.17
649.899	7.17
650.229	7.2
650.56	7.23
650.89	7.19
651.221	7.21
651.551	7.2
651.882	7.2
652.212	7.15
652.542	7.16
652.872	7.11
653.203	7.11
653.533	7.15
653.863	7.16
654.193	7.24
654.523	7.25
654.853	7.29
655.183	7.25
655.513	7.25
655.843	7.32
656.172	7.35
656.502	7.44
656.832	7.44
657.162	7.44
657.491	7.38
657.821	7.36
658.15	7.39
658.48	7.41
658.809	7.42
659.139	7.49
659.468	7.46
659.798	7.48
660.127	7.5
660.456	7.5
660.785	7.5
661.115	7.46
661.444	7.4
661.773	7.42
662.102	7.45
662.431	7.45
662.76	7.4
663.089	7.44
663.418	7.33
663.747	7.29
664.076	7.23
664.404	7.21
664.733	7.36
665.062	7.32
665.39	7.34
665.719	7.33
666.048	7.29
666.376	7.37
666.705	7.43
667.033	7.36
667.362	7.35
667.69	7.41
668.018	7.41
668.347	7.46
668.675	7.47
669.003	7.53
669.331	7.62
669.659	7.57
669.987	7.53
670.315	7.54
670.643	7.55
670.971	7.64
671.299	7.74
671.627	7.63
671.955	7.7
672.283	7.7
672.61	7.76
672.938	7.78
673.266	7.83
673.593	7.86
673.921	7.84
674.249	7.85
674.576	7.77
674.904	7.73
675.231	7.73
675.558	7.69
675.886	7.65
676.213	7.59
676.54	7.62
676.867	7.64
677.195	7.57
677.522	7.61
677.849	7.61
678.176	7.55
678.503	7.57
678.83	7.54
679.157	7.54
679.484	7.47
679.81	7.48
680.137	7.45
680.464	7.36
680.791	7.42
681.117	7.4
681.444	7.51
681.771	7.52
682.097	7.55
682.424	7.59
682.75	7.56
683.077	7.55
683.403	7.62
683.729	7.59
684.056	7.74
684.382	7.66
684.708	7.61
685.034	7.58
685.36	7.62
685.686	7.55
686.012	7.42
686.339	7.57
686.664	7.61
686.99	7.62
687.316	7.67
687.642	7.73
687.968	7.73
688.294	7.74
688.619	7.81
688.945	7.69
689.271	7.55
689.596	7.52
689.922	7.45
690.247	7.28
690.573	7.31
690.898	7.25
691.224	7.38
691.549	7.42
691.874	7.43
692.2	7.35
692.525	7.39
692.85	7.53
693.175	7.5
693.5	7.36
693.825	7.36
694.15	7.4
694.475	7.33
694.8	7.38
695.125	7.36
695.45	7.27
695.775	7.4
696.099	7.51
696.424	7.64
696.749	7.6
697.073	7.76
697.398	7.8
697.723	7.82
698.047	7.75
698.372	7.71
698.696	7.73
699.02	7.79
699.345	7.78
699.669	7.86
699.993	7.82
700.318	7.81
700.642	7.77
700.966	7.77
701.29	7.76
701.614	7.76
701.938	7.72
702.262	7.82
702.586	7.84
702.91	7.79
703.234	7.81
703.557	8
703.881	7.85
704.205	7.79
704.529	7.93
704.852	7.9
705.176	8.01
705.499	8.15
705.823	8.03
706.146	8.02
706.47	8
706.793	8.01
707.117	8.11
707.44	8.1
707.763	8.02
708.086	8.06
708.409	8.08
708.733	8.05
709.056	8
709.379	8.02
709.702	8
710.025	7.94
710.348	7.86
710.671	7.99
710.993	7.99
711.316	7.86
711.639	7.94
711.962	7.81
712.284	7.65
712.607	7.74
712.93	7.74
713.252	7.66
713.575	7.65
713.897	7.69
714.22	7.82
714.542	7.95
714.864	7.93
715.187	7.93
715.509	8.01
715.831	8
716.153	8.02
716.475	8.07
716.798	8.11
717.12	8.01
717.442	8.04
717.764	8
718.085	7.92
718.407	7.92
718.729	8.09
719.051	8.12
719.373	8.09
719.695	8.27
720.016	8.42
720.338	8.39
720.659	8.38
720.981	8.28
721.302	8.07
721.624	7.95
721.945	7.93
722.267	7.88
722.588	7.7
722.909	7.62
723.231	7.64
723.552	7.43
723.873	7.64
724.194	7.64
724.515	7.66
724.836	7.69
725.157	7.74
725.478	7.7
725.799	7.74
726.12	7.67
726.441	7.64
726.762	7.48
727.083	7.53
727.403	7.52
727.724	7.5
728.045	7.56
728.365	7.5
728.686	7.42
729.006	7.45
729.327	7.66
729.647	7.76
729.967	7.69
730.288	7.83
730.608	7.61
730.928	7.46
731.249	7.46
731.569	7.65
731.889	7.61
732.209	7.72
732.529	7.79
732.849	7.83
733.169	7.69
733.489	7.68
733.809	7.53
734.129	7.6
734.448	7.76
734.768	7.72
735.088	7.86
735.408	7.85
735.727	7.85
736.047	7.79
736.366	7.65
736.686	7.75
737.005	7.62
737.325	7.73
737.644	7.84
737.963	7.92
738.283	7.76
738.602	7.7
738.921	7.33
739.24	7.35
739.56	7.4
739.879	7.45
740.198	7.49
740.517	7.6
740.836	7.77
741.155	7.51
741.473	7.62
741.792	7.66
742.111	7.79
742.43	7.72
742.748	7.61
743.067	7.73
743.386	7.73
743.704	7.75
744.023	7.63
744.341	7.54
744.66	7.5
744.978	7.38
745.297	7.63
745.615	7.89
745.933	7.74
746.252	7.7
746.57	7.7
746.888	7.7
747.206	7.58
747.524	7.39
747.842	7.56
748.16	7.7
748.478	7.8
748.796	7.74
749.114	7.77
749.432	7.76
749.749	7.63
750.067	7.62
750.385	7.71
750.703	7.75
751.02	7.76
751.338	7.8
751.655	7.99
751.973	7.77
752.29	7.38
752.608	7.43
752.925	7.35
753.242	7.4
753.56	7.16
753.877	7.21
754.194	7.09
754.511	7.28
754.828	7.01
755.145	7.01
755.462	6.77
755.779	6.8
756.096	7.1
756.413	7.01
756.73	6.99
757.047	6.87
757.364	7.07
757.68	7.12
757.997	7.04
758.314	6.86
758.63	7.04
758.947	7.51
759.264	7.4
759.58	7.56
759.896	7.57
760.213	7.98
760.529	8.23
760.846	8.36
761.162	8.08
761.478	8.19
761.794	8.07
762.11	8.3
762.426	8.42
762.743	8.37
763.059	8.51
763.375	8.49
763.69	8.76
764.006	8.66
764.322	8.84
764.638	9.02
764.954	9.27
765.27	9.1
765.585	9.08
765.901	9.16
766.216	9.09
766.532	8.86
766.848	8.75
767.163	8.59
767.478	8.39
767.794	8.45
768.109	8.32
768.424	8.32
768.74	8.45
769.055	8.42
769.37	8.39
769.685	8.07
770	8.11
770.315	7.81
770.63	7.57
770.945	7.28
771.26	7.31
771.575	7.3
771.89	7.34
772.205	7.52
772.52	7.4
772.834	7.31
773.149	7.48
773.464	7.36
773.778	7.54
774.093	7.52
774.407	7.58
774.722	7.57
775.036	7.36
775.351	7.46
775.665	7.39
775.979	7.41
776.293	7.84
776.608	7.91
776.922	7.97
777.236	8.29
777.55	8.29
777.864	8.22
778.178	8.12
778.492	8.65
778.806	8.25
779.12	8.55
779.434	8.82
779.747	8.72
780.061	9.02
780.375	8.83
780.689	9.3
781.002	9.47
781.316	9.9
781.629	10.06
781.943	9.64
782.256	9.69
782.57	9.47
782.883	9.14
783.196	8.94
783.51	8.8
783.823	8.67
784.136	8.62
784.449	8.47
784.762	8.81
785.075	8.29
785.388	8.07
785.701	8.02
786.014	8
786.327	8.44
786.64	8.43
786.953	8.4
787.266	8.34
787.578	7.85
787.891	7.53
788.204	7.48
788.516	7.49
788.829	7.37
789.141	7.57
789.454	7.89
789.766	8.03
790.079	8.27
790.391	8.67
790.703	9.09
791.016	9.56
791.328	8.76
791.64	8.85
791.952	9.29
792.264	8.89
792.576	9.01
792.888	8.88
793.2	8.99
793.512	9.07
793.824	8.94
794.136	9.42
794.448	9.42
794.76	9.23
795.071	9.58
795.383	9.24
795.695	9.16
796.006	9.14
796.318	9.17
796.629	9.21
796.941	8.71
797.252	8.29
797.564	8.04
797.875	8.37
798.186	8.46
798.497	8.37
798.809	8.56
799.12	8.6
799.431	8.84
799.742	8.57
800.053	8.76
800.364	8.72
800.675	8.57
800.986	8.71
801.297	8.87
801.608	8.34
801.918	8.84
802.229	8.89
802.54	8.64
802.851	8.17
803.161	7.84
803.472	7.96
803.782	8.59
804.093	8.67
804.403	8.21
804.714	8.14
805.024	7.96
805.334	7.73
805.645	7.06
805.955	6.34
806.265	6.45
806.575	6.27
806.885	6.19
807.195	6.58
807.505	6.79
807.815	7.02
808.125	7.17
808.435	6.83
808.745	7.07
809.055	7.41
809.365	7.92
809.674	8.01
809.984	8.13
810.294	7.15
810.603	6.53
810.913	7.48
811.222	7.59
811.532	8.16
811.841	8.66
812.151	9.58
812.46	9.7
812.769	9.3
813.079	9.17
813.388	9.49
813.697	9.32
814.006	9.07
814.315	9.08
814.624	9.04
814.933	9.53
815.242	9.74
815.551	9.75
815.86	9.74
816.169	9.53
816.478	9.38
816.786	9.56
817.095	9.85
817.404	9.77
817.712	9.47
818.021	9.02
818.33	9.12
818.638	8.74
818.947	9.55
819.255	9.73
819.563	10.11
819.872	9.99
820.18	9.72
820.488	9.86
820.796	9.94
821.105	10.05
821.413	10.02
821.721	9.71
822.029	9.62
822.337	9.75
822.645	9.76
822.953	9.76
823.26	9.89
823.568	9.8
823.876	9.67
824.184	9.63
824.491	9.64
824.799	9.73
825.107	9.78
825.414	9.77
825.722	9.83
826.029	9.64
826.337	9.66
826.644	9.76
826.951	9.57
827.259	9.53
827.566	9.44
827.873	9.41
828.18	9.47
828.488	9.57
828.795	9.32
829.102	9.36
829.409	9.49
829.716	9.15
830.023	9.21
830.329	9.04
830.636	9.15
830.943	9.12
831.25	8.82
831.557	8.78
831.863	8.43
832.17	8.26
832.476	8.32
832.783	8.01
833.089	7.87
833.396	8.21
833.702	8.12
834.009	8.31
834.315	8.25
834.621	8.21
834.928	8.03
835.234	7.73
835.54	7.46
835.846	7.48
836.152	7.74
836.458	8.34
836.764	8.62
837.07	8.78
837.376	8.55
837.682	8.15
837.988	7.94
838.293	7.97
838.599	8.19
838.905	7.88
839.211	8.21
839.516	7.85
839.822	7.21
840.127	7.59
840.433	7.22
840.738	6.85
841.044	6.34
841.349	6.23
841.654	6.51
841.959	6.42
842.265	5.52
842.57	5.67
842.875	4.68
843.18	4.92
843.485	4.82
843.79	5.09
844.095	5.19
844.4	5.4
844.705	4.66
845.01	3.93
845.315	4.33
845.619	3.43
845.924	4.7
846.229	5.27
846.533	3.31
846.838	2.64
847.142	2.81
847.447	3.88
847.751	3.57
848.056	3.16
848.36	4.6
848.664	6.49
848.969	5.89
849.273	3.89
849.577	2.93
849.881	0.13
850.185	2.96
850.489	4.03
850.794	3.25
851.097	4.53
851.401	4.52
851.705	5.13
852.009	5.61
852.313	3.66
852.617	3.4
852.92	4.46
853.224	4.84
853.528	5.54
853.831	3.44
854.135	3.36
854.438	4.01
854.742	3.79
855.045	1.42
855.349	1.61
855.652	2.61
855.955	2.59
856.259	2.99
856.562	0.18
856.865	-1.04
857.168	-0.8
857.471	-1.73
857.774	-2.37
858.077	-2.44
858.38	-3.75
858.683	-5.24
858.986	-3.24
859.289	-2.37
859.592	-1.62
859.894	-1.7
860.197	0.7
860.5	0.58
860.802	-0.26
861.105	-1.13
861.407	-2.12
861.71	-3.08
862.012	-4.13
862.315	-4.28
862.617	-4.03
862.919	-6.13
863.222	-6.08
863.524	-6.85
863.826	-6.65
864.128	-4.8
864.43	-6.36
864.732	-4.76
865.034	-2.46
865.336	-6.67
865.638	-7.02
865.94	-8.33
866.242	-10.46
866.544	-13.85
866.846	-15.11
867.147	-13.94
867.449	-13
867.751	-10.49
868.052	-8.29
868.354	-7.73
868.655	-6.1
868.957	-4.33
869.258	-3.87
869.56	-3.95
869.861	-2.4
870.162	-0.93
870.463	-2.87
870.765	0.28
871.066	-1.16
871.367	-0.41
871.668	0.87
871.969	0.09
872.27	-2.16
872.571	-1.58
872.872	1.34
873.173	4.99
873.473	4.25
873.774	3.82
874.075	2.48
874.376	-0.66
874.676	2.55
874.977	-0.91
875.277	-0.35
875.578	1.41
875.878	1.92
876.179	1.09
876.479	-0.67
876.78	-0.89
877.08	-3.48
877.38	-2.27
877.68	-3.68
877.981	-2.8
878.281	-2.43
878.581	1.84
