Data from BA56813_Reflection_00015.txt Node
Date: Mon Nov 18 15:51:13 EST 2019
User: vgr7
Spectrometer: USB2G7710
Scans to average: 3
Trigger mode: 4
Integration Time (sec): 2.000000E-2
Electric dark correction enabled: true
Boxcar width: 10
XAxis mode: Wavelengths
Number of Pixels in Spectrum: 2048
>>>>>Begin Spectral Data<<<<<
177.721	-145.85
178.105	-73.14
178.488	-39.73
178.871	-72.82
179.254	-10.14
179.636	-186.89
180.019	-342.21
180.402	119.23
180.785	-45.94
181.168	193.6
181.55	72.56
181.933	82.25
182.316	78.48
182.698	71.42
183.081	60.75
183.463	43.35
183.846	79.87
184.228	56.12
184.611	29.13
184.993	39.83
185.376	74.2
185.758	109.25
186.14	132.27
186.522	193.85
186.904	187.63
187.287	159.66
187.669	194.33
188.051	180.93
188.433	247.01
188.815	335.29
189.197	258.29
189.579	306.84
189.961	224.81
190.342	252.39
190.724	574.03
191.106	1064.66
191.488	-3289.22
191.869	-917.08
192.251	-1227.39
192.633	-1000.18
193.014	-3181.44
193.396	-1652.51
193.777	-2800.52
194.159	-5163.16
194.54	-1254.47
194.922	-2893.29
195.303	-374.51
195.684	-293.23
196.065	-175.55
196.447	-321.93
196.828	-261.59
197.209	-225.34
197.59	-214.41
197.971	-179.3
198.352	-115.17
198.733	-181.77
199.114	-136.38
199.495	-170.19
199.876	-228.68
200.257	-165.15
200.638	-159.03
201.018	-133.79
201.399	-156.46
201.78	-142.03
202.16	-196.45
202.541	-279.38
202.922	-300.9
203.302	-371.42
203.683	-279.99
204.063	-472.14
204.444	-417.27
204.824	-551
205.204	-511.06
205.585	-406.5
205.965	-440.89
206.345	-3900
206.725	1538.96
207.106	630.61
207.486	483.73
207.866	481.31
208.246	507.44
208.626	758.91
209.006	586.7
209.386	607.18
209.766	844.01
210.145	1230.59
210.525	-4951.09
210.905	-1101.25
211.285	-2773.47
211.664	-12442.37
212.044	-19328.57
212.424	-1588.2
212.803	12034.43
213.183	-3351.78
213.562	-1741.36
213.942	-914.59
214.321	-344.7
214.701	-235.84
215.08	-231.9
215.459	-176.45
215.838	-135.81
216.218	-143.65
216.597	-125.28
216.976	-105.07
217.355	-84.37
217.734	-94.53
218.113	-62.9
218.492	-57.76
218.871	-62.89
219.25	-70.16
219.629	-68.85
220.008	-74.26
220.387	-67.12
220.766	-58.65
221.144	-90.26
221.523	-107.61
221.902	-121.95
222.28	-133.61
222.659	-141.04
223.037	-132.76
223.416	-140.63
223.794	-165.71
224.173	-122.72
224.551	-118.44
224.929	-117.66
225.308	-95.4
225.686	-72.02
226.064	-64.99
226.442	-61.69
226.821	-48.07
227.199	-36.78
227.577	-35.1
227.955	-31.02
228.333	-28.33
228.711	-26.52
229.089	-21.07
229.467	-22.13
229.845	-19.68
230.222	-17.29
230.6	-14.19
230.978	-13.37
231.356	-13.14
231.733	-10.57
232.111	-8.99
232.488	-6.39
232.866	-5.05
233.243	-4.1
233.621	-4.19
233.998	-2.41
234.376	-3.42
234.753	-3.47
235.13	-4.37
235.508	-2.61
235.885	-2.2
236.262	-2.31
236.639	-1.08
237.016	-0.89
237.393	1.35
237.77	2.54
238.147	2.68
238.524	2.93
238.901	4.12
239.278	4.17
239.655	4.59
240.032	4.43
240.409	3.63
240.785	3.55
241.162	3.5
241.539	3.7
241.915	3.12
242.292	3.53
242.668	3.73
243.045	4.16
243.421	3.81
243.798	3.98
244.174	3.93
244.551	3.97
244.927	3.79
245.303	3.89
245.679	3.87
246.056	3.63
246.432	3.51
246.808	3.3
247.184	2.98
247.56	2.82
247.936	2.76
248.312	2.91
248.688	2.75
249.064	2.59
249.44	2.55
249.815	2.68
250.191	2.75
250.567	2.67
250.943	2.3
251.318	2.49
251.694	2.27
252.069	1.97
252.445	1.6
252.82	1.69
253.196	1.53
253.571	1.51
253.947	1.56
254.322	1.9
254.697	2.04
255.073	2.42
255.448	2.48
255.823	2.57
256.198	2.82
256.573	2.76
256.948	3.02
257.323	3.08
257.698	3.11
258.073	3.13
258.448	3.08
258.823	3.26
259.198	3.33
259.573	3.48
259.948	3.5
260.322	3.66
260.697	3.57
261.072	3.5
261.446	3.46
261.821	3.54
262.195	3.47
262.57	3.46
262.944	3.35
263.319	3.33
263.693	3.27
264.067	3.23
264.442	3.39
264.816	3.43
265.19	3.38
265.564	3.48
265.938	3.38
266.313	3.37
266.687	3.3
267.061	3.27
267.435	3.22
267.809	3.27
268.183	3.29
268.556	3.36
268.93	3.42
269.304	3.34
269.678	3.34
270.051	3.34
270.425	3.25
270.799	3.28
271.172	3.27
271.546	3.36
271.919	3.33
272.293	3.3
272.666	3.16
273.04	3.16
273.413	3
273.787	2.93
274.16	2.97
274.533	2.84
274.906	2.72
275.279	2.6
275.653	2.66
276.026	2.49
276.399	2.36
276.772	2.46
277.145	2.43
277.518	2.43
277.891	2.42
278.263	2.53
278.636	2.57
279.009	2.58
279.382	2.72
279.755	2.63
280.127	2.59
280.5	2.79
280.872	2.91
281.245	2.93
281.617	3.14
281.99	3.16
282.362	3.31
282.735	3.24
283.107	3.4
283.479	3.41
283.852	3.4
284.224	3.48
284.596	3.38
284.968	3.53
285.34	3.59
285.713	3.49
286.085	3.54
286.457	3.7
286.829	3.81
287.201	3.73
287.572	3.74
287.944	3.72
288.316	3.57
288.688	3.46
289.06	3.38
289.431	3.34
289.803	3.37
290.175	3.36
290.546	3.44
290.918	3.47
291.289	3.4
291.661	3.54
292.032	3.61
292.403	3.69
292.775	3.63
293.146	3.6
293.517	3.71
293.889	3.77
294.26	3.61
294.631	3.6
295.002	3.52
295.373	3.57
295.744	3.56
296.115	3.6
296.486	3.64
296.857	3.79
297.228	3.87
297.599	3.82
297.97	3.83
298.34	3.85
298.711	3.94
299.082	4.03
299.452	4.1
299.823	4.16
300.194	4.16
300.564	4.04
300.935	4.09
301.305	4.11
301.676	4.13
302.046	4.23
302.416	4.37
302.787	4.41
303.157	4.39
303.527	4.59
303.897	4.64
304.267	4.82
304.637	4.82
305.008	4.86
305.378	5.06
305.748	5.15
306.117	5.02
306.487	4.96
306.857	5.09
307.227	5.03
307.597	5.14
307.967	5.11
308.336	5.32
308.706	5.36
309.076	5.4
309.445	5.4
309.815	5.35
310.184	5.33
310.554	5.45
310.923	5.56
311.293	5.4
311.662	5.43
312.031	5.39
312.401	5.39
312.77	5.47
313.139	5.5
313.508	5.54
313.877	5.65
314.246	5.65
314.616	5.64
314.985	5.57
315.353	5.43
315.722	5.52
316.091	5.44
316.46	5.4
316.829	5.53
317.198	5.48
317.567	5.53
317.935	5.43
318.304	5.49
318.672	5.39
319.041	5.76
319.41	5.73
319.778	5.66
320.147	5.8
320.515	5.75
320.883	5.66
321.252	5.67
321.62	5.81
321.988	5.82
322.357	5.91
322.725	6.09
323.093	6.26
323.461	6.41
323.829	6.58
324.197	6.73
324.565	6.73
324.933	6.81
325.301	6.97
325.669	7.09
326.037	7.08
326.405	7.18
326.772	7.28
327.14	7.43
327.508	7.49
327.875	7.41
328.243	7.54
328.61	7.64
328.978	7.77
329.346	7.9
329.713	8.02
330.08	8.05
330.448	7.96
330.815	7.9
331.182	7.87
331.55	7.93
331.917	8.04
332.284	8.06
332.651	8.01
333.018	7.97
333.385	8
333.752	8.05
334.119	8.09
334.486	7.85
334.853	7.94
335.22	7.98
335.587	8.11
335.954	8.02
336.32	8.06
336.687	8.06
337.054	8.04
337.42	8.12
337.787	8.09
338.153	8.23
338.52	8.3
338.886	8.24
339.253	8.17
339.619	8.09
339.986	8.16
340.352	8.35
340.718	8.49
341.084	8.53
341.451	8.62
341.817	8.7
342.183	8.9
342.549	8.84
342.915	8.98
343.281	9.01
343.647	9.08
344.013	9.08
344.379	9.13
344.745	9.17
345.11	9.1
345.476	9.18
345.842	9.22
346.208	9.31
346.573	9.35
346.939	9.45
347.304	9.52
347.67	9.51
348.035	9.41
348.401	9.33
348.766	9.36
349.132	9.31
349.497	9.32
349.862	9.35
350.228	9.45
350.593	9.39
350.958	9.39
351.323	9.41
351.688	9.46
352.053	9.48
352.418	9.57
352.783	9.7
353.148	9.67
353.513	9.64
353.878	9.54
354.243	9.68
354.608	9.58
354.972	9.51
355.337	9.54
355.702	9.69
356.066	9.72
356.431	9.78
356.795	9.86
357.16	9.87
357.524	9.85
357.889	9.85
358.253	9.86
358.618	9.88
358.982	9.83
359.346	9.83
359.71	9.87
360.075	9.83
360.439	9.78
360.803	9.85
361.167	9.86
361.531	9.88
361.895	9.8
362.259	9.88
362.623	9.95
362.987	9.99
363.351	9.93
363.714	9.97
364.078	9.89
364.442	9.81
364.806	9.85
365.169	9.8
365.533	9.76
365.896	9.8
366.26	9.79
366.623	9.86
366.987	9.87
367.35	9.78
367.714	9.73
368.077	9.68
368.44	9.63
368.803	9.59
369.167	9.58
369.53	9.57
369.893	9.59
370.256	9.6
370.619	9.47
370.982	9.44
371.345	9.41
371.708	9.45
372.071	9.49
372.434	9.41
372.797	9.4
373.159	9.38
373.522	9.33
373.885	9.33
374.247	9.28
374.61	9.26
374.973	9.31
375.335	9.27
375.698	9.29
376.06	9.29
376.423	9.3
376.785	9.33
377.147	9.35
377.51	9.28
377.872	9.21
378.234	9.24
378.596	9.23
378.958	9.19
379.321	9.18
379.683	9.15
380.045	9.14
380.407	9.09
380.769	9.02
381.13	8.99
381.492	8.97
381.854	8.93
382.216	8.83
382.578	8.72
382.939	8.71
383.301	8.68
383.663	8.59
384.024	8.58
384.386	8.48
384.747	8.42
385.109	8.48
385.47	8.41
385.832	8.36
386.193	8.35
386.554	8.29
386.916	8.19
387.277	8.15
387.638	8.12
387.999	8.11
388.36	8.09
388.721	8.06
389.082	8
389.443	7.97
389.804	7.97
390.165	7.97
390.526	7.97
390.887	7.91
391.248	7.92
391.609	7.92
391.969	7.92
392.33	7.86
392.691	7.81
393.051	7.78
393.412	7.77
393.772	7.69
394.133	7.66
394.493	7.66
394.854	7.62
395.214	7.59
395.574	7.55
395.935	7.54
396.295	7.51
396.655	7.5
397.015	7.44
397.376	7.41
397.736	7.36
398.096	7.33
398.456	7.33
398.816	7.29
399.176	7.21
399.535	7.14
399.895	7.14
400.255	7.06
400.615	7.03
400.975	7.02
401.334	7.04
401.694	7.05
402.054	6.96
402.413	6.97
402.773	6.93
403.132	6.93
403.492	6.89
403.851	6.87
404.211	6.83
404.57	6.82
404.929	6.8
405.288	6.76
405.648	6.7
406.007	6.66
406.366	6.64
406.725	6.65
407.084	6.68
407.443	6.64
407.802	6.66
408.161	6.64
408.52	6.59
408.879	6.56
409.238	6.51
409.596	6.54
409.955	6.52
410.314	6.52
410.673	6.47
411.031	6.46
411.39	6.43
411.748	6.43
412.107	6.42
412.465	6.37
412.824	6.38
413.182	6.36
413.54	6.37
413.899	6.35
414.257	6.31
414.615	6.28
414.974	6.27
415.332	6.22
415.69	6.17
416.048	6.15
416.406	6.11
416.764	6.1
417.122	6.1
417.48	6.05
417.838	6.04
418.195	6.03
418.553	5.99
418.911	5.97
419.269	5.95
419.626	5.93
419.984	5.93
420.342	5.9
420.699	5.89
421.057	5.85
421.414	5.82
421.772	5.83
422.129	5.8
422.486	5.78
422.844	5.75
423.201	5.75
423.558	5.73
423.915	5.71
424.273	5.69
424.63	5.65
424.987	5.65
425.344	5.61
425.701	5.57
426.058	5.57
426.415	5.57
426.772	5.54
427.128	5.51
427.485	5.49
427.842	5.48
428.199	5.46
428.555	5.47
428.912	5.45
429.269	5.42
429.625	5.41
429.982	5.39
430.338	5.41
430.695	5.42
431.051	5.41
431.407	5.4
431.764	5.4
432.12	5.4
432.476	5.36
432.832	5.38
433.189	5.39
433.545	5.35
433.901	5.33
434.257	5.33
434.613	5.35
434.969	5.36
435.325	5.35
435.681	5.34
436.036	5.34
436.392	5.34
436.748	5.33
437.104	5.32
437.459	5.31
437.815	5.3
438.171	5.27
438.526	5.27
438.882	5.25
439.237	5.26
439.593	5.27
439.948	5.28
440.304	5.29
440.659	5.29
441.014	5.31
441.369	5.3
441.725	5.29
442.08	5.29
442.435	5.27
442.79	5.27
443.145	5.27
443.5	5.25
443.855	5.23
444.21	5.23
444.565	5.24
444.92	5.25
445.275	5.23
445.629	5.23
445.984	5.23
446.339	5.23
446.693	5.21
447.048	5.18
447.403	5.19
447.757	5.16
448.112	5.13
448.466	5.12
448.82	5.12
449.175	5.12
449.529	5.08
449.883	5.07
450.238	5.05
450.592	5.04
450.946	5.04
451.3	5.03
451.654	5.01
452.008	4.99
452.362	4.96
452.716	4.98
453.07	4.97
453.424	4.97
453.778	4.93
454.132	4.93
454.486	4.92
454.839	4.89
455.193	4.86
455.547	4.85
455.9	4.86
456.254	4.86
456.607	4.85
456.961	4.87
457.314	4.87
457.668	4.89
458.021	4.86
458.375	4.85
458.728	4.85
459.081	4.87
459.434	4.86
459.787	4.86
460.141	4.86
460.494	4.87
460.847	4.87
461.2	4.88
461.553	4.88
461.906	4.9
462.259	4.91
462.611	4.95
462.964	4.99
463.317	4.99
463.67	5
464.022	5.01
464.375	5.01
464.728	5.03
465.08	5.01
465.433	5.05
465.785	5.06
466.138	5.06
466.49	5.06
466.843	5.09
467.195	5.13
467.547	5.15
467.899	5.17
468.252	5.18
468.604	5.21
468.956	5.23
469.308	5.24
469.66	5.24
470.012	5.24
470.364	5.25
470.716	5.27
471.068	5.27
471.42	5.28
471.772	5.3
472.123	5.32
472.475	5.36
472.827	5.37
473.178	5.41
473.53	5.42
473.882	5.43
474.233	5.41
474.585	5.4
474.936	5.4
475.288	5.4
475.639	5.42
475.99	5.42
476.342	5.44
476.693	5.47
477.044	5.48
477.395	5.49
477.746	5.49
478.097	5.49
478.448	5.49
478.8	5.5
479.15	5.5
479.501	5.48
479.852	5.48
480.203	5.49
480.554	5.48
480.905	5.5
481.255	5.51
481.606	5.53
481.957	5.54
482.307	5.51
482.658	5.51
483.009	5.5
483.359	5.5
483.709	5.5
484.06	5.49
484.41	5.48
484.761	5.48
485.111	5.47
485.461	5.48
485.811	5.47
486.162	5.45
486.512	5.45
486.862	5.45
487.212	5.44
487.562	5.43
487.912	5.42
488.262	5.41
488.612	5.41
488.961	5.4
489.311	5.39
489.661	5.4
490.011	5.4
490.36	5.39
490.71	5.39
491.06	5.38
491.409	5.37
491.759	5.38
492.108	5.38
492.458	5.39
492.807	5.4
493.157	5.42
493.506	5.44
493.855	5.46
494.204	5.49
494.554	5.52
494.903	5.55
495.252	5.57
495.601	5.6
495.95	5.62
496.299	5.64
496.648	5.67
496.997	5.71
497.346	5.76
497.695	5.81
498.043	5.87
498.392	5.9
498.741	5.96
499.09	6.03
499.438	6.06
499.787	6.11
500.135	6.15
500.484	6.21
500.832	6.28
501.181	6.35
501.529	6.38
501.878	6.46
502.226	6.53
502.574	6.6
502.923	6.68
503.271	6.73
503.619	6.81
503.967	6.89
504.315	6.95
504.663	7.02
505.011	7.1
505.359	7.18
505.707	7.3
506.055	7.37
506.403	7.45
506.751	7.56
507.098	7.64
507.446	7.73
507.794	7.8
508.141	7.88
508.489	7.95
508.837	8.06
509.184	8.12
509.531	8.21
509.879	8.32
510.226	8.41
510.574	8.51
510.921	8.58
511.268	8.68
511.616	8.79
511.963	8.88
512.31	8.98
512.657	9.11
513.004	9.2
513.351	9.34
513.698	9.47
514.045	9.58
514.392	9.71
514.739	9.84
515.086	9.99
515.432	10.16
515.779	10.32
516.126	10.48
516.473	10.63
516.819	10.77
517.166	10.9
517.512	11.02
517.859	11.14
518.205	11.27
518.552	11.41
518.898	11.54
519.245	11.68
519.591	11.82
519.937	11.93
520.283	12.08
520.629	12.24
520.976	12.41
521.322	12.59
521.668	12.77
522.014	12.96
522.36	13.16
522.706	13.35
523.052	13.55
523.398	13.78
523.743	14.02
524.089	14.26
524.435	14.5
524.781	14.74
525.126	14.99
525.472	15.19
525.817	15.38
526.163	15.56
526.509	15.73
526.854	15.91
527.199	16.06
527.545	16.2
527.89	16.35
528.235	16.48
528.581	16.64
528.926	16.79
529.271	16.97
529.616	17.1
529.961	17.27
530.306	17.44
530.651	17.6
530.996	17.78
531.341	17.97
531.686	18.18
532.031	18.37
532.376	18.57
532.721	18.81
533.065	19.04
533.41	19.26
533.755	19.5
534.099	19.73
534.444	19.98
534.788	20.23
535.133	20.46
535.477	20.74
535.822	20.99
536.166	21.27
536.51	21.57
536.855	21.92
537.199	22.23
537.543	22.54
537.887	22.9
538.231	23.24
538.576	23.59
538.92	23.88
539.264	24.22
539.608	24.5
539.951	24.78
540.295	25.05
540.639	25.33
540.983	25.58
541.327	25.83
541.671	26.07
542.014	26.31
542.358	26.55
542.701	26.78
543.045	27.02
543.389	27.25
543.732	27.47
544.075	27.7
544.419	27.94
544.762	28.18
545.105	28.43
545.449	28.7
545.792	28.94
546.135	29.27
546.478	29.57
546.821	29.86
547.165	30.16
547.508	30.49
547.851	30.8
548.194	31.11
548.536	31.42
548.879	31.75
549.222	32.07
549.565	32.4
549.908	32.72
550.25	33.04
550.593	33.39
550.936	33.67
551.278	33.96
551.621	34.31
551.963	34.65
552.306	34.94
552.648	35.2
552.991	35.51
553.333	35.72
553.675	35.95
554.017	36.2
554.36	36.47
554.702	36.67
555.044	36.91
555.386	37.15
555.728	37.47
556.07	37.74
556.412	37.97
556.754	38.24
557.096	38.47
557.438	38.71
557.78	38.96
558.121	39.25
558.463	39.53
558.805	39.75
559.147	40.03
559.488	40.24
559.83	40.52
560.171	40.73
560.513	41.03
560.854	41.29
561.196	41.55
561.537	41.72
561.878	42
562.22	42.22
562.561	42.38
562.902	42.53
563.243	42.71
563.584	42.92
563.925	43.12
564.266	43.26
564.607	43.48
564.948	43.62
565.289	43.77
565.63	43.86
565.971	44.05
566.312	44.17
566.653	44.3
566.993	44.43
567.334	44.56
567.675	44.68
568.015	44.82
568.356	44.9
568.696	45.09
569.037	45.18
569.377	45.33
569.718	45.47
570.058	45.61
570.398	45.7
570.739	45.83
571.079	45.89
571.419	46.11
571.759	46.17
572.099	46.3
572.439	46.44
572.779	46.6
573.119	46.74
573.459	46.84
573.799	47.04
574.139	47.14
574.479	47.28
574.819	47.4
575.158	47.51
575.498	47.69
575.838	47.74
576.177	47.91
576.517	48
576.856	48.19
577.196	48.29
577.535	48.42
577.875	48.47
578.214	48.61
578.553	48.65
578.893	48.82
579.232	48.93
579.571	49.08
579.91	49.22
580.25	49.24
580.589	49.4
580.928	49.45
581.267	49.56
581.606	49.68
581.945	49.67
582.283	49.74
582.622	49.85
582.961	49.93
583.3	49.98
583.639	50.03
583.977	50.08
584.316	50.16
584.654	50.26
584.993	50.37
585.332	50.53
585.67	50.59
586.008	50.63
586.347	50.74
586.685	50.77
587.024	50.77
587.362	50.87
587.7	50.91
588.038	50.97
588.376	51.08
588.715	51.12
589.053	51.28
589.391	51.32
589.729	51.42
590.067	51.49
590.404	51.53
590.742	51.58
591.08	51.61
591.418	51.73
591.756	51.78
592.093	51.85
592.431	51.86
592.769	51.95
593.106	51.96
593.444	52.06
593.781	52.11
594.119	52.19
594.456	52.23
594.793	52.24
595.131	52.3
595.468	52.4
595.805	52.4
596.143	52.46
596.48	52.48
596.817	52.51
597.154	52.56
597.491	52.67
597.828	52.76
598.165	52.82
598.502	52.89
598.839	52.95
599.176	52.97
599.512	53.05
599.849	53.11
600.186	53.24
600.523	53.24
600.859	53.28
601.196	53.31
601.532	53.35
601.869	53.41
602.205	53.4
602.542	53.41
602.878	53.47
603.215	53.5
603.551	53.6
603.887	53.59
604.223	53.62
604.56	53.6
604.896	53.62
605.232	53.67
605.568	53.65
605.904	53.65
606.24	53.66
606.576	53.62
606.912	53.72
607.248	53.67
607.583	53.7
607.919	53.73
608.255	53.78
608.591	53.85
608.926	53.99
609.262	54
609.597	54.05
609.933	54.04
610.268	54.02
610.604	54.04
610.939	54.1
611.275	54.12
611.61	54.21
611.945	54.24
612.281	54.18
612.616	54.17
612.951	54.21
613.286	54.32
613.621	54.43
613.956	54.35
614.291	54.41
614.626	54.51
614.961	54.53
615.296	54.61
615.631	54.6
615.966	54.53
616.3	54.62
616.635	54.66
616.97	54.77
617.304	54.89
617.639	54.85
617.973	54.93
618.308	54.97
618.642	54.98
618.977	55.05
619.311	55.2
619.646	55.27
619.98	55.31
620.314	55.39
620.648	55.4
620.983	55.41
621.317	55.46
621.651	55.48
621.985	55.54
622.319	55.48
622.653	55.39
622.987	55.43
623.321	55.42
623.655	55.4
623.988	55.42
624.322	55.37
624.656	55.37
624.99	55.39
625.323	55.41
625.657	55.43
625.99	55.47
626.324	55.31
626.657	55.3
626.991	55.44
627.324	55.39
627.658	55.43
627.991	55.43
628.324	55.5
628.657	55.44
628.991	55.44
629.324	55.54
629.657	55.68
629.99	55.68
630.323	55.68
630.656	55.65
630.989	55.62
631.322	55.71
631.655	55.83
631.987	55.87
632.32	55.92
632.653	55.84
632.986	55.77
633.318	55.92
633.651	55.97
633.984	55.89
634.316	55.9
634.649	55.94
634.981	56
635.313	55.98
635.646	56.04
635.978	56.12
636.31	56.02
636.643	55.96
636.975	55.91
637.307	55.95
637.639	55.94
637.971	56.02
638.303	55.91
638.635	55.9
638.967	55.74
639.299	55.77
639.631	55.77
639.963	55.86
640.295	55.92
640.626	55.9
640.958	55.82
641.29	55.87
641.621	55.87
641.953	55.83
642.285	55.82
642.616	55.75
642.948	55.73
643.279	55.75
643.61	55.84
643.942	56
644.273	56.05
644.604	56.14
644.936	56.21
645.267	56.35
645.598	56.38
645.929	56.48
646.26	56.45
646.591	56.59
646.922	56.54
647.253	56.52
647.584	56.62
647.915	56.69
648.245	56.67
648.576	56.67
648.907	56.71
649.238	56.67
649.568	56.61
649.899	56.63
650.229	56.77
650.56	56.74
650.89	56.8
651.221	56.83
651.551	56.74
651.882	56.65
652.212	56.67
652.542	56.75
652.872	56.75
653.203	56.6
653.533	56.62
653.863	56.68
654.193	56.66
654.523	56.64
654.853	56.66
655.183	56.62
655.513	56.66
655.843	56.7
656.172	56.73
656.502	56.88
656.832	56.95
657.162	56.87
657.491	56.97
657.821	56.88
658.15	56.84
658.48	56.93
658.809	56.92
659.139	56.91
659.468	56.83
659.798	56.84
660.127	56.94
660.456	56.9
660.785	56.93
661.115	56.96
661.444	56.97
661.773	57.02
662.102	57.09
662.431	57.02
662.76	57.03
663.089	57.08
663.418	57
663.747	56.95
664.076	56.99
664.404	56.89
664.733	56.87
665.062	56.9
665.39	56.86
665.719	56.91
666.048	56.87
666.376	56.88
666.705	56.8
667.033	56.88
667.362	56.88
667.69	56.82
668.018	56.86
668.347	56.81
668.675	56.83
669.003	56.82
669.331	56.93
669.659	56.93
669.987	57
670.315	57.12
670.643	57.04
670.971	57.04
671.299	57.08
671.627	57.11
671.955	57.08
672.283	57.09
672.61	57.19
672.938	57.24
673.266	57.32
673.593	57.4
673.921	57.19
674.249	57.33
674.576	57.35
674.904	57.24
675.231	57.27
675.558	57.35
675.886	57.4
676.213	57.33
676.54	57.4
676.867	57.43
677.195	57.49
677.522	57.52
677.849	57.44
678.176	57.35
678.503	57.45
678.83	57.43
679.157	57.34
679.484	57.14
679.81	57.08
680.137	57.09
680.464	57.18
680.791	57.33
681.117	57.37
681.444	57.41
681.771	57.58
682.097	57.68
682.424	57.53
682.75	57.55
683.077	57.56
683.403	57.43
683.729	57.36
684.056	57.3
684.382	57.4
684.708	57.53
685.034	57.59
685.36	57.42
685.686	57.42
686.012	57.55
686.339	57.66
686.664	57.69
686.99	57.67
687.316	57.63
687.642	57.51
687.968	57.38
688.294	57.31
688.619	57.17
688.945	57.1
689.271	57.16
689.596	56.99
689.922	56.95
690.247	56.92
690.573	57.01
690.898	57.04
691.224	57.02
691.549	56.87
691.874	56.75
692.2	56.85
692.525	56.91
692.85	56.84
693.175	56.81
693.5	56.8
693.825	56.73
694.15	56.75
694.475	56.95
694.8	57.11
695.125	57.15
695.45	57.27
695.775	57.26
696.099	57.26
696.424	57.43
696.749	57.47
697.073	57.69
697.398	57.54
697.723	57.62
698.047	57.53
698.372	57.56
698.696	57.57
699.02	57.66
699.345	57.6
699.669	57.69
699.993	57.77
700.318	57.74
700.642	57.83
700.966	57.89
701.29	57.77
701.614	57.7
701.938	57.7
702.262	57.6
702.586	57.55
702.91	57.63
703.234	57.56
703.557	57.49
703.881	57.17
704.205	57.28
704.529	57.11
704.852	57.15
705.176	57.18
705.499	57.41
705.823	57.2
706.146	57.41
706.47	57.41
706.793	57.32
707.117	57.5
707.44	57.73
707.763	57.62
708.086	57.71
708.409	57.62
708.733	57.62
709.056	57.54
709.379	57.64
709.702	57.36
710.025	57.47
710.348	57.65
710.671	57.74
710.993	57.71
711.316	57.77
711.639	58
711.962	58.1
712.284	58.15
712.607	58.27
712.93	58.09
713.252	57.94
713.575	57.92
713.897	57.92
714.22	57.64
714.542	57.51
714.864	57.4
715.187	57.38
715.509	57.45
715.831	57.71
716.153	57.77
716.475	58.13
716.798	58.15
717.12	58.06
717.442	58.27
717.764	58.35
718.085	58.36
718.407	58.15
718.729	58.06
719.051	57.94
719.373	57.95
719.695	57.86
720.016	57.87
720.338	57.81
720.659	57.65
720.981	57.54
721.302	57.86
721.624	58.02
721.945	58.13
722.267	58.06
722.588	57.79
722.909	57.7
723.231	57.24
723.552	57.05
723.873	57.01
724.194	56.66
724.515	56.63
724.836	56.58
725.157	56.65
725.478	56.69
725.799	56.76
726.12	56.65
726.441	56.74
726.762	56.91
727.083	57.13
727.403	57.23
727.724	57.32
728.045	57.12
728.365	56.97
728.686	56.95
729.006	56.97
729.327	57.11
729.647	57.24
729.967	57.33
730.288	57.46
730.608	57.38
730.928	57.58
731.249	57.56
731.569	57.52
731.889	57.59
732.209	57.86
732.529	57.82
732.849	57.96
733.169	58.01
733.489	58.19
733.809	58.06
734.129	58.01
734.448	58.23
734.768	58.3
735.088	58.48
735.408	58.55
735.727	58.53
736.047	58.47
736.366	58.17
736.686	58.34
737.005	58.34
737.325	58.37
737.644	58.12
737.963	58.16
738.283	57.94
738.602	57.76
738.921	57.57
739.24	57.76
739.56	57.9
739.879	57.89
740.198	57.47
740.517	57.61
740.836	57.65
741.155	57.53
741.473	57.47
741.792	57.41
742.111	57.36
742.43	57.3
742.748	57.28
743.067	57.65
743.386	57.68
743.704	57.53
744.023	57.71
744.341	57.89
744.66	57.9
744.978	58.18
745.297	58.14
745.615	58.09
745.933	57.67
746.252	57.48
746.57	57.63
746.888	57.92
747.206	57.95
747.524	57.95
747.842	57.78
748.16	57.82
748.478	58.06
748.796	58.17
749.114	58.52
749.432	58.67
749.749	58.75
750.067	58.73
750.385	58.83
750.703	59
751.02	58.89
751.338	59.11
751.655	58.95
751.973	59.2
752.29	59.31
752.608	59.58
752.925	59.62
753.242	59.45
753.56	59.63
753.877	59.78
754.194	59.58
754.511	59.69
754.828	59.88
755.145	59.61
755.462	59.38
755.779	59.36
756.096	59.26
756.413	58.81
756.73	58.79
757.047	58.8
757.364	58.38
757.68	58.57
757.997	58.16
758.314	58.35
758.63	58.22
758.947	58.11
759.264	57.92
759.58	57.92
759.896	57.89
760.213	57.68
760.529	57.71
760.846	57.97
761.162	57.61
761.478	57.28
761.794	57.35
762.11	57.28
762.426	57
762.743	57.06
763.059	57.04
763.375	57.2
763.69	57.35
764.006	57.42
764.322	57.41
764.638	57.73
764.954	57.63
765.27	57.67
765.585	57.66
765.901	57.75
766.216	57.7
766.532	57.81
766.848	57.52
767.163	57.5
767.478	57.03
767.794	57.18
768.109	57.02
768.424	57.07
768.74	57.47
769.055	57.69
769.37	57.74
769.685	57.9
770	57.83
770.315	57.71
770.63	57.89
770.945	58.04
771.26	57.93
771.575	58.07
771.89	57.77
772.205	57.78
772.52	57.93
772.834	57.84
773.149	57.64
773.464	58
773.778	57.48
774.093	58.01
774.407	58.35
774.722	58.76
775.036	58.6
775.351	58.42
775.665	58.51
775.979	58.62
776.293	58.56
776.608	58.33
776.922	58.4
777.236	58.61
777.55	58.28
777.864	58.44
778.178	58.42
778.492	59.02
778.806	59.14
779.12	58.78
779.434	58.78
779.747	59.11
780.061	59.58
780.375	59.95
780.689	59.48
781.002	59.55
781.316	59.66
781.629	59.48
781.943	59.51
782.256	58.91
782.57	58.61
782.883	58.83
783.196	59.09
783.51	58.85
783.823	58.44
784.136	58.99
784.449	58.6
784.762	58.71
785.075	58.48
785.388	58.01
785.701	58.14
786.014	58.11
786.327	58.25
786.64	58.51
786.953	58.4
787.266	58.45
787.578	58.01
787.891	58.13
788.204	58.45
788.516	58.22
788.829	58.66
789.141	58.98
789.454	58.58
789.766	58.8
790.079	59.05
790.391	59.32
790.703	58.79
791.016	58.29
791.328	58.49
791.64	58.38
791.952	58.71
792.264	58.48
792.576	58.46
792.888	58.27
793.2	57.37
793.512	56.99
793.824	57.63
794.136	57.81
794.448	57.57
794.76	57.19
795.071	57.2
795.383	57.12
795.695	57.02
796.006	57.48
796.318	57.59
796.629	57.31
796.941	57.07
797.252	57.49
797.564	57.82
797.875	57.22
798.186	57.32
798.497	57.38
798.809	56.95
799.12	57.34
799.431	56.99
799.742	57.36
800.053	57.92
800.364	57.62
800.675	57.96
800.986	58.21
801.297	59.14
801.608	58.95
801.918	59.5
802.229	59.15
802.54	58.88
802.851	58.46
803.161	58.83
803.472	59.44
803.782	59.3
804.093	59.23
804.403	60.07
804.714	59.96
805.024	60.01
805.334	60.82
805.645	60.81
805.955	61.5
806.265	61.93
806.575	61.84
806.885	61.85
807.195	61.38
807.505	60.63
807.815	60.04
808.125	59.92
808.435	59.53
808.745	59.63
809.055	59.68
809.365	59.96
809.674	59.43
809.984	58.84
810.294	59.48
810.603	59.86
810.913	59.22
811.222	58.84
811.532	58.85
811.841	58.88
812.151	58.32
812.46	57.95
812.769	57.48
813.079	57.4
813.388	57.62
813.697	57.09
814.006	57.24
814.315	56.9
814.624	57.41
814.933	57.38
815.242	57.37
815.551	57.51
815.86	56.8
816.169	56.81
816.478	56.52
816.786	56.31
817.095	56.01
817.404	55.63
817.712	56.41
818.021	56.01
818.33	56.1
818.638	57.04
818.947	57.42
819.255	57.09
819.563	57.45
819.872	57.69
820.18	58.22
820.488	58.5
820.796	58.54
821.105	58.85
821.413	58.66
821.721	58.73
822.029	58.97
822.337	58.88
822.645	58.77
822.953	58.67
823.26	58.59
823.568	58.66
823.876	58.91
824.184	58.91
824.491	58.93
824.799	58.99
825.107	58.74
825.414	58.71
825.722	58.97
826.029	58.91
826.337	58.8
826.644	58.82
826.951	58.74
827.259	58.78
827.566	58.47
827.873	58.55
828.18	58.52
828.488	58.19
828.795	58.43
829.102	58.61
829.409	58.93
829.716	58.67
830.023	58.79
830.329	58.48
830.636	58.13
830.943	58.1
831.25	57.94
831.557	57.85
831.863	57.69
832.17	56.97
832.476	57.09
832.783	56.95
833.089	56.86
833.396	57.2
833.702	57.43
834.009	57.01
834.315	57.26
834.621	57.05
834.928	56.97
835.234	56.73
835.54	56.54
835.846	56.18
836.152	56.64
836.458	56.24
836.764	56.31
837.07	56.5
837.376	56.63
837.682	56.7
837.988	56.78
838.293	56.91
838.599	57.42
838.905	56.71
839.211	57.06
839.516	56.6
839.822	55.9
840.127	55.22
840.433	56.27
840.738	55.71
841.044	55.53
841.349	55.87
841.654	56.06
841.959	57.3
842.265	56.89
842.57	56.99
842.875	56.7
843.18	56.35
843.485	56.45
843.79	56.69
844.095	56.2
844.4	57.35
844.705	57.03
845.01	57.9
845.315	59.32
845.619	59.35
845.924	59.83
846.229	60.64
846.533	61.16
846.838	60.73
847.142	60.45
847.447	60.58
847.751	60.91
848.056	60.48
848.36	57.43
848.664	58.79
848.969	58.32
849.273	60.27
849.577	61.37
849.881	61.1
850.185	60.52
850.489	60.95
850.794	60.4
851.097	58
851.401	56
851.705	54.33
852.009	53.45
852.313	53.24
852.617	53.89
852.92	54.71
853.224	54.17
853.528	55.77
853.831	55.37
854.135	55.13
854.438	56.17
854.742	59.15
855.045	58.35
855.349	58.25
855.652	57.37
855.955	58.99
856.259	58.58
856.562	55.75
856.865	55.85
857.168	55.55
857.471	59.64
857.774	59.9
858.077	63.9
858.38	64.59
858.683	64.18
858.986	61.44
859.289	60.2
859.592	59.9
859.894	58.93
860.197	59.61
860.5	58.23
860.802	56.6
861.105	56.49
861.407	57.55
861.71	56.82
862.012	54.86
862.315	54.73
862.617	55.12
862.919	57.43
863.222	58.13
863.524	58.91
863.826	58.4
864.128	58.51
864.43	54.65
864.732	55.57
865.034	56.32
865.336	59.77
865.638	60.54
865.94	61.27
866.242	61.35
866.544	59.87
866.846	61.57
867.147	62.47
867.449	62.23
867.751	61.99
868.052	61.94
868.354	63.26
868.655	60.24
868.957	59.13
869.258	57.81
869.56	58.23
869.861	54.32
870.162	53.33
870.463	55.01
870.765	56.08
871.066	52.97
871.367	51.54
871.668	49.14
871.969	48.88
872.27	46.89
872.571	47.17
872.872	50.32
873.173	47.49
873.473	46.15
873.774	46.08
874.075	46.48
874.376	47.12
874.676	48.96
874.977	48.06
875.277	49.92
875.578	52.44
875.878	51.15
876.179	54.19
876.479	54.02
876.78	52.22
877.08	51.58
877.38	53.68
877.68	56.11
877.981	55.99
878.281	54.61
878.581	58.73
