Data from BA56813_Reflection_00006.txt Node
Date: Mon Nov 18 15:50:42 EST 2019
User: vgr7
Spectrometer: USB2G7710
Scans to average: 3
Trigger mode: 4
Integration Time (sec): 2.000000E-2
Electric dark correction enabled: true
Boxcar width: 10
XAxis mode: Wavelengths
Number of Pixels in Spectrum: 2048
>>>>>Begin Spectral Data<<<<<
177.721	35.46
178.105	100
178.488	228.26
178.871	119.79
179.254	13.64
179.636	-367.21
180.019	-879.9
180.402	76.92
180.785	66.08
181.168	85.22
181.55	177.19
181.933	139.16
182.316	123.38
182.698	128.21
183.081	158.87
183.463	112.96
183.846	134.73
184.228	107.81
184.611	96.93
184.993	83.08
185.376	101.11
185.758	154.14
186.14	168.98
186.522	191.51
186.904	173.66
187.287	116.37
187.669	119.47
188.051	114.21
188.433	180.02
188.815	235.22
189.197	230.08
189.579	193.54
189.961	154.15
190.342	139.41
190.724	367.64
191.106	567.78
191.488	-1678.44
191.869	-588.8
192.251	-588.2
192.633	-485.24
193.014	-2145.51
193.396	-913.38
193.777	-1517.8
194.159	-2521.05
194.54	-755.91
194.922	-1893.29
195.303	-286.47
195.684	-197.34
196.065	-102.85
196.447	-213.02
196.828	-137.51
197.209	-112.65
197.59	-136.56
197.971	-82.21
198.352	-56.62
198.733	-69.86
199.114	-41.16
199.495	-62.97
199.876	-43.72
200.257	-60.02
200.638	-49.57
201.018	-54.83
201.399	-97.1
201.78	-95.38
202.16	-123.93
202.541	-228.56
202.922	-261.26
203.302	-278.23
203.683	-241.27
204.063	-417.93
204.444	-392.84
204.824	-573.33
205.204	-481.91
205.585	-379.72
205.965	-417.41
206.345	-3781.12
206.725	1510.39
207.106	715.47
207.486	502.92
207.866	509.19
208.246	548.86
208.626	850.87
209.006	664.53
209.386	636.84
209.766	746.91
210.145	1028.44
210.525	-3556.93
210.905	-690.95
211.285	-1748.98
211.664	-7679.66
212.044	-11814.29
212.424	-828.73
212.803	6542.62
213.183	-2047.21
213.562	-1047.31
213.942	-468.88
214.321	-173.35
214.701	-124.55
215.08	-103.13
215.459	-82.76
215.838	-52.18
216.218	-56.19
216.597	-38.72
216.976	-27.22
217.355	-33.4
217.734	-56.75
218.113	-50.08
218.492	-56.77
218.871	-78.34
219.25	-69.08
219.629	-76.22
220.008	-73.21
220.387	-84.88
220.766	-69.72
221.144	-94.64
221.523	-97.92
221.902	-120.73
222.28	-129.03
222.659	-126.97
223.037	-111.23
223.416	-137.83
223.794	-159.11
224.173	-136.5
224.551	-111.25
224.929	-113.37
225.308	-79.38
225.686	-64.35
226.064	-50.53
226.442	-40.99
226.821	-30.57
227.199	-27.1
227.577	-26.79
227.955	-24.81
228.333	-20.72
228.711	-18.44
229.089	-13.03
229.467	-13.64
229.845	-12.02
230.222	-8.07
230.6	-8.54
230.978	-5.83
231.356	-1.55
231.733	-0.54
232.111	1.89
232.488	1.5
232.866	5.23
233.243	3.71
233.621	4.18
233.998	4.37
234.376	2.91
234.753	3.39
235.13	1.78
235.508	2.53
235.885	3.49
236.262	2.21
236.639	1.21
237.016	0.72
237.393	2.91
237.77	2.63
238.147	1.56
238.524	2.18
238.901	2.53
239.278	2.2
239.655	2.21
240.032	2.86
240.409	3.2
240.785	2.52
241.162	2.74
241.539	2.79
241.915	2.69
242.292	2.86
242.668	3.15
243.045	3.58
243.421	4.29
243.798	4.04
244.174	4.04
244.551	4.14
244.927	4.29
245.303	4.01
245.679	4.1
246.056	4.11
246.432	4.27
246.808	4.02
247.184	3.71
247.56	3.61
247.936	3.39
248.312	3.1
248.688	3.06
249.064	3.11
249.44	3.15
249.815	2.63
250.191	2.79
250.567	2.54
250.943	2.34
251.318	2.09
251.694	2.07
252.069	1.99
252.445	1.88
252.82	1.81
253.196	1.81
253.571	1.8
253.947	1.64
254.322	1.51
254.697	1.65
255.073	2.01
255.448	1.96
255.823	2.22
256.198	2.38
256.573	2.67
256.948	2.77
257.323	3.02
257.698	3.46
258.073	3.37
258.448	3.44
258.823	3.61
259.198	3.53
259.573	3.61
259.948	3.77
260.322	3.76
260.697	3.62
261.072	3.57
261.446	3.47
261.821	3.44
262.195	3.55
262.57	3.56
262.944	3.5
263.319	3.77
263.693	3.66
264.067	3.7
264.442	3.69
264.816	3.67
265.19	3.66
265.564	3.61
265.938	3.39
266.313	3.52
266.687	3.3
267.061	3.34
267.435	3.37
267.809	3.5
268.183	3.56
268.556	3.56
268.93	3.68
269.304	3.89
269.678	4.03
270.051	3.91
270.425	3.83
270.799	3.83
271.172	3.69
271.546	3.71
271.919	3.71
272.293	3.77
272.666	3.64
273.04	3.61
273.413	3.71
273.787	3.84
274.16	3.76
274.533	3.83
274.906	3.84
275.279	3.66
275.653	3.4
276.026	3.33
276.399	3.4
276.772	3.31
277.145	3.21
277.518	3.07
277.891	3.1
278.263	3.15
278.636	3.23
279.009	3.27
279.382	3.48
279.755	3.5
280.127	3.43
280.5	3.62
280.872	3.57
281.245	3.4
281.617	3.52
281.99	3.56
282.362	3.6
282.735	3.52
283.107	3.67
283.479	3.76
283.852	3.75
284.224	3.67
284.596	3.86
284.968	3.87
285.34	3.93
285.713	3.93
286.085	3.93
286.457	3.93
286.829	3.91
287.201	3.75
287.572	3.71
287.944	3.65
288.316	3.6
288.688	3.57
289.06	3.6
289.431	3.56
289.803	3.59
290.175	3.49
290.546	3.56
290.918	3.57
291.289	3.62
291.661	3.66
292.032	3.78
292.403	3.68
292.775	3.77
293.146	3.72
293.517	3.66
293.889	3.73
294.26	3.72
294.631	3.69
295.002	3.73
295.373	3.77
295.744	3.88
296.115	3.91
296.486	3.82
296.857	3.82
297.228	3.93
297.599	3.85
297.97	4.03
298.34	4.2
298.711	4.2
299.082	4.21
299.452	4.29
299.823	4.4
300.194	4.4
300.564	4.3
300.935	4.47
301.305	4.56
301.676	4.56
302.046	4.61
302.416	4.79
302.787	4.83
303.157	4.91
303.527	4.81
303.897	4.88
304.267	5.03
304.637	5.07
305.008	4.92
305.378	5.11
305.748	5.02
306.117	4.88
306.487	5.01
306.857	5.06
307.227	5
307.597	4.89
307.967	4.9
308.336	4.92
308.706	4.88
309.076	4.8
309.445	4.78
309.815	4.67
310.184	4.47
310.554	4.5
310.923	4.47
311.293	4.44
311.662	4.41
312.031	4.38
312.401	4.36
312.77	4.46
313.139	4.34
313.508	4.32
313.877	4.19
314.246	4.09
314.616	4.1
314.985	4.23
315.353	4.11
315.722	4.1
316.091	3.98
316.46	3.85
316.829	3.92
317.198	3.94
317.567	4.08
317.935	4.17
318.304	4.1
318.672	3.9
319.041	4.11
319.41	4.08
319.778	4.06
320.147	4.07
320.515	4
320.883	3.92
321.252	3.99
321.62	4.12
321.988	4.09
322.357	3.93
322.725	3.73
323.093	3.91
323.461	3.98
323.829	4.08
324.197	4.2
324.565	4.07
324.933	4.14
325.301	3.98
325.669	3.94
326.037	4
326.405	4.12
326.772	4.04
327.14	4.06
327.508	4.04
327.875	3.99
328.243	4.07
328.61	4.17
328.978	4.03
329.346	4.11
329.713	4.01
330.08	4.1
330.448	3.98
330.815	3.82
331.182	3.71
331.55	3.67
331.917	3.59
332.284	3.73
332.651	3.68
333.018	3.75
333.385	3.75
333.752	3.62
334.119	3.52
334.486	3.37
334.853	3.4
335.22	3.41
335.587	3.54
335.954	3.49
336.32	3.55
336.687	3.66
337.054	3.66
337.42	3.8
337.787	3.71
338.153	3.9
338.52	4
338.886	4
339.253	3.98
339.619	4.02
339.986	3.99
340.352	4.04
340.718	4.04
341.084	4.16
341.451	4.28
341.817	4.43
342.183	4.6
342.549	4.61
342.915	4.68
343.281	4.68
343.647	4.64
344.013	4.53
344.379	4.61
344.745	4.66
345.11	4.63
345.476	4.74
345.842	4.73
346.208	4.72
346.573	4.71
346.939	4.84
347.304	4.86
347.67	4.76
348.035	4.78
348.401	4.78
348.766	4.75
349.132	4.66
349.497	4.65
349.862	4.58
350.228	4.49
350.593	4.42
350.958	4.42
351.323	4.44
351.688	4.53
352.053	4.52
352.418	4.37
352.783	4.42
353.148	4.37
353.513	4.36
353.878	4.43
354.243	4.47
354.608	4.47
354.972	4.46
355.337	4.59
355.702	4.56
356.066	4.64
356.431	4.59
356.795	4.71
357.16	4.71
357.524	4.72
357.889	4.76
358.253	4.77
358.618	4.8
358.982	4.8
359.346	4.73
359.71	4.72
360.075	4.74
360.439	4.72
360.803	4.75
361.167	4.75
361.531	4.73
361.895	4.7
362.259	4.69
362.623	4.73
362.987	4.7
363.351	4.67
363.714	4.68
364.078	4.69
364.442	4.59
364.806	4.6
365.169	4.59
365.533	4.59
365.896	4.58
366.26	4.56
366.623	4.6
366.987	4.64
367.35	4.59
367.714	4.67
368.077	4.63
368.44	4.63
368.803	4.62
369.167	4.63
369.53	4.67
369.893	4.69
370.256	4.66
370.619	4.68
370.982	4.65
371.345	4.6
371.708	4.66
372.071	4.69
372.434	4.65
372.797	4.69
373.159	4.72
373.522	4.78
373.885	4.75
374.247	4.7
374.61	4.69
374.973	4.68
375.335	4.63
375.698	4.68
376.06	4.7
376.423	4.72
376.785	4.74
377.147	4.76
377.51	4.74
377.872	4.76
378.234	4.81
378.596	4.85
378.958	4.85
379.321	4.84
379.683	4.88
380.045	4.94
380.407	4.89
380.769	4.86
381.13	4.79
381.492	4.84
381.854	4.88
382.216	4.89
382.578	4.92
382.939	4.95
383.301	4.92
383.663	4.87
384.024	4.88
384.386	4.91
384.747	4.9
385.109	4.91
385.47	4.88
385.832	4.87
386.193	4.89
386.554	4.89
386.916	4.86
387.277	4.84
387.638	4.81
387.999	4.85
388.36	4.86
388.721	4.93
389.082	4.92
389.443	4.94
389.804	4.92
390.165	4.91
390.526	4.92
390.887	4.96
391.248	4.99
391.609	5.02
391.969	4.98
392.33	5
392.691	4.98
393.051	5
393.412	4.98
393.772	4.95
394.133	5.01
394.493	5.01
394.854	5.03
395.214	5.04
395.574	5.03
395.935	5.07
396.295	5.07
396.655	5.02
397.015	4.99
397.376	5.01
397.736	5.02
398.096	5.01
398.456	5
398.816	5.02
399.176	4.96
399.535	4.93
399.895	4.9
400.255	4.96
400.615	4.97
400.975	4.95
401.334	4.94
401.694	4.94
402.054	4.96
402.413	4.97
402.773	4.96
403.132	4.96
403.492	4.93
403.851	4.92
404.211	4.96
404.57	4.96
404.929	5
405.288	5.01
405.648	5.02
406.007	5.02
406.366	4.97
406.725	5.01
407.084	5.05
407.443	5.04
407.802	5.03
408.161	5.03
408.52	4.98
408.879	5.02
409.238	5.02
409.596	4.98
409.955	4.96
410.314	5
410.673	5.02
411.031	5.01
411.39	5.02
411.748	5.05
412.107	5.07
412.465	5.05
412.824	5.09
413.182	5.09
413.54	5.1
413.899	5.16
414.257	5.17
414.615	5.13
414.974	5.17
415.332	5.18
415.69	5.18
416.048	5.2
416.406	5.2
416.764	5.19
417.122	5.24
417.48	5.24
417.838	5.23
418.195	5.22
418.553	5.24
418.911	5.23
419.269	5.21
419.626	5.21
419.984	5.18
420.342	5.18
420.699	5.16
421.057	5.18
421.414	5.18
421.772	5.16
422.129	5.18
422.486	5.17
422.844	5.17
423.201	5.17
423.558	5.19
423.915	5.17
424.273	5.17
424.63	5.16
424.987	5.18
425.344	5.17
425.701	5.18
426.058	5.17
426.415	5.18
426.772	5.19
427.128	5.18
427.485	5.21
427.842	5.19
428.199	5.2
428.555	5.19
428.912	5.17
429.269	5.18
429.625	5.16
429.982	5.15
430.338	5.16
430.695	5.17
431.051	5.14
431.407	5.16
431.764	5.15
432.12	5.13
432.476	5.12
432.832	5.11
433.189	5.11
433.545	5.11
433.901	5.1
434.257	5.1
434.613	5.11
434.969	5.12
435.325	5.16
435.681	5.17
436.036	5.18
436.392	5.18
436.748	5.19
437.104	5.23
437.459	5.25
437.815	5.23
438.171	5.24
438.526	5.27
438.882	5.28
439.237	5.29
439.593	5.32
439.948	5.33
440.304	5.34
440.659	5.34
441.014	5.36
441.369	5.36
441.725	5.35
442.08	5.36
442.435	5.36
442.79	5.35
443.145	5.35
443.5	5.34
443.855	5.35
444.21	5.35
444.565	5.35
444.92	5.34
445.275	5.34
445.629	5.33
445.984	5.33
446.339	5.34
446.693	5.33
447.048	5.32
447.403	5.32
447.757	5.31
448.112	5.32
448.466	5.31
448.82	5.32
449.175	5.34
449.529	5.33
449.883	5.3
450.238	5.29
450.592	5.29
450.946	5.27
451.3	5.27
451.654	5.26
452.008	5.25
452.362	5.24
452.716	5.24
453.07	5.25
453.424	5.24
453.778	5.24
454.132	5.25
454.486	5.25
454.839	5.25
455.193	5.25
455.547	5.24
455.9	5.26
456.254	5.26
456.607	5.24
456.961	5.25
457.314	5.26
457.668	5.27
458.021	5.27
458.375	5.28
458.728	5.29
459.081	5.28
459.434	5.28
459.787	5.29
460.141	5.29
460.494	5.3
460.847	5.29
461.2	5.28
461.553	5.28
461.906	5.27
462.259	5.26
462.611	5.26
462.964	5.27
463.317	5.26
463.67	5.28
464.022	5.28
464.375	5.27
464.728	5.29
465.08	5.3
465.433	5.3
465.785	5.32
466.138	5.33
466.49	5.35
466.843	5.35
467.195	5.37
467.547	5.36
467.899	5.35
468.252	5.37
468.604	5.38
468.956	5.37
469.308	5.4
469.66	5.42
470.012	5.45
470.364	5.48
470.716	5.49
471.068	5.48
471.42	5.47
471.772	5.51
472.123	5.51
472.475	5.54
472.827	5.56
473.178	5.58
473.53	5.57
473.882	5.57
474.233	5.59
474.585	5.59
474.936	5.62
475.288	5.64
475.639	5.66
475.99	5.7
476.342	5.73
476.693	5.74
477.044	5.77
477.395	5.77
477.746	5.75
478.097	5.75
478.448	5.75
478.8	5.76
479.15	5.74
479.501	5.76
479.852	5.76
480.203	5.77
480.554	5.78
480.905	5.78
481.255	5.79
481.606	5.8
481.957	5.8
482.307	5.8
482.658	5.79
483.009	5.8
483.359	5.78
483.709	5.78
484.06	5.77
484.41	5.78
484.761	5.79
485.111	5.79
485.461	5.8
485.811	5.79
486.162	5.8
486.512	5.81
486.862	5.8
487.212	5.81
487.562	5.8
487.912	5.79
488.262	5.79
488.612	5.8
488.961	5.8
489.311	5.81
489.661	5.81
490.011	5.82
490.36	5.82
490.71	5.83
491.06	5.82
491.409	5.84
491.759	5.83
492.108	5.83
492.458	5.82
492.807	5.81
493.157	5.84
493.506	5.84
493.855	5.84
494.204	5.84
494.554	5.84
494.903	5.85
495.252	5.85
495.601	5.86
495.95	5.85
496.299	5.87
496.648	5.86
496.997	5.87
497.346	5.88
497.695	5.89
498.043	5.91
498.392	5.93
498.741	5.94
499.09	5.97
499.438	5.98
499.787	6.02
500.135	6.05
500.484	6.06
500.832	6.09
501.181	6.11
501.529	6.14
501.878	6.15
502.226	6.16
502.574	6.2
502.923	6.22
503.271	6.25
503.619	6.25
503.967	6.25
504.315	6.27
504.663	6.29
505.011	6.32
505.359	6.33
505.707	6.34
506.055	6.36
506.403	6.36
506.751	6.38
507.098	6.38
507.446	6.4
507.794	6.4
508.141	6.43
508.489	6.45
508.837	6.47
509.184	6.5
509.531	6.52
509.879	6.54
510.226	6.57
510.574	6.59
510.921	6.6
511.268	6.63
511.616	6.65
511.963	6.69
512.31	6.66
512.657	6.67
513.004	6.7
513.351	6.73
513.698	6.76
514.045	6.76
514.392	6.79
514.739	6.81
515.086	6.83
515.432	6.84
515.779	6.86
516.126	6.88
516.473	6.91
516.819	6.94
517.166	6.95
517.512	6.96
517.859	6.96
518.205	6.99
518.552	7
518.898	7.01
519.245	7.01
519.591	7.04
519.937	7.05
520.283	7.06
520.629	7.06
520.976	7.08
521.322	7.11
521.668	7.12
522.014	7.14
522.36	7.15
522.706	7.15
523.052	7.14
523.398	7.17
523.743	7.17
524.089	7.17
524.435	7.2
524.781	7.21
525.126	7.25
525.472	7.27
525.817	7.28
526.163	7.29
526.509	7.3
526.854	7.32
527.199	7.33
527.545	7.32
527.89	7.33
528.235	7.32
528.581	7.33
528.926	7.34
529.271	7.35
529.616	7.34
529.961	7.35
530.306	7.37
530.651	7.38
530.996	7.38
531.341	7.38
531.686	7.37
532.031	7.38
532.376	7.37
532.721	7.35
533.065	7.35
533.41	7.37
533.755	7.36
534.099	7.36
534.444	7.35
534.788	7.37
535.133	7.36
535.477	7.38
535.822	7.37
536.166	7.37
536.51	7.39
536.855	7.41
537.199	7.42
537.543	7.43
537.887	7.43
538.231	7.45
538.576	7.47
538.92	7.49
539.264	7.48
539.608	7.5
539.951	7.53
540.295	7.54
540.639	7.54
540.983	7.55
541.327	7.55
541.671	7.57
542.014	7.56
542.358	7.58
542.701	7.58
543.045	7.59
543.389	7.58
543.732	7.57
544.075	7.59
544.419	7.6
544.762	7.59
545.105	7.62
545.449	7.61
545.792	7.59
546.135	7.6
546.478	7.61
546.821	7.59
547.165	7.6
547.508	7.61
547.851	7.6
548.194	7.63
548.536	7.64
548.879	7.64
549.222	7.65
549.565	7.65
549.908	7.67
550.25	7.66
550.593	7.67
550.936	7.67
551.278	7.67
551.621	7.69
551.963	7.7
552.306	7.68
552.648	7.7
552.991	7.74
553.333	7.74
553.675	7.75
554.017	7.77
554.36	7.77
554.702	7.78
555.044	7.81
555.386	7.82
555.728	7.81
556.07	7.85
556.412	7.83
556.754	7.86
557.096	7.85
557.438	7.88
557.78	7.88
558.121	7.9
558.463	7.89
558.805	7.9
559.147	7.9
559.488	7.91
559.83	7.89
560.171	7.86
560.513	7.9
560.854	7.91
561.196	7.91
561.537	7.92
561.878	7.92
562.22	7.92
562.561	7.9
562.902	7.96
563.243	7.91
563.584	7.93
563.925	7.92
564.266	7.92
564.607	7.92
564.948	7.93
565.289	7.93
565.63	7.94
565.971	7.91
566.312	7.91
566.653	7.89
566.993	7.91
567.334	7.92
567.675	7.9
568.015	7.9
568.356	7.9
568.696	7.9
569.037	7.9
569.377	7.91
569.718	7.9
570.058	7.89
570.398	7.9
570.739	7.93
571.079	7.91
571.419	7.93
571.759	7.95
572.099	7.96
572.439	7.96
572.779	7.94
573.119	7.99
573.459	8.01
573.799	8.06
574.139	8.08
574.479	8.07
574.819	8.1
575.158	8.09
575.498	8.11
575.838	8.12
576.177	8.1
576.517	8.1
576.856	8.12
577.196	8.12
577.535	8.15
577.875	8.13
578.214	8.16
578.553	8.16
578.893	8.14
579.232	8.14
579.571	8.18
579.91	8.21
580.25	8.18
580.589	8.17
580.928	8.15
581.267	8.13
581.606	8.13
581.945	8.13
582.283	8.15
582.622	8.11
582.961	8.11
583.3	8.15
583.639	8.18
583.977	8.19
584.316	8.18
584.654	8.17
584.993	8.17
585.332	8.2
585.67	8.23
586.008	8.23
586.347	8.24
586.685	8.22
587.024	8.2
587.362	8.22
587.7	8.24
588.038	8.26
588.376	8.3
588.715	8.28
589.053	8.28
589.391	8.33
589.729	8.36
590.067	8.31
590.404	8.33
590.742	8.32
591.08	8.33
591.418	8.37
591.756	8.36
592.093	8.36
592.431	8.35
592.769	8.38
593.106	8.39
593.444	8.37
593.781	8.38
594.119	8.42
594.456	8.41
594.793	8.41
595.131	8.38
595.468	8.36
595.805	8.4
596.143	8.42
596.48	8.36
596.817	8.35
597.154	8.4
597.491	8.4
597.828	8.43
598.165	8.42
598.502	8.4
598.839	8.43
599.176	8.44
599.512	8.44
599.849	8.43
600.186	8.46
600.523	8.49
600.859	8.51
601.196	8.53
601.532	8.54
601.869	8.5
602.205	8.54
602.542	8.58
602.878	8.59
603.215	8.58
603.551	8.6
603.887	8.62
604.223	8.62
604.56	8.61
604.896	8.61
605.232	8.63
605.568	8.62
605.904	8.59
606.24	8.63
606.576	8.64
606.912	8.62
607.248	8.59
607.583	8.6
607.919	8.59
608.255	8.56
608.591	8.57
608.926	8.63
609.262	8.62
609.597	8.61
609.933	8.6
610.268	8.62
610.604	8.65
610.939	8.64
611.275	8.64
611.61	8.66
611.945	8.62
612.281	8.63
612.616	8.64
612.951	8.65
613.286	8.66
613.621	8.69
613.956	8.68
614.291	8.7
614.626	8.69
614.961	8.69
615.296	8.65
615.631	8.65
615.966	8.65
616.3	8.62
616.635	8.61
616.97	8.62
617.304	8.58
617.639	8.62
617.973	8.66
618.308	8.7
618.642	8.71
618.977	8.75
619.311	8.74
619.646	8.76
619.98	8.83
620.314	8.8
620.648	8.76
620.983	8.77
621.317	8.79
621.651	8.89
621.985	8.91
622.319	8.98
622.653	9
622.987	9
623.321	9.05
623.655	9.07
623.988	9.17
624.322	9.21
624.656	9.19
624.99	9.24
625.323	9.23
625.657	9.3
625.99	9.37
626.324	9.36
626.657	9.39
626.991	9.38
627.324	9.42
627.658	9.43
627.991	9.5
628.324	9.47
628.657	9.41
628.991	9.42
629.324	9.4
629.657	9.42
629.99	9.44
630.323	9.43
630.656	9.41
630.989	9.35
631.322	9.36
631.655	9.37
631.987	9.32
632.32	9.34
632.653	9.24
632.986	9.14
633.318	9.19
633.651	9.13
633.984	9.16
634.316	9.11
634.649	9.1
634.981	9.06
635.313	9.12
635.646	9.08
635.978	9.07
636.31	9.09
636.643	9.09
636.975	9.09
637.307	9.08
637.639	9.09
637.971	9.07
638.303	9.02
638.635	8.99
638.967	9.01
639.299	9.04
639.631	9.05
639.963	9.06
640.295	9.06
640.626	9.13
640.958	9.05
641.29	9.14
641.621	9.19
641.953	9.17
642.285	9.16
642.616	9.24
642.948	9.23
643.279	9.25
643.61	9.23
643.942	9.17
644.273	9.18
644.604	9.14
644.936	9.21
645.267	9.26
645.598	9.26
645.929	9.25
646.26	9.26
646.591	9.22
646.922	9.29
647.253	9.26
647.584	9.24
647.915	9.22
648.245	9.16
648.576	9.16
648.907	9.13
649.238	9.1
649.568	9.13
649.899	9.12
650.229	9.11
650.56	9.1
650.89	9.23
651.221	9.24
651.551	9.28
651.882	9.24
652.212	9.26
652.542	9.28
652.872	9.26
653.203	9.2
653.533	9.28
653.863	9.29
654.193	9.32
654.523	9.35
654.853	9.42
655.183	9.44
655.513	9.44
655.843	9.48
656.172	9.56
656.502	9.56
656.832	9.68
657.162	9.67
657.491	9.7
657.821	9.63
658.15	9.68
658.48	9.67
658.809	9.62
659.139	9.58
659.468	9.55
659.798	9.6
660.127	9.65
660.456	9.62
660.785	9.67
661.115	9.66
661.444	9.67
661.773	9.77
662.102	9.82
662.431	9.85
662.76	9.91
663.089	9.9
663.418	9.87
663.747	9.78
664.076	9.81
664.404	9.8
664.733	9.89
665.062	9.78
665.39	9.86
665.719	9.85
666.048	9.96
666.376	9.98
666.705	10.01
667.033	9.93
667.362	10
667.69	9.89
668.018	9.92
668.347	9.87
668.675	9.75
669.003	9.7
669.331	9.74
669.659	9.7
669.987	9.72
670.315	9.7
670.643	9.68
670.971	9.68
671.299	9.73
671.627	9.63
671.955	9.63
672.283	9.64
672.61	9.72
672.938	9.65
673.266	9.7
673.593	9.73
673.921	9.76
674.249	9.73
674.576	9.76
674.904	9.73
675.231	9.72
675.558	9.74
675.886	9.72
676.213	9.66
676.54	9.63
676.867	9.69
677.195	9.76
677.522	9.84
677.849	9.87
678.176	9.85
678.503	9.94
678.83	10.02
679.157	10.04
679.484	10.03
679.81	10.03
680.137	10.03
680.464	9.92
680.791	9.95
681.117	10.01
681.444	10.06
681.771	10.1
682.097	10.14
682.424	10.14
682.75	10.25
683.077	10.23
683.403	10.27
683.729	10.26
684.056	10.28
684.382	10.26
684.708	10.19
685.034	10.12
685.36	10.05
685.686	10.05
686.012	9.97
686.339	10.08
686.664	10.07
686.99	10.06
687.316	10.11
687.642	10.13
687.968	10.06
688.294	10.02
688.619	10.06
688.945	10.03
689.271	10
689.596	9.8
689.922	9.88
690.247	9.87
690.573	9.73
690.898	9.67
691.224	9.79
691.549	9.88
691.874	9.92
692.2	9.98
692.525	10.05
692.85	10.21
693.175	10.12
693.5	10.11
693.825	10.07
694.15	9.98
694.475	9.94
694.8	10
695.125	10.03
695.45	10.01
695.775	10.12
696.099	10.3
696.424	10.43
696.749	10.41
697.073	10.41
697.398	10.53
697.723	10.55
698.047	10.43
698.372	10.41
698.696	10.48
699.02	10.47
699.345	10.38
699.669	10.32
699.993	10.32
700.318	10.39
700.642	10.44
700.966	10.46
701.29	10.57
701.614	10.55
701.938	10.49
702.262	10.56
702.586	10.45
702.91	10.29
703.234	10.26
703.557	10.3
703.881	10.25
704.205	10.14
704.529	10.06
704.852	10.18
705.176	10.15
705.499	10.23
705.823	10.23
706.146	10.25
706.47	10.28
706.793	10.22
707.117	10.24
707.44	10.28
707.763	10.46
708.086	10.38
708.409	10.34
708.733	10.31
709.056	10.2
709.379	10.27
709.702	10.21
710.025	10.24
710.348	10.15
710.671	10.28
710.993	10.42
711.316	10.53
711.639	10.55
711.962	10.76
712.284	10.77
712.607	10.79
712.93	10.89
713.252	10.91
713.575	11.02
713.897	11.01
714.22	11.09
714.542	11.03
714.864	11.08
715.187	11.2
715.509	11.43
715.831	11.51
716.153	11.47
716.475	11.65
716.798	11.68
717.12	11.73
717.442	11.75
717.764	11.7
718.085	11.58
718.407	11.55
718.729	11.37
719.051	11.28
719.373	11.18
719.695	11.08
720.016	11.18
720.338	11.15
720.659	11.1
720.981	11.02
721.302	11.06
721.624	11
721.945	11.06
722.267	11.18
722.588	11.11
722.909	11.31
723.231	11.25
723.552	11.09
723.873	11.08
724.194	10.92
724.515	10.93
724.836	11.04
725.157	11.09
725.478	10.98
725.799	11.12
726.12	11.12
726.441	11.2
726.762	11.12
727.083	11.16
727.403	11.14
727.724	11.18
728.045	11.21
728.365	11.28
728.686	11.17
729.006	10.99
729.327	10.99
729.647	10.86
729.967	10.74
730.288	10.97
730.608	10.84
730.928	10.92
731.249	10.84
731.569	10.99
731.889	10.96
732.209	11.17
732.529	11.1
732.849	11.16
733.169	11.03
733.489	10.98
733.809	11
734.129	10.98
734.448	10.97
734.768	10.86
735.088	10.85
735.408	10.86
735.727	10.95
736.047	11.11
736.366	11.05
736.686	11.18
737.005	11.28
737.325	11.53
737.644	11.38
737.963	11.45
738.283	11.25
738.602	11.24
738.921	11.34
739.24	11.44
739.56	11.49
739.879	11.59
740.198	11.68
740.517	11.78
740.836	11.91
741.155	11.94
741.473	11.97
741.792	11.84
742.111	11.94
742.43	12.16
742.748	12.02
743.067	12.28
743.386	12.31
743.704	12.34
744.023	12.41
744.341	12.54
744.66	12.76
744.978	12.75
745.297	12.95
745.615	12.83
745.933	12.67
746.252	12.61
746.57	12.57
746.888	12.66
747.206	12.35
747.524	12.11
747.842	12.08
748.16	12.26
748.478	12.53
748.796	12.65
749.114	12.33
749.432	12.33
749.749	12.32
750.067	12.2
750.385	11.94
750.703	12.01
751.02	12.11
751.338	11.93
751.655	12.06
751.973	12.12
752.29	12.15
752.608	12.21
752.925	12.31
753.242	12.35
753.56	12.12
753.877	12.25
754.194	12.52
754.511	12.75
754.828	12.7
755.145	12.45
755.462	12.22
755.779	12.55
756.096	12.52
756.413	12.4
756.73	12.72
757.047	12.7
757.364	12.5
757.68	12.58
757.997	12.72
758.314	12.74
758.63	12.38
758.947	12.4
759.264	12.03
759.58	12.02
759.896	12.16
760.213	12.31
760.529	12.61
760.846	12.61
761.162	12.18
761.478	12.2
761.794	12.13
762.11	12.17
762.426	12.07
762.743	12.03
763.059	12.11
763.375	12.07
763.69	12.09
764.006	12.21
764.322	12.27
764.638	12.22
764.954	12.23
765.27	12.23
765.585	12.17
765.901	12.43
766.216	12.49
766.532	12.43
766.848	12.23
767.163	12.03
767.478	11.84
767.794	12.17
768.109	12.11
768.424	12.31
768.74	12.32
769.055	12.22
769.37	12.4
769.685	12.32
770	12.41
770.315	12.5
770.63	12.57
770.945	12.52
771.26	12.62
771.575	12.49
771.89	12.78
772.205	12.58
772.52	12.63
772.834	12.59
773.149	12.64
773.464	13.05
773.778	13.06
774.093	13.18
774.407	13.46
774.722	13.32
775.036	13.53
775.351	13.49
775.665	13.27
775.979	12.92
776.293	12.66
776.608	12.52
776.922	12.37
777.236	12.41
777.55	12.48
777.864	12.26
778.178	12.39
778.492	12.31
778.806	12.32
779.12	12.25
779.434	12.33
779.747	12.48
780.061	12.19
780.375	12.23
780.689	12.41
781.002	12.21
781.316	12.33
781.629	12.12
781.943	12.65
782.256	12.91
782.57	13.21
782.883	13.64
783.196	13.37
783.51	13.3
783.823	13.12
784.136	13.13
784.449	13.28
784.762	13.14
785.075	13.37
785.388	13.54
785.701	13.8
786.014	13.49
786.327	13.26
786.64	13.51
786.953	13.63
787.266	13.58
787.578	13.06
787.891	13.56
788.204	13.28
788.516	12.76
788.829	12.72
789.141	12.8
789.454	12.89
789.766	13.27
790.079	13.5
790.391	13.48
790.703	13.4
791.016	13.24
791.328	13.2
791.64	12.8
791.952	12.88
792.264	12.08
792.576	11.94
792.888	12.06
793.2	12.34
793.512	12.24
793.824	12.58
794.136	12.76
794.448	12.4
794.76	12.64
795.071	12.46
795.383	12.33
795.695	11.9
796.006	11.85
796.318	11.42
796.629	11.56
796.941	11.8
797.252	11.62
797.564	11.68
797.875	12.41
798.186	12.51
798.497	12.63
798.809	13.23
799.12	13.68
799.431	13.46
799.742	12.92
800.053	13.16
800.364	12.83
800.675	12.64
800.986	12.69
801.297	12.73
801.608	12.58
801.918	12.6
802.229	13.05
802.54	13.29
802.851	13.71
803.161	14.01
803.472	13.75
803.782	13.97
804.093	14.02
804.403	13.83
804.714	14.18
805.024	14.09
805.334	14.91
805.645	15.1
805.955	15.76
806.265	16.06
806.575	15.9
806.885	16
807.195	16.68
807.505	16.39
807.815	17.01
808.125	17.4
808.435	17.36
808.745	17.19
809.055	16.92
809.365	16.54
809.674	16.26
809.984	16.44
810.294	16.06
810.603	16.07
810.913	16.05
811.222	16.04
811.532	16.11
811.841	15.62
812.151	16.01
812.46	15.53
812.769	15.63
813.079	15.69
813.388	15.8
813.697	15.52
814.006	15.78
814.315	14.81
814.624	14.6
814.933	15.1
815.242	15.37
815.551	15.36
815.86	16.05
816.169	15.49
816.478	15.67
816.786	15.97
817.095	16.45
817.404	16.98
817.712	16.58
818.021	16.66
818.33	16.48
818.638	16.41
818.947	16.72
819.255	16.86
819.563	17
819.872	17.21
820.18	17.3
820.488	17.37
820.796	17.47
821.105	17.51
821.413	17.5
821.721	17.25
822.029	17.19
822.337	17.06
822.645	17.2
822.953	16.92
823.26	16.96
823.568	16.82
823.876	16.72
824.184	16.83
824.491	16.84
824.799	16.83
825.107	16.64
825.414	16.59
825.722	16.5
826.029	16.54
826.337	16.44
826.644	16.39
826.951	16.35
827.259	16.41
827.566	16.55
827.873	16.32
828.18	16.57
828.488	16.42
828.795	16.45
829.102	16.41
829.409	16.89
829.716	16.82
830.023	16.85
830.329	16.71
830.636	16.51
830.943	16.43
831.25	16.36
831.557	16.42
831.863	16.61
832.17	16.36
832.476	16.25
832.783	16.39
833.089	15.85
833.396	15.62
833.702	15.45
834.009	14.91
834.315	14.91
834.621	14.46
834.928	14.54
835.234	14.5
835.54	14.1
835.846	13.71
836.152	13.84
836.458	13.97
836.764	13.75
837.07	13.93
837.376	13.63
837.682	13.7
837.988	13.79
838.293	13.09
838.599	13.59
838.905	12.85
839.211	12.39
839.516	13.05
839.822	13
840.127	12.85
840.433	13.37
840.738	13.61
841.044	14.12
841.349	14.36
841.654	14.39
841.959	14.92
842.265	14.42
842.57	14.32
842.875	14.26
843.18	14.6
843.485	14.59
843.79	14.21
844.095	14.09
844.4	15.67
844.705	15.38
845.01	15.19
845.315	14.95
845.619	14.6
845.924	14.14
846.229	14.28
846.533	14.2
846.838	14.82
847.142	14.84
847.447	14.77
847.751	14.54
848.056	14.25
848.36	14.04
848.664	15.44
848.969	15.48
849.273	14.56
849.577	13.71
849.881	12.8
850.185	14.42
850.489	15.05
850.794	11.74
851.097	11.91
851.401	12.2
851.705	13.07
852.009	13.37
852.313	13.51
852.617	13.69
852.92	15.7
853.224	12.78
853.528	12.81
853.831	11.83
854.135	11.53
854.438	11.46
854.742	11.56
855.045	10.05
855.349	9.97
855.652	11.31
855.955	13.41
856.259	12.23
856.562	12.87
856.865	12.31
857.168	12.46
857.471	14.81
857.774	14.73
858.077	14.84
858.38	14.51
858.683	13.57
858.986	14.17
859.289	12.25
859.592	12.63
859.894	10.93
860.197	11.66
860.5	12.09
860.802	12.09
861.105	13.39
861.407	12.9
861.71	12.57
862.012	12.67
862.315	11.13
862.617	11.2
862.919	9.52
863.222	9.74
863.524	11.04
863.826	8.91
864.128	8.26
864.43	7.66
864.732	8.02
865.034	9.1
865.336	8.42
865.638	6.49
865.94	6.98
866.242	8.78
866.544	7.49
866.846	7.91
867.147	7.65
867.449	6.15
867.751	8.6
868.052	8.83
868.354	6.64
868.655	10.03
868.957	9.85
869.258	10.45
869.56	9.85
869.861	8.48
870.162	8.52
870.463	7.44
870.765	7.26
871.066	7.64
871.367	5.98
871.668	5.34
871.969	5.91
872.27	5.09
872.571	4.79
872.872	6.74
873.173	6.47
873.473	7.44
873.774	8.39
874.075	5.83
874.376	5.68
874.676	7.94
874.977	3.92
875.277	6.05
875.578	5.75
875.878	5.62
876.179	6.04
876.479	7.05
876.78	7.11
877.08	8.23
877.38	7
877.68	9.5
877.981	9.45
878.281	10.94
878.581	14.16
