Data from BA56825_Reflection_00003.txt Node
Date: Mon Nov 18 15:37:18 EST 2019
User: vgr7
Spectrometer: USB2G7710
Scans to average: 3
Trigger mode: 4
Integration Time (sec): 2.000000E-2
Electric dark correction enabled: true
Boxcar width: 10
XAxis mode: Wavelengths
Number of Pixels in Spectrum: 2048
>>>>>Begin Spectral Data<<<<<
177.721	598.83
178.105	108.04
178.488	72.61
178.871	93.8
179.254	108.66
179.636	56.61
180.019	93.17
180.402	27.27
180.785	-91.68
181.168	-31.68
181.55	629.41
181.933	55.67
182.316	15.51
182.698	2.31
183.081	23.84
183.463	-59.52
183.846	-9.31
184.228	-276.21
184.611	-253.42
184.993	-90.98
185.376	-97.02
185.758	-132.93
186.14	-258.17
186.522	-200.22
186.904	-171.53
187.287	-318.66
187.669	-145.32
188.051	-99.85
188.433	-83.43
188.815	-84.92
189.197	-93.3
189.579	-77
189.961	-103.83
190.342	-94.21
190.724	-83.27
191.106	-105.05
191.488	-108.75
191.869	-92.53
192.251	-109.63
192.633	-90.95
193.014	-109.45
193.396	-114.47
193.777	-82.52
194.159	-50.89
194.54	-41.85
194.922	-50.36
195.303	-40.39
195.684	-37.73
196.065	-36.44
196.447	-36.59
196.828	-44.52
197.209	-36.19
197.59	-48.6
197.971	-42.3
198.352	-39.57
198.733	-27.97
199.114	-13.25
199.495	-17.17
199.876	-15.98
200.257	-7.28
200.638	-3.02
201.018	-12.73
201.399	-17.93
201.78	-16.88
202.16	-24.14
202.541	-35.29
202.922	-22.14
203.302	-31.75
203.683	-31.85
204.063	-48.66
204.444	-47.87
204.824	-40.51
205.204	-44.95
205.585	-36.97
205.965	-46.56
206.345	-65.09
206.725	-83.22
207.106	-104.49
207.486	-113.52
207.866	-129.02
208.246	-166.89
208.626	-150.73
209.006	-61.07
209.386	-56.89
209.766	-68.97
210.145	-56.44
210.525	-47.1
210.905	-39.65
211.285	-24.86
211.664	-28.7
212.044	-26.35
212.424	-26.93
212.803	-46.65
213.183	-31.62
213.562	-36.41
213.942	-23.31
214.321	5.04
214.701	-0.71
215.08	-14.48
215.459	-15.99
215.838	-34.72
216.218	-39.51
216.597	-42.44
216.976	-58.66
217.355	-43.04
217.734	-55.3
218.113	-53.64
218.492	-49.22
218.871	-57.77
219.25	-63.33
219.629	-48.92
220.008	-46.93
220.387	-36.05
220.766	-22.49
221.144	-37.33
221.523	-52.67
221.902	-59.7
222.28	-96.3
222.659	-65.56
223.037	-50.22
223.416	-51.8
223.794	-36.48
224.173	-35.92
224.551	-26.72
224.929	-30.87
225.308	-20.58
225.686	-20.24
226.064	-19.1
226.442	-15.69
226.821	-11.55
227.199	-11.35
227.577	-10.9
227.955	-6.77
228.333	-4.62
228.711	-1.01
229.089	2.19
229.467	3.92
229.845	4.66
230.222	6.53
230.6	5.35
230.978	8.52
231.356	9.81
231.733	9.18
232.111	10.97
232.488	11.1
232.866	11.92
233.243	9.7
233.621	9.36
233.998	8.11
234.376	6.71
234.753	4.72
235.13	4.57
235.508	5.31
235.885	5.85
236.262	4.92
236.639	2.91
237.016	2.23
237.393	3
237.77	3.51
238.147	4.06
238.524	3.79
238.901	2.53
239.278	3.31
239.655	3.91
240.032	3.73
240.409	3.29
240.785	3.69
241.162	3.71
241.539	4.45
241.915	4.74
242.292	4.63
242.668	5.21
243.045	5.56
243.421	5.27
243.798	4.6
244.174	4.72
244.551	5.02
244.927	5.07
245.303	5.05
245.679	5.12
246.056	5.01
246.432	5.15
246.808	5.28
247.184	5.17
247.56	5.09
247.936	5.09
248.312	5.24
248.688	5.2
249.064	5.25
249.44	5.23
249.815	5.25
250.191	5.28
250.567	5.27
250.943	5.17
251.318	5.17
251.694	5.22
252.069	5.18
252.445	5.2
252.82	5.41
253.196	5.33
253.571	5.35
253.947	5.3
254.322	5.42
254.697	5.42
255.073	4.89
255.448	4.67
255.823	4.82
256.198	4.9
256.573	4.73
256.948	5.19
257.323	5.37
257.698	5.53
258.073	5.55
258.448	5.63
258.823	5.65
259.198	5.68
259.573	5.79
259.948	5.73
260.322	5.76
260.697	5.44
261.072	5.48
261.446	5.45
261.821	5.55
262.195	5.51
262.57	5.49
262.944	5.56
263.319	5.77
263.693	5.55
264.067	5.56
264.442	5.69
264.816	5.54
265.19	5.34
265.564	5.2
265.938	5
266.313	4.97
266.687	5.05
267.061	5.16
267.435	5.14
267.809	5.26
268.183	5.07
268.556	5.15
268.93	5.4
269.304	5.35
269.678	5.33
270.051	5.3
270.425	5.26
270.799	5.33
271.172	5.23
271.546	5.42
271.919	5.3
272.293	5.16
272.666	5.11
273.04	5
273.413	5
273.787	5.09
274.16	5.19
274.533	5.16
274.906	4.9
275.279	4.78
275.653	4.63
276.026	4.61
276.399	4.63
276.772	4.6
277.145	4.6
277.518	4.6
277.891	4.68
278.263	4.61
278.636	4.61
279.009	4.63
279.382	4.57
279.755	4.57
280.127	4.85
280.5	5
280.872	5.28
281.245	5.29
281.617	5.37
281.99	5.23
282.362	5.24
282.735	5.34
283.107	5.41
283.479	5.51
283.852	5.54
284.224	5.62
284.596	5.51
284.968	5.55
285.34	5.62
285.713	5.54
286.085	5.68
286.457	5.78
286.829	5.83
287.201	5.84
287.572	5.73
287.944	5.61
288.316	5.48
288.688	5.43
289.06	5.41
289.431	5.52
289.803	5.69
290.175	5.77
290.546	5.92
290.918	5.95
291.289	5.91
291.661	6.04
292.032	6.1
292.403	6.2
292.775	6.17
293.146	6.13
293.517	6.08
293.889	6.03
294.26	5.94
294.631	5.85
295.002	5.84
295.373	6.08
295.744	6.22
296.115	6.31
296.486	6.18
296.857	6.2
297.228	6.22
297.599	6.08
297.97	6.09
298.34	6.05
298.711	6.09
299.082	6.15
299.452	6.21
299.823	6.24
300.194	6.18
300.564	6.26
300.935	6.3
301.305	6.41
301.676	6.45
302.046	6.5
302.416	6.67
302.787	6.7
303.157	6.52
303.527	6.42
303.897	6.27
304.267	6.46
304.637	6.38
305.008	6.37
305.378	6.43
305.748	6.46
306.117	6.51
306.487	6.5
306.857	6.57
307.227	6.47
307.597	6.33
307.967	6.44
308.336	6.43
308.706	6.31
309.076	6.42
309.445	6.4
309.815	6.4
310.184	6.46
310.554	6.6
310.923	6.66
311.293	6.65
311.662	6.61
312.031	6.58
312.401	6.65
312.77	6.57
313.139	6.57
313.508	6.5
313.877	6.36
314.246	6.48
314.616	6.42
314.985	6.45
315.353	6.4
315.722	6.3
316.091	6.31
316.46	6.35
316.829	6.36
317.198	6.4
317.567	6.37
317.935	6.27
318.304	6.03
318.672	6.01
319.041	6.14
319.41	6.29
319.778	6.29
320.147	6.42
320.515	6.39
320.883	6.19
321.252	6.17
321.62	6.15
321.988	6.03
322.357	6.01
322.725	6.06
323.093	6.24
323.461	6.26
323.829	6.27
324.197	6.33
324.565	6.25
324.933	6.3
325.301	6.3
325.669	6.35
326.037	6.52
326.405	6.57
326.772	6.52
327.14	6.56
327.508	6.62
327.875	6.62
328.243	6.71
328.61	6.87
328.978	6.98
329.346	7.17
329.713	7.12
330.08	7.22
330.448	7.09
330.815	6.98
331.182	6.98
331.55	7.03
331.917	7.2
332.284	7.21
332.651	7.19
333.018	7.24
333.385	7.17
333.752	7.19
334.119	7.16
334.486	7.09
334.853	7.1
335.22	7.07
335.587	7.01
335.954	6.98
336.32	6.89
336.687	6.84
337.054	6.7
337.42	6.74
337.787	6.73
338.153	6.8
338.52	6.8
338.886	6.82
339.253	6.65
339.619	6.53
339.986	6.52
340.352	6.51
340.718	6.48
341.084	6.44
341.451	6.4
341.817	6.56
342.183	6.55
342.549	6.46
342.915	6.46
343.281	6.51
343.647	6.53
344.013	6.55
344.379	6.55
344.745	6.59
345.11	6.64
345.476	6.63
345.842	6.72
346.208	6.84
346.573	6.87
346.939	7
347.304	7
347.67	6.97
348.035	6.98
348.401	7
348.766	7.1
349.132	7.14
349.497	6.96
349.862	7.06
350.228	7.1
350.593	7.07
350.958	7.07
351.323	7.17
351.688	7.23
352.053	7.25
352.418	7.34
352.783	7.33
353.148	7.34
353.513	7.26
353.878	7.22
354.243	7.26
354.608	7.26
354.972	7.26
355.337	7.33
355.702	7.34
356.066	7.41
356.431	7.35
356.795	7.44
357.16	7.44
357.524	7.38
357.889	7.35
358.253	7.38
358.618	7.37
358.982	7.31
359.346	7.31
359.71	7.28
360.075	7.28
360.439	7.28
360.803	7.3
361.167	7.3
361.531	7.2
361.895	7.15
362.259	7.11
362.623	7.14
362.987	7.04
363.351	7.04
363.714	7
364.078	7.02
364.442	6.86
364.806	6.9
365.169	6.91
365.533	6.97
365.896	7.05
366.26	7.07
366.623	7
366.987	6.99
367.35	7.01
367.714	6.95
368.077	6.99
368.44	6.9
368.803	6.87
369.167	6.9
369.53	6.9
369.893	6.97
370.256	7.01
370.619	7.06
370.982	7.02
371.345	6.96
371.708	6.97
372.071	6.98
372.434	6.96
372.797	6.95
373.159	6.89
373.522	6.86
373.885	6.81
374.247	6.84
374.61	6.83
374.973	6.79
375.335	6.83
375.698	6.87
376.06	6.93
376.423	6.92
376.785	7.01
377.147	7.04
377.51	7
377.872	7
378.234	7
378.596	7.02
378.958	6.98
379.321	6.93
379.683	7
380.045	7.04
380.407	7
380.769	7.02
381.13	6.93
381.492	6.95
381.854	6.99
382.216	6.98
382.578	6.99
382.939	6.95
383.301	6.89
383.663	6.85
384.024	6.84
384.386	6.86
384.747	6.86
385.109	6.86
385.47	6.81
385.832	6.82
386.193	6.86
386.554	6.98
386.916	7.02
387.277	7.02
387.638	7.05
387.999	7.12
388.36	7.13
388.721	7.19
389.082	7.2
389.443	7.17
389.804	7.17
390.165	7.18
390.526	7.18
390.887	7.18
391.248	7.22
391.609	7.24
391.969	7.21
392.33	7.21
392.691	7.21
393.051	7.23
393.412	7.21
393.772	7.19
394.133	7.16
394.493	7.13
394.854	7.14
395.214	7.11
395.574	7.09
395.935	7.06
396.295	7.04
396.655	7.04
397.015	7.04
397.376	7.05
397.736	7.05
398.096	7.06
398.456	7.07
398.816	7.08
399.176	7.11
399.535	7.08
399.895	7.07
400.255	7.06
400.615	7.03
400.975	7.04
401.334	7.05
401.694	7
402.054	7
402.413	6.96
402.773	6.94
403.132	6.96
403.492	6.97
403.851	6.96
404.211	6.95
404.57	6.97
404.929	7.02
405.288	7.04
405.648	7
406.007	7
406.366	6.99
406.725	6.99
407.084	7.02
407.443	7.02
407.802	7.03
408.161	7.03
408.52	7.03
408.879	7.02
409.238	7.03
409.596	7.06
409.955	7.04
410.314	7.07
410.673	7.05
411.031	7.05
411.39	7.08
411.748	7.06
412.107	7.05
412.465	6.99
412.824	7
413.182	7.04
413.54	7.05
413.899	7.05
414.257	7.05
414.615	7.05
414.974	7.06
415.332	7.06
415.69	7.07
416.048	7.05
416.406	7.08
416.764	7.1
417.122	7.11
417.48	7.12
417.838	7.11
418.195	7.12
418.553	7.12
418.911	7.13
419.269	7.15
419.626	7.16
419.984	7.18
420.342	7.16
420.699	7.14
421.057	7.13
421.414	7.11
421.772	7.11
422.129	7.1
422.486	7.09
422.844	7.1
423.201	7.1
423.558	7.1
423.915	7.08
424.273	7.09
424.63	7.07
424.987	7.07
425.344	7.09
425.701	7.09
426.058	7.1
426.415	7.07
426.772	7.06
427.128	7.06
427.485	7.03
427.842	7.05
428.199	7.09
428.555	7.1
428.912	7.12
429.269	7.14
429.625	7.15
429.982	7.16
430.338	7.14
430.695	7.14
431.051	7.14
431.407	7.13
431.764	7.11
432.12	7.13
432.476	7.14
432.832	7.09
433.189	7.08
433.545	7.07
433.901	7.08
434.257	7.08
434.613	7.1
434.969	7.1
435.325	7.08
435.681	7.08
436.036	7.07
436.392	7.06
436.748	7.04
437.104	7.02
437.459	7.02
437.815	7.03
438.171	7.03
438.526	7.04
438.882	7.05
439.237	7.05
439.593	7.06
439.948	7.07
440.304	7.08
440.659	7.09
441.014	7.09
441.369	7.09
441.725	7.09
442.08	7.07
442.435	7.08
442.79	7.08
443.145	7.07
443.5	7.07
443.855	7.08
444.21	7.09
444.565	7.12
444.92	7.13
445.275	7.14
445.629	7.14
445.984	7.15
446.339	7.14
446.693	7.14
447.048	7.14
447.403	7.11
447.757	7.12
448.112	7.13
448.466	7.12
448.82	7.11
449.175	7.12
449.529	7.11
449.883	7.1
450.238	7.12
450.592	7.1
450.946	7.11
451.3	7.09
451.654	7.08
452.008	7.08
452.362	7.06
452.716	7.06
453.07	7.08
453.424	7.08
453.778	7.07
454.132	7.05
454.486	7.04
454.839	7.05
455.193	7.02
455.547	7
455.9	7.02
456.254	7.03
456.607	7.01
456.961	7.04
457.314	7.04
457.668	7.02
458.021	7.02
458.375	7.04
458.728	7.05
459.081	7.05
459.434	7.04
459.787	7.06
460.141	7.04
460.494	7.04
460.847	7.03
461.2	7.02
461.553	7.04
461.906	7.04
462.259	7.06
462.611	7.06
462.964	7.08
463.317	7.06
463.67	7.07
464.022	7.08
464.375	7.08
464.728	7.08
465.08	7.09
465.433	7.1
465.785	7.09
466.138	7.07
466.49	7.07
466.843	7.09
467.195	7.07
467.547	7.09
467.899	7.09
468.252	7.1
468.604	7.12
468.956	7.1
469.308	7.13
469.66	7.09
470.012	7.11
470.364	7.11
470.716	7.12
471.068	7.12
471.42	7.12
471.772	7.13
472.123	7.14
472.475	7.13
472.827	7.13
473.178	7.13
473.53	7.15
473.882	7.17
474.233	7.16
474.585	7.17
474.936	7.12
475.288	7.1
475.639	7.13
475.99	7.13
476.342	7.13
476.693	7.11
477.044	7.12
477.395	7.13
477.746	7.12
478.097	7.11
478.448	7.11
478.8	7.11
479.15	7.09
479.501	7.08
479.852	7.1
480.203	7.1
480.554	7.12
480.905	7.13
481.255	7.14
481.606	7.16
481.957	7.17
482.307	7.19
482.658	7.21
483.009	7.21
483.359	7.23
483.709	7.23
484.06	7.23
484.41	7.25
484.761	7.26
485.111	7.26
485.461	7.28
485.811	7.27
486.162	7.28
486.512	7.31
486.862	7.31
487.212	7.32
487.562	7.34
487.912	7.33
488.262	7.33
488.612	7.34
488.961	7.32
489.311	7.33
489.661	7.34
490.011	7.33
490.36	7.34
490.71	7.34
491.06	7.34
491.409	7.34
491.759	7.33
492.108	7.33
492.458	7.33
492.807	7.32
493.157	7.32
493.506	7.32
493.855	7.31
494.204	7.31
494.554	7.31
494.903	7.31
495.252	7.3
495.601	7.31
495.95	7.3
496.299	7.31
496.648	7.31
496.997	7.28
497.346	7.29
497.695	7.28
498.043	7.27
498.392	7.28
498.741	7.29
499.09	7.28
499.438	7.28
499.787	7.31
500.135	7.32
500.484	7.33
500.832	7.34
501.181	7.34
501.529	7.36
501.878	7.37
502.226	7.36
502.574	7.38
502.923	7.36
503.271	7.37
503.619	7.39
503.967	7.4
504.315	7.4
504.663	7.38
505.011	7.38
505.359	7.38
505.707	7.36
506.055	7.35
506.403	7.38
506.751	7.38
507.098	7.38
507.446	7.39
507.794	7.39
508.141	7.37
508.489	7.39
508.837	7.41
509.184	7.39
509.531	7.4
509.879	7.4
510.226	7.41
510.574	7.4
510.921	7.39
511.268	7.38
511.616	7.4
511.963	7.41
512.31	7.41
512.657	7.43
513.004	7.47
513.351	7.49
513.698	7.5
514.045	7.51
514.392	7.5
514.739	7.5
515.086	7.5
515.432	7.48
515.779	7.48
516.126	7.48
516.473	7.49
516.819	7.5
517.166	7.51
517.512	7.52
517.859	7.52
518.205	7.53
518.552	7.53
518.898	7.53
519.245	7.53
519.591	7.52
519.937	7.51
520.283	7.51
520.629	7.51
520.976	7.52
521.322	7.52
521.668	7.52
522.014	7.52
522.36	7.52
522.706	7.56
523.052	7.56
523.398	7.58
523.743	7.6
524.089	7.61
524.435	7.6
524.781	7.6
525.126	7.63
525.472	7.63
525.817	7.67
526.163	7.67
526.509	7.69
526.854	7.7
527.199	7.71
527.545	7.7
527.89	7.71
528.235	7.71
528.581	7.71
528.926	7.72
529.271	7.72
529.616	7.73
529.961	7.72
530.306	7.72
530.651	7.7
530.996	7.71
531.341	7.71
531.686	7.73
532.031	7.74
532.376	7.74
532.721	7.75
533.065	7.73
533.41	7.72
533.755	7.71
534.099	7.72
534.444	7.72
534.788	7.73
535.133	7.72
535.477	7.73
535.822	7.72
536.166	7.73
536.51	7.74
536.855	7.74
537.199	7.75
537.543	7.76
537.887	7.78
538.231	7.78
538.576	7.78
538.92	7.77
539.264	7.75
539.608	7.77
539.951	7.78
540.295	7.81
540.639	7.82
540.983	7.82
541.327	7.81
541.671	7.81
542.014	7.82
542.358	7.84
542.701	7.85
543.045	7.85
543.389	7.85
543.732	7.85
544.075	7.87
544.419	7.87
544.762	7.88
545.105	7.88
545.449	7.87
545.792	7.88
546.135	7.89
546.478	7.91
546.821	7.9
547.165	7.87
547.508	7.87
547.851	7.88
548.194	7.88
548.536	7.9
548.879	7.9
549.222	7.89
549.565	7.87
549.908	7.87
550.25	7.86
550.593	7.89
550.936	7.85
551.278	7.84
551.621	7.87
551.963	7.84
552.306	7.83
552.648	7.84
552.991	7.86
553.333	7.86
553.675	7.87
554.017	7.89
554.36	7.9
554.702	7.9
555.044	7.88
555.386	7.91
555.728	7.9
556.07	7.93
556.412	7.94
556.754	7.94
557.096	7.92
557.438	7.94
557.78	7.92
558.121	7.98
558.463	8.02
558.805	7.99
559.147	8
559.488	8.02
559.83	8.01
560.171	7.99
560.513	8
560.854	7.99
561.196	7.98
561.537	8
561.878	7.98
562.22	7.95
562.561	7.92
562.902	7.93
563.243	7.93
563.584	7.94
563.925	7.94
564.266	7.95
564.607	7.93
564.948	7.95
565.289	7.9
565.63	7.9
565.971	7.92
566.312	7.91
566.653	7.92
566.993	7.9
567.334	7.92
567.675	7.93
568.015	7.95
568.356	7.96
568.696	7.98
569.037	7.99
569.377	8.04
569.718	8.07
570.058	8.06
570.398	8.04
570.739	8.06
571.079	8.06
571.419	8.09
571.759	8.13
572.099	8.12
572.439	8.14
572.779	8.16
573.119	8.16
573.459	8.18
573.799	8.19
574.139	8.22
574.479	8.19
574.819	8.18
575.158	8.15
575.498	8.15
575.838	8.16
576.177	8.17
576.517	8.17
576.856	8.14
577.196	8.14
577.535	8.14
577.875	8.13
578.214	8.14
578.553	8.13
578.893	8.09
579.232	8.09
579.571	8.09
579.91	8.04
580.25	8.06
580.589	8.07
580.928	8.06
581.267	8.09
581.606	8.09
581.945	8.09
582.283	8.13
582.622	8.11
582.961	8.07
583.3	8.09
583.639	8.12
583.977	8.14
584.316	8.15
584.654	8.17
584.993	8.18
585.332	8.18
585.67	8.17
586.008	8.23
586.347	8.21
586.685	8.21
587.024	8.22
587.362	8.17
587.7	8.15
588.038	8.14
588.376	8.1
588.715	8.13
589.053	8.17
589.391	8.15
589.729	8.15
590.067	8.14
590.404	8.15
590.742	8.11
591.08	8.09
591.418	8.13
591.756	8.14
592.093	8.11
592.431	8.16
592.769	8.16
593.106	8.15
593.444	8.17
593.781	8.2
594.119	8.22
594.456	8.23
594.793	8.24
595.131	8.24
595.468	8.27
595.805	8.26
596.143	8.23
596.48	8.27
596.817	8.26
597.154	8.28
597.491	8.27
597.828	8.3
598.165	8.32
598.502	8.29
598.839	8.27
599.176	8.31
599.512	8.26
599.849	8.28
600.186	8.27
600.523	8.29
600.859	8.3
601.196	8.29
601.532	8.27
601.869	8.3
602.205	8.3
602.542	8.27
602.878	8.28
603.215	8.29
603.551	8.28
603.887	8.3
604.223	8.31
604.56	8.35
604.896	8.33
605.232	8.35
605.568	8.38
605.904	8.4
606.24	8.41
606.576	8.42
606.912	8.4
607.248	8.39
607.583	8.38
607.919	8.36
608.255	8.34
608.591	8.4
608.926	8.37
609.262	8.41
609.597	8.44
609.933	8.46
610.268	8.46
610.604	8.46
610.939	8.48
611.275	8.46
611.61	8.45
611.945	8.43
612.281	8.44
612.616	8.46
612.951	8.47
613.286	8.42
613.621	8.46
613.956	8.47
614.291	8.51
614.626	8.51
614.961	8.48
615.296	8.52
615.631	8.5
615.966	8.48
616.3	8.46
616.635	8.46
616.97	8.49
617.304	8.49
617.639	8.5
617.973	8.46
618.308	8.48
618.642	8.46
618.977	8.46
619.311	8.39
619.646	8.33
619.98	8.3
620.314	8.33
620.648	8.32
620.983	8.37
621.317	8.36
621.651	8.38
621.985	8.46
622.319	8.46
622.653	8.44
622.987	8.49
623.321	8.5
623.655	8.51
623.988	8.5
624.322	8.44
624.656	8.47
624.99	8.48
625.323	8.49
625.657	8.54
625.99	8.6
626.324	8.63
626.657	8.69
626.991	8.73
627.324	8.71
627.658	8.69
627.991	8.65
628.324	8.65
628.657	8.65
628.991	8.62
629.324	8.62
629.657	8.64
629.99	8.64
630.323	8.66
630.656	8.67
630.989	8.72
631.322	8.81
631.655	8.77
631.987	8.79
632.32	8.81
632.653	8.8
632.986	8.82
633.318	8.82
633.651	8.83
633.984	8.78
634.316	8.82
634.649	8.84
634.981	8.87
635.313	8.86
635.646	8.85
635.978	8.84
636.31	8.84
636.643	8.85
636.975	8.82
637.307	8.85
637.639	8.84
637.971	8.78
638.303	8.74
638.635	8.66
638.967	8.62
639.299	8.62
639.631	8.54
639.963	8.42
640.295	8.45
640.626	8.41
640.958	8.47
641.29	8.45
641.621	8.46
641.953	8.4
642.285	8.5
642.616	8.54
642.948	8.5
643.279	8.55
643.61	8.52
643.942	8.57
644.273	8.54
644.604	8.57
644.936	8.51
645.267	8.52
645.598	8.54
645.929	8.55
646.26	8.59
646.591	8.68
646.922	8.72
647.253	8.74
647.584	8.71
647.915	8.72
648.245	8.73
648.576	8.74
648.907	8.79
649.238	8.7
649.568	8.68
649.899	8.73
650.229	8.75
650.56	8.76
650.89	8.74
651.221	8.73
651.551	8.66
651.882	8.73
652.212	8.8
652.542	8.9
652.872	8.87
653.203	8.81
653.533	8.8
653.863	8.87
654.193	8.82
654.523	8.94
654.853	8.92
655.183	8.9
655.513	8.91
655.843	8.94
656.172	8.91
656.502	8.93
656.832	8.9
657.162	8.88
657.491	8.91
657.821	8.88
658.15	8.85
658.48	8.9
658.809	8.89
659.139	8.8
659.468	8.78
659.798	8.8
660.127	8.82
660.456	8.86
660.785	8.87
661.115	8.9
661.444	8.82
661.773	8.78
662.102	8.79
662.431	8.79
662.76	8.82
663.089	8.85
663.418	8.87
663.747	8.91
664.076	8.93
664.404	8.9
664.733	8.95
665.062	8.98
665.39	8.99
665.719	8.99
666.048	9.06
666.376	9.1
666.705	9.11
667.033	9.03
667.362	8.96
667.69	8.92
668.018	8.92
668.347	8.94
668.675	9.01
669.003	9.05
669.331	9.11
669.659	9.09
669.987	9.11
670.315	9.06
670.643	9.03
670.971	8.98
671.299	9.03
671.627	8.98
671.955	8.98
672.283	8.92
672.61	8.98
672.938	9.12
673.266	9.07
673.593	9.21
673.921	9.32
674.249	9.29
674.576	9.22
674.904	9.24
675.231	9.18
675.558	9.16
675.886	9.15
676.213	9.03
676.54	8.97
676.867	8.95
677.195	9
677.522	9
677.849	9.08
678.176	8.98
678.503	9.08
678.83	9.11
679.157	9.18
679.484	9.11
679.81	9.02
680.137	9.06
680.464	8.91
680.791	8.88
681.117	8.8
681.444	8.86
681.771	8.9
682.097	8.94
682.424	8.96
682.75	8.92
683.077	8.95
683.403	8.96
683.729	9.02
684.056	8.97
684.382	9.01
684.708	8.94
685.034	8.97
685.36	8.91
685.686	8.88
686.012	8.88
686.339	8.92
686.664	8.86
686.99	8.8
687.316	8.91
687.642	9.01
687.968	9.15
688.294	9.24
688.619	9.2
688.945	9.18
689.271	9.13
689.596	9.19
689.922	9.25
690.247	9.26
690.573	9.24
690.898	9.35
691.224	9.41
691.549	9.48
691.874	9.49
692.2	9.57
692.525	9.58
692.85	9.58
693.175	9.59
693.5	9.61
693.825	9.63
694.15	9.59
694.475	9.52
694.8	9.53
695.125	9.51
695.45	9.45
695.775	9.48
696.099	9.51
696.424	9.4
696.749	9.3
697.073	9.24
697.398	9.24
697.723	9.18
698.047	9.12
698.372	9.11
698.696	9.1
699.02	8.98
699.345	8.99
699.669	9
699.993	8.93
700.318	8.9
700.642	8.87
700.966	8.92
701.29	8.96
701.614	8.9
701.938	8.87
702.262	9
702.586	9.04
702.91	9.01
703.234	9.08
703.557	9.25
703.881	9.42
704.205	9.5
704.529	9.37
704.852	9.39
705.176	9.38
705.499	9.43
705.823	9.51
706.146	9.5
706.47	9.44
706.793	9.49
707.117	9.49
707.44	9.6
707.763	9.6
708.086	9.38
708.409	9.46
708.733	9.38
709.056	9.27
709.379	9.24
709.702	9.25
710.025	9.24
710.348	9.16
710.671	9.17
710.993	9.17
711.316	9.32
711.639	9.33
711.962	9.3
712.284	9.43
712.607	9.36
712.93	9.38
713.252	9.35
713.575	9.4
713.897	9.47
714.22	9.37
714.542	9.37
714.864	9.54
715.187	9.4
715.509	9.48
715.831	9.42
716.153	9.41
716.475	9.44
716.798	9.5
717.12	9.49
717.442	9.4
717.764	9.31
718.085	9.21
718.407	9.33
718.729	9.28
719.051	9.12
719.373	9.15
719.695	9.07
720.016	9.11
720.338	9.15
720.659	9.09
720.981	9.13
721.302	9.14
721.624	9.02
721.945	9.19
722.267	9.13
722.588	9.13
722.909	9.13
723.231	9.04
723.552	9.07
723.873	9.08
724.194	9.1
724.515	9.13
724.836	9.15
725.157	9.09
725.478	9.12
725.799	9.22
726.12	9.23
726.441	9.37
726.762	9.37
727.083	9.38
727.403	9.44
727.724	9.64
728.045	9.65
728.365	9.79
728.686	9.67
729.006	9.73
729.327	9.72
729.647	9.7
729.967	9.7
730.288	9.64
730.608	9.6
730.928	9.48
731.249	9.56
731.569	9.82
731.889	9.81
732.209	9.89
732.529	9.91
732.849	9.96
733.169	9.81
733.489	9.87
733.809	9.81
734.129	9.93
734.448	9.86
734.768	9.74
735.088	9.82
735.408	9.88
735.727	9.93
736.047	10.08
736.366	10.01
736.686	10.21
737.005	10.3
737.325	10.36
737.644	10.38
737.963	10.15
738.283	9.66
738.602	9.83
738.921	9.79
739.24	9.6
739.56	9.6
739.879	9.76
740.198	9.88
740.517	9.82
740.836	9.73
741.155	9.53
741.473	9.7
741.792	9.47
742.111	9.53
742.43	9.36
742.748	9.31
743.067	9.48
743.386	9.24
743.704	9.14
744.023	9.12
744.341	9.03
744.66	9.43
744.978	9.64
745.297	9.32
745.615	9.14
745.933	9.26
746.252	9.26
746.57	9.21
746.888	9.13
747.206	9.42
747.524	9.32
747.842	9.39
748.16	9.4
748.478	9.57
748.796	9.65
749.114	9.92
749.432	9.79
749.749	9.82
750.067	9.97
750.385	10.04
750.703	10.18
751.02	10.3
751.338	10.18
751.655	10.08
751.973	10.19
752.29	10.39
752.608	10.55
752.925	10.38
753.242	10.4
753.56	10.48
753.877	10.41
754.194	10.46
754.511	10.57
754.828	10.32
755.145	10.39
755.462	10.07
755.779	10.11
756.096	10.16
756.413	10.22
756.73	10.16
757.047	10.09
757.364	10
757.68	9.91
757.997	9.7
758.314	9.72
758.63	9.73
758.947	9.76
759.264	9.55
759.58	9.76
759.896	9.8
760.213	9.76
760.529	9.43
760.846	9.61
761.162	9.49
761.478	9.58
761.794	9.36
762.11	9.41
762.426	9.2
762.743	9.14
763.059	9.04
763.375	9.14
763.69	9.26
764.006	9.42
764.322	9.81
764.638	10.06
764.954	10.24
765.27	10.25
765.585	10.15
765.901	10.06
766.216	9.89
766.532	9.9
766.848	9.82
767.163	10.09
767.478	9.92
767.794	10.1
768.109	10.34
768.424	10.07
768.74	10.39
769.055	10.58
769.37	10.77
769.685	10.76
770	10.71
770.315	10.61
770.63	10.17
770.945	9.72
771.26	9.49
771.575	9.59
771.89	9.42
772.205	9.57
772.52	9.92
772.834	9.99
773.149	9.94
773.464	10.15
773.778	10.34
774.093	10.35
774.407	10.32
774.722	10.01
775.036	10.69
775.351	10.78
775.665	10.45
775.979	10.32
776.293	10.42
776.608	10.5
776.922	10.25
777.236	10.39
777.55	10.55
777.864	10.69
778.178	10.63
778.492	10.94
778.806	10.82
779.12	10.83
779.434	10.99
779.747	10.71
780.061	10.7
780.375	10.15
780.689	9.92
781.002	9.85
781.316	9.82
781.629	9.9
781.943	9.38
782.256	9.61
782.57	9.55
782.883	9.57
783.196	9.48
783.51	9.54
783.823	9.88
784.136	9.98
784.449	9.83
784.762	9.85
785.075	9.44
785.388	9.43
785.701	9.28
786.014	9.07
786.327	9.08
786.64	9.23
786.953	9.78
787.266	9.61
787.578	9.49
787.891	9.33
788.204	9
788.516	9.54
788.829	9.68
789.141	9.98
789.454	10.08
789.766	9.89
790.079	10.25
790.391	10.38
790.703	10.1
791.016	10.46
791.328	10.7
791.64	11.02
791.952	11.04
792.264	10.99
792.576	10.81
792.888	11.3
793.2	11.01
793.512	10.7
793.824	11.3
794.136	11.39
794.448	11.77
794.76	11.87
795.071	11.59
795.383	11.42
795.695	10.76
796.006	10.73
796.318	10.72
796.629	10.57
796.941	10.19
797.252	10.43
797.564	10.41
797.875	10.11
798.186	9.86
798.497	10
798.809	10.08
799.12	10.39
799.431	10.03
799.742	10.41
800.053	10.33
800.364	10.31
800.675	10.54
800.986	10.26
801.297	10.02
801.608	9.97
801.918	9.94
802.229	10.67
802.54	10.65
802.851	10.86
803.161	11
803.472	10.83
803.782	10.92
804.093	10.71
804.403	10.4
804.714	10.93
805.024	10.43
805.334	10.39
805.645	10.69
805.955	10.73
806.265	10.81
806.575	11.03
806.885	11.11
807.195	11.04
807.505	11.02
807.815	11.6
808.125	11.19
808.435	11.29
808.745	11.09
809.055	11.36
809.365	11.47
809.674	10.91
809.984	11.17
810.294	11.01
810.603	10.86
810.913	11.45
811.222	11.22
811.532	11.47
811.841	11.95
812.151	12.18
812.46	12.22
812.769	11.54
813.079	11.81
813.388	11.98
813.697	11.95
814.006	11.92
814.315	11.47
814.624	12.03
814.933	11.78
815.242	11.72
815.551	11.53
815.86	11.65
816.169	12.42
816.478	12.34
816.786	12.51
817.095	12.08
817.404	12.58
817.712	12.05
818.021	12.62
818.33	12.64
818.638	12.31
818.947	12.57
819.255	12.67
819.563	12.38
819.872	12.01
820.18	12.51
820.488	12.4
820.796	12.54
821.105	12.25
821.413	12.54
821.721	12.85
822.029	12.78
822.337	12.75
822.645	12.72
822.953	12.91
823.26	12.79
823.568	12.67
823.876	12.49
824.184	12.59
824.491	12.44
824.799	12.32
825.107	12.43
825.414	12.49
825.722	12.38
826.029	12.34
826.337	12.48
826.644	12.34
826.951	12.31
827.259	12.34
827.566	12.45
827.873	12.4
828.18	12.03
828.488	12.06
828.795	11.97
829.102	11.96
829.409	11.6
829.716	11.56
830.023	11.89
830.329	11.66
830.636	11.52
830.943	11.66
831.25	11.74
831.557	11.59
831.863	11.59
832.17	11.5
832.476	12.01
832.783	12.17
833.089	12.13
833.396	12.8
833.702	12.9
834.009	13.14
834.315	12.95
834.621	13.17
834.928	13.07
835.234	12.65
835.54	12.13
835.846	12.04
836.152	12.28
836.458	12.29
836.764	12.77
837.07	12.66
837.376	12.48
837.682	12.64
837.988	12.61
838.293	12.6
838.599	13.12
838.905	12.14
839.211	12.04
839.516	11.74
839.822	10.93
840.127	10.34
840.433	10.71
840.738	10.84
841.044	10.97
841.349	10.78
841.654	11.85
841.959	12.67
842.265	12.87
842.57	13.47
842.875	13.99
843.18	13.74
843.485	14.92
843.79	15.04
844.095	14.81
844.4	15.07
844.705	13.26
845.01	12.15
845.315	12.9
845.619	12.23
845.924	11.49
846.229	11.67
846.533	12.77
846.838	10.57
847.142	10.29
847.447	8.18
847.751	8.57
848.056	7.64
848.36	7.89
848.664	9.11
848.969	7.38
849.273	4.56
849.577	2.53
849.881	1.92
850.185	2.05
850.489	1.89
850.794	-0.03
851.097	2.26
851.401	3.21
851.705	3.1
852.009	4.41
852.313	6.09
852.617	6.92
852.92	6.75
853.224	9.25
853.528	10.19
853.831	12.18
854.135	11.83
854.438	11.98
854.742	11.49
855.045	12.12
855.349	13.53
855.652	15.46
855.955	17.73
856.259	17.56
856.562	17.12
856.865	18.2
857.168	19.97
857.471	19.2
857.774	18.96
858.077	17.98
858.38	17.37
858.683	16.2
858.986	17.24
859.289	18.1
859.592	16.62
859.894	15.39
860.197	15.81
860.5	15.57
860.802	15.14
861.105	16.08
861.407	13.59
861.71	14.44
862.012	15.24
862.315	14.56
862.617	15.15
862.919	15.8
863.222	17.28
863.524	18.09
863.826	18.5
864.128	18.79
864.43	19.63
864.732	20.41
865.034	19.35
865.336	16.12
865.638	13.56
865.94	11.56
866.242	10.62
866.544	10.92
866.846	11.56
867.147	12.15
867.449	10.53
867.751	12.6
868.052	12.45
868.354	11.64
868.655	12.31
868.957	11.91
869.258	14.99
869.56	13.1
869.861	11.71
870.162	9.57
870.463	7.58
870.765	6.35
871.066	6.01
871.367	6.84
871.668	8.24
871.969	8.46
872.27	11.21
872.571	11.18
872.872	10.78
873.173	9.06
873.473	9.36
873.774	10.09
874.075	7.53
874.376	6.34
874.676	7.88
874.977	6.91
875.277	8.4
875.578	6.06
875.878	5.19
876.179	5.23
876.479	7.19
876.78	9.22
877.08	11.2
877.38	9.94
877.68	9.29
877.981	9.76
878.281	10.33
878.581	10.07
