Data from BA56814_Reflection_00011.txt Node
Date: Mon Nov 18 15:40:41 EST 2019
User: vgr7
Spectrometer: USB2G7710
Scans to average: 3
Trigger mode: 4
Integration Time (sec): 2.000000E-2
Electric dark correction enabled: true
Boxcar width: 10
XAxis mode: Wavelengths
Number of Pixels in Spectrum: 2048
>>>>>Begin Spectral Data<<<<<
177.721	-89.97
178.105	-15.28
178.488	-17.65
178.871	-16.3
179.254	8.32
179.636	-179.74
180.019	-41.7
180.402	100
180.785	177.67
181.168	-107.22
181.55	-71.58
181.933	50.13
182.316	56.31
182.698	19.2
183.081	42.42
183.463	101.73
183.846	76.21
184.228	83.57
184.611	46.95
184.993	36.57
185.376	19.64
185.758	-78.72
186.14	-34.1
186.522	-17.65
186.904	-17.65
187.287	-19.7
187.669	-58.8
188.051	-3.61
188.433	24.29
188.815	17.12
189.197	72.65
189.579	3.07
189.961	5.8
190.342	-5.14
190.724	14.02
191.106	-21.99
191.488	-55.27
191.869	-57.47
192.251	-45.68
192.633	-38.16
193.014	-36.03
193.396	-35.59
193.777	49.95
194.159	29.77
194.54	-126.15
194.922	-949.18
195.303	-111.48
195.684	-46.79
196.065	134.8
196.447	186.67
196.828	537.3
197.209	379.49
197.59	116.91
197.971	69.79
198.352	54.98
198.733	50.25
199.114	39.05
199.495	14.37
199.876	13.04
200.257	13.95
200.638	7.38
201.018	5.75
201.399	57.74
201.78	154.81
202.16	148.64
202.541	164.03
202.922	98.32
203.302	58.31
203.683	102.97
204.063	143.22
204.444	-16.71
204.824	13.29
205.204	18.67
205.585	25.67
205.965	15.21
206.345	-10.44
206.725	-27.84
207.106	-179.33
207.486	5.38
207.866	13.04
208.246	-30.13
208.626	-1.34
209.006	8.02
209.386	-6.55
209.766	-78.45
210.145	-20.56
210.525	-11.92
210.905	-3.18
211.285	25.32
211.664	11.5
212.044	17.89
212.424	30.09
212.803	32.8
213.183	33.6
213.562	37.37
213.942	59.44
214.321	63.59
214.701	51.93
215.08	48.97
215.459	38.46
215.838	52.2
216.218	53.03
216.597	55.19
216.976	59.73
217.355	38.49
217.734	38.22
218.113	16.49
218.492	11.83
218.871	13.15
219.25	18.79
219.629	23.02
220.008	22.57
220.387	30.68
220.766	18.79
221.144	-5.56
221.523	-25.28
221.902	-58.13
222.28	-54.7
222.659	-47.74
223.037	-41.58
223.416	-44.34
223.794	-48.25
224.173	-37.06
224.551	-30.84
224.929	-27.34
225.308	-12.9
225.686	-6.12
226.064	0.94
226.442	1.51
226.821	8
227.199	5.17
227.577	5.41
227.955	8.93
228.333	3.65
228.711	11.8
229.089	14.1
229.467	10.8
229.845	9.31
230.222	10.05
230.6	8.13
230.978	8.52
231.356	11.16
231.733	10.6
232.111	11.99
232.488	9.82
232.866	8.57
233.243	8.07
233.621	7.78
233.998	8.52
234.376	7.82
234.753	6.6
235.13	6.45
235.508	6.12
235.885	4.92
236.262	5.57
236.639	4.21
237.016	4.7
237.393	6.47
237.77	7.45
238.147	7.16
238.524	6.66
238.901	6.88
239.278	6.69
239.655	6.71
240.032	6.71
240.409	6.77
240.785	7.07
241.162	7.2
241.539	6.8
241.915	6.55
242.292	6.35
242.668	6.19
243.045	5.98
243.421	5.82
243.798	5.43
244.174	5.15
244.551	4.89
244.927	4.79
245.303	4.59
245.679	4.52
246.056	4.52
246.432	4.43
246.808	4.17
247.184	3.87
247.56	3.82
247.936	3.7
248.312	3.68
248.688	3.66
249.064	3.56
249.44	3.66
249.815	3.77
250.191	3.88
250.567	3.9
250.943	3.65
251.318	3.79
251.694	3.99
252.069	3.95
252.445	4.17
252.82	4.07
253.196	4.16
253.571	4.07
253.947	4.09
254.322	4.5
254.697	4.37
255.073	4.36
255.448	3.92
255.823	3.73
256.198	3.68
256.573	3.78
256.948	3.7
257.323	3.63
257.698	3.4
258.073	3.65
258.448	3.7
258.823	3.87
259.198	3.54
259.573	3.52
259.948	3.52
260.322	3.37
260.697	3.14
261.072	3.02
261.446	3.21
261.821	3.15
262.195	3.1
262.57	3.14
262.944	3.28
263.319	3.59
263.693	3.66
264.067	3.73
264.442	3.74
264.816	3.74
265.19	3.79
265.564	3.75
265.938	3.46
266.313	3.3
266.687	3.28
267.061	3.54
267.435	3.38
267.809	3.46
268.183	3.58
268.556	3.76
268.93	3.83
269.304	3.6
269.678	3.57
270.051	3.55
270.425	3.61
270.799	3.53
271.172	3.39
271.546	3.35
271.919	3.27
272.293	3.04
272.666	2.98
273.04	3
273.413	3.13
273.787	3.13
274.16	3.31
274.533	3.2
274.906	3.11
275.279	3.08
275.653	3.17
276.026	3.1
276.399	3.13
276.772	3.33
277.145	3.3
277.518	3.3
277.891	3.25
278.263	3.09
278.636	3.16
279.009	3.25
279.382	3.44
279.755	3.6
280.127	3.95
280.5	4.08
280.872	3.92
281.245	3.92
281.617	3.95
281.99	3.84
282.362	4.11
282.735	4.19
283.107	4.28
283.479	4.29
283.852	4.24
284.224	4.19
284.596	4.04
284.968	4.24
285.34	4.33
285.713	4.25
286.085	4.4
286.457	4.4
286.829	4.38
287.201	4.37
287.572	4.39
287.944	4.26
288.316	4.29
288.688	4.32
289.06	4.3
289.431	4.38
289.803	4.45
290.175	4.39
290.546	4.48
290.918	4.43
291.289	4.46
291.661	4.48
292.032	4.59
292.403	4.63
292.775	4.51
293.146	4.44
293.517	4.48
293.889	4.48
294.26	4.46
294.631	4.47
295.002	4.22
295.373	4.1
295.744	4.15
296.115	4.1
296.486	4.1
296.857	4.16
297.228	4.21
297.599	4.16
297.97	4.19
298.34	4.18
298.711	4.26
299.082	4.18
299.452	4.21
299.823	4.23
300.194	4.19
300.564	4.27
300.935	4.35
301.305	4.39
301.676	4.46
302.046	4.51
302.416	4.62
302.787	4.78
303.157	4.83
303.527	4.72
303.897	4.79
304.267	4.95
304.637	5.05
305.008	5.01
305.378	5.19
305.748	5.26
306.117	5.24
306.487	5.29
306.857	5.37
307.227	5.58
307.597	5.73
307.967	5.74
308.336	5.76
308.706	5.76
309.076	5.92
309.445	5.85
309.815	5.83
310.184	5.83
310.554	5.97
310.923	6.08
311.293	6.26
311.662	6.26
312.031	6.25
312.401	6.22
312.77	6.33
313.139	6.34
313.508	6.26
313.877	6.3
314.246	6.31
314.616	6.35
314.985	6.24
315.353	6.21
315.722	6.41
316.091	6.32
316.46	6.34
316.829	6.33
317.198	6.5
317.567	6.58
317.935	6.65
318.304	6.68
318.672	6.67
319.041	6.8
319.41	6.9
319.778	6.98
320.147	6.8
320.515	6.8
320.883	6.68
321.252	6.88
321.62	6.88
321.988	6.91
322.357	6.99
322.725	7.08
323.093	7.17
323.461	7.1
323.829	7.25
324.197	7.46
324.565	7.5
324.933	7.46
325.301	7.45
325.669	7.56
326.037	7.45
326.405	7.55
326.772	7.53
327.14	7.57
327.508	7.58
327.875	7.82
328.243	7.93
328.61	8.1
328.978	8.13
329.346	8.24
329.713	8.28
330.08	8.3
330.448	8.26
330.815	8.12
331.182	8.22
331.55	8.28
331.917	8.31
332.284	8.44
332.651	8.49
333.018	8.59
333.385	8.39
333.752	8.59
334.119	8.58
334.486	8.4
334.853	8.41
335.22	8.35
335.587	8.34
335.954	8.3
336.32	8.24
336.687	8.25
337.054	8.3
337.42	8.34
337.787	8.34
338.153	8.47
338.52	8.64
338.886	8.56
339.253	8.53
339.619	8.47
339.986	8.4
340.352	8.44
340.718	8.46
341.084	8.58
341.451	8.56
341.817	8.61
342.183	8.71
342.549	8.66
342.915	8.76
343.281	8.83
343.647	8.83
344.013	8.91
344.379	8.87
344.745	8.75
345.11	8.79
345.476	8.83
345.842	8.79
346.208	8.77
346.573	8.87
346.939	9
347.304	8.9
347.67	8.92
348.035	8.89
348.401	8.91
348.766	8.84
349.132	8.86
349.497	8.93
349.862	9.02
350.228	9.05
350.593	9.07
350.958	9.08
351.323	9.07
351.688	9.02
352.053	9.12
352.418	9.23
352.783	9.33
353.148	9.33
353.513	9.4
353.878	9.38
354.243	9.45
354.608	9.42
354.972	9.53
355.337	9.54
355.702	9.66
356.066	9.66
356.431	9.8
356.795	9.82
357.16	9.75
357.524	9.75
357.889	9.78
358.253	9.77
358.618	9.75
358.982	9.78
359.346	9.78
359.71	9.7
360.075	9.63
360.439	9.53
360.803	9.45
361.167	9.35
361.531	9.36
361.895	9.31
362.259	9.27
362.623	9.23
362.987	9.25
363.351	9.15
363.714	9.16
364.078	9.05
364.442	8.99
364.806	8.96
365.169	8.98
365.533	8.95
365.896	8.93
366.26	8.88
366.623	8.82
366.987	8.84
367.35	8.82
367.714	8.84
368.077	8.9
368.44	8.94
368.803	8.94
369.167	8.87
369.53	8.84
369.893	8.8
370.256	8.83
370.619	8.79
370.982	8.77
371.345	8.67
371.708	8.72
372.071	8.69
372.434	8.72
372.797	8.66
373.159	8.59
373.522	8.54
373.885	8.55
374.247	8.59
374.61	8.54
374.973	8.5
375.335	8.43
375.698	8.36
376.06	8.33
376.423	8.36
376.785	8.39
377.147	8.43
377.51	8.43
377.872	8.41
378.234	8.3
378.596	8.35
378.958	8.29
379.321	8.23
379.683	8.17
380.045	8.1
380.407	8.05
380.769	8.07
381.13	8.09
381.492	8.1
381.854	8.02
382.216	7.98
382.578	7.95
382.939	7.93
383.301	7.94
383.663	7.92
384.024	7.87
384.386	7.84
384.747	7.76
385.109	7.74
385.47	7.7
385.832	7.74
386.193	7.67
386.554	7.63
386.916	7.6
387.277	7.62
387.638	7.6
387.999	7.54
388.36	7.48
388.721	7.4
389.082	7.32
389.443	7.28
389.804	7.26
390.165	7.22
390.526	7.19
390.887	7.1
391.248	7.09
391.609	7.05
391.969	6.99
392.33	6.94
392.691	6.86
393.051	6.79
393.412	6.73
393.772	6.69
394.133	6.71
394.493	6.66
394.854	6.61
395.214	6.6
395.574	6.6
395.935	6.6
396.295	6.56
396.655	6.51
397.015	6.48
397.376	6.48
397.736	6.43
398.096	6.41
398.456	6.41
398.816	6.37
399.176	6.29
399.535	6.23
399.895	6.2
400.255	6.21
400.615	6.17
400.975	6.15
401.334	6.13
401.694	6.06
402.054	6.04
402.413	6.01
402.773	5.94
403.132	5.88
403.492	5.81
403.851	5.78
404.211	5.79
404.57	5.76
404.929	5.68
405.288	5.66
405.648	5.6
406.007	5.55
406.366	5.5
406.725	5.51
407.084	5.51
407.443	5.49
407.802	5.48
408.161	5.47
408.52	5.43
408.879	5.37
409.238	5.39
409.596	5.37
409.955	5.34
410.314	5.34
410.673	5.33
411.031	5.32
411.39	5.31
411.748	5.25
412.107	5.26
412.465	5.26
412.824	5.26
413.182	5.26
413.54	5.26
413.899	5.25
414.257	5.23
414.615	5.21
414.974	5.2
415.332	5.15
415.69	5.1
416.048	5.06
416.406	5.07
416.764	5.02
417.122	5
417.48	4.95
417.838	4.91
418.195	4.87
418.553	4.86
418.911	4.83
419.269	4.83
419.626	4.81
419.984	4.77
420.342	4.75
420.699	4.73
421.057	4.69
421.414	4.66
421.772	4.64
422.129	4.63
422.486	4.6
422.844	4.58
423.201	4.56
423.558	4.56
423.915	4.53
424.273	4.53
424.63	4.51
424.987	4.51
425.344	4.5
425.701	4.49
426.058	4.47
426.415	4.47
426.772	4.44
427.128	4.42
427.485	4.42
427.842	4.41
428.199	4.39
428.555	4.37
428.912	4.39
429.269	4.36
429.625	4.33
429.982	4.3
430.338	4.3
430.695	4.31
431.051	4.28
431.407	4.27
431.764	4.27
432.12	4.24
432.476	4.23
432.832	4.22
433.189	4.22
433.545	4.23
433.901	4.22
434.257	4.21
434.613	4.21
434.969	4.19
435.325	4.19
435.681	4.2
436.036	4.19
436.392	4.19
436.748	4.21
437.104	4.19
437.459	4.19
437.815	4.19
438.171	4.18
438.526	4.19
438.882	4.2
439.237	4.18
439.593	4.2
439.948	4.19
440.304	4.19
440.659	4.19
441.014	4.18
441.369	4.17
441.725	4.17
442.08	4.17
442.435	4.15
442.79	4.15
443.145	4.14
443.5	4.13
443.855	4.12
444.21	4.11
444.565	4.11
444.92	4.12
445.275	4.1
445.629	4.09
445.984	4.07
446.339	4.05
446.693	4.03
447.048	4.03
447.403	4.03
447.757	4.01
448.112	4
448.466	3.99
448.82	3.98
449.175	3.97
449.529	3.95
449.883	3.95
450.238	3.95
450.592	3.95
450.946	3.94
451.3	3.93
451.654	3.92
452.008	3.92
452.362	3.89
452.716	3.89
453.07	3.91
453.424	3.91
453.778	3.92
454.132	3.92
454.486	3.88
454.839	3.87
455.193	3.87
455.547	3.86
455.9	3.87
456.254	3.87
456.607	3.87
456.961	3.88
457.314	3.87
457.668	3.88
458.021	3.87
458.375	3.88
458.728	3.88
459.081	3.88
459.434	3.86
459.787	3.89
460.141	3.9
460.494	3.9
460.847	3.91
461.2	3.91
461.553	3.94
461.906	3.95
462.259	3.98
462.611	4.01
462.964	4.03
463.317	4.05
463.67	4.05
464.022	4.07
464.375	4.06
464.728	4.09
465.08	4.1
465.433	4.12
465.785	4.15
466.138	4.15
466.49	4.16
466.843	4.19
467.195	4.22
467.547	4.22
467.899	4.22
468.252	4.22
468.604	4.24
468.956	4.22
469.308	4.25
469.66	4.22
470.012	4.24
470.364	4.24
470.716	4.26
471.068	4.27
471.42	4.29
471.772	4.32
472.123	4.34
472.475	4.36
472.827	4.36
473.178	4.36
473.53	4.35
473.882	4.37
474.233	4.39
474.585	4.37
474.936	4.37
475.288	4.39
475.639	4.4
475.99	4.4
476.342	4.41
476.693	4.39
477.044	4.41
477.395	4.37
477.746	4.37
478.097	4.33
478.448	4.32
478.8	4.29
479.15	4.29
479.501	4.29
479.852	4.25
480.203	4.25
480.554	4.25
480.905	4.27
481.255	4.27
481.606	4.26
481.957	4.26
482.307	4.26
482.658	4.25
483.009	4.25
483.359	4.25
483.709	4.26
484.06	4.26
484.41	4.26
484.761	4.27
485.111	4.28
485.461	4.3
485.811	4.31
486.162	4.31
486.512	4.33
486.862	4.33
487.212	4.34
487.562	4.35
487.912	4.35
488.262	4.35
488.612	4.36
488.961	4.37
489.311	4.39
489.661	4.4
490.011	4.41
490.36	4.41
490.71	4.43
491.06	4.43
491.409	4.46
491.759	4.46
492.108	4.47
492.458	4.46
492.807	4.47
493.157	4.48
493.506	4.51
493.855	4.5
494.204	4.51
494.554	4.55
494.903	4.56
495.252	4.59
495.601	4.62
495.95	4.64
496.299	4.66
496.648	4.69
496.997	4.71
497.346	4.75
497.695	4.81
498.043	4.84
498.392	4.86
498.741	4.88
499.09	4.92
499.438	4.96
499.787	5.02
500.135	5.06
500.484	5.1
500.832	5.15
501.181	5.21
501.529	5.26
501.878	5.3
502.226	5.36
502.574	5.42
502.923	5.46
503.271	5.52
503.619	5.59
503.967	5.65
504.315	5.73
504.663	5.78
505.011	5.84
505.359	5.91
505.707	6
506.055	6.07
506.403	6.16
506.751	6.24
507.098	6.3
507.446	6.39
507.794	6.46
508.141	6.53
508.489	6.59
508.837	6.66
509.184	6.74
509.531	6.83
509.879	6.89
510.226	6.99
510.574	7.05
510.921	7.13
511.268	7.21
511.616	7.29
511.963	7.37
512.31	7.44
512.657	7.56
513.004	7.66
513.351	7.76
513.698	7.86
514.045	7.95
514.392	8.05
514.739	8.16
515.086	8.28
515.432	8.39
515.779	8.5
516.126	8.6
516.473	8.7
516.819	8.79
517.166	8.9
517.512	8.98
517.859	9.08
518.205	9.15
518.552	9.24
518.898	9.33
519.245	9.42
519.591	9.53
519.937	9.61
520.283	9.7
520.629	9.81
520.976	9.94
521.322	10.06
521.668	10.2
522.014	10.32
522.36	10.47
522.706	10.61
523.052	10.76
523.398	10.96
523.743	11.13
524.089	11.33
524.435	11.49
524.781	11.65
525.126	11.8
525.472	11.97
525.817	12.11
526.163	12.22
526.509	12.36
526.854	12.48
527.199	12.56
527.545	12.67
527.89	12.78
528.235	12.88
528.581	13
528.926	13.12
529.271	13.25
529.616	13.36
529.961	13.49
530.306	13.62
530.651	13.75
530.996	13.9
531.341	14.01
531.686	14.16
532.031	14.33
532.376	14.51
532.721	14.66
533.065	14.83
533.41	15
533.755	15.18
534.099	15.37
534.444	15.58
534.788	15.77
535.133	15.96
535.477	16.15
535.822	16.36
536.166	16.58
536.51	16.8
536.855	17.03
537.199	17.28
537.543	17.53
537.887	17.77
538.231	18.02
538.576	18.3
538.92	18.54
539.264	18.77
539.608	18.98
539.951	19.17
540.295	19.39
540.639	19.62
540.983	19.81
541.327	19.99
541.671	20.18
542.014	20.38
542.358	20.58
542.701	20.77
543.045	20.96
543.389	21.12
543.732	21.3
544.075	21.48
544.419	21.66
544.762	21.87
545.105	22.06
545.449	22.29
545.792	22.53
546.135	22.76
546.478	23.03
546.821	23.3
547.165	23.6
547.508	23.89
547.851	24.13
548.194	24.38
548.536	24.65
548.879	24.93
549.222	25.19
549.565	25.44
549.908	25.69
550.25	25.94
550.593	26.24
550.936	26.5
551.278	26.79
551.621	27.11
551.963	27.36
552.306	27.63
552.648	27.9
552.991	28.15
553.333	28.42
553.675	28.64
554.017	28.85
554.36	29.07
554.702	29.31
555.044	29.57
555.386	29.79
555.728	30.04
556.07	30.27
556.412	30.45
556.754	30.66
557.096	30.9
557.438	31.13
557.78	31.35
558.121	31.58
558.463	31.83
558.805	32
559.147	32.23
559.488	32.44
559.83	32.63
560.171	32.84
560.513	33.04
560.854	33.26
561.196	33.43
561.537	33.6
561.878	33.73
562.22	33.89
562.561	34.04
562.902	34.25
563.243	34.42
563.584	34.6
563.925	34.79
564.266	34.91
564.607	35.03
564.948	35.21
565.289	35.42
565.63	35.57
565.971	35.75
566.312	35.89
566.653	36.03
566.993	36.17
567.334	36.31
567.675	36.45
568.015	36.56
568.356	36.72
568.696	36.86
569.037	37.02
569.377	37.21
569.718	37.37
570.058	37.46
570.398	37.6
570.739	37.77
571.079	37.87
571.419	38.04
571.759	38.22
572.099	38.3
572.439	38.38
572.779	38.48
573.119	38.55
573.459	38.68
573.799	38.78
574.139	38.82
574.479	38.92
574.819	39.05
575.158	39.16
575.498	39.25
575.838	39.38
576.177	39.47
576.517	39.57
576.856	39.67
577.196	39.81
577.535	39.89
577.875	39.92
578.214	40.05
578.553	40.12
578.893	40.18
579.232	40.32
579.571	40.38
579.91	40.46
580.25	40.58
580.589	40.66
580.928	40.79
581.267	40.98
581.606	41.04
581.945	41.12
582.283	41.23
582.622	41.32
582.961	41.46
583.3	41.55
583.639	41.57
583.977	41.59
584.316	41.66
584.654	41.7
584.993	41.84
585.332	41.89
585.67	42.01
586.008	42.02
586.347	42.04
586.685	42.12
587.024	42.23
587.362	42.29
587.7	42.36
588.038	42.42
588.376	42.45
588.715	42.45
589.053	42.53
589.391	42.54
589.729	42.65
590.067	42.7
590.404	42.72
590.742	42.8
591.08	42.89
591.418	42.99
591.756	43.07
592.093	43.09
592.431	43.15
592.769	43.22
593.106	43.26
593.444	43.34
593.781	43.38
594.119	43.41
594.456	43.36
594.793	43.39
595.131	43.41
595.468	43.47
595.805	43.51
596.143	43.52
596.48	43.61
596.817	43.6
597.154	43.62
597.491	43.69
597.828	43.7
598.165	43.72
598.502	43.67
598.839	43.74
599.176	43.8
599.512	43.89
599.849	43.93
600.186	44.01
600.523	44.09
600.859	44.16
601.196	44.2
601.532	44.32
601.869	44.38
602.205	44.42
602.542	44.47
602.878	44.56
603.215	44.61
603.551	44.64
603.887	44.7
604.223	44.64
604.56	44.69
604.896	44.69
605.232	44.74
605.568	44.82
605.904	44.82
606.24	44.9
606.576	44.92
606.912	44.94
607.248	45.04
607.583	45.12
607.919	45.14
608.255	45.17
608.591	45.2
608.926	45.22
609.262	45.34
609.597	45.29
609.933	45.32
610.268	45.27
610.604	45.27
610.939	45.31
611.275	45.42
611.61	45.43
611.945	45.57
612.281	45.59
612.616	45.62
612.951	45.68
613.286	45.65
613.621	45.65
613.956	45.63
614.291	45.69
614.626	45.64
614.961	45.6
615.296	45.67
615.631	45.64
615.966	45.71
616.3	45.67
616.635	45.77
616.97	45.82
617.304	45.9
617.639	45.94
617.973	45.92
618.308	45.93
618.642	46.01
618.977	45.96
619.311	46.05
619.646	46.02
619.98	46.05
620.314	46.13
620.648	46.22
620.983	46.32
621.317	46.27
621.651	46.32
621.985	46.4
622.319	46.42
622.653	46.54
622.987	46.55
623.321	46.61
623.655	46.74
623.988	46.8
624.322	46.87
624.656	46.95
624.99	46.98
625.323	47
625.657	47.05
625.99	47.08
626.324	47.11
626.657	47.22
626.991	47.28
627.324	47.25
627.658	47.22
627.991	47.3
628.324	47.35
628.657	47.33
628.991	47.39
629.324	47.48
629.657	47.53
629.99	47.6
630.323	47.61
630.656	47.54
630.989	47.59
631.322	47.58
631.655	47.59
631.987	47.58
632.32	47.61
632.653	47.56
632.986	47.63
633.318	47.6
633.651	47.6
633.984	47.57
634.316	47.61
634.649	47.74
634.981	47.76
635.313	47.78
635.646	47.9
635.978	47.89
636.31	47.9
636.643	47.92
636.975	47.85
637.307	47.91
637.639	47.97
637.971	47.94
638.303	47.89
638.635	47.88
638.967	47.94
639.299	47.95
639.631	48.06
639.963	47.99
640.295	48.1
640.626	48.1
640.958	48.13
641.29	48.22
641.621	48.11
641.953	48.09
642.285	48.12
642.616	48.09
642.948	48.13
643.279	48.14
643.61	48.16
643.942	48.25
644.273	48.23
644.604	48.22
644.936	48.23
645.267	48.4
645.598	48.44
645.929	48.49
646.26	48.53
646.591	48.51
646.922	48.61
647.253	48.62
647.584	48.6
647.915	48.64
648.245	48.54
648.576	48.68
648.907	48.72
649.238	48.72
649.568	48.69
649.899	48.79
650.229	48.8
650.56	48.85
650.89	48.83
651.221	48.77
651.551	48.78
651.882	48.78
652.212	48.81
652.542	48.88
652.872	48.94
653.203	49.06
653.533	49.09
653.863	49.17
654.193	49.04
654.523	49.07
654.853	49.12
655.183	49.15
655.513	49.14
655.843	49.17
656.172	49.22
656.502	49.23
656.832	49.25
657.162	49.26
657.491	49.26
657.821	49.36
658.15	49.45
658.48	49.58
658.809	49.58
659.139	49.52
659.468	49.47
659.798	49.46
660.127	49.34
660.456	49.32
660.785	49.31
661.115	49.39
661.444	49.36
661.773	49.41
662.102	49.38
662.431	49.37
662.76	49.34
663.089	49.36
663.418	49.44
663.747	49.37
664.076	49.38
664.404	49.38
664.733	49.24
665.062	49.29
665.39	49.22
665.719	49.33
666.048	49.33
666.376	49.33
666.705	49.27
667.033	49.31
667.362	49.45
667.69	49.52
668.018	49.58
668.347	49.66
668.675	49.64
669.003	49.69
669.331	49.71
669.659	49.71
669.987	49.81
670.315	49.85
670.643	49.83
670.971	49.76
671.299	49.83
671.627	49.92
671.955	49.94
672.283	49.89
672.61	49.87
672.938	49.98
673.266	50.07
673.593	50.22
673.921	50.33
674.249	50.19
674.576	50.13
674.904	50.12
675.231	50.14
675.558	50.17
675.886	50.29
676.213	50.29
676.54	50.36
676.867	50.29
677.195	50.29
677.522	50.33
677.849	50.53
678.176	50.47
678.503	50.46
678.83	50.42
679.157	50.5
679.484	50.5
679.81	50.49
680.137	50.5
680.464	50.41
680.791	50.38
681.117	50.33
681.444	50.35
681.771	50.47
682.097	50.53
682.424	50.62
682.75	50.63
683.077	50.58
683.403	50.5
683.729	50.47
684.056	50.43
684.382	50.44
684.708	50.33
685.034	50.33
685.36	50.41
685.686	50.43
686.012	50.37
686.339	50.3
686.664	50.3
686.99	50.38
687.316	50.29
687.642	50.39
687.968	50.42
688.294	50.45
688.619	50.4
688.945	50.36
689.271	50.27
689.596	50.11
689.922	50.15
690.247	50.2
690.573	50.19
690.898	50.28
691.224	50.27
691.549	50.18
691.874	50.25
692.2	50.2
692.525	50.3
692.85	50.41
693.175	50.58
693.5	50.54
693.825	50.52
694.15	50.74
694.475	50.58
694.8	50.62
695.125	50.52
695.45	50.48
695.775	50.49
696.099	50.54
696.424	50.74
696.749	50.73
697.073	50.71
697.398	50.77
697.723	50.64
698.047	50.62
698.372	50.67
698.696	50.63
699.02	50.59
699.345	50.57
699.669	50.63
699.993	50.6
700.318	50.7
700.642	50.57
700.966	50.45
701.29	50.56
701.614	50.63
701.938	50.76
702.262	50.76
702.586	50.82
702.91	50.86
703.234	50.93
703.557	51.09
703.881	51.12
704.205	51.13
704.529	51.4
704.852	51.47
705.176	51.71
705.499	51.74
705.823	51.92
706.146	51.85
706.47	51.81
706.793	51.81
707.117	51.65
707.44	51.76
707.763	51.89
708.086	51.88
708.409	51.89
708.733	51.84
709.056	51.93
709.379	51.78
709.702	51.7
710.025	51.57
710.348	51.54
710.671	51.63
710.993	51.7
711.316	51.67
711.639	51.71
711.962	51.47
712.284	51.46
712.607	51.43
712.93	51.53
713.252	51.42
713.575	51.46
713.897	51.55
714.22	51.68
714.542	51.6
714.864	51.57
715.187	51.48
715.509	51.49
715.831	51.47
716.153	51.55
716.475	51.5
716.798	51.47
717.12	51.41
717.442	51.36
717.764	51.35
718.085	51.11
718.407	51.31
718.729	51.54
719.051	51.47
719.373	51.43
719.695	51.55
720.016	51.71
720.338	51.62
720.659	51.78
720.981	51.72
721.302	51.91
721.624	51.96
721.945	52.23
722.267	52.24
722.588	52.34
722.909	52.54
723.231	52.42
723.552	52.42
723.873	52.31
724.194	52.35
724.515	52.32
724.836	52.38
725.157	52.37
725.478	52.15
725.799	52.27
726.12	52.47
726.441	52.26
726.762	51.95
727.083	51.99
727.403	51.95
727.724	51.9
728.045	51.67
728.365	51.59
728.686	51.44
729.006	51.47
729.327	51.43
729.647	51.32
729.967	51.56
730.288	51.62
730.608	51.63
730.928	51.69
731.249	51.7
731.569	51.99
731.889	51.86
732.209	52.01
732.529	52.07
732.849	51.9
733.169	51.82
733.489	52.04
733.809	52.26
734.129	52.01
734.448	52.03
734.768	52.28
735.088	52.39
735.408	52.72
735.727	53.01
736.047	52.93
736.366	52.94
736.686	52.97
737.005	53.06
737.325	53.15
737.644	53.05
737.963	52.98
738.283	52.83
738.602	52.83
738.921	52.44
739.24	52.42
739.56	52.55
739.879	52.75
740.198	52.6
740.517	52.34
740.836	52.6
741.155	52.39
741.473	52.37
741.792	52.31
742.111	51.91
742.43	51.63
742.748	51.67
743.067	51.75
743.386	51.58
743.704	51.36
744.023	51.54
744.341	51.56
744.66	51.55
744.978	51.42
745.297	51.53
745.615	51.72
745.933	52
746.252	51.87
746.57	51.93
746.888	52.16
747.206	52.28
747.524	52.29
747.842	52.4
748.16	52.24
748.478	52.47
748.796	52.55
749.114	52.53
749.432	52.89
749.749	53.13
750.067	53.3
750.385	53.62
750.703	53.49
751.02	53.48
751.338	53.53
751.655	53.58
751.973	53.91
752.29	54.05
752.608	53.67
752.925	53.79
753.242	53.67
753.56	53.66
753.877	53.33
754.194	53.23
754.511	53.48
754.828	53.63
755.145	53.63
755.462	53.6
755.779	53.26
756.096	53.1
756.413	52.97
756.73	53.1
757.047	52.97
757.364	52.98
757.68	53.35
757.997	53.29
758.314	53.15
758.63	52.95
758.947	52.81
759.264	52.93
759.58	53
759.896	53.28
760.213	53.22
760.529	53.53
760.846	53.52
761.162	53.3
761.478	53.26
761.794	52.83
762.11	52.9
762.426	53.19
762.743	53.09
763.059	52.94
763.375	52.93
763.69	53.02
764.006	52.92
764.322	52.88
764.638	53.02
764.954	53.47
765.27	53.35
765.585	53.42
765.901	53.43
766.216	53.41
766.532	53.26
766.848	53.34
767.163	53.41
767.478	53.38
767.794	53.37
768.109	53.18
768.424	53.48
768.74	53.43
769.055	53.49
769.37	53.54
769.685	53.42
770	53.19
770.315	53.07
770.63	53.06
770.945	52.91
771.26	53.22
771.575	52.64
771.89	52.8
772.205	53.18
772.52	53.2
772.834	53.03
773.149	52.86
773.464	52.89
773.778	52.8
774.093	52.82
774.407	53.03
774.722	53.72
775.036	53.74
775.351	53.53
775.665	53.58
775.979	53.47
776.293	54.2
776.608	54.18
776.922	54.14
777.236	54.28
777.55	54.18
777.864	53.99
778.178	53.75
778.492	53.54
778.806	53.44
779.12	53.54
779.434	53.36
779.747	53.69
780.061	53.45
780.375	53.74
780.689	53.76
781.002	53.89
781.316	53.73
781.629	53.39
781.943	53.99
782.256	54.09
782.57	54.13
782.883	53.89
783.196	54.09
783.51	54.42
783.823	54.5
784.136	54.66
784.449	54.94
784.762	55.81
785.075	55.9
785.388	55.82
785.701	55.74
786.014	55.59
786.327	55.73
786.64	56.05
786.953	55.65
787.266	55.74
787.578	55.37
787.891	55.58
788.204	55.59
788.516	55.68
788.829	55.24
789.141	55.53
789.454	55.28
789.766	55.58
790.079	55.7
790.391	55.43
790.703	55.84
791.016	55.38
791.328	55.35
791.64	55.42
791.952	55.37
792.264	55.3
792.576	55.38
792.888	54.99
793.2	55.15
793.512	55.46
793.824	55.73
794.136	56.32
794.448	55.69
794.76	56.09
795.071	55.54
795.383	56.07
795.695	55.38
796.006	55.35
796.318	55.3
796.629	54.91
796.941	55.13
797.252	54.76
797.564	54.75
797.875	54.47
798.186	54.35
798.497	54.29
798.809	54.39
799.12	54.79
799.431	55.26
799.742	55.33
800.053	55.56
800.364	55.52
800.675	54.87
800.986	55.33
801.297	55.4
801.608	55.81
801.918	55.88
802.229	56.61
802.54	56.61
802.851	56.6
803.161	56.77
803.472	56.69
803.782	57.05
804.093	57.22
804.403	57.39
804.714	57.36
805.024	57.56
805.334	57.54
805.645	58.02
805.955	58
806.265	57.7
806.575	57.88
806.885	57
807.195	57.52
807.505	56.82
807.815	56.59
808.125	56.39
808.435	55.85
808.745	55.16
809.055	55.56
809.365	55.62
809.674	55.6
809.984	56.25
810.294	55.62
810.603	55.22
810.913	55.31
811.222	55.3
811.532	55.2
811.841	55.94
812.151	55.6
812.46	55.29
812.769	55.45
813.079	54.79
813.388	55.48
813.697	54.75
814.006	55.5
814.315	55.5
814.624	56.43
814.933	56.63
815.242	57.6
815.551	58.43
815.86	58.39
816.169	58.12
816.478	57.69
816.786	58.21
817.095	58.13
817.404	58.31
817.712	58.19
818.021	58.05
818.33	57.3
818.638	57.05
818.947	56.56
819.255	55.9
819.563	55.73
819.872	55.68
820.18	55.7
820.488	55.53
820.796	55.6
821.105	55.2
821.413	54.93
821.721	54.44
822.029	53.91
822.337	53.86
822.645	53.93
822.953	54.01
823.26	53.88
823.568	54.13
823.876	54.24
824.184	54.37
824.491	54.36
824.799	54.47
825.107	54.56
825.414	54.61
825.722	54.73
826.029	54.65
826.337	54.88
826.644	54.93
826.951	54.62
827.259	54.63
827.566	54.63
827.873	54.8
828.18	55.07
828.488	55.32
828.795	55.62
829.102	55.44
829.409	55.76
829.716	55.73
830.023	55.76
830.329	55.49
830.636	55.72
830.943	55.91
831.25	55.75
831.557	55.84
831.863	55.69
832.17	55.44
832.476	55.41
832.783	54.89
833.089	54.81
833.396	55.61
833.702	55.58
834.009	55.82
834.315	56.45
834.621	56.61
834.928	56.58
835.234	56.13
835.54	56.62
835.846	55.8
836.152	55.94
836.458	55.72
836.764	55.5
837.07	54.79
837.376	54.41
837.682	53.77
837.988	53.41
838.293	53.66
838.599	53.96
838.905	54.12
839.211	54.37
839.516	55.2
839.822	55.32
840.127	55.47
840.433	55.02
840.738	53.57
841.044	53.15
841.349	53.38
841.654	52.67
841.959	52.99
842.265	54.04
842.57	54.57
842.875	55.03
843.18	55.79
843.485	56.19
843.79	55.97
844.095	56.74
844.4	57.93
844.705	57.55
845.01	58.99
845.315	60.13
845.619	59.37
845.924	58.55
846.229	57.45
846.533	57.54
846.838	57.95
847.142	57.69
847.447	59.09
847.751	57.95
848.056	59.37
848.36	59.06
848.664	57.73
848.969	57.79
849.273	56.78
849.577	58.41
849.881	58.05
850.185	61.36
850.489	62.84
850.794	61.69
851.097	64.57
851.401	63.01
851.705	62.03
852.009	62.15
852.313	63.88
852.617	65.07
852.92	63.85
853.224	64.3
853.528	66.92
853.831	64.65
854.135	66.82
854.438	66.73
854.742	67.37
855.045	66.4
855.349	64.43
855.652	65.05
855.955	62.19
856.259	64.65
856.562	61.55
856.865	62.93
857.168	63.62
857.471	60.77
857.774	59.21
858.077	60.83
858.38	59.73
858.683	57.77
858.986	59.86
859.289	60.76
859.592	60.91
859.894	60.98
860.197	63.18
860.5	63.72
860.802	65.25
861.105	65.8
861.407	65.77
861.71	66.57
862.012	66.46
862.315	66.89
862.617	62.7
862.919	63.39
863.222	61.41
863.524	60.04
863.826	61.76
864.128	62.5
864.43	62.7
864.732	66.48
865.034	69.23
865.336	65.72
865.638	64.33
865.94	63.81
866.242	62.52
866.544	61.6
866.846	57.57
867.147	57.63
867.449	57.34
867.751	57.85
868.052	59.56
868.354	60.51
868.655	61.9
868.957	63.51
869.258	65.59
869.56	64.41
869.861	63.8
870.162	64.93
870.463	68.38
870.765	67.42
871.066	65.39
871.367	64.37
871.668	65.46
871.969	66.62
872.27	65.57
872.571	65.77
872.872	64.07
873.173	64.41
873.473	63.68
873.774	61.89
874.075	62.11
874.376	59.07
874.676	57.6
874.977	56.56
875.277	56.51
875.578	55.9
875.878	56.93
876.179	57.57
876.479	55.74
876.78	51.95
877.08	50.78
877.38	50.64
877.68	48.84
877.981	48.67
878.281	48
878.581	48.26
