Data from BA56830_Reflection_00001.txt Node
Date: Mon Nov 18 16:03:44 EST 2019
User: vgr7
Spectrometer: USB2G7710
Scans to average: 3
Trigger mode: 4
Integration Time (sec): 2.000000E-2
Electric dark correction enabled: true
Boxcar width: 10
XAxis mode: Wavelengths
Number of Pixels in Spectrum: 2048
>>>>>Begin Spectral Data<<<<<
177.721	-199.88
178.105	-30.72
178.488	-152.63
178.871	-218.43
179.254	-189.97
179.636	410.46
180.019	-12455.56
180.402	184.21
180.785	32.01
181.168	103.9
181.55	106.65
181.933	91.97
182.316	84.43
182.698	89.75
183.081	71.32
183.463	73.44
183.846	89.63
184.228	174.67
184.611	798.25
184.993	-1073.16
185.376	1766.67
185.758	509.77
186.14	834.42
186.522	250.92
186.904	629.72
187.287	1474.43
187.669	-819.8
188.051	2302.61
188.433	-128233.33
188.815	-597.26
189.197	-221.31
189.579	-116.56
189.961	-109.96
190.342	-96.42
190.724	-95.52
191.106	-123.41
191.488	-120.19
191.869	-114.59
192.251	-165.85
192.633	-257.08
193.014	-286.8
193.396	-338.29
193.777	-284.11
194.159	-286.35
194.54	-207.25
194.922	-176.16
195.303	-170.74
195.684	-195.66
196.065	-95.11
196.447	-107.26
196.828	-135.91
197.209	-132.32
197.59	-186.19
197.971	-179.19
198.352	-141.4
198.733	-171.98
199.114	-139.26
199.495	-118.64
199.876	-118.53
200.257	-109.06
200.638	-109.91
201.018	-126.34
201.399	-122.14
201.78	-104.63
202.16	-121.66
202.541	-128.34
202.922	-187.98
203.302	-191.37
203.683	-163.72
204.063	-256.92
204.444	-239.85
204.824	-178.53
205.204	-165.14
205.585	-157.61
205.965	-145.54
206.345	-199.06
206.725	-188.47
207.106	-202.36
207.486	-273.05
207.866	-222.93
208.246	-183.73
208.626	-199.18
209.006	-129.51
209.386	-142.45
209.766	-163.69
210.145	-139.86
210.525	-117.87
210.905	-100.85
211.285	-88.74
211.664	-88.33
212.044	-101.12
212.424	-84.46
212.803	-101.33
213.183	-116.7
213.562	-114.65
213.942	-110.44
214.321	-63.68
214.701	-74.55
215.08	-75.17
215.459	-58.09
215.838	-60.08
216.218	-70.21
216.597	-59.44
216.976	-46.62
217.355	-45.58
217.734	-58.09
218.113	-53.26
218.492	-64.21
218.871	-61.14
219.25	-58.61
219.629	-62.9
220.008	-64.26
220.387	-68.06
220.766	-69.51
221.144	-71.27
221.523	-76.43
221.902	-86.59
222.28	-97.37
222.659	-87.84
223.037	-84.94
223.416	-89.93
223.794	-90.23
224.173	-84.9
224.551	-86.83
224.929	-97.52
225.308	-83.16
225.686	-73.68
226.064	-58.05
226.442	-46.01
226.821	-37.1
227.199	-35.24
227.577	-34.08
227.955	-31.71
228.333	-30.49
228.711	-26.9
229.089	-23.28
229.467	-22.51
229.845	-19.79
230.222	-17.33
230.6	-16.36
230.978	-13.35
231.356	-11.44
231.733	-11.13
232.111	-9.8
232.488	-7.54
232.866	-6.31
233.243	-5.56
233.621	-5.65
233.998	-6.76
234.376	-7.63
234.753	-9.93
235.13	-8.46
235.508	-6.54
235.885	-4.81
236.262	-4.47
236.639	-4.63
237.016	-3.13
237.393	-0.86
237.77	-0.4
238.147	-0.39
238.524	0.38
238.901	1.05
239.278	1.99
239.655	2.94
240.032	2.74
240.409	2.07
240.785	1.91
241.162	1.89
241.539	2.65
241.915	2.42
242.292	2.51
242.668	2.93
243.045	2.71
243.421	2.53
243.798	2.41
244.174	2.85
244.551	3.1
244.927	2.82
245.303	2.89
245.679	2.91
246.056	3.21
246.432	3.23
246.808	3.01
247.184	2.56
247.56	2.49
247.936	2.68
248.312	2.91
248.688	3.14
249.064	3.08
249.44	2.9
249.815	3.1
250.191	3.19
250.567	3.37
250.943	3.58
251.318	3.61
251.694	3.76
252.069	3.58
252.445	3.52
252.82	3.82
253.196	3.76
253.571	3.53
253.947	3.38
254.322	3.45
254.697	3.54
255.073	3.47
255.448	3.42
255.823	3.39
256.198	3.25
256.573	3.03
256.948	2.98
257.323	3.05
257.698	3.18
258.073	3.15
258.448	2.9
258.823	2.88
259.198	2.99
259.573	3.13
259.948	3.12
260.322	3.27
260.697	3.29
261.072	3.28
261.446	3.37
261.821	3.11
262.195	3.09
262.57	3.09
262.944	3.34
263.319	3.26
263.693	3.3
264.067	3.46
264.442	3.58
264.816	3.55
265.19	3.53
265.564	3.34
265.938	3.32
266.313	3.35
266.687	3.36
267.061	3.4
267.435	3.17
267.809	3.2
268.183	3.17
268.556	3
268.93	2.92
269.304	3.08
269.678	3.33
270.051	3.28
270.425	3.28
270.799	3.17
271.172	3.18
271.546	3.09
271.919	2.9
272.293	2.76
272.666	2.86
273.04	2.84
273.413	2.91
273.787	2.92
274.16	3.09
274.533	3.09
274.906	3.02
275.279	2.99
275.653	3.04
276.026	2.88
276.399	2.9
276.772	2.95
277.145	2.88
277.518	2.79
277.891	2.74
278.263	2.76
278.636	2.75
279.009	2.95
279.382	2.88
279.755	2.97
280.127	3.15
280.5	3.2
280.872	3.31
281.245	3.25
281.617	3.31
281.99	3.25
282.362	3.2
282.735	3.12
283.107	3.13
283.479	3.23
283.852	3.34
284.224	3.35
284.596	3.37
284.968	3.35
285.34	3.41
285.713	3.51
286.085	3.61
286.457	3.7
286.829	3.68
287.201	3.84
287.572	3.83
287.944	3.77
288.316	3.78
288.688	3.73
289.06	3.76
289.431	3.8
289.803	3.82
290.175	3.94
290.546	4.2
290.918	4.28
291.289	4.27
291.661	4.35
292.032	4.43
292.403	4.47
292.775	4.63
293.146	4.73
293.517	4.68
293.889	4.64
294.26	4.67
294.631	4.69
295.002	4.71
295.373	4.85
295.744	5
296.115	4.98
296.486	4.88
296.857	4.93
297.228	4.94
297.599	4.99
297.97	4.87
298.34	4.79
298.711	4.72
299.082	4.65
299.452	4.72
299.823	4.79
300.194	4.77
300.564	4.71
300.935	4.65
301.305	4.72
301.676	4.78
302.046	4.71
302.416	4.88
302.787	4.84
303.157	4.76
303.527	4.62
303.897	4.67
304.267	4.88
304.637	4.91
305.008	4.99
305.378	5.04
305.748	5.22
306.117	5.1
306.487	5.19
306.857	5.35
307.227	5.29
307.597	5.24
307.967	5.32
308.336	5.31
308.706	5.31
309.076	5.4
309.445	5.34
309.815	5.4
310.184	5.17
310.554	5.23
310.923	5.23
311.293	5.23
311.662	5.26
312.031	5.22
312.401	5.15
312.77	5.16
313.139	5.12
313.508	5.01
313.877	5.12
314.246	5.16
314.616	5.04
314.985	5.03
315.353	4.97
315.722	4.93
316.091	4.89
316.46	4.89
316.829	4.9
317.198	4.92
317.567	4.97
317.935	5.06
318.304	5.14
318.672	5.08
319.041	5.29
319.41	5.15
319.778	5.21
320.147	5.2
320.515	5.13
320.883	5.14
321.252	5.26
321.62	5.22
321.988	5.34
322.357	5.49
322.725	5.54
323.093	5.57
323.461	5.69
323.829	5.7
324.197	5.74
324.565	5.67
324.933	5.65
325.301	5.54
325.669	5.56
326.037	5.53
326.405	5.63
326.772	5.63
327.14	5.68
327.508	5.62
327.875	5.61
328.243	5.57
328.61	5.57
328.978	5.56
329.346	5.7
329.713	5.49
330.08	5.36
330.448	5.33
330.815	5.29
331.182	5.29
331.55	5.33
331.917	5.42
332.284	5.47
332.651	5.46
333.018	5.5
333.385	5.48
333.752	5.42
334.119	5.37
334.486	5.27
334.853	5.23
335.22	5.2
335.587	5.35
335.954	5.32
336.32	5.24
336.687	5.25
337.054	5.12
337.42	5.25
337.787	5.28
338.153	5.25
338.52	5.34
338.886	5.17
339.253	5.1
339.619	5.05
339.986	5
340.352	5.07
340.718	5.16
341.084	5.14
341.451	5.12
341.817	5.23
342.183	5.23
342.549	5.3
342.915	5.39
343.281	5.35
343.647	5.43
344.013	5.38
344.379	5.42
344.745	5.44
345.11	5.35
345.476	5.41
345.842	5.42
346.208	5.39
346.573	5.55
346.939	5.7
347.304	5.65
347.67	5.78
348.035	5.64
348.401	5.68
348.766	5.72
349.132	5.79
349.497	5.81
349.862	5.89
350.228	5.85
350.593	5.83
350.958	5.89
351.323	5.85
351.688	5.98
352.053	5.94
352.418	6.01
352.783	6.08
353.148	6.08
353.513	6.1
353.878	6.06
354.243	6.05
354.608	6.01
354.972	6.07
355.337	6.04
355.702	6.14
356.066	6.15
356.431	6.12
356.795	6.1
357.16	6.01
357.524	5.98
357.889	5.99
358.253	6
358.618	5.98
358.982	6.03
359.346	5.99
359.71	5.92
360.075	5.96
360.439	6
360.803	5.99
361.167	5.96
361.531	6
361.895	5.94
362.259	5.9
362.623	5.89
362.987	5.83
363.351	5.83
363.714	5.89
364.078	5.94
364.442	5.95
364.806	5.95
365.169	5.99
365.533	5.98
365.896	5.98
366.26	6
366.623	5.94
366.987	5.97
367.35	6.03
367.714	6.06
368.077	6.03
368.44	6.07
368.803	6.06
369.167	6.09
369.53	6.03
369.893	6.05
370.256	6.06
370.619	6.12
370.982	6.16
371.345	6.03
371.708	6.01
372.071	5.95
372.434	5.95
372.797	5.96
373.159	5.91
373.522	5.95
373.885	5.96
374.247	5.96
374.61	5.99
374.973	5.96
375.335	5.92
375.698	5.95
376.06	5.89
376.423	5.91
376.785	5.9
377.147	5.95
377.51	5.93
377.872	5.9
378.234	5.88
378.596	5.9
378.958	5.95
379.321	5.93
379.683	6
380.045	6.03
380.407	5.97
380.769	5.99
381.13	6
381.492	5.96
381.854	6.01
382.216	6
382.578	6.04
382.939	6.03
383.301	6
383.663	5.95
384.024	5.96
384.386	5.97
384.747	5.99
385.109	6
385.47	5.98
385.832	5.97
386.193	5.93
386.554	5.87
386.916	5.86
387.277	5.84
387.638	5.82
387.999	5.84
388.36	5.89
388.721	5.85
389.082	5.85
389.443	5.79
389.804	5.8
390.165	5.82
390.526	5.83
390.887	5.84
391.248	5.9
391.609	5.9
391.969	5.9
392.33	5.91
392.691	5.92
393.051	5.92
393.412	5.98
393.772	5.93
394.133	5.97
394.493	5.94
394.854	5.93
395.214	5.94
395.574	5.93
395.935	5.93
396.295	5.97
396.655	5.96
397.015	5.94
397.376	5.9
397.736	5.89
398.096	5.9
398.456	5.9
398.816	5.9
399.176	5.87
399.535	5.89
399.895	5.88
400.255	5.89
400.615	5.88
400.975	5.84
401.334	5.87
401.694	5.85
402.054	5.91
402.413	5.94
402.773	5.9
403.132	5.91
403.492	5.91
403.851	5.89
404.211	5.88
404.57	5.89
404.929	5.93
405.288	5.9
405.648	5.88
406.007	5.9
406.366	5.88
406.725	5.91
407.084	5.86
407.443	5.88
407.802	5.89
408.161	5.9
408.52	5.89
408.879	5.89
409.238	5.91
409.596	5.89
409.955	5.88
410.314	5.94
410.673	5.97
411.031	5.93
411.39	5.95
411.748	5.98
412.107	6.02
412.465	6.01
412.824	6.04
413.182	6.06
413.54	6.04
413.899	6.06
414.257	6.06
414.615	6.1
414.974	6.1
415.332	6.08
415.69	6.11
416.048	6.11
416.406	6.12
416.764	6.1
417.122	6.09
417.48	6.07
417.838	6.07
418.195	6.06
418.553	6.07
418.911	6.05
419.269	6.04
419.626	6.04
419.984	6.03
420.342	6.04
420.699	6.03
421.057	6.04
421.414	6.02
421.772	6.02
422.129	6.01
422.486	5.99
422.844	5.99
423.201	5.98
423.558	5.99
423.915	5.98
424.273	5.98
424.63	5.98
424.987	5.99
425.344	5.97
425.701	5.96
426.058	5.96
426.415	5.98
426.772	5.98
427.128	5.96
427.485	5.99
427.842	5.98
428.199	5.97
428.555	5.94
428.912	5.97
429.269	5.96
429.625	5.96
429.982	5.98
430.338	5.97
430.695	5.95
431.051	5.93
431.407	5.94
431.764	5.92
432.12	5.9
432.476	5.9
432.832	5.87
433.189	5.86
433.545	5.84
433.901	5.81
434.257	5.8
434.613	5.81
434.969	5.79
435.325	5.79
435.681	5.77
436.036	5.8
436.392	5.78
436.748	5.78
437.104	5.77
437.459	5.76
437.815	5.74
438.171	5.75
438.526	5.78
438.882	5.79
439.237	5.81
439.593	5.83
439.948	5.83
440.304	5.84
440.659	5.86
441.014	5.88
441.369	5.89
441.725	5.89
442.08	5.9
442.435	5.91
442.79	5.91
443.145	5.91
443.5	5.9
443.855	5.89
444.21	5.89
444.565	5.9
444.92	5.89
445.275	5.9
445.629	5.91
445.984	5.89
446.339	5.87
446.693	5.87
447.048	5.85
447.403	5.84
447.757	5.84
448.112	5.83
448.466	5.82
448.82	5.81
449.175	5.8
449.529	5.79
449.883	5.77
450.238	5.76
450.592	5.78
450.946	5.77
451.3	5.79
451.654	5.79
452.008	5.79
452.362	5.77
452.716	5.78
453.07	5.78
453.424	5.79
453.778	5.79
454.132	5.78
454.486	5.77
454.839	5.8
455.193	5.8
455.547	5.8
455.9	5.8
456.254	5.8
456.607	5.82
456.961	5.81
457.314	5.81
457.668	5.8
458.021	5.78
458.375	5.79
458.728	5.77
459.081	5.78
459.434	5.76
459.787	5.76
460.141	5.77
460.494	5.76
460.847	5.77
461.2	5.76
461.553	5.76
461.906	5.78
462.259	5.76
462.611	5.75
462.964	5.76
463.317	5.77
463.67	5.77
464.022	5.76
464.375	5.76
464.728	5.78
465.08	5.79
465.433	5.8
465.785	5.79
466.138	5.8
466.49	5.8
466.843	5.8
467.195	5.83
467.547	5.82
467.899	5.84
468.252	5.83
468.604	5.85
468.956	5.85
469.308	5.85
469.66	5.86
470.012	5.89
470.364	5.88
470.716	5.88
471.068	5.9
471.42	5.93
471.772	5.94
472.123	5.92
472.475	5.91
472.827	5.92
473.178	5.94
473.53	5.96
473.882	5.94
474.233	5.93
474.585	5.92
474.936	5.93
475.288	5.93
475.639	5.92
475.99	5.91
476.342	5.92
476.693	5.91
477.044	5.91
477.395	5.9
477.746	5.9
478.097	5.89
478.448	5.87
478.8	5.85
479.15	5.86
479.501	5.88
479.852	5.89
480.203	5.89
480.554	5.9
480.905	5.9
481.255	5.92
481.606	5.95
481.957	5.98
482.307	5.99
482.658	5.99
483.009	6
483.359	6.01
483.709	6.01
484.06	6.01
484.41	6.01
484.761	6.03
485.111	6.04
485.461	6.05
485.811	6.06
486.162	6.06
486.512	6.07
486.862	6.07
487.212	6.07
487.562	6.09
487.912	6.1
488.262	6.1
488.612	6.1
488.961	6.1
489.311	6.08
489.661	6.08
490.011	6.09
490.36	6.09
490.71	6.09
491.06	6.08
491.409	6.09
491.759	6.09
492.108	6.08
492.458	6.07
492.807	6.07
493.157	6.07
493.506	6.09
493.855	6.07
494.204	6.06
494.554	6.07
494.903	6.05
495.252	6.03
495.601	6.04
495.95	6.04
496.299	6.04
496.648	6.03
496.997	6.03
497.346	6.04
497.695	6.04
498.043	6.05
498.392	6.07
498.741	6.08
499.09	6.09
499.438	6.09
499.787	6.11
500.135	6.12
500.484	6.13
500.832	6.13
501.181	6.15
501.529	6.18
501.878	6.2
502.226	6.24
502.574	6.25
502.923	6.24
503.271	6.25
503.619	6.26
503.967	6.27
504.315	6.29
504.663	6.3
505.011	6.32
505.359	6.31
505.707	6.31
506.055	6.32
506.403	6.33
506.751	6.34
507.098	6.34
507.446	6.35
507.794	6.37
508.141	6.36
508.489	6.37
508.837	6.37
509.184	6.37
509.531	6.35
509.879	6.37
510.226	6.4
510.574	6.4
510.921	6.41
511.268	6.43
511.616	6.43
511.963	6.43
512.31	6.44
512.657	6.45
513.004	6.47
513.351	6.48
513.698	6.47
514.045	6.48
514.392	6.48
514.739	6.48
515.086	6.5
515.432	6.51
515.779	6.49
516.126	6.51
516.473	6.52
516.819	6.53
517.166	6.54
517.512	6.55
517.859	6.56
518.205	6.56
518.552	6.57
518.898	6.57
519.245	6.56
519.591	6.56
519.937	6.55
520.283	6.54
520.629	6.55
520.976	6.54
521.322	6.56
521.668	6.58
522.014	6.59
522.36	6.58
522.706	6.58
523.052	6.61
523.398	6.63
523.743	6.64
524.089	6.67
524.435	6.66
524.781	6.67
525.126	6.7
525.472	6.72
525.817	6.71
526.163	6.71
526.509	6.72
526.854	6.73
527.199	6.75
527.545	6.75
527.89	6.76
528.235	6.75
528.581	6.76
528.926	6.76
529.271	6.76
529.616	6.76
529.961	6.76
530.306	6.76
530.651	6.76
530.996	6.75
531.341	6.73
531.686	6.74
532.031	6.74
532.376	6.74
532.721	6.73
533.065	6.72
533.41	6.74
533.755	6.74
534.099	6.74
534.444	6.73
534.788	6.75
535.133	6.73
535.477	6.75
535.822	6.75
536.166	6.75
536.51	6.77
536.855	6.79
537.199	6.79
537.543	6.78
537.887	6.79
538.231	6.8
538.576	6.81
538.92	6.81
539.264	6.82
539.608	6.83
539.951	6.84
540.295	6.87
540.639	6.87
540.983	6.87
541.327	6.88
541.671	6.9
542.014	6.9
542.358	6.91
542.701	6.92
543.045	6.92
543.389	6.93
543.732	6.91
544.075	6.9
544.419	6.89
544.762	6.91
545.105	6.9
545.449	6.9
545.792	6.9
546.135	6.9
546.478	6.89
546.821	6.88
547.165	6.86
547.508	6.85
547.851	6.83
548.194	6.83
548.536	6.82
548.879	6.81
549.222	6.79
549.565	6.8
549.908	6.8
550.25	6.78
550.593	6.8
550.936	6.82
551.278	6.84
551.621	6.85
551.963	6.84
552.306	6.85
552.648	6.82
552.991	6.84
553.333	6.86
553.675	6.85
554.017	6.84
554.36	6.85
554.702	6.87
555.044	6.86
555.386	6.88
555.728	6.86
556.07	6.89
556.412	6.87
556.754	6.85
557.096	6.85
557.438	6.86
557.78	6.84
558.121	6.85
558.463	6.84
558.805	6.87
559.147	6.88
559.488	6.85
559.83	6.9
560.171	6.89
560.513	6.92
560.854	6.92
561.196	6.92
561.537	6.91
561.878	6.92
562.22	6.93
562.561	6.9
562.902	6.93
563.243	6.9
563.584	6.92
563.925	6.94
564.266	6.93
564.607	6.96
564.948	6.97
565.289	6.96
565.63	6.96
565.971	6.92
566.312	6.96
566.653	6.99
566.993	6.99
567.334	6.98
567.675	6.98
568.015	6.99
568.356	7
568.696	7.02
569.037	7.01
569.377	7.04
569.718	7.06
570.058	7.07
570.398	7.08
570.739	7.11
571.079	7.11
571.419	7.11
571.759	7.1
572.099	7.08
572.439	7.08
572.779	7.09
573.119	7.13
573.459	7.12
573.799	7.12
574.139	7.1
574.479	7.09
574.819	7.08
575.158	7.07
575.498	7.06
575.838	7.04
576.177	7.02
576.517	6.99
576.856	7
577.196	6.99
577.535	6.97
577.875	6.99
578.214	6.99
578.553	7.01
578.893	6.99
579.232	7
579.571	6.98
579.91	6.96
580.25	6.92
580.589	6.92
580.928	6.92
581.267	6.93
581.606	6.96
581.945	6.94
582.283	6.94
582.622	6.94
582.961	6.96
583.3	6.97
583.639	7.01
583.977	6.97
584.316	6.93
584.654	6.94
584.993	6.89
585.332	6.87
585.67	6.88
586.008	6.87
586.347	6.9
586.685	6.9
587.024	6.92
587.362	6.98
587.7	7
588.038	7.03
588.376	7.03
588.715	7.02
589.053	7.06
589.391	7.07
589.729	7.14
590.067	7.12
590.404	7.15
590.742	7.13
591.08	7.14
591.418	7.16
591.756	7.17
592.093	7.19
592.431	7.22
592.769	7.24
593.106	7.26
593.444	7.22
593.781	7.22
594.119	7.21
594.456	7.16
594.793	7.17
595.131	7.14
595.468	7.14
595.805	7.15
596.143	7.14
596.48	7.12
596.817	7.11
597.154	7.09
597.491	7.09
597.828	7.07
598.165	7.1
598.502	7.09
598.839	7.08
599.176	7.07
599.512	7.09
599.849	7.07
600.186	7.1
600.523	7.15
600.859	7.2
601.196	7.21
601.532	7.2
601.869	7.19
602.205	7.22
602.542	7.23
602.878	7.24
603.215	7.23
603.551	7.25
603.887	7.24
604.223	7.29
604.56	7.32
604.896	7.33
605.232	7.33
605.568	7.33
605.904	7.38
606.24	7.38
606.576	7.35
606.912	7.35
607.248	7.34
607.583	7.33
607.919	7.29
608.255	7.29
608.591	7.33
608.926	7.35
609.262	7.33
609.597	7.35
609.933	7.36
610.268	7.38
610.604	7.37
610.939	7.37
611.275	7.34
611.61	7.31
611.945	7.37
612.281	7.37
612.616	7.4
612.951	7.36
613.286	7.39
613.621	7.36
613.956	7.34
614.291	7.32
614.626	7.31
614.961	7.36
615.296	7.35
615.631	7.32
615.966	7.27
616.3	7.27
616.635	7.22
616.97	7.19
617.304	7.17
617.639	7.2
617.973	7.23
618.308	7.26
618.642	7.24
618.977	7.19
619.311	7.22
619.646	7.25
619.98	7.26
620.314	7.23
620.648	7.27
620.983	7.26
621.317	7.28
621.651	7.3
621.985	7.29
622.319	7.28
622.653	7.34
622.987	7.37
623.321	7.44
623.655	7.46
623.988	7.53
624.322	7.52
624.656	7.53
624.99	7.53
625.323	7.47
625.657	7.52
625.99	7.57
626.324	7.56
626.657	7.5
626.991	7.54
627.324	7.53
627.658	7.54
627.991	7.56
628.324	7.56
628.657	7.59
628.991	7.59
629.324	7.62
629.657	7.63
629.99	7.6
630.323	7.56
630.656	7.59
630.989	7.56
631.322	7.58
631.655	7.58
631.987	7.55
632.32	7.6
632.653	7.6
632.986	7.56
633.318	7.51
633.651	7.57
633.984	7.57
634.316	7.6
634.649	7.59
634.981	7.65
635.313	7.64
635.646	7.6
635.978	7.62
636.31	7.59
636.643	7.55
636.975	7.61
637.307	7.54
637.639	7.49
637.971	7.48
638.303	7.44
638.635	7.35
638.967	7.33
639.299	7.37
639.631	7.3
639.963	7.26
640.295	7.33
640.626	7.31
640.958	7.3
641.29	7.32
641.621	7.36
641.953	7.33
642.285	7.31
642.616	7.33
642.948	7.31
643.279	7.35
643.61	7.37
643.942	7.36
644.273	7.51
644.604	7.56
644.936	7.52
645.267	7.54
645.598	7.65
645.929	7.74
646.26	7.67
646.591	7.7
646.922	7.74
647.253	7.71
647.584	7.74
647.915	7.68
648.245	7.67
648.576	7.67
648.907	7.7
649.238	7.69
649.568	7.67
649.899	7.61
650.229	7.68
650.56	7.61
650.89	7.61
651.221	7.52
651.551	7.49
651.882	7.53
652.212	7.5
652.542	7.41
652.872	7.36
653.203	7.4
653.533	7.43
653.863	7.44
654.193	7.42
654.523	7.41
654.853	7.51
655.183	7.53
655.513	7.49
655.843	7.42
656.172	7.44
656.502	7.47
656.832	7.55
657.162	7.48
657.491	7.49
657.821	7.49
658.15	7.49
658.48	7.53
658.809	7.55
659.139	7.59
659.468	7.62
659.798	7.58
660.127	7.58
660.456	7.57
660.785	7.58
661.115	7.62
661.444	7.57
661.773	7.58
662.102	7.51
662.431	7.57
662.76	7.68
663.089	7.68
663.418	7.63
663.747	7.54
664.076	7.55
664.404	7.6
664.733	7.6
665.062	7.6
665.39	7.57
665.719	7.5
666.048	7.55
666.376	7.6
666.705	7.62
667.033	7.65
667.362	7.66
667.69	7.63
668.018	7.59
668.347	7.65
668.675	7.65
669.003	7.67
669.331	7.68
669.659	7.57
669.987	7.6
670.315	7.63
670.643	7.7
670.971	7.67
671.299	7.7
671.627	7.67
671.955	7.67
672.283	7.72
672.61	7.69
672.938	7.7
673.266	7.68
673.593	7.89
673.921	7.83
674.249	7.86
674.576	7.91
674.904	8.02
675.231	7.98
675.558	7.92
675.886	7.88
676.213	7.86
676.54	7.9
676.867	7.94
677.195	7.93
677.522	7.95
677.849	8
678.176	7.98
678.503	8.01
678.83	8.07
679.157	8
679.484	8.01
679.81	7.99
680.137	7.94
680.464	7.73
680.791	7.79
681.117	7.77
681.444	7.69
681.771	7.55
682.097	7.54
682.424	7.5
682.75	7.56
683.077	7.54
683.403	7.55
683.729	7.47
684.056	7.48
684.382	7.44
684.708	7.42
685.034	7.45
685.36	7.44
685.686	7.38
686.012	7.4
686.339	7.52
686.664	7.44
686.99	7.56
687.316	7.63
687.642	7.69
687.968	7.68
688.294	7.77
688.619	7.83
688.945	7.86
689.271	7.94
689.596	7.97
689.922	8.03
690.247	8.07
690.573	8.13
690.898	8.17
691.224	8.23
691.549	8.31
691.874	8.31
692.2	8.38
692.525	8.36
692.85	8.43
693.175	8.35
693.5	8.38
693.825	8.28
694.15	8.31
694.475	8.24
694.8	8.3
695.125	8.26
695.45	8.25
695.775	8.25
696.099	8.22
696.424	8.25
696.749	8.19
697.073	8.19
697.398	8.25
697.723	8.27
698.047	8.24
698.372	8.15
698.696	8.1
699.02	8.12
699.345	8.16
699.669	8.14
699.993	8.17
700.318	8.2
700.642	8.19
700.966	8.2
701.29	8.24
701.614	8.17
701.938	8.27
702.262	8.34
702.586	8.4
702.91	8.31
703.234	8.25
703.557	8.39
703.881	8.32
704.205	8.4
704.529	8.3
704.852	8.3
705.176	8.27
705.499	8.29
705.823	8.28
706.146	8.18
706.47	8.26
706.793	8.25
707.117	8.33
707.44	8.38
707.763	8.25
708.086	8.1
708.409	8.19
708.733	8.06
709.056	8.1
709.379	8.14
709.702	8.39
710.025	8.49
710.348	8.31
710.671	8.38
710.993	8.19
711.316	8.32
711.639	8.37
711.962	8.42
712.284	8.45
712.607	8.42
712.93	8.59
713.252	8.46
713.575	8.37
713.897	8.36
714.22	8.49
714.542	8.57
714.864	8.72
715.187	8.61
715.509	8.53
715.831	8.52
716.153	8.38
716.475	8.21
716.798	8.21
717.12	8.33
717.442	8.2
717.764	8.3
718.085	8.11
718.407	8.04
718.729	8.03
719.051	8.02
719.373	7.96
719.695	7.78
720.016	7.71
720.338	7.81
720.659	7.87
720.981	7.74
721.302	7.74
721.624	7.63
721.945	7.71
722.267	7.77
722.588	7.66
722.909	7.82
723.231	7.93
723.552	7.95
723.873	8.01
724.194	8.15
724.515	7.88
724.836	8.01
725.157	7.99
725.478	8.03
725.799	8.11
726.12	8.12
726.441	8.19
726.762	8.5
727.083	8.56
727.403	8.51
727.724	8.44
728.045	8.51
728.365	8.57
728.686	8.54
729.006	8.72
729.327	8.8
729.647	8.67
729.967	8.51
730.288	8.53
730.608	8.46
730.928	8.31
731.249	8.25
731.569	8.44
731.889	8.54
732.209	8.6
732.529	8.4
732.849	8.59
733.169	8.53
733.489	8.56
733.809	8.61
734.129	8.46
734.448	8.6
734.768	8.43
735.088	8.46
735.408	8.57
735.727	8.43
736.047	8.55
736.366	8.48
736.686	8.69
737.005	8.67
737.325	8.48
737.644	8.74
737.963	9.01
738.283	8.61
738.602	8.7
738.921	8.67
739.24	8.8
739.56	8.59
739.879	8.62
740.198	8.46
740.517	8.32
740.836	8.52
741.155	8.48
741.473	8.64
741.792	8.62
742.111	8.58
742.43	8.41
742.748	8.1
743.067	8.14
743.386	8.06
743.704	7.85
744.023	8.1
744.341	7.96
744.66	8.13
744.978	8.38
745.297	8.17
745.615	8.05
745.933	8.19
746.252	8.31
746.57	8.41
746.888	8.34
747.206	8.48
747.524	8.31
747.842	8.46
748.16	8.51
748.478	8.52
748.796	8.54
749.114	9
749.432	9.28
749.749	9.62
750.067	9.38
750.385	9.4
750.703	9.34
751.02	9.43
751.338	9.07
751.655	9.07
751.973	9.12
752.29	9.15
752.608	9.02
752.925	8.72
753.242	8.63
753.56	8.61
753.877	8.56
754.194	8.63
754.511	8.52
754.828	8.25
755.145	8.14
755.462	8.08
755.779	8
756.096	8.03
756.413	7.91
756.73	8.27
757.047	8.39
757.364	8.37
757.68	8.36
757.997	8.6
758.314	8.56
758.63	8.69
758.947	8.94
759.264	8.87
759.58	9.21
759.896	9.43
760.213	9.59
760.529	9.67
760.846	9.53
761.162	9.47
761.478	9.55
761.794	9.41
762.11	9.43
762.426	9.19
762.743	9.29
763.059	9.39
763.375	9.31
763.69	9.31
764.006	9.47
764.322	9.34
764.638	9.43
764.954	9.56
765.27	9.41
765.585	9.23
765.901	9.45
766.216	9.45
766.532	9.32
766.848	9.09
767.163	9.15
767.478	9.31
767.794	9.3
768.109	9.23
768.424	9.41
768.74	9.56
769.055	9.89
769.37	9.75
769.685	9.37
770	9.45
770.315	9.37
770.63	8.97
770.945	9.02
771.26	8.8
771.575	8.59
771.89	8.77
772.205	9.12
772.52	8.71
772.834	8.54
773.149	8.48
773.464	8.74
773.778	8.65
774.093	8.41
774.407	8.75
774.722	8.84
775.036	8.84
775.351	8.75
775.665	8.38
775.979	8.07
776.293	8.46
776.608	8.65
776.922	8.74
777.236	8.75
777.55	8.67
777.864	8.98
778.178	9.41
778.492	9.36
778.806	9.02
779.12	9.43
779.434	9.29
779.747	9.52
780.061	9.49
780.375	9.41
780.689	9.9
781.002	9.7
781.316	9.78
781.629	9.89
781.943	10.18
782.256	10.02
782.57	10.23
782.883	10
783.196	9.81
783.51	9.55
783.823	9.95
784.136	10.08
784.449	9.7
784.762	9.44
785.075	9.28
785.388	9.25
785.701	9.27
786.014	9.53
786.327	9.26
786.64	9.44
786.953	9.57
787.266	9.23
787.578	8.89
787.891	9.1
788.204	9.14
788.516	8.91
788.829	9.16
789.141	9.21
789.454	9.33
789.766	9.21
790.079	9.65
790.391	9.33
790.703	9.09
791.016	9.03
791.328	8.82
791.64	8.77
791.952	8.97
792.264	8.41
792.576	8.29
792.888	8.49
793.2	8.12
793.512	8.12
793.824	8.18
794.136	8.42
794.448	8.48
794.76	8.26
795.071	8.25
795.383	8.4
795.695	8.28
796.006	8.15
796.318	8.02
796.629	8.09
796.941	8.49
797.252	9.15
797.564	9.45
797.875	9.61
798.186	9.82
798.497	9.54
798.809	10.09
799.12	10.01
799.431	9.72
799.742	10.07
800.053	10.09
800.364	10.33
800.675	9.71
800.986	9.28
801.297	9.14
801.608	8.86
801.918	8.63
802.229	8.74
802.54	8.84
802.851	8.91
803.161	8.5
803.472	8.46
803.782	8.1
804.093	8.25
804.403	7.91
804.714	7.88
805.024	7.94
805.334	7.33
805.645	8
805.955	8.08
806.265	8.32
806.575	8.09
806.885	7.6
807.195	8.29
807.505	8.6
807.815	9.09
808.125	9
808.435	8.99
808.745	9.43
809.055	9.83
809.365	10.13
809.674	10.15
809.984	10.16
810.294	10.14
810.603	10.24
810.913	10.52
811.222	10.22
811.532	10.3
811.841	10.85
812.151	10.44
812.46	10.53
812.769	9.75
813.079	9.08
813.388	9.41
813.697	9.38
814.006	9.42
814.315	9.17
814.624	9.5
814.933	9.83
815.242	8.99
815.551	8.83
815.86	9.11
816.169	8.76
816.478	8.41
816.786	8.08
817.095	8.31
817.404	8.77
817.712	8.82
818.021	8.86
818.33	8.82
818.638	9.01
818.947	9.61
819.255	10.16
819.563	10.96
819.872	10.98
820.18	11.1
820.488	11.17
820.796	11.04
821.105	11.29
821.413	11.25
821.721	11.19
822.029	11.21
822.337	11.19
822.645	11.37
822.953	11.46
823.26	11.5
823.568	11.27
823.876	11.2
824.184	11.39
824.491	11.47
824.799	11.5
825.107	11.47
825.414	11.41
825.722	11.52
826.029	11.43
826.337	11.4
826.644	11.15
826.951	11.09
827.259	11.23
827.566	11.09
827.873	11
828.18	11.21
828.488	11.12
828.795	10.96
829.102	11.01
829.409	10.99
829.716	10.91
830.023	11.15
830.329	11.03
830.636	11.2
830.943	11.19
831.25	11.22
831.557	11.34
831.863	11.22
832.17	10.62
832.476	10.72
832.783	11.04
833.089	11.53
833.396	11.49
833.702	11.53
834.009	11.23
834.315	11.42
834.621	11.24
834.928	11.2
835.234	11.06
835.54	10.52
835.846	10.39
836.152	10.58
836.458	10.59
836.764	10.71
837.07	10.28
837.376	10.1
837.682	9.97
837.988	10.04
838.293	10.04
838.599	9.94
838.905	9.15
839.211	8.12
839.516	8.28
839.822	8.34
840.127	7.7
840.433	7.83
840.738	8.43
841.044	8.86
841.349	9.27
841.654	9.62
841.959	10.09
842.265	9.92
842.57	10.25
842.875	9.61
843.18	9.87
843.485	9.74
843.79	10.36
844.095	9.77
844.4	8.98
844.705	8.23
845.01	9.53
845.315	10.06
845.619	9.67
845.924	9
846.229	8.75
846.533	10.29
846.838	10.15
847.142	7.37
847.447	6.49
847.751	5.92
848.056	5.2
848.36	5.66
848.664	5.8
848.969	4.73
849.273	4.46
849.577	3.95
849.881	2.61
850.185	2.05
850.489	2.93
850.794	1.96
851.097	1.02
851.401	0.01
851.705	0.28
852.009	3.82
852.313	3.46
852.617	3.03
852.92	1.73
853.224	1.41
853.528	1.99
853.831	2.66
854.135	3.24
854.438	2.33
854.742	0.81
855.045	-0.8
855.349	-1.31
855.652	-0.42
855.955	0.75
856.259	1.29
856.562	0.77
856.865	-0.02
857.168	0.2
857.471	3.78
857.774	5.11
858.077	4.96
858.38	2.75
858.683	1.52
858.986	3.89
859.289	3.57
859.592	5.35
859.894	4.76
860.197	3.86
860.5	3.74
860.802	3.8
861.105	4.95
861.407	6.31
861.71	7.03
862.012	5.78
862.315	3.41
862.617	4.03
862.919	3.47
863.222	4.72
863.524	5.15
863.826	3.61
864.128	2.73
864.43	3.23
864.732	4.21
865.034	4.57
865.336	2.07
865.638	1.99
865.94	1.48
866.242	3.97
866.544	4.78
866.846	2.29
867.147	3.87
867.449	5.01
867.751	5.72
868.052	6.87
868.354	7.27
868.655	9.61
868.957	9.86
869.258	10
869.56	9.32
869.861	9.03
870.162	9.3
870.463	9.32
870.765	7.37
871.066	8.49
871.367	7.5
871.668	8.66
871.969	8.24
872.27	5.52
872.571	5.29
872.872	3.41
873.173	3.71
873.473	3.43
873.774	4.06
874.075	4.41
874.376	4.32
874.676	5.8
874.977	3.63
875.277	5.34
875.578	6.19
875.878	6.41
876.179	7.52
876.479	7.02
876.78	5.23
877.08	8.14
877.38	5.75
877.68	8.89
877.981	7.68
878.281	8.95
878.581	12.79
