Data from BA56825_Reflection_00012.txt Node
Date: Mon Nov 18 15:37:43 EST 2019
User: vgr7
Spectrometer: USB2G7710
Scans to average: 3
Trigger mode: 4
Integration Time (sec): 2.000000E-2
Electric dark correction enabled: true
Boxcar width: 10
XAxis mode: Wavelengths
Number of Pixels in Spectrum: 2048
>>>>>Begin Spectral Data<<<<<
177.721	-445.67
178.105	-90.35
178.488	-17.11
178.871	-59.09
179.254	20.12
179.636	-152.07
180.019	-34.4
180.402	58.18
180.785	39.08
181.168	-27.86
181.55	747.06
181.933	142.36
182.316	106.21
182.698	91.98
183.081	119.2
183.463	184.05
183.846	589.88
184.228	-250.48
184.611	-149.32
184.993	-79.69
185.376	-51.37
185.758	-88.12
186.14	-124.39
186.522	-154.26
186.904	-98.03
187.287	-247.65
187.669	-116.99
188.051	-119.87
188.433	-112.83
188.815	-111.11
189.197	-149.36
189.579	-134.49
189.961	-130.17
190.342	-100.85
190.724	-77.88
191.106	-98.86
191.488	-100.89
191.869	-75.81
192.251	-121.22
192.633	-114.27
193.014	-131.22
193.396	-135.94
193.777	-122.19
194.159	-129.75
194.54	-116.63
194.922	-109.54
195.303	-97.83
195.684	-99.76
196.065	-81.73
196.447	-76.49
196.828	-73.6
197.209	-62.29
197.59	-53.72
197.971	-58.18
198.352	-44.6
198.733	-47.96
199.114	-44.3
199.495	-41.76
199.876	-51.35
200.257	-42.02
200.638	-33.68
201.018	-36.54
201.399	-41.89
201.78	-26.66
202.16	-19.79
202.541	-23.97
202.922	-33.89
203.302	-36.55
203.683	-22.32
204.063	-31.77
204.444	-28.41
204.824	-19.48
205.204	-7.6
205.585	-21.43
205.965	-7.88
206.345	-14.9
206.725	-16.64
207.106	-22.46
207.486	-30.97
207.866	-14.32
208.246	-8.41
208.626	-6.26
209.006	-0.16
209.386	-10.62
209.766	-31.64
210.145	-39.69
210.525	-39.05
210.905	-46.07
211.285	-27.11
211.664	-26.92
212.044	-27.23
212.424	-44.86
212.803	-66.35
213.183	-66.07
213.562	-50.63
213.942	-47.31
214.321	-42.32
214.701	-45.84
215.08	-33.42
215.459	-43.41
215.838	-37.66
216.218	-21.38
216.597	-21.83
216.976	-33.63
217.355	-13.6
217.734	-11.75
218.113	-4.35
218.492	6.49
218.871	8.45
219.25	-3.66
219.629	-24.25
220.008	-26.82
220.387	-8.18
220.766	-8.1
221.144	-25.94
221.523	-58.19
221.902	-73.2
222.28	-93.9
222.659	-70.6
223.037	-65.88
223.416	-66.49
223.794	-55.71
224.173	-63.45
224.551	-52.04
224.929	-55.94
225.308	-50.75
225.686	-39.42
226.064	-31.01
226.442	-30.73
226.821	-23.74
227.199	-21.68
227.577	-17.33
227.955	-16.65
228.333	-17.37
228.711	-15.65
229.089	-9.09
229.467	-6
229.845	-6.85
230.222	-4.66
230.6	-5.28
230.978	-7.1
231.356	-5.18
231.733	-6.34
232.111	-4.5
232.488	-3.74
232.866	-1.72
233.243	-3.2
233.621	-4.05
233.998	-1.78
234.376	-0.95
234.753	-1.8
235.13	-2.07
235.508	-1.43
235.885	-0.25
236.262	-0.58
236.639	-0.86
237.016	-2.24
237.393	-0.92
237.77	2
238.147	2.49
238.524	1.92
238.901	3.05
239.278	3.95
239.655	4.65
240.032	4.62
240.409	3.81
240.785	4.29
241.162	4.33
241.539	4
241.915	3.29
242.292	2.91
242.668	3.11
243.045	3.09
243.421	3.06
243.798	3.08
244.174	3.41
244.551	3.36
244.927	3.37
245.303	3.48
245.679	3.39
246.056	3.32
246.432	3.47
246.808	3.4
247.184	3.09
247.56	2.72
247.936	2.7
248.312	2.59
248.688	2.6
249.064	2.71
249.44	2.96
249.815	2.97
250.191	3.18
250.567	3.22
250.943	3.11
251.318	3.08
251.694	2.87
252.069	2.74
252.445	2.97
252.82	3.12
253.196	2.96
253.571	2.48
253.947	2.49
254.322	2.68
254.697	2.8
255.073	2.64
255.448	2.93
255.823	2.91
256.198	3.32
256.573	3.33
256.948	3.42
257.323	3.41
257.698	3.62
258.073	3.53
258.448	3.53
258.823	3.51
259.198	3.25
259.573	3.41
259.948	3.33
260.322	3.29
260.697	3.22
261.072	3.27
261.446	3.41
261.821	3.28
262.195	3.34
262.57	3.24
262.944	3.28
263.319	3.23
263.693	3.16
264.067	3.01
264.442	3.04
264.816	3.14
265.19	3.01
265.564	3.03
265.938	2.82
266.313	2.84
266.687	3.05
267.061	3.29
267.435	3.31
267.809	3.44
268.183	3.48
268.556	3.41
268.93	3.39
269.304	3.41
269.678	3.59
270.051	3.39
270.425	3.56
270.799	3.67
271.172	3.78
271.546	3.92
271.919	3.83
272.293	3.78
272.666	3.77
273.04	3.85
273.413	3.59
273.787	3.7
274.16	3.84
274.533	3.69
274.906	3.62
275.279	3.59
275.653	3.63
276.026	3.53
276.399	3.61
276.772	3.64
277.145	3.71
277.518	3.64
277.891	3.82
278.263	3.67
278.636	3.58
279.009	3.46
279.382	3.39
279.755	3.49
280.127	3.51
280.5	3.33
280.872	3.39
281.245	3.42
281.617	3.61
281.99	3.47
282.362	3.55
282.735	3.64
283.107	3.61
283.479	3.65
283.852	3.65
284.224	3.59
284.596	3.53
284.968	3.51
285.34	3.62
285.713	3.46
286.085	3.49
286.457	3.59
286.829	3.73
287.201	3.79
287.572	3.8
287.944	3.79
288.316	3.98
288.688	3.86
289.06	3.94
289.431	3.91
289.803	3.91
290.175	3.87
290.546	3.96
290.918	3.97
291.289	3.93
291.661	3.82
292.032	4.03
292.403	4.21
292.775	4.27
293.146	4.18
293.517	4.32
293.889	4.43
294.26	4.31
294.631	4.29
295.002	4.23
295.373	4.22
295.744	4.2
296.115	4.12
296.486	4.2
296.857	4.21
297.228	4.21
297.599	4.17
297.97	4.26
298.34	4.25
298.711	4.26
299.082	4.33
299.452	4.44
299.823	4.34
300.194	4.29
300.564	4.21
300.935	4.2
301.305	4.27
301.676	4.25
302.046	4.36
302.416	4.35
302.787	4.44
303.157	4.36
303.527	4.38
303.897	4.41
304.267	4.49
304.637	4.61
305.008	4.66
305.378	4.83
305.748	4.85
306.117	4.77
306.487	4.74
306.857	4.74
307.227	4.84
307.597	4.82
307.967	4.87
308.336	5.02
308.706	5.07
309.076	4.98
309.445	4.99
309.815	4.99
310.184	5.04
310.554	5.17
310.923	5.33
311.293	5.36
311.662	5.3
312.031	5.32
312.401	5.29
312.77	5.28
313.139	5.39
313.508	5.56
313.877	5.6
314.246	5.73
314.616	5.69
314.985	5.68
315.353	5.65
315.722	5.71
316.091	5.6
316.46	5.71
316.829	5.8
317.198	5.97
317.567	5.91
317.935	5.93
318.304	5.83
318.672	5.87
319.041	6.01
319.41	6.19
319.778	6.1
320.147	6.06
320.515	6.11
320.883	5.95
321.252	5.85
321.62	5.91
321.988	5.9
322.357	5.88
322.725	5.88
323.093	5.98
323.461	6
323.829	6.1
324.197	6.04
324.565	6.04
324.933	6.02
325.301	6.07
325.669	6.08
326.037	6.11
326.405	6.06
326.772	6.09
327.14	6.14
327.508	6.19
327.875	6.16
328.243	6.11
328.61	6.03
328.978	6.05
329.346	6.12
329.713	6.15
330.08	6.27
330.448	6.32
330.815	6.27
331.182	6.24
331.55	6.22
331.917	6.2
332.284	6.29
332.651	6.2
333.018	6.3
333.385	6.31
333.752	6.31
334.119	6.41
334.486	6.26
334.853	6.23
335.22	6.34
335.587	6.45
335.954	6.43
336.32	6.58
336.687	6.58
337.054	6.6
337.42	6.59
337.787	6.61
338.153	6.63
338.52	6.66
338.886	6.52
339.253	6.56
339.619	6.62
339.986	6.55
340.352	6.57
340.718	6.47
341.084	6.43
341.451	6.5
341.817	6.5
342.183	6.57
342.549	6.48
342.915	6.46
343.281	6.46
343.647	6.54
344.013	6.56
344.379	6.46
344.745	6.47
345.11	6.53
345.476	6.48
345.842	6.52
346.208	6.59
346.573	6.71
346.939	6.72
347.304	6.65
347.67	6.66
348.035	6.7
348.401	6.76
348.766	6.87
349.132	6.79
349.497	6.7
349.862	6.8
350.228	6.9
350.593	6.84
350.958	6.88
351.323	6.79
351.688	6.72
352.053	6.82
352.418	6.76
352.783	6.74
353.148	6.74
353.513	6.67
353.878	6.53
354.243	6.56
354.608	6.54
354.972	6.57
355.337	6.67
355.702	6.76
356.066	6.77
356.431	6.63
356.795	6.61
357.16	6.7
357.524	6.58
357.889	6.51
358.253	6.54
358.618	6.5
358.982	6.53
359.346	6.49
359.71	6.45
360.075	6.43
360.439	6.35
360.803	6.35
361.167	6.29
361.531	6.34
361.895	6.26
362.259	6.15
362.623	6.18
362.987	6.14
363.351	6.04
363.714	6.07
364.078	6.09
364.442	6.11
364.806	6.03
365.169	6.04
365.533	6.02
365.896	6.04
366.26	6.02
366.623	5.99
366.987	5.9
367.35	5.87
367.714	5.84
368.077	5.78
368.44	5.73
368.803	5.68
369.167	5.62
369.53	5.65
369.893	5.74
370.256	5.65
370.619	5.56
370.982	5.53
371.345	5.47
371.708	5.45
372.071	5.37
372.434	5.36
372.797	5.29
373.159	5.28
373.522	5.15
373.885	5.11
374.247	5.09
374.61	5.11
374.973	5.07
375.335	5.02
375.698	5.09
376.06	5.06
376.423	5.06
376.785	5.03
377.147	5.04
377.51	4.98
377.872	4.97
378.234	4.91
378.596	4.88
378.958	4.8
379.321	4.78
379.683	4.74
380.045	4.7
380.407	4.64
380.769	4.6
381.13	4.61
381.492	4.58
381.854	4.56
382.216	4.54
382.578	4.53
382.939	4.51
383.301	4.42
383.663	4.42
384.024	4.37
384.386	4.42
384.747	4.34
385.109	4.31
385.47	4.28
385.832	4.29
386.193	4.28
386.554	4.27
386.916	4.2
387.277	4.22
387.638	4.21
387.999	4.21
388.36	4.21
388.721	4.22
389.082	4.2
389.443	4.16
389.804	4.19
390.165	4.13
390.526	4.11
390.887	4.15
391.248	4.15
391.609	4.14
391.969	4.06
392.33	4.01
392.691	3.99
393.051	3.99
393.412	3.98
393.772	3.94
394.133	3.94
394.493	3.95
394.854	3.94
395.214	3.89
395.574	3.86
395.935	3.84
396.295	3.8
396.655	3.78
397.015	3.76
397.376	3.68
397.736	3.69
398.096	3.7
398.456	3.67
398.816	3.63
399.176	3.64
399.535	3.65
399.895	3.67
400.255	3.66
400.615	3.63
400.975	3.61
401.334	3.63
401.694	3.6
402.054	3.61
402.413	3.61
402.773	3.6
403.132	3.6
403.492	3.59
403.851	3.58
404.211	3.58
404.57	3.57
404.929	3.62
405.288	3.6
405.648	3.56
406.007	3.54
406.366	3.54
406.725	3.53
407.084	3.55
407.443	3.52
407.802	3.54
408.161	3.53
408.52	3.53
408.879	3.5
409.238	3.52
409.596	3.52
409.955	3.5
410.314	3.51
410.673	3.49
411.031	3.47
411.39	3.44
411.748	3.41
412.107	3.43
412.465	3.41
412.824	3.42
413.182	3.43
413.54	3.42
413.899	3.43
414.257	3.41
414.615	3.38
414.974	3.38
415.332	3.37
415.69	3.39
416.048	3.37
416.406	3.37
416.764	3.33
417.122	3.34
417.48	3.32
417.838	3.33
418.195	3.34
418.553	3.35
418.911	3.36
419.269	3.37
419.626	3.37
419.984	3.35
420.342	3.34
420.699	3.34
421.057	3.34
421.414	3.32
421.772	3.32
422.129	3.31
422.486	3.31
422.844	3.31
423.201	3.3
423.558	3.3
423.915	3.29
424.273	3.3
424.63	3.27
424.987	3.28
425.344	3.26
425.701	3.25
426.058	3.25
426.415	3.22
426.772	3.2
427.128	3.18
427.485	3.18
427.842	3.19
428.199	3.19
428.555	3.18
428.912	3.19
429.269	3.18
429.625	3.18
429.982	3.19
430.338	3.19
430.695	3.19
431.051	3.17
431.407	3.18
431.764	3.17
432.12	3.17
432.476	3.17
432.832	3.17
433.189	3.15
433.545	3.16
433.901	3.18
434.257	3.18
434.613	3.18
434.969	3.19
435.325	3.18
435.681	3.16
436.036	3.16
436.392	3.15
436.748	3.16
437.104	3.16
437.459	3.13
437.815	3.12
438.171	3.13
438.526	3.15
438.882	3.15
439.237	3.15
439.593	3.17
439.948	3.17
440.304	3.18
440.659	3.2
441.014	3.2
441.369	3.19
441.725	3.2
442.08	3.21
442.435	3.21
442.79	3.21
443.145	3.22
443.5	3.21
443.855	3.2
444.21	3.18
444.565	3.17
444.92	3.18
445.275	3.18
445.629	3.17
445.984	3.17
446.339	3.15
446.693	3.14
447.048	3.13
447.403	3.13
447.757	3.11
448.112	3.09
448.466	3.08
448.82	3.07
449.175	3.05
449.529	3.04
449.883	3.01
450.238	3.01
450.592	3.02
450.946	3.01
451.3	3
451.654	3.01
452.008	3.03
452.362	3.03
452.716	3.03
453.07	3.04
453.424	3.03
453.778	3.03
454.132	3.05
454.486	3.04
454.839	3.02
455.193	3.01
455.547	3.02
455.9	3.03
456.254	3.05
456.607	3.06
456.961	3.05
457.314	3.08
457.668	3.07
458.021	3.05
458.375	3.07
458.728	3.08
459.081	3.07
459.434	3.06
459.787	3.08
460.141	3.07
460.494	3.06
460.847	3.08
461.2	3.08
461.553	3.07
461.906	3.07
462.259	3.1
462.611	3.11
462.964	3.13
463.317	3.13
463.67	3.12
464.022	3.11
464.375	3.13
464.728	3.11
465.08	3.11
465.433	3.1
465.785	3.09
466.138	3.1
466.49	3.11
466.843	3.11
467.195	3.09
467.547	3.09
467.899	3.1
468.252	3.1
468.604	3.1
468.956	3.12
469.308	3.13
469.66	3.12
470.012	3.13
470.364	3.13
470.716	3.11
471.068	3.12
471.42	3.14
471.772	3.14
472.123	3.14
472.475	3.17
472.827	3.18
473.178	3.18
473.53	3.19
473.882	3.18
474.233	3.19
474.585	3.15
474.936	3.16
475.288	3.16
475.639	3.15
475.99	3.15
476.342	3.13
476.693	3.14
477.044	3.12
477.395	3.13
477.746	3.12
478.097	3.13
478.448	3.13
478.8	3.12
479.15	3.11
479.501	3.13
479.852	3.13
480.203	3.13
480.554	3.15
480.905	3.16
481.255	3.18
481.606	3.19
481.957	3.21
482.307	3.21
482.658	3.22
483.009	3.22
483.359	3.22
483.709	3.22
484.06	3.22
484.41	3.24
484.761	3.24
485.111	3.23
485.461	3.24
485.811	3.24
486.162	3.24
486.512	3.26
486.862	3.26
487.212	3.26
487.562	3.26
487.912	3.26
488.262	3.25
488.612	3.25
488.961	3.24
489.311	3.25
489.661	3.25
490.011	3.25
490.36	3.25
490.71	3.26
491.06	3.28
491.409	3.28
491.759	3.28
492.108	3.28
492.458	3.29
492.807	3.3
493.157	3.31
493.506	3.32
493.855	3.31
494.204	3.31
494.554	3.32
494.903	3.32
495.252	3.33
495.601	3.35
495.95	3.37
496.299	3.38
496.648	3.38
496.997	3.38
497.346	3.4
497.695	3.41
498.043	3.4
498.392	3.39
498.741	3.38
499.09	3.38
499.438	3.39
499.787	3.41
500.135	3.44
500.484	3.45
500.832	3.46
501.181	3.49
501.529	3.5
501.878	3.5
502.226	3.52
502.574	3.53
502.923	3.53
503.271	3.55
503.619	3.57
503.967	3.59
504.315	3.63
504.663	3.66
505.011	3.68
505.359	3.68
505.707	3.72
506.055	3.76
506.403	3.79
506.751	3.81
507.098	3.84
507.446	3.86
507.794	3.9
508.141	3.92
508.489	3.95
508.837	3.99
509.184	4.04
509.531	4.09
509.879	4.13
510.226	4.16
510.574	4.18
510.921	4.23
511.268	4.25
511.616	4.27
511.963	4.31
512.31	4.35
512.657	4.41
513.004	4.46
513.351	4.5
513.698	4.55
514.045	4.58
514.392	4.63
514.739	4.67
515.086	4.69
515.432	4.73
515.779	4.78
516.126	4.82
516.473	4.85
516.819	4.88
517.166	4.92
517.512	4.96
517.859	5.03
518.205	5.07
518.552	5.12
518.898	5.17
519.245	5.21
519.591	5.26
519.937	5.3
520.283	5.33
520.629	5.39
520.976	5.45
521.322	5.52
521.668	5.58
522.014	5.65
522.36	5.74
522.706	5.8
523.052	5.89
523.398	5.98
523.743	6.1
524.089	6.18
524.435	6.28
524.781	6.38
525.126	6.45
525.472	6.53
525.817	6.62
526.163	6.69
526.509	6.77
526.854	6.85
527.199	6.92
527.545	6.99
527.89	7.06
528.235	7.12
528.581	7.21
528.926	7.28
529.271	7.35
529.616	7.43
529.961	7.52
530.306	7.61
530.651	7.7
530.996	7.78
531.341	7.88
531.686	7.99
532.031	8.11
532.376	8.22
532.721	8.34
533.065	8.45
533.41	8.57
533.755	8.69
534.099	8.83
534.444	8.96
534.788	9.11
535.133	9.25
535.477	9.4
535.822	9.57
536.166	9.74
536.51	9.94
536.855	10.17
537.199	10.36
537.543	10.55
537.887	10.8
538.231	11.02
538.576	11.27
538.92	11.47
539.264	11.69
539.608	11.9
539.951	12.09
540.295	12.3
540.639	12.5
540.983	12.69
541.327	12.86
541.671	13.05
542.014	13.26
542.358	13.45
542.701	13.65
543.045	13.84
543.389	14.05
543.732	14.26
544.075	14.46
544.419	14.69
544.762	14.95
545.105	15.17
545.449	15.43
545.792	15.69
546.135	16
546.478	16.31
546.821	16.61
547.165	16.94
547.508	17.25
547.851	17.59
548.194	17.95
548.536	18.33
548.879	18.65
549.222	18.98
549.565	19.31
549.908	19.67
550.25	20.02
550.593	20.39
550.936	20.74
551.278	21.07
551.621	21.4
551.963	21.71
552.306	22.03
552.648	22.37
552.991	22.65
553.333	22.94
553.675	23.24
554.017	23.55
554.36	23.89
554.702	24.2
555.044	24.48
555.386	24.8
555.728	25.11
556.07	25.5
556.412	25.81
556.754	26.2
557.096	26.55
557.438	26.9
557.78	27.23
558.121	27.57
558.463	27.88
558.805	28.27
559.147	28.62
559.488	28.98
559.83	29.31
560.171	29.68
560.513	30.04
560.854	30.3
561.196	30.62
561.537	30.91
561.878	31.24
562.22	31.54
562.561	31.8
562.902	32.06
563.243	32.32
563.584	32.65
563.925	32.92
564.266	33.13
564.607	33.31
564.948	33.54
565.289	33.8
565.63	34.1
565.971	34.3
566.312	34.58
566.653	34.83
566.993	34.99
567.334	35.21
567.675	35.42
568.015	35.68
568.356	35.95
568.696	36.2
569.037	36.44
569.377	36.7
569.718	36.93
570.058	37.14
570.398	37.39
570.739	37.55
571.079	37.75
571.419	37.99
571.759	38.28
572.099	38.54
572.439	38.77
572.779	38.9
573.119	39.11
573.459	39.28
573.799	39.48
574.139	39.71
574.479	39.84
574.819	40.04
575.158	40.21
575.498	40.33
575.838	40.52
576.177	40.69
576.517	40.81
576.856	40.99
577.196	41.18
577.535	41.37
577.875	41.54
578.214	41.7
578.553	41.92
578.893	42.08
579.232	42.23
579.571	42.36
579.91	42.55
580.25	42.77
580.589	42.88
580.928	43.03
581.267	43.19
581.606	43.37
581.945	43.55
582.283	43.75
582.622	43.9
582.961	44.02
583.3	44.2
583.639	44.43
583.977	44.57
584.316	44.74
584.654	44.88
584.993	45.09
585.332	45.23
585.67	45.39
586.008	45.49
586.347	45.61
586.685	45.76
587.024	45.94
587.362	46.02
587.7	46.18
588.038	46.35
588.376	46.5
588.715	46.67
589.053	46.79
589.391	46.91
589.729	47.11
590.067	47.18
590.404	47.29
590.742	47.37
591.08	47.42
591.418	47.55
591.756	47.66
592.093	47.69
592.431	47.85
592.769	48.01
593.106	48.17
593.444	48.26
593.781	48.39
594.119	48.51
594.456	48.61
594.793	48.75
595.131	48.8
595.468	48.94
595.805	49.05
596.143	49.08
596.48	49.18
596.817	49.23
597.154	49.35
597.491	49.43
597.828	49.55
598.165	49.73
598.502	49.85
598.839	49.93
599.176	50.08
599.512	50.1
599.849	50.22
600.186	50.28
600.523	50.39
600.859	50.51
601.196	50.63
601.532	50.72
601.869	50.8
602.205	50.96
602.542	51.04
602.878	51.09
603.215	51.2
603.551	51.23
603.887	51.41
604.223	51.49
604.56	51.55
604.896	51.62
605.232	51.7
605.568	51.72
605.904	51.85
606.24	51.92
606.576	52.06
606.912	52.1
607.248	52.19
607.583	52.29
607.919	52.33
608.255	52.36
608.591	52.46
608.926	52.47
609.262	52.51
609.597	52.57
609.933	52.65
610.268	52.79
610.604	52.85
610.939	52.83
611.275	52.91
611.61	53.03
611.945	53.14
612.281	53.18
612.616	53.34
612.951	53.24
613.286	53.3
613.621	53.24
613.956	53.31
614.291	53.39
614.626	53.47
614.961	53.51
615.296	53.65
615.631	53.69
615.966	53.84
616.3	53.89
616.635	53.96
616.97	54.03
617.304	54.07
617.639	54.25
617.973	54.29
618.308	54.38
618.642	54.44
618.977	54.45
619.311	54.55
619.646	54.54
619.98	54.69
620.314	54.76
620.648	54.97
620.983	55.12
621.317	55.17
621.651	55.21
621.985	55.29
622.319	55.27
622.653	55.36
622.987	55.32
623.321	55.36
623.655	55.34
623.988	55.47
624.322	55.52
624.656	55.49
624.99	55.52
625.323	55.58
625.657	55.53
625.99	55.54
626.324	55.55
626.657	55.5
626.991	55.55
627.324	55.61
627.658	55.62
627.991	55.55
628.324	55.56
628.657	55.59
628.991	55.57
629.324	55.64
629.657	55.66
629.99	55.77
630.323	55.82
630.656	55.93
630.989	56.01
631.322	55.95
631.655	55.94
631.987	56
632.32	55.99
632.653	56.12
632.986	56.23
633.318	56.36
633.651	56.53
633.984	56.63
634.316	56.62
634.649	56.68
634.981	56.72
635.313	56.82
635.646	56.9
635.978	57.02
636.31	57.06
636.643	57.12
636.975	57.16
637.307	57.21
637.639	57.26
637.971	57.21
638.303	57.24
638.635	57.38
638.967	57.41
639.299	57.43
639.631	57.47
639.963	57.44
640.295	57.39
640.626	57.47
640.958	57.46
641.29	57.49
641.621	57.46
641.953	57.64
642.285	57.64
642.616	57.7
642.948	57.82
643.279	57.84
643.61	57.88
643.942	58.03
644.273	58.11
644.604	58.13
644.936	58.18
645.267	58.22
645.598	58.22
645.929	58.31
646.26	58.42
646.591	58.43
646.922	58.47
647.253	58.5
647.584	58.44
647.915	58.49
648.245	58.65
648.576	58.74
648.907	58.67
649.238	58.66
649.568	58.63
649.899	58.57
650.229	58.66
650.56	58.74
650.89	58.71
651.221	58.88
651.551	58.99
651.882	58.94
652.212	59.08
652.542	59.12
652.872	59.15
653.203	59.17
653.533	59.23
653.863	59.34
654.193	59.47
654.523	59.54
654.853	59.46
655.183	59.54
655.513	59.64
655.843	59.81
656.172	59.89
656.502	59.97
656.832	60.06
657.162	60.11
657.491	60.13
657.821	60.13
658.15	60
658.48	60.11
658.809	60.14
659.139	60.12
659.468	60.18
659.798	60.18
660.127	60.32
660.456	60.34
660.785	60.47
661.115	60.43
661.444	60.42
661.773	60.58
662.102	60.51
662.431	60.53
662.76	60.39
663.089	60.42
663.418	60.42
663.747	60.46
664.076	60.55
664.404	60.5
664.733	60.51
665.062	60.5
665.39	60.45
665.719	60.47
666.048	60.59
666.376	60.57
666.705	60.66
667.033	60.6
667.362	60.71
667.69	60.55
668.018	60.63
668.347	60.65
668.675	60.66
669.003	60.78
669.331	60.84
669.659	61.02
669.987	61.09
670.315	61.17
670.643	61.25
670.971	61.23
671.299	61.47
671.627	61.49
671.955	61.66
672.283	61.65
672.61	61.75
672.938	61.65
673.266	61.71
673.593	61.83
673.921	61.92
674.249	61.82
674.576	61.98
674.904	61.97
675.231	62.16
675.558	62.25
675.886	62.22
676.213	62.21
676.54	62.13
676.867	62.15
677.195	62.1
677.522	62.1
677.849	62.1
678.176	62.06
678.503	62.12
678.83	62.1
679.157	62.05
679.484	62.18
679.81	62.32
680.137	62.42
680.464	62.38
680.791	62.33
681.117	62.39
681.444	62.46
681.771	62.52
682.097	62.51
682.424	62.41
682.75	62.32
683.077	62.42
683.403	62.46
683.729	62.58
684.056	62.61
684.382	62.6
684.708	62.62
685.034	62.7
685.36	62.76
685.686	62.71
686.012	62.83
686.339	62.69
686.664	62.74
686.99	62.69
687.316	62.71
687.642	62.67
687.968	62.67
688.294	62.49
688.619	62.7
688.945	62.6
689.271	62.77
689.596	63.04
689.922	62.99
690.247	63.01
690.573	62.89
690.898	62.87
691.224	62.83
691.549	62.79
691.874	62.71
692.2	62.71
692.525	62.81
692.85	62.77
693.175	63
693.5	63.04
693.825	63.08
694.15	63.27
694.475	63.43
694.8	63.53
695.125	63.62
695.45	63.35
695.775	63.55
696.099	63.56
696.424	63.44
696.749	63.39
697.073	63.52
697.398	63.58
697.723	63.78
698.047	63.84
698.372	64.02
698.696	64.1
699.02	64.12
699.345	64.16
699.669	64.21
699.993	64.18
700.318	64.02
700.642	63.99
700.966	63.97
701.29	63.9
701.614	63.99
701.938	64.12
702.262	64.24
702.586	64.11
702.91	63.87
703.234	63.96
703.557	64.13
703.881	63.96
704.205	64.08
704.529	63.88
704.852	63.8
705.176	63.74
705.499	63.45
705.823	63.68
706.146	63.58
706.47	63.61
706.793	63.52
707.117	63.75
707.44	63.89
707.763	63.63
708.086	63.52
708.409	63.5
708.733	63.59
709.056	63.89
709.379	63.84
709.702	64.28
710.025	64.2
710.348	63.94
710.671	63.95
710.993	63.91
711.316	64.19
711.639	64.3
711.962	64.18
712.284	64.4
712.607	64.45
712.93	64.55
713.252	64.52
713.575	64.5
713.897	64.52
714.22	64.55
714.542	64.52
714.864	64.71
715.187	64.53
715.509	64.37
715.831	64.06
716.153	64.39
716.475	64.19
716.798	64.19
717.12	64.47
717.442	64.59
717.764	64.4
718.085	64.23
718.407	64.26
718.729	64.28
719.051	64.22
719.373	63.85
719.695	63.98
720.016	63.8
720.338	63.73
720.659	63.73
720.981	63.55
721.302	63.65
721.624	63.64
721.945	63.62
722.267	63.56
722.588	63.65
722.909	63.36
723.231	63.53
723.552	63.46
723.873	63.31
724.194	63.34
724.515	63.51
724.836	63.28
725.157	63.42
725.478	63.57
725.799	63.73
726.12	63.88
726.441	63.87
726.762	64.11
727.083	64.38
727.403	64.58
727.724	64.95
728.045	64.94
728.365	65.08
728.686	65.43
729.006	65.74
729.327	65.76
729.647	65.98
729.967	65.97
730.288	66.1
730.608	66.04
730.928	66.15
731.249	66.11
731.569	66.32
731.889	66.25
732.209	66.22
732.529	66.25
732.849	66.23
733.169	66.12
733.489	66.1
733.809	66.15
734.129	65.93
734.448	66
734.768	66.13
735.088	66.19
735.408	66
735.727	65.67
736.047	65.54
736.366	65.16
736.686	65.24
737.005	65.34
737.325	65.6
737.644	65.56
737.963	65.8
738.283	65.81
738.602	65.9
738.921	65.85
739.24	65.66
739.56	65.65
739.879	65.76
740.198	65.91
740.517	65.83
740.836	65.92
741.155	65.48
741.473	65.39
741.792	65.19
742.111	64.93
742.43	64.78
742.748	64.9
743.067	65.11
743.386	64.83
743.704	64.9
744.023	65
744.341	64.69
744.66	64.63
744.978	64.64
745.297	64.58
745.615	64.77
745.933	64.76
746.252	64.89
746.57	65.02
746.888	65.07
747.206	65.25
747.524	65.29
747.842	65.7
748.16	65.87
748.478	65.76
748.796	66.07
749.114	66.51
749.432	66.55
749.749	66.42
750.067	66.37
750.385	66.12
750.703	65.88
751.02	65.76
751.338	65.61
751.655	65.74
751.973	65.68
752.29	65.51
752.608	65.26
752.925	65.24
753.242	65.05
753.56	64.75
753.877	64.69
754.194	64.27
754.511	64.06
754.828	64.15
755.145	64.35
755.462	64.53
755.779	64.55
756.096	64.65
756.413	64.97
756.73	65.32
757.047	65.54
757.364	65.33
757.68	65.62
757.997	65.56
758.314	65.49
758.63	65.62
758.947	65.72
759.264	65.94
759.58	65.72
759.896	66.1
760.213	66.26
760.529	66.44
760.846	66.66
761.162	66.77
761.478	66.83
761.794	66.67
762.11	66.3
762.426	66.35
762.743	66.48
763.059	66.55
763.375	66.44
763.69	66.41
764.006	66.69
764.322	66.77
764.638	66.69
764.954	66.85
765.27	66.98
765.585	66.86
765.901	67.17
766.216	67.33
766.532	67.18
766.848	67.13
767.163	66.85
767.478	66.86
767.794	66.69
768.109	66.36
768.424	66.7
768.74	67.23
769.055	66.72
769.37	66.4
769.685	65.97
770	65.94
770.315	65.78
770.63	65.8
770.945	66.02
771.26	66.09
771.575	65.94
771.89	65.61
772.205	65.89
772.52	65.79
772.834	65.75
773.149	65.88
773.464	65.88
773.778	65.95
774.093	66.06
774.407	66.44
774.722	66.51
775.036	66.33
775.351	66.28
775.665	66.41
775.979	66.32
776.293	66.78
776.608	66.92
776.922	67.37
777.236	67.41
777.55	67.01
777.864	67.32
778.178	67.28
778.492	67.11
778.806	67.15
779.12	67.13
779.434	66.96
779.747	66.51
780.061	66.49
780.375	66.55
780.689	66.41
781.002	66.1
781.316	66.13
781.629	66.24
781.943	65.79
782.256	66.15
782.57	66.73
782.883	66.84
783.196	66.57
783.51	66.39
783.823	65.89
784.136	66.1
784.449	66.48
784.762	66.51
785.075	66.62
785.388	66.47
785.701	66.55
786.014	66.73
786.327	67.03
786.64	67.03
786.953	67.18
787.266	67.19
787.578	67.52
787.891	67.75
788.204	67.55
788.516	67.7
788.829	67.47
789.141	67.36
789.454	67.08
789.766	67.32
790.079	67.45
790.391	67.62
790.703	68.02
791.016	67.72
791.328	67.86
791.64	68.18
791.952	68.49
792.264	68.29
792.576	68.03
792.888	68.25
793.2	68.03
793.512	67.68
793.824	68
794.136	67.76
794.448	67.57
794.76	68.01
795.071	67.99
795.383	67.75
795.695	67.51
796.006	67.23
796.318	67.85
796.629	68.02
796.941	68
797.252	67.16
797.564	67.29
797.875	67.37
798.186	66.71
798.497	66.36
798.809	66.1
799.12	66.37
799.431	65.46
799.742	66.11
800.053	66.25
800.364	66.11
800.675	65.65
800.986	66.19
801.297	66.23
801.608	66.03
801.918	66.41
802.229	66.72
802.54	67.18
802.851	65.99
803.161	66.04
803.472	66.29
803.782	66.51
804.093	65.9
804.403	65.64
804.714	65.94
805.024	66.01
805.334	66.34
805.645	66.88
805.955	67.85
806.265	67.19
806.575	67.9
806.885	67.84
807.195	68.67
807.505	68.71
807.815	67.75
808.125	67.57
808.435	68
808.745	67.91
809.055	67.55
809.365	67.85
809.674	67.13
809.984	66.12
810.294	66.44
810.603	66.73
810.913	67.3
811.222	67.34
811.532	67.37
811.841	67.79
812.151	67.38
812.46	66.79
812.769	66.88
813.079	66.17
813.388	66.23
813.697	65.97
814.006	65.03
814.315	64.99
814.624	66.1
814.933	65.33
815.242	64.83
815.551	65.2
815.86	65.82
816.169	65.88
816.478	66.74
816.786	66.78
817.095	67.07
817.404	66.64
817.712	66.69
818.021	67.29
818.33	66.8
818.638	67.22
818.947	67.27
819.255	68.14
819.563	68.12
819.872	68.3
820.18	68.44
820.488	68.61
820.796	68.83
821.105	68.43
821.413	68.87
821.721	68.69
822.029	68.64
822.337	68.58
822.645	68.69
822.953	68.64
823.26	68.72
823.568	68.59
823.876	68.43
824.184	68.46
824.491	68.31
824.799	68.36
825.107	68.33
825.414	68.36
825.722	68.13
826.029	68.31
826.337	68.35
826.644	68.28
826.951	68.15
827.259	68.17
827.566	68.31
827.873	68.04
828.18	68.27
828.488	68.27
828.795	68.14
829.102	67.97
829.409	67.93
829.716	67.6
830.023	67.51
830.329	67.81
830.636	67.77
830.943	67.68
831.25	67.54
831.557	67.49
831.863	67.8
832.17	68.05
832.476	67.68
832.783	67.96
833.089	67.89
833.396	67.93
833.702	68.01
834.009	67.7
834.315	68.04
834.621	67.98
834.928	67.81
835.234	68.17
835.54	68.25
835.846	68.33
836.152	68.15
836.458	68.51
836.764	68.76
837.07	68.65
837.376	68.25
837.682	68.81
837.988	68.59
838.293	68.59
838.599	68.57
838.905	68.81
839.211	67.75
839.516	67.63
839.822	67.91
840.127	67.87
840.433	67.9
840.738	67.22
841.044	67.54
841.349	67.58
841.654	67.36
841.959	66.14
842.265	65.61
842.57	66.57
842.875	66
843.18	64.92
843.485	65.76
843.79	67.4
844.095	66.84
844.4	67.14
844.705	65.91
845.01	65.37
845.315	64.2
845.619	65.1
845.924	66.38
846.229	65.17
846.533	65.07
846.838	64.93
847.142	64.85
847.447	63.93
847.751	62.85
848.056	59.78
848.36	61.88
848.664	62.97
848.969	62.48
849.273	62.86
849.577	62.28
849.881	61.58
850.185	58.98
850.489	56.62
850.794	57.33
851.097	57.15
851.401	56.88
851.705	59.68
852.009	58.96
852.313	58.35
852.617	59.41
852.92	59.83
853.224	60.85
853.528	60.72
853.831	61.01
854.135	63
854.438	64.41
854.742	62.03
855.045	61.83
855.349	60.38
855.652	61.08
855.955	61.75
856.259	62.27
856.562	63.4
856.865	64.37
857.168	64.02
857.471	63.56
857.774	63.46
858.077	62.05
858.38	62.11
858.683	60.82
858.986	60.96
859.289	59.41
859.592	60.21
859.894	59.32
860.197	59.11
860.5	59.85
860.802	60.15
861.105	61.91
861.407	61.76
861.71	64.5
862.012	63.46
862.315	64.35
862.617	64.08
862.919	62.29
863.222	63.3
863.524	62.14
863.826	64.65
864.128	66.14
864.43	65.05
864.732	66.32
865.034	62.87
865.336	63.9
865.638	63.45
865.94	60.6
866.242	62.93
866.544	62.16
866.846	61.54
867.147	63.18
867.449	61.3
867.751	62.19
868.052	60.93
868.354	59.48
868.655	58.93
868.957	58.43
869.258	61.55
869.56	62.35
869.861	61.51
870.162	60.6
870.463	59.38
870.765	58.69
871.066	58.19
871.367	62.74
871.668	63.58
871.969	64.83
872.27	66.56
872.571	65.62
872.872	69.53
873.173	68.4
873.473	68.43
873.774	70.64
874.075	70.41
874.376	68.98
874.676	72.53
874.977	72.07
875.277	71.97
875.578	69.48
875.878	69.69
876.179	71.4
876.479	71.44
876.78	71.9
877.08	73.48
877.38	73.58
877.68	72.42
877.981	70.1
878.281	69.88
878.581	69.57
