Data from BA56814_Reflection_00004.txt Node
Date: Mon Nov 18 15:40:23 EST 2019
User: vgr7
Spectrometer: USB2G7710
Scans to average: 3
Trigger mode: 4
Integration Time (sec): 2.000000E-2
Electric dark correction enabled: true
Boxcar width: 10
XAxis mode: Wavelengths
Number of Pixels in Spectrum: 2048
>>>>>Begin Spectral Data<<<<<
177.721	366.81
178.105	167.02
178.488	195.82
178.871	162.82
179.254	126.54
179.636	-16.74
180.019	-30.88
180.402	44.83
180.785	1245.63
181.168	204.56
181.55	207.24
181.933	95.76
182.316	168.26
182.698	180.8
183.081	126.74
183.463	191.93
183.846	241.04
184.228	250.86
184.611	207.16
184.993	347.77
185.376	262.02
185.758	371.32
186.14	256.1
186.522	245.76
186.904	231.12
187.287	227.74
187.669	222.15
188.051	161.33
188.433	259.58
188.815	290.77
189.197	286.65
189.579	258.36
189.961	380.91
190.342	222.86
190.724	182.75
191.106	206.61
191.488	159.59
191.869	165.29
192.251	106.2
192.633	126.01
193.014	150.8
193.396	193.51
193.777	305.97
194.159	426.72
194.54	940.99
194.922	3706.56
195.303	819.03
195.684	2668.81
196.065	-223.44
196.447	-138.76
196.828	-819.61
197.209	-429.95
197.59	-152.11
197.971	-134.44
198.352	-105.79
198.733	-102.1
199.114	-92.9
199.495	-71.25
199.876	-79.8
200.257	-106.26
200.638	-99.13
201.018	-109.94
201.399	-155.4
201.78	-185.71
202.16	-303.06
202.541	-408.85
202.922	-454.34
203.302	-342.5
203.683	-374.43
204.063	-1169.16
204.444	-1613.53
204.824	-537.13
205.204	-490.87
205.585	-562.06
205.965	-517.51
206.345	-725.93
206.725	-1256.7
207.106	-3575.98
207.486	1183.2
207.866	-30856.52
208.246	-932.53
208.626	-907.45
209.006	-597.33
209.386	-506.11
209.766	-442.21
210.145	-458.22
210.525	-315.22
210.905	-263.89
211.285	-297.95
211.664	-176.1
212.044	-145.77
212.424	-136.62
212.803	-136.75
213.183	-120.21
213.562	-108.15
213.942	-108.16
214.321	-103.59
214.701	-90.08
215.08	-88.97
215.459	-65
215.838	-72.17
216.218	-84.53
216.597	-69.36
216.976	-86.83
217.355	-85.26
217.734	-77.3
218.113	-66.03
218.492	-65.63
218.871	-71.3
219.25	-77.11
219.629	-96.46
220.008	-114.37
220.387	-116.26
220.766	-136.2
221.144	-190.81
221.523	-237.09
221.902	-213.81
222.28	-189.89
222.659	-232.76
223.037	-212.93
223.416	-209.49
223.794	-188.11
224.173	-144.25
224.551	-121.26
224.929	-92.31
225.308	-60.13
225.686	-48.26
226.064	-46.62
226.442	-40.97
226.821	-30.35
227.199	-23.04
227.577	-18.73
227.955	-12.1
228.333	-9.45
228.711	-3.93
229.089	2.29
229.467	-1.13
229.845	-4.06
230.222	-1.7
230.6	1.4
230.978	2.19
231.356	3.44
231.733	3.55
232.111	4.1
232.488	-0.01
232.866	-0.72
233.243	-1.76
233.621	-1.99
233.998	-1.75
234.376	-2.06
234.753	-2.39
235.13	-1.39
235.508	-2.12
235.885	-2.79
236.262	-3.75
236.639	-4.9
237.016	-4.87
237.393	-2.48
237.77	-0.83
238.147	-0.3
238.524	0.28
238.901	1.26
239.278	1.93
239.655	2.15
240.032	2.39
240.409	3.43
240.785	4.22
241.162	4.4
241.539	4.62
241.915	4.9
242.292	5.07
242.668	4.89
243.045	4.81
243.421	5.27
243.798	5.08
244.174	5.26
244.551	5.2
244.927	4.98
245.303	5.12
245.679	5.3
246.056	5.32
246.432	5.02
246.808	4.79
247.184	4.64
247.56	4.63
247.936	4.67
248.312	4.6
248.688	4.55
249.064	4.3
249.44	4.24
249.815	4.21
250.191	4.5
250.567	4.66
250.943	4.57
251.318	4.32
251.694	4.31
252.069	4.11
252.445	4.21
252.82	4.32
253.196	4.18
253.571	4.08
253.947	4.08
254.322	4.78
254.697	4.86
255.073	4.58
255.448	4.63
255.823	4.59
256.198	4.77
256.573	4.6
256.948	4.89
257.323	4.98
257.698	4.79
258.073	4.58
258.448	4.64
258.823	4.51
259.198	4.41
259.573	4.43
259.948	4.4
260.322	4.37
260.697	4.21
261.072	4.14
261.446	4.18
261.821	4.12
262.195	3.95
262.57	3.8
262.944	3.88
263.319	3.95
263.693	3.88
264.067	3.81
264.442	3.94
264.816	3.71
265.19	3.52
265.564	3.59
265.938	3.42
266.313	3.15
266.687	3.27
267.061	3.33
267.435	3.43
267.809	3.39
268.183	3.42
268.556	3.46
268.93	3.55
269.304	3.5
269.678	3.6
270.051	3.47
270.425	3.64
270.799	3.64
271.172	3.55
271.546	3.56
271.919	3.6
272.293	3.37
272.666	3.57
273.04	3.71
273.413	3.68
273.787	3.71
274.16	3.79
274.533	3.99
274.906	4.05
275.279	3.86
275.653	3.99
276.026	3.84
276.399	3.92
276.772	3.95
277.145	3.98
277.518	3.9
277.891	4.04
278.263	4
278.636	4.03
279.009	3.88
279.382	3.96
279.755	3.84
280.127	4.15
280.5	4.12
280.872	4.1
281.245	4.14
281.617	4.25
281.99	4.43
282.362	4.38
282.735	4.28
283.107	4.41
283.479	4.5
283.852	4.66
284.224	4.67
284.596	4.67
284.968	4.69
285.34	4.78
285.713	4.71
286.085	4.79
286.457	4.86
286.829	4.92
287.201	4.94
287.572	4.94
287.944	4.9
288.316	4.88
288.688	4.91
289.06	5.05
289.431	5.03
289.803	4.99
290.175	5.04
290.546	5.19
290.918	5.21
291.289	5.1
291.661	5.2
292.032	5.31
292.403	5.21
292.775	5.21
293.146	5.09
293.517	5.11
293.889	5.14
294.26	5.2
294.631	5.32
295.002	5.21
295.373	5.32
295.744	5.28
296.115	5.36
296.486	5.28
296.857	5.19
297.228	5.22
297.599	5.16
297.97	5.03
298.34	5.13
298.711	5.21
299.082	5.34
299.452	5.26
299.823	5.2
300.194	5.25
300.564	5.25
300.935	5.3
301.305	5.34
301.676	5.36
302.046	5.35
302.416	5.37
302.787	5.42
303.157	5.43
303.527	5.42
303.897	5.32
304.267	5.53
304.637	5.54
305.008	5.59
305.378	5.73
305.748	5.91
306.117	5.7
306.487	5.7
306.857	5.64
307.227	5.82
307.597	5.79
307.967	5.95
308.336	5.94
308.706	5.96
309.076	5.95
309.445	5.93
309.815	5.84
310.184	5.74
310.554	5.8
310.923	5.75
311.293	5.72
311.662	5.73
312.031	5.56
312.401	5.69
312.77	5.73
313.139	5.7
313.508	5.65
313.877	5.67
314.246	5.64
314.616	5.68
314.985	5.49
315.353	5.52
315.722	5.5
316.091	5.46
316.46	5.45
316.829	5.53
317.198	5.5
317.567	5.61
317.935	5.58
318.304	5.38
318.672	5.45
319.041	5.57
319.41	5.58
319.778	5.46
320.147	5.36
320.515	5.21
320.883	5.19
321.252	5.26
321.62	5.41
321.988	5.5
322.357	5.41
322.725	5.37
323.093	5.45
323.461	5.34
323.829	5.41
324.197	5.54
324.565	5.54
324.933	5.46
325.301	5.48
325.669	5.57
326.037	5.66
326.405	5.63
326.772	5.62
327.14	5.59
327.508	5.77
327.875	5.7
328.243	5.9
328.61	5.76
328.978	5.71
329.346	5.64
329.713	5.59
330.08	5.56
330.448	5.62
330.815	5.49
331.182	5.41
331.55	5.43
331.917	5.35
332.284	5.37
332.651	5.5
333.018	5.42
333.385	5.36
333.752	5.51
334.119	5.57
334.486	5.56
334.853	5.62
335.22	5.64
335.587	5.69
335.954	5.68
336.32	5.79
336.687	5.77
337.054	5.74
337.42	5.75
337.787	5.77
338.153	5.84
338.52	5.93
338.886	6
339.253	5.95
339.619	5.96
339.986	5.91
340.352	5.96
340.718	6.05
341.084	5.94
341.451	5.86
341.817	5.84
342.183	5.9
342.549	5.98
342.915	6.08
343.281	6.13
343.647	6.05
344.013	6.13
344.379	6.11
344.745	6.06
345.11	6.01
345.476	6.09
345.842	6.13
346.208	6.06
346.573	6.12
346.939	6.17
347.304	6.18
347.67	6.25
348.035	6.18
348.401	6.2
348.766	6.35
349.132	6.4
349.497	6.48
349.862	6.52
350.228	6.45
350.593	6.32
350.958	6.21
351.323	6.34
351.688	6.27
352.053	6.3
352.418	6.48
352.783	6.45
353.148	6.44
353.513	6.36
353.878	6.44
354.243	6.46
354.608	6.47
354.972	6.51
355.337	6.51
355.702	6.58
356.066	6.61
356.431	6.6
356.795	6.59
357.16	6.52
357.524	6.46
357.889	6.39
358.253	6.38
358.618	6.43
358.982	6.41
359.346	6.37
359.71	6.39
360.075	6.35
360.439	6.45
360.803	6.48
361.167	6.49
361.531	6.46
361.895	6.44
362.259	6.41
362.623	6.4
362.987	6.38
363.351	6.37
363.714	6.33
364.078	6.32
364.442	6.31
364.806	6.32
365.169	6.31
365.533	6.39
365.896	6.42
366.26	6.4
366.623	6.32
366.987	6.37
367.35	6.33
367.714	6.35
368.077	6.31
368.44	6.29
368.803	6.22
369.167	6.21
369.53	6.22
369.893	6.35
370.256	6.34
370.619	6.35
370.982	6.33
371.345	6.35
371.708	6.39
372.071	6.41
372.434	6.44
372.797	6.49
373.159	6.43
373.522	6.5
373.885	6.58
374.247	6.67
374.61	6.64
374.973	6.63
375.335	6.59
375.698	6.65
376.06	6.62
376.423	6.65
376.785	6.74
377.147	6.75
377.51	6.67
377.872	6.7
378.234	6.69
378.596	6.72
378.958	6.69
379.321	6.62
379.683	6.57
380.045	6.54
380.407	6.52
380.769	6.57
381.13	6.57
381.492	6.58
381.854	6.52
382.216	6.55
382.578	6.58
382.939	6.6
383.301	6.56
383.663	6.55
384.024	6.56
384.386	6.52
384.747	6.55
385.109	6.57
385.47	6.52
385.832	6.5
386.193	6.48
386.554	6.49
386.916	6.48
387.277	6.51
387.638	6.53
387.999	6.51
388.36	6.51
388.721	6.46
389.082	6.42
389.443	6.41
389.804	6.39
390.165	6.34
390.526	6.34
390.887	6.36
391.248	6.4
391.609	6.43
391.969	6.45
392.33	6.37
392.691	6.36
393.051	6.38
393.412	6.39
393.772	6.42
394.133	6.4
394.493	6.45
394.854	6.45
395.214	6.44
395.574	6.46
395.935	6.46
396.295	6.48
396.655	6.48
397.015	6.47
397.376	6.44
397.736	6.49
398.096	6.52
398.456	6.49
398.816	6.47
399.176	6.45
399.535	6.41
399.895	6.41
400.255	6.45
400.615	6.45
400.975	6.45
401.334	6.41
401.694	6.39
402.054	6.39
402.413	6.39
402.773	6.35
403.132	6.3
403.492	6.31
403.851	6.31
404.211	6.34
404.57	6.34
404.929	6.38
405.288	6.38
405.648	6.36
406.007	6.37
406.366	6.38
406.725	6.4
407.084	6.4
407.443	6.43
407.802	6.42
408.161	6.41
408.52	6.42
408.879	6.45
409.238	6.51
409.596	6.49
409.955	6.47
410.314	6.52
410.673	6.54
411.031	6.5
411.39	6.49
411.748	6.48
412.107	6.52
412.465	6.52
412.824	6.49
413.182	6.48
413.54	6.47
413.899	6.45
414.257	6.44
414.615	6.43
414.974	6.39
415.332	6.36
415.69	6.37
416.048	6.36
416.406	6.34
416.764	6.3
417.122	6.29
417.48	6.29
417.838	6.26
418.195	6.27
418.553	6.29
418.911	6.28
419.269	6.29
419.626	6.25
419.984	6.25
420.342	6.25
420.699	6.25
421.057	6.25
421.414	6.23
421.772	6.23
422.129	6.23
422.486	6.24
422.844	6.24
423.201	6.23
423.558	6.22
423.915	6.22
424.273	6.22
424.63	6.23
424.987	6.22
425.344	6.23
425.701	6.23
426.058	6.21
426.415	6.21
426.772	6.19
427.128	6.2
427.485	6.19
427.842	6.19
428.199	6.17
428.555	6.17
428.912	6.2
429.269	6.21
429.625	6.18
429.982	6.18
430.338	6.18
430.695	6.17
431.051	6.16
431.407	6.16
431.764	6.17
432.12	6.16
432.476	6.16
432.832	6.15
433.189	6.14
433.545	6.14
433.901	6.14
434.257	6.12
434.613	6.12
434.969	6.12
435.325	6.13
435.681	6.14
436.036	6.13
436.392	6.12
436.748	6.09
437.104	6.11
437.459	6.1
437.815	6.11
438.171	6.12
438.526	6.15
438.882	6.15
439.237	6.17
439.593	6.18
439.948	6.21
440.304	6.22
440.659	6.22
441.014	6.22
441.369	6.22
441.725	6.24
442.08	6.24
442.435	6.23
442.79	6.23
443.145	6.24
443.5	6.24
443.855	6.22
444.21	6.22
444.565	6.23
444.92	6.22
445.275	6.22
445.629	6.22
445.984	6.2
446.339	6.18
446.693	6.17
447.048	6.15
447.403	6.13
447.757	6.11
448.112	6.09
448.466	6.09
448.82	6.09
449.175	6.09
449.529	6.07
449.883	6.08
450.238	6.07
450.592	6.07
450.946	6.04
451.3	6.05
451.654	6.06
452.008	6.04
452.362	6.04
452.716	6.04
453.07	6.03
453.424	6.04
453.778	6.05
454.132	6.03
454.486	6.04
454.839	6.02
455.193	6.02
455.547	6.02
455.9	6.03
456.254	6.02
456.607	6.01
456.961	6.02
457.314	6
457.668	6.01
458.021	6
458.375	6.02
458.728	6.04
459.081	6.04
459.434	6.04
459.787	6.06
460.141	6.07
460.494	6.06
460.847	6.06
461.2	6.04
461.553	6.07
461.906	6.07
462.259	6.1
462.611	6.12
462.964	6.15
463.317	6.14
463.67	6.14
464.022	6.17
464.375	6.18
464.728	6.19
465.08	6.19
465.433	6.21
465.785	6.2
466.138	6.2
466.49	6.21
466.843	6.21
467.195	6.21
467.547	6.2
467.899	6.23
468.252	6.24
468.604	6.26
468.956	6.26
469.308	6.28
469.66	6.26
470.012	6.25
470.364	6.26
470.716	6.28
471.068	6.28
471.42	6.28
471.772	6.3
472.123	6.31
472.475	6.3
472.827	6.3
473.178	6.32
473.53	6.33
473.882	6.33
474.233	6.35
474.585	6.32
474.936	6.35
475.288	6.34
475.639	6.36
475.99	6.35
476.342	6.33
476.693	6.32
477.044	6.35
477.395	6.34
477.746	6.33
478.097	6.33
478.448	6.35
478.8	6.36
479.15	6.33
479.501	6.34
479.852	6.35
480.203	6.37
480.554	6.38
480.905	6.38
481.255	6.39
481.606	6.4
481.957	6.43
482.307	6.42
482.658	6.42
483.009	6.41
483.359	6.42
483.709	6.43
484.06	6.43
484.41	6.44
484.761	6.44
485.111	6.44
485.461	6.44
485.811	6.43
486.162	6.43
486.512	6.45
486.862	6.46
487.212	6.46
487.562	6.46
487.912	6.46
488.262	6.46
488.612	6.45
488.961	6.45
489.311	6.45
489.661	6.45
490.011	6.45
490.36	6.45
490.71	6.46
491.06	6.46
491.409	6.47
491.759	6.46
492.108	6.47
492.458	6.48
492.807	6.49
493.157	6.51
493.506	6.5
493.855	6.5
494.204	6.51
494.554	6.52
494.903	6.52
495.252	6.52
495.601	6.54
495.95	6.56
496.299	6.58
496.648	6.57
496.997	6.58
497.346	6.6
497.695	6.63
498.043	6.65
498.392	6.64
498.741	6.66
499.09	6.68
499.438	6.68
499.787	6.71
500.135	6.72
500.484	6.72
500.832	6.74
501.181	6.76
501.529	6.76
501.878	6.79
502.226	6.78
502.574	6.79
502.923	6.79
503.271	6.79
503.619	6.8
503.967	6.84
504.315	6.87
504.663	6.87
505.011	6.87
505.359	6.83
505.707	6.86
506.055	6.86
506.403	6.87
506.751	6.9
507.098	6.92
507.446	6.96
507.794	6.98
508.141	7
508.489	7.02
508.837	7.04
509.184	7.06
509.531	7.08
509.879	7.11
510.226	7.16
510.574	7.18
510.921	7.19
511.268	7.22
511.616	7.22
511.963	7.24
512.31	7.25
512.657	7.31
513.004	7.31
513.351	7.33
513.698	7.34
514.045	7.33
514.392	7.33
514.739	7.32
515.086	7.35
515.432	7.36
515.779	7.36
516.126	7.38
516.473	7.38
516.819	7.41
517.166	7.4
517.512	7.4
517.859	7.39
518.205	7.4
518.552	7.4
518.898	7.41
519.245	7.42
519.591	7.44
519.937	7.42
520.283	7.45
520.629	7.47
520.976	7.49
521.322	7.51
521.668	7.54
522.014	7.53
522.36	7.55
522.706	7.56
523.052	7.57
523.398	7.59
523.743	7.6
524.089	7.61
524.435	7.61
524.781	7.63
525.126	7.65
525.472	7.66
525.817	7.68
526.163	7.68
526.509	7.69
526.854	7.7
527.199	7.72
527.545	7.72
527.89	7.72
528.235	7.72
528.581	7.71
528.926	7.72
529.271	7.72
529.616	7.72
529.961	7.74
530.306	7.76
530.651	7.75
530.996	7.76
531.341	7.75
531.686	7.76
532.031	7.76
532.376	7.76
532.721	7.77
533.065	7.76
533.41	7.77
533.755	7.77
534.099	7.78
534.444	7.79
534.788	7.81
535.133	7.8
535.477	7.83
535.822	7.84
536.166	7.84
536.51	7.85
536.855	7.86
537.199	7.86
537.543	7.86
537.887	7.88
538.231	7.88
538.576	7.89
538.92	7.91
539.264	7.93
539.608	7.92
539.951	7.92
540.295	7.95
540.639	7.95
540.983	7.96
541.327	7.95
541.671	7.93
542.014	7.92
542.358	7.95
542.701	7.95
543.045	7.97
543.389	7.97
543.732	7.97
544.075	7.99
544.419	7.99
544.762	7.98
545.105	7.99
545.449	7.99
545.792	8
546.135	7.99
546.478	7.99
546.821	8
547.165	8.01
547.508	7.99
547.851	7.98
548.194	7.96
548.536	7.97
548.879	8.01
549.222	8.02
549.565	8.02
549.908	8.03
550.25	8.01
550.593	8.02
550.936	8.03
551.278	8.03
551.621	8.05
551.963	8.05
552.306	8.05
552.648	8.05
552.991	8.06
553.333	8.07
553.675	8.04
554.017	8.08
554.36	8.07
554.702	8.1
555.044	8.11
555.386	8.11
555.728	8.11
556.07	8.09
556.412	8.08
556.754	8.06
557.096	8.03
557.438	8.05
557.78	8.08
558.121	8.08
558.463	8.07
558.805	8.04
559.147	8.03
559.488	8.03
559.83	8.02
560.171	7.98
560.513	8.02
560.854	8.06
561.196	8.04
561.537	8.07
561.878	8.07
562.22	8.09
562.561	8.09
562.902	8.1
563.243	8.11
563.584	8.09
563.925	8.09
564.266	8.05
564.607	8.03
564.948	8.03
565.289	8.04
565.63	8.03
565.971	8.04
566.312	8.05
566.653	8.01
566.993	8.03
567.334	8.08
567.675	8.09
568.015	8.11
568.356	8.11
568.696	8.1
569.037	8.1
569.377	8.09
569.718	8.12
570.058	8.13
570.398	8.13
570.739	8.15
571.079	8.17
571.419	8.22
571.759	8.24
572.099	8.22
572.439	8.24
572.779	8.25
573.119	8.27
573.459	8.29
573.799	8.33
574.139	8.33
574.479	8.3
574.819	8.28
575.158	8.24
575.498	8.25
575.838	8.25
576.177	8.24
576.517	8.23
576.856	8.22
577.196	8.22
577.535	8.22
577.875	8.23
578.214	8.19
578.553	8.21
578.893	8.19
579.232	8.22
579.571	8.18
579.91	8.18
580.25	8.18
580.589	8.2
580.928	8.22
581.267	8.24
581.606	8.26
581.945	8.26
582.283	8.28
582.622	8.28
582.961	8.26
583.3	8.27
583.639	8.32
583.977	8.34
584.316	8.36
584.654	8.4
584.993	8.41
585.332	8.43
585.67	8.4
586.008	8.41
586.347	8.36
586.685	8.35
587.024	8.38
587.362	8.39
587.7	8.38
588.038	8.37
588.376	8.38
588.715	8.38
589.053	8.4
589.391	8.41
589.729	8.41
590.067	8.44
590.404	8.43
590.742	8.42
591.08	8.41
591.418	8.37
591.756	8.38
592.093	8.37
592.431	8.39
592.769	8.39
593.106	8.39
593.444	8.4
593.781	8.43
594.119	8.44
594.456	8.44
594.793	8.43
595.131	8.4
595.468	8.4
595.805	8.4
596.143	8.36
596.48	8.36
596.817	8.36
597.154	8.36
597.491	8.39
597.828	8.37
598.165	8.36
598.502	8.39
598.839	8.37
599.176	8.38
599.512	8.36
599.849	8.39
600.186	8.35
600.523	8.39
600.859	8.38
601.196	8.38
601.532	8.35
601.869	8.33
602.205	8.36
602.542	8.36
602.878	8.35
603.215	8.37
603.551	8.39
603.887	8.4
604.223	8.45
604.56	8.46
604.896	8.46
605.232	8.5
605.568	8.48
605.904	8.49
606.24	8.51
606.576	8.52
606.912	8.49
607.248	8.51
607.583	8.5
607.919	8.53
608.255	8.52
608.591	8.55
608.926	8.6
609.262	8.64
609.597	8.62
609.933	8.65
610.268	8.64
610.604	8.61
610.939	8.59
611.275	8.55
611.61	8.5
611.945	8.54
612.281	8.5
612.616	8.51
612.951	8.52
613.286	8.51
613.621	8.54
613.956	8.59
614.291	8.64
614.626	8.69
614.961	8.64
615.296	8.63
615.631	8.65
615.966	8.6
616.3	8.55
616.635	8.56
616.97	8.54
617.304	8.55
617.639	8.57
617.973	8.64
618.308	8.66
618.642	8.71
618.977	8.71
619.311	8.7
619.646	8.78
619.98	8.75
620.314	8.75
620.648	8.74
620.983	8.72
621.317	8.68
621.651	8.66
621.985	8.71
622.319	8.75
622.653	8.75
622.987	8.8
623.321	8.83
623.655	8.9
623.988	8.96
624.322	8.98
624.656	9.04
624.99	9.03
625.323	9.01
625.657	9.01
625.99	9.04
626.324	9.03
626.657	9.01
626.991	9.06
627.324	9.06
627.658	9.1
627.991	9.11
628.324	9.13
628.657	9.13
628.991	9.09
629.324	9.1
629.657	9.07
629.99	9.09
630.323	9.07
630.656	9.04
630.989	9.06
631.322	9.06
631.655	9.02
631.987	8.98
632.32	8.99
632.653	8.99
632.986	9.02
633.318	8.99
633.651	9.01
633.984	8.96
634.316	8.99
634.649	8.95
634.981	8.97
635.313	8.95
635.646	8.95
635.978	8.96
636.31	8.92
636.643	8.98
636.975	8.94
637.307	8.93
637.639	8.9
637.971	8.87
638.303	8.87
638.635	8.84
638.967	8.85
639.299	8.86
639.631	8.87
639.963	8.76
640.295	8.82
640.626	8.79
640.958	8.87
641.29	8.83
641.621	8.87
641.953	8.87
642.285	8.9
642.616	8.94
642.948	8.96
643.279	8.98
643.61	8.92
643.942	8.91
644.273	8.95
644.604	8.96
644.936	8.93
645.267	8.95
645.598	9.01
645.929	9.05
646.26	9.07
646.591	9.07
646.922	9.08
647.253	9.04
647.584	9.05
647.915	8.99
648.245	9.02
648.576	9.02
648.907	8.93
649.238	8.92
649.568	8.88
649.899	8.87
650.229	8.83
650.56	8.83
650.89	8.87
651.221	8.82
651.551	8.82
651.882	8.8
652.212	8.72
652.542	8.64
652.872	8.59
653.203	8.55
653.533	8.52
653.863	8.55
654.193	8.63
654.523	8.63
654.853	8.67
655.183	8.65
655.513	8.7
655.843	8.76
656.172	8.8
656.502	8.86
656.832	8.88
657.162	8.96
657.491	8.97
657.821	8.94
658.15	8.98
658.48	8.99
658.809	8.99
659.139	9.04
659.468	9.12
659.798	9.11
660.127	9.13
660.456	9.15
660.785	9.17
661.115	9.12
661.444	9.05
661.773	9.03
662.102	8.99
662.431	8.96
662.76	8.95
663.089	8.96
663.418	8.89
663.747	8.86
664.076	8.86
664.404	8.83
664.733	8.87
665.062	8.82
665.39	8.86
665.719	8.88
666.048	8.95
666.376	8.89
666.705	8.86
667.033	8.93
667.362	8.96
667.69	8.94
668.018	8.97
668.347	9.01
668.675	9
669.003	9.04
669.331	9.07
669.659	9.04
669.987	9.06
670.315	9.11
670.643	9.14
670.971	9.12
671.299	9.22
671.627	9.17
671.955	9.2
672.283	9.17
672.61	9.22
672.938	9.14
673.266	9.18
673.593	9.37
673.921	9.29
674.249	9.35
674.576	9.35
674.904	9.28
675.231	9.31
675.558	9.31
675.886	9.29
676.213	9.26
676.54	9.38
676.867	9.42
677.195	9.39
677.522	9.45
677.849	9.44
678.176	9.42
678.503	9.38
678.83	9.37
679.157	9.28
679.484	9.25
679.81	9.3
680.137	9.31
680.464	9.29
680.791	9.35
681.117	9.35
681.444	9.34
681.771	9.47
682.097	9.52
682.424	9.58
682.75	9.61
683.077	9.52
683.403	9.56
683.729	9.41
684.056	9.44
684.382	9.44
684.708	9.44
685.034	9.42
685.36	9.45
685.686	9.48
686.012	9.53
686.339	9.57
686.664	9.57
686.99	9.6
687.316	9.56
687.642	9.55
687.968	9.47
688.294	9.46
688.619	9.41
688.945	9.3
689.271	9.25
689.596	9.21
689.922	9.3
690.247	9.16
690.573	9.22
690.898	9.26
691.224	9.27
691.549	9.36
691.874	9.34
692.2	9.44
692.525	9.48
692.85	9.56
693.175	9.58
693.5	9.5
693.825	9.44
694.15	9.33
694.475	9.4
694.8	9.39
695.125	9.44
695.45	9.32
695.775	9.4
696.099	9.42
696.424	9.49
696.749	9.41
697.073	9.48
697.398	9.52
697.723	9.46
698.047	9.41
698.372	9.36
698.696	9.41
699.02	9.37
699.345	9.37
699.669	9.48
699.993	9.4
700.318	9.47
700.642	9.44
700.966	9.49
701.29	9.45
701.614	9.48
701.938	9.5
702.262	9.66
702.586	9.65
702.91	9.62
703.234	9.53
703.557	9.63
703.881	9.62
704.205	9.71
704.529	9.66
704.852	9.77
705.176	9.85
705.499	9.88
705.823	9.92
706.146	9.82
706.47	9.73
706.793	9.8
707.117	9.65
707.44	9.74
707.763	9.73
708.086	9.7
708.409	9.57
708.733	9.6
709.056	9.5
709.379	9.52
709.702	9.44
710.025	9.52
710.348	9.51
710.671	9.38
710.993	9.28
711.316	9.4
711.639	9.34
711.962	9.34
712.284	9.23
712.607	9.24
712.93	9.4
713.252	9.32
713.575	9.35
713.897	9.4
714.22	9.46
714.542	9.5
714.864	9.53
715.187	9.68
715.509	9.8
715.831	9.85
716.153	9.98
716.475	10.07
716.798	10.11
717.12	10.13
717.442	10.26
717.764	10.26
718.085	10.24
718.407	10.16
718.729	10.21
719.051	10.24
719.373	10.09
719.695	10.07
720.016	10.25
720.338	10.11
720.659	10.36
720.981	10.36
721.302	10.37
721.624	10.28
721.945	10.28
722.267	10.09
722.588	10.18
722.909	9.97
723.231	10
723.552	9.94
723.873	9.96
724.194	9.95
724.515	10.06
724.836	9.95
725.157	10.07
725.478	9.87
725.799	10.06
726.12	10.22
726.441	10.16
726.762	10.13
727.083	10.18
727.403	10.16
727.724	10.12
728.045	10.22
728.365	10.29
728.686	10.42
729.006	10.37
729.327	10.17
729.647	10.42
729.967	10.42
730.288	10.51
730.608	10.45
730.928	10.43
731.249	10.33
731.569	10.51
731.889	10.56
732.209	10.7
732.529	10.54
732.849	10.52
733.169	10.51
733.489	10.5
733.809	10.59
734.129	10.5
734.448	10.53
734.768	10.29
735.088	10.32
735.408	10.25
735.727	10.52
736.047	10.71
736.366	10.44
736.686	10.51
737.005	10.47
737.325	10.5
737.644	10.39
737.963	10.52
738.283	10.4
738.602	10.28
738.921	10.11
739.24	10.01
739.56	10.04
739.879	10.18
740.198	10.02
740.517	9.85
740.836	9.86
741.155	9.75
741.473	10.08
741.792	9.98
742.111	9.81
742.43	9.61
742.748	9.55
743.067	9.78
743.386	9.73
743.704	9.6
744.023	9.73
744.341	10.1
744.66	9.93
744.978	9.82
745.297	9.93
745.615	10.05
745.933	10.31
746.252	10.51
746.57	10.16
746.888	10.25
747.206	10.1
747.524	10.22
747.842	10.28
748.16	10.41
748.478	10.49
748.796	10.5
749.114	10.62
749.432	10.48
749.749	10.45
750.067	10.63
750.385	10.56
750.703	10.41
751.02	10.02
751.338	10.25
751.655	10.54
751.973	10.39
752.29	10.4
752.608	10.25
752.925	9.98
753.242	10.44
753.56	10.37
753.877	10.51
754.194	10.35
754.511	10.58
754.828	10.3
755.145	10.36
755.462	10.41
755.779	10.08
756.096	10.16
756.413	10.2
756.73	9.76
757.047	10.03
757.364	10.11
757.68	10.5
757.997	10.25
758.314	10.03
758.63	10.13
758.947	10.09
759.264	10.06
759.58	10.02
759.896	9.81
760.213	9.89
760.529	9.9
760.846	10.08
761.162	9.95
761.478	9.94
761.794	9.93
762.11	9.98
762.426	10.3
762.743	10.59
763.059	10.6
763.375	10.96
763.69	10.87
764.006	10.89
764.322	10.81
764.638	11.05
764.954	11.35
765.27	11.35
765.585	11.45
765.901	11.52
766.216	11.45
766.532	11.41
766.848	11.31
767.163	11.65
767.478	11.57
767.794	11.46
768.109	11.36
768.424	11.43
768.74	11.53
769.055	11.39
769.37	11.14
769.685	10.83
770	10.64
770.315	10.69
770.63	10.71
770.945	10.7
771.26	10.42
771.575	9.99
771.89	10.02
772.205	9.98
772.52	9.92
772.834	10.29
773.149	10.39
773.464	10.65
773.778	10.68
774.093	10.38
774.407	10.39
774.722	10.73
775.036	10.56
775.351	10.6
775.665	10.49
775.979	10.51
776.293	10.8
776.608	10.71
776.922	10.66
777.236	10.45
777.55	10.49
777.864	10.65
778.178	10.65
778.492	10.86
778.806	10.59
779.12	10.95
779.434	10.94
779.747	10.98
780.061	10.71
780.375	10.69
780.689	10.97
781.002	11.08
781.316	10.65
781.629	10.79
781.943	10.74
782.256	10.97
782.57	11.12
782.883	11.07
783.196	10.81
783.51	10.58
783.823	10.68
784.136	10.71
784.449	10.6
784.762	10.78
785.075	10.77
785.388	10.88
785.701	10.71
786.014	10.39
786.327	10.77
786.64	11.41
786.953	10.93
787.266	10.86
787.578	10.95
787.891	11.54
788.204	11.43
788.516	11.72
788.829	11.4
789.141	11.3
789.454	11.4
789.766	11.75
790.079	12.04
790.391	12.1
790.703	11.9
791.016	11.92
791.328	12
791.64	11.42
791.952	11.61
792.264	11.56
792.576	11.39
792.888	10.66
793.2	10.44
793.512	10.73
793.824	10.65
794.136	10.6
794.448	10.41
794.76	10.41
795.071	9.79
795.383	10.05
795.695	9.93
796.006	10.03
796.318	9.86
796.629	9.97
796.941	9.75
797.252	9.72
797.564	10.06
797.875	10.08
798.186	10.57
798.497	10.57
798.809	10.41
799.12	10.62
799.431	11.28
799.742	10.74
800.053	10.62
800.364	10.59
800.675	10.66
800.986	10.86
801.297	10.58
801.608	10.81
801.918	10.59
802.229	10.71
802.54	10.52
802.851	10.11
803.161	9.98
803.472	10.43
803.782	10.71
804.093	10.43
804.403	10.41
804.714	10.42
805.024	10.19
805.334	10.15
805.645	10.43
805.955	10.37
806.265	10.57
806.575	10.64
806.885	10.91
807.195	10.79
807.505	10.68
807.815	11.21
808.125	10.62
808.435	10.72
808.745	10.46
809.055	11.36
809.365	11.93
809.674	11.45
809.984	11.83
810.294	11.09
810.603	10.96
810.913	11.19
811.222	10.97
811.532	11.13
811.841	11.56
812.151	12.01
812.46	11.56
812.769	11.84
813.079	11.72
813.388	11.9
813.697	11.35
814.006	10.94
814.315	10.95
814.624	11.41
814.933	11.69
815.242	12.12
815.551	11.12
815.86	11.26
816.169	11.65
816.478	11.26
816.786	11.75
817.095	12.39
817.404	12.65
817.712	12.68
818.021	12.57
818.33	12.3
818.638	12.06
818.947	12.16
819.255	12.48
819.563	12.54
819.872	12.67
820.18	13.48
820.488	13.35
820.796	13.29
821.105	13.25
821.413	13.22
821.721	12.97
822.029	13.03
822.337	13.03
822.645	13.09
822.953	13.14
823.26	13.16
823.568	12.98
823.876	12.89
824.184	12.92
824.491	12.92
824.799	12.81
825.107	12.84
825.414	13.01
825.722	13.1
826.029	13.18
826.337	13.17
826.644	13.02
826.951	13.19
827.259	13.17
827.566	13.46
827.873	13.51
828.18	13.71
828.488	13.66
828.795	13.83
829.102	13.87
829.409	13.86
829.716	13.74
830.023	13.74
830.329	13.5
830.636	13.69
830.943	13.52
831.25	13.86
831.557	13.66
831.863	13.08
832.17	12.56
832.476	13.01
832.783	12.78
833.089	12.58
833.396	12.54
833.702	12.53
834.009	12.09
834.315	12.09
834.621	12.4
834.928	12.72
835.234	12.12
835.54	12.09
835.846	11.64
836.152	11.8
836.458	11.59
836.764	11.88
837.07	11.52
837.376	11.29
837.682	11.09
837.988	10.9
838.293	11.5
838.599	11.49
838.905	10.61
839.211	10.72
839.516	10.89
839.822	10.7
840.127	10.27
840.433	9.77
840.738	9.03
841.044	8.04
841.349	7.71
841.654	8.11
841.959	8.28
842.265	9.42
842.57	10.11
842.875	10.32
843.18	10.19
843.485	10.49
843.79	11.47
844.095	11.01
844.4	12.2
844.705	9.9
845.01	9.3
845.315	8.87
845.619	7.71
845.924	6.91
846.229	6.13
846.533	8.14
846.838	8.92
847.142	9.3
847.447	8.5
847.751	7.25
848.056	6.43
848.36	6.29
848.664	4.27
848.969	3.46
849.273	3
849.577	3.14
849.881	3.92
850.185	4.67
850.489	5.1
850.794	2.79
851.097	4.93
851.401	5.77
851.705	5.37
852.009	8.57
852.313	9.11
852.617	10.57
852.92	7.48
853.224	7.01
853.528	6.88
853.831	5.29
854.135	6.14
854.438	6.25
854.742	6.07
855.045	4.98
855.349	4.26
855.652	4.72
855.955	3.94
856.259	3.05
856.562	1.15
856.865	1.06
857.168	2.04
857.471	0
857.774	-0.84
858.077	0.49
858.38	-1.72
858.683	-3.03
858.986	-4.79
859.289	-3.03
859.592	-3
859.894	-0.57
860.197	2.02
860.5	1.72
860.802	3.44
861.105	1.66
861.407	2.63
861.71	2.58
862.012	3.33
862.315	3.42
862.617	2.94
862.919	4.82
863.222	7.34
863.524	8
863.826	11.51
864.128	13.68
864.43	14.9
864.732	15.93
865.034	17.51
865.336	19.48
865.638	17.93
865.94	16.55
866.242	14.04
866.544	15.13
866.846	14.92
867.147	13.97
867.449	17.06
867.751	16.12
868.052	15.87
868.354	16.21
868.655	15.8
868.957	15.88
869.258	13.69
869.56	11.81
869.861	12.3
870.162	10.44
870.463	10.54
870.765	9.58
871.066	10.28
871.367	7.5
871.668	6.31
871.969	5.91
872.27	5.55
872.571	7.04
872.872	5.76
873.173	2.85
873.473	3.2
873.774	0.47
874.075	1.49
874.376	0.47
874.676	0.11
874.977	-0.21
875.277	0.81
875.578	1.27
875.878	0.55
876.179	-0.65
876.479	0.05
876.78	-1.77
877.08	-3.45
877.38	-5.74
877.68	-3.31
877.981	-3.83
878.281	-2.99
878.581	-0.36
