Data from BA56852_Reflection_00009.txt Node
Date: Mon Nov 18 15:23:08 EST 2019
User: vgr7
Spectrometer: USB2G7710
Scans to average: 3
Trigger mode: 4
Integration Time (sec): 2.000000E-2
Electric dark correction enabled: true
Boxcar width: 10
XAxis mode: Wavelengths
Number of Pixels in Spectrum: 2048
>>>>>Begin Spectral Data<<<<<
177.721	-14.91
178.105	-75.12
178.488	-296.27
178.871	-175.75
179.254	-87.39
179.636	-12.7
180.019	-463.98
180.402	138.71
180.785	420.2
181.168	117.57
181.55	128.67
181.933	112.74
182.316	133.7
182.698	127.44
183.081	99.62
183.463	94.28
183.846	85.42
184.228	91.88
184.611	131.64
184.993	89.26
185.376	67.4
185.758	150.73
186.14	135.76
186.522	137.98
186.904	110.12
187.287	84.75
187.669	65.37
188.051	75.1
188.433	50.86
188.815	31.02
189.197	47.01
189.579	55.74
189.961	24.28
190.342	15.27
190.724	29.53
191.106	99.17
191.488	75.71
191.869	73.34
192.251	120.71
192.633	109.31
193.014	153.92
193.396	164.3
193.777	14.69
194.159	29.15
194.54	68.46
194.922	-2689.47
195.303	-936.7
195.684	-273.78
196.065	-29.61
196.447	-66.5
196.828	-156.71
197.209	-69.38
197.59	-80.02
197.971	-117.45
198.352	-136.07
198.733	-180.11
199.114	-78.81
199.495	-96.51
199.876	-104.75
200.257	-70.21
200.638	-68.03
201.018	-79.82
201.399	-114.16
201.78	-84.98
202.16	-91.91
202.541	-116.19
202.922	-136.39
203.302	-157.05
203.683	-198.12
204.063	-325.44
204.444	-238.62
204.824	-220.55
205.204	-201.75
205.585	-133.46
205.965	-108.09
206.345	-127.21
206.725	-217.35
207.106	-418.77
207.486	-272.49
207.866	-236.61
208.246	-306.47
208.626	-401.61
209.006	-286.45
209.386	-741.58
209.766	-1214.54
210.145	625.48
210.525	1932.37
210.905	3594.38
211.285	-354.19
211.664	-225.72
212.044	-184.99
212.424	-213.71
212.803	-298.18
213.183	-305.44
213.562	-396.38
213.942	-969.82
214.321	-438.33
214.701	-304.68
215.08	-244.28
215.459	-285.82
215.838	-515.67
216.218	-499.44
216.597	-201.6
216.976	-177.97
217.355	-122
217.734	-106.15
218.113	-86.81
218.492	-136.05
218.871	-197.22
219.25	-210.5
219.629	-230.02
220.008	-245.95
220.387	-220.15
220.766	-163.69
221.144	-164.29
221.523	-136.07
221.902	-117.03
222.28	-128.95
222.659	-109.55
223.037	-104.32
223.416	-104.52
223.794	-78
224.173	-93.38
224.551	-79.81
224.929	-84.25
225.308	-68.04
225.686	-64.59
226.064	-57.94
226.442	-41.65
226.821	-26.8
227.199	-25.13
227.577	-25.5
227.955	-23.86
228.333	-19.15
228.711	-13.99
229.089	-9.42
229.467	-8.63
229.845	-7.03
230.222	-7.18
230.6	-10.15
230.978	-9.69
231.356	-7.07
231.733	-8.84
232.111	-6.22
232.488	-6.6
232.866	-5.04
233.243	-5.33
233.621	-5.98
233.998	-3.59
234.376	-3.9
234.753	-4.8
235.13	-3.79
235.508	-1.86
235.885	-0.72
236.262	-2.44
236.639	-4.86
237.016	-4.2
237.393	-2.34
237.77	-1.37
238.147	1.16
238.524	2.38
238.901	2.54
239.278	1.83
239.655	2.6
240.032	2.9
240.409	3.3
240.785	2.84
241.162	3.5
241.539	3.89
241.915	3.67
242.292	3.43
242.668	3.38
243.045	3.71
243.421	3.83
243.798	3.5
244.174	3.69
244.551	4.21
244.927	3.83
245.303	3.75
245.679	3.7
246.056	3.37
246.432	3.33
246.808	3.21
247.184	3.15
247.56	2.69
247.936	2.59
248.312	2.51
248.688	2.84
249.064	2.57
249.44	2.51
249.815	2.47
250.191	2.76
250.567	2.71
250.943	2.37
251.318	2.36
251.694	2.6
252.069	2.39
252.445	2.19
252.82	2.35
253.196	2.28
253.571	2.02
253.947	1.86
254.322	1.9
254.697	2.02
255.073	1.86
255.448	2.12
255.823	2.22
256.198	2.26
256.573	2.21
256.948	2.53
257.323	2.56
257.698	2.61
258.073	2.84
258.448	2.9
258.823	3.09
259.198	2.93
259.573	2.9
259.948	2.92
260.322	2.97
260.697	2.87
261.072	2.78
261.446	2.75
261.821	2.74
262.195	2.94
262.57	2.93
262.944	3.13
263.319	3.22
263.693	3.03
264.067	3.07
264.442	3.06
264.816	2.96
265.19	3.02
265.564	3.1
265.938	2.74
266.313	2.85
266.687	2.66
267.061	2.81
267.435	2.81
267.809	2.87
268.183	2.78
268.556	2.74
268.93	2.84
269.304	3
269.678	3.21
270.051	2.99
270.425	3.03
270.799	3.01
271.172	3.06
271.546	3.27
271.919	3.11
272.293	3.14
272.666	3.13
273.04	3.07
273.413	3.01
273.787	3.06
274.16	3.17
274.533	3.32
274.906	3.25
275.279	3.37
275.653	3.52
276.026	3.48
276.399	3.48
276.772	3.62
277.145	3.5
277.518	3.47
277.891	3.45
278.263	3.46
278.636	3.31
279.009	3.18
279.382	3.14
279.755	3.24
280.127	3.25
280.5	3.3
280.872	3.51
281.245	3.62
281.617	3.69
281.99	3.61
282.362	3.54
282.735	3.49
283.107	3.32
283.479	3.39
283.852	3.51
284.224	3.56
284.596	3.4
284.968	3.47
285.34	3.58
285.713	3.54
286.085	3.59
286.457	3.76
286.829	3.78
287.201	3.8
287.572	3.9
287.944	3.76
288.316	3.73
288.688	3.61
289.06	3.49
289.431	3.41
289.803	3.38
290.175	3.47
290.546	3.71
290.918	3.86
291.289	3.77
291.661	3.78
292.032	3.85
292.403	3.93
292.775	4.07
293.146	3.84
293.517	3.88
293.889	3.94
294.26	3.98
294.631	4
295.002	3.97
295.373	3.86
295.744	4.03
296.115	3.95
296.486	3.88
296.857	3.95
297.228	4.05
297.599	4.06
297.97	4.04
298.34	4
298.711	3.94
299.082	3.91
299.452	3.86
299.823	3.89
300.194	3.84
300.564	3.66
300.935	3.78
301.305	3.9
301.676	3.94
302.046	3.95
302.416	3.92
302.787	4.03
303.157	4.02
303.527	4.06
303.897	4.25
304.267	4.42
304.637	4.34
305.008	4.34
305.378	4.33
305.748	4.46
306.117	4.43
306.487	4.5
306.857	4.49
307.227	4.46
307.597	4.33
307.967	4.39
308.336	4.43
308.706	4.45
309.076	4.41
309.445	4.28
309.815	4.21
310.184	4.26
310.554	4.3
310.923	4.4
311.293	4.47
311.662	4.34
312.031	4.27
312.401	4.32
312.77	4.35
313.139	4.45
313.508	4.46
313.877	4.43
314.246	4.42
314.616	4.44
314.985	4.59
315.353	4.62
315.722	4.79
316.091	4.86
316.46	4.87
316.829	4.9
317.198	5.04
317.567	5.12
317.935	5.25
318.304	5.27
318.672	5.38
319.041	5.33
319.41	5.42
319.778	5.61
320.147	5.7
320.515	5.69
320.883	5.7
321.252	5.75
321.62	5.78
321.988	5.87
322.357	5.92
322.725	6.02
323.093	6.27
323.461	6.37
323.829	6.47
324.197	6.52
324.565	6.64
324.933	6.71
325.301	6.75
325.669	6.74
326.037	6.74
326.405	6.76
326.772	6.86
327.14	6.91
327.508	7.03
327.875	7.04
328.243	7.33
328.61	7.32
328.978	7.39
329.346	7.66
329.713	7.71
330.08	7.92
330.448	7.93
330.815	7.81
331.182	7.7
331.55	7.8
331.917	7.98
332.284	8.12
332.651	8.1
333.018	8.19
333.385	8.38
333.752	8.54
334.119	8.65
334.486	8.69
334.853	8.98
335.22	8.99
335.587	9.02
335.954	8.98
336.32	9.19
336.687	9.3
337.054	9.26
337.42	9.36
337.787	9.36
338.153	9.36
338.52	9.52
338.886	9.55
339.253	9.56
339.619	9.55
339.986	9.54
340.352	9.74
340.718	9.74
341.084	9.67
341.451	9.75
341.817	9.86
342.183	9.94
342.549	9.79
342.915	9.85
343.281	9.96
343.647	9.96
344.013	10
344.379	9.95
344.745	9.98
345.11	9.99
345.476	10.03
345.842	10.15
346.208	10.15
346.573	10.23
346.939	10.32
347.304	10.38
347.67	10.38
348.035	10.41
348.401	10.54
348.766	10.57
349.132	10.57
349.497	10.65
349.862	10.67
350.228	10.81
350.593	10.73
350.958	10.74
351.323	10.78
351.688	10.7
352.053	10.75
352.418	10.81
352.783	10.83
353.148	10.85
353.513	10.83
353.878	10.89
354.243	10.96
354.608	10.93
354.972	10.93
355.337	11.03
355.702	10.99
356.066	11.05
356.431	11.08
356.795	11.08
357.16	10.92
357.524	10.84
357.889	10.85
358.253	10.93
358.618	10.99
358.982	10.98
359.346	10.98
359.71	10.97
360.075	10.9
360.439	10.98
360.803	10.97
361.167	10.93
361.531	10.88
361.895	10.8
362.259	10.79
362.623	10.77
362.987	10.68
363.351	10.6
363.714	10.55
364.078	10.52
364.442	10.43
364.806	10.41
365.169	10.37
365.533	10.34
365.896	10.31
366.26	10.18
366.623	10.09
366.987	10.05
367.35	10.05
367.714	10.09
368.077	9.95
368.44	9.89
368.803	9.84
369.167	9.76
369.53	9.79
369.893	9.73
370.256	9.72
370.619	9.63
370.982	9.55
371.345	9.51
371.708	9.46
372.071	9.4
372.434	9.38
372.797	9.38
373.159	9.22
373.522	9.09
373.885	9.08
374.247	9.05
374.61	9.03
374.973	8.87
375.335	8.76
375.698	8.67
376.06	8.56
376.423	8.49
376.785	8.55
377.147	8.49
377.51	8.43
377.872	8.4
378.234	8.39
378.596	8.33
378.958	8.2
379.321	8.11
379.683	8.08
380.045	8
380.407	7.97
380.769	7.98
381.13	7.93
381.492	7.84
381.854	7.75
382.216	7.66
382.578	7.63
382.939	7.59
383.301	7.53
383.663	7.49
384.024	7.36
384.386	7.28
384.747	7.24
385.109	7.17
385.47	7.03
385.832	6.94
386.193	6.93
386.554	6.91
386.916	6.89
387.277	6.83
387.638	6.81
387.999	6.71
388.36	6.63
388.721	6.59
389.082	6.57
389.443	6.54
389.804	6.5
390.165	6.44
390.526	6.39
390.887	6.36
391.248	6.34
391.609	6.34
391.969	6.29
392.33	6.23
392.691	6.21
393.051	6.12
393.412	6.08
393.772	6.03
394.133	5.97
394.493	5.92
394.854	5.87
395.214	5.81
395.574	5.76
395.935	5.72
396.295	5.66
396.655	5.59
397.015	5.52
397.376	5.45
397.736	5.41
398.096	5.37
398.456	5.31
398.816	5.23
399.176	5.19
399.535	5.16
399.895	5.09
400.255	5.02
400.615	5.03
400.975	5.02
401.334	4.95
401.694	4.88
402.054	4.86
402.413	4.82
402.773	4.77
403.132	4.77
403.492	4.73
403.851	4.7
404.211	4.66
404.57	4.64
404.929	4.65
405.288	4.6
405.648	4.55
406.007	4.52
406.366	4.52
406.725	4.52
407.084	4.49
407.443	4.49
407.802	4.49
408.161	4.46
408.52	4.43
408.879	4.42
409.238	4.45
409.596	4.41
409.955	4.42
410.314	4.41
410.673	4.37
411.031	4.37
411.39	4.34
411.748	4.36
412.107	4.34
412.465	4.3
412.824	4.3
413.182	4.29
413.54	4.31
413.899	4.32
414.257	4.26
414.615	4.24
414.974	4.2
415.332	4.18
415.69	4.15
416.048	4.12
416.406	4.11
416.764	4.09
417.122	4.08
417.48	4.05
417.838	4.04
418.195	4.02
418.553	3.99
418.911	3.98
419.269	3.95
419.626	3.93
419.984	3.91
420.342	3.89
420.699	3.87
421.057	3.83
421.414	3.8
421.772	3.8
422.129	3.79
422.486	3.79
422.844	3.77
423.201	3.78
423.558	3.76
423.915	3.74
424.273	3.74
424.63	3.72
424.987	3.7
425.344	3.69
425.701	3.68
426.058	3.69
426.415	3.7
426.772	3.69
427.128	3.68
427.485	3.68
427.842	3.66
428.199	3.67
428.555	3.68
428.912	3.7
429.269	3.7
429.625	3.69
429.982	3.68
430.338	3.68
430.695	3.69
431.051	3.69
431.407	3.68
431.764	3.66
432.12	3.65
432.476	3.66
432.832	3.63
433.189	3.63
433.545	3.61
433.901	3.59
434.257	3.61
434.613	3.63
434.969	3.61
435.325	3.61
435.681	3.6
436.036	3.58
436.392	3.57
436.748	3.55
437.104	3.54
437.459	3.54
437.815	3.53
438.171	3.52
438.526	3.52
438.882	3.52
439.237	3.53
439.593	3.52
439.948	3.52
440.304	3.53
440.659	3.53
441.014	3.54
441.369	3.51
441.725	3.49
442.08	3.49
442.435	3.51
442.79	3.51
443.145	3.49
443.5	3.48
443.855	3.46
444.21	3.47
444.565	3.46
444.92	3.47
445.275	3.46
445.629	3.45
445.984	3.44
446.339	3.41
446.693	3.38
447.048	3.36
447.403	3.34
447.757	3.34
448.112	3.32
448.466	3.3
448.82	3.3
449.175	3.3
449.529	3.29
449.883	3.25
450.238	3.23
450.592	3.25
450.946	3.23
451.3	3.24
451.654	3.22
452.008	3.22
452.362	3.19
452.716	3.17
453.07	3.17
453.424	3.18
453.778	3.21
454.132	3.21
454.486	3.22
454.839	3.21
455.193	3.19
455.547	3.2
455.9	3.21
456.254	3.24
456.607	3.24
456.961	3.23
457.314	3.24
457.668	3.24
458.021	3.22
458.375	3.25
458.728	3.24
459.081	3.24
459.434	3.23
459.787	3.24
460.141	3.23
460.494	3.24
460.847	3.24
461.2	3.22
461.553	3.23
461.906	3.24
462.259	3.27
462.611	3.28
462.964	3.28
463.317	3.3
463.67	3.29
464.022	3.28
464.375	3.28
464.728	3.29
465.08	3.32
465.433	3.35
465.785	3.32
466.138	3.32
466.49	3.35
466.843	3.35
467.195	3.37
467.547	3.39
467.899	3.39
468.252	3.39
468.604	3.41
468.956	3.42
469.308	3.43
469.66	3.41
470.012	3.42
470.364	3.43
470.716	3.41
471.068	3.42
471.42	3.45
471.772	3.47
472.123	3.47
472.475	3.47
472.827	3.47
473.178	3.5
473.53	3.51
473.882	3.48
474.233	3.49
474.585	3.46
474.936	3.47
475.288	3.48
475.639	3.47
475.99	3.47
476.342	3.48
476.693	3.48
477.044	3.52
477.395	3.51
477.746	3.5
478.097	3.5
478.448	3.49
478.8	3.48
479.15	3.45
479.501	3.45
479.852	3.44
480.203	3.44
480.554	3.45
480.905	3.44
481.255	3.44
481.606	3.46
481.957	3.47
482.307	3.47
482.658	3.48
483.009	3.48
483.359	3.47
483.709	3.47
484.06	3.46
484.41	3.46
484.761	3.46
485.111	3.46
485.461	3.47
485.811	3.48
486.162	3.48
486.512	3.5
486.862	3.5
487.212	3.5
487.562	3.51
487.912	3.51
488.262	3.51
488.612	3.52
488.961	3.52
489.311	3.53
489.661	3.53
490.011	3.53
490.36	3.54
490.71	3.54
491.06	3.55
491.409	3.56
491.759	3.57
492.108	3.58
492.458	3.58
492.807	3.58
493.157	3.57
493.506	3.59
493.855	3.6
494.204	3.61
494.554	3.62
494.903	3.62
495.252	3.63
495.601	3.67
495.95	3.69
496.299	3.69
496.648	3.69
496.997	3.72
497.346	3.73
497.695	3.74
498.043	3.77
498.392	3.8
498.741	3.82
499.09	3.83
499.438	3.88
499.787	3.94
500.135	3.96
500.484	4.01
500.832	4.03
501.181	4.06
501.529	4.11
501.878	4.16
502.226	4.21
502.574	4.25
502.923	4.26
503.271	4.29
503.619	4.36
503.967	4.43
504.315	4.47
504.663	4.52
505.011	4.57
505.359	4.62
505.707	4.68
506.055	4.73
506.403	4.78
506.751	4.8
507.098	4.83
507.446	4.9
507.794	4.96
508.141	5.02
508.489	5.06
508.837	5.13
509.184	5.18
509.531	5.23
509.879	5.29
510.226	5.36
510.574	5.43
510.921	5.51
511.268	5.56
511.616	5.65
511.963	5.73
512.31	5.83
512.657	5.93
513.004	6.01
513.351	6.12
513.698	6.24
514.045	6.33
514.392	6.47
514.739	6.57
515.086	6.69
515.432	6.82
515.779	6.96
516.126	7.09
516.473	7.23
516.819	7.35
517.166	7.49
517.512	7.63
517.859	7.77
518.205	7.86
518.552	7.99
518.898	8.11
519.245	8.23
519.591	8.34
519.937	8.46
520.283	8.62
520.629	8.78
520.976	8.95
521.322	9.17
521.668	9.34
522.014	9.55
522.36	9.75
522.706	9.96
523.052	10.18
523.398	10.45
523.743	10.69
524.089	10.96
524.435	11.22
524.781	11.47
525.126	11.73
525.472	11.98
525.817	12.19
526.163	12.39
526.509	12.61
526.854	12.79
527.199	12.98
527.545	13.16
527.89	13.35
528.235	13.54
528.581	13.72
528.926	13.92
529.271	14.13
529.616	14.36
529.961	14.57
530.306	14.79
530.651	15.02
530.996	15.26
531.341	15.51
531.686	15.77
532.031	16.06
532.376	16.33
532.721	16.62
533.065	16.93
533.41	17.26
533.755	17.58
534.099	17.95
534.444	18.29
534.788	18.64
535.133	18.96
535.477	19.29
535.822	19.67
536.166	20.07
536.51	20.47
536.855	20.88
537.199	21.32
537.543	21.82
537.887	22.27
538.231	22.75
538.576	23.22
538.92	23.67
539.264	24.08
539.608	24.51
539.951	24.91
540.295	25.28
540.639	25.63
540.983	25.98
541.327	26.29
541.671	26.65
542.014	26.94
542.358	27.28
542.701	27.6
543.045	27.93
543.389	28.25
543.732	28.57
544.075	28.9
544.419	29.24
544.762	29.54
545.105	29.88
545.449	30.25
545.792	30.64
546.135	31.02
546.478	31.43
546.821	31.82
547.165	32.26
547.508	32.7
547.851	33.09
548.194	33.49
548.536	33.93
548.879	34.34
549.222	34.74
549.565	35.15
549.908	35.56
550.25	35.93
550.593	36.3
550.936	36.67
551.278	37.05
551.621	37.44
551.963	37.87
552.306	38.2
552.648	38.57
552.991	38.96
553.333	39.32
553.675	39.68
554.017	40
554.36	40.24
554.702	40.51
555.044	40.88
555.386	41.18
555.728	41.49
556.07	41.82
556.412	42.12
556.754	42.42
557.096	42.73
557.438	43.08
557.78	43.35
558.121	43.72
558.463	44.05
558.805	44.35
559.147	44.55
559.488	44.84
559.83	45.12
560.171	45.34
560.513	45.61
560.854	45.8
561.196	46.07
561.537	46.4
561.878	46.67
562.22	46.9
562.561	47.14
562.902	47.31
563.243	47.49
563.584	47.75
563.925	47.97
564.266	48.16
564.607	48.35
564.948	48.61
565.289	48.77
565.63	48.93
565.971	49.12
566.312	49.33
566.653	49.54
566.993	49.69
567.334	49.9
567.675	50.08
568.015	50.31
568.356	50.47
568.696	50.57
569.037	50.74
569.377	50.87
569.718	51.04
570.058	51.28
570.398	51.46
570.739	51.6
571.079	51.73
571.419	51.93
571.759	52.06
572.099	52.19
572.439	52.3
572.779	52.45
573.119	52.53
573.459	52.63
573.799	52.74
574.139	52.89
574.479	52.93
574.819	52.97
575.158	53.03
575.498	53.11
575.838	53.25
576.177	53.36
576.517	53.46
576.856	53.56
577.196	53.64
577.535	53.68
577.875	53.8
578.214	53.89
578.553	54.02
578.893	54.05
579.232	54.2
579.571	54.35
579.91	54.43
580.25	54.59
580.589	54.83
580.928	54.97
581.267	55.02
581.606	55.16
581.945	55.39
582.283	55.54
582.622	55.72
582.961	55.85
583.3	55.93
583.639	56.09
583.977	56.15
584.316	56.16
584.654	56.31
584.993	56.37
585.332	56.47
585.67	56.5
586.008	56.67
586.347	56.7
586.685	56.7
587.024	56.84
587.362	56.89
587.7	56.86
588.038	56.89
588.376	56.95
588.715	57.06
589.053	57.04
589.391	57.13
589.729	57.13
590.067	57.14
590.404	57.15
590.742	57.23
591.08	57.29
591.418	57.42
591.756	57.45
592.093	57.55
592.431	57.59
592.769	57.64
593.106	57.72
593.444	57.7
593.781	57.78
594.119	57.79
594.456	57.75
594.793	57.78
595.131	57.79
595.468	57.84
595.805	57.81
596.143	57.92
596.48	57.9
596.817	57.99
597.154	58.05
597.491	58.17
597.828	58.12
598.165	58.18
598.502	58.18
598.839	58.24
599.176	58.24
599.512	58.3
599.849	58.36
600.186	58.42
600.523	58.45
600.859	58.49
601.196	58.56
601.532	58.72
601.869	58.87
602.205	59.01
602.542	59.05
602.878	59.15
603.215	59.18
603.551	59.25
603.887	59.32
604.223	59.36
604.56	59.3
604.896	59.36
605.232	59.46
605.568	59.55
605.904	59.54
606.24	59.6
606.576	59.59
606.912	59.64
607.248	59.76
607.583	59.77
607.919	59.85
608.255	59.88
608.591	59.85
608.926	59.82
609.262	59.83
609.597	59.84
609.933	59.88
610.268	59.9
610.604	59.87
610.939	59.85
611.275	59.88
611.61	59.96
611.945	60.08
612.281	60.05
612.616	60.03
612.951	60.17
613.286	60.19
613.621	60.29
613.956	60.26
614.291	60.16
614.626	60.36
614.961	60.34
615.296	60.45
615.631	60.53
615.966	60.68
616.3	60.72
616.635	60.84
616.97	60.91
617.304	60.88
617.639	61.06
617.973	61.1
618.308	61.12
618.642	61.11
618.977	61.02
619.311	61.03
619.646	61.05
619.98	60.97
620.314	61.03
620.648	61.09
620.983	61.2
621.317	61.18
621.651	61.06
621.985	61.17
622.319	61.13
622.653	61.05
622.987	60.88
623.321	60.81
623.655	60.85
623.988	60.83
624.322	60.86
624.656	60.83
624.99	60.79
625.323	60.89
625.657	61
625.99	61.05
626.324	61.12
626.657	61.12
626.991	61.24
627.324	61.26
627.658	61.32
627.991	61.34
628.324	61.4
628.657	61.41
628.991	61.4
629.324	61.34
629.657	61.53
629.99	61.62
630.323	61.69
630.656	61.7
630.989	61.73
631.322	61.75
631.655	61.76
631.987	61.82
632.32	61.75
632.653	61.63
632.986	61.62
633.318	61.61
633.651	61.61
633.984	61.67
634.316	61.77
634.649	61.71
634.981	61.79
635.313	61.84
635.646	61.94
635.978	62.03
636.31	62.14
636.643	62.1
636.975	62.12
637.307	62.16
637.639	62.14
637.971	62.2
638.303	62.26
638.635	62.29
638.967	62.24
639.299	62.27
639.631	62.38
639.963	62.41
640.295	62.34
640.626	62.43
640.958	62.39
641.29	62.29
641.621	62.28
641.953	62.23
642.285	62.17
642.616	62.25
642.948	62.13
643.279	62.17
643.61	62.11
643.942	62.12
644.273	62.12
644.604	62.11
644.936	62.08
645.267	62.1
645.598	62.02
645.929	62.14
646.26	62.18
646.591	62.27
646.922	62.44
647.253	62.56
647.584	62.57
647.915	62.51
648.245	62.48
648.576	62.62
648.907	62.61
649.238	62.61
649.568	62.54
649.899	62.52
650.229	62.56
650.56	62.72
650.89	62.8
651.221	62.82
651.551	62.79
651.882	62.8
652.212	62.79
652.542	62.86
652.872	62.82
653.203	62.91
653.533	62.89
653.863	62.91
654.193	62.9
654.523	62.94
654.853	63.12
655.183	63.22
655.513	63.2
655.843	63.31
656.172	63.46
656.502	63.53
656.832	63.67
657.162	63.7
657.491	63.67
657.821	63.74
658.15	63.75
658.48	63.8
658.809	63.74
659.139	63.8
659.468	63.87
659.798	63.92
660.127	63.9
660.456	63.95
660.785	63.99
661.115	64.01
661.444	64.13
661.773	64
662.102	63.94
662.431	63.8
662.76	63.8
663.089	63.79
663.418	63.77
663.747	63.78
664.076	63.7
664.404	63.72
664.733	63.68
665.062	63.64
665.39	63.74
665.719	63.85
666.048	63.79
666.376	63.71
666.705	63.67
667.033	63.52
667.362	63.42
667.69	63.17
668.018	63.25
668.347	63.14
668.675	63.23
669.003	63.22
669.331	63.38
669.659	63.26
669.987	63.23
670.315	63.2
670.643	63.05
670.971	63.07
671.299	63.05
671.627	62.95
671.955	63.17
672.283	63.01
672.61	63.04
672.938	63.11
673.266	63.17
673.593	63.2
673.921	63.32
674.249	63.38
674.576	63.54
674.904	63.65
675.231	63.77
675.558	63.8
675.886	63.84
676.213	63.87
676.54	64.06
676.867	63.95
677.195	64.1
677.522	64.19
677.849	64.26
678.176	64.2
678.503	64.33
678.83	64.29
679.157	64.34
679.484	64.32
679.81	64.4
680.137	64.47
680.464	64.54
680.791	64.58
681.117	64.58
681.444	64.69
681.771	64.6
682.097	64.5
682.424	64.44
682.75	64.56
683.077	64.69
683.403	64.74
683.729	64.83
684.056	64.76
684.382	64.88
684.708	64.94
685.034	65
685.36	65.11
685.686	65.14
686.012	65.11
686.339	65.24
686.664	65.26
686.99	65.21
687.316	65.08
687.642	65.21
687.968	65.34
688.294	65.18
688.619	65.22
688.945	65.17
689.271	65.23
689.596	65.18
689.922	65.07
690.247	64.93
690.573	64.98
690.898	65.05
691.224	64.92
691.549	64.92
691.874	64.93
692.2	64.85
692.525	64.75
692.85	64.98
693.175	64.84
693.5	64.76
693.825	64.88
694.15	65.12
694.475	65.17
694.8	65.19
695.125	65.34
695.45	65.33
695.775	65.56
696.099	65.46
696.424	65.49
696.749	65.45
697.073	65.48
697.398	65.4
697.723	65.27
698.047	65.47
698.372	65.39
698.696	65.4
699.02	65.42
699.345	65.37
699.669	65.29
699.993	65.35
700.318	65.44
700.642	65.34
700.966	65.32
701.29	65.26
701.614	65.19
701.938	65.02
702.262	64.94
702.586	64.81
702.91	64.81
703.234	64.91
703.557	64.93
703.881	64.98
704.205	65.15
704.529	65.3
704.852	65.26
705.176	65.51
705.499	65.57
705.823	65.47
706.146	65.64
706.47	65.85
706.793	65.93
707.117	65.86
707.44	65.97
707.763	65.98
708.086	65.83
708.409	65.78
708.733	65.82
709.056	65.87
709.379	65.8
709.702	65.76
710.025	65.7
710.348	65.85
710.671	65.85
710.993	65.89
711.316	65.89
711.639	65.93
711.962	65.8
712.284	65.57
712.607	65.61
712.93	65.48
713.252	65.33
713.575	65.22
713.897	65.26
714.22	65.17
714.542	65.19
714.864	65.09
715.187	65.2
715.509	65.36
715.831	65.53
716.153	65.81
716.475	65.91
716.798	65.93
717.12	65.84
717.442	65.75
717.764	65.6
718.085	65.66
718.407	65.48
718.729	65.4
719.051	65.58
719.373	65.57
719.695	65.44
720.016	65.37
720.338	65.58
720.659	65.61
720.981	65.53
721.302	65.5
721.624	65.67
721.945	65.54
722.267	65.58
722.588	65.57
722.909	65.42
723.231	65.44
723.552	65.36
723.873	65.35
724.194	65.49
724.515	65.65
724.836	65.46
725.157	65.57
725.478	65.25
725.799	65.08
726.12	64.93
726.441	64.96
726.762	64.98
727.083	65.03
727.403	64.93
727.724	65.14
728.045	65.38
728.365	65.4
728.686	65.45
729.006	65.41
729.327	65.38
729.647	65.22
729.967	65.29
730.288	65.13
730.608	65.13
730.928	65.11
731.249	64.95
731.569	65.1
731.889	65.35
732.209	65.64
732.529	65.9
732.849	66.2
733.169	66.45
733.489	66.59
733.809	66.43
734.129	66.38
734.448	66.36
734.768	66
735.088	66.1
735.408	65.98
735.727	65.94
736.047	65.77
736.366	65.75
736.686	65.56
737.005	65.55
737.325	65.37
737.644	65.29
737.963	65.37
738.283	65.49
738.602	65.2
738.921	65.28
739.24	65.28
739.56	65.17
739.879	65.32
740.198	65.31
740.517	65.37
740.836	65.27
741.155	65.14
741.473	65.36
741.792	65.26
742.111	65.55
742.43	65.41
742.748	65.49
743.067	65.75
743.386	66.01
743.704	66.3
744.023	66.5
744.341	66.62
744.66	66.55
744.978	66.49
745.297	66.47
745.615	66.48
745.933	66.49
746.252	66.52
746.57	66.08
746.888	66.19
747.206	65.96
747.524	65.97
747.842	66.22
748.16	66.34
748.478	66.49
748.796	66.52
749.114	66.91
749.432	66.91
749.749	66.75
750.067	66.51
750.385	66.28
750.703	66.41
751.02	66.27
751.338	66.41
751.655	66.61
751.973	66.58
752.29	66.56
752.608	66.43
752.925	66.46
753.242	66.47
753.56	66.23
753.877	66.18
754.194	66.48
754.511	66.13
754.828	65.95
755.145	65.7
755.462	65.52
755.779	65.28
756.096	65.54
756.413	65.31
756.73	65.57
757.047	65.74
757.364	65.51
757.68	65.37
757.997	65.17
758.314	64.68
758.63	64.9
758.947	65.05
759.264	65.2
759.58	65.17
759.896	65.3
760.213	65.44
760.529	65.61
760.846	65.51
761.162	65.59
761.478	65.63
761.794	65.93
762.11	65.96
762.426	66.2
762.743	66.09
763.059	66.31
763.375	66.42
763.69	66.49
764.006	66.57
764.322	66.78
764.638	67.01
764.954	67.25
765.27	66.99
765.585	66.68
765.901	66.8
766.216	66.89
766.532	66.84
766.848	66.81
767.163	67.05
767.478	67.28
767.794	67.49
768.109	67.33
768.424	67.24
768.74	67.34
769.055	67.16
769.37	67.04
769.685	66.85
770	66.76
770.315	66.81
770.63	66.61
770.945	66.08
771.26	65.9
771.575	66.03
771.89	66.28
772.205	66.82
772.52	66.58
772.834	66.45
773.149	66.61
773.464	66.73
773.778	66.66
774.093	66.34
774.407	66.19
774.722	66.14
775.036	66.35
775.351	66.2
775.665	66.23
775.979	66.2
776.293	66.77
776.608	66.77
776.922	66.5
777.236	66.19
777.55	66.83
777.864	66.98
778.178	66.82
778.492	66.92
778.806	66.49
779.12	66.63
779.434	66.48
779.747	66.75
780.061	66.45
780.375	66.24
780.689	66.31
781.002	66.55
781.316	67.14
781.629	66.47
781.943	66.56
782.256	66.47
782.57	66.58
782.883	66.3
783.196	66.14
783.51	66.27
783.823	66.86
784.136	67.31
784.449	66.85
784.762	66.7
785.075	66.14
785.388	66.5
785.701	66.52
786.014	66.75
786.327	66.88
786.64	67.38
786.953	67.5
787.266	67.55
787.578	67.01
787.891	66.85
788.204	67.14
788.516	67.04
788.829	66.86
789.141	67
789.454	67.13
789.766	67.56
790.079	67.81
790.391	67.54
790.703	66.94
791.016	67.22
791.328	67.18
791.64	68.01
791.952	67.8
792.264	67.78
792.576	67.67
792.888	67.9
793.2	67.91
793.512	67.82
793.824	67.87
794.136	68.04
794.448	67.84
794.76	68.63
795.071	69.09
795.383	68.92
795.695	68.65
796.006	67.95
796.318	68.07
796.629	68.01
796.941	68.69
797.252	69.05
797.564	69.42
797.875	69.54
798.186	69.02
798.497	69.16
798.809	68.9
799.12	68.82
799.431	68.6
799.742	68.46
800.053	69.01
800.364	69.37
800.675	69.92
800.986	70.1
801.297	69.29
801.608	68.66
801.918	69.06
802.229	69.34
802.54	70.08
802.851	70.11
803.161	69.94
803.472	69.83
803.782	69.67
804.093	69.46
804.403	68.98
804.714	68.66
805.024	68.87
805.334	69.27
805.645	69.32
805.955	68.98
806.265	68.48
806.575	67.66
806.885	67.56
807.195	67.5
807.505	67.31
807.815	67.68
808.125	68.21
808.435	68.21
808.745	67.62
809.055	67.68
809.365	66.94
809.674	67.15
809.984	66.49
810.294	66.05
810.603	66.28
810.913	66.57
811.222	66.7
811.532	66.42
811.841	66.14
812.151	66.03
812.46	65.73
812.769	66.22
813.079	66.02
813.388	65.99
813.697	65.72
814.006	66.49
814.315	65.61
814.624	65.59
814.933	65.34
815.242	66.06
815.551	66.15
815.86	67.21
816.169	66.7
816.478	66.8
816.786	66.78
817.095	66.75
817.404	66.96
817.712	67.52
818.021	67.8
818.33	68.67
818.638	68.36
818.947	68.5
819.255	68.29
819.563	68.78
819.872	68.47
820.18	68.04
820.488	67.38
820.796	67.64
821.105	67.63
821.413	67.79
821.721	67.85
822.029	67.93
822.337	68.04
822.645	68.08
822.953	68.02
823.26	67.91
823.568	67.93
823.876	67.94
824.184	67.93
824.491	67.87
824.799	67.77
825.107	67.94
825.414	67.82
825.722	67.78
826.029	67.69
826.337	67.57
826.644	67.75
826.951	67.88
827.259	67.93
827.566	67.99
827.873	67.79
828.18	67.53
828.488	67.31
828.795	66.72
829.102	66.71
829.409	66.99
829.716	67.47
830.023	67.28
830.329	67.08
830.636	66.7
830.943	66.75
831.25	66.56
831.557	66.22
831.863	66.56
832.17	66.96
832.476	66.9
832.783	66.99
833.089	67.1
833.396	67.41
833.702	67.12
834.009	66.76
834.315	67.57
834.621	68.08
834.928	68
835.234	68.01
835.54	67.71
835.846	67.38
836.152	66.81
836.458	66.39
836.764	66.67
837.07	66.84
837.376	67.19
837.682	66.34
837.988	66.97
838.293	66.57
838.599	66.52
838.905	66.27
839.211	66.41
839.516	66.21
839.822	66.25
840.127	66.84
840.433	67.45
840.738	66.11
841.044	65.31
841.349	65.38
841.654	65.45
841.959	66.73
842.265	67.49
842.57	66.99
842.875	67.9
843.18	67.53
843.485	67.28
843.79	65.44
844.095	66.58
844.4	67.5
844.705	67.57
845.01	66.57
845.315	67.08
845.619	67.43
845.924	66.46
846.229	65.8
846.533	64.15
846.838	64.42
847.142	66.22
847.447	67.17
847.751	66.64
848.056	66.98
848.36	67.14
848.664	66.16
848.969	69.15
849.273	69.45
849.577	68.42
849.881	70.5
850.185	71.54
850.489	72.18
850.794	68.01
851.097	67.53
851.401	67.37
851.705	65.65
852.009	65.49
852.313	66.02
852.617	64.62
852.92	65.87
853.224	66.46
853.528	64.69
853.831	65.03
854.135	65.04
854.438	62.47
854.742	62.09
855.045	62.21
855.349	57.78
855.652	57.98
855.955	58.7
856.259	57.76
856.562	57.68
856.865	56.1
857.168	56.08
857.471	57.07
857.774	57.89
858.077	59.34
858.38	60.77
858.683	61.38
858.986	62.71
859.289	61.66
859.592	60.62
859.894	61.59
860.197	60.99
860.5	62.14
860.802	64.63
861.105	62.54
861.407	62.63
861.71	65.95
862.012	64.97
862.315	66.02
862.617	64.58
862.919	63.66
863.222	63.51
863.524	66.92
863.826	68.71
864.128	68.49
864.43	69.19
864.732	68.4
865.034	68.68
865.336	66.27
865.638	65.49
865.94	63.82
866.242	63.03
866.544	60.86
866.846	59.78
867.147	58.38
867.449	58.98
867.751	58.21
868.052	60.81
868.354	60.49
868.655	60.14
868.957	59.12
869.258	59.8
869.56	61.33
869.861	56.35
870.162	54.99
870.463	55.68
870.765	55.16
871.066	53.45
871.367	54.65
871.668	56.39
871.969	57.4
872.27	58
872.571	57.18
872.872	58.89
873.173	58.88
873.473	60.39
873.774	62.67
874.075	64.49
874.376	60.38
874.676	60.44
874.977	59.99
875.277	62.14
875.578	63.31
875.878	63.25
876.179	66.35
876.479	66.03
876.78	64.49
877.08	64.66
877.38	66.23
877.68	63.17
877.981	63.47
878.281	64.12
878.581	63.96
