Data from BA56814_Reflection_00012.txt Node
Date: Mon Nov 18 15:40:43 EST 2019
User: vgr7
Spectrometer: USB2G7710
Scans to average: 3
Trigger mode: 4
Integration Time (sec): 2.000000E-2
Electric dark correction enabled: true
Boxcar width: 10
XAxis mode: Wavelengths
Number of Pixels in Spectrum: 2048
>>>>>Begin Spectral Data<<<<<
177.721	83.99
178.105	27.61
178.488	32.69
178.871	5.77
179.254	45.72
179.636	-131.28
180.019	4.27
180.402	10.34
180.785	-220.39
181.168	71.48
181.55	11.53
181.933	72.94
182.316	106.14
182.698	98.14
183.081	113.88
183.463	165.05
183.846	214.7
184.228	169.45
184.611	111.14
184.993	221.9
185.376	144.72
185.758	199.92
186.14	126.72
186.522	101.56
186.904	79.79
187.287	117.42
187.669	108.33
188.051	83.84
188.433	105.24
188.815	116.42
189.197	73.45
189.579	77.47
189.961	132.8
190.342	87.6
190.724	91.94
191.106	67.71
191.488	58.46
191.869	29.43
192.251	45.37
192.633	47.58
193.014	41.89
193.396	105.26
193.777	177.96
194.159	241.98
194.54	746.64
194.922	3001.64
195.303	417.22
195.684	1173.39
196.065	-118.01
196.447	-69.26
196.828	-546.3
197.209	-330.13
197.59	-174.4
197.971	-148.34
198.352	-113.6
198.733	-92.38
199.114	-77.48
199.495	-67.56
199.876	-91.24
200.257	-85.07
200.638	-83.21
201.018	-99.87
201.399	-130.13
201.78	-167.64
202.16	-256.5
202.541	-311.96
202.922	-362.51
203.302	-329.72
203.683	-395.92
204.063	-1178.98
204.444	-1833.69
204.824	-626.67
205.204	-579.67
205.585	-597.49
205.965	-544.24
206.345	-731.93
206.725	-1254.64
207.106	-3838.55
207.486	1103.26
207.866	-25856.52
208.246	-888.68
208.626	-950.67
209.006	-673.26
209.386	-562.88
209.766	-404.46
210.145	-457.39
210.525	-304.59
210.905	-235.79
211.285	-242.2
211.664	-144
212.044	-117.2
212.424	-108.93
212.803	-107.03
213.183	-81.28
213.562	-73.38
213.942	-74.5
214.321	-64.55
214.701	-75.3
215.08	-64.11
215.459	-60.28
215.838	-78.04
216.218	-83.06
216.597	-68.03
216.976	-70.93
217.355	-57.78
217.734	-55.18
218.113	-56.84
218.492	-56.88
218.871	-67.5
219.25	-81.8
219.629	-89.14
220.008	-108.32
220.387	-105.76
220.766	-127.34
221.144	-182.07
221.523	-255.57
221.902	-242.89
222.28	-212.97
222.659	-193.06
223.037	-198.71
223.416	-171.35
223.794	-152.59
224.173	-112.71
224.551	-98.87
224.929	-76.54
225.308	-61.85
225.686	-56.81
226.064	-43.02
226.442	-37.44
226.821	-32.68
227.199	-23.8
227.577	-22.2
227.955	-19
228.333	-15.06
228.711	-9.3
229.089	-6.65
229.467	-6.49
229.845	-6.19
230.222	-4
230.6	-3.88
230.978	-0.9
231.356	-0.26
231.733	1.51
232.111	2.31
232.488	2.81
232.866	2
233.243	0.88
233.621	1.28
233.998	0.76
234.376	0.78
234.753	1.49
235.13	2.08
235.508	3.17
235.885	3.33
236.262	2.64
236.639	1.17
237.016	1.46
237.393	3.37
237.77	4.58
238.147	4.25
238.524	3.29
238.901	2.87
239.278	2.74
239.655	2.42
240.032	1.78
240.409	1.64
240.785	1.62
241.162	2.3
241.539	2.23
241.915	2.69
242.292	2.41
242.668	2.7
243.045	2.86
243.421	2.47
243.798	2.42
244.174	2.65
244.551	3.01
244.927	3
245.303	3
245.679	3
246.056	3.02
246.432	3.1
246.808	3.21
247.184	3.04
247.56	2.95
247.936	2.99
248.312	3
248.688	3.12
249.064	2.81
249.44	2.73
249.815	2.51
250.191	2.54
250.567	2.34
250.943	2.04
251.318	2.27
251.694	2.39
252.069	2.18
252.445	2.14
252.82	1.98
253.196	1.77
253.571	1.58
253.947	1.46
254.322	1.65
254.697	1.47
255.073	1.49
255.448	1.57
255.823	1.72
256.198	1.8
256.573	1.99
256.948	2.31
257.323	2.66
257.698	3.05
258.073	3.14
258.448	3.18
258.823	3.45
259.198	3.3
259.573	3.23
259.948	3.23
260.322	3.18
260.697	3.35
261.072	3.39
261.446	3.42
261.821	3.39
262.195	3.38
262.57	3.42
262.944	3.52
263.319	3.71
263.693	3.66
264.067	3.77
264.442	3.75
264.816	3.77
265.19	3.88
265.564	3.78
265.938	3.73
266.313	3.79
266.687	3.81
267.061	3.99
267.435	4.03
267.809	4.15
268.183	4.11
268.556	3.9
268.93	4.06
269.304	4.11
269.678	4.15
270.051	4.14
270.425	4.06
270.799	4.1
271.172	4.07
271.546	4.16
271.919	4.04
272.293	3.91
272.666	3.94
273.04	3.81
273.413	3.68
273.787	3.73
274.16	3.6
274.533	3.4
274.906	3.24
275.279	3.21
275.653	3.13
276.026	3.03
276.399	3.07
276.772	2.97
277.145	2.73
277.518	2.83
277.891	2.76
278.263	2.85
278.636	2.74
279.009	2.63
279.382	2.82
279.755	2.81
280.127	3.02
280.5	2.96
280.872	3.02
281.245	3.13
281.617	3.25
281.99	3.5
282.362	3.62
282.735	3.5
283.107	3.49
283.479	3.53
283.852	3.45
284.224	3.48
284.596	3.43
284.968	3.53
285.34	3.6
285.713	3.61
286.085	3.61
286.457	3.78
286.829	3.75
287.201	3.55
287.572	3.59
287.944	3.51
288.316	3.54
288.688	3.45
289.06	3.38
289.431	3.36
289.803	3.27
290.175	3.36
290.546	3.5
290.918	3.56
291.289	3.54
291.661	3.79
292.032	3.87
292.403	3.96
292.775	4.02
293.146	3.83
293.517	3.89
293.889	3.95
294.26	3.83
294.631	3.89
295.002	3.86
295.373	3.89
295.744	3.95
296.115	4.06
296.486	3.94
296.857	3.96
297.228	3.97
297.599	3.89
297.97	3.95
298.34	4
298.711	4.03
299.082	4.02
299.452	3.97
299.823	3.94
300.194	3.97
300.564	3.94
300.935	4.12
301.305	4.12
301.676	4.18
302.046	4.29
302.416	4.36
302.787	4.49
303.157	4.48
303.527	4.41
303.897	4.35
304.267	4.63
304.637	4.8
305.008	4.86
305.378	5.11
305.748	5.08
306.117	5.04
306.487	5.09
306.857	5.28
307.227	5.35
307.597	5.29
307.967	5.13
308.336	5.2
308.706	5.1
309.076	5.04
309.445	4.93
309.815	4.86
310.184	4.86
310.554	4.96
310.923	4.98
311.293	5.03
311.662	5.06
312.031	4.96
312.401	4.84
312.77	4.87
313.139	4.85
313.508	4.79
313.877	4.87
314.246	5.02
314.616	4.84
314.985	4.76
315.353	4.8
315.722	4.98
316.091	4.99
316.46	5.07
316.829	5.14
317.198	5.26
317.567	5.36
317.935	5.38
318.304	5.48
318.672	5.59
319.041	5.68
319.41	5.61
319.778	5.74
320.147	5.8
320.515	5.73
320.883	5.6
321.252	5.84
321.62	5.79
321.988	5.52
322.357	5.66
322.725	5.72
323.093	5.7
323.461	5.73
323.829	5.8
324.197	5.87
324.565	5.92
324.933	5.93
325.301	5.97
325.669	6
326.037	5.91
326.405	5.87
326.772	5.91
327.14	6.07
327.508	6.03
327.875	6.02
328.243	6.09
328.61	6.21
328.978	6.17
329.346	6.29
329.713	6.41
330.08	6.53
330.448	6.56
330.815	6.58
331.182	6.63
331.55	6.63
331.917	6.65
332.284	6.77
332.651	6.84
333.018	6.82
333.385	6.84
333.752	6.96
334.119	7.14
334.486	7.07
334.853	6.98
335.22	7.19
335.587	7.31
335.954	7.33
336.32	7.42
336.687	7.35
337.054	7.34
337.42	7.36
337.787	7.39
338.153	7.47
338.52	7.55
338.886	7.59
339.253	7.63
339.619	7.66
339.986	7.62
340.352	7.6
340.718	7.57
341.084	7.62
341.451	7.59
341.817	7.61
342.183	7.68
342.549	7.77
342.915	7.67
343.281	7.65
343.647	7.61
344.013	7.53
344.379	7.51
344.745	7.54
345.11	7.6
345.476	7.57
345.842	7.55
346.208	7.6
346.573	7.58
346.939	7.66
347.304	7.58
347.67	7.55
348.035	7.53
348.401	7.63
348.766	7.66
349.132	7.65
349.497	7.6
349.862	7.65
350.228	7.64
350.593	7.65
350.958	7.65
351.323	7.67
351.688	7.73
352.053	7.79
352.418	7.87
352.783	7.87
353.148	7.89
353.513	7.91
353.878	7.82
354.243	7.87
354.608	7.79
354.972	7.91
355.337	7.98
355.702	8.05
356.066	8.06
356.431	8.09
356.795	8.14
357.16	8.12
357.524	8.13
357.889	8.18
358.253	8.15
358.618	8.13
358.982	8.14
359.346	8.18
359.71	8.12
360.075	8.13
360.439	8.19
360.803	8.15
361.167	8.07
361.531	8.05
361.895	8.02
362.259	8.05
362.623	8.01
362.987	7.97
363.351	7.86
363.714	7.85
364.078	7.76
364.442	7.71
364.806	7.67
365.169	7.63
365.533	7.56
365.896	7.54
366.26	7.54
366.623	7.53
366.987	7.47
367.35	7.5
367.714	7.48
368.077	7.44
368.44	7.38
368.803	7.46
369.167	7.51
369.53	7.47
369.893	7.43
370.256	7.4
370.619	7.39
370.982	7.4
371.345	7.36
371.708	7.41
372.071	7.32
372.434	7.34
372.797	7.31
373.159	7.23
373.522	7.29
373.885	7.33
374.247	7.34
374.61	7.31
374.973	7.24
375.335	7.2
375.698	7.16
376.06	7.13
376.423	7.04
376.785	7
377.147	7.06
377.51	7.05
377.872	7.06
378.234	7.02
378.596	7.03
378.958	6.97
379.321	6.93
379.683	6.94
380.045	6.91
380.407	6.93
380.769	6.9
381.13	6.8
381.492	6.72
381.854	6.69
382.216	6.63
382.578	6.7
382.939	6.62
383.301	6.56
383.663	6.53
384.024	6.54
384.386	6.56
384.747	6.49
385.109	6.48
385.47	6.38
385.832	6.37
386.193	6.39
386.554	6.35
386.916	6.29
387.277	6.27
387.638	6.29
387.999	6.25
388.36	6.25
388.721	6.23
389.082	6.2
389.443	6.13
389.804	6.15
390.165	6.11
390.526	6.13
390.887	6.09
391.248	6.15
391.609	6.12
391.969	6.09
392.33	6.05
392.691	6.02
393.051	6.02
393.412	5.99
393.772	5.96
394.133	5.97
394.493	5.92
394.854	5.89
395.214	5.88
395.574	5.84
395.935	5.83
396.295	5.84
396.655	5.83
397.015	5.81
397.376	5.76
397.736	5.72
398.096	5.7
398.456	5.7
398.816	5.63
399.176	5.59
399.535	5.55
399.895	5.52
400.255	5.47
400.615	5.47
400.975	5.44
401.334	5.4
401.694	5.38
402.054	5.39
402.413	5.38
402.773	5.35
403.132	5.27
403.492	5.23
403.851	5.17
404.211	5.15
404.57	5.17
404.929	5.21
405.288	5.16
405.648	5.11
406.007	5.07
406.366	5.05
406.725	5.09
407.084	5.1
407.443	5.09
407.802	5.07
408.161	5.03
408.52	4.98
408.879	4.95
409.238	4.94
409.596	4.93
409.955	4.87
410.314	4.83
410.673	4.87
411.031	4.86
411.39	4.87
411.748	4.88
412.107	4.86
412.465	4.8
412.824	4.78
413.182	4.75
413.54	4.75
413.899	4.74
414.257	4.7
414.615	4.64
414.974	4.61
415.332	4.58
415.69	4.56
416.048	4.56
416.406	4.54
416.764	4.49
417.122	4.48
417.48	4.49
417.838	4.48
418.195	4.46
418.553	4.44
418.911	4.42
419.269	4.4
419.626	4.39
419.984	4.37
420.342	4.37
420.699	4.37
421.057	4.36
421.414	4.34
421.772	4.33
422.129	4.34
422.486	4.33
422.844	4.34
423.201	4.32
423.558	4.31
423.915	4.31
424.273	4.32
424.63	4.31
424.987	4.29
425.344	4.28
425.701	4.27
426.058	4.27
426.415	4.26
426.772	4.27
427.128	4.26
427.485	4.27
427.842	4.26
428.199	4.26
428.555	4.25
428.912	4.24
429.269	4.21
429.625	4.19
429.982	4.2
430.338	4.16
430.695	4.16
431.051	4.15
431.407	4.12
431.764	4.12
432.12	4.12
432.476	4.11
432.832	4.12
433.189	4.12
433.545	4.1
433.901	4.1
434.257	4.08
434.613	4.06
434.969	4.06
435.325	4.06
435.681	4.05
436.036	4.06
436.392	4.07
436.748	4.08
437.104	4.08
437.459	4.08
437.815	4.09
438.171	4.1
438.526	4.09
438.882	4.11
439.237	4.09
439.593	4.11
439.948	4.09
440.304	4.05
440.659	4.06
441.014	4.07
441.369	4.05
441.725	4.04
442.08	4.02
442.435	4.02
442.79	4.02
443.145	4.01
443.5	3.99
443.855	3.97
444.21	3.95
444.565	3.96
444.92	3.96
445.275	3.94
445.629	3.95
445.984	3.95
446.339	3.93
446.693	3.92
447.048	3.9
447.403	3.92
447.757	3.92
448.112	3.9
448.466	3.88
448.82	3.88
449.175	3.89
449.529	3.88
449.883	3.87
450.238	3.86
450.592	3.85
450.946	3.84
451.3	3.83
451.654	3.83
452.008	3.82
452.362	3.78
452.716	3.78
453.07	3.77
453.424	3.76
453.778	3.76
454.132	3.74
454.486	3.72
454.839	3.71
455.193	3.71
455.547	3.7
455.9	3.72
456.254	3.73
456.607	3.72
456.961	3.75
457.314	3.75
457.668	3.74
458.021	3.74
458.375	3.75
458.728	3.75
459.081	3.77
459.434	3.76
459.787	3.78
460.141	3.8
460.494	3.79
460.847	3.81
461.2	3.8
461.553	3.84
461.906	3.84
462.259	3.84
462.611	3.87
462.964	3.89
463.317	3.88
463.67	3.89
464.022	3.89
464.375	3.88
464.728	3.89
465.08	3.91
465.433	3.93
465.785	3.95
466.138	3.95
466.49	3.93
466.843	3.95
467.195	3.96
467.547	3.97
467.899	3.99
468.252	3.98
468.604	3.98
468.956	3.97
469.308	4
469.66	4
470.012	4
470.364	4.01
470.716	4.01
471.068	4.03
471.42	4.04
471.772	4.04
472.123	4.03
472.475	4.04
472.827	4.05
473.178	4.05
473.53	4.07
473.882	4.08
474.233	4.07
474.585	4.07
474.936	4.07
475.288	4.07
475.639	4.09
475.99	4.1
476.342	4.12
476.693	4.1
477.044	4.14
477.395	4.12
477.746	4.11
478.097	4.12
478.448	4.11
478.8	4.08
479.15	4.07
479.501	4.08
479.852	4.08
480.203	4.08
480.554	4.09
480.905	4.09
481.255	4.11
481.606	4.12
481.957	4.11
482.307	4.11
482.658	4.11
483.009	4.11
483.359	4.11
483.709	4.12
484.06	4.11
484.41	4.12
484.761	4.13
485.111	4.13
485.461	4.13
485.811	4.14
486.162	4.14
486.512	4.16
486.862	4.16
487.212	4.16
487.562	4.16
487.912	4.15
488.262	4.16
488.612	4.16
488.961	4.16
489.311	4.17
489.661	4.18
490.011	4.19
490.36	4.2
490.71	4.21
491.06	4.21
491.409	4.23
491.759	4.21
492.108	4.21
492.458	4.21
492.807	4.22
493.157	4.25
493.506	4.26
493.855	4.27
494.204	4.28
494.554	4.3
494.903	4.32
495.252	4.32
495.601	4.33
495.95	4.35
496.299	4.36
496.648	4.39
496.997	4.41
497.346	4.43
497.695	4.44
498.043	4.45
498.392	4.47
498.741	4.48
499.09	4.51
499.438	4.56
499.787	4.61
500.135	4.65
500.484	4.66
500.832	4.7
501.181	4.72
501.529	4.75
501.878	4.78
502.226	4.85
502.574	4.91
502.923	4.96
503.271	5
503.619	5.07
503.967	5.08
504.315	5.11
504.663	5.15
505.011	5.18
505.359	5.24
505.707	5.29
506.055	5.35
506.403	5.41
506.751	5.44
507.098	5.48
507.446	5.54
507.794	5.58
508.141	5.63
508.489	5.69
508.837	5.74
509.184	5.81
509.531	5.86
509.879	5.94
510.226	5.99
510.574	6.04
510.921	6.09
511.268	6.17
511.616	6.25
511.963	6.31
512.31	6.39
512.657	6.46
513.004	6.52
513.351	6.62
513.698	6.69
514.045	6.76
514.392	6.84
514.739	6.91
515.086	7.03
515.432	7.13
515.779	7.22
516.126	7.33
516.473	7.4
516.819	7.47
517.166	7.54
517.512	7.62
517.859	7.71
518.205	7.78
518.552	7.87
518.898	7.94
519.245	8.02
519.591	8.09
519.937	8.15
520.283	8.25
520.629	8.33
520.976	8.44
521.322	8.55
521.668	8.67
522.014	8.79
522.36	8.9
522.706	9
523.052	9.12
523.398	9.26
523.743	9.41
524.089	9.57
524.435	9.68
524.781	9.82
525.126	9.96
525.472	10.07
525.817	10.17
526.163	10.27
526.509	10.37
526.854	10.48
527.199	10.59
527.545	10.68
527.89	10.78
528.235	10.87
528.581	10.99
528.926	11.09
529.271	11.2
529.616	11.29
529.961	11.41
530.306	11.55
530.651	11.66
530.996	11.79
531.341	11.92
531.686	12.06
532.031	12.19
532.376	12.33
532.721	12.49
533.065	12.66
533.41	12.82
533.755	12.99
534.099	13.14
534.444	13.32
534.788	13.53
535.133	13.72
535.477	13.92
535.822	14.08
536.166	14.27
536.51	14.48
536.855	14.74
537.199	14.99
537.543	15.2
537.887	15.43
538.231	15.7
538.576	15.92
538.92	16.19
539.264	16.43
539.608	16.68
539.951	16.88
540.295	17.08
540.639	17.29
540.983	17.49
541.327	17.69
541.671	17.87
542.014	18.05
542.358	18.23
542.701	18.41
543.045	18.61
543.389	18.81
543.732	19.01
544.075	19.2
544.419	19.4
544.762	19.62
545.105	19.86
545.449	20.08
545.792	20.34
546.135	20.59
546.478	20.83
546.821	21.09
547.165	21.42
547.508	21.73
547.851	21.99
548.194	22.28
548.536	22.6
548.879	22.9
549.222	23.14
549.565	23.41
549.908	23.71
550.25	24.01
550.593	24.33
550.936	24.62
551.278	24.92
551.621	25.2
551.963	25.49
552.306	25.74
552.648	25.99
552.991	26.25
553.333	26.52
553.675	26.79
554.017	27.06
554.36	27.23
554.702	27.47
555.044	27.78
555.386	28.02
555.728	28.24
556.07	28.56
556.412	28.85
556.754	29.11
557.096	29.34
557.438	29.62
557.78	29.82
558.121	30.06
558.463	30.34
558.805	30.62
559.147	30.89
559.488	31.16
559.83	31.43
560.171	31.7
560.513	31.96
560.854	32.22
561.196	32.41
561.537	32.66
561.878	32.87
562.22	33.06
562.561	33.3
562.902	33.52
563.243	33.7
563.584	33.88
563.925	34.14
564.266	34.34
564.607	34.5
564.948	34.74
565.289	34.93
565.63	35.1
565.971	35.3
566.312	35.46
566.653	35.59
566.993	35.78
567.334	35.97
567.675	36.14
568.015	36.27
568.356	36.47
568.696	36.67
569.037	36.85
569.377	37.04
569.718	37.24
570.058	37.39
570.398	37.51
570.739	37.7
571.079	37.81
571.419	37.97
571.759	38.17
572.099	38.26
572.439	38.38
572.779	38.51
573.119	38.57
573.459	38.72
573.799	38.91
574.139	39.05
574.479	39.14
574.819	39.31
575.158	39.45
575.498	39.54
575.838	39.7
576.177	39.82
576.517	39.89
576.856	39.98
577.196	40.15
577.535	40.28
577.875	40.37
578.214	40.51
578.553	40.63
578.893	40.74
579.232	40.95
579.571	41.04
579.91	41.15
580.25	41.35
580.589	41.47
580.928	41.58
581.267	41.6
581.606	41.62
581.945	41.64
582.283	41.73
582.622	41.86
582.961	41.92
583.3	42.05
583.639	42.15
583.977	42.24
584.316	42.28
584.654	42.37
584.993	42.5
585.332	42.63
585.67	42.69
586.008	42.7
586.347	42.73
586.685	42.82
587.024	42.94
587.362	42.97
587.7	43.05
588.038	43.15
588.376	43.27
588.715	43.44
589.053	43.63
589.391	43.71
589.729	43.8
590.067	43.89
590.404	43.92
590.742	44.06
591.08	44.11
591.418	44.23
591.756	44.37
592.093	44.42
592.431	44.51
592.769	44.64
593.106	44.75
593.444	44.86
593.781	44.99
594.119	44.99
594.456	45.01
594.793	45.06
595.131	45.03
595.468	45.08
595.805	45.11
596.143	45.1
596.48	45.21
596.817	45.2
597.154	45.23
597.491	45.31
597.828	45.37
598.165	45.44
598.502	45.46
598.839	45.52
599.176	45.55
599.512	45.63
599.849	45.72
600.186	45.72
600.523	45.76
600.859	45.8
601.196	45.96
601.532	46.07
601.869	46.09
602.205	46.13
602.542	46.15
602.878	46.24
603.215	46.33
603.551	46.37
603.887	46.44
604.223	46.46
604.56	46.52
604.896	46.47
605.232	46.51
605.568	46.58
605.904	46.6
606.24	46.71
606.576	46.7
606.912	46.71
607.248	46.79
607.583	46.86
607.919	46.9
608.255	46.89
608.591	46.9
608.926	47.01
609.262	47.19
609.597	47.28
609.933	47.3
610.268	47.34
610.604	47.35
610.939	47.44
611.275	47.52
611.61	47.56
611.945	47.69
612.281	47.76
612.616	47.79
612.951	47.81
613.286	47.77
613.621	47.82
613.956	47.8
614.291	47.88
614.626	47.85
614.961	47.83
615.296	47.91
615.631	47.97
615.966	47.95
616.3	47.91
616.635	47.98
616.97	48.05
617.304	48.07
617.639	48.1
617.973	48.12
618.308	48.2
618.642	48.22
618.977	48.15
619.311	48.16
619.646	48.22
619.98	48.28
620.314	48.35
620.648	48.41
620.983	48.47
621.317	48.52
621.651	48.61
621.985	48.67
622.319	48.69
622.653	48.72
622.987	48.74
623.321	48.8
623.655	48.8
623.988	48.81
624.322	48.87
624.656	48.96
624.99	49.01
625.323	48.98
625.657	49.04
625.99	49.14
626.324	49.18
626.657	49.24
626.991	49.27
627.324	49.33
627.658	49.32
627.991	49.4
628.324	49.37
628.657	49.36
628.991	49.41
629.324	49.4
629.657	49.5
629.99	49.44
630.323	49.43
630.656	49.49
630.989	49.52
631.322	49.48
631.655	49.45
631.987	49.47
632.32	49.52
632.653	49.54
632.986	49.65
633.318	49.71
633.651	49.71
633.984	49.67
634.316	49.68
634.649	49.72
634.981	49.7
635.313	49.82
635.646	49.84
635.978	49.8
636.31	49.93
636.643	49.91
636.975	49.98
637.307	50
637.639	50
637.971	49.99
638.303	50.03
638.635	50.04
638.967	50.06
639.299	50.16
639.631	50.13
639.963	50.02
640.295	49.97
640.626	49.96
640.958	50.09
641.29	50.07
641.621	50.07
641.953	50.08
642.285	50.02
642.616	50.01
642.948	50.08
643.279	50.06
643.61	50.08
643.942	50.12
644.273	50.15
644.604	50.09
644.936	50.05
645.267	50.04
645.598	50.05
645.929	50.06
646.26	50.02
646.591	50.07
646.922	50.17
647.253	50.27
647.584	50.29
647.915	50.26
648.245	50.3
648.576	50.43
648.907	50.44
649.238	50.47
649.568	50.44
649.899	50.51
650.229	50.51
650.56	50.59
650.89	50.71
651.221	50.72
651.551	50.88
651.882	51.02
652.212	51.09
652.542	51.1
652.872	51.1
653.203	51.18
653.533	51.16
653.863	51.17
654.193	51.11
654.523	51.08
654.853	51.23
655.183	51.16
655.513	51.16
655.843	51.28
656.172	51.3
656.502	51.4
656.832	51.48
657.162	51.49
657.491	51.42
657.821	51.45
658.15	51.51
658.48	51.48
658.809	51.54
659.139	51.57
659.468	51.6
659.798	51.63
660.127	51.55
660.456	51.57
660.785	51.6
661.115	51.63
661.444	51.65
661.773	51.61
662.102	51.69
662.431	51.71
662.76	51.7
663.089	51.73
663.418	51.75
663.747	51.64
664.076	51.67
664.404	51.65
664.733	51.58
665.062	51.61
665.39	51.54
665.719	51.44
666.048	51.42
666.376	51.5
666.705	51.5
667.033	51.58
667.362	51.58
667.69	51.52
668.018	51.6
668.347	51.69
668.675	51.73
669.003	51.78
669.331	51.8
669.659	51.84
669.987	51.99
670.315	52.07
670.643	52.11
670.971	52.11
671.299	52.29
671.627	52.31
671.955	52.36
672.283	52.46
672.61	52.53
672.938	52.53
673.266	52.47
673.593	52.49
673.921	52.46
674.249	52.53
674.576	52.68
674.904	52.53
675.231	52.62
675.558	52.55
675.886	52.46
676.213	52.24
676.54	52.19
676.867	52.05
677.195	52.1
677.522	52.21
677.849	52.23
678.176	52.12
678.503	52.17
678.83	52.09
679.157	52.11
679.484	52.09
679.81	52.18
680.137	52.22
680.464	52.21
680.791	52.31
681.117	52.32
681.444	52.28
681.771	52.44
682.097	52.25
682.424	52.37
682.75	52.5
683.077	52.59
683.403	52.7
683.729	52.81
684.056	52.81
684.382	52.79
684.708	52.91
685.034	52.97
685.36	52.96
685.686	53.07
686.012	53.09
686.339	53.08
686.664	53.1
686.99	53.15
687.316	53.01
687.642	52.94
687.968	52.87
688.294	52.82
688.619	52.77
688.945	53
689.271	52.97
689.596	52.97
689.922	53.09
690.247	52.95
690.573	52.87
690.898	52.98
691.224	53.05
691.549	52.95
691.874	52.89
692.2	52.96
692.525	53.04
692.85	53.05
693.175	53.16
693.5	53.12
693.825	53.03
694.15	53.26
694.475	53.36
694.8	53.58
695.125	53.73
695.45	53.69
695.775	53.56
696.099	53.55
696.424	53.5
696.749	53.44
697.073	53.59
697.398	53.69
697.723	53.39
698.047	53.43
698.372	53.49
698.696	53.62
699.02	53.53
699.345	53.48
699.669	53.62
699.993	53.54
700.318	53.7
700.642	53.77
700.966	53.76
701.29	53.68
701.614	53.62
701.938	53.54
702.262	53.54
702.586	53.61
702.91	53.61
703.234	53.76
703.557	53.69
703.881	53.58
704.205	53.44
704.529	53.58
704.852	53.39
705.176	53.4
705.499	53.22
705.823	53.37
706.146	53.28
706.47	53.11
706.793	53.26
707.117	53.09
707.44	53.15
707.763	53.26
708.086	53.23
708.409	53.16
708.733	53.21
709.056	53.19
709.379	53.17
709.702	53.23
710.025	53.18
710.348	53.42
710.671	53.25
710.993	53.23
711.316	53.41
711.639	53.59
711.962	53.67
712.284	53.9
712.607	53.91
712.93	54
713.252	53.88
713.575	54.03
713.897	54.07
714.22	54.01
714.542	53.94
714.864	53.99
715.187	53.99
715.509	53.83
715.831	54.02
716.153	54.14
716.475	54.16
716.798	54.03
717.12	53.84
717.442	54.07
717.764	54.2
718.085	54.04
718.407	53.99
718.729	53.96
719.051	53.85
719.373	53.71
719.695	53.73
720.016	54.02
720.338	53.91
720.659	53.96
720.981	53.92
721.302	53.89
721.624	53.84
721.945	53.89
722.267	54.21
722.588	54
722.909	53.88
723.231	53.63
723.552	53.87
723.873	54.12
724.194	54.08
724.515	54.14
724.836	54.37
725.157	54.54
725.478	54.55
725.799	54.7
726.12	55.04
726.441	55.2
726.762	55
727.083	54.79
727.403	54.83
727.724	55.02
728.045	55.09
728.365	55.25
728.686	55.3
729.006	55.17
729.327	55.39
729.647	55.43
729.967	55.67
730.288	55.57
730.608	55.52
730.928	55.61
731.249	55.42
731.569	55.28
731.889	55.43
732.209	55.3
732.529	55.2
732.849	54.99
733.169	54.65
733.489	54.84
733.809	54.94
734.129	54.9
734.448	54.79
734.768	54.76
735.088	54.4
735.408	54.24
735.727	54.34
736.047	54.21
736.366	53.95
736.686	53.97
737.005	54.06
737.325	53.99
737.644	53.84
737.963	53.9
738.283	53.95
738.602	53.85
738.921	53.98
739.24	54.04
739.56	54.08
739.879	54.3
740.198	54.22
740.517	54.02
740.836	53.8
741.155	53.88
741.473	53.9
741.792	54.34
742.111	54.62
742.43	54.49
742.748	54.49
743.067	54.93
743.386	54.9
743.704	54.64
744.023	54.71
744.341	54.9
744.66	55.18
744.978	55.37
745.297	55.05
745.615	54.82
745.933	54.88
746.252	55
746.57	55.07
746.888	54.91
747.206	55.13
747.524	55.23
747.842	55.07
748.16	55.22
748.478	55.17
748.796	55.2
749.114	55.2
749.432	55.24
749.749	55.26
750.067	55.22
750.385	55.4
750.703	55.51
751.02	55.18
751.338	54.73
751.655	54.69
751.973	55.04
752.29	55.47
752.608	55.14
752.925	55.09
753.242	55.16
753.56	55.33
753.877	55.03
754.194	55.27
754.511	55.63
754.828	55.84
755.145	55.72
755.462	55.44
755.779	55.4
756.096	55.27
756.413	55.28
756.73	55.33
757.047	55.51
757.364	55.26
757.68	55.49
757.997	55.52
758.314	55.36
758.63	55.05
758.947	54.6
759.264	54.7
759.58	54.69
759.896	54.86
760.213	54.71
760.529	54.79
760.846	54.63
761.162	54.38
761.478	54.2
761.794	54.11
762.11	54.12
762.426	54.19
762.743	54.54
763.059	54.34
763.375	54.58
763.69	54.63
764.006	54.56
764.322	54.76
764.638	55.21
764.954	55.48
765.27	55.5
765.585	55.86
765.901	55.94
766.216	55.93
766.532	55.71
766.848	55.75
767.163	55.94
767.478	56.17
767.794	56.27
768.109	56.23
768.424	56.42
768.74	56.38
769.055	56.6
769.37	56.3
769.685	56.35
770	56.2
770.315	55.93
770.63	56.14
770.945	55.9
771.26	55.55
771.575	55.14
771.89	55.2
772.205	55.02
772.52	54.89
772.834	54.51
773.149	54.46
773.464	55
773.778	55.51
774.093	54.9
774.407	54.96
774.722	55.06
775.036	55.11
775.351	55.53
775.665	55.51
775.979	55.66
776.293	56.08
776.608	55.92
776.922	56.21
777.236	56.17
777.55	56.14
777.864	56.15
778.178	56.33
778.492	56.45
778.806	56.47
779.12	56.76
779.434	57.08
779.747	56.89
780.061	56.66
780.375	56.05
780.689	56.44
781.002	56.59
781.316	56.61
781.629	56.92
781.943	56.92
782.256	57.09
782.57	57.15
782.883	56.96
783.196	57.03
783.51	56.97
783.823	56.96
784.136	56.65
784.449	56.94
784.762	56.7
785.075	56.58
785.388	56.47
785.701	56.42
786.014	56.16
786.327	56.85
786.64	56.73
786.953	56.93
787.266	57.02
787.578	56.97
787.891	56.96
788.204	56.48
788.516	56.54
788.829	56.08
789.141	55.87
789.454	56.23
789.766	56.03
790.079	55.69
790.391	55.49
790.703	55.69
791.016	55.59
791.328	56.07
791.64	56.73
791.952	56.46
792.264	56.18
792.576	56.57
792.888	56.11
793.2	56.28
793.512	56.34
793.824	56.5
794.136	56.23
794.448	55.84
794.76	55.88
795.071	55.73
795.383	55.87
795.695	55.85
796.006	55.38
796.318	55.42
796.629	55.68
796.941	55.95
797.252	56.36
797.564	56.29
797.875	55.88
798.186	55.1
798.497	55.16
798.809	54.9
799.12	55.06
799.431	55.09
799.742	54.83
800.053	54.73
800.364	54.11
800.675	54.37
800.986	54.27
801.297	54.54
801.608	54.52
801.918	54.44
802.229	54.1
802.54	54.12
802.851	54
803.161	54.19
803.472	54.28
803.782	54.39
804.093	54.45
804.403	54.64
804.714	54.58
805.024	54.55
805.334	54.99
805.645	55.14
805.955	55.2
806.265	55.23
806.575	55.5
806.885	55.76
807.195	55.75
807.505	55.76
807.815	55.57
808.125	55.52
808.435	55.45
808.745	55.88
809.055	56.14
809.365	56.11
809.674	56.05
809.984	56.08
810.294	56.08
810.603	56.04
810.913	55.92
811.222	56.45
811.532	57.08
811.841	57.37
812.151	57.41
812.46	57.45
812.769	57.74
813.079	57.31
813.388	57.36
813.697	57.09
814.006	57.68
814.315	57.96
814.624	57.6
814.933	57.29
815.242	57.65
815.551	57.52
815.86	57.77
816.169	57.56
816.478	57.62
816.786	57.38
817.095	57.26
817.404	57.83
817.712	57.15
818.021	56.75
818.33	56.16
818.638	56.77
818.947	56.28
819.255	55.64
819.563	55.63
819.872	55.83
820.18	56.05
820.488	55.79
820.796	55.98
821.105	56.27
821.413	56.38
821.721	56.24
822.029	56.19
822.337	56.32
822.645	56.57
822.953	56.72
823.26	56.76
823.568	56.72
823.876	56.66
824.184	56.92
824.491	56.84
824.799	56.93
825.107	56.66
825.414	56.91
825.722	57.03
826.029	56.98
826.337	57.04
826.644	56.95
826.951	57.04
827.259	56.9
827.566	56.89
827.873	57.09
828.18	57.17
828.488	57.31
828.795	57.2
829.102	57.05
829.409	56.75
829.716	56.7
830.023	56.75
830.329	56.65
830.636	56.96
830.943	57.32
831.25	57.41
831.557	57.43
831.863	57.45
832.17	57.47
832.476	58.09
832.783	57.75
833.089	57.56
833.396	57.68
833.702	57.85
834.009	57.64
834.315	57.91
834.621	58.51
834.928	58.28
835.234	58.35
835.54	58.53
835.846	58.78
836.152	58.52
836.458	58.6
836.764	58.55
837.07	57.71
837.376	57.2
837.682	56.85
837.988	56.79
838.293	56.08
838.599	55.79
838.905	55.15
839.211	55.46
839.516	56.23
839.822	56.76
840.127	57.13
840.433	57.92
840.738	57.53
841.044	55.73
841.349	54.97
841.654	54.76
841.959	53.82
842.265	53.63
842.57	54.23
842.875	54.34
843.18	54.82
843.485	55.01
843.79	55.67
844.095	56.06
844.4	56.86
844.705	57.93
845.01	59.6
845.315	59.25
845.619	59.02
845.924	58.41
846.229	56.73
846.533	55.97
846.838	54.19
847.142	51.97
847.447	53.69
847.751	55.83
848.056	56.56
848.36	57.99
848.664	57.1
848.969	55.44
849.273	53.91
849.577	54.09
849.881	53.8
850.185	55.04
850.489	56.06
850.794	54.57
851.097	52.52
851.401	50.9
851.705	54.14
852.009	55.28
852.313	55.31
852.617	56.5
852.92	56.5
853.224	56.9
853.528	60.11
853.831	58.17
854.135	57.74
854.438	56
854.742	56.61
855.045	58.63
855.349	58.48
855.652	60.17
855.955	59.03
856.259	57.59
856.562	55.48
856.865	57.35
857.168	58.59
857.471	60.18
857.774	61.93
858.077	60.44
858.38	58.98
858.683	57.74
858.986	57.5
859.289	57.48
859.592	57.46
859.894	56.84
860.197	57.2
860.5	58.26
860.802	61.22
861.105	60.48
861.407	59.17
861.71	58.71
862.012	57
862.315	56.74
862.617	57.68
862.919	59.67
863.222	59.45
863.524	58.45
863.826	59.17
864.128	58.83
864.43	58.34
864.732	60.35
865.034	61.79
865.336	62.7
865.638	61.29
865.94	63.33
866.242	63.14
866.544	65.37
866.846	59.88
867.147	59.97
867.449	60.78
867.751	59.32
868.052	59.53
868.354	58.51
868.655	59.05
868.957	57.9
869.258	54.98
869.56	52.82
869.861	54.23
870.162	53.37
870.463	53.45
870.765	55.3
871.066	55.77
871.367	56.06
871.668	55.58
871.969	56.25
872.27	53.64
872.571	54.04
872.872	53.82
873.173	53.94
873.473	52.01
873.774	48.17
874.075	49.54
874.376	52.22
874.676	56.52
874.977	54.83
875.277	58.66
875.578	60.59
875.878	60.42
876.179	59.48
876.479	60.26
876.78	59.48
877.08	57.35
877.38	54.91
877.68	54.19
877.981	53.94
878.281	54.14
878.581	55.83
