Data from BA56830_Reflection_00003.txt Node
Date: Mon Nov 18 16:03:48 EST 2019
User: vgr7
Spectrometer: USB2G7710
Scans to average: 3
Trigger mode: 4
Integration Time (sec): 2.000000E-2
Electric dark correction enabled: true
Boxcar width: 10
XAxis mode: Wavelengths
Number of Pixels in Spectrum: 2048
>>>>>Begin Spectral Data<<<<<
177.721	67.74
178.105	394.12
178.488	164.68
178.871	197.56
179.254	254.47
179.636	70.59
180.019	-12900
180.402	105.26
180.785	-34.33
181.168	-40.35
181.55	-16.81
181.933	46.6
182.316	48.02
182.698	48.04
183.081	38.55
183.463	15.82
183.846	33.69
184.228	14.55
184.611	5.26
184.993	-172.73
185.376	563.41
185.758	170.06
186.14	677.24
186.522	285.67
186.904	727.91
187.287	1264.38
187.669	-343.61
188.051	629.41
188.433	-36900
188.815	-165.7
189.197	-102.4
189.579	-75.16
189.961	-72.8
190.342	-37.25
190.724	-18.57
191.106	-31.67
191.488	-42.86
191.869	-36.2
192.251	-90.23
192.633	-126.46
193.014	-108.02
193.396	-147.81
193.777	-103.93
194.159	-80.72
194.54	4.54
194.922	28.02
195.303	-12.38
195.684	-27.16
196.065	-15.28
196.447	-20.43
196.828	-38.5
197.209	-51.52
197.59	-45.69
197.971	-46.67
198.352	-41.98
198.733	-53.76
199.114	-57.1
199.495	-43.09
199.876	-30.43
200.257	-30.07
200.638	-39.03
201.018	-61.35
201.399	-55.91
201.78	-50.79
202.16	-66.79
202.541	-114.9
202.922	-151.7
203.302	-142.52
203.683	-145.53
204.063	-223.72
204.444	-226.01
204.824	-171.91
205.204	-147.49
205.585	-127.96
205.965	-126.34
206.345	-168.67
206.725	-191
207.106	-183.64
207.486	-253.61
207.866	-217.38
208.246	-186.09
208.626	-197.76
209.006	-128.46
209.386	-153.81
209.766	-194.89
210.145	-160.91
210.525	-120.19
210.905	-145.21
211.285	-133.78
211.664	-119.95
212.044	-118.41
212.424	-94.7
212.803	-103.38
213.183	-91.99
213.562	-113.44
213.942	-115.06
214.321	-93.77
214.701	-85.06
215.08	-93.52
215.459	-85.34
215.838	-113.88
216.218	-124.38
216.597	-105.67
216.976	-112.78
217.355	-103.27
217.734	-80.51
218.113	-74.62
218.492	-80.01
218.871	-69.11
219.25	-62.93
219.629	-67.45
220.008	-66.58
220.387	-69.54
220.766	-58.88
221.144	-73.8
221.523	-73
221.902	-75.82
222.28	-80.38
222.659	-73.09
223.037	-60.02
223.416	-54.79
223.794	-46.93
224.173	-37.9
224.551	-35.15
224.929	-42.57
225.308	-42.94
225.686	-34.98
226.064	-29.41
226.442	-24.86
226.821	-21.09
227.199	-19.8
227.577	-18.96
227.955	-17.08
228.333	-15.83
228.711	-14.78
229.089	-9.94
229.467	-10.6
229.845	-10.87
230.222	-8.86
230.6	-9.5
230.978	-9.68
231.356	-9.35
231.733	-10.25
232.111	-9.31
232.488	-9.35
232.866	-7.39
233.243	-4.95
233.621	-5.55
233.998	-3.9
234.376	-3.87
234.753	-2.64
235.13	-4.36
235.508	-2.84
235.885	-2.21
236.262	-3.16
236.639	-2.69
237.016	-2.68
237.393	-0.1
237.77	0.21
238.147	0.27
238.524	1.07
238.901	1.92
239.278	2.72
239.655	3.73
240.032	3.35
240.409	3.28
240.785	3.54
241.162	3.53
241.539	3.37
241.915	3.33
242.292	3.23
242.668	3.6
243.045	4.07
243.421	3.92
243.798	3.86
244.174	4.13
244.551	4.08
244.927	4.1
245.303	4.24
245.679	4.55
246.056	4.59
246.432	4.53
246.808	4.55
247.184	4.26
247.56	4.26
247.936	4.21
248.312	4.3
248.688	4.26
249.064	4.22
249.44	4.32
249.815	4.43
250.191	4.58
250.567	4.45
250.943	4.34
251.318	4.55
251.694	4.56
252.069	4.52
252.445	4.73
252.82	4.95
253.196	4.8
253.571	4.67
253.947	4.77
254.322	5.02
254.697	4.64
255.073	4.43
255.448	4.37
255.823	4.56
256.198	4.77
256.573	5.04
256.948	5.11
257.323	5.18
257.698	5.06
258.073	5.1
258.448	4.93
258.823	4.89
259.198	4.75
259.573	4.73
259.948	4.71
260.322	4.68
260.697	4.56
261.072	4.57
261.446	4.62
261.821	4.52
262.195	4.54
262.57	4.57
262.944	4.75
263.319	4.6
263.693	4.52
264.067	4.35
264.442	4.19
264.816	4.11
265.19	3.98
265.564	3.97
265.938	3.93
266.313	3.99
266.687	4.07
267.061	4.19
267.435	4.37
267.809	4.38
268.183	4.18
268.556	4.08
268.93	4.13
269.304	4.02
269.678	4.25
270.051	4
270.425	4.03
270.799	4.01
271.172	4.05
271.546	4.05
271.919	3.93
272.293	3.87
272.666	3.84
273.04	3.96
273.413	4
273.787	3.84
274.16	3.89
274.533	4.06
274.906	4.04
275.279	3.91
275.653	3.91
276.026	4.03
276.399	4.03
276.772	3.96
277.145	3.94
277.518	3.88
277.891	4.14
278.263	4.15
278.636	4.21
279.009	4.34
279.382	4.42
279.755	4.62
280.127	4.78
280.5	4.9
280.872	4.94
281.245	4.94
281.617	5.17
281.99	5.26
282.362	5.23
282.735	5.12
283.107	5.14
283.479	5.24
283.852	5.17
284.224	5.17
284.596	5.18
284.968	5.29
285.34	5.24
285.713	5.23
286.085	5.28
286.457	5.24
286.829	5.3
287.201	5.4
287.572	5.31
287.944	5.18
288.316	5.1
288.688	5.01
289.06	4.99
289.431	4.94
289.803	4.94
290.175	5.02
290.546	5.13
290.918	5.28
291.289	5.26
291.661	5.24
292.032	5.31
292.403	5.37
292.775	5.43
293.146	5.44
293.517	5.45
293.889	5.4
294.26	5.42
294.631	5.31
295.002	5.16
295.373	5.3
295.744	5.39
296.115	5.33
296.486	5.25
296.857	5.31
297.228	5.33
297.599	5.32
297.97	5.3
298.34	5.36
298.711	5.3
299.082	5.24
299.452	5.3
299.823	5.4
300.194	5.36
300.564	5.29
300.935	5.27
301.305	5.28
301.676	5.29
302.046	5.37
302.416	5.49
302.787	5.55
303.157	5.56
303.527	5.57
303.897	5.77
304.267	5.94
304.637	5.83
305.008	5.82
305.378	5.94
305.748	5.89
306.117	5.78
306.487	5.84
306.857	5.98
307.227	5.91
307.597	5.87
307.967	5.98
308.336	6.03
308.706	6.15
309.076	6.16
309.445	6.19
309.815	6.18
310.184	6.2
310.554	6.17
310.923	6.22
311.293	6.24
311.662	6.23
312.031	6.16
312.401	6.17
312.77	6.21
313.139	6.19
313.508	6.24
313.877	6.31
314.246	6.23
314.616	6.09
314.985	6.23
315.353	6.1
315.722	6.06
316.091	5.99
316.46	5.9
316.829	5.84
317.198	5.92
317.567	5.97
317.935	5.8
318.304	5.96
318.672	5.76
319.041	5.9
319.41	5.97
319.778	5.98
320.147	6.22
320.515	6.05
320.883	5.96
321.252	6.05
321.62	6.01
321.988	6.01
322.357	6.03
322.725	5.97
323.093	6.05
323.461	6.05
323.829	6.18
324.197	6.22
324.565	6.29
324.933	6.28
325.301	6.23
325.669	6.3
326.037	6.2
326.405	6.33
326.772	6.16
327.14	6.16
327.508	6.29
327.875	6.17
328.243	6.3
328.61	6.4
328.978	6.32
329.346	6.38
329.713	6.44
330.08	6.64
330.448	6.59
330.815	6.5
331.182	6.45
331.55	6.33
331.917	6.34
332.284	6.35
332.651	6.42
333.018	6.44
333.385	6.49
333.752	6.66
334.119	6.66
334.486	6.62
334.853	6.59
335.22	6.55
335.587	6.51
335.954	6.47
336.32	6.48
336.687	6.48
337.054	6.43
337.42	6.45
337.787	6.31
338.153	6.39
338.52	6.38
338.886	6.4
339.253	6.38
339.619	6.39
339.986	6.34
340.352	6.33
340.718	6.35
341.084	6.31
341.451	6.27
341.817	6.21
342.183	6.26
342.549	6.16
342.915	6.16
343.281	6.17
343.647	6.25
344.013	6.16
344.379	6.05
344.745	6.07
345.11	6.06
345.476	6.1
345.842	6.07
346.208	6.13
346.573	6.14
346.939	6.23
347.304	6.25
347.67	6.2
348.035	6.21
348.401	6.16
348.766	6.15
349.132	6.13
349.497	6.11
349.862	6.23
350.228	6.26
350.593	6.25
350.958	6.22
351.323	6.17
351.688	6.19
352.053	6.34
352.418	6.43
352.783	6.41
353.148	6.3
353.513	6.27
353.878	6.27
354.243	6.24
354.608	6.23
354.972	6.21
355.337	6.31
355.702	6.32
356.066	6.36
356.431	6.36
356.795	6.4
357.16	6.36
357.524	6.22
357.889	6.26
358.253	6.32
358.618	6.35
358.982	6.35
359.346	6.26
359.71	6.16
360.075	6.1
360.439	6.17
360.803	6.24
361.167	6.28
361.531	6.29
361.895	6.29
362.259	6.26
362.623	6.25
362.987	6.23
363.351	6.22
363.714	6.21
364.078	6.22
364.442	6.15
364.806	6.2
365.169	6.31
365.533	6.34
365.896	6.24
366.26	6.23
366.623	6.28
366.987	6.39
367.35	6.39
367.714	6.4
368.077	6.38
368.44	6.41
368.803	6.43
369.167	6.46
369.53	6.42
369.893	6.44
370.256	6.5
370.619	6.5
370.982	6.41
371.345	6.35
371.708	6.42
372.071	6.43
372.434	6.43
372.797	6.33
373.159	6.25
373.522	6.27
373.885	6.27
374.247	6.22
374.61	6.19
374.973	6.17
375.335	6.1
375.698	6.05
376.06	6
376.423	5.96
376.785	5.98
377.147	6.05
377.51	6.03
377.872	6.01
378.234	5.96
378.596	5.99
378.958	6.02
379.321	5.97
379.683	5.97
380.045	5.99
380.407	5.99
380.769	6
381.13	6.04
381.492	6.04
381.854	6.06
382.216	6.08
382.578	6.11
382.939	6.09
383.301	6.09
383.663	6.1
384.024	6.13
384.386	6.09
384.747	6.09
385.109	6.12
385.47	6.1
385.832	6.07
386.193	6.1
386.554	6.13
386.916	6.13
387.277	6.13
387.638	6.12
387.999	6.13
388.36	6.13
388.721	6.09
389.082	6.12
389.443	6.1
389.804	6.09
390.165	6.09
390.526	6.16
390.887	6.17
391.248	6.22
391.609	6.25
391.969	6.29
392.33	6.26
392.691	6.22
393.051	6.2
393.412	6.2
393.772	6.18
394.133	6.13
394.493	6.12
394.854	6.1
395.214	6.12
395.574	6.13
395.935	6.12
396.295	6.15
396.655	6.12
397.015	6.11
397.376	6.1
397.736	6.1
398.096	6.09
398.456	6.1
398.816	6.05
399.176	6.01
399.535	5.97
399.895	5.99
400.255	6
400.615	6.01
400.975	6.05
401.334	6.02
401.694	6.06
402.054	6.04
402.413	6.05
402.773	6.01
403.132	5.98
403.492	5.98
403.851	5.99
404.211	5.98
404.57	5.97
404.929	5.96
405.288	5.95
405.648	5.93
406.007	5.92
406.366	5.89
406.725	5.91
407.084	5.93
407.443	5.92
407.802	5.95
408.161	5.94
408.52	5.93
408.879	5.96
409.238	5.97
409.596	5.98
409.955	5.99
410.314	6
410.673	6.01
411.031	6.02
411.39	6.03
411.748	6.05
412.107	6.07
412.465	6.09
412.824	6.08
413.182	6.07
413.54	6.06
413.899	6.1
414.257	6.07
414.615	6.02
414.974	6.03
415.332	6.01
415.69	6.02
416.048	6.02
416.406	6
416.764	5.99
417.122	5.99
417.48	5.97
417.838	5.97
418.195	5.97
418.553	5.95
418.911	5.94
419.269	5.94
419.626	5.93
419.984	5.93
420.342	5.94
420.699	5.94
421.057	5.95
421.414	5.93
421.772	5.94
422.129	5.94
422.486	5.93
422.844	5.93
423.201	5.92
423.558	5.93
423.915	5.94
424.273	5.92
424.63	5.91
424.987	5.91
425.344	5.92
425.701	5.91
426.058	5.91
426.415	5.91
426.772	5.89
427.128	5.88
427.485	5.85
427.842	5.85
428.199	5.88
428.555	5.87
428.912	5.88
429.269	5.87
429.625	5.89
429.982	5.89
430.338	5.88
430.695	5.88
431.051	5.85
431.407	5.88
431.764	5.88
432.12	5.89
432.476	5.9
432.832	5.88
433.189	5.9
433.545	5.88
433.901	5.89
434.257	5.88
434.613	5.91
434.969	5.93
435.325	5.92
435.681	5.9
436.036	5.89
436.392	5.89
436.748	5.86
437.104	5.84
437.459	5.84
437.815	5.82
438.171	5.82
438.526	5.84
438.882	5.82
439.237	5.82
439.593	5.84
439.948	5.83
440.304	5.83
440.659	5.8
441.014	5.82
441.369	5.78
441.725	5.79
442.08	5.78
442.435	5.79
442.79	5.79
443.145	5.78
443.5	5.8
443.855	5.8
444.21	5.8
444.565	5.82
444.92	5.82
445.275	5.82
445.629	5.82
445.984	5.82
446.339	5.8
446.693	5.79
447.048	5.78
447.403	5.78
447.757	5.79
448.112	5.78
448.466	5.78
448.82	5.8
449.175	5.79
449.529	5.79
449.883	5.77
450.238	5.76
450.592	5.78
450.946	5.75
451.3	5.75
451.654	5.75
452.008	5.75
452.362	5.73
452.716	5.72
453.07	5.73
453.424	5.7
453.778	5.72
454.132	5.72
454.486	5.71
454.839	5.7
455.193	5.7
455.547	5.74
455.9	5.76
456.254	5.77
456.607	5.78
456.961	5.77
457.314	5.77
457.668	5.79
458.021	5.76
458.375	5.77
458.728	5.78
459.081	5.79
459.434	5.77
459.787	5.78
460.141	5.8
460.494	5.78
460.847	5.79
461.2	5.77
461.553	5.79
461.906	5.8
462.259	5.81
462.611	5.81
462.964	5.81
463.317	5.81
463.67	5.8
464.022	5.8
464.375	5.81
464.728	5.81
465.08	5.8
465.433	5.81
465.785	5.82
466.138	5.81
466.49	5.82
466.843	5.83
467.195	5.83
467.547	5.84
467.899	5.84
468.252	5.84
468.604	5.87
468.956	5.86
469.308	5.85
469.66	5.85
470.012	5.85
470.364	5.83
470.716	5.81
471.068	5.8
471.42	5.81
471.772	5.83
472.123	5.86
472.475	5.89
472.827	5.88
473.178	5.87
473.53	5.87
473.882	5.85
474.233	5.87
474.585	5.86
474.936	5.86
475.288	5.9
475.639	5.9
475.99	5.9
476.342	5.91
476.693	5.92
477.044	5.94
477.395	5.93
477.746	5.95
478.097	5.91
478.448	5.92
478.8	5.91
479.15	5.89
479.501	5.89
479.852	5.89
480.203	5.9
480.554	5.94
480.905	5.96
481.255	5.96
481.606	5.98
481.957	5.98
482.307	5.99
482.658	5.99
483.009	5.99
483.359	5.99
483.709	5.99
484.06	5.98
484.41	5.97
484.761	5.98
485.111	5.99
485.461	6.01
485.811	6
486.162	6.02
486.512	6.02
486.862	6.03
487.212	6.02
487.562	6.01
487.912	6
488.262	5.99
488.612	6
488.961	5.99
489.311	5.99
489.661	5.99
490.011	5.98
490.36	5.99
490.71	5.99
491.06	5.99
491.409	6
491.759	6
492.108	6
492.458	5.98
492.807	5.98
493.157	5.99
493.506	5.98
493.855	6
494.204	6
494.554	6
494.903	6.01
495.252	6.02
495.601	6.03
495.95	6.03
496.299	6.04
496.648	6.05
496.997	6.05
497.346	6.04
497.695	6.06
498.043	6.07
498.392	6.07
498.741	6.08
499.09	6.07
499.438	6.07
499.787	6.1
500.135	6.1
500.484	6.11
500.832	6.13
501.181	6.11
501.529	6.11
501.878	6.1
502.226	6.13
502.574	6.11
502.923	6.11
503.271	6.12
503.619	6.1
503.967	6.12
504.315	6.15
504.663	6.19
505.011	6.2
505.359	6.21
505.707	6.22
506.055	6.23
506.403	6.28
506.751	6.3
507.098	6.31
507.446	6.33
507.794	6.32
508.141	6.32
508.489	6.33
508.837	6.36
509.184	6.39
509.531	6.39
509.879	6.41
510.226	6.42
510.574	6.42
510.921	6.43
511.268	6.42
511.616	6.42
511.963	6.42
512.31	6.42
512.657	6.43
513.004	6.44
513.351	6.45
513.698	6.44
514.045	6.44
514.392	6.46
514.739	6.45
515.086	6.47
515.432	6.48
515.779	6.47
516.126	6.46
516.473	6.45
516.819	6.45
517.166	6.47
517.512	6.48
517.859	6.49
518.205	6.5
518.552	6.52
518.898	6.52
519.245	6.52
519.591	6.53
519.937	6.51
520.283	6.52
520.629	6.52
520.976	6.53
521.322	6.53
521.668	6.53
522.014	6.55
522.36	6.57
522.706	6.58
523.052	6.6
523.398	6.61
523.743	6.63
524.089	6.65
524.435	6.66
524.781	6.68
525.126	6.69
525.472	6.7
525.817	6.72
526.163	6.71
526.509	6.72
526.854	6.73
527.199	6.74
527.545	6.73
527.89	6.74
528.235	6.75
528.581	6.74
528.926	6.74
529.271	6.74
529.616	6.75
529.961	6.75
530.306	6.75
530.651	6.75
530.996	6.75
531.341	6.74
531.686	6.72
532.031	6.71
532.376	6.71
532.721	6.72
533.065	6.71
533.41	6.71
533.755	6.71
534.099	6.71
534.444	6.73
534.788	6.73
535.133	6.72
535.477	6.72
535.822	6.72
536.166	6.74
536.51	6.75
536.855	6.74
537.199	6.73
537.543	6.75
537.887	6.75
538.231	6.75
538.576	6.78
538.92	6.8
539.264	6.8
539.608	6.81
539.951	6.81
540.295	6.8
540.639	6.81
540.983	6.83
541.327	6.83
541.671	6.81
542.014	6.81
542.358	6.81
542.701	6.81
543.045	6.82
543.389	6.82
543.732	6.8
544.075	6.81
544.419	6.82
544.762	6.82
545.105	6.82
545.449	6.81
545.792	6.79
546.135	6.79
546.478	6.79
546.821	6.79
547.165	6.78
547.508	6.82
547.851	6.82
548.194	6.79
548.536	6.77
548.879	6.78
549.222	6.8
549.565	6.82
549.908	6.82
550.25	6.82
550.593	6.83
550.936	6.83
551.278	6.81
551.621	6.84
551.963	6.83
552.306	6.84
552.648	6.84
552.991	6.87
553.333	6.87
553.675	6.87
554.017	6.87
554.36	6.85
554.702	6.86
555.044	6.88
555.386	6.89
555.728	6.92
556.07	6.9
556.412	6.89
556.754	6.9
557.096	6.93
557.438	6.91
557.78	6.93
558.121	6.94
558.463	6.95
558.805	6.94
559.147	6.97
559.488	6.96
559.83	6.98
560.171	6.95
560.513	6.97
560.854	6.99
561.196	6.99
561.537	7.01
561.878	6.98
562.22	6.96
562.561	6.96
562.902	6.98
563.243	7
563.584	7
563.925	6.98
564.266	6.96
564.607	6.96
564.948	6.94
565.289	6.96
565.63	6.96
565.971	6.92
566.312	6.9
566.653	6.94
566.993	6.93
567.334	6.95
567.675	6.92
568.015	6.9
568.356	6.9
568.696	6.91
569.037	6.94
569.377	6.93
569.718	6.93
570.058	6.93
570.398	6.93
570.739	6.95
571.079	6.95
571.419	6.97
571.759	7
572.099	7.01
572.439	6.99
572.779	6.99
573.119	7.02
573.459	7.04
573.799	7.04
574.139	7.03
574.479	7.02
574.819	7.03
575.158	7.04
575.498	7.04
575.838	7.06
576.177	7.05
576.517	7.04
576.856	7.06
577.196	7.03
577.535	7.03
577.875	7.02
578.214	7.02
578.553	6.99
578.893	6.97
579.232	6.93
579.571	6.95
579.91	6.96
580.25	6.94
580.589	6.92
580.928	6.91
581.267	6.95
581.606	6.95
581.945	6.99
582.283	6.98
582.622	6.99
582.961	6.95
583.3	6.93
583.639	6.99
583.977	6.91
584.316	6.92
584.654	6.94
584.993	6.96
585.332	6.95
585.67	7.01
586.008	7.04
586.347	7.02
586.685	7.01
587.024	7.02
587.362	7.06
587.7	7.06
588.038	7.07
588.376	7.03
588.715	7.02
589.053	7.03
589.391	7.04
589.729	7.04
590.067	7.04
590.404	7.04
590.742	7.03
591.08	7.08
591.418	7.09
591.756	7.1
592.093	7.12
592.431	7.13
592.769	7.11
593.106	7.09
593.444	7.13
593.781	7.16
594.119	7.17
594.456	7.16
594.793	7.15
595.131	7.16
595.468	7.2
595.805	7.21
596.143	7.2
596.48	7.21
596.817	7.2
597.154	7.21
597.491	7.2
597.828	7.18
598.165	7.23
598.502	7.21
598.839	7.18
599.176	7.15
599.512	7.15
599.849	7.14
600.186	7.13
600.523	7.13
600.859	7.13
601.196	7.12
601.532	7.13
601.869	7.12
602.205	7.1
602.542	7.11
602.878	7.11
603.215	7.07
603.551	7.09
603.887	7.11
604.223	7.11
604.56	7.13
604.896	7.15
605.232	7.15
605.568	7.17
605.904	7.19
606.24	7.19
606.576	7.2
606.912	7.22
607.248	7.22
607.583	7.22
607.919	7.23
608.255	7.22
608.591	7.25
608.926	7.3
609.262	7.33
609.597	7.34
609.933	7.35
610.268	7.4
610.604	7.4
610.939	7.37
611.275	7.38
611.61	7.37
611.945	7.35
612.281	7.31
612.616	7.32
612.951	7.34
613.286	7.38
613.621	7.41
613.956	7.41
614.291	7.45
614.626	7.47
614.961	7.43
615.296	7.43
615.631	7.39
615.966	7.39
616.3	7.37
616.635	7.38
616.97	7.41
617.304	7.38
617.639	7.38
617.973	7.42
618.308	7.43
618.642	7.46
618.977	7.47
619.311	7.49
619.646	7.45
619.98	7.43
620.314	7.38
620.648	7.38
620.983	7.41
621.317	7.37
621.651	7.34
621.985	7.39
622.319	7.36
622.653	7.43
622.987	7.39
623.321	7.4
623.655	7.35
623.988	7.36
624.322	7.39
624.656	7.37
624.99	7.36
625.323	7.35
625.657	7.36
625.99	7.37
626.324	7.33
626.657	7.38
626.991	7.38
627.324	7.43
627.658	7.41
627.991	7.43
628.324	7.45
628.657	7.52
628.991	7.51
629.324	7.54
629.657	7.54
629.99	7.59
630.323	7.58
630.656	7.62
630.989	7.62
631.322	7.61
631.655	7.64
631.987	7.63
632.32	7.63
632.653	7.62
632.986	7.63
633.318	7.69
633.651	7.71
633.984	7.73
634.316	7.7
634.649	7.68
634.981	7.61
635.313	7.54
635.646	7.48
635.978	7.48
636.31	7.52
636.643	7.46
636.975	7.41
637.307	7.44
637.639	7.47
637.971	7.44
638.303	7.42
638.635	7.36
638.967	7.41
639.299	7.49
639.631	7.46
639.963	7.41
640.295	7.4
640.626	7.38
640.958	7.35
641.29	7.4
641.621	7.45
641.953	7.4
642.285	7.48
642.616	7.54
642.948	7.52
643.279	7.45
643.61	7.42
643.942	7.45
644.273	7.4
644.604	7.28
644.936	7.31
645.267	7.34
645.598	7.37
645.929	7.42
646.26	7.4
646.591	7.39
646.922	7.45
647.253	7.5
647.584	7.48
647.915	7.55
648.245	7.57
648.576	7.58
648.907	7.63
649.238	7.61
649.568	7.56
649.899	7.58
650.229	7.58
650.56	7.56
650.89	7.53
651.221	7.59
651.551	7.64
651.882	7.68
652.212	7.63
652.542	7.66
652.872	7.59
653.203	7.52
653.533	7.57
653.863	7.54
654.193	7.5
654.523	7.51
654.853	7.48
655.183	7.43
655.513	7.39
655.843	7.43
656.172	7.5
656.502	7.6
656.832	7.58
657.162	7.64
657.491	7.67
657.821	7.69
658.15	7.64
658.48	7.72
658.809	7.73
659.139	7.75
659.468	7.72
659.798	7.75
660.127	7.77
660.456	7.76
660.785	7.79
661.115	7.82
661.444	7.83
661.773	7.84
662.102	7.83
662.431	7.9
662.76	7.88
663.089	7.84
663.418	7.73
663.747	7.79
664.076	7.74
664.404	7.82
664.733	7.84
665.062	7.86
665.39	7.75
665.719	7.7
666.048	7.76
666.376	7.71
666.705	7.73
667.033	7.68
667.362	7.69
667.69	7.71
668.018	7.68
668.347	7.66
668.675	7.71
669.003	7.75
669.331	7.73
669.659	7.77
669.987	7.76
670.315	7.84
670.643	7.79
670.971	7.79
671.299	7.76
671.627	7.77
671.955	7.79
672.283	7.77
672.61	7.72
672.938	7.72
673.266	7.83
673.593	7.85
673.921	7.94
674.249	7.93
674.576	7.88
674.904	7.94
675.231	7.88
675.558	7.84
675.886	7.88
676.213	7.8
676.54	7.84
676.867	7.91
677.195	7.89
677.522	7.89
677.849	7.92
678.176	7.94
678.503	7.93
678.83	7.89
679.157	7.91
679.484	7.94
679.81	7.95
680.137	7.88
680.464	7.82
680.791	7.81
681.117	7.8
681.444	7.89
681.771	7.83
682.097	7.89
682.424	7.85
682.75	7.83
683.077	7.91
683.403	7.87
683.729	7.79
684.056	7.8
684.382	7.86
684.708	7.78
685.034	7.8
685.36	7.84
685.686	7.83
686.012	7.82
686.339	7.8
686.664	7.83
686.99	7.81
687.316	7.83
687.642	7.84
687.968	7.84
688.294	7.73
688.619	7.8
688.945	7.74
689.271	7.79
689.596	7.67
689.922	7.69
690.247	7.7
690.573	7.82
690.898	7.85
691.224	7.84
691.549	7.89
691.874	7.92
692.2	7.9
692.525	7.94
692.85	8.02
693.175	8.11
693.5	8.03
693.825	8.06
694.15	8.06
694.475	8.02
694.8	8.1
695.125	8.15
695.45	8.16
695.775	8.18
696.099	8.25
696.424	8.33
696.749	8.31
697.073	8.33
697.398	8.26
697.723	8.27
698.047	8.22
698.372	8.3
698.696	8.28
699.02	8.23
699.345	8.16
699.669	8.12
699.993	8.08
700.318	8.1
700.642	8.11
700.966	8.11
701.29	8.16
701.614	8.1
701.938	8.07
702.262	8.1
702.586	8.16
702.91	7.99
703.234	8.05
703.557	8.1
703.881	8
704.205	8.05
704.529	7.97
704.852	8.03
705.176	8.02
705.499	8.01
705.823	8.06
706.146	8.14
706.47	8.26
706.793	8.18
707.117	8.23
707.44	8.14
707.763	8.15
708.086	8.04
708.409	8.1
708.733	8.23
709.056	8.1
709.379	8.17
709.702	8.16
710.025	8.13
710.348	8.06
710.671	8.1
710.993	7.96
711.316	7.92
711.639	7.98
711.962	7.98
712.284	7.92
712.607	7.91
712.93	7.99
713.252	7.84
713.575	7.92
713.897	7.91
714.22	8.02
714.542	8.12
714.864	8.15
715.187	8.18
715.509	8.12
715.831	8.09
716.153	8.03
716.475	8.19
716.798	8.25
717.12	8.2
717.442	8.18
717.764	8.36
718.085	8.4
718.407	8.31
718.729	8.23
719.051	8.35
719.373	8.33
719.695	8.34
720.016	8.45
720.338	8.42
720.659	8.32
720.981	8.31
721.302	8.25
721.624	8.31
721.945	8.23
722.267	8.26
722.588	8.16
722.909	8.23
723.231	8.14
723.552	7.98
723.873	7.99
724.194	8.18
724.515	8.1
724.836	8.18
725.157	8.32
725.478	8.3
725.799	8.32
726.12	8.48
726.441	8.43
726.762	8.43
727.083	8.54
727.403	8.76
727.724	8.86
728.045	8.88
728.365	8.81
728.686	8.88
729.006	8.88
729.327	8.93
729.647	8.93
729.967	9
730.288	9.03
730.608	9.11
730.928	8.98
731.249	8.95
731.569	9.01
731.889	9.04
732.209	9.17
732.529	9.2
732.849	9.05
733.169	9.03
733.489	9.08
733.809	9.16
734.129	9.17
734.448	9.16
734.768	8.97
735.088	9.16
735.408	9.13
735.727	9.15
736.047	9.3
736.366	9.26
736.686	9.26
737.005	9.29
737.325	9.3
737.644	9.17
737.963	9.09
738.283	8.81
738.602	8.82
738.921	8.82
739.24	8.73
739.56	8.7
739.879	8.66
740.198	8.77
740.517	8.58
740.836	8.45
741.155	8.39
741.473	8.52
741.792	8.55
742.111	8.47
742.43	8.21
742.748	8.18
743.067	8.21
743.386	8.07
743.704	7.99
744.023	8.11
744.341	8.35
744.66	8.77
744.978	8.85
745.297	8.72
745.615	8.64
745.933	8.71
746.252	8.95
746.57	8.96
746.888	8.99
747.206	9
747.524	8.94
747.842	8.88
748.16	9.17
748.478	8.92
748.796	9.04
749.114	9.52
749.432	9.38
749.749	9.45
750.067	9.67
750.385	9.78
750.703	9.58
751.02	9.5
751.338	9.14
751.655	9.32
751.973	9.49
752.29	9.35
752.608	9.38
752.925	9.36
753.242	9.4
753.56	9.18
753.877	9.5
754.194	9.72
754.511	9.69
754.828	9.46
755.145	9.33
755.462	9.5
755.779	9.27
756.096	9.36
756.413	9.39
756.73	9.01
757.047	9.13
757.364	9.24
757.68	9.38
757.997	9.49
758.314	9.53
758.63	9.38
758.947	9.64
759.264	9.37
759.58	9.24
759.896	9.26
760.213	9.51
760.529	9.17
760.846	9.06
761.162	9.14
761.478	9.32
761.794	9.4
762.11	9.28
762.426	9.25
762.743	9.3
763.059	9.12
763.375	9.28
763.69	9.27
764.006	9.3
764.322	9.2
764.638	9.14
764.954	9.17
765.27	9.29
765.585	9.04
765.901	9.21
766.216	9.26
766.532	9.21
766.848	9.05
767.163	9.18
767.478	9.32
767.794	9.35
768.109	9.03
768.424	9.21
768.74	9.26
769.055	9.42
769.37	9.57
769.685	9.7
770	9.77
770.315	9.74
770.63	9.78
770.945	9.85
771.26	9.88
771.575	9.69
771.89	9.62
772.205	9.88
772.52	9.96
772.834	10.17
773.149	10.59
773.464	10.44
773.778	10.39
774.093	9.88
774.407	9.98
774.722	10.1
775.036	9.91
775.351	9.86
775.665	9.65
775.979	9.37
776.293	9.36
776.608	9.83
776.922	9.81
777.236	9.7
777.55	9.69
777.864	9.92
778.178	10.63
778.492	10.86
778.806	10.91
779.12	10.76
779.434	10.63
779.747	10.38
780.061	10.62
780.375	10.61
780.689	10.84
781.002	10.95
781.316	11.14
781.629	11.49
781.943	11.76
782.256	11.7
782.57	11.89
782.883	11.98
783.196	11.45
783.51	11.34
783.823	11.27
784.136	11.09
784.449	11.14
784.762	10.35
785.075	10.24
785.388	9.77
785.701	10.12
786.014	9.84
786.327	9.78
786.64	10.21
786.953	10.3
787.266	10.07
787.578	9.73
787.891	9.55
788.204	9.37
788.516	9.36
788.829	9.68
789.141	9.9
789.454	9.91
789.766	10.19
790.079	10.69
790.391	10.8
790.703	11.09
791.016	10.79
791.328	11.32
791.64	11.24
791.952	11.64
792.264	11.17
792.576	11.21
792.888	11.62
793.2	11.63
793.512	11.4
793.824	11.66
794.136	12.03
794.448	12.3
794.76	11.87
795.071	11.84
795.383	11.51
795.695	10.66
796.006	10.53
796.318	10.49
796.629	10.36
796.941	10.29
797.252	10.29
797.564	10.55
797.875	10.36
798.186	10.05
798.497	10.13
798.809	10.15
799.12	10.36
799.431	10.04
799.742	9.68
800.053	10.03
800.364	9.85
800.675	9.31
800.986	8.79
801.297	9.21
801.608	8.62
801.918	8.96
802.229	9.47
802.54	9.75
802.851	9.43
803.161	9.16
803.472	8.81
803.782	9.22
804.093	9.37
804.403	9.08
804.714	9.1
805.024	9.07
805.334	9.72
805.645	9.6
805.955	9.27
806.265	9.15
806.575	9.21
806.885	9.54
807.195	10.33
807.505	10.7
807.815	10.53
808.125	11.22
808.435	10.54
808.745	10.11
809.055	10.01
809.365	10.21
809.674	10.03
809.984	10.49
810.294	9.97
810.603	9.76
810.913	10.14
811.222	10.67
811.532	10.44
811.841	10.57
812.151	11.01
812.46	11.27
812.769	11.24
813.079	10.68
813.388	10.97
813.697	10.84
814.006	11.05
814.315	11.19
814.624	10.85
814.933	11.29
815.242	12.08
815.551	12.15
815.86	12.6
816.169	12.74
816.478	12.5
816.786	12.4
817.095	12.58
817.404	12.53
817.712	12.34
818.021	12.56
818.33	12.19
818.638	12.9
818.947	12.96
819.255	12.86
819.563	12.82
819.872	12.3
820.18	12.45
820.488	12.4
820.796	12.35
821.105	12.22
821.413	12.29
821.721	12.05
822.029	12.17
822.337	12.04
822.645	12.12
822.953	12.18
823.26	12.21
823.568	12.14
823.876	11.99
824.184	11.97
824.491	11.96
824.799	11.91
825.107	11.64
825.414	11.69
825.722	11.73
826.029	11.8
826.337	11.99
826.644	11.92
826.951	11.82
827.259	11.83
827.566	11.9
827.873	12
828.18	11.99
828.488	11.84
828.795	11.89
829.102	11.72
829.409	11.87
829.716	11.91
830.023	11.87
830.329	12.1
830.636	12.18
830.943	12.34
831.25	12.21
831.557	12.36
831.863	12.11
832.17	11.66
832.476	11.69
832.783	11.83
833.089	11.76
833.396	12.1
833.702	12.46
834.009	12.49
834.315	12.12
834.621	12.67
834.928	12.85
835.234	12.75
835.54	12.73
835.846	12.39
836.152	12.37
836.458	12.45
836.764	12.3
837.07	12.1
837.376	12.15
837.682	12.32
837.988	11.98
838.293	12.33
838.599	12.7
838.905	12.41
839.211	11.84
839.516	11.97
839.822	11.61
840.127	10.86
840.433	10.88
840.738	11.23
841.044	10.56
841.349	10.75
841.654	10.26
841.959	10.91
842.265	11.8
842.57	11.35
842.875	11.34
843.18	11.55
843.485	11.63
843.79	11.22
844.095	11.12
844.4	12.67
844.705	11.54
845.01	11.76
845.315	11.76
845.619	11.83
845.924	10.36
846.229	11.24
846.533	11.95
846.838	11.89
847.142	10.98
847.447	10.66
847.751	9.65
848.056	9.96
848.36	8.76
848.664	7.77
848.969	7.44
849.273	6.49
849.577	5.47
849.881	5.13
850.185	5.57
850.489	6.18
850.794	1.61
851.097	2.29
851.401	1.18
851.705	0.69
852.009	1.2
852.313	0.64
852.617	-0.89
852.92	-0.35
853.224	-1.44
853.528	-1.2
853.831	-0.42
854.135	-1.49
854.438	-2.19
854.742	-2.49
855.045	-4
855.349	-2.88
855.652	-1.48
855.955	-0.29
856.259	-2.45
856.562	-3.74
856.865	-3.67
857.168	-0.54
857.471	0.66
857.774	2.38
858.077	3.75
858.38	5.18
858.683	7.28
858.986	8
859.289	8.19
859.592	9.42
859.894	10.61
860.197	9.57
860.5	9.12
860.802	10.65
861.105	11.28
861.407	13.03
861.71	12.05
862.012	10.17
862.315	10.33
862.617	13.07
862.919	12.61
863.222	11.91
863.524	12.18
863.826	11.81
864.128	11.89
864.43	11.43
864.732	10.03
865.034	10.21
865.336	8.99
865.638	7.65
865.94	5.54
866.242	4.66
866.544	5.68
866.846	9.16
867.147	9.64
867.449	8.65
867.751	7.58
868.052	10.21
868.354	13.07
868.655	13.17
868.957	11.87
869.258	10.89
869.56	12.59
869.861	10.83
870.162	9.98
870.463	10.55
870.765	12.06
871.066	11.11
871.367	10.34
871.668	10.74
871.969	9.36
872.27	12.98
872.571	13.21
872.872	13.17
873.173	10.28
873.473	10.23
873.774	11.77
874.075	10.7
874.376	6.89
874.676	6.12
874.977	3.77
875.277	4.48
875.578	7.72
875.878	6.29
876.179	7.79
876.479	8.41
876.78	7.17
877.08	5.66
877.38	6.4
877.68	6.53
877.981	6.67
878.281	8.14
878.581	5.56
