Data from BA56832_Reflection_00015.txt Node
Date: Mon Nov 18 16:10:13 EST 2019
User: vgr7
Spectrometer: USB2G7710
Scans to average: 3
Trigger mode: 4
Integration Time (sec): 2.000000E-2
Electric dark correction enabled: true
Boxcar width: 10
XAxis mode: Wavelengths
Number of Pixels in Spectrum: 2048
>>>>>Begin Spectral Data<<<<<
177.721	-39.55
178.105	-21.52
178.488	-13.35
178.871	-8.96
179.254	1.11
179.636	-18.32
180.019	80.43
180.402	284.62
180.785	-559.79
181.168	661.64
181.55	38.29
181.933	124.73
182.316	254.51
182.698	360.07
183.081	183.07
183.463	176.16
183.846	183.01
184.228	135.82
184.611	141.88
184.993	51.74
185.376	22.56
185.758	-6.69
186.14	-11.95
186.522	-30.52
186.904	-1985.11
187.287	-950.85
187.669	330.22
188.051	36.73
188.433	102.62
188.815	191.48
189.197	146.51
189.579	58.84
189.961	91.26
190.342	133.18
190.724	101.14
191.106	112.1
191.488	134.89
191.869	140.76
192.251	113.23
192.633	140.68
193.014	101.47
193.396	125.77
193.777	103.03
194.159	23.6
194.54	45.13
194.922	-19.49
195.303	-3.9
195.684	-0.57
196.065	32.64
196.447	24.09
196.828	6.13
197.209	-0.36
197.59	-15.46
197.971	3.48
198.352	6.81
198.733	8.07
199.114	10.93
199.495	-10.72
199.876	-48.78
200.257	-18.46
200.638	-10.82
201.018	-26.3
201.399	-12.03
201.78	19.09
202.16	20.33
202.541	10.09
202.922	40.72
203.302	24.7
203.683	40.07
204.063	-12.49
204.444	-18.97
204.824	3.65
205.204	19.66
205.585	21.13
205.965	11.2
206.345	7.68
206.725	-12.16
207.106	-45.54
207.486	-79.16
207.866	-41.58
208.246	-176.35
208.626	2720.69
209.006	273.91
209.386	-81.82
209.766	-166.84
210.145	-103.25
210.525	-67.14
210.905	-74.41
211.285	-40.75
211.664	-28.96
212.044	3.77
212.424	-0.71
212.803	12.27
213.183	24.06
213.562	49.31
213.942	51.98
214.321	55.22
214.701	55.74
215.08	41.05
215.459	39.85
215.838	31.45
216.218	31.91
216.597	45.28
216.976	50.45
217.355	68.22
217.734	90.41
218.113	105.2
218.492	141.74
218.871	163.5
219.25	171.52
219.629	144.81
220.008	161.67
220.387	131.82
220.766	98.4
221.144	89.82
221.523	63.62
221.902	65.36
222.28	41.5
222.659	72.23
223.037	74.52
223.416	74.32
223.794	66.1
224.173	68.08
224.551	51.81
224.929	40.73
225.308	34
225.686	23.23
226.064	20.52
226.442	21.6
226.821	25.88
227.199	23.34
227.577	23.43
227.955	20.96
228.333	20.99
228.711	23.6
229.089	26.92
229.467	26.58
229.845	25.29
230.222	25.38
230.6	20.78
230.978	18.99
231.356	19.05
231.733	19.45
232.111	18.9
232.488	16.51
232.866	14.61
233.243	12.72
233.621	12.21
233.998	11.53
234.376	9.47
234.753	6.15
235.13	7.44
235.508	7.44
235.885	7.11
236.262	6.67
236.639	4.69
237.016	4.84
237.393	4.67
237.77	4.88
238.147	4.64
238.524	5.48
238.901	5.89
239.278	5.66
239.655	5.7
240.032	5.61
240.409	5.74
240.785	6.11
241.162	6.32
241.539	6.23
241.915	6.24
242.292	5.83
242.668	5.94
243.045	5.64
243.421	5.33
243.798	5.04
244.174	5.17
244.551	5.55
244.927	4.94
245.303	5.46
245.679	5.5
246.056	5.3
246.432	5.15
246.808	5.03
247.184	4.89
247.56	4.64
247.936	4.63
248.312	4.61
248.688	4.61
249.064	4.65
249.44	4.76
249.815	4.85
250.191	5.06
250.567	5.12
250.943	4.95
251.318	4.99
251.694	5.17
252.069	5.11
252.445	4.8
252.82	5.28
253.196	4.95
253.571	4.84
253.947	4.94
254.322	4.99
254.697	4.29
255.073	4.12
255.448	4.22
255.823	4.24
256.198	4.15
256.573	3.9
256.948	4.02
257.323	3.99
257.698	4.02
258.073	4.02
258.448	3.81
258.823	3.98
259.198	4.05
259.573	4.03
259.948	4.18
260.322	4.23
260.697	4.03
261.072	4.04
261.446	4.18
261.821	4.14
262.195	4.3
262.57	4.52
262.944	4.6
263.319	4.52
263.693	4.41
264.067	4.48
264.442	4.71
264.816	4.62
265.19	4.34
265.564	4.16
265.938	3.95
266.313	4
266.687	3.97
267.061	3.95
267.435	4.07
267.809	3.79
268.183	3.78
268.556	3.82
268.93	3.75
269.304	3.53
269.678	3.53
270.051	3.33
270.425	3.29
270.799	3.25
271.172	3.28
271.546	3.43
271.919	3.4
272.293	3.27
272.666	3.17
273.04	3.35
273.413	3.35
273.787	3.47
274.16	3.55
274.533	3.54
274.906	3.5
275.279	3.45
275.653	3.58
276.026	3.6
276.399	3.57
276.772	3.71
277.145	3.7
277.518	3.95
277.891	3.92
278.263	4.01
278.636	4.09
279.009	3.95
279.382	3.94
279.755	4.03
280.127	4.05
280.5	4.12
280.872	4.07
281.245	4.04
281.617	4.27
281.99	4.26
282.362	4.29
282.735	4.22
283.107	4.17
283.479	4.25
283.852	4.18
284.224	4.22
284.596	4.16
284.968	4.29
285.34	4.14
285.713	4.23
286.085	4.32
286.457	4.39
286.829	4.51
287.201	4.47
287.572	4.4
287.944	4.37
288.316	4.43
288.688	4.5
289.06	4.55
289.431	4.4
289.803	4.31
290.175	4.22
290.546	4.4
290.918	4.38
291.289	4.25
291.661	4.33
292.032	4.38
292.403	4.28
292.775	4.22
293.146	4.19
293.517	4.13
293.889	4.05
294.26	3.98
294.631	3.96
295.002	4
295.373	4.04
295.744	4.18
296.115	4.11
296.486	4.02
296.857	4.11
297.228	4.09
297.599	4.04
297.97	4.05
298.34	4
298.711	4.13
299.082	4.22
299.452	4.27
299.823	4.32
300.194	4.34
300.564	4.28
300.935	4.35
301.305	4.42
301.676	4.51
302.046	4.66
302.416	4.82
302.787	4.91
303.157	4.97
303.527	4.93
303.897	4.97
304.267	5.14
304.637	5.13
305.008	5.25
305.378	5.47
305.748	5.55
306.117	5.61
306.487	5.48
306.857	5.38
307.227	5.28
307.597	5.17
307.967	5.26
308.336	5.3
308.706	5.37
309.076	5.28
309.445	5.12
309.815	5.03
310.184	4.9
310.554	4.92
310.923	4.83
311.293	4.76
311.662	4.77
312.031	4.82
312.401	4.83
312.77	4.86
313.139	4.87
313.508	4.89
313.877	4.76
314.246	4.83
314.616	4.95
314.985	5.06
315.353	5.03
315.722	5.07
316.091	5.05
316.46	5.03
316.829	5.26
317.198	5.46
317.567	5.56
317.935	5.52
318.304	5.45
318.672	5.56
319.041	5.87
319.41	5.99
319.778	5.99
320.147	6.07
320.515	6.07
320.883	6.13
321.252	6.16
321.62	6.25
321.988	6.37
322.357	6.33
322.725	6.45
323.093	6.52
323.461	6.45
323.829	6.65
324.197	6.67
324.565	6.57
324.933	6.43
325.301	6.47
325.669	6.7
326.037	6.7
326.405	6.74
326.772	6.61
327.14	6.56
327.508	6.54
327.875	6.41
328.243	6.44
328.61	6.53
328.978	6.55
329.346	6.59
329.713	6.48
330.08	6.57
330.448	6.37
330.815	6.3
331.182	6.45
331.55	6.32
331.917	6.3
332.284	6.36
332.651	6.41
333.018	6.41
333.385	6.41
333.752	6.59
334.119	6.6
334.486	6.66
334.853	6.68
335.22	6.69
335.587	6.86
335.954	6.86
336.32	6.81
336.687	6.87
337.054	6.89
337.42	7.02
337.787	7.04
338.153	7.13
338.52	7.19
338.886	7.07
339.253	7.03
339.619	7.1
339.986	6.95
340.352	7.07
340.718	7.02
341.084	6.96
341.451	6.98
341.817	7.06
342.183	6.96
342.549	6.96
342.915	7.13
343.281	7.07
343.647	6.99
344.013	7.09
344.379	7.05
344.745	7.07
345.11	7.07
345.476	7.12
345.842	7.11
346.208	7.2
346.573	7.31
346.939	7.49
347.304	7.41
347.67	7.48
348.035	7.47
348.401	7.47
348.766	7.48
349.132	7.4
349.497	7.39
349.862	7.57
350.228	7.6
350.593	7.51
350.958	7.52
351.323	7.55
351.688	7.42
352.053	7.5
352.418	7.43
352.783	7.47
353.148	7.41
353.513	7.47
353.878	7.41
354.243	7.39
354.608	7.31
354.972	7.37
355.337	7.41
355.702	7.44
356.066	7.48
356.431	7.46
356.795	7.53
357.16	7.46
357.524	7.22
357.889	7.19
358.253	7.14
358.618	7.19
358.982	7.12
359.346	7.14
359.71	7.06
360.075	7.14
360.439	7.06
360.803	7.02
361.167	6.98
361.531	6.99
361.895	6.99
362.259	6.91
362.623	6.87
362.987	6.86
363.351	6.86
363.714	6.82
364.078	6.81
364.442	6.68
364.806	6.66
365.169	6.77
365.533	6.71
365.896	6.68
366.26	6.63
366.623	6.62
366.987	6.54
367.35	6.49
367.714	6.42
368.077	6.39
368.44	6.35
368.803	6.26
369.167	6.19
369.53	6.1
369.893	6.16
370.256	6.14
370.619	6.02
370.982	5.9
371.345	5.82
371.708	5.82
372.071	5.83
372.434	5.78
372.797	5.76
373.159	5.75
373.522	5.76
373.885	5.7
374.247	5.66
374.61	5.67
374.973	5.6
375.335	5.54
375.698	5.51
376.06	5.54
376.423	5.53
376.785	5.51
377.147	5.55
377.51	5.52
377.872	5.54
378.234	5.55
378.596	5.56
378.958	5.52
379.321	5.51
379.683	5.51
380.045	5.5
380.407	5.43
380.769	5.37
381.13	5.36
381.492	5.32
381.854	5.37
382.216	5.4
382.578	5.42
382.939	5.38
383.301	5.34
383.663	5.23
384.024	5.2
384.386	5.19
384.747	5.12
385.109	5.04
385.47	4.92
385.832	4.89
386.193	4.87
386.554	4.87
386.916	4.83
387.277	4.78
387.638	4.74
387.999	4.75
388.36	4.76
388.721	4.68
389.082	4.69
389.443	4.59
389.804	4.5
390.165	4.43
390.526	4.39
390.887	4.37
391.248	4.39
391.609	4.4
391.969	4.38
392.33	4.35
392.691	4.33
393.051	4.37
393.412	4.35
393.772	4.32
394.133	4.27
394.493	4.21
394.854	4.21
395.214	4.21
395.574	4.18
395.935	4.15
396.295	4.15
396.655	4.08
397.015	4.09
397.376	4.08
397.736	4.1
398.096	4.13
398.456	4.12
398.816	4.11
399.176	4.04
399.535	4.02
399.895	4
400.255	4
400.615	3.97
400.975	3.98
401.334	3.94
401.694	3.95
402.054	3.92
402.413	3.88
402.773	3.81
403.132	3.75
403.492	3.73
403.851	3.72
404.211	3.73
404.57	3.7
404.929	3.69
405.288	3.67
405.648	3.62
406.007	3.59
406.366	3.58
406.725	3.61
407.084	3.58
407.443	3.59
407.802	3.58
408.161	3.55
408.52	3.49
408.879	3.5
409.238	3.47
409.596	3.47
409.955	3.47
410.314	3.49
410.673	3.47
411.031	3.46
411.39	3.42
411.748	3.4
412.107	3.41
412.465	3.39
412.824	3.4
413.182	3.39
413.54	3.37
413.899	3.33
414.257	3.32
414.615	3.35
414.974	3.34
415.332	3.3
415.69	3.29
416.048	3.28
416.406	3.28
416.764	3.27
417.122	3.27
417.48	3.25
417.838	3.24
418.195	3.24
418.553	3.23
418.911	3.23
419.269	3.23
419.626	3.21
419.984	3.2
420.342	3.19
420.699	3.18
421.057	3.17
421.414	3.18
421.772	3.17
422.129	3.15
422.486	3.14
422.844	3.14
423.201	3.13
423.558	3.13
423.915	3.12
424.273	3.13
424.63	3.11
424.987	3.11
425.344	3.1
425.701	3.1
426.058	3.1
426.415	3.1
426.772	3.11
427.128	3.09
427.485	3.11
427.842	3.1
428.199	3.09
428.555	3.09
428.912	3.08
429.269	3.08
429.625	3.06
429.982	3.05
430.338	3.03
430.695	3.03
431.051	3.02
431.407	3.02
431.764	3.02
432.12	3.02
432.476	3.01
432.832	2.98
433.189	2.99
433.545	2.99
433.901	2.97
434.257	2.95
434.613	2.94
434.969	2.93
435.325	2.94
435.681	2.95
436.036	2.94
436.392	2.94
436.748	2.92
437.104	2.92
437.459	2.92
437.815	2.92
438.171	2.93
438.526	2.94
438.882	2.94
439.237	2.94
439.593	2.96
439.948	2.96
440.304	2.97
440.659	2.96
441.014	2.96
441.369	2.93
441.725	2.92
442.08	2.94
442.435	2.94
442.79	2.93
443.145	2.92
443.5	2.93
443.855	2.94
444.21	2.93
444.565	2.95
444.92	2.94
445.275	2.92
445.629	2.91
445.984	2.9
446.339	2.9
446.693	2.88
447.048	2.86
447.403	2.85
447.757	2.84
448.112	2.84
448.466	2.82
448.82	2.84
449.175	2.85
449.529	2.84
449.883	2.83
450.238	2.82
450.592	2.84
450.946	2.82
451.3	2.8
451.654	2.8
452.008	2.77
452.362	2.76
452.716	2.79
453.07	2.8
453.424	2.79
453.778	2.79
454.132	2.78
454.486	2.79
454.839	2.77
455.193	2.78
455.547	2.77
455.9	2.78
456.254	2.79
456.607	2.8
456.961	2.8
457.314	2.81
457.668	2.82
458.021	2.8
458.375	2.81
458.728	2.82
459.081	2.84
459.434	2.85
459.787	2.86
460.141	2.85
460.494	2.85
460.847	2.86
461.2	2.87
461.553	2.88
461.906	2.88
462.259	2.91
462.611	2.92
462.964	2.93
463.317	2.94
463.67	2.94
464.022	2.92
464.375	2.92
464.728	2.9
465.08	2.9
465.433	2.9
465.785	2.89
466.138	2.88
466.49	2.88
466.843	2.87
467.195	2.89
467.547	2.9
467.899	2.89
468.252	2.88
468.604	2.88
468.956	2.88
469.308	2.88
469.66	2.87
470.012	2.88
470.364	2.86
470.716	2.86
471.068	2.87
471.42	2.91
471.772	2.9
472.123	2.92
472.475	2.94
472.827	2.93
473.178	2.95
473.53	2.96
473.882	2.96
474.233	2.97
474.585	2.94
474.936	2.94
475.288	2.94
475.639	2.95
475.99	2.95
476.342	2.95
476.693	2.94
477.044	2.96
477.395	2.93
477.746	2.93
478.097	2.94
478.448	2.92
478.8	2.89
479.15	2.89
479.501	2.9
479.852	2.89
480.203	2.89
480.554	2.89
480.905	2.88
481.255	2.89
481.606	2.9
481.957	2.92
482.307	2.91
482.658	2.91
483.009	2.9
483.359	2.89
483.709	2.9
484.06	2.9
484.41	2.89
484.761	2.9
485.111	2.91
485.461	2.91
485.811	2.91
486.162	2.91
486.512	2.92
486.862	2.92
487.212	2.93
487.562	2.93
487.912	2.94
488.262	2.95
488.612	2.95
488.961	2.95
489.311	2.95
489.661	2.95
490.011	2.95
490.36	2.95
490.71	2.96
491.06	2.97
491.409	2.99
491.759	3
492.108	3
492.458	3.01
492.807	3
493.157	3.01
493.506	3.04
493.855	3.04
494.204	3.04
494.554	3.05
494.903	3.05
495.252	3.05
495.601	3.06
495.95	3.08
496.299	3.08
496.648	3.06
496.997	3.08
497.346	3.12
497.695	3.13
498.043	3.14
498.392	3.15
498.741	3.15
499.09	3.15
499.438	3.18
499.787	3.19
500.135	3.23
500.484	3.25
500.832	3.25
501.181	3.26
501.529	3.27
501.878	3.28
502.226	3.29
502.574	3.31
502.923	3.32
503.271	3.32
503.619	3.34
503.967	3.4
504.315	3.4
504.663	3.41
505.011	3.45
505.359	3.47
505.707	3.49
506.055	3.49
506.403	3.53
506.751	3.53
507.098	3.54
507.446	3.56
507.794	3.58
508.141	3.61
508.489	3.65
508.837	3.67
509.184	3.71
509.531	3.75
509.879	3.78
510.226	3.81
510.574	3.84
510.921	3.86
511.268	3.88
511.616	3.92
511.963	3.96
512.31	3.97
512.657	4.01
513.004	4.03
513.351	4.08
513.698	4.11
514.045	4.14
514.392	4.17
514.739	4.18
515.086	4.2
515.432	4.21
515.779	4.22
516.126	4.27
516.473	4.28
516.819	4.3
517.166	4.31
517.512	4.34
517.859	4.37
518.205	4.39
518.552	4.43
518.898	4.45
519.245	4.45
519.591	4.48
519.937	4.49
520.283	4.52
520.629	4.54
520.976	4.57
521.322	4.61
521.668	4.63
522.014	4.67
522.36	4.72
522.706	4.77
523.052	4.83
523.398	4.86
523.743	4.92
524.089	4.97
524.435	5.01
524.781	5.04
525.126	5.1
525.472	5.15
525.817	5.19
526.163	5.21
526.509	5.26
526.854	5.3
527.199	5.33
527.545	5.36
527.89	5.4
528.235	5.43
528.581	5.46
528.926	5.5
529.271	5.55
529.616	5.58
529.961	5.63
530.306	5.67
530.651	5.71
530.996	5.75
531.341	5.8
531.686	5.87
532.031	5.93
532.376	5.99
532.721	6.05
533.065	6.11
533.41	6.19
533.755	6.26
534.099	6.33
534.444	6.42
534.788	6.52
535.133	6.6
535.477	6.71
535.822	6.8
536.166	6.92
536.51	7.03
536.855	7.14
537.199	7.27
537.543	7.4
537.887	7.56
538.231	7.71
538.576	7.86
538.92	8.01
539.264	8.14
539.608	8.29
539.951	8.43
540.295	8.55
540.639	8.69
540.983	8.81
541.327	8.95
541.671	9.08
542.014	9.21
542.358	9.35
542.701	9.49
543.045	9.64
543.389	9.8
543.732	9.98
544.075	10.15
544.419	10.31
544.762	10.49
545.105	10.65
545.449	10.88
545.792	11.11
546.135	11.32
546.478	11.55
546.821	11.78
547.165	12.02
547.508	12.3
547.851	12.59
548.194	12.88
548.536	13.18
548.879	13.51
549.222	13.81
549.565	14.11
549.908	14.46
550.25	14.79
550.593	15.12
550.936	15.45
551.278	15.82
551.621	16.19
551.963	16.55
552.306	16.94
552.648	17.23
552.991	17.55
553.333	17.89
553.675	18.26
554.017	18.66
554.36	18.99
554.702	19.36
555.044	19.71
555.386	20.03
555.728	20.4
556.07	20.75
556.412	21.16
556.754	21.55
557.096	21.96
557.438	22.34
557.78	22.8
558.121	23.22
558.463	23.62
558.805	24.04
559.147	24.48
559.488	24.85
559.83	25.3
560.171	25.73
560.513	26.16
560.854	26.58
561.196	26.99
561.537	27.48
561.878	27.91
562.22	28.38
562.561	28.84
562.902	29.27
563.243	29.74
563.584	30.13
563.925	30.58
564.266	30.93
564.607	31.28
564.948	31.62
565.289	31.99
565.63	32.42
565.971	32.78
566.312	33.08
566.653	33.45
566.993	33.79
567.334	34.17
567.675	34.53
568.015	34.89
568.356	35.25
568.696	35.59
569.037	35.93
569.377	36.27
569.718	36.56
570.058	36.86
570.398	37.13
570.739	37.5
571.079	37.8
571.419	38.14
571.759	38.47
572.099	38.76
572.439	39.08
572.779	39.26
573.119	39.57
573.459	39.86
573.799	40.19
574.139	40.45
574.479	40.73
574.819	41
575.158	41.27
575.498	41.53
575.838	41.84
576.177	42.08
576.517	42.34
576.856	42.64
577.196	42.92
577.535	43.21
577.875	43.44
578.214	43.67
578.553	43.94
578.893	44.22
579.232	44.49
579.571	44.7
579.91	45.05
580.25	45.35
580.589	45.63
580.928	45.83
581.267	46.08
581.606	46.33
581.945	46.6
582.283	46.88
582.622	47.1
582.961	47.25
583.3	47.45
583.639	47.64
583.977	47.89
584.316	48.11
584.654	48.29
584.993	48.47
585.332	48.7
585.67	48.89
586.008	49.06
586.347	49.28
586.685	49.5
587.024	49.63
587.362	49.75
587.7	49.83
588.038	50.02
588.376	50.23
588.715	50.35
589.053	50.48
589.391	50.59
589.729	50.72
590.067	50.9
590.404	51.04
590.742	51.22
591.08	51.32
591.418	51.45
591.756	51.56
592.093	51.72
592.431	51.88
592.769	52
593.106	52.16
593.444	52.23
593.781	52.39
594.119	52.57
594.456	52.61
594.793	52.76
595.131	52.91
595.468	53.03
595.805	53.18
596.143	53.27
596.48	53.36
596.817	53.5
597.154	53.54
597.491	53.68
597.828	53.74
598.165	53.92
598.502	54.03
598.839	54.1
599.176	54.23
599.512	54.37
599.849	54.56
600.186	54.68
600.523	54.74
600.859	54.81
601.196	54.83
601.532	54.93
601.869	55.05
602.205	55.08
602.542	55.2
602.878	55.26
603.215	55.37
603.551	55.48
603.887	55.57
604.223	55.67
604.56	55.72
604.896	55.81
605.232	55.88
605.568	55.93
605.904	56.1
606.24	56.15
606.576	56.23
606.912	56.26
607.248	56.26
607.583	56.44
607.919	56.55
608.255	56.72
608.591	56.89
608.926	57.01
609.262	57.11
609.597	57.14
609.933	57.2
610.268	57.19
610.604	57.2
610.939	57.28
611.275	57.38
611.61	57.46
611.945	57.45
612.281	57.49
612.616	57.6
612.951	57.64
613.286	57.68
613.621	57.75
613.956	57.78
614.291	57.95
614.626	58.01
614.961	58.02
615.296	58.04
615.631	58.06
615.966	58.1
616.3	58.24
616.635	58.28
616.97	58.38
617.304	58.55
617.639	58.68
617.973	58.69
618.308	58.79
618.642	58.84
618.977	58.96
619.311	58.99
619.646	58.94
619.98	58.91
620.314	58.92
620.648	58.94
620.983	59.02
621.317	59.12
621.651	59.14
621.985	59.23
622.319	59.36
622.653	59.42
622.987	59.4
623.321	59.39
623.655	59.44
623.988	59.57
624.322	59.55
624.656	59.54
624.99	59.58
625.323	59.56
625.657	59.67
625.99	59.68
626.324	59.74
626.657	59.8
626.991	59.92
627.324	60.05
627.658	60.07
627.991	60.14
628.324	60.17
628.657	60.21
628.991	60.28
629.324	60.24
629.657	60.31
629.99	60.42
630.323	60.45
630.656	60.4
630.989	60.32
631.322	60.39
631.655	60.45
631.987	60.54
632.32	60.58
632.653	60.54
632.986	60.69
633.318	60.62
633.651	60.67
633.984	60.73
634.316	60.74
634.649	60.76
634.981	60.86
635.313	60.84
635.646	60.92
635.978	60.9
636.31	60.96
636.643	60.98
636.975	60.96
637.307	61.05
637.639	61.06
637.971	61.13
638.303	61.17
638.635	61.19
638.967	61.18
639.299	61.24
639.631	61.29
639.963	61.3
640.295	61.4
640.626	61.42
640.958	61.47
641.29	61.59
641.621	61.63
641.953	61.57
642.285	61.61
642.616	61.66
642.948	61.73
643.279	61.65
643.61	61.72
643.942	61.78
644.273	61.74
644.604	61.83
644.936	61.96
645.267	62.02
645.598	62.07
645.929	62.09
646.26	62.14
646.591	62.22
646.922	62.2
647.253	62.27
647.584	62.38
647.915	62.35
648.245	62.24
648.576	62.35
648.907	62.34
649.238	62.38
649.568	62.3
649.899	62.29
650.229	62.38
650.56	62.33
650.89	62.39
651.221	62.45
651.551	62.49
651.882	62.5
652.212	62.53
652.542	62.44
652.872	62.41
653.203	62.42
653.533	62.42
653.863	62.5
654.193	62.55
654.523	62.52
654.853	62.5
655.183	62.5
655.513	62.37
655.843	62.35
656.172	62.44
656.502	62.5
656.832	62.34
657.162	62.43
657.491	62.34
657.821	62.33
658.15	62.33
658.48	62.36
658.809	62.34
659.139	62.38
659.468	62.5
659.798	62.56
660.127	62.51
660.456	62.51
660.785	62.55
661.115	62.58
661.444	62.63
661.773	62.73
662.102	62.8
662.431	62.89
662.76	63.06
663.089	62.93
663.418	62.98
663.747	63.16
664.076	63.05
664.404	63.28
664.733	63.3
665.062	63.33
665.39	63.37
665.719	63.32
666.048	63.32
666.376	63.31
666.705	63.42
667.033	63.59
667.362	63.68
667.69	63.65
668.018	63.69
668.347	63.75
668.675	63.68
669.003	63.78
669.331	63.9
669.659	63.75
669.987	63.8
670.315	63.82
670.643	64.02
670.971	64.16
671.299	64.11
671.627	64.2
671.955	64.15
672.283	64.12
672.61	64.09
672.938	64.22
673.266	64.34
673.593	64.29
673.921	64.18
674.249	64.14
674.576	64.14
674.904	64.04
675.231	63.96
675.558	64.13
675.886	64.06
676.213	63.97
676.54	63.97
676.867	64.01
677.195	64.04
677.522	63.93
677.849	63.98
678.176	64.06
678.503	63.97
678.83	64
679.157	63.88
679.484	63.9
679.81	63.88
680.137	63.92
680.464	63.92
680.791	63.85
681.117	63.89
681.444	63.97
681.771	64.04
682.097	63.96
682.424	63.83
682.75	63.91
683.077	63.92
683.403	63.91
683.729	63.88
684.056	63.95
684.382	64.05
684.708	63.94
685.034	63.87
685.36	63.87
685.686	63.99
686.012	64.11
686.339	64.24
686.664	64.21
686.99	64.01
687.316	63.99
687.642	64.13
687.968	64.02
688.294	64.05
688.619	64.11
688.945	64.24
689.271	64.35
689.596	64.39
689.922	64.42
690.247	64.64
690.573	64.69
690.898	64.68
691.224	64.5
691.549	64.55
691.874	64.5
692.2	64.32
692.525	64.21
692.85	64.26
693.175	64.16
693.5	64.13
693.825	64.25
694.15	64.16
694.475	64.27
694.8	64.25
695.125	64.17
695.45	64.12
695.775	64.11
696.099	64.09
696.424	64.05
696.749	64.1
697.073	63.98
697.398	63.98
697.723	63.95
698.047	63.94
698.372	63.93
698.696	64.03
699.02	64.14
699.345	64.27
699.669	64.41
699.993	64.46
700.318	64.41
700.642	64.3
700.966	64.39
701.29	64.31
701.614	64.26
701.938	64.36
702.262	64.33
702.586	64.28
702.91	64.43
703.234	64.49
703.557	64.51
703.881	64.78
704.205	64.95
704.529	64.88
704.852	65.03
705.176	65.1
705.499	65.2
705.823	65.29
706.146	65.3
706.47	65.02
706.793	65.02
707.117	65
707.44	65.24
707.763	65.31
708.086	65.24
708.409	65.34
708.733	65.32
709.056	65.43
709.379	65.71
709.702	65.66
710.025	65.6
710.348	65.5
710.671	65.23
710.993	65.24
711.316	65.22
711.639	65.11
711.962	65.15
712.284	64.98
712.607	64.97
712.93	64.7
713.252	64.88
713.575	65.05
713.897	65.05
714.22	64.95
714.542	65.07
714.864	65.16
715.187	65.29
715.509	65.23
715.831	65.18
716.153	65.03
716.475	64.83
716.798	64.83
717.12	64.74
717.442	64.82
717.764	64.46
718.085	64.44
718.407	64.55
718.729	64.55
719.051	64.59
719.373	64.63
719.695	64.76
720.016	64.49
720.338	64.3
720.659	64.22
720.981	64.35
721.302	64.15
721.624	64.28
721.945	63.97
722.267	63.75
722.588	63.47
722.909	63.4
723.231	63.37
723.552	63.41
723.873	63.68
724.194	63.42
724.515	63.58
724.836	63.73
725.157	63.56
725.478	63.3
725.799	63.38
726.12	63.5
726.441	63.7
726.762	64.07
727.083	64.14
727.403	64.35
727.724	64.23
728.045	64.31
728.365	64.1
728.686	64.21
729.006	64.42
729.327	64.45
729.647	64.64
729.967	64.8
730.288	64.7
730.608	64.64
730.928	64.85
731.249	65.02
731.569	64.87
731.889	64.94
732.209	65.05
732.529	65.03
732.849	65.09
733.169	64.97
733.489	64.84
733.809	64.88
734.129	64.98
734.448	65.06
734.768	64.93
735.088	64.88
735.408	65.22
735.727	65.19
736.047	65.36
736.366	65.31
736.686	65.41
737.005	65.74
737.325	65.76
737.644	65.82
737.963	65.85
738.283	65.85
738.602	66.11
738.921	66.19
739.24	66.23
739.56	66.21
739.879	66.55
740.198	66.34
740.517	66.2
740.836	66.16
741.155	66.12
741.473	66.17
741.792	66.34
742.111	66.26
742.43	66.21
742.748	66.11
743.067	66.09
743.386	66.25
743.704	66.3
744.023	66.12
744.341	66.25
744.66	66.19
744.978	66.55
745.297	66.35
745.615	66.44
745.933	66.47
746.252	66.49
746.57	66.36
746.888	66.75
747.206	66.92
747.524	67.02
747.842	67.14
748.16	67.38
748.478	67.34
748.796	67.1
749.114	67.32
749.432	67.56
749.749	67.42
750.067	67.09
750.385	66.94
750.703	67.31
751.02	67.14
751.338	66.85
751.655	66.77
751.973	66.74
752.29	66.59
752.608	66.4
752.925	66.52
753.242	66.29
753.56	66.27
753.877	66.24
754.194	66.17
754.511	66.05
754.828	65.97
755.145	65.85
755.462	65.72
755.779	65.76
756.096	65.79
756.413	65.98
756.73	65.98
757.047	65.64
757.364	65.6
757.68	65.77
757.997	65.99
758.314	65.96
758.63	66.15
758.947	66.06
759.264	65.96
759.58	65.77
759.896	65.8
760.213	65.59
760.529	65.55
760.846	65.31
761.162	65.27
761.478	65.18
761.794	65.11
762.11	65.38
762.426	65.32
762.743	65.47
763.059	65.36
763.375	65.58
763.69	65.8
764.006	65.61
764.322	65.61
764.638	65.51
764.954	65.59
765.27	65.44
765.585	65.52
765.901	65.67
766.216	65.69
766.532	65.64
766.848	65.7
767.163	65.73
767.478	65.66
767.794	65.56
768.109	65.49
768.424	65.67
768.74	65.8
769.055	65.96
769.37	65.58
769.685	65.79
770	65.56
770.315	65.34
770.63	65.45
770.945	65.75
771.26	65.97
771.575	65.59
771.89	66.14
772.205	66.44
772.52	66.07
772.834	66.05
773.149	66.25
773.464	66.15
773.778	66.29
774.093	66.55
774.407	66.76
774.722	67.21
775.036	67.37
775.351	67.21
775.665	67.18
775.979	67.31
776.293	67.18
776.608	67.16
776.922	67.15
777.236	67.08
777.55	66.59
777.864	66.18
778.178	66.46
778.492	66.06
778.806	66.18
779.12	66.84
779.434	66.79
779.747	66.74
780.061	66.96
780.375	66.87
780.689	66.7
781.002	66.64
781.316	66.37
781.629	66.81
781.943	66.55
782.256	66.22
782.57	65.98
782.883	66.11
783.196	65.97
783.51	65.67
783.823	65.67
784.136	65.24
784.449	65.74
784.762	66.09
785.075	65.97
785.388	65.6
785.701	65.68
786.014	65.52
786.327	65.41
786.64	65.87
786.953	65.44
787.266	65.92
787.578	65.94
787.891	66.34
788.204	65.98
788.516	66.23
788.829	66.35
789.141	66.77
789.454	66.9
789.766	67.33
790.079	67.91
790.391	67.96
790.703	68.51
791.016	68.13
791.328	67.73
791.64	67.55
791.952	67.83
792.264	67.52
792.576	67.33
792.888	67.35
793.2	66.82
793.512	67.35
793.824	66.74
794.136	66.83
794.448	66.33
794.76	66.28
795.071	66.09
795.383	66.53
795.695	67.12
796.006	66.85
796.318	66.58
796.629	66.19
796.941	66.29
797.252	66.4
797.564	66.98
797.875	66.86
798.186	67.37
798.497	67.39
798.809	67.43
799.12	67.76
799.431	67.86
799.742	67.61
800.053	67.93
800.364	68.38
800.675	68.22
800.986	68.36
801.297	68.53
801.608	68.83
801.918	68.46
802.229	68.2
802.54	68.13
802.851	68.1
803.161	68.72
803.472	68.54
803.782	68.68
804.093	68.22
804.403	68.69
804.714	68.99
805.024	68.71
805.334	68.26
805.645	68.44
805.955	68.34
806.265	68.65
806.575	68.43
806.885	68.96
807.195	69.27
807.505	69.48
807.815	68.5
808.125	68.78
808.435	68.27
808.745	67.52
809.055	67.24
809.365	67.37
809.674	67.08
809.984	67.31
810.294	67.36
810.603	67.45
810.913	67.73
811.222	67.52
811.532	66.93
811.841	67.42
812.151	67.52
812.46	67.82
812.769	68.05
813.079	68.01
813.388	67.35
813.697	66.87
814.006	66.49
814.315	67.37
814.624	66.75
814.933	67.16
815.242	67.33
815.551	67.47
815.86	67.66
816.169	67
816.478	67.43
816.786	66.48
817.095	66.8
817.404	66.26
817.712	66.06
818.021	66.13
818.33	66.11
818.638	65.99
818.947	66.16
819.255	65.89
819.563	65.71
819.872	65.35
820.18	65.71
820.488	65.57
820.796	65.73
821.105	65.94
821.413	65.75
821.721	65.48
822.029	65.9
822.337	65.99
822.645	66.17
822.953	66.07
823.26	66.21
823.568	66.24
823.876	66.05
824.184	66.05
824.491	66.03
824.799	66.01
825.107	66.09
825.414	66
825.722	66.22
826.029	66.25
826.337	66.32
826.644	66.37
826.951	66.56
827.259	66.56
827.566	66.4
827.873	66.52
828.18	66.84
828.488	66.59
828.795	66.57
829.102	66.36
829.409	66.37
829.716	66.46
830.023	66.33
830.329	66.76
830.636	66.53
830.943	66.68
831.25	66.99
831.557	66.26
831.863	66.12
832.17	65.61
832.476	65.71
832.783	65.6
833.089	65.09
833.396	64.99
833.702	65.03
834.009	65.23
834.315	65.25
834.621	64.95
834.928	64.88
835.234	64.47
835.54	65.03
835.846	64.92
836.152	65.19
836.458	65.1
836.764	64.66
837.07	64.9
837.376	65.3
837.682	64.87
837.988	65.62
838.293	65.59
838.599	65.9
838.905	66.15
839.211	67.12
839.516	67.97
839.822	67.94
840.127	68
840.433	67.54
840.738	68.06
841.044	69.25
841.349	69.63
841.654	69.86
841.959	69.2
842.265	69.87
842.57	69.76
842.875	69.69
843.18	70.58
843.485	71.64
843.79	70.26
844.095	72.02
844.4	72.33
844.705	72.48
845.01	71.37
845.315	71.54
845.619	70.99
845.924	71.43
846.229	73.03
846.533	73.54
846.838	74.56
847.142	75.86
847.447	74.15
847.751	74.6
848.056	75.79
848.36	76.28
848.664	76.89
848.969	79.45
849.273	80.21
849.577	81.66
849.881	79.8
850.185	82.47
850.489	81.37
850.794	81.17
851.097	83.44
851.401	86.36
851.705	85.82
852.009	86.78
852.313	87.09
852.617	86.92
852.92	85.27
853.224	84.03
853.528	84.4
853.831	86.14
854.135	86.6
854.438	86.15
854.742	87.7
855.045	86.55
855.349	81.95
855.652	80.98
855.955	80.96
856.259	82.18
856.562	81.49
856.865	79.57
857.168	82.46
857.471	81.41
857.774	80.04
858.077	80.09
858.38	80.41
858.683	79.73
858.986	79.34
859.289	77.81
859.592	79.7
859.894	79.41
860.197	78.33
860.5	76.25
860.802	73.2
861.105	72.65
861.407	71.44
861.71	71.61
862.012	73.17
862.315	71.13
862.617	71.74
862.919	71.86
863.222	72.07
863.524	70.12
863.826	69.49
864.128	67.58
864.43	65.75
864.732	65.83
865.034	64.49
865.336	64.18
865.638	65.66
865.94	65.79
866.242	65.55
866.544	64.33
866.846	66.4
867.147	69.8
867.449	69.56
867.751	71.97
868.052	73.83
868.354	74.48
868.655	75.31
868.957	74.87
869.258	77.82
869.56	80.85
869.861	78.74
870.162	82.37
870.463	85.71
870.765	88.48
871.066	86.27
871.367	87.77
871.668	82.81
871.969	81.38
872.27	80.1
872.571	79.56
872.872	81.36
873.173	80.22
873.473	78.78
873.774	79.18
874.075	80.46
874.376	78.45
874.676	77.87
874.977	78.9
875.277	81.14
875.578	80.15
875.878	77.91
876.179	80.27
876.479	78.16
876.78	77.41
877.08	76.35
877.38	76.8
877.68	75.93
877.981	82.37
878.281	85.52
878.581	87.99
