Data from BA56830_Reflection_00006.txt Node
Date: Mon Nov 18 16:03:55 EST 2019
User: vgr7
Spectrometer: USB2G7710
Scans to average: 3
Trigger mode: 4
Integration Time (sec): 2.000000E-2
Electric dark correction enabled: true
Boxcar width: 10
XAxis mode: Wavelengths
Number of Pixels in Spectrum: 2048
>>>>>Begin Spectral Data<<<<<
177.721	-440.02
178.105	-246.41
178.488	-81.32
178.871	-92.41
179.254	13.28
179.636	302.61
180.019	-4788.89
180.402	184.21
180.785	27.03
181.168	48.34
181.55	12.63
181.933	63.7
182.316	65.93
182.698	56.88
183.081	45.62
183.463	18.44
183.846	42.26
184.228	70.75
184.611	29.82
184.993	290.48
185.376	-208.94
185.758	-69.85
186.14	110.84
186.522	97.83
186.904	265.37
187.287	857.99
187.669	-361.15
188.051	1302.61
188.433	-71233.33
188.815	-331.56
189.197	-119.1
189.579	-95.45
189.961	-93.24
190.342	-91.26
190.724	-86.08
191.106	-93.75
191.488	-118.97
191.869	-83.16
192.251	-146.66
192.633	-274.89
193.014	-344.44
193.396	-411.18
193.777	-365.19
194.159	-341.77
194.54	-196.3
194.922	-153.19
195.303	-112.42
195.684	-134.43
196.065	-67.41
196.447	-81.39
196.828	-123.92
197.209	-131.28
197.59	-170.63
197.971	-122.22
198.352	-70.92
198.733	-69.85
199.114	-55.53
199.495	-49.99
199.876	-49.47
200.257	-46.92
200.638	-24.41
201.018	-39.2
201.399	-18.44
201.78	-6.83
202.16	-20.42
202.541	-56.19
202.922	-107.32
203.302	-136.67
203.683	-102.57
204.063	-163.87
204.444	-145.83
204.824	-94.52
205.204	-91.17
205.585	-83.74
205.965	-92.04
206.345	-139.9
206.725	-159.08
207.106	-170.41
207.486	-236.29
207.866	-194.83
208.246	-154.5
208.626	-195.98
209.006	-127.14
209.386	-155.9
209.766	-199.6
210.145	-153.79
210.525	-108.3
210.905	-96.29
211.285	-102.07
211.664	-103.87
212.044	-103.63
212.424	-72.6
212.803	-86.75
213.183	-75.93
213.562	-77.41
213.942	-77.73
214.321	-56.68
214.701	-47.16
215.08	-58.16
215.459	-41.88
215.838	-62.5
216.218	-89.6
216.597	-98.06
216.976	-94.56
217.355	-77.41
217.734	-71.13
218.113	-72.23
218.492	-81.51
218.871	-73.65
219.25	-50.14
219.629	-58.18
220.008	-58.79
220.387	-73.06
220.766	-65.66
221.144	-72.89
221.523	-72.21
221.902	-75.05
222.28	-78.61
222.659	-75.89
223.037	-61.84
223.416	-67.58
223.794	-61.32
224.173	-55.38
224.551	-42.68
224.929	-51.99
225.308	-46.61
225.686	-42.04
226.064	-35.67
226.442	-27.65
226.821	-21.99
227.199	-27.46
227.577	-23.17
227.955	-20.08
228.333	-19.5
228.711	-15.38
229.089	-8.67
229.467	-7.07
229.845	-9.73
230.222	-9.13
230.6	-8.02
230.978	-6.81
231.356	-3.89
231.733	-1.98
232.111	-1.62
232.488	-0.6
232.866	2.11
233.243	1.63
233.621	0.69
233.998	2.05
234.376	2.06
234.753	0.48
235.13	1.54
235.508	1.18
235.885	0.97
236.262	-0.19
236.639	-1.79
237.016	-3.94
237.393	-2.87
237.77	-0.66
238.147	0.85
238.524	0.52
238.901	1.17
239.278	1.36
239.655	1.96
240.032	2.58
240.409	1.63
240.785	1.72
241.162	2.54
241.539	2.73
241.915	2.58
242.292	1.97
242.668	2.39
243.045	2.69
243.421	3.06
243.798	3.31
244.174	4.15
244.551	4.48
244.927	4.61
245.303	4.55
245.679	4.52
246.056	4.59
246.432	4.75
246.808	4.68
247.184	4.41
247.56	4.36
247.936	4.5
248.312	4.59
248.688	4.67
249.064	4.42
249.44	4.72
249.815	4.77
250.191	5.05
250.567	5.14
250.943	5
251.318	4.97
251.694	4.88
252.069	4.61
252.445	4.37
252.82	4.29
253.196	4.32
253.571	4.57
253.947	4.36
254.322	4.58
254.697	4.15
255.073	4.21
255.448	3.88
255.823	3.79
256.198	4
256.573	3.96
256.948	4.01
257.323	4.14
257.698	4.06
258.073	4.28
258.448	4.2
258.823	4.45
259.198	4.48
259.573	4.59
259.948	4.72
260.322	4.77
260.697	4.75
261.072	4.66
261.446	4.55
261.821	4.34
262.195	4.34
262.57	4.49
262.944	4.57
263.319	4.65
263.693	4.83
264.067	4.91
264.442	4.85
264.816	4.8
265.19	4.5
265.564	4.63
265.938	4.52
266.313	4.51
266.687	4.46
267.061	4.55
267.435	4.47
267.809	4.35
268.183	4.39
268.556	4.53
268.93	4.69
269.304	4.59
269.678	4.93
270.051	4.71
270.425	4.73
270.799	4.78
271.172	4.76
271.546	4.51
271.919	4.47
272.293	4.47
272.666	4.74
273.04	4.79
273.413	4.66
273.787	4.6
274.16	4.55
274.533	4.5
274.906	4.42
275.279	4.3
275.653	4.33
276.026	4.31
276.399	4.22
276.772	4.27
277.145	4.3
277.518	4.17
277.891	4.34
278.263	4.29
278.636	4.13
279.009	4.06
279.382	4.18
279.755	4.13
280.127	4.2
280.5	3.98
280.872	4.01
281.245	4.04
281.617	4.1
281.99	4.21
282.362	4.19
282.735	4.06
283.107	4.25
283.479	4.34
283.852	4.41
284.224	4.49
284.596	4.38
284.968	4.41
285.34	4.36
285.713	4.25
286.085	4.35
286.457	4.49
286.829	4.54
287.201	4.54
287.572	4.48
287.944	4.35
288.316	4.39
288.688	4.37
289.06	4.37
289.431	4.27
289.803	4.21
290.175	4.38
290.546	4.59
290.918	4.46
291.289	4.4
291.661	4.32
292.032	4.32
292.403	4.32
292.775	4.48
293.146	4.44
293.517	4.56
293.889	4.58
294.26	4.42
294.631	4.47
295.002	4.53
295.373	4.72
295.744	4.86
296.115	4.93
296.486	4.89
296.857	4.91
297.228	5.07
297.599	5.16
297.97	5.01
298.34	5.08
298.711	5.23
299.082	5.28
299.452	5.37
299.823	5.39
300.194	5.55
300.564	5.41
300.935	5.57
301.305	5.53
301.676	5.54
302.046	5.75
302.416	5.9
302.787	5.87
303.157	5.86
303.527	5.74
303.897	5.75
304.267	5.98
304.637	6.13
305.008	6.1
305.378	6.12
305.748	6.16
306.117	5.95
306.487	5.94
306.857	5.95
307.227	5.9
307.597	5.86
307.967	5.74
308.336	5.92
308.706	5.91
309.076	5.97
309.445	5.87
309.815	5.76
310.184	5.65
310.554	5.68
310.923	5.63
311.293	5.71
311.662	5.68
312.031	5.58
312.401	5.48
312.77	5.43
313.139	5.46
313.508	5.53
313.877	5.54
314.246	5.51
314.616	5.41
314.985	5.39
315.353	5.42
315.722	5.44
316.091	5.28
316.46	5.15
316.829	5.05
317.198	5.03
317.567	4.99
317.935	5.04
318.304	4.95
318.672	4.95
319.041	5.06
319.41	5.08
319.778	5.04
320.147	4.93
320.515	4.92
320.883	4.72
321.252	4.71
321.62	4.77
321.988	4.8
322.357	4.85
322.725	4.86
323.093	4.83
323.461	4.85
323.829	4.92
324.197	5
324.565	5.15
324.933	5.24
325.301	5.28
325.669	5.1
326.037	5.07
326.405	4.99
326.772	4.9
327.14	4.82
327.508	4.83
327.875	4.81
328.243	4.96
328.61	5.02
328.978	5.05
329.346	5.22
329.713	5.12
330.08	5.05
330.448	5.03
330.815	4.97
331.182	4.9
331.55	4.85
331.917	4.79
332.284	4.75
332.651	4.81
333.018	4.87
333.385	5.01
333.752	5.04
334.119	5.09
334.486	5.1
334.853	5.15
335.22	5.09
335.587	5.31
335.954	5.17
336.32	5.21
336.687	5.15
337.054	4.95
337.42	5.08
337.787	5.13
338.153	5.12
338.52	5.22
338.886	5.24
339.253	5.21
339.619	5.26
339.986	5.25
340.352	5.31
340.718	5.43
341.084	5.38
341.451	5.47
341.817	5.49
342.183	5.49
342.549	5.5
342.915	5.57
343.281	5.5
343.647	5.54
344.013	5.56
344.379	5.56
344.745	5.61
345.11	5.55
345.476	5.5
345.842	5.47
346.208	5.36
346.573	5.39
346.939	5.61
347.304	5.57
347.67	5.47
348.035	5.44
348.401	5.35
348.766	5.39
349.132	5.34
349.497	5.28
349.862	5.24
350.228	5.29
350.593	5.27
350.958	5.24
351.323	5.28
351.688	5.18
352.053	5.21
352.418	5.29
352.783	5.27
353.148	5.3
353.513	5.38
353.878	5.44
354.243	5.43
354.608	5.31
354.972	5.4
355.337	5.49
355.702	5.49
356.066	5.51
356.431	5.53
356.795	5.57
357.16	5.62
357.524	5.59
357.889	5.47
358.253	5.54
358.618	5.54
358.982	5.55
359.346	5.51
359.71	5.48
360.075	5.42
360.439	5.48
360.803	5.46
361.167	5.47
361.531	5.47
361.895	5.45
362.259	5.42
362.623	5.32
362.987	5.31
363.351	5.31
363.714	5.3
364.078	5.29
364.442	5.21
364.806	5.21
365.169	5.22
365.533	5.32
365.896	5.28
366.26	5.26
366.623	5.24
366.987	5.33
367.35	5.37
367.714	5.36
368.077	5.31
368.44	5.39
368.803	5.37
369.167	5.33
369.53	5.32
369.893	5.33
370.256	5.36
370.619	5.38
370.982	5.33
371.345	5.32
371.708	5.38
372.071	5.44
372.434	5.43
372.797	5.48
373.159	5.42
373.522	5.45
373.885	5.55
374.247	5.54
374.61	5.57
374.973	5.48
375.335	5.47
375.698	5.51
376.06	5.45
376.423	5.46
376.785	5.55
377.147	5.59
377.51	5.58
377.872	5.62
378.234	5.6
378.596	5.67
378.958	5.62
379.321	5.57
379.683	5.59
380.045	5.58
380.407	5.56
380.769	5.54
381.13	5.51
381.492	5.45
381.854	5.44
382.216	5.45
382.578	5.49
382.939	5.48
383.301	5.44
383.663	5.42
384.024	5.41
384.386	5.42
384.747	5.4
385.109	5.45
385.47	5.44
385.832	5.46
386.193	5.43
386.554	5.48
386.916	5.44
387.277	5.42
387.638	5.42
387.999	5.42
388.36	5.45
388.721	5.47
389.082	5.46
389.443	5.45
389.804	5.45
390.165	5.48
390.526	5.51
390.887	5.51
391.248	5.57
391.609	5.59
391.969	5.54
392.33	5.55
392.691	5.49
393.051	5.46
393.412	5.47
393.772	5.44
394.133	5.41
394.493	5.46
394.854	5.5
395.214	5.5
395.574	5.49
395.935	5.47
396.295	5.47
396.655	5.45
397.015	5.44
397.376	5.41
397.736	5.38
398.096	5.38
398.456	5.37
398.816	5.37
399.176	5.37
399.535	5.38
399.895	5.35
400.255	5.37
400.615	5.4
400.975	5.38
401.334	5.41
401.694	5.43
402.054	5.43
402.413	5.42
402.773	5.43
403.132	5.42
403.492	5.46
403.851	5.4
404.211	5.41
404.57	5.44
404.929	5.45
405.288	5.45
405.648	5.43
406.007	5.45
406.366	5.43
406.725	5.44
407.084	5.44
407.443	5.49
407.802	5.53
408.161	5.51
408.52	5.5
408.879	5.47
409.238	5.46
409.596	5.43
409.955	5.4
410.314	5.41
410.673	5.41
411.031	5.39
411.39	5.44
411.748	5.45
412.107	5.45
412.465	5.44
412.824	5.46
413.182	5.45
413.54	5.44
413.899	5.45
414.257	5.45
414.615	5.47
414.974	5.47
415.332	5.43
415.69	5.42
416.048	5.42
416.406	5.45
416.764	5.44
417.122	5.47
417.48	5.47
417.838	5.43
418.195	5.44
418.553	5.44
418.911	5.42
419.269	5.43
419.626	5.42
419.984	5.41
420.342	5.41
420.699	5.42
421.057	5.42
421.414	5.39
421.772	5.37
422.129	5.36
422.486	5.33
422.844	5.34
423.201	5.33
423.558	5.34
423.915	5.32
424.273	5.33
424.63	5.3
424.987	5.29
425.344	5.3
425.701	5.29
426.058	5.29
426.415	5.3
426.772	5.28
427.128	5.26
427.485	5.28
427.842	5.26
428.199	5.25
428.555	5.24
428.912	5.26
429.269	5.25
429.625	5.22
429.982	5.21
430.338	5.22
430.695	5.23
431.051	5.23
431.407	5.22
431.764	5.22
432.12	5.24
432.476	5.26
432.832	5.24
433.189	5.26
433.545	5.25
433.901	5.24
434.257	5.23
434.613	5.24
434.969	5.25
435.325	5.25
435.681	5.26
436.036	5.25
436.392	5.24
436.748	5.24
437.104	5.27
437.459	5.27
437.815	5.25
438.171	5.27
438.526	5.27
438.882	5.27
439.237	5.28
439.593	5.27
439.948	5.28
440.304	5.28
440.659	5.28
441.014	5.28
441.369	5.28
441.725	5.28
442.08	5.29
442.435	5.27
442.79	5.28
443.145	5.28
443.5	5.31
443.855	5.33
444.21	5.34
444.565	5.34
444.92	5.34
445.275	5.35
445.629	5.34
445.984	5.34
446.339	5.33
446.693	5.32
447.048	5.32
447.403	5.32
447.757	5.33
448.112	5.31
448.466	5.3
448.82	5.31
449.175	5.31
449.529	5.31
449.883	5.32
450.238	5.31
450.592	5.31
450.946	5.28
451.3	5.25
451.654	5.26
452.008	5.26
452.362	5.25
452.716	5.25
453.07	5.25
453.424	5.26
453.778	5.26
454.132	5.27
454.486	5.24
454.839	5.22
455.193	5.21
455.547	5.22
455.9	5.24
456.254	5.22
456.607	5.22
456.961	5.21
457.314	5.19
457.668	5.21
458.021	5.18
458.375	5.19
458.728	5.19
459.081	5.2
459.434	5.19
459.787	5.19
460.141	5.18
460.494	5.17
460.847	5.17
461.2	5.18
461.553	5.2
461.906	5.22
462.259	5.23
462.611	5.23
462.964	5.26
463.317	5.26
463.67	5.26
464.022	5.27
464.375	5.27
464.728	5.29
465.08	5.27
465.433	5.3
465.785	5.3
466.138	5.31
466.49	5.33
466.843	5.34
467.195	5.35
467.547	5.37
467.899	5.39
468.252	5.37
468.604	5.36
468.956	5.33
469.308	5.33
469.66	5.3
470.012	5.29
470.364	5.27
470.716	5.27
471.068	5.27
471.42	5.29
471.772	5.3
472.123	5.32
472.475	5.34
472.827	5.33
473.178	5.35
473.53	5.36
473.882	5.31
474.233	5.31
474.585	5.3
474.936	5.28
475.288	5.27
475.639	5.29
475.99	5.29
476.342	5.31
476.693	5.33
477.044	5.37
477.395	5.39
477.746	5.41
478.097	5.39
478.448	5.39
478.8	5.38
479.15	5.36
479.501	5.34
479.852	5.36
480.203	5.38
480.554	5.38
480.905	5.38
481.255	5.41
481.606	5.43
481.957	5.44
482.307	5.46
482.658	5.45
483.009	5.46
483.359	5.46
483.709	5.46
484.06	5.45
484.41	5.45
484.761	5.44
485.111	5.44
485.461	5.46
485.811	5.46
486.162	5.46
486.512	5.48
486.862	5.48
487.212	5.47
487.562	5.47
487.912	5.47
488.262	5.47
488.612	5.47
488.961	5.46
489.311	5.46
489.661	5.45
490.011	5.47
490.36	5.47
490.71	5.48
491.06	5.48
491.409	5.47
491.759	5.48
492.108	5.48
492.458	5.48
492.807	5.46
493.157	5.47
493.506	5.48
493.855	5.47
494.204	5.47
494.554	5.47
494.903	5.45
495.252	5.44
495.601	5.45
495.95	5.44
496.299	5.45
496.648	5.44
496.997	5.44
497.346	5.42
497.695	5.45
498.043	5.45
498.392	5.46
498.741	5.5
499.09	5.5
499.438	5.51
499.787	5.52
500.135	5.53
500.484	5.52
500.832	5.54
501.181	5.56
501.529	5.57
501.878	5.61
502.226	5.65
502.574	5.65
502.923	5.65
503.271	5.67
503.619	5.66
503.967	5.7
504.315	5.69
504.663	5.71
505.011	5.69
505.359	5.7
505.707	5.7
506.055	5.68
506.403	5.7
506.751	5.69
507.098	5.71
507.446	5.72
507.794	5.73
508.141	5.72
508.489	5.73
508.837	5.74
509.184	5.73
509.531	5.73
509.879	5.74
510.226	5.76
510.574	5.76
510.921	5.77
511.268	5.74
511.616	5.76
511.963	5.75
512.31	5.75
512.657	5.75
513.004	5.76
513.351	5.76
513.698	5.75
514.045	5.75
514.392	5.75
514.739	5.74
515.086	5.77
515.432	5.79
515.779	5.76
516.126	5.77
516.473	5.77
516.819	5.79
517.166	5.81
517.512	5.81
517.859	5.81
518.205	5.83
518.552	5.85
518.898	5.85
519.245	5.86
519.591	5.87
519.937	5.87
520.283	5.88
520.629	5.89
520.976	5.9
521.322	5.92
521.668	5.93
522.014	5.93
522.36	5.93
522.706	5.94
523.052	5.96
523.398	5.97
523.743	5.98
524.089	5.98
524.435	5.98
524.781	5.99
525.126	6
525.472	6.01
525.817	6.03
526.163	6.02
526.509	6.03
526.854	6.04
527.199	6.06
527.545	6.06
527.89	6.07
528.235	6.07
528.581	6.08
528.926	6.08
529.271	6.09
529.616	6.08
529.961	6.08
530.306	6.09
530.651	6.1
530.996	6.1
531.341	6.11
531.686	6.11
532.031	6.12
532.376	6.12
532.721	6.13
533.065	6.12
533.41	6.14
533.755	6.15
534.099	6.14
534.444	6.14
534.788	6.13
535.133	6.12
535.477	6.12
535.822	6.12
536.166	6.11
536.51	6.11
536.855	6.14
537.199	6.15
537.543	6.15
537.887	6.16
538.231	6.15
538.576	6.15
538.92	6.17
539.264	6.16
539.608	6.17
539.951	6.17
540.295	6.16
540.639	6.17
540.983	6.17
541.327	6.18
541.671	6.19
542.014	6.19
542.358	6.19
542.701	6.2
543.045	6.19
543.389	6.19
543.732	6.18
544.075	6.19
544.419	6.2
544.762	6.18
545.105	6.16
545.449	6.17
545.792	6.17
546.135	6.18
546.478	6.18
546.821	6.17
547.165	6.16
547.508	6.18
547.851	6.15
548.194	6.15
548.536	6.12
548.879	6.13
549.222	6.12
549.565	6.14
549.908	6.13
550.25	6.14
550.593	6.14
550.936	6.13
551.278	6.12
551.621	6.12
551.963	6.12
552.306	6.13
552.648	6.11
552.991	6.12
553.333	6.09
553.675	6.08
554.017	6.08
554.36	6.07
554.702	6.07
555.044	6.09
555.386	6.1
555.728	6.13
556.07	6.15
556.412	6.14
556.754	6.13
557.096	6.13
557.438	6.15
557.78	6.15
558.121	6.17
558.463	6.17
558.805	6.16
559.147	6.17
559.488	6.17
559.83	6.16
560.171	6.14
560.513	6.17
560.854	6.18
561.196	6.16
561.537	6.19
561.878	6.15
562.22	6.14
562.561	6.13
562.902	6.15
563.243	6.14
563.584	6.15
563.925	6.17
564.266	6.15
564.607	6.17
564.948	6.19
565.289	6.18
565.63	6.19
565.971	6.18
566.312	6.17
566.653	6.18
566.993	6.2
567.334	6.21
567.675	6.21
568.015	6.22
568.356	6.22
568.696	6.21
569.037	6.24
569.377	6.25
569.718	6.26
570.058	6.23
570.398	6.22
570.739	6.22
571.079	6.2
571.419	6.23
571.759	6.25
572.099	6.22
572.439	6.25
572.779	6.22
573.119	6.24
573.459	6.27
573.799	6.29
574.139	6.29
574.479	6.26
574.819	6.23
575.158	6.21
575.498	6.24
575.838	6.25
576.177	6.22
576.517	6.22
576.856	6.22
577.196	6.23
577.535	6.23
577.875	6.28
578.214	6.29
578.553	6.3
578.893	6.27
579.232	6.32
579.571	6.32
579.91	6.34
580.25	6.32
580.589	6.27
580.928	6.26
581.267	6.25
581.606	6.28
581.945	6.29
582.283	6.3
582.622	6.26
582.961	6.25
583.3	6.3
583.639	6.31
583.977	6.33
584.316	6.3
584.654	6.29
584.993	6.28
585.332	6.3
585.67	6.32
586.008	6.3
586.347	6.26
586.685	6.21
587.024	6.21
587.362	6.25
587.7	6.27
588.038	6.32
588.376	6.31
588.715	6.33
589.053	6.37
589.391	6.37
589.729	6.4
590.067	6.4
590.404	6.37
590.742	6.36
591.08	6.33
591.418	6.34
591.756	6.36
592.093	6.35
592.431	6.34
592.769	6.29
593.106	6.31
593.444	6.33
593.781	6.34
594.119	6.38
594.456	6.36
594.793	6.37
595.131	6.32
595.468	6.36
595.805	6.33
596.143	6.32
596.48	6.32
596.817	6.32
597.154	6.33
597.491	6.31
597.828	6.28
598.165	6.32
598.502	6.31
598.839	6.32
599.176	6.33
599.512	6.32
599.849	6.32
600.186	6.35
600.523	6.36
600.859	6.38
601.196	6.35
601.532	6.35
601.869	6.31
602.205	6.28
602.542	6.27
602.878	6.26
603.215	6.25
603.551	6.28
603.887	6.27
604.223	6.24
604.56	6.29
604.896	6.34
605.232	6.3
605.568	6.31
605.904	6.29
606.24	6.31
606.576	6.31
606.912	6.35
607.248	6.32
607.583	6.29
607.919	6.29
608.255	6.3
608.591	6.32
608.926	6.34
609.262	6.42
609.597	6.42
609.933	6.47
610.268	6.5
610.604	6.48
610.939	6.49
611.275	6.51
611.61	6.5
611.945	6.51
612.281	6.56
612.616	6.61
612.951	6.63
613.286	6.63
613.621	6.62
613.956	6.56
614.291	6.53
614.626	6.59
614.961	6.56
615.296	6.52
615.631	6.5
615.966	6.56
616.3	6.52
616.635	6.52
616.97	6.48
617.304	6.46
617.639	6.47
617.973	6.44
618.308	6.43
618.642	6.42
618.977	6.39
619.311	6.33
619.646	6.3
619.98	6.29
620.314	6.28
620.648	6.35
620.983	6.36
621.317	6.43
621.651	6.43
621.985	6.46
622.319	6.47
622.653	6.52
622.987	6.46
623.321	6.47
623.655	6.47
623.988	6.52
624.322	6.52
624.656	6.54
624.99	6.62
625.323	6.65
625.657	6.67
625.99	6.71
626.324	6.74
626.657	6.77
626.991	6.8
627.324	6.79
627.658	6.78
627.991	6.8
628.324	6.79
628.657	6.82
628.991	6.86
629.324	6.88
629.657	6.86
629.99	6.91
630.323	6.94
630.656	6.98
630.989	6.99
631.322	6.97
631.655	6.96
631.987	6.9
632.32	6.89
632.653	6.92
632.986	6.87
633.318	6.86
633.651	6.83
633.984	6.83
634.316	6.81
634.649	6.77
634.981	6.78
635.313	6.75
635.646	6.71
635.978	6.69
636.31	6.62
636.643	6.57
636.975	6.57
637.307	6.52
637.639	6.5
637.971	6.52
638.303	6.52
638.635	6.48
638.967	6.54
639.299	6.59
639.631	6.57
639.963	6.55
640.295	6.53
640.626	6.49
640.958	6.5
641.29	6.53
641.621	6.55
641.953	6.55
642.285	6.51
642.616	6.55
642.948	6.55
643.279	6.57
643.61	6.69
643.942	6.64
644.273	6.71
644.604	6.67
644.936	6.64
645.267	6.69
645.598	6.69
645.929	6.67
646.26	6.7
646.591	6.69
646.922	6.71
647.253	6.77
647.584	6.8
647.915	6.76
648.245	6.74
648.576	6.71
648.907	6.7
649.238	6.75
649.568	6.71
649.899	6.68
650.229	6.7
650.56	6.63
650.89	6.69
651.221	6.66
651.551	6.67
651.882	6.66
652.212	6.64
652.542	6.73
652.872	6.67
653.203	6.6
653.533	6.62
653.863	6.62
654.193	6.61
654.523	6.63
654.853	6.66
655.183	6.63
655.513	6.67
655.843	6.64
656.172	6.66
656.502	6.68
656.832	6.69
657.162	6.77
657.491	6.8
657.821	6.76
658.15	6.74
658.48	6.8
658.809	6.76
659.139	6.73
659.468	6.66
659.798	6.72
660.127	6.75
660.456	6.72
660.785	6.72
661.115	6.7
661.444	6.7
661.773	6.67
662.102	6.67
662.431	6.7
662.76	6.78
663.089	6.78
663.418	6.75
663.747	6.76
664.076	6.73
664.404	6.7
664.733	6.73
665.062	6.73
665.39	6.71
665.719	6.73
666.048	6.83
666.376	6.85
666.705	6.79
667.033	6.77
667.362	6.82
667.69	6.82
668.018	6.85
668.347	6.85
668.675	6.82
669.003	6.87
669.331	6.84
669.659	6.74
669.987	6.74
670.315	6.79
670.643	6.77
670.971	6.76
671.299	6.87
671.627	6.86
671.955	6.81
672.283	6.75
672.61	6.72
672.938	6.63
673.266	6.66
673.593	6.77
673.921	6.71
674.249	6.7
674.576	6.7
674.904	6.69
675.231	6.63
675.558	6.71
675.886	6.69
676.213	6.64
676.54	6.67
676.867	6.72
677.195	6.73
677.522	6.72
677.849	6.78
678.176	6.7
678.503	6.69
678.83	6.83
679.157	6.79
679.484	6.83
679.81	6.83
680.137	6.8
680.464	6.74
680.791	6.72
681.117	6.72
681.444	6.75
681.771	6.72
682.097	6.74
682.424	6.78
682.75	6.82
683.077	6.84
683.403	6.9
683.729	6.86
684.056	6.85
684.382	6.87
684.708	6.76
685.034	6.71
685.36	6.74
685.686	6.65
686.012	6.75
686.339	6.77
686.664	6.8
686.99	6.84
687.316	6.85
687.642	6.9
687.968	6.93
688.294	6.99
688.619	7.08
688.945	7.16
689.271	7.16
689.596	7.1
689.922	7.19
690.247	7.07
690.573	7.16
690.898	7.15
691.224	7.18
691.549	7.33
691.874	7.34
692.2	7.41
692.525	7.48
692.85	7.43
693.175	7.45
693.5	7.45
693.825	7.52
694.15	7.53
694.475	7.58
694.8	7.54
695.125	7.44
695.45	7.3
695.775	7.3
696.099	7.21
696.424	7.27
696.749	7.13
697.073	7.27
697.398	7.15
697.723	7.2
698.047	7.13
698.372	7.01
698.696	6.99
699.02	7
699.345	6.96
699.669	7.04
699.993	7.02
700.318	7.1
700.642	7.04
700.966	7.05
701.29	7.11
701.614	7.18
701.938	7.21
702.262	7.34
702.586	7.34
702.91	7.32
703.234	7.31
703.557	7.45
703.881	7.45
704.205	7.61
704.529	7.57
704.852	7.62
705.176	7.73
705.499	7.89
705.823	7.79
706.146	7.78
706.47	7.82
706.793	7.79
707.117	7.59
707.44	7.54
707.763	7.57
708.086	7.33
708.409	7.17
708.733	7.18
709.056	7.19
709.379	7.26
709.702	7.4
710.025	7.32
710.348	7.36
710.671	7.26
710.993	7.23
711.316	7.35
711.639	7.43
711.962	7.48
712.284	7.39
712.607	7.47
712.93	7.53
713.252	7.42
713.575	7.43
713.897	7.52
714.22	7.61
714.542	7.64
714.864	7.81
715.187	7.95
715.509	8.04
715.831	8.01
716.153	7.92
716.475	7.83
716.798	7.96
717.12	7.76
717.442	7.82
717.764	7.71
718.085	7.64
718.407	7.69
718.729	7.62
719.051	7.61
719.373	7.43
719.695	7.28
720.016	7.37
720.338	7.57
720.659	7.63
720.981	7.44
721.302	7.23
721.624	7.22
721.945	7.11
722.267	6.98
722.588	6.88
722.909	6.9
723.231	6.83
723.552	6.83
723.873	6.98
724.194	6.95
724.515	7.02
724.836	7.01
725.157	6.91
725.478	6.84
725.799	6.87
726.12	6.82
726.441	6.9
726.762	6.97
727.083	6.67
727.403	6.61
727.724	6.81
728.045	7.1
728.365	7.12
728.686	7.24
729.006	7.35
729.327	7.46
729.647	7.62
729.967	7.66
730.288	7.74
730.608	7.72
730.928	7.63
731.249	7.6
731.569	7.78
731.889	7.73
732.209	7.75
732.529	7.72
732.849	7.88
733.169	7.94
733.489	7.82
733.809	7.87
734.129	7.97
734.448	7.89
734.768	7.63
735.088	7.51
735.408	7.48
735.727	7.64
736.047	7.77
736.366	7.6
736.686	7.73
737.005	7.55
737.325	7.73
737.644	7.8
737.963	7.89
738.283	7.57
738.602	7.76
738.921	7.87
739.24	8.06
739.56	7.91
739.879	7.94
740.198	8.11
740.517	8.19
740.836	8.09
741.155	8.15
741.473	8.26
741.792	8.2
742.111	8.31
742.43	8.09
742.748	7.91
743.067	8.08
743.386	7.96
743.704	7.93
744.023	7.79
744.341	7.82
744.66	7.9
744.978	8.05
745.297	8.1
745.615	7.89
745.933	7.7
746.252	7.81
746.57	7.63
746.888	7.34
747.206	7.34
747.524	7.66
747.842	7.43
748.16	7.55
748.478	7.74
748.796	7.69
749.114	7.85
749.432	7.92
749.749	7.89
750.067	7.85
750.385	8.02
750.703	7.86
751.02	7.79
751.338	7.76
751.655	7.82
751.973	7.72
752.29	8.04
752.608	8.07
752.925	8.14
753.242	8.35
753.56	8.58
753.877	8.74
754.194	8.57
754.511	8.86
754.828	8.87
755.145	8.89
755.462	8.8
755.779	8.83
756.096	8.76
756.413	8.71
756.73	8.79
757.047	8.78
757.364	8.84
757.68	9.01
757.997	9.16
758.314	9
758.63	8.92
758.947	8.84
759.264	8.96
759.58	8.92
759.896	9.07
760.213	9.06
760.529	9.01
760.846	9.04
761.162	8.91
761.478	8.87
761.794	8.76
762.11	8.9
762.426	8.79
762.743	8.99
763.059	9
763.375	9.05
763.69	9.02
764.006	9.25
764.322	9.42
764.638	9.44
764.954	9.71
765.27	9.68
765.585	9.62
765.901	9.44
766.216	9.63
766.532	9.52
766.848	9.38
767.163	9.25
767.478	9.15
767.794	9.29
768.109	9.18
768.424	9.26
768.74	9.1
769.055	9.12
769.37	8.91
769.685	8.81
770	8.89
770.315	8.76
770.63	8.64
770.945	8.51
771.26	8.35
771.575	8.01
771.89	8.26
772.205	8.28
772.52	8.32
772.834	7.92
773.149	7.99
773.464	8.11
773.778	8.36
774.093	8.42
774.407	8.54
774.722	8.65
775.036	8.48
775.351	8.71
775.665	8.78
775.979	8.83
776.293	8.99
776.608	9
776.922	9.65
777.236	9.54
777.55	9.25
777.864	9.09
778.178	9.33
778.492	9.5
778.806	9.54
779.12	10.11
779.434	10.59
779.747	10.31
780.061	10.48
780.375	10.57
780.689	10.51
781.002	10.65
781.316	10.8
781.629	11.31
781.943	11.24
782.256	11.46
782.57	11.27
782.883	11.29
783.196	10.79
783.51	10.26
783.823	10.04
784.136	10.2
784.449	10.15
784.762	10.1
785.075	9.84
785.388	9.62
785.701	9.14
786.014	8.86
786.327	9.13
786.64	9.42
786.953	9.16
787.266	9.04
787.578	8.7
787.891	8.56
788.204	8.1
788.516	8.12
788.829	7.94
789.141	8.03
789.454	8.04
789.766	8.49
790.079	8.47
790.391	8.43
790.703	8.33
791.016	8.51
791.328	8.66
791.64	8.72
791.952	8.99
792.264	8.91
792.576	8.71
792.888	8.69
793.2	8.66
793.512	8.82
793.824	9.26
794.136	9.47
794.448	9.61
794.76	9.79
795.071	9.9
795.383	9.71
795.695	9.95
796.006	10.1
796.318	10.05
796.629	9.92
796.941	10.8
797.252	10.6
797.564	10.74
797.875	10.23
798.186	9.92
798.497	10.21
798.809	10.47
799.12	10.6
799.431	10.2
799.742	9.84
800.053	10.11
800.364	9.97
800.675	10.11
800.986	10.07
801.297	9.98
801.608	9.97
801.918	9.87
802.229	9.82
802.54	9.65
802.851	9.6
803.161	9.73
803.472	8.89
803.782	9.62
804.093	9.46
804.403	9.85
804.714	9.86
805.024	9.39
805.334	9.34
805.645	9.6
805.955	10.28
806.265	10.96
806.575	10.77
806.885	10.43
807.195	10.46
807.505	10.35
807.815	10.62
808.125	10.58
808.435	10.39
808.745	10.34
809.055	10.8
809.365	10.55
809.674	10.53
809.984	11.19
810.294	10.47
810.603	10.83
810.913	11.22
811.222	11.54
811.532	12.15
811.841	12.67
812.151	13.6
812.46	13.45
812.769	12.59
813.079	12.19
813.388	12.6
813.697	12.2
814.006	12.42
814.315	12.12
814.624	11.44
814.933	12.04
815.242	12.01
815.551	11.81
815.86	12.21
816.169	12.13
816.478	12.21
816.786	12.4
817.095	12.36
817.404	12.31
817.712	11.92
818.021	11.76
818.33	11.29
818.638	10.61
818.947	11.71
819.255	12.09
819.563	12.36
819.872	11.94
820.18	12.2
820.488	12.3
820.796	12.51
821.105	12.62
821.413	12.76
821.721	12.43
822.029	12.32
822.337	12.43
822.645	12.5
822.953	12.48
823.26	12.51
823.568	12.26
823.876	12.06
824.184	12.16
824.491	12.14
824.799	12.13
825.107	12.16
825.414	11.88
825.722	11.81
826.029	11.73
826.337	12.02
826.644	12.04
826.951	11.88
827.259	11.78
827.566	11.83
827.873	11.63
828.18	11.85
828.488	11.92
828.795	11.87
829.102	12
829.409	11.93
829.716	12.05
830.023	12.27
830.329	12.62
830.636	12.66
830.943	12.54
831.25	12.68
831.557	12.44
831.863	12.53
832.17	12.35
832.476	12.53
832.783	12.43
833.089	11.99
833.396	12.13
833.702	12.04
834.009	12.24
834.315	12.19
834.621	12.09
834.928	12.01
835.234	11.88
835.54	11.63
835.846	11.47
836.152	11.26
836.458	11.62
836.764	11.46
837.07	11.08
837.376	11.14
837.682	11.03
837.988	11.02
838.293	10.52
838.599	10.58
838.905	10.25
839.211	9.99
839.516	10.62
839.822	10.53
840.127	10.85
840.433	10.43
840.738	10.5
841.044	10.75
841.349	10.53
841.654	10.7
841.959	11.36
842.265	11.07
842.57	11.26
842.875	11.16
843.18	11.19
843.485	12.58
843.79	12.71
844.095	13.4
844.4	14.52
844.705	13.72
845.01	13.9
845.315	13.47
845.619	13.18
845.924	12.18
846.229	12.87
846.533	13.28
846.838	13.53
847.142	11.81
847.447	11.25
847.751	11.52
848.056	11.5
848.36	10.7
848.664	12.16
848.969	12.51
849.273	10.75
849.577	9.13
849.881	8.25
850.185	8.83
850.489	8.74
850.794	7.78
851.097	9.94
851.401	10.55
851.705	10.8
852.009	12.36
852.313	11.68
852.617	10.99
852.92	10.21
853.224	9.26
853.528	12.28
853.831	12.77
854.135	13.8
854.438	12.62
854.742	12.07
855.045	12.19
855.349	13.55
855.652	14.22
855.955	15.32
856.259	13.75
856.562	11.63
856.865	11.86
857.168	12.72
857.471	11.54
857.774	12.71
858.077	13.35
858.38	11.77
858.683	12.07
858.986	13.63
859.289	13.51
859.592	13.68
859.894	13.38
860.197	12.84
860.5	10.58
860.802	11.28
861.105	12.07
861.407	10.02
861.71	9.08
862.012	9.65
862.315	9.96
862.617	11.15
862.919	12.23
863.222	10.79
863.524	9.79
863.826	10.86
864.128	9.83
864.43	9.56
864.732	8.34
865.034	10.18
865.336	7.67
865.638	6.14
865.94	7.01
866.242	4.25
866.544	6.03
866.846	7.01
867.147	5.52
867.449	4.72
867.751	8.69
868.052	9.99
868.354	8.15
868.655	8.94
868.957	8.25
869.258	7.05
869.56	7.01
869.861	6.16
870.162	5.33
870.463	5.73
870.765	5.95
871.066	6.86
871.367	4.69
871.668	5.25
871.969	6.37
872.27	4.23
872.571	6.79
872.872	5.82
873.173	4.98
873.473	6.67
873.774	6.96
874.075	3.51
874.376	-1.24
874.676	0.23
874.977	-0.66
875.277	2.26
875.578	4.1
875.878	4.17
876.179	4.7
876.479	5.39
876.78	3.94
877.08	3.59
877.38	3.35
877.68	4.5
877.981	4.49
878.281	4.78
878.581	7.55
