Data from BA56813_Reflection_00007.txt Node
Date: Mon Nov 18 15:50:51 EST 2019
User: vgr7
Spectrometer: USB2G7710
Scans to average: 3
Trigger mode: 4
Integration Time (sec): 2.000000E-2
Electric dark correction enabled: true
Boxcar width: 10
XAxis mode: Wavelengths
Number of Pixels in Spectrum: 2048
>>>>>Begin Spectral Data<<<<<
177.721	-30.3
178.105	29.33
178.488	183.42
178.871	177.84
179.254	59.95
179.636	128.69
180.019	542.21
180.402	61.54
180.785	134.94
181.168	95.07
181.55	45.11
181.933	89.56
182.316	81.45
182.698	81.2
183.081	66.6
183.463	47.19
183.846	59.74
184.228	74.71
184.611	82.96
184.993	83.45
185.376	79.36
185.758	65.76
186.14	55.63
186.522	68.09
186.904	75.93
187.287	38.16
187.669	47.21
188.051	44.9
188.433	38.35
188.815	2.22
189.197	16.04
189.579	-11.03
189.961	21.61
190.342	26.43
190.724	-14.51
191.106	45.95
191.488	40.12
191.869	126.57
192.251	104.45
192.633	145.69
193.014	327.54
193.396	146.82
193.777	79.06
194.159	-700
194.54	-240.06
194.922	-571.14
195.303	-92.77
195.684	-77.28
196.065	-54.55
196.447	-72.12
196.828	-77.43
197.209	-70.32
197.59	-106.93
197.971	-61.7
198.352	-27.49
198.733	-40.88
199.114	-30.42
199.495	-26.59
199.876	-62.52
200.257	-35.68
200.638	-12.32
201.018	-10.28
201.399	-5.12
201.78	1.15
202.16	24.83
202.541	-14.53
202.922	-64.55
203.302	-86.37
203.683	-45.32
204.063	-83.49
204.444	-90.4
204.824	-109.17
205.204	-109.05
205.585	-91.28
205.965	-102.43
206.345	-1270.63
206.725	671.43
207.106	291.19
207.486	291.86
207.866	270.31
208.246	250.46
208.626	335.16
209.006	275.37
209.386	299.04
209.766	407.69
210.145	676.03
210.525	-2644.53
210.905	-561.47
211.285	-1410.2
211.664	-6069.49
212.044	-10471.43
212.424	-830.96
212.803	6263.93
213.183	-1504.06
213.562	-608.22
213.942	-324.64
214.321	-112.03
214.701	-70.3
215.08	-65.95
215.459	-40.36
215.838	-32.71
216.218	-34.91
216.597	-29
216.976	-24.75
217.355	-14.11
217.734	-14.91
218.113	-9.08
218.492	2.64
218.871	21.73
219.25	25.29
219.629	24.85
220.008	37.43
220.387	37.75
220.766	41.21
221.144	25.65
221.523	16.77
221.902	18.36
222.28	13.14
222.659	3.37
223.037	-2.59
223.416	-6.55
223.794	-6.17
224.173	-13.4
224.551	-12.91
224.929	-21.71
225.308	-22.44
225.686	-16.07
226.064	-10.56
226.442	-7.45
226.821	-8.94
227.199	-9.05
227.577	-10.09
227.955	-13.51
228.333	-8.36
228.711	-5.96
229.089	-2.2
229.467	-4.24
229.845	-7.79
230.222	-6.76
230.6	-4.7
230.978	-5.87
231.356	-2.5
231.733	-1.43
232.111	0.83
232.488	1.67
232.866	3.86
233.243	3.12
233.621	3.77
233.998	3.62
234.376	3.24
234.753	2.83
235.13	3.3
235.508	5.84
235.885	7.27
236.262	5.37
236.639	3.93
237.016	3.13
237.393	5.07
237.77	6.03
238.147	7.26
238.524	6.47
238.901	7.08
239.278	6.87
239.655	6.52
240.032	5.96
240.409	5.31
240.785	4.95
241.162	5.24
241.539	4.78
241.915	5.09
242.292	4.58
242.668	4.79
243.045	4.98
243.421	4.6
243.798	4.59
244.174	4.45
244.551	4.89
244.927	4.6
245.303	4.63
245.679	4.91
246.056	4.72
246.432	4.87
246.808	4.94
247.184	4.73
247.56	4.42
247.936	4.28
248.312	4.26
248.688	4.34
249.064	4.15
249.44	4.28
249.815	4.19
250.191	4.31
250.567	4.16
250.943	3.96
251.318	4.11
251.694	4.13
252.069	4.06
252.445	3.74
252.82	4.15
253.196	4.06
253.571	3.97
253.947	3.72
254.322	3.67
254.697	3.53
255.073	3.44
255.448	3.58
255.823	3.77
256.198	4.07
256.573	4.13
256.948	4.37
257.323	4.21
257.698	4.34
258.073	4.25
258.448	4.48
258.823	4.51
259.198	4.3
259.573	4.16
259.948	4.05
260.322	4.08
260.697	3.94
261.072	3.69
261.446	3.52
261.821	3.49
262.195	3.57
262.57	3.55
262.944	3.51
263.319	3.5
263.693	3.34
264.067	3.33
264.442	3.31
264.816	3.18
265.19	3.36
265.564	3.27
265.938	3.23
266.313	2.91
266.687	2.88
267.061	3
267.435	3.12
267.809	3.45
268.183	3.54
268.556	3.47
268.93	3.86
269.304	3.92
269.678	4
270.051	4.01
270.425	3.9
270.799	4.05
271.172	4.13
271.546	4.27
271.919	4.02
272.293	4
272.666	4.13
273.04	4.13
273.413	4.1
273.787	4.16
274.16	4.15
274.533	4.07
274.906	3.99
275.279	3.93
275.653	3.89
276.026	3.76
276.399	3.85
276.772	3.6
277.145	3.49
277.518	3.47
277.891	3.49
278.263	3.6
278.636	3.52
279.009	3.49
279.382	3.44
279.755	3.58
280.127	3.66
280.5	3.67
280.872	3.58
281.245	3.47
281.617	3.53
281.99	3.57
282.362	3.67
282.735	3.66
283.107	3.6
283.479	3.69
283.852	3.71
284.224	3.8
284.596	3.9
284.968	4.09
285.34	4.3
285.713	4.2
286.085	4.2
286.457	4.24
286.829	4.24
287.201	4.28
287.572	4.24
287.944	4.22
288.316	4.18
288.688	4.19
289.06	4.16
289.431	4.11
289.803	4.18
290.175	4.22
290.546	4.34
290.918	4.47
291.289	4.27
291.661	4.25
292.032	4.42
292.403	4.43
292.775	4.31
293.146	4.17
293.517	4.12
293.889	4.23
294.26	4.09
294.631	4.11
295.002	4.08
295.373	4.27
295.744	4.37
296.115	4.37
296.486	4.2
296.857	4.2
297.228	4.26
297.599	4.2
297.97	4.12
298.34	4.14
298.711	4.11
299.082	4.16
299.452	4.14
299.823	3.98
300.194	3.94
300.564	3.9
300.935	3.83
301.305	3.94
301.676	3.9
302.046	4.02
302.416	4.19
302.787	4.33
303.157	4.28
303.527	4.18
303.897	4.3
304.267	4.64
304.637	4.83
305.008	4.91
305.378	5.01
305.748	5.22
306.117	5.2
306.487	5.29
306.857	5.41
307.227	5.62
307.597	5.61
307.967	5.62
308.336	5.67
308.706	5.75
309.076	5.73
309.445	5.77
309.815	5.78
310.184	5.59
310.554	5.61
310.923	5.46
311.293	5.51
311.662	5.44
312.031	5.32
312.401	5.29
312.77	5.29
313.139	5.4
313.508	5.27
313.877	5.28
314.246	5.33
314.616	5.31
314.985	5.24
315.353	5.17
315.722	5.26
316.091	5.39
316.46	5.44
316.829	5.5
317.198	5.52
317.567	5.56
317.935	5.69
318.304	5.7
318.672	5.79
319.041	5.86
319.41	5.83
319.778	5.93
320.147	6
320.515	5.91
320.883	5.72
321.252	5.87
321.62	5.96
321.988	5.97
322.357	6.06
322.725	6.06
323.093	6.28
323.461	6.33
323.829	6.3
324.197	6.35
324.565	6.46
324.933	6.41
325.301	6.43
325.669	6.44
326.037	6.33
326.405	6.41
326.772	6.49
327.14	6.68
327.508	6.69
327.875	6.67
328.243	6.81
328.61	6.92
328.978	6.97
329.346	7.02
329.713	6.79
330.08	6.85
330.448	6.9
330.815	6.79
331.182	6.8
331.55	6.87
331.917	6.91
332.284	6.88
332.651	6.89
333.018	6.92
333.385	7
333.752	7.05
334.119	7.01
334.486	6.95
334.853	6.9
335.22	6.86
335.587	6.89
335.954	6.86
336.32	6.8
336.687	6.83
337.054	6.78
337.42	7.08
337.787	7.09
338.153	7.03
338.52	7.13
338.886	7.13
339.253	7.11
339.619	7.05
339.986	7.1
340.352	7.26
340.718	7.31
341.084	7.28
341.451	7.32
341.817	7.41
342.183	7.4
342.549	7.41
342.915	7.53
343.281	7.59
343.647	7.61
344.013	7.65
344.379	7.64
344.745	7.61
345.11	7.51
345.476	7.53
345.842	7.55
346.208	7.53
346.573	7.59
346.939	7.71
347.304	7.75
347.67	7.69
348.035	7.56
348.401	7.52
348.766	7.55
349.132	7.53
349.497	7.46
349.862	7.53
350.228	7.51
350.593	7.4
350.958	7.34
351.323	7.41
351.688	7.47
352.053	7.46
352.418	7.51
352.783	7.57
353.148	7.49
353.513	7.55
353.878	7.52
354.243	7.51
354.608	7.45
354.972	7.45
355.337	7.47
355.702	7.54
356.066	7.59
356.431	7.59
356.795	7.65
357.16	7.66
357.524	7.65
357.889	7.62
358.253	7.71
358.618	7.81
358.982	7.73
359.346	7.66
359.71	7.64
360.075	7.66
360.439	7.63
360.803	7.67
361.167	7.65
361.531	7.62
361.895	7.54
362.259	7.53
362.623	7.51
362.987	7.52
363.351	7.51
363.714	7.54
364.078	7.52
364.442	7.39
364.806	7.42
365.169	7.37
365.533	7.4
365.896	7.35
366.26	7.29
366.623	7.3
366.987	7.32
367.35	7.32
367.714	7.28
368.077	7.23
368.44	7.24
368.803	7.23
369.167	7.23
369.53	7.26
369.893	7.24
370.256	7.23
370.619	7.18
370.982	7.09
371.345	6.95
371.708	6.97
372.071	7.05
372.434	7
372.797	6.95
373.159	6.86
373.522	6.89
373.885	6.83
374.247	6.8
374.61	6.78
374.973	6.69
375.335	6.65
375.698	6.61
376.06	6.53
376.423	6.49
376.785	6.53
377.147	6.47
377.51	6.41
377.872	6.4
378.234	6.45
378.596	6.44
378.958	6.41
379.321	6.35
379.683	6.35
380.045	6.34
380.407	6.33
380.769	6.29
381.13	6.18
381.492	6.14
381.854	6.09
382.216	6.06
382.578	6.06
382.939	6.03
383.301	6
383.663	5.94
384.024	5.87
384.386	5.87
384.747	5.86
385.109	5.84
385.47	5.77
385.832	5.69
386.193	5.72
386.554	5.67
386.916	5.65
387.277	5.62
387.638	5.6
387.999	5.53
388.36	5.49
388.721	5.48
389.082	5.47
389.443	5.44
389.804	5.44
390.165	5.41
390.526	5.36
390.887	5.34
391.248	5.33
391.609	5.38
391.969	5.29
392.33	5.25
392.691	5.2
393.051	5.19
393.412	5.18
393.772	5.12
394.133	5.14
394.493	5.13
394.854	5.07
395.214	5.02
395.574	5.02
395.935	5.02
396.295	5.04
396.655	4.96
397.015	4.93
397.376	4.87
397.736	4.82
398.096	4.83
398.456	4.82
398.816	4.8
399.176	4.74
399.535	4.7
399.895	4.67
400.255	4.68
400.615	4.63
400.975	4.6
401.334	4.57
401.694	4.52
402.054	4.47
402.413	4.44
402.773	4.39
403.132	4.37
403.492	4.33
403.851	4.27
404.211	4.31
404.57	4.27
404.929	4.27
405.288	4.24
405.648	4.2
406.007	4.18
406.366	4.17
406.725	4.17
407.084	4.2
407.443	4.21
407.802	4.22
408.161	4.2
408.52	4.15
408.879	4.16
409.238	4.16
409.596	4.17
409.955	4.16
410.314	4.18
410.673	4.17
411.031	4.16
411.39	4.14
411.748	4.13
412.107	4.16
412.465	4.15
412.824	4.16
413.182	4.17
413.54	4.17
413.899	4.19
414.257	4.14
414.615	4.1
414.974	4.07
415.332	4.02
415.69	4.01
416.048	4.03
416.406	4.01
416.764	4
417.122	3.99
417.48	3.96
417.838	3.94
418.195	3.91
418.553	3.91
418.911	3.88
419.269	3.86
419.626	3.84
419.984	3.82
420.342	3.84
420.699	3.82
421.057	3.8
421.414	3.77
421.772	3.77
422.129	3.78
422.486	3.76
422.844	3.76
423.201	3.72
423.558	3.72
423.915	3.69
424.273	3.68
424.63	3.66
424.987	3.67
425.344	3.65
425.701	3.65
426.058	3.64
426.415	3.64
426.772	3.65
427.128	3.65
427.485	3.65
427.842	3.62
428.199	3.62
428.555	3.63
428.912	3.63
429.269	3.63
429.625	3.6
429.982	3.6
430.338	3.59
430.695	3.62
431.051	3.61
431.407	3.62
431.764	3.62
432.12	3.6
432.476	3.57
432.832	3.56
433.189	3.56
433.545	3.55
433.901	3.55
434.257	3.53
434.613	3.52
434.969	3.51
435.325	3.52
435.681	3.5
436.036	3.48
436.392	3.47
436.748	3.45
437.104	3.47
437.459	3.47
437.815	3.48
438.171	3.47
438.526	3.46
438.882	3.45
439.237	3.45
439.593	3.46
439.948	3.46
440.304	3.49
440.659	3.49
441.014	3.49
441.369	3.49
441.725	3.49
442.08	3.5
442.435	3.49
442.79	3.47
443.145	3.48
443.5	3.49
443.855	3.49
444.21	3.5
444.565	3.49
444.92	3.49
445.275	3.48
445.629	3.49
445.984	3.49
446.339	3.48
446.693	3.47
447.048	3.46
447.403	3.47
447.757	3.44
448.112	3.43
448.466	3.43
448.82	3.43
449.175	3.43
449.529	3.41
449.883	3.4
450.238	3.4
450.592	3.4
450.946	3.37
451.3	3.37
451.654	3.36
452.008	3.36
452.362	3.32
452.716	3.33
453.07	3.34
453.424	3.36
453.778	3.36
454.132	3.35
454.486	3.34
454.839	3.33
455.193	3.34
455.547	3.35
455.9	3.35
456.254	3.36
456.607	3.36
456.961	3.35
457.314	3.37
457.668	3.37
458.021	3.36
458.375	3.36
458.728	3.35
459.081	3.35
459.434	3.34
459.787	3.36
460.141	3.35
460.494	3.36
460.847	3.34
461.2	3.34
461.553	3.36
461.906	3.38
462.259	3.39
462.611	3.41
462.964	3.42
463.317	3.4
463.67	3.4
464.022	3.39
464.375	3.39
464.728	3.39
465.08	3.39
465.433	3.4
465.785	3.4
466.138	3.4
466.49	3.4
466.843	3.42
467.195	3.42
467.547	3.45
467.899	3.43
468.252	3.45
468.604	3.47
468.956	3.46
469.308	3.46
469.66	3.45
470.012	3.43
470.364	3.43
470.716	3.46
471.068	3.48
471.42	3.49
471.772	3.5
472.123	3.5
472.475	3.52
472.827	3.53
473.178	3.53
473.53	3.55
473.882	3.56
474.233	3.56
474.585	3.55
474.936	3.53
475.288	3.54
475.639	3.54
475.99	3.52
476.342	3.49
476.693	3.49
477.044	3.52
477.395	3.54
477.746	3.55
478.097	3.52
478.448	3.51
478.8	3.52
479.15	3.52
479.501	3.52
479.852	3.52
480.203	3.53
480.554	3.54
480.905	3.55
481.255	3.54
481.606	3.54
481.957	3.54
482.307	3.55
482.658	3.54
483.009	3.54
483.359	3.53
483.709	3.56
484.06	3.55
484.41	3.54
484.761	3.54
485.111	3.54
485.461	3.54
485.811	3.54
486.162	3.53
486.512	3.53
486.862	3.53
487.212	3.52
487.562	3.52
487.912	3.51
488.262	3.51
488.612	3.52
488.961	3.51
489.311	3.51
489.661	3.51
490.011	3.52
490.36	3.52
490.71	3.53
491.06	3.53
491.409	3.53
491.759	3.52
492.108	3.52
492.458	3.52
492.807	3.52
493.157	3.53
493.506	3.55
493.855	3.57
494.204	3.57
494.554	3.59
494.903	3.59
495.252	3.58
495.601	3.61
495.95	3.61
496.299	3.63
496.648	3.64
496.997	3.66
497.346	3.68
497.695	3.71
498.043	3.71
498.392	3.74
498.741	3.77
499.09	3.79
499.438	3.82
499.787	3.85
500.135	3.9
500.484	3.93
500.832	3.96
501.181	4
501.529	4.02
501.878	4.06
502.226	4.09
502.574	4.13
502.923	4.13
503.271	4.17
503.619	4.2
503.967	4.24
504.315	4.29
504.663	4.32
505.011	4.38
505.359	4.44
505.707	4.49
506.055	4.53
506.403	4.6
506.751	4.64
507.098	4.69
507.446	4.75
507.794	4.8
508.141	4.86
508.489	4.89
508.837	4.96
509.184	5.04
509.531	5.12
509.879	5.21
510.226	5.3
510.574	5.36
510.921	5.42
511.268	5.49
511.616	5.55
511.963	5.63
512.31	5.68
512.657	5.77
513.004	5.87
513.351	5.98
513.698	6.07
514.045	6.16
514.392	6.26
514.739	6.34
515.086	6.45
515.432	6.55
515.779	6.68
516.126	6.78
516.473	6.85
516.819	6.94
517.166	7.03
517.512	7.11
517.859	7.23
518.205	7.36
518.552	7.48
518.898	7.58
519.245	7.7
519.591	7.82
519.937	7.92
520.283	8.03
520.629	8.15
520.976	8.3
521.322	8.46
521.668	8.62
522.014	8.79
522.36	8.95
522.706	9.14
523.052	9.34
523.398	9.57
523.743	9.82
524.089	10.06
524.435	10.27
524.781	10.5
525.126	10.7
525.472	10.89
525.817	11.05
526.163	11.23
526.509	11.38
526.854	11.54
527.199	11.69
527.545	11.82
527.89	11.97
528.235	12.11
528.581	12.28
528.926	12.43
529.271	12.6
529.616	12.77
529.961	12.94
530.306	13.11
530.651	13.27
530.996	13.46
531.341	13.65
531.686	13.85
532.031	14.06
532.376	14.29
532.721	14.51
533.065	14.75
533.41	15
533.755	15.25
534.099	15.5
534.444	15.75
534.788	16.02
535.133	16.27
535.477	16.54
535.822	16.81
536.166	17.1
536.51	17.39
536.855	17.72
537.199	18.06
537.543	18.39
537.887	18.73
538.231	19.07
538.576	19.43
538.92	19.76
539.264	20.09
539.608	20.4
539.951	20.71
540.295	21
540.639	21.3
540.983	21.56
541.327	21.8
541.671	22.08
542.014	22.38
542.358	22.62
542.701	22.86
543.045	23.12
543.389	23.38
543.732	23.64
544.075	23.89
544.419	24.16
544.762	24.45
545.105	24.75
545.449	25.04
545.792	25.32
546.135	25.67
546.478	25.97
546.821	26.32
547.165	26.64
547.508	26.96
547.851	27.31
548.194	27.7
548.536	28.08
548.879	28.44
549.222	28.76
549.565	29.13
549.908	29.54
550.25	29.88
550.593	30.26
550.936	30.62
551.278	30.99
551.621	31.33
551.963	31.66
552.306	31.99
552.648	32.37
552.991	32.72
553.333	33.05
553.675	33.36
554.017	33.62
554.36	33.92
554.702	34.24
555.044	34.44
555.386	34.72
555.728	35.04
556.07	35.3
556.412	35.55
556.754	35.84
557.096	36.07
557.438	36.35
557.78	36.64
558.121	36.94
558.463	37.24
558.805	37.53
559.147	37.83
559.488	38.09
559.83	38.37
560.171	38.65
560.513	38.95
560.854	39.2
561.196	39.51
561.537	39.8
561.878	40.06
562.22	40.4
562.561	40.63
562.902	40.82
563.243	41.13
563.584	41.42
563.925	41.64
564.266	41.83
564.607	42.09
564.948	42.27
565.289	42.46
565.63	42.67
565.971	42.87
566.312	43.08
566.653	43.3
566.993	43.46
567.334	43.64
567.675	43.78
568.015	44.03
568.356	44.19
568.696	44.38
569.037	44.59
569.377	44.73
569.718	44.96
570.058	45.22
570.398	45.37
570.739	45.52
571.079	45.66
571.419	45.92
571.759	46.04
572.099	46.22
572.439	46.36
572.779	46.49
573.119	46.62
573.459	46.74
573.799	46.91
574.139	47.02
574.479	47.2
574.819	47.34
575.158	47.44
575.498	47.63
575.838	47.73
576.177	47.87
576.517	48
576.856	48.13
577.196	48.24
577.535	48.33
577.875	48.43
578.214	48.59
578.553	48.67
578.893	48.83
579.232	49.02
579.571	49.22
579.91	49.39
580.25	49.51
580.589	49.72
580.928	49.89
581.267	50.08
581.606	50.25
581.945	50.39
582.283	50.48
582.622	50.61
582.961	50.71
583.3	50.8
583.639	50.91
583.977	51
584.316	51.06
584.654	51.17
584.993	51.34
585.332	51.48
585.67	51.61
586.008	51.67
586.347	51.77
586.685	51.84
587.024	51.88
587.362	51.99
587.7	52.06
588.038	52.12
588.376	52.19
588.715	52.18
589.053	52.31
589.391	52.5
589.729	52.61
590.067	52.73
590.404	52.84
590.742	52.93
591.08	53.03
591.418	53.18
591.756	53.33
592.093	53.4
592.431	53.52
592.769	53.64
593.106	53.77
593.444	53.88
593.781	53.92
594.119	53.98
594.456	54.04
594.793	54.05
595.131	54.13
595.468	54.28
595.805	54.32
596.143	54.32
596.48	54.32
596.817	54.33
597.154	54.4
597.491	54.53
597.828	54.58
598.165	54.6
598.502	54.63
598.839	54.67
599.176	54.74
599.512	54.78
599.849	54.84
600.186	54.91
600.523	54.92
600.859	55.04
601.196	55.19
601.532	55.26
601.869	55.32
602.205	55.31
602.542	55.35
602.878	55.43
603.215	55.52
603.551	55.61
603.887	55.68
604.223	55.71
604.56	55.69
604.896	55.82
605.232	55.9
605.568	55.95
605.904	55.97
606.24	56.02
606.576	56.02
606.912	56.08
607.248	56.09
607.583	56.18
607.919	56.18
608.255	56.22
608.591	56.36
608.926	56.47
609.262	56.51
609.597	56.6
609.933	56.65
610.268	56.66
610.604	56.72
610.939	56.78
611.275	56.86
611.61	56.9
611.945	56.88
612.281	56.89
612.616	56.89
612.951	57.07
613.286	57.14
613.621	57.24
613.956	57.14
614.291	57.21
614.626	57.19
614.961	57.3
615.296	57.34
615.631	57.33
615.966	57.3
616.3	57.43
616.635	57.46
616.97	57.56
617.304	57.61
617.639	57.64
617.973	57.61
618.308	57.59
618.642	57.63
618.977	57.71
619.311	57.68
619.646	57.72
619.98	57.66
620.314	57.59
620.648	57.66
620.983	57.82
621.317	57.86
621.651	57.93
621.985	57.95
622.319	57.88
622.653	57.89
622.987	57.98
623.321	57.92
623.655	57.93
623.988	57.98
624.322	58.04
624.656	57.99
624.99	58.06
625.323	58.12
625.657	58.14
625.99	58.09
626.324	58.13
626.657	58.19
626.991	58.21
627.324	58.34
627.658	58.33
627.991	58.33
628.324	58.31
628.657	58.28
628.991	58.23
629.324	58.29
629.657	58.34
629.99	58.35
630.323	58.42
630.656	58.33
630.989	58.35
631.322	58.37
631.655	58.48
631.987	58.53
632.32	58.61
632.653	58.63
632.986	58.61
633.318	58.61
633.651	58.62
633.984	58.6
634.316	58.49
634.649	58.5
634.981	58.57
635.313	58.74
635.646	58.86
635.978	58.92
636.31	59.01
636.643	59.05
636.975	59.04
637.307	59.01
637.639	59.06
637.971	59.05
638.303	59.03
638.635	59
638.967	58.94
639.299	58.81
639.631	58.82
639.963	58.93
640.295	59.06
640.626	59.09
640.958	59.13
641.29	59.26
641.621	59.27
641.953	59.12
642.285	59
642.616	58.95
642.948	58.98
643.279	58.89
643.61	58.94
643.942	58.99
644.273	59.03
644.604	59.14
644.936	59.23
645.267	59.37
645.598	59.49
645.929	59.5
646.26	59.7
646.591	59.79
646.922	59.76
647.253	59.74
647.584	59.83
647.915	59.82
648.245	59.88
648.576	59.87
648.907	60.03
649.238	60.01
649.568	60.03
649.899	59.98
650.229	60.08
650.56	59.97
650.89	60.05
651.221	60.17
651.551	60.04
651.882	59.98
652.212	59.92
652.542	59.9
652.872	59.88
653.203	59.76
653.533	59.68
653.863	59.78
654.193	59.8
654.523	59.87
654.853	59.98
655.183	59.97
655.513	60.1
655.843	60.1
656.172	60.22
656.502	60.34
656.832	60.4
657.162	60.42
657.491	60.46
657.821	60.45
658.15	60.45
658.48	60.48
658.809	60.52
659.139	60.49
659.468	60.44
659.798	60.55
660.127	60.63
660.456	60.66
660.785	60.69
661.115	60.76
661.444	60.69
661.773	60.69
662.102	60.64
662.431	60.62
662.76	60.64
663.089	60.61
663.418	60.52
663.747	60.55
664.076	60.55
664.404	60.64
664.733	60.68
665.062	60.67
665.39	60.76
665.719	60.71
666.048	60.68
666.376	60.63
666.705	60.5
667.033	60.44
667.362	60.42
667.69	60.5
668.018	60.48
668.347	60.47
668.675	60.4
669.003	60.53
669.331	60.58
669.659	60.62
669.987	60.66
670.315	60.67
670.643	60.65
670.971	60.78
671.299	60.63
671.627	60.45
671.955	60.53
672.283	60.58
672.61	60.55
672.938	60.62
673.266	60.71
673.593	60.76
673.921	60.67
674.249	60.75
674.576	60.61
674.904	60.64
675.231	60.68
675.558	60.66
675.886	60.57
676.213	60.54
676.54	60.53
676.867	60.66
677.195	60.7
677.522	60.81
677.849	60.65
678.176	60.75
678.503	60.92
678.83	60.85
679.157	60.88
679.484	60.8
679.81	60.88
680.137	60.95
680.464	60.97
680.791	61.02
681.117	61.08
681.444	61.05
681.771	60.99
682.097	61
682.424	61.06
682.75	61.08
683.077	61.15
683.403	61.12
683.729	61.06
684.056	61.08
684.382	61.04
684.708	61.19
685.034	61.17
685.36	61.18
685.686	61.1
686.012	61.01
686.339	61.24
686.664	61.21
686.99	61.32
687.316	61.44
687.642	61.35
687.968	61.29
688.294	61.4
688.619	61.41
688.945	61.35
689.271	61.27
689.596	61.21
689.922	61.15
690.247	61.08
690.573	61.1
690.898	61.17
691.224	61.11
691.549	61.05
691.874	61.15
692.2	61.14
692.525	61.25
692.85	61.25
693.175	61.14
693.5	61.2
693.825	61.06
694.15	60.84
694.475	61.02
694.8	61.15
695.125	61.24
695.45	61.33
695.775	61.4
696.099	61.64
696.424	61.78
696.749	61.85
697.073	61.99
697.398	61.94
697.723	61.93
698.047	61.97
698.372	61.92
698.696	61.74
699.02	61.73
699.345	61.6
699.669	61.6
699.993	61.62
700.318	61.54
700.642	61.51
700.966	61.67
701.29	61.59
701.614	61.59
701.938	61.43
702.262	61.5
702.586	61.44
702.91	61.31
703.234	61.25
703.557	61.18
703.881	61.1
704.205	61.1
704.529	60.93
704.852	60.79
705.176	61.02
705.499	61.24
705.823	61.25
706.146	61.51
706.47	61.58
706.793	61.46
707.117	61.45
707.44	61.58
707.763	61.61
708.086	61.69
708.409	61.52
708.733	61.63
709.056	61.45
709.379	61.55
709.702	61.46
710.025	61.42
710.348	61.49
710.671	61.43
710.993	61.57
711.316	61.62
711.639	61.78
711.962	61.62
712.284	61.7
712.607	61.72
712.93	61.63
713.252	61.58
713.575	61.79
713.897	61.89
714.22	61.79
714.542	61.82
714.864	61.96
715.187	62.14
715.509	62.23
715.831	62.45
716.153	62.47
716.475	62.63
716.798	62.74
717.12	62.61
717.442	62.81
717.764	62.58
718.085	62.55
718.407	62.59
718.729	62.46
719.051	62.63
719.373	62.46
719.695	62.53
720.016	62.52
720.338	62.43
720.659	62.46
720.981	62.48
721.302	62.53
721.624	62.49
721.945	62.48
722.267	62.48
722.588	62.42
722.909	62.4
723.231	62.28
723.552	62.26
723.873	62.4
724.194	62.09
724.515	62.28
724.836	62.63
725.157	62.46
725.478	62.88
725.799	62.57
726.12	62.84
726.441	62.87
726.762	62.83
727.083	62.85
727.403	62.84
727.724	62.82
728.045	62.81
728.365	62.79
728.686	62.72
729.006	62.64
729.327	62.45
729.647	62.43
729.967	62.34
730.288	62.31
730.608	62.41
730.928	62.59
731.249	62.49
731.569	62.37
731.889	62.53
732.209	62.53
732.529	62.49
732.849	62.39
733.169	62.32
733.489	62.61
733.809	62.63
734.129	62.56
734.448	62.58
734.768	62.54
735.088	62.63
735.408	62.49
735.727	62.59
736.047	62.55
736.366	62.45
736.686	62.51
737.005	62.6
737.325	62.42
737.644	62.42
737.963	62.55
738.283	62.37
738.602	62.27
738.921	61.83
739.24	62.09
739.56	62.16
739.879	62.29
740.198	62.01
740.517	62.11
740.836	62.12
741.155	61.99
741.473	61.93
741.792	61.86
742.111	61.92
742.43	61.82
742.748	61.89
743.067	61.86
743.386	62.04
743.704	61.87
744.023	61.83
744.341	61.84
744.66	61.95
744.978	62.38
745.297	62.62
745.615	62.83
745.933	62.74
746.252	63.02
746.57	62.74
746.888	62.68
747.206	62.51
747.524	62.48
747.842	62.74
748.16	62.92
748.478	63
748.796	63.05
749.114	63.23
749.432	63.43
749.749	63.75
750.067	63.91
750.385	64.27
750.703	64.49
751.02	64.34
751.338	64.44
751.655	64.04
751.973	63.89
752.29	63.85
752.608	64
752.925	63.52
753.242	63.57
753.56	64.01
753.877	64.02
754.194	64.17
754.511	64.13
754.828	64.16
755.145	64.11
755.462	64.2
755.779	63.92
756.096	64.11
756.413	63.98
756.73	63.96
757.047	63.59
757.364	63.3
757.68	63.23
757.997	62.77
758.314	62.69
758.63	62.79
758.947	62.77
759.264	62.33
759.58	62.7
759.896	62.72
760.213	62.54
760.529	62.51
760.846	62.27
761.162	62.09
761.478	61.92
761.794	61.72
762.11	61.85
762.426	61.83
762.743	61.56
763.059	61.24
763.375	61.18
763.69	61.28
764.006	61.39
764.322	61.54
764.638	61.92
764.954	61.93
765.27	61.75
765.585	61.79
765.901	62
766.216	61.84
766.532	61.83
766.848	61.6
767.163	61.68
767.478	61.66
767.794	61.56
768.109	61.67
768.424	62.02
768.74	62.16
769.055	62.33
769.37	62.78
769.685	63.3
770	63.06
770.315	63.27
770.63	63.3
770.945	63.35
771.26	62.9
771.575	62.93
771.89	62.82
772.205	62.96
772.52	62.77
772.834	62.77
773.149	63.01
773.464	63.12
773.778	62.92
774.093	63.15
774.407	63.64
774.722	63.57
775.036	62.78
775.351	62.38
775.665	62.18
775.979	61.74
776.293	61.5
776.608	61.72
776.922	61.33
777.236	61.68
777.55	61.59
777.864	62.02
778.178	62.03
778.492	62.54
778.806	62.11
779.12	62.1
779.434	61.89
779.747	61.9
780.061	62.43
780.375	62.95
780.689	62.85
781.002	62.68
781.316	63.07
781.629	63.6
781.943	63.78
782.256	64.04
782.57	64.38
782.883	64.63
783.196	64.72
783.51	64.81
783.823	64.28
784.136	64.61
784.449	64.58
784.762	65.18
785.075	64.78
785.388	64.92
785.701	64.85
786.014	65.21
786.327	65.23
786.64	65.07
786.953	64.51
787.266	64.29
787.578	64.51
787.891	64.27
788.204	64.57
788.516	64.3
788.829	64.28
789.141	63.95
789.454	63.63
789.766	63.69
790.079	64.48
790.391	65.03
790.703	64.29
791.016	63.78
791.328	63.8
791.64	64.27
791.952	64.47
792.264	64.51
792.576	64.28
792.888	63.98
793.2	63.63
793.512	63.49
793.824	63.95
794.136	63.55
794.448	63.09
794.76	63.11
795.071	63.45
795.383	63.31
795.695	63.61
796.006	64.33
796.318	64.62
796.629	63.48
796.941	63.1
797.252	63.61
797.564	64.05
797.875	63.43
798.186	62.89
798.497	63.07
798.809	62.81
799.12	63.1
799.431	62.99
799.742	62.66
800.053	63.42
800.364	63.65
800.675	64.02
800.986	63.95
801.297	63.37
801.608	63.26
801.918	63.23
802.229	62.86
802.54	61.97
802.851	61.4
803.161	61.88
803.472	61.52
803.782	61.86
804.093	61.3
804.403	61.69
804.714	61.78
805.024	61.51
805.334	62.39
805.645	62.43
805.955	62.84
806.265	63.48
806.575	62.91
806.885	62.57
807.195	62.75
807.505	62.64
807.815	63.29
808.125	63.03
808.435	63.48
808.745	63.55
809.055	63.82
809.365	63.89
809.674	63.57
809.984	64.09
810.294	63.47
810.603	63.14
810.913	63.08
811.222	63.55
811.532	64.27
811.841	64.78
812.151	64.5
812.46	64.98
812.769	64.76
813.079	64.78
813.388	65.57
813.697	64.81
814.006	65.35
814.315	65.03
814.624	64.91
814.933	64.25
815.242	64.22
815.551	64.83
815.86	65.06
816.169	65.19
816.478	65.5
816.786	65.83
817.095	66.22
817.404	65.92
817.712	65.65
818.021	65.09
818.33	63.7
818.638	63.82
818.947	62.99
819.255	63.08
819.563	62.69
819.872	62.41
820.18	62.46
820.488	62.54
820.796	62.13
821.105	62.19
821.413	62.3
821.721	62.27
822.029	62.24
822.337	62.25
822.645	62.42
822.953	62.35
823.26	62.23
823.568	62.3
823.876	62.2
824.184	62.33
824.491	62.24
824.799	62.28
825.107	62.2
825.414	62.31
825.722	62.25
826.029	62.38
826.337	62.48
826.644	62.76
826.951	62.67
827.259	62.75
827.566	62.85
827.873	63.04
828.18	63.25
828.488	63.33
828.795	63.2
829.102	63.05
829.409	63.19
829.716	63.49
830.023	63.61
830.329	63.72
830.636	63.14
830.943	63.22
831.25	63.4
831.557	63.64
831.863	63.57
832.17	63.54
832.476	63.68
832.783	63.35
833.089	62.74
833.396	62.97
833.702	63.07
834.009	62.54
834.315	62.8
834.621	62.46
834.928	62.26
835.234	62.67
835.54	62.79
835.846	62.42
836.152	62.17
836.458	61.86
836.764	62.1
837.07	62.61
837.376	62.7
837.682	62.8
837.988	62.5
838.293	62.06
838.599	62.2
838.905	62.27
839.211	62.47
839.516	62.41
839.822	62.85
840.127	63.87
840.433	64.72
840.738	63.47
841.044	64.1
841.349	63.8
841.654	63.84
841.959	63.16
842.265	63.21
842.57	63.17
842.875	63.42
843.18	63.13
843.485	62.96
843.79	63.35
844.095	63.23
844.4	64.43
844.705	66.37
845.01	66.98
845.315	65.95
845.619	65.16
845.924	66.01
846.229	64.7
846.533	63.28
846.838	62.67
847.142	62.94
847.447	61.19
847.751	61.13
848.056	60.3
848.36	61.56
848.664	63.65
848.969	64.77
849.273	65.91
849.577	67.82
849.881	68.04
850.185	67.44
850.489	68.27
850.794	66.74
851.097	64.03
851.401	65.07
851.705	66.94
852.009	67.81
852.313	67.72
852.617	69.07
852.92	70.77
853.224	71.37
853.528	73.63
853.831	75.04
854.135	76.67
854.438	76.09
854.742	76.19
855.045	76.03
855.349	76.91
855.652	78.39
855.955	78.25
856.259	77.38
856.562	76.62
856.865	75.98
857.168	75.4
857.471	78.74
857.774	78.09
858.077	79.59
858.38	81.6
858.683	79.72
858.986	78.49
859.289	77.47
859.592	79.27
859.894	76.47
860.197	77.27
860.5	77.3
860.802	79.15
861.105	79.74
861.407	75.81
861.71	74.01
862.012	70.43
862.315	69.74
862.617	69.25
862.919	71.6
863.222	74.06
863.524	74.4
863.826	71.93
864.128	71.43
864.43	68.19
864.732	65.49
865.034	66.97
865.336	67.58
865.638	67.3
865.94	65.54
866.242	65.72
866.544	63.63
866.846	61.3
867.147	58.82
867.449	57.47
867.751	59.08
868.052	60.42
868.354	61.51
868.655	63.26
868.957	63.18
869.258	62.36
869.56	61.39
869.861	59.48
870.162	58.96
870.463	59.75
870.765	62.19
871.066	61.21
871.367	60.08
871.668	59.19
871.969	59.43
872.27	58.31
872.571	59.82
872.872	59.25
873.173	59.73
873.473	61.6
873.774	61.15
874.075	62.61
874.376	61.62
874.676	61.37
874.977	59.75
875.277	60.76
875.578	59.66
875.878	57.84
876.179	59.64
876.479	61.52
876.78	59.68
877.08	57.13
877.38	59.28
877.68	61.11
877.981	61.17
878.281	60.38
878.581	62.43
