Data from BA56830_Reflection_00004.txt Node
Date: Mon Nov 18 16:03:50 EST 2019
User: vgr7
Spectrometer: USB2G7710
Scans to average: 3
Trigger mode: 4
Integration Time (sec): 2.000000E-2
Electric dark correction enabled: true
Boxcar width: 10
XAxis mode: Wavelengths
Number of Pixels in Spectrum: 2048
>>>>>Begin Spectral Data<<<<<
177.721	571.92
178.105	564.05
178.488	253.12
178.871	284.28
179.254	259.89
179.636	-63.4
180.019	10655.56
180.402	152.63
180.785	-160.36
181.168	-0.39
181.55	64.86
181.933	82.9
182.316	87.37
182.698	95.4
183.081	95.16
183.463	68.2
183.846	99.55
184.228	177.75
184.611	1128.07
184.993	-1220.35
185.376	2335.77
185.758	467.3
186.14	796.48
186.522	255.27
186.904	655.56
187.287	1136.53
187.669	-438.85
188.051	1152.29
188.433	-39566.67
188.815	-188.24
189.197	-51.64
189.579	10.97
189.961	6.73
190.342	1.27
190.724	-15.08
191.106	-11.11
191.488	-16.81
191.869	-4.38
192.251	-35.54
192.633	-36.56
193.014	-104.68
193.396	-114.77
193.777	-66.26
194.159	-24.5
194.54	-12.15
194.922	-9.75
195.303	0.9
195.684	3.19
196.065	-3.37
196.447	-6.75
196.828	-23.95
197.209	-18.77
197.59	-57.94
197.971	-23.23
198.352	2.28
198.733	-9.61
199.114	11.88
199.495	4.33
199.876	4.8
200.257	2.51
200.638	8.05
201.018	20.91
201.399	5.97
201.78	-15.88
202.16	-23.57
202.541	-51.8
202.922	-49.34
203.302	-58.58
203.683	-44.56
204.063	-72.56
204.444	-58.32
204.824	-44.23
205.204	-47.64
205.585	-39.53
205.965	-65.98
206.345	-97.54
206.725	-98.74
207.106	-128.14
207.486	-191.09
207.866	-163.96
208.246	-147.71
208.626	-183.53
209.006	-130.57
209.386	-140.06
209.766	-152.09
210.145	-133.67
210.525	-91.18
210.905	-98.42
211.285	-82.81
211.664	-79.61
212.044	-67.09
212.424	-49.1
212.803	-63.98
213.183	-61.35
213.562	-52.29
213.942	-24.55
214.321	-8.69
214.701	-27.52
215.08	-29.28
215.459	-6.88
215.838	6.65
216.218	35.67
216.597	34.07
216.976	34.68
217.355	33.33
217.734	38.46
218.113	46.59
218.492	41.28
218.871	30.58
219.25	22.44
219.629	26.68
220.008	27.57
220.387	12.36
220.766	29.81
221.144	17.88
221.523	7.33
221.902	-0.45
222.28	-11.43
222.659	8.07
223.037	11.94
223.416	10.73
223.794	3.5
224.173	-4.09
224.551	0.35
224.929	-4.24
225.308	-5.7
225.686	-8.47
226.064	-9.51
226.442	-10.96
226.821	-11.3
227.199	-11.2
227.577	-14.57
227.955	-15.22
228.333	-11.71
228.711	-12.65
229.089	-5.82
229.467	-6.35
229.845	-6.46
230.222	-3.32
230.6	-5.24
230.978	-7.05
231.356	-7.45
231.733	-7.11
232.111	-5.88
232.488	-6.25
232.866	-4.04
233.243	-3.85
233.621	-2.78
233.998	-1.5
234.376	-0.71
234.753	1.2
235.13	2.99
235.508	3.76
235.885	3.88
236.262	3.72
236.639	3.59
237.016	1.13
237.393	2.28
237.77	2.74
238.147	3.22
238.524	4.36
238.901	5.89
239.278	6.59
239.655	7.65
240.032	7.48
240.409	7.73
240.785	7.32
241.162	7.63
241.539	7.36
241.915	7.29
242.292	6.68
242.668	6.56
243.045	6.28
243.421	6.38
243.798	6.13
244.174	6.08
244.551	5.9
244.927	5.97
245.303	5.89
245.679	5.96
246.056	5.81
246.432	5.58
246.808	5.25
247.184	4.79
247.56	4.55
247.936	4.49
248.312	4.31
248.688	4.46
249.064	4.46
249.44	4.41
249.815	4.4
250.191	4.48
250.567	4.58
250.943	4.42
251.318	4.4
251.694	4.27
252.069	4.22
252.445	4.42
252.82	4.48
253.196	4.54
253.571	4.35
253.947	4.35
254.322	4.46
254.697	4.6
255.073	4.68
255.448	4.61
255.823	4.63
256.198	4.74
256.573	4.58
256.948	4.53
257.323	4.71
257.698	4.67
258.073	4.69
258.448	4.46
258.823	4.64
259.198	4.59
259.573	4.74
259.948	4.9
260.322	4.92
260.697	4.9
261.072	4.7
261.446	4.72
261.821	4.79
262.195	4.75
262.57	4.7
262.944	4.81
263.319	4.86
263.693	4.97
264.067	5
264.442	5.21
264.816	5.26
265.19	5.18
265.564	5.26
265.938	5.35
266.313	5.22
266.687	5.24
267.061	5.27
267.435	5.19
267.809	5.07
268.183	4.82
268.556	4.78
268.93	4.91
269.304	4.93
269.678	4.84
270.051	5.03
270.425	5.06
270.799	5.04
271.172	5.07
271.546	4.97
271.919	4.9
272.293	4.72
272.666	4.75
273.04	4.85
273.413	4.82
273.787	4.78
274.16	5.05
274.533	5.01
274.906	4.86
275.279	4.79
275.653	4.76
276.026	4.82
276.399	4.87
276.772	4.96
277.145	4.98
277.518	4.98
277.891	4.89
278.263	4.9
278.636	4.95
279.009	4.84
279.382	5.09
279.755	5.2
280.127	5.27
280.5	5.41
280.872	5.22
281.245	5.01
281.617	5.18
281.99	5.22
282.362	5.26
282.735	5.32
283.107	5.32
283.479	5.32
283.852	5.3
284.224	5.24
284.596	5.31
284.968	5.36
285.34	5.53
285.713	5.48
286.085	5.44
286.457	5.44
286.829	5.45
287.201	5.3
287.572	5.21
287.944	5.2
288.316	5.15
288.688	5.2
289.06	5.33
289.431	5.25
289.803	5.12
290.175	5.11
290.546	5.28
290.918	5.25
291.289	5.2
291.661	5.32
292.032	5.52
292.403	5.46
292.775	5.51
293.146	5.34
293.517	5.27
293.889	5.48
294.26	5.48
294.631	5.59
295.002	5.55
295.373	5.56
295.744	5.52
296.115	5.48
296.486	5.34
296.857	5.42
297.228	5.4
297.599	5.44
297.97	5.42
298.34	5.4
298.711	5.51
299.082	5.46
299.452	5.5
299.823	5.38
300.194	5.31
300.564	5.18
300.935	5.2
301.305	5.38
301.676	5.32
302.046	5.39
302.416	5.36
302.787	5.47
303.157	5.49
303.527	5.44
303.897	5.37
304.267	5.52
304.637	5.41
305.008	5.26
305.378	5.36
305.748	5.41
306.117	5.3
306.487	5.38
306.857	5.44
307.227	5.47
307.597	5.4
307.967	5.44
308.336	5.57
308.706	5.62
309.076	5.43
309.445	5.32
309.815	5.32
310.184	5.22
310.554	5.22
310.923	5.27
311.293	5.37
311.662	5.34
312.031	5.46
312.401	5.41
312.77	5.59
313.139	5.55
313.508	5.5
313.877	5.57
314.246	5.54
314.616	5.54
314.985	5.45
315.353	5.5
315.722	5.54
316.091	5.45
316.46	5.37
316.829	5.49
317.198	5.51
317.567	5.39
317.935	5.41
318.304	5.4
318.672	5.37
319.041	5.35
319.41	5.38
319.778	5.24
320.147	5.36
320.515	5.27
320.883	5.2
321.252	5.12
321.62	5.06
321.988	4.96
322.357	5.01
322.725	5.11
323.093	5.22
323.461	5.21
323.829	5.21
324.197	5.27
324.565	5.28
324.933	5.32
325.301	5.4
325.669	5.42
326.037	5.42
326.405	5.35
326.772	5.33
327.14	5.41
327.508	5.49
327.875	5.43
328.243	5.53
328.61	5.52
328.978	5.62
329.346	5.69
329.713	5.71
330.08	5.75
330.448	5.62
330.815	5.54
331.182	5.55
331.55	5.55
331.917	5.48
332.284	5.45
332.651	5.46
333.018	5.45
333.385	5.44
333.752	5.38
334.119	5.46
334.486	5.39
334.853	5.36
335.22	5.3
335.587	5.4
335.954	5.29
336.32	5.17
336.687	5.2
337.054	5.31
337.42	5.37
337.787	5.34
338.153	5.32
338.52	5.29
338.886	5.09
339.253	5.15
339.619	5.22
339.986	5.3
340.352	5.21
340.718	5.19
341.084	5.21
341.451	5.17
341.817	5.13
342.183	5.12
342.549	5.16
342.915	5.15
343.281	4.99
343.647	4.96
344.013	5.07
344.379	4.99
344.745	4.93
345.11	4.9
345.476	4.87
345.842	4.88
346.208	4.86
346.573	4.93
346.939	4.95
347.304	4.99
347.67	4.87
348.035	4.96
348.401	4.93
348.766	4.94
349.132	4.96
349.497	4.94
349.862	5.13
350.228	5.13
350.593	5.16
350.958	5.26
351.323	5.3
351.688	5.23
352.053	5.36
352.418	5.35
352.783	5.35
353.148	5.34
353.513	5.34
353.878	5.42
354.243	5.54
354.608	5.5
354.972	5.51
355.337	5.58
355.702	5.63
356.066	5.67
356.431	5.68
356.795	5.73
357.16	5.68
357.524	5.56
357.889	5.53
358.253	5.46
358.618	5.45
358.982	5.48
359.346	5.49
359.71	5.49
360.075	5.48
360.439	5.49
360.803	5.5
361.167	5.5
361.531	5.48
361.895	5.45
362.259	5.37
362.623	5.31
362.987	5.29
363.351	5.33
363.714	5.38
364.078	5.38
364.442	5.32
364.806	5.39
365.169	5.42
365.533	5.47
365.896	5.57
366.26	5.6
366.623	5.62
366.987	5.65
367.35	5.58
367.714	5.6
368.077	5.66
368.44	5.65
368.803	5.68
369.167	5.65
369.53	5.64
369.893	5.74
370.256	5.77
370.619	5.8
370.982	5.64
371.345	5.57
371.708	5.57
372.071	5.6
372.434	5.62
372.797	5.63
373.159	5.61
373.522	5.59
373.885	5.59
374.247	5.54
374.61	5.56
374.973	5.57
375.335	5.56
375.698	5.57
376.06	5.58
376.423	5.6
376.785	5.62
377.147	5.65
377.51	5.64
377.872	5.65
378.234	5.59
378.596	5.67
378.958	5.69
379.321	5.73
379.683	5.68
380.045	5.65
380.407	5.66
380.769	5.67
381.13	5.64
381.492	5.63
381.854	5.66
382.216	5.65
382.578	5.66
382.939	5.61
383.301	5.56
383.663	5.54
384.024	5.47
384.386	5.47
384.747	5.45
385.109	5.47
385.47	5.42
385.832	5.45
386.193	5.48
386.554	5.44
386.916	5.42
387.277	5.45
387.638	5.46
387.999	5.45
388.36	5.46
388.721	5.46
389.082	5.48
389.443	5.47
389.804	5.49
390.165	5.48
390.526	5.51
390.887	5.49
391.248	5.52
391.609	5.55
391.969	5.57
392.33	5.55
392.691	5.52
393.051	5.53
393.412	5.53
393.772	5.51
394.133	5.51
394.493	5.48
394.854	5.48
395.214	5.48
395.574	5.46
395.935	5.43
396.295	5.41
396.655	5.4
397.015	5.39
397.376	5.38
397.736	5.39
398.096	5.4
398.456	5.42
398.816	5.41
399.176	5.41
399.535	5.35
399.895	5.35
400.255	5.36
400.615	5.38
400.975	5.41
401.334	5.39
401.694	5.39
402.054	5.4
402.413	5.43
402.773	5.39
403.132	5.36
403.492	5.35
403.851	5.35
404.211	5.35
404.57	5.38
404.929	5.35
405.288	5.34
405.648	5.34
406.007	5.33
406.366	5.32
406.725	5.32
407.084	5.35
407.443	5.35
407.802	5.34
408.161	5.3
408.52	5.24
408.879	5.23
409.238	5.21
409.596	5.2
409.955	5.17
410.314	5.17
410.673	5.19
411.031	5.19
411.39	5.22
411.748	5.24
412.107	5.21
412.465	5.21
412.824	5.23
413.182	5.24
413.54	5.26
413.899	5.28
414.257	5.27
414.615	5.29
414.974	5.32
415.332	5.31
415.69	5.31
416.048	5.32
416.406	5.3
416.764	5.29
417.122	5.3
417.48	5.28
417.838	5.3
418.195	5.31
418.553	5.3
418.911	5.28
419.269	5.27
419.626	5.28
419.984	5.28
420.342	5.27
420.699	5.26
421.057	5.24
421.414	5.23
421.772	5.24
422.129	5.23
422.486	5.22
422.844	5.24
423.201	5.24
423.558	5.24
423.915	5.25
424.273	5.26
424.63	5.25
424.987	5.27
425.344	5.26
425.701	5.25
426.058	5.27
426.415	5.28
426.772	5.26
427.128	5.23
427.485	5.22
427.842	5.23
428.199	5.22
428.555	5.23
428.912	5.24
429.269	5.22
429.625	5.22
429.982	5.2
430.338	5.19
430.695	5.19
431.051	5.19
431.407	5.21
431.764	5.21
432.12	5.19
432.476	5.19
432.832	5.18
433.189	5.2
433.545	5.19
433.901	5.18
434.257	5.19
434.613	5.22
434.969	5.23
435.325	5.2
435.681	5.21
436.036	5.19
436.392	5.2
436.748	5.22
437.104	5.22
437.459	5.22
437.815	5.22
438.171	5.22
438.526	5.23
438.882	5.22
439.237	5.23
439.593	5.24
439.948	5.23
440.304	5.23
440.659	5.23
441.014	5.23
441.369	5.24
441.725	5.25
442.08	5.23
442.435	5.22
442.79	5.23
443.145	5.23
443.5	5.22
443.855	5.21
444.21	5.2
444.565	5.2
444.92	5.18
445.275	5.16
445.629	5.17
445.984	5.16
446.339	5.14
446.693	5.12
447.048	5.11
447.403	5.12
447.757	5.12
448.112	5.13
448.466	5.09
448.82	5.08
449.175	5.08
449.529	5.08
449.883	5.09
450.238	5.07
450.592	5.08
450.946	5.08
451.3	5.07
451.654	5.08
452.008	5.09
452.362	5.11
452.716	5.12
453.07	5.11
453.424	5.12
453.778	5.13
454.132	5.13
454.486	5.13
454.839	5.13
455.193	5.11
455.547	5.09
455.9	5.13
456.254	5.12
456.607	5.11
456.961	5.11
457.314	5.11
457.668	5.1
458.021	5.09
458.375	5.1
458.728	5.12
459.081	5.11
459.434	5.08
459.787	5.09
460.141	5.09
460.494	5.09
460.847	5.08
461.2	5.07
461.553	5.08
461.906	5.09
462.259	5.09
462.611	5.11
462.964	5.13
463.317	5.11
463.67	5.1
464.022	5.1
464.375	5.09
464.728	5.09
465.08	5.09
465.433	5.1
465.785	5.09
466.138	5.09
466.49	5.09
466.843	5.11
467.195	5.09
467.547	5.1
467.899	5.11
468.252	5.12
468.604	5.12
468.956	5.12
469.308	5.13
469.66	5.12
470.012	5.12
470.364	5.13
470.716	5.13
471.068	5.15
471.42	5.17
471.772	5.2
472.123	5.21
472.475	5.25
472.827	5.26
473.178	5.29
473.53	5.28
473.882	5.3
474.233	5.3
474.585	5.3
474.936	5.29
475.288	5.29
475.639	5.29
475.99	5.29
476.342	5.29
476.693	5.29
477.044	5.3
477.395	5.31
477.746	5.29
478.097	5.29
478.448	5.27
478.8	5.27
479.15	5.24
479.501	5.24
479.852	5.23
480.203	5.23
480.554	5.22
480.905	5.22
481.255	5.24
481.606	5.26
481.957	5.29
482.307	5.3
482.658	5.32
483.009	5.32
483.359	5.32
483.709	5.34
484.06	5.34
484.41	5.33
484.761	5.34
485.111	5.35
485.461	5.35
485.811	5.37
486.162	5.37
486.512	5.39
486.862	5.39
487.212	5.4
487.562	5.4
487.912	5.4
488.262	5.42
488.612	5.4
488.961	5.39
489.311	5.37
489.661	5.37
490.011	5.36
490.36	5.36
490.71	5.37
491.06	5.36
491.409	5.35
491.759	5.35
492.108	5.35
492.458	5.34
492.807	5.33
493.157	5.33
493.506	5.33
493.855	5.32
494.204	5.32
494.554	5.3
494.903	5.3
495.252	5.29
495.601	5.29
495.95	5.3
496.299	5.3
496.648	5.3
496.997	5.28
497.346	5.28
497.695	5.28
498.043	5.29
498.392	5.3
498.741	5.32
499.09	5.33
499.438	5.33
499.787	5.34
500.135	5.37
500.484	5.36
500.832	5.36
501.181	5.37
501.529	5.37
501.878	5.41
502.226	5.42
502.574	5.42
502.923	5.43
503.271	5.44
503.619	5.47
503.967	5.48
504.315	5.48
504.663	5.46
505.011	5.47
505.359	5.48
505.707	5.47
506.055	5.47
506.403	5.47
506.751	5.47
507.098	5.49
507.446	5.49
507.794	5.52
508.141	5.53
508.489	5.54
508.837	5.56
509.184	5.54
509.531	5.55
509.879	5.56
510.226	5.56
510.574	5.57
510.921	5.58
511.268	5.58
511.616	5.62
511.963	5.64
512.31	5.65
512.657	5.66
513.004	5.67
513.351	5.7
513.698	5.69
514.045	5.71
514.392	5.68
514.739	5.69
515.086	5.69
515.432	5.71
515.779	5.71
516.126	5.71
516.473	5.75
516.819	5.75
517.166	5.76
517.512	5.77
517.859	5.77
518.205	5.76
518.552	5.77
518.898	5.76
519.245	5.78
519.591	5.78
519.937	5.77
520.283	5.76
520.629	5.76
520.976	5.77
521.322	5.78
521.668	5.8
522.014	5.81
522.36	5.82
522.706	5.81
523.052	5.81
523.398	5.81
523.743	5.8
524.089	5.8
524.435	5.81
524.781	5.82
525.126	5.83
525.472	5.84
525.817	5.85
526.163	5.85
526.509	5.85
526.854	5.85
527.199	5.86
527.545	5.87
527.89	5.87
528.235	5.87
528.581	5.89
528.926	5.9
529.271	5.9
529.616	5.9
529.961	5.9
530.306	5.9
530.651	5.9
530.996	5.92
531.341	5.92
531.686	5.92
532.031	5.92
532.376	5.92
532.721	5.92
533.065	5.92
533.41	5.93
533.755	5.93
534.099	5.94
534.444	5.95
534.788	5.95
535.133	5.94
535.477	5.96
535.822	5.93
536.166	5.92
536.51	5.92
536.855	5.92
537.199	5.93
537.543	5.95
537.887	5.96
538.231	5.95
538.576	5.95
538.92	5.94
539.264	5.96
539.608	5.96
539.951	5.96
540.295	5.94
540.639	5.94
540.983	5.94
541.327	5.95
541.671	5.96
542.014	5.96
542.358	5.98
542.701	5.97
543.045	5.97
543.389	5.98
543.732	5.98
544.075	6
544.419	6.01
544.762	6
545.105	6
545.449	6.01
545.792	6.02
546.135	6.02
546.478	6.01
546.821	6.02
547.165	6.02
547.508	6.05
547.851	6.05
548.194	6.04
548.536	6.04
548.879	6.02
549.222	6.03
549.565	6.01
549.908	6.04
550.25	6.06
550.593	6.06
550.936	6.05
551.278	6.05
551.621	6.05
551.963	6.05
552.306	6.03
552.648	6.01
552.991	6.01
553.333	6.03
553.675	6.05
554.017	6.04
554.36	6.06
554.702	6.05
555.044	6.04
555.386	6.05
555.728	6.08
556.07	6.09
556.412	6.09
556.754	6.11
557.096	6.13
557.438	6.11
557.78	6.13
558.121	6.13
558.463	6.14
558.805	6.12
559.147	6.11
559.488	6.13
559.83	6.12
560.171	6.13
560.513	6.13
560.854	6.09
561.196	6.08
561.537	6.09
561.878	6.08
562.22	6.09
562.561	6.09
562.902	6.04
563.243	6.03
563.584	6.02
563.925	5.99
564.266	5.96
564.607	5.98
564.948	5.98
565.289	5.99
565.63	6.01
565.971	6.03
566.312	6.01
566.653	6.01
566.993	6.01
567.334	6
567.675	6.01
568.015	6.02
568.356	6.04
568.696	5.98
569.037	6
569.377	6.01
569.718	6.01
570.058	6.04
570.398	6.04
570.739	6.06
571.079	6.08
571.419	6.09
571.759	6.08
572.099	6.06
572.439	6.04
572.779	6.05
573.119	6.06
573.459	6.1
573.799	6.12
574.139	6.14
574.479	6.12
574.819	6.12
575.158	6.12
575.498	6.1
575.838	6.13
576.177	6.1
576.517	6.1
576.856	6.12
577.196	6.12
577.535	6.08
577.875	6.07
578.214	6.06
578.553	6.08
578.893	6.05
579.232	6.08
579.571	6.12
579.91	6.1
580.25	6.09
580.589	6.07
580.928	6.07
581.267	6.06
581.606	6.12
581.945	6.1
582.283	6.13
582.622	6.13
582.961	6.13
583.3	6.16
583.639	6.16
583.977	6.15
584.316	6.15
584.654	6.19
584.993	6.22
585.332	6.22
585.67	6.19
586.008	6.23
586.347	6.22
586.685	6.2
587.024	6.21
587.362	6.2
587.7	6.18
588.038	6.16
588.376	6.19
588.715	6.18
589.053	6.22
589.391	6.22
589.729	6.24
590.067	6.25
590.404	6.23
590.742	6.25
591.08	6.23
591.418	6.26
591.756	6.24
592.093	6.21
592.431	6.19
592.769	6.25
593.106	6.23
593.444	6.24
593.781	6.26
594.119	6.26
594.456	6.27
594.793	6.27
595.131	6.3
595.468	6.3
595.805	6.27
596.143	6.27
596.48	6.27
596.817	6.26
597.154	6.3
597.491	6.32
597.828	6.3
598.165	6.31
598.502	6.29
598.839	6.31
599.176	6.33
599.512	6.35
599.849	6.33
600.186	6.33
600.523	6.34
600.859	6.36
601.196	6.36
601.532	6.35
601.869	6.34
602.205	6.31
602.542	6.33
602.878	6.32
603.215	6.32
603.551	6.3
603.887	6.32
604.223	6.27
604.56	6.26
604.896	6.28
605.232	6.29
605.568	6.31
605.904	6.33
606.24	6.34
606.576	6.36
606.912	6.35
607.248	6.36
607.583	6.37
607.919	6.37
608.255	6.35
608.591	6.33
608.926	6.37
609.262	6.4
609.597	6.4
609.933	6.42
610.268	6.41
610.604	6.42
610.939	6.38
611.275	6.38
611.61	6.4
611.945	6.42
612.281	6.41
612.616	6.36
612.951	6.38
613.286	6.39
613.621	6.36
613.956	6.35
614.291	6.38
614.626	6.35
614.961	6.27
615.296	6.27
615.631	6.28
615.966	6.25
616.3	6.25
616.635	6.21
616.97	6.21
617.304	6.24
617.639	6.24
617.973	6.28
618.308	6.32
618.642	6.33
618.977	6.32
619.311	6.37
619.646	6.43
619.98	6.37
620.314	6.37
620.648	6.35
620.983	6.36
621.317	6.37
621.651	6.41
621.985	6.52
622.319	6.55
622.653	6.55
622.987	6.6
623.321	6.57
623.655	6.62
623.988	6.66
624.322	6.66
624.656	6.69
624.99	6.69
625.323	6.67
625.657	6.68
625.99	6.69
626.324	6.67
626.657	6.67
626.991	6.72
627.324	6.7
627.658	6.73
627.991	6.75
628.324	6.72
628.657	6.68
628.991	6.65
629.324	6.63
629.657	6.62
629.99	6.6
630.323	6.57
630.656	6.53
630.989	6.53
631.322	6.54
631.655	6.51
631.987	6.5
632.32	6.52
632.653	6.51
632.986	6.53
633.318	6.51
633.651	6.53
633.984	6.52
634.316	6.53
634.649	6.49
634.981	6.45
635.313	6.46
635.646	6.52
635.978	6.52
636.31	6.47
636.643	6.55
636.975	6.53
637.307	6.61
637.639	6.64
637.971	6.63
638.303	6.62
638.635	6.63
638.967	6.63
639.299	6.64
639.631	6.6
639.963	6.52
640.295	6.55
640.626	6.5
640.958	6.5
641.29	6.53
641.621	6.57
641.953	6.63
642.285	6.65
642.616	6.64
642.948	6.64
643.279	6.72
643.61	6.63
643.942	6.62
644.273	6.61
644.604	6.54
644.936	6.46
645.267	6.43
645.598	6.44
645.929	6.46
646.26	6.49
646.591	6.56
646.922	6.61
647.253	6.65
647.584	6.74
647.915	6.77
648.245	6.75
648.576	6.72
648.907	6.73
649.238	6.73
649.568	6.7
649.899	6.72
650.229	6.68
650.56	6.73
650.89	6.73
651.221	6.71
651.551	6.82
651.882	6.89
652.212	6.89
652.542	6.95
652.872	6.89
653.203	6.88
653.533	6.9
653.863	6.93
654.193	6.89
654.523	6.8
654.853	6.78
655.183	6.83
655.513	6.87
655.843	6.82
656.172	6.79
656.502	6.84
656.832	6.85
657.162	6.87
657.491	6.83
657.821	6.85
658.15	6.85
658.48	6.82
658.809	6.78
659.139	6.82
659.468	6.74
659.798	6.79
660.127	6.76
660.456	6.77
660.785	6.75
661.115	6.71
661.444	6.78
661.773	6.73
662.102	6.66
662.431	6.67
662.76	6.71
663.089	6.71
663.418	6.63
663.747	6.56
664.076	6.58
664.404	6.63
664.733	6.7
665.062	6.68
665.39	6.74
665.719	6.74
666.048	6.73
666.376	6.79
666.705	6.8
667.033	6.87
667.362	6.84
667.69	6.79
668.018	6.87
668.347	6.93
668.675	6.93
669.003	6.99
669.331	7
669.659	6.94
669.987	6.95
670.315	6.97
670.643	7.03
670.971	7.11
671.299	7.16
671.627	7.16
671.955	7.23
672.283	7.21
672.61	7.26
672.938	7.29
673.266	7.32
673.593	7.43
673.921	7.4
674.249	7.43
674.576	7.52
674.904	7.52
675.231	7.41
675.558	7.43
675.886	7.46
676.213	7.43
676.54	7.45
676.867	7.52
677.195	7.62
677.522	7.64
677.849	7.58
678.176	7.57
678.503	7.52
678.83	7.49
679.157	7.42
679.484	7.37
679.81	7.4
680.137	7.32
680.464	7.19
680.791	7.19
681.117	7.13
681.444	7.05
681.771	7.03
682.097	7.07
682.424	7.14
682.75	7.11
683.077	7.12
683.403	7.21
683.729	7.14
684.056	7.19
684.382	7.18
684.708	7.18
685.034	7.15
685.36	7.18
685.686	7.2
686.012	7.3
686.339	7.44
686.664	7.4
686.99	7.47
687.316	7.48
687.642	7.54
687.968	7.58
688.294	7.65
688.619	7.66
688.945	7.61
689.271	7.62
689.596	7.6
689.922	7.65
690.247	7.63
690.573	7.65
690.898	7.66
691.224	7.66
691.549	7.69
691.874	7.64
692.2	7.75
692.525	7.72
692.85	7.71
693.175	7.69
693.5	7.63
693.825	7.6
694.15	7.65
694.475	7.6
694.8	7.61
695.125	7.61
695.45	7.56
695.775	7.59
696.099	7.44
696.424	7.47
696.749	7.43
697.073	7.37
697.398	7.42
697.723	7.36
698.047	7.44
698.372	7.42
698.696	7.55
699.02	7.43
699.345	7.4
699.669	7.43
699.993	7.38
700.318	7.46
700.642	7.4
700.966	7.37
701.29	7.46
701.614	7.41
701.938	7.45
702.262	7.54
702.586	7.6
702.91	7.73
703.234	7.78
703.557	7.86
703.881	7.87
704.205	7.82
704.529	7.74
704.852	7.69
705.176	7.63
705.499	7.7
705.823	7.71
706.146	7.75
706.47	7.82
706.793	7.7
707.117	7.73
707.44	7.79
707.763	7.81
708.086	7.72
708.409	7.84
708.733	7.85
709.056	7.85
709.379	8.05
709.702	8.07
710.025	8.05
710.348	7.95
710.671	7.96
710.993	7.96
711.316	8.02
711.639	8.04
711.962	8.11
712.284	8.02
712.607	8
712.93	8.09
713.252	7.97
713.575	8.01
713.897	7.94
714.22	8.02
714.542	7.96
714.864	7.9
715.187	7.87
715.509	7.86
715.831	7.76
716.153	7.43
716.475	7.46
716.798	7.55
717.12	7.7
717.442	7.65
717.764	7.79
718.085	7.73
718.407	7.65
718.729	7.56
719.051	7.55
719.373	7.57
719.695	7.39
720.016	7.49
720.338	7.63
720.659	7.62
720.981	7.73
721.302	7.89
721.624	8.09
721.945	8.09
722.267	8.02
722.588	8.09
722.909	8.32
723.231	8.44
723.552	8.33
723.873	8.19
724.194	8.35
724.515	8.25
724.836	8.31
725.157	8.37
725.478	8.48
725.799	8.46
726.12	8.57
726.441	8.68
726.762	8.66
727.083	8.63
727.403	8.7
727.724	8.75
728.045	8.71
728.365	8.57
728.686	8.55
729.006	8.74
729.327	8.65
729.647	8.6
729.967	8.39
730.288	8.37
730.608	8.44
730.928	8.41
731.249	8.37
731.569	8.55
731.889	8.67
732.209	8.7
732.529	8.63
732.849	8.56
733.169	8.62
733.489	8.56
733.809	8.54
734.129	8.64
734.448	8.62
734.768	8.59
735.088	8.54
735.408	8.54
735.727	8.5
736.047	8.87
736.366	8.97
736.686	9.03
737.005	9.13
737.325	9.1
737.644	9.13
737.963	9.11
738.283	8.85
738.602	8.67
738.921	8.67
739.24	8.87
739.56	8.97
739.879	8.96
740.198	9.08
740.517	9.24
740.836	9.22
741.155	9.25
741.473	9.2
741.792	9.48
742.111	9.47
742.43	9.39
742.748	8.86
743.067	8.76
743.386	8.94
743.704	8.83
744.023	8.99
744.341	9.01
744.66	9.34
744.978	9.47
745.297	9.48
745.615	9.49
745.933	9.45
746.252	9.37
746.57	9.41
746.888	9.42
747.206	9.33
747.524	9.18
747.842	8.99
748.16	9.18
748.478	9.14
748.796	9.21
749.114	9.35
749.432	9.45
749.749	9.59
750.067	9.45
750.385	9.61
750.703	9.47
751.02	9.45
751.338	9.2
751.655	9.2
751.973	9.25
752.29	9.32
752.608	9.22
752.925	9.31
753.242	9.13
753.56	8.94
753.877	8.81
754.194	9.06
754.511	9.12
754.828	8.94
755.145	8.99
755.462	8.86
755.779	8.67
756.096	8.89
756.413	8.88
756.73	9.05
757.047	8.86
757.364	8.62
757.68	8.43
757.997	8.61
758.314	8.48
758.63	8.52
758.947	8.28
759.264	8.32
759.58	8.25
759.896	8.49
760.213	8.81
760.529	8.71
760.846	8.65
761.162	8.91
761.478	8.96
761.794	8.83
762.11	8.81
762.426	8.96
762.743	8.95
763.059	8.93
763.375	8.88
763.69	8.83
764.006	9.23
764.322	9.35
764.638	9.22
764.954	9.38
765.27	9.33
765.585	9.42
765.901	9.54
766.216	9.76
766.532	9.6
766.848	9.36
767.163	9.63
767.478	9.48
767.794	9.16
768.109	9.1
768.424	9.26
768.74	9.36
769.055	9.26
769.37	9.23
769.685	8.97
770	9.09
770.315	9.4
770.63	9
770.945	8.95
771.26	9.11
771.575	9.16
771.89	9.38
772.205	9.26
772.52	9.23
772.834	8.63
773.149	8.49
773.464	8.69
773.778	8.66
774.093	8.81
774.407	8.99
774.722	9.11
775.036	9
775.351	9.29
775.665	9.52
775.979	9.75
776.293	9.83
776.608	9.82
776.922	9.67
777.236	9.81
777.55	9.83
777.864	9.84
778.178	9.8
778.492	9.78
778.806	9.92
779.12	9.82
779.434	10.11
779.747	10.63
780.061	10.74
780.375	10.93
780.689	10.93
781.002	11.01
781.316	11.23
781.629	11.51
781.943	11.41
782.256	10.88
782.57	10.72
782.883	10.77
783.196	10.55
783.51	10.29
783.823	10.21
784.136	10.41
784.449	10.17
784.762	9.91
785.075	9.69
785.388	9.8
785.701	9.78
786.014	10.04
786.327	9.7
786.64	9.99
786.953	9.68
787.266	9.56
787.578	9.64
787.891	9.5
788.204	9.18
788.516	9.17
788.829	9.6
789.141	9.79
789.454	9.83
789.766	10.1
790.079	10.12
790.391	10.16
790.703	10.13
791.016	10.1
791.328	10.44
791.64	10.55
791.952	10.76
792.264	10.8
792.576	10.43
792.888	10.57
793.2	10.23
793.512	10.18
793.824	10.32
794.136	9.77
794.448	9.64
794.76	9.24
795.071	9.12
795.383	8.53
795.695	8.34
796.006	8.44
796.318	8.11
796.629	8.57
796.941	8.5
797.252	8.77
797.564	8.99
797.875	9.23
798.186	9.23
798.497	9.43
798.809	9.24
799.12	9.57
799.431	9.48
799.742	9.21
800.053	9.98
800.364	9.84
800.675	10.18
800.986	9.93
801.297	9.97
801.608	9.91
801.918	10.22
802.229	10.38
802.54	10.49
802.851	10.53
803.161	10.71
803.472	10.1
803.782	9.97
804.093	10.09
804.403	9.57
804.714	9.58
805.024	9.01
805.334	9.52
805.645	9.68
805.955	9.58
806.265	10.25
806.575	9.57
806.885	9.52
807.195	9.74
807.505	10.2
807.815	10.37
808.125	10.37
808.435	10.09
808.745	10.14
809.055	10.24
809.365	10.49
809.674	10.47
809.984	11.44
810.294	11.18
810.603	11.24
810.913	11.83
811.222	12.05
811.532	12.93
811.841	12.82
812.151	13.06
812.46	13.55
812.769	12.9
813.079	12.83
813.388	13.41
813.697	13.34
814.006	13.23
814.315	13.65
814.624	13.68
814.933	14.71
815.242	14.62
815.551	14.86
815.86	15.05
816.169	14.37
816.478	13.9
816.786	13.96
817.095	14.06
817.404	13.62
817.712	13.4
818.021	12.59
818.33	12.36
818.638	11.79
818.947	12.07
819.255	12.23
819.563	12.02
819.872	11.67
820.18	11.95
820.488	12.04
820.796	11.87
821.105	11.85
821.413	11.67
821.721	11.62
822.029	11.49
822.337	11.43
822.645	11.5
822.953	11.59
823.26	11.58
823.568	11.43
823.876	11.5
824.184	11.41
824.491	11.5
824.799	11.48
825.107	11.52
825.414	11.46
825.722	11.4
826.029	11.38
826.337	11.39
826.644	11.38
826.951	11.2
827.259	11.31
827.566	11.31
827.873	11.45
828.18	11.63
828.488	11.55
828.795	11.54
829.102	11.75
829.409	11.89
829.716	12.16
830.023	12.12
830.329	11.9
830.636	11.98
830.943	11.76
831.25	11.85
831.557	11.89
831.863	11.94
832.17	12.06
832.476	12.4
832.783	12.69
833.089	12.29
833.396	12.92
833.702	12.73
834.009	12.94
834.315	12.47
834.621	12.3
834.928	12.55
835.234	12.23
835.54	12.13
835.846	12.01
836.152	11.7
836.458	11.88
836.764	11.68
837.07	12.09
837.376	11.98
837.682	12.18
837.988	12.26
838.293	12.31
838.599	12.26
838.905	11.76
839.211	11.26
839.516	11.85
839.822	11.54
840.127	11.56
840.433	11.3
840.738	11.01
841.044	10.67
841.349	10.73
841.654	11.43
841.959	10.88
842.265	10.43
842.57	10.6
842.875	10.56
843.18	11.26
843.485	10.82
843.79	11.28
844.095	10.44
844.4	10.87
844.705	10.17
845.01	10.65
845.315	10.91
845.619	11.59
845.924	11.51
846.229	11.65
846.533	12.13
846.838	12.92
847.142	13.13
847.447	11.85
847.751	11.87
848.056	11.09
848.36	11.6
848.664	10.93
848.969	10.56
849.273	10.87
849.577	10.67
849.881	9.65
850.185	10.38
850.489	11.3
850.794	9.82
851.097	9.62
851.401	8.41
851.705	7.14
852.009	6.9
852.313	5.35
852.617	4.78
852.92	5.98
853.224	5.19
853.528	7.23
853.831	8.76
854.135	9.42
854.438	8.6
854.742	8.96
855.045	10.34
855.349	10.33
855.652	10.51
855.955	11.5
856.259	11.21
856.562	10.74
856.865	11.49
857.168	10.98
857.471	10.66
857.774	12.01
858.077	15.65
858.38	17.71
858.683	18.18
858.986	18.94
859.289	18.83
859.592	17.94
859.894	16.3
860.197	15.62
860.5	14.67
860.802	15.85
861.105	15.96
861.407	15.28
861.71	15.76
862.012	16.52
862.315	14.35
862.617	14.9
862.919	15.33
863.222	13.66
863.524	16.13
863.826	16.89
864.128	16.07
864.43	13.57
864.732	11.25
865.034	10.7
865.336	9.66
865.638	7.22
865.94	7.92
866.242	9.51
866.544	9.68
866.846	9.67
867.147	11.13
867.449	11.9
867.751	13.45
868.052	13.55
868.354	13.2
868.655	15.59
868.957	16.71
869.258	16.34
869.56	16.97
869.861	13.74
870.162	15.46
870.463	15.83
870.765	16.94
871.066	18.34
871.367	19
871.668	18.48
871.969	18.94
872.27	18.26
872.571	15.34
872.872	17.35
873.173	16.85
873.473	16.05
873.774	14.1
874.075	14.01
874.376	12.07
874.676	13.29
874.977	10.5
875.277	9.58
875.578	9.84
875.878	9.11
876.179	11.36
876.479	9.11
876.78	8.11
877.08	7.64
877.38	5.65
877.68	5.37
877.981	5.99
878.281	5.94
878.581	7.58
