Data from BA56832_Reflection_00002.txt Node
Date: Mon Nov 18 16:09:32 EST 2019
User: vgr7
Spectrometer: USB2G7710
Scans to average: 3
Trigger mode: 4
Integration Time (sec): 2.000000E-2
Electric dark correction enabled: true
Boxcar width: 10
XAxis mode: Wavelengths
Number of Pixels in Spectrum: 2048
>>>>>Begin Spectral Data<<<<<
177.721	-0.66
178.105	6.3
178.488	22.92
178.871	77.15
179.254	102.47
179.636	40.84
180.019	-103.52
180.402	192.31
180.785	326.8
181.168	-112.33
181.55	10.24
181.933	70.15
182.316	140.43
182.698	254.2
183.081	158.79
183.463	165.5
183.846	120.36
184.228	108.65
184.611	136.1
184.993	156.78
185.376	172.97
185.758	253.25
186.14	334.66
186.522	679.65
186.904	8695.74
187.287	8066.1
187.669	-3453.96
188.051	-686.8
188.433	-539.58
188.815	-877.13
189.197	-548.71
189.579	-302.57
189.961	-251.72
190.342	-339.28
190.724	-272.94
191.106	-210.84
191.488	-255.66
191.869	-230.53
192.251	-213.35
192.633	-277.13
193.014	-374.58
193.396	-579.88
193.777	-828.9
194.159	-1117.98
194.54	-435.48
194.922	-327.18
195.303	-314.06
195.684	-259.52
196.065	-152.16
196.447	-183.66
196.828	-169.44
197.209	-185.03
197.59	-165.79
197.971	-223.9
198.352	-268.08
198.733	-427.32
199.114	-286.35
199.495	-251.28
199.876	-316.06
200.257	-239.66
200.638	-196.77
201.018	-174.77
201.399	-137.7
201.78	-119.52
202.16	-144.84
202.541	-197.7
202.922	-327.98
203.302	-368.41
203.683	-260.59
204.063	-319.69
204.444	-333.31
204.824	-257.5
205.204	-230.66
205.585	-238.5
205.965	-207.27
206.345	-162.53
206.725	-159.32
207.106	-327.52
207.486	-556.28
207.866	-571.98
208.246	-1351.99
208.626	18789.66
209.006	-4247.83
209.386	-1276.62
209.766	-663.54
210.145	-444.83
210.525	-296.11
210.905	-211.81
211.285	-163.83
211.664	-178.84
212.044	-174.33
212.424	-148.06
212.803	-214.44
213.183	-219.89
213.562	-175.81
213.942	-164.5
214.321	-167.17
214.701	-201.46
215.08	-133.38
215.459	-117.73
215.838	-118.16
216.218	-84.39
216.597	-70.27
216.976	-75.73
217.355	-77.95
217.734	-100.43
218.113	-81.44
218.492	-110.06
218.871	-120.4
219.25	-134.86
219.629	-140.33
220.008	-190.84
220.387	-229.43
220.766	-165.12
221.144	-198.01
221.523	-232.01
221.902	-233.11
222.28	-210.36
222.659	-128.72
223.037	-117.9
223.416	-139.27
223.794	-92.96
224.173	-106.65
224.551	-89.6
224.929	-80.64
225.308	-64.64
225.686	-44.01
226.064	-41.48
226.442	-35.58
226.821	-28.17
227.199	-25.6
227.577	-23.94
227.955	-21.76
228.333	-19.77
228.711	-19.8
229.089	-14.94
229.467	-19.62
229.845	-23.7
230.222	-20.3
230.6	-19.31
230.978	-16.97
231.356	-11.97
231.733	-13.82
232.111	-11.93
232.488	-11.34
232.866	-11.17
233.243	-9.39
233.621	-11.36
233.998	-11.27
234.376	-11.17
234.753	-11.62
235.13	-10.82
235.508	-9.22
235.885	-7.01
236.262	-6.25
236.639	-6.69
237.016	-6.85
237.393	-4.72
237.77	-2.39
238.147	-1.61
238.524	-1.38
238.901	0.52
239.278	0.68
239.655	1.61
240.032	1.46
240.409	1.41
240.785	1.69
241.162	1.59
241.539	2.28
241.915	2.16
242.292	2.18
242.668	2.76
243.045	3.04
243.421	3.38
243.798	3.48
244.174	3.88
244.551	3.86
244.927	3.93
245.303	4.12
245.679	4.09
246.056	4.03
246.432	4.19
246.808	4.02
247.184	4.12
247.56	3.85
247.936	3.96
248.312	3.86
248.688	4.06
249.064	3.96
249.44	3.85
249.815	4.15
250.191	4.32
250.567	4.25
250.943	4.27
251.318	4.41
251.694	4.34
252.069	4.02
252.445	4.17
252.82	4.15
253.196	3.93
253.571	3.89
253.947	3.67
254.322	3.62
254.697	3.53
255.073	3.33
255.448	3.44
255.823	3.3
256.198	3.47
256.573	3.45
256.948	3.57
257.323	3.88
257.698	3.9
258.073	3.79
258.448	3.72
258.823	3.51
259.198	3.36
259.573	3.37
259.948	3.3
260.322	3.36
260.697	3.29
261.072	3.32
261.446	3.3
261.821	3.48
262.195	3.55
262.57	3.55
262.944	3.57
263.319	3.56
263.693	3.58
264.067	3.6
264.442	3.63
264.816	3.59
265.19	3.24
265.564	3.17
265.938	3.17
266.313	3.12
266.687	3.27
267.061	3.18
267.435	3.17
267.809	3.18
268.183	3.08
268.556	3.13
268.93	3.14
269.304	3.32
269.678	3.27
270.051	3.23
270.425	3.12
270.799	3.1
271.172	3.1
271.546	3.1
271.919	2.94
272.293	2.72
272.666	2.68
273.04	2.81
273.413	2.84
273.787	2.84
274.16	2.88
274.533	2.75
274.906	2.67
275.279	2.66
275.653	2.79
276.026	2.75
276.399	2.75
276.772	2.8
277.145	2.61
277.518	2.63
277.891	2.7
278.263	2.82
278.636	2.89
279.009	2.91
279.382	2.96
279.755	3.03
280.127	3.22
280.5	3.19
280.872	3.36
281.245	3.26
281.617	3.25
281.99	3.4
282.362	3.68
282.735	3.72
283.107	3.65
283.479	3.67
283.852	3.74
284.224	3.68
284.596	3.68
284.968	3.71
285.34	3.71
285.713	3.6
286.085	3.73
286.457	3.75
286.829	3.86
287.201	3.9
287.572	4.03
287.944	4.02
288.316	4.12
288.688	3.99
289.06	4.04
289.431	4.05
289.803	4.05
290.175	3.93
290.546	4.08
290.918	4.16
291.289	4.19
291.661	4.18
292.032	4.39
292.403	4.37
292.775	4.36
293.146	4.32
293.517	4.34
293.889	4.29
294.26	4.23
294.631	4.19
295.002	4.22
295.373	4.13
295.744	4.11
296.115	4.2
296.486	4.21
296.857	4.1
297.228	4.1
297.599	4.09
297.97	4.2
298.34	4.14
298.711	4.25
299.082	4.19
299.452	4.22
299.823	4.2
300.194	4.29
300.564	4.24
300.935	4.3
301.305	4.17
301.676	4.22
302.046	4.24
302.416	4.29
302.787	4.16
303.157	4.23
303.527	4.24
303.897	4.09
304.267	4.2
304.637	4.29
305.008	4.49
305.378	4.47
305.748	4.53
306.117	4.5
306.487	4.46
306.857	4.42
307.227	4.49
307.597	4.38
307.967	4.3
308.336	4.38
308.706	4.33
309.076	4.57
309.445	4.41
309.815	4.32
310.184	4.2
310.554	4.21
310.923	4.22
311.293	4.22
311.662	4.2
312.031	4.16
312.401	4.15
312.77	4.18
313.139	4.18
313.508	3.99
313.877	3.94
314.246	3.89
314.616	3.79
314.985	3.68
315.353	3.65
315.722	3.68
316.091	3.51
316.46	3.43
316.829	3.32
317.198	3.46
317.567	3.58
317.935	3.65
318.304	3.68
318.672	3.51
319.041	3.56
319.41	3.6
319.778	3.52
320.147	3.37
320.515	3.17
320.883	2.94
321.252	3.01
321.62	2.99
321.988	3.01
322.357	3.19
322.725	3.2
323.093	3.29
323.461	3.28
323.829	3.53
324.197	3.65
324.565	3.66
324.933	3.58
325.301	3.57
325.669	3.57
326.037	3.57
326.405	3.67
326.772	3.57
327.14	3.61
327.508	3.61
327.875	3.73
328.243	3.84
328.61	3.95
328.978	3.92
329.346	3.91
329.713	3.78
330.08	3.75
330.448	3.76
330.815	3.65
331.182	3.61
331.55	3.49
331.917	3.46
332.284	3.48
332.651	3.4
333.018	3.38
333.385	3.36
333.752	3.52
334.119	3.46
334.486	3.5
334.853	3.47
335.22	3.54
335.587	3.61
335.954	3.63
336.32	3.62
336.687	3.58
337.054	3.84
337.42	3.95
337.787	4.01
338.153	4
338.52	4.1
338.886	4.02
339.253	4
339.619	4.09
339.986	4.02
340.352	4.1
340.718	4.15
341.084	4.07
341.451	3.99
341.817	4.1
342.183	4.07
342.549	4.08
342.915	4.09
343.281	4.04
343.647	4.04
344.013	4.09
344.379	4.15
344.745	3.98
345.11	4.02
345.476	4.07
345.842	4.09
346.208	4.03
346.573	4.13
346.939	4.2
347.304	4.13
347.67	4.16
348.035	4.15
348.401	4.2
348.766	4.3
349.132	4.25
349.497	4.17
349.862	4.25
350.228	4.24
350.593	4.18
350.958	4.18
351.323	4.13
351.688	4.2
352.053	4.31
352.418	4.31
352.783	4.29
353.148	4.21
353.513	4.21
353.878	4.27
354.243	4.28
354.608	4.32
354.972	4.32
355.337	4.34
355.702	4.37
356.066	4.38
356.431	4.32
356.795	4.41
357.16	4.42
357.524	4.31
357.889	4.27
358.253	4.29
358.618	4.28
358.982	4.22
359.346	4.06
359.71	3.97
360.075	3.99
360.439	4
360.803	4.02
361.167	4.01
361.531	4.02
361.895	4.01
362.259	3.94
362.623	3.9
362.987	3.89
363.351	3.86
363.714	3.79
364.078	3.79
364.442	3.68
364.806	3.63
365.169	3.68
365.533	3.67
365.896	3.65
366.26	3.66
366.623	3.66
366.987	3.78
367.35	3.79
367.714	3.79
368.077	3.77
368.44	3.75
368.803	3.75
369.167	3.7
369.53	3.71
369.893	3.77
370.256	3.8
370.619	3.81
370.982	3.84
371.345	3.84
371.708	3.86
372.071	3.95
372.434	3.92
372.797	3.96
373.159	3.99
373.522	4.03
373.885	4.07
374.247	4.08
374.61	4.09
374.973	4.1
375.335	4.12
375.698	4.1
376.06	4.06
376.423	4.06
376.785	4.09
377.147	4.12
377.51	4.11
377.872	4.11
378.234	4.13
378.596	4.13
378.958	4.14
379.321	4.15
379.683	4.16
380.045	4.21
380.407	4.16
380.769	4.19
381.13	4.17
381.492	4.14
381.854	4.15
382.216	4.14
382.578	4.11
382.939	4.07
383.301	4.04
383.663	4.08
384.024	4.08
384.386	4.11
384.747	4.12
385.109	4.14
385.47	4.12
385.832	4.13
386.193	4.11
386.554	4.12
386.916	4.12
387.277	4.08
387.638	4.1
387.999	4.14
388.36	4.12
388.721	4.1
389.082	4.09
389.443	4.08
389.804	4.07
390.165	4.05
390.526	4.11
390.887	4.1
391.248	4.12
391.609	4.15
391.969	4.11
392.33	4.09
392.691	4.07
393.051	4.08
393.412	4.04
393.772	4.02
394.133	4.01
394.493	4
394.854	4
395.214	4.01
395.574	4.01
395.935	3.98
396.295	4.01
396.655	3.99
397.015	4
397.376	4.01
397.736	4.05
398.096	4.03
398.456	4.07
398.816	4.08
399.176	4.03
399.535	4.03
399.895	4
400.255	4.01
400.615	4.01
400.975	4.06
401.334	4.08
401.694	4.06
402.054	4.06
402.413	4.07
402.773	4.04
403.132	4.04
403.492	4.1
403.851	4.08
404.211	4.11
404.57	4.08
404.929	4.07
405.288	4.05
405.648	4.04
406.007	4.04
406.366	4.02
406.725	4.07
407.084	4.08
407.443	4.1
407.802	4.11
408.161	4.09
408.52	4.08
408.879	4.07
409.238	4.08
409.596	4.1
409.955	4.1
410.314	4.13
410.673	4.12
411.031	4.08
411.39	4.07
411.748	4.06
412.107	4.11
412.465	4.1
412.824	4.13
413.182	4.11
413.54	4.1
413.899	4.1
414.257	4.1
414.615	4.11
414.974	4.09
415.332	4.08
415.69	4.11
416.048	4.11
416.406	4.15
416.764	4.16
417.122	4.17
417.48	4.15
417.838	4.16
418.195	4.16
418.553	4.16
418.911	4.17
419.269	4.17
419.626	4.16
419.984	4.17
420.342	4.17
420.699	4.17
421.057	4.18
421.414	4.19
421.772	4.19
422.129	4.19
422.486	4.2
422.844	4.21
423.201	4.18
423.558	4.18
423.915	4.16
424.273	4.17
424.63	4.15
424.987	4.16
425.344	4.14
425.701	4.15
426.058	4.16
426.415	4.17
426.772	4.17
427.128	4.17
427.485	4.16
427.842	4.16
428.199	4.15
428.555	4.14
428.912	4.14
429.269	4.15
429.625	4.15
429.982	4.16
430.338	4.16
430.695	4.18
431.051	4.17
431.407	4.17
431.764	4.18
432.12	4.17
432.476	4.18
432.832	4.18
433.189	4.16
433.545	4.17
433.901	4.17
434.257	4.16
434.613	4.17
434.969	4.18
435.325	4.19
435.681	4.2
436.036	4.21
436.392	4.21
436.748	4.19
437.104	4.19
437.459	4.16
437.815	4.16
438.171	4.17
438.526	4.18
438.882	4.16
439.237	4.17
439.593	4.19
439.948	4.18
440.304	4.18
440.659	4.19
441.014	4.19
441.369	4.19
441.725	4.19
442.08	4.18
442.435	4.18
442.79	4.18
443.145	4.2
443.5	4.18
443.855	4.19
444.21	4.19
444.565	4.2
444.92	4.23
445.275	4.22
445.629	4.22
445.984	4.22
446.339	4.23
446.693	4.21
447.048	4.2
447.403	4.19
447.757	4.18
448.112	4.18
448.466	4.18
448.82	4.18
449.175	4.18
449.529	4.18
449.883	4.17
450.238	4.15
450.592	4.16
450.946	4.14
451.3	4.12
451.654	4.12
452.008	4.13
452.362	4.12
452.716	4.1
453.07	4.09
453.424	4.1
453.778	4.12
454.132	4.12
454.486	4.11
454.839	4.12
455.193	4.14
455.547	4.14
455.9	4.13
456.254	4.14
456.607	4.13
456.961	4.15
457.314	4.17
457.668	4.18
458.021	4.14
458.375	4.16
458.728	4.18
459.081	4.18
459.434	4.15
459.787	4.15
460.141	4.17
460.494	4.18
460.847	4.18
461.2	4.17
461.553	4.17
461.906	4.19
462.259	4.21
462.611	4.21
462.964	4.22
463.317	4.21
463.67	4.21
464.022	4.22
464.375	4.2
464.728	4.19
465.08	4.21
465.433	4.22
465.785	4.19
466.138	4.17
466.49	4.16
466.843	4.15
467.195	4.15
467.547	4.14
467.899	4.13
468.252	4.11
468.604	4.13
468.956	4.12
469.308	4.12
469.66	4.09
470.012	4.1
470.364	4.1
470.716	4.12
471.068	4.14
471.42	4.14
471.772	4.16
472.123	4.15
472.475	4.15
472.827	4.16
473.178	4.17
473.53	4.18
473.882	4.2
474.233	4.23
474.585	4.21
474.936	4.22
475.288	4.22
475.639	4.24
475.99	4.25
476.342	4.28
476.693	4.28
477.044	4.3
477.395	4.31
477.746	4.29
478.097	4.27
478.448	4.26
478.8	4.25
479.15	4.24
479.501	4.27
479.852	4.26
480.203	4.28
480.554	4.3
480.905	4.32
481.255	4.33
481.606	4.34
481.957	4.35
482.307	4.35
482.658	4.35
483.009	4.35
483.359	4.35
483.709	4.35
484.06	4.34
484.41	4.35
484.761	4.35
485.111	4.36
485.461	4.37
485.811	4.37
486.162	4.37
486.512	4.37
486.862	4.37
487.212	4.37
487.562	4.37
487.912	4.37
488.262	4.37
488.612	4.37
488.961	4.36
489.311	4.36
489.661	4.36
490.011	4.37
490.36	4.38
490.71	4.38
491.06	4.38
491.409	4.38
491.759	4.38
492.108	4.37
492.458	4.36
492.807	4.34
493.157	4.36
493.506	4.36
493.855	4.35
494.204	4.35
494.554	4.35
494.903	4.34
495.252	4.33
495.601	4.35
495.95	4.35
496.299	4.35
496.648	4.34
496.997	4.35
497.346	4.36
497.695	4.34
498.043	4.32
498.392	4.31
498.741	4.31
499.09	4.32
499.438	4.33
499.787	4.35
500.135	4.38
500.484	4.37
500.832	4.39
501.181	4.4
501.529	4.4
501.878	4.41
502.226	4.4
502.574	4.42
502.923	4.4
503.271	4.39
503.619	4.4
503.967	4.42
504.315	4.41
504.663	4.41
505.011	4.42
505.359	4.43
505.707	4.44
506.055	4.45
506.403	4.47
506.751	4.46
507.098	4.45
507.446	4.46
507.794	4.48
508.141	4.48
508.489	4.49
508.837	4.48
509.184	4.48
509.531	4.51
509.879	4.52
510.226	4.52
510.574	4.53
510.921	4.53
511.268	4.53
511.616	4.54
511.963	4.55
512.31	4.55
512.657	4.57
513.004	4.57
513.351	4.58
513.698	4.57
514.045	4.57
514.392	4.57
514.739	4.55
515.086	4.55
515.432	4.56
515.779	4.55
516.126	4.58
516.473	4.59
516.819	4.59
517.166	4.58
517.512	4.57
517.859	4.57
518.205	4.58
518.552	4.59
518.898	4.58
519.245	4.56
519.591	4.57
519.937	4.55
520.283	4.56
520.629	4.56
520.976	4.57
521.322	4.58
521.668	4.59
522.014	4.6
522.36	4.6
522.706	4.59
523.052	4.57
523.398	4.58
523.743	4.59
524.089	4.61
524.435	4.63
524.781	4.65
525.126	4.66
525.472	4.67
525.817	4.68
526.163	4.68
526.509	4.71
526.854	4.71
527.199	4.73
527.545	4.71
527.89	4.72
528.235	4.71
528.581	4.71
528.926	4.71
529.271	4.71
529.616	4.71
529.961	4.72
530.306	4.74
530.651	4.75
530.996	4.75
531.341	4.72
531.686	4.72
532.031	4.73
532.376	4.73
532.721	4.74
533.065	4.73
533.41	4.75
533.755	4.74
534.099	4.74
534.444	4.74
534.788	4.77
535.133	4.77
535.477	4.78
535.822	4.78
536.166	4.79
536.51	4.8
536.855	4.8
537.199	4.81
537.543	4.82
537.887	4.8
538.231	4.79
538.576	4.81
538.92	4.82
539.264	4.82
539.608	4.81
539.951	4.79
540.295	4.79
540.639	4.76
540.983	4.78
541.327	4.78
541.671	4.78
542.014	4.77
542.358	4.77
542.701	4.78
543.045	4.79
543.389	4.78
543.732	4.77
544.075	4.77
544.419	4.77
544.762	4.76
545.105	4.78
545.449	4.8
545.792	4.81
546.135	4.8
546.478	4.8
546.821	4.79
547.165	4.81
547.508	4.82
547.851	4.82
548.194	4.81
548.536	4.81
548.879	4.79
549.222	4.8
549.565	4.82
549.908	4.8
550.25	4.8
550.593	4.83
550.936	4.81
551.278	4.8
551.621	4.82
551.963	4.83
552.306	4.81
552.648	4.81
552.991	4.8
553.333	4.8
553.675	4.8
554.017	4.81
554.36	4.8
554.702	4.8
555.044	4.82
555.386	4.81
555.728	4.81
556.07	4.84
556.412	4.84
556.754	4.82
557.096	4.82
557.438	4.84
557.78	4.83
558.121	4.87
558.463	4.88
558.805	4.87
559.147	4.85
559.488	4.85
559.83	4.85
560.171	4.83
560.513	4.85
560.854	4.85
561.196	4.89
561.537	4.89
561.878	4.88
562.22	4.87
562.561	4.88
562.902	4.87
563.243	4.88
563.584	4.89
563.925	4.9
564.266	4.87
564.607	4.87
564.948	4.9
565.289	4.87
565.63	4.88
565.971	4.87
566.312	4.85
566.653	4.87
566.993	4.87
567.334	4.89
567.675	4.89
568.015	4.88
568.356	4.87
568.696	4.89
569.037	4.91
569.377	4.91
569.718	4.91
570.058	4.92
570.398	4.9
570.739	4.9
571.079	4.9
571.419	4.92
571.759	4.9
572.099	4.88
572.439	4.89
572.779	4.89
573.119	4.89
573.459	4.93
573.799	4.92
574.139	4.91
574.479	4.91
574.819	4.9
575.158	4.91
575.498	4.92
575.838	4.89
576.177	4.83
576.517	4.87
576.856	4.88
577.196	4.89
577.535	4.89
577.875	4.89
578.214	4.91
578.553	4.93
578.893	4.92
579.232	4.94
579.571	4.95
579.91	4.96
580.25	4.99
580.589	4.95
580.928	4.98
581.267	5
581.606	5
581.945	5.03
582.283	5
582.622	4.99
582.961	4.98
583.3	5.02
583.639	5.03
583.977	5.02
584.316	5
584.654	5
584.993	5.01
585.332	5.01
585.67	5.01
586.008	5.02
586.347	4.99
586.685	4.98
587.024	4.99
587.362	4.95
587.7	4.96
588.038	4.94
588.376	4.94
588.715	4.92
589.053	4.94
589.391	5
589.729	4.98
590.067	4.97
590.404	4.98
590.742	4.97
591.08	4.98
591.418	5.02
591.756	5
592.093	4.99
592.431	4.97
592.769	4.97
593.106	4.97
593.444	4.97
593.781	4.99
594.119	4.99
594.456	4.98
594.793	4.99
595.131	5.01
595.468	5.02
595.805	5.02
596.143	5
596.48	5
596.817	5.01
597.154	5.03
597.491	5.03
597.828	5.04
598.165	5.02
598.502	5.01
598.839	5.04
599.176	5.02
599.512	5.07
599.849	5.05
600.186	5.06
600.523	5.09
600.859	5.1
601.196	5.08
601.532	5.1
601.869	5.1
602.205	5.08
602.542	5.1
602.878	5.05
603.215	5.05
603.551	5.03
603.887	5.04
604.223	5.04
604.56	5.05
604.896	5.04
605.232	5.09
605.568	5.09
605.904	5.07
606.24	5.1
606.576	5.08
606.912	5.08
607.248	5.08
607.583	5.07
607.919	5.05
608.255	5.05
608.591	5.08
608.926	5.05
609.262	5.06
609.597	5.08
609.933	5.15
610.268	5.16
610.604	5.16
610.939	5.16
611.275	5.18
611.61	5.19
611.945	5.19
612.281	5.13
612.616	5.11
612.951	5.14
613.286	5.15
613.621	5.12
613.956	5.1
614.291	5.09
614.626	5.13
614.961	5.13
615.296	5.1
615.631	5.06
615.966	5.12
616.3	5.11
616.635	5.08
616.97	5.04
617.304	5.03
617.639	5.05
617.973	5.07
618.308	5.07
618.642	5.07
618.977	5.05
619.311	5.04
619.646	5.06
619.98	5.07
620.314	5.07
620.648	5.08
620.983	5.11
621.317	5.11
621.651	5.12
621.985	5.13
622.319	5.19
622.653	5.22
622.987	5.21
623.321	5.24
623.655	5.24
623.988	5.24
624.322	5.23
624.656	5.25
624.99	5.24
625.323	5.21
625.657	5.21
625.99	5.28
626.324	5.29
626.657	5.29
626.991	5.29
627.324	5.28
627.658	5.32
627.991	5.35
628.324	5.35
628.657	5.31
628.991	5.34
629.324	5.32
629.657	5.31
629.99	5.32
630.323	5.31
630.656	5.28
630.989	5.34
631.322	5.37
631.655	5.37
631.987	5.39
632.32	5.42
632.653	5.44
632.986	5.4
633.318	5.39
633.651	5.42
633.984	5.38
634.316	5.39
634.649	5.36
634.981	5.34
635.313	5.39
635.646	5.36
635.978	5.36
636.31	5.37
636.643	5.36
636.975	5.3
637.307	5.26
637.639	5.29
637.971	5.26
638.303	5.23
638.635	5.22
638.967	5.16
639.299	5.21
639.631	5.15
639.963	5.1
640.295	5.14
640.626	5.08
640.958	5.17
641.29	5.17
641.621	5.12
641.953	5.12
642.285	5.08
642.616	5.17
642.948	5.14
643.279	5.12
643.61	5.23
643.942	5.31
644.273	5.35
644.604	5.41
644.936	5.39
645.267	5.38
645.598	5.36
645.929	5.4
646.26	5.36
646.591	5.44
646.922	5.48
647.253	5.52
647.584	5.55
647.915	5.47
648.245	5.41
648.576	5.48
648.907	5.51
649.238	5.51
649.568	5.45
649.899	5.5
650.229	5.51
650.56	5.43
650.89	5.38
651.221	5.38
651.551	5.3
651.882	5.34
652.212	5.41
652.542	5.44
652.872	5.4
653.203	5.35
653.533	5.31
653.863	5.32
654.193	5.24
654.523	5.25
654.853	5.27
655.183	5.3
655.513	5.22
655.843	5.13
656.172	5.12
656.502	5.19
656.832	5.1
657.162	5.2
657.491	5.24
657.821	5.27
658.15	5.25
658.48	5.27
658.809	5.29
659.139	5.23
659.468	5.21
659.798	5.28
660.127	5.35
660.456	5.39
660.785	5.39
661.115	5.41
661.444	5.41
661.773	5.45
662.102	5.47
662.431	5.54
662.76	5.61
663.089	5.59
663.418	5.58
663.747	5.65
664.076	5.6
664.404	5.56
664.733	5.64
665.062	5.62
665.39	5.59
665.719	5.53
666.048	5.55
666.376	5.55
666.705	5.52
667.033	5.44
667.362	5.48
667.69	5.48
668.018	5.51
668.347	5.5
668.675	5.51
669.003	5.58
669.331	5.62
669.659	5.64
669.987	5.7
670.315	5.64
670.643	5.66
670.971	5.64
671.299	5.66
671.627	5.59
671.955	5.62
672.283	5.66
672.61	5.67
672.938	5.72
673.266	5.73
673.593	5.83
673.921	5.87
674.249	5.78
674.576	5.81
674.904	5.8
675.231	5.74
675.558	5.67
675.886	5.67
676.213	5.7
676.54	5.61
676.867	5.65
677.195	5.72
677.522	5.74
677.849	5.71
678.176	5.76
678.503	5.76
678.83	5.78
679.157	5.7
679.484	5.61
679.81	5.6
680.137	5.59
680.464	5.47
680.791	5.47
681.117	5.44
681.444	5.4
681.771	5.38
682.097	5.47
682.424	5.51
682.75	5.47
683.077	5.39
683.403	5.43
683.729	5.31
684.056	5.27
684.382	5.24
684.708	5.21
685.034	5.19
685.36	5.19
685.686	5.17
686.012	5.27
686.339	5.42
686.664	5.41
686.99	5.43
687.316	5.48
687.642	5.49
687.968	5.51
688.294	5.68
688.619	5.71
688.945	5.68
689.271	5.7
689.596	5.68
689.922	5.68
690.247	5.69
690.573	5.74
690.898	5.7
691.224	5.66
691.549	5.68
691.874	5.62
692.2	5.69
692.525	5.66
692.85	5.65
693.175	5.62
693.5	5.61
693.825	5.62
694.15	5.63
694.475	5.59
694.8	5.6
695.125	5.41
695.45	5.38
695.775	5.41
696.099	5.46
696.424	5.48
696.749	5.51
697.073	5.48
697.398	5.55
697.723	5.55
698.047	5.6
698.372	5.62
698.696	5.69
699.02	5.66
699.345	5.73
699.669	5.82
699.993	5.75
700.318	5.77
700.642	5.75
700.966	5.76
701.29	5.79
701.614	5.78
701.938	5.87
702.262	5.94
702.586	5.94
702.91	5.81
703.234	5.85
703.557	5.89
703.881	5.92
704.205	5.95
704.529	5.97
704.852	5.95
705.176	6.03
705.499	6
705.823	5.9
706.146	5.83
706.47	5.77
706.793	5.91
707.117	5.9
707.44	5.91
707.763	5.88
708.086	5.84
708.409	5.92
708.733	5.9
709.056	5.86
709.379	5.85
709.702	5.9
710.025	5.85
710.348	5.8
710.671	5.81
710.993	5.73
711.316	5.82
711.639	5.82
711.962	5.81
712.284	5.8
712.607	5.76
712.93	5.76
713.252	5.66
713.575	5.65
713.897	5.72
714.22	5.75
714.542	5.75
714.864	5.59
715.187	5.69
715.509	5.63
715.831	5.75
716.153	5.78
716.475	5.8
716.798	5.87
717.12	5.74
717.442	5.78
717.764	5.68
718.085	5.65
718.407	5.66
718.729	5.69
719.051	5.78
719.373	5.92
719.695	6.01
720.016	6.17
720.338	6.08
720.659	5.99
720.981	5.91
721.302	5.86
721.624	6.14
721.945	5.98
722.267	6
722.588	6.03
722.909	6.05
723.231	6.07
723.552	5.92
723.873	6.18
724.194	6.14
724.515	6.33
724.836	6.26
725.157	6.34
725.478	6.3
725.799	6.22
726.12	6.17
726.441	6.04
726.762	6
727.083	6.09
727.403	6.27
727.724	6.38
728.045	6.5
728.365	6.32
728.686	6.48
729.006	6.58
729.327	6.36
729.647	6.35
729.967	6.27
730.288	6.37
730.608	6.26
730.928	6.25
731.249	6.18
731.569	6.25
731.889	6.17
732.209	6.08
732.529	6.05
732.849	6
733.169	6.07
733.489	6.11
733.809	6.07
734.129	5.97
734.448	6.05
734.768	6.04
735.088	6.19
735.408	6.11
735.727	6.13
736.047	6.24
736.366	6.16
736.686	6.14
737.005	6.25
737.325	6.19
737.644	6.24
737.963	6.42
738.283	6.41
738.602	6.29
738.921	6.43
739.24	6.55
739.56	6.66
739.879	6.78
740.198	6.85
740.517	6.93
740.836	6.85
741.155	6.77
741.473	6.75
741.792	6.87
742.111	6.93
742.43	6.81
742.748	6.78
743.067	6.73
743.386	6.85
743.704	6.59
744.023	6.77
744.341	6.74
744.66	6.71
744.978	6.54
745.297	6.81
745.615	6.85
745.933	6.86
746.252	6.88
746.57	6.56
746.888	6.33
747.206	6.07
747.524	6.19
747.842	6.17
748.16	6.16
748.478	6.14
748.796	6.11
749.114	6.34
749.432	6.17
749.749	6.27
750.067	6.31
750.385	6.48
750.703	6.38
751.02	6.31
751.338	6.37
751.655	6.43
751.973	6.64
752.29	6.52
752.608	6.5
752.925	6.59
753.242	6.89
753.56	7.02
753.877	7.23
754.194	7.28
754.511	7.21
754.828	7.19
755.145	6.97
755.462	6.91
755.779	6.85
756.096	7.03
756.413	7.15
756.73	7.14
757.047	7.16
757.364	7.13
757.68	7.33
757.997	7.12
758.314	7.21
758.63	6.85
758.947	6.95
759.264	6.74
759.58	6.6
759.896	6.59
760.213	6.58
760.529	6.62
760.846	6.41
761.162	6.44
761.478	6.42
761.794	6.4
762.11	6.48
762.426	6.39
762.743	6.63
763.059	6.76
763.375	6.83
763.69	6.77
764.006	6.87
764.322	6.9
764.638	6.86
764.954	7.03
765.27	6.98
765.585	7.09
765.901	7.17
766.216	7.15
766.532	7.04
766.848	6.93
767.163	6.79
767.478	6.8
767.794	6.83
768.109	6.81
768.424	7.03
768.74	7.07
769.055	6.91
769.37	6.51
769.685	6.22
770	6.41
770.315	6.43
770.63	6.51
770.945	6.49
771.26	6.65
771.575	6.21
771.89	6.49
772.205	6.06
772.52	6.08
772.834	5.9
773.149	6
773.464	5.83
773.778	6.02
774.093	5.93
774.407	5.89
774.722	5.96
775.036	5.79
775.351	5.47
775.665	5.77
775.979	5.73
776.293	5.79
776.608	5.43
776.922	5.43
777.236	5.32
777.55	4.88
777.864	4.92
778.178	5.51
778.492	5.29
778.806	5.07
779.12	5.13
779.434	5.65
779.747	5.7
780.061	5.86
780.375	5.56
780.689	5.71
781.002	5.87
781.316	5.77
781.629	6.07
781.943	6.64
782.256	6.69
782.57	6.77
782.883	6.86
783.196	6.55
783.51	6.45
783.823	6.14
784.136	6.6
784.449	6.58
784.762	6.37
785.075	6.68
785.388	7.3
785.701	7.29
786.014	6.71
786.327	6.37
786.64	6.6
786.953	6.83
787.266	6.86
787.578	6.91
787.891	7.25
788.204	7.19
788.516	6.72
788.829	6.51
789.141	6.66
789.454	6.31
789.766	6.72
790.079	7.08
790.391	7.31
790.703	7.33
791.016	7.2
791.328	7.19
791.64	6.83
791.952	7.04
792.264	6.94
792.576	7.43
792.888	7.73
793.2	7.96
793.512	8.14
793.824	8.2
794.136	7.99
794.448	7.79
794.76	7.32
795.071	7.37
795.383	7.41
795.695	7.05
796.006	7.4
796.318	7.72
796.629	7.76
796.941	7.46
797.252	7.94
797.564	8.27
797.875	8.06
798.186	8.12
798.497	7.9
798.809	7.74
799.12	7.59
799.431	7.24
799.742	6.84
800.053	6.67
800.364	6.47
800.675	6.61
800.986	6.59
801.297	6.29
801.608	5.97
801.918	6.13
802.229	6.28
802.54	6.52
802.851	5.9
803.161	5.74
803.472	5.97
803.782	5.55
804.093	5.13
804.403	5.27
804.714	5.4
805.024	4.78
805.334	5
805.645	5.12
805.955	5.46
806.265	5.7
806.575	5.59
806.885	6.34
807.195	5.88
807.505	6.09
807.815	6.91
808.125	6.93
808.435	6.57
808.745	7.02
809.055	6.65
809.365	6.9
809.674	6.78
809.984	7.09
810.294	6.84
810.603	6.86
810.913	7.31
811.222	7.63
811.532	8.41
811.841	9.02
812.151	9.13
812.46	8.79
812.769	8.41
813.079	9.02
813.388	8.51
813.697	9.01
814.006	8.86
814.315	8.82
814.624	8.86
814.933	9.43
815.242	9
815.551	9.37
815.86	9.36
816.169	8.97
816.478	8.38
816.786	8.18
817.095	8.62
817.404	7.95
817.712	7.87
818.021	8.06
818.33	7.75
818.638	7.68
818.947	8.59
819.255	8.69
819.563	8.32
819.872	7.97
820.18	8.02
820.488	8.05
820.796	8.13
821.105	8.09
821.413	7.96
821.721	8.1
822.029	8.16
822.337	8.16
822.645	8.31
822.953	8.32
823.26	8.46
823.568	8.31
823.876	8.33
824.184	8.27
824.491	8.27
824.799	8.29
825.107	8.25
825.414	8.18
825.722	8.22
826.029	8.3
826.337	8.48
826.644	8.55
826.951	8.6
827.259	8.59
827.566	8.82
827.873	8.98
828.18	8.96
828.488	8.88
828.795	8.82
829.102	8.75
829.409	9.04
829.716	8.87
830.023	8.87
830.329	9.01
830.636	9.16
830.943	8.95
831.25	8.92
831.557	8.96
831.863	8.77
832.17	8.96
832.476	9.02
832.783	8.89
833.089	8.71
833.396	8.56
833.702	8.63
834.009	8.55
834.315	8.38
834.621	8.36
834.928	8.29
835.234	8.34
835.54	8.08
835.846	8.11
836.152	8.47
836.458	8.5
836.764	8.17
837.07	7.81
837.376	7.77
837.682	7.43
837.988	7.27
838.293	7.12
838.599	7.1
838.905	6.65
839.211	6.35
839.516	6.05
839.822	6.41
840.127	6.46
840.433	6.8
840.738	7.26
841.044	6.65
841.349	7.38
841.654	7.9
841.959	8.16
842.265	8.48
842.57	8.13
842.875	8.15
843.18	8.75
843.485	9.69
843.79	9.59
844.095	10.22
844.4	11.18
844.705	11.04
845.01	10.08
845.315	9.73
845.619	10.69
845.924	10.64
846.229	9.87
846.533	9.45
846.838	8.76
847.142	7.74
847.447	8.39
847.751	7.65
848.056	7.5
848.36	8.94
848.664	7.46
848.969	7.77
849.273	9.31
849.577	9.58
849.881	7.54
850.185	7.08
850.489	7.52
850.794	6.55
851.097	6.43
851.401	8.21
851.705	9.56
852.009	10.19
852.313	9.32
852.617	8.84
852.92	9.17
853.224	9.03
853.528	8.13
853.831	8.6
854.135	7.93
854.438	6.42
854.742	5.15
855.045	6.32
855.349	6.78
855.652	5.27
855.955	4.61
856.259	4.27
856.562	5.57
856.865	4.5
857.168	3.5
857.471	2.37
857.774	1.87
858.077	1.35
858.38	2.82
858.683	3.27
858.986	5.25
859.289	5.27
859.592	4.85
859.894	6.91
860.197	6.78
860.5	6.17
860.802	6.82
861.105	8.38
861.407	5.85
861.71	4.8
862.012	4.09
862.315	3.85
862.617	5.23
862.919	4.94
863.222	4.92
863.524	6.27
863.826	7.72
864.128	8.61
864.43	8.28
864.732	7.09
865.034	8.83
865.336	5.61
865.638	4.49
865.94	3.02
866.242	0.64
866.544	0.76
866.846	-0.49
867.147	-0.68
867.449	-2.25
867.751	0.07
868.052	0.53
868.354	1.5
868.655	1.13
868.957	0.35
869.258	-0.58
869.56	2.4
869.861	-0.17
870.162	-0.02
870.463	-2.52
870.765	-0.57
871.066	-1.72
871.367	-3.99
871.668	-0.42
871.969	-2.33
872.27	-0.72
872.571	1.61
872.872	3.02
873.173	1.88
873.473	0.19
873.774	-1.19
874.075	-2.41
874.376	-3.39
874.676	-1.13
874.977	-0.67
875.277	-0.33
875.578	0.74
875.878	-2.09
876.179	-0.44
876.479	-0.43
876.78	0.03
877.08	-0.96
877.38	-1.74
877.68	-0.5
877.981	-2.93
878.281	-0.1
878.581	-0.09
