Data from BA57965_Reflection_00010.txt Node
Date: Mon Nov 18 15:16:21 EST 2019
User: vgr7
Spectrometer: USB2G7710
Scans to average: 3
Trigger mode: 4
Integration Time (sec): 2.000000E-2
Electric dark correction enabled: true
Boxcar width: 10
XAxis mode: Wavelengths
Number of Pixels in Spectrum: 2048
>>>>>Begin Spectral Data<<<<<
177.721	13.94
178.105	8.01
178.488	-13.98
178.871	-15.11
179.254	-139.09
179.636	6.59
180.019	9.62
180.402	65.79
180.785	-125.4
181.168	-252.77
181.55	-545.32
181.933	12.88
182.316	109.27
182.698	455.65
183.081	764.52
183.463	-403.18
183.846	-151.36
184.228	2.26
184.611	-87.58
184.993	-68.81
185.376	-14.8
185.758	0.45
186.14	-14.3
186.522	-14.83
186.904	-6.54
187.287	-11.18
187.669	27.5
188.051	27.29
188.433	48.18
188.815	40.73
189.197	21.81
189.579	28.74
189.961	35.4
190.342	56.04
190.724	62.85
191.106	51.79
191.488	42.18
191.869	50.48
192.251	48.2
192.633	64.96
193.014	71.82
193.396	68.48
193.777	55.32
194.159	85.13
194.54	94.64
194.922	93.37
195.303	93.09
195.684	73.5
196.065	73.42
196.447	49.92
196.828	35.89
197.209	51.74
197.59	52.23
197.971	53.88
198.352	48.11
198.733	45.61
199.114	54.81
199.495	64.95
199.876	55.2
200.257	50.56
200.638	50.04
201.018	45.35
201.399	48.87
201.78	59.62
202.16	41.5
202.541	32.62
202.922	26.4
203.302	13.16
203.683	12.21
204.063	8.01
204.444	25.75
204.824	34.32
205.204	24.51
205.585	21.14
205.965	19.97
206.345	19.09
206.725	21.02
207.106	21.93
207.486	16.96
207.866	7.08
208.246	15.47
208.626	7.46
209.006	15.54
209.386	3.4
209.766	7.89
210.145	17.04
210.525	23.43
210.905	24.45
211.285	27.84
211.664	30.88
212.044	35.89
212.424	29.63
212.803	29.15
213.183	38.88
213.562	48.02
213.942	48.15
214.321	40.9
214.701	45.37
215.08	41.92
215.459	47.61
215.838	59.36
216.218	61.46
216.597	69.46
216.976	67.81
217.355	68.4
217.734	69.43
218.113	72.73
218.492	77.18
218.871	81.85
219.25	82.2
219.629	83.25
220.008	76.99
220.387	81.52
220.766	71.7
221.144	55.2
221.523	39.19
221.902	51.54
222.28	52.28
222.659	47.41
223.037	46.36
223.416	35.78
223.794	26.19
224.173	14.72
224.551	11.5
224.929	13.89
225.308	17.75
225.686	13.43
226.064	15.65
226.442	13.56
226.821	15.49
227.199	15.81
227.577	13.68
227.955	12.66
228.333	13.26
228.711	18.06
229.089	20.29
229.467	21.6
229.845	18.83
230.222	20.14
230.6	18.68
230.978	18.19
231.356	20.12
231.733	19.53
232.111	20.7
232.488	21.64
232.866	21.14
233.243	21.07
233.621	20.46
233.998	20.91
234.376	21.25
234.753	21.19
235.13	21.21
235.508	22.77
235.885	22.46
236.262	19.29
236.639	15.05
237.016	15.73
237.393	14.86
237.77	14.04
238.147	13.2
238.524	12.54
238.901	12.83
239.278	11.46
239.655	11.76
240.032	10.93
240.409	10.3
240.785	9.94
241.162	9.76
241.539	9.68
241.915	8.97
242.292	8.36
242.668	8.01
243.045	7.8
243.421	7.2
243.798	7.01
244.174	7.01
244.551	7.33
244.927	7.04
245.303	7
245.679	6.74
246.056	6.32
246.432	6.36
246.808	6.02
247.184	5.94
247.56	5.65
247.936	5.83
248.312	5.9
248.688	6.01
249.064	5.79
249.44	5.91
249.815	5.96
250.191	6.09
250.567	6.05
250.943	5.89
251.318	6
251.694	6.31
252.069	6.58
252.445	6.72
252.82	6.69
253.196	6.71
253.571	6.8
253.947	7.21
254.322	7.43
254.697	7.29
255.073	6.9
255.448	6.64
255.823	6.21
256.198	6.09
256.573	5.72
256.948	5.66
257.323	5.52
257.698	5.26
258.073	5.15
258.448	5.07
258.823	5.1
259.198	5.06
259.573	4.93
259.948	4.81
260.322	4.7
260.697	4.59
261.072	4.45
261.446	4.5
261.821	4.47
262.195	4.5
262.57	4.57
262.944	4.69
263.319	4.84
263.693	4.94
264.067	4.96
264.442	5.07
264.816	5.17
265.19	5.08
265.564	5.29
265.938	5.16
266.313	5.02
266.687	4.89
267.061	4.92
267.435	4.89
267.809	4.97
268.183	5.01
268.556	4.94
268.93	5.08
269.304	5.15
269.678	5.1
270.051	4.92
270.425	4.96
270.799	4.99
271.172	4.97
271.546	4.87
271.919	4.85
272.293	4.93
272.666	4.91
273.04	5
273.413	5.07
273.787	5.18
274.16	5.23
274.533	5.23
274.906	5.15
275.279	5.18
275.653	5.07
276.026	4.99
276.399	5.01
276.772	5.09
277.145	4.89
277.518	4.78
277.891	4.82
278.263	4.69
278.636	4.76
279.009	4.71
279.382	4.95
279.755	4.93
280.127	4.83
280.5	4.78
280.872	4.78
281.245	4.67
281.617	4.74
281.99	4.91
282.362	4.97
282.735	4.98
283.107	4.89
283.479	5.01
283.852	5.01
284.224	5.1
284.596	5.05
284.968	5.21
285.34	5.37
285.713	5.21
286.085	5.34
286.457	5.35
286.829	5.48
287.201	5.47
287.572	5.39
287.944	5.37
288.316	5.36
288.688	5.29
289.06	5.2
289.431	5.17
289.803	5.19
290.175	5.27
290.546	5.27
290.918	5.37
291.289	5.47
291.661	5.61
292.032	5.64
292.403	5.63
292.775	5.64
293.146	5.56
293.517	5.73
293.889	5.64
294.26	5.61
294.631	5.56
295.002	5.5
295.373	5.51
295.744	5.51
296.115	5.63
296.486	5.73
296.857	5.89
297.228	5.98
297.599	5.96
297.97	6.03
298.34	6.13
298.711	6.17
299.082	5.98
299.452	5.92
299.823	5.93
300.194	6
300.564	5.95
300.935	6.1
301.305	6.1
301.676	6.29
302.046	6.39
302.416	6.55
302.787	6.45
303.157	6.55
303.527	6.7
303.897	6.68
304.267	6.78
304.637	6.72
305.008	6.68
305.378	6.77
305.748	6.8
306.117	6.83
306.487	6.94
306.857	7.16
307.227	7.31
307.597	7.33
307.967	7.39
308.336	7.5
308.706	7.5
309.076	7.61
309.445	7.47
309.815	7.45
310.184	7.35
310.554	7.58
310.923	7.7
311.293	7.68
311.662	7.68
312.031	7.67
312.401	7.86
312.77	7.9
313.139	7.97
313.508	8
313.877	8.02
314.246	7.94
314.616	7.89
314.985	7.91
315.353	7.89
315.722	7.97
316.091	7.97
316.46	8.02
316.829	8.12
317.198	8.36
317.567	8.53
317.935	8.64
318.304	8.65
318.672	8.63
319.041	8.67
319.41	8.76
319.778	8.71
320.147	8.66
320.515	8.7
320.883	8.65
321.252	8.6
321.62	8.65
321.988	8.82
322.357	8.9
322.725	8.9
323.093	9.12
323.461	9.09
323.829	9.17
324.197	9.18
324.565	9.22
324.933	9.18
325.301	9.21
325.669	9.19
326.037	9.25
326.405	9.27
326.772	9.34
327.14	9.3
327.508	9.3
327.875	9.31
328.243	9.37
328.61	9.47
328.978	9.51
329.346	9.63
329.713	9.58
330.08	9.68
330.448	9.64
330.815	9.58
331.182	9.64
331.55	9.62
331.917	9.66
332.284	9.57
332.651	9.67
333.018	9.62
333.385	9.75
333.752	9.79
334.119	9.77
334.486	9.78
334.853	9.76
335.22	9.86
335.587	9.97
335.954	9.88
336.32	9.9
336.687	10.01
337.054	9.98
337.42	10.13
337.787	10.17
338.153	10.18
338.52	10.32
338.886	10.33
339.253	10.35
339.619	10.43
339.986	10.5
340.352	10.5
340.718	10.45
341.084	10.25
341.451	10.3
341.817	10.33
342.183	10.4
342.549	10.44
342.915	10.54
343.281	10.49
343.647	10.64
344.013	10.57
344.379	10.47
344.745	10.44
345.11	10.39
345.476	10.35
345.842	10.45
346.208	10.33
346.573	10.43
346.939	10.51
347.304	10.44
347.67	10.39
348.035	10.31
348.401	10.33
348.766	10.49
349.132	10.43
349.497	10.25
349.862	10.26
350.228	10.33
350.593	10.23
350.958	10.2
351.323	10.14
351.688	10.15
352.053	10.34
352.418	10.42
352.783	10.31
353.148	10.3
353.513	10.22
353.878	10.28
354.243	10.16
354.608	10.1
354.972	10.06
355.337	10.02
355.702	10.08
356.066	10.14
356.431	10.03
356.795	10.1
357.16	10.18
357.524	10.13
357.889	10.02
358.253	9.96
358.618	9.97
358.982	9.9
359.346	9.88
359.71	9.79
360.075	9.65
360.439	9.65
360.803	9.56
361.167	9.49
361.531	9.43
361.895	9.39
362.259	9.32
362.623	9.31
362.987	9.33
363.351	9.3
363.714	9.22
364.078	9.18
364.442	9.02
364.806	9.03
365.169	8.99
365.533	9.01
365.896	8.97
366.26	8.88
366.623	8.84
366.987	8.75
367.35	8.68
367.714	8.73
368.077	8.68
368.44	8.67
368.803	8.64
369.167	8.55
369.53	8.45
369.893	8.45
370.256	8.41
370.619	8.32
370.982	8.17
371.345	8.16
371.708	8.16
372.071	8.19
372.434	8.07
372.797	7.98
373.159	7.97
373.522	7.97
373.885	7.93
374.247	7.93
374.61	7.91
374.973	7.83
375.335	7.74
375.698	7.67
376.06	7.6
376.423	7.53
376.785	7.53
377.147	7.56
377.51	7.47
377.872	7.44
378.234	7.4
378.596	7.41
378.958	7.29
379.321	7.22
379.683	7.12
380.045	7.11
380.407	7.06
380.769	6.96
381.13	6.89
381.492	6.84
381.854	6.79
382.216	6.79
382.578	6.8
382.939	6.69
383.301	6.65
383.663	6.57
384.024	6.55
384.386	6.53
384.747	6.5
385.109	6.52
385.47	6.45
385.832	6.44
386.193	6.38
386.554	6.38
386.916	6.34
387.277	6.36
387.638	6.31
387.999	6.28
388.36	6.28
388.721	6.25
389.082	6.23
389.443	6.15
389.804	6.05
390.165	5.98
390.526	5.98
390.887	5.96
391.248	5.97
391.609	5.91
391.969	5.85
392.33	5.8
392.691	5.77
393.051	5.74
393.412	5.68
393.772	5.63
394.133	5.57
394.493	5.54
394.854	5.48
395.214	5.45
395.574	5.38
395.935	5.31
396.295	5.31
396.655	5.26
397.015	5.24
397.376	5.23
397.736	5.18
398.096	5.16
398.456	5.12
398.816	5.09
399.176	5.03
399.535	4.98
399.895	4.94
400.255	4.89
400.615	4.86
400.975	4.83
401.334	4.79
401.694	4.8
402.054	4.77
402.413	4.71
402.773	4.67
403.132	4.68
403.492	4.68
403.851	4.63
404.211	4.65
404.57	4.63
404.929	4.61
405.288	4.6
405.648	4.55
406.007	4.56
406.366	4.57
406.725	4.63
407.084	4.63
407.443	4.61
407.802	4.6
408.161	4.55
408.52	4.52
408.879	4.54
409.238	4.52
409.596	4.51
409.955	4.5
410.314	4.54
410.673	4.55
411.031	4.53
411.39	4.5
411.748	4.44
412.107	4.46
412.465	4.46
412.824	4.44
413.182	4.42
413.54	4.38
413.899	4.33
414.257	4.3
414.615	4.26
414.974	4.25
415.332	4.22
415.69	4.22
416.048	4.2
416.406	4.15
416.764	4.12
417.122	4.09
417.48	4.08
417.838	4.05
418.195	4.01
418.553	3.99
418.911	3.98
419.269	3.97
419.626	3.93
419.984	3.91
420.342	3.9
420.699	3.89
421.057	3.88
421.414	3.88
421.772	3.84
422.129	3.84
422.486	3.83
422.844	3.82
423.201	3.8
423.558	3.81
423.915	3.81
424.273	3.8
424.63	3.79
424.987	3.77
425.344	3.76
425.701	3.76
426.058	3.74
426.415	3.73
426.772	3.72
427.128	3.71
427.485	3.71
427.842	3.69
428.199	3.68
428.555	3.68
428.912	3.67
429.269	3.68
429.625	3.67
429.982	3.64
430.338	3.64
430.695	3.64
431.051	3.64
431.407	3.64
431.764	3.64
432.12	3.64
432.476	3.64
432.832	3.62
433.189	3.63
433.545	3.63
433.901	3.65
434.257	3.65
434.613	3.66
434.969	3.67
435.325	3.68
435.681	3.68
436.036	3.67
436.392	3.67
436.748	3.68
437.104	3.67
437.459	3.67
437.815	3.68
438.171	3.67
438.526	3.67
438.882	3.67
439.237	3.66
439.593	3.66
439.948	3.66
440.304	3.65
440.659	3.65
441.014	3.63
441.369	3.62
441.725	3.61
442.08	3.6
442.435	3.59
442.79	3.57
443.145	3.57
443.5	3.58
443.855	3.57
444.21	3.56
444.565	3.56
444.92	3.57
445.275	3.56
445.629	3.55
445.984	3.53
446.339	3.51
446.693	3.5
447.048	3.49
447.403	3.48
447.757	3.47
448.112	3.45
448.466	3.46
448.82	3.46
449.175	3.44
449.529	3.45
449.883	3.44
450.238	3.45
450.592	3.44
450.946	3.41
451.3	3.4
451.654	3.4
452.008	3.39
452.362	3.38
452.716	3.37
453.07	3.39
453.424	3.4
453.778	3.41
454.132	3.42
454.486	3.42
454.839	3.43
455.193	3.43
455.547	3.42
455.9	3.44
456.254	3.44
456.607	3.46
456.961	3.45
457.314	3.44
457.668	3.45
458.021	3.45
458.375	3.47
458.728	3.47
459.081	3.48
459.434	3.48
459.787	3.5
460.141	3.51
460.494	3.52
460.847	3.54
461.2	3.54
461.553	3.55
461.906	3.57
462.259	3.59
462.611	3.6
462.964	3.62
463.317	3.62
463.67	3.62
464.022	3.63
464.375	3.62
464.728	3.63
465.08	3.63
465.433	3.64
465.785	3.66
466.138	3.67
466.49	3.65
466.843	3.65
467.195	3.66
467.547	3.65
467.899	3.66
468.252	3.62
468.604	3.62
468.956	3.6
469.308	3.6
469.66	3.59
470.012	3.59
470.364	3.6
470.716	3.6
471.068	3.62
471.42	3.62
471.772	3.66
472.123	3.68
472.475	3.7
472.827	3.68
473.178	3.69
473.53	3.69
473.882	3.71
474.233	3.72
474.585	3.71
474.936	3.71
475.288	3.71
475.639	3.73
475.99	3.73
476.342	3.73
476.693	3.72
477.044	3.74
477.395	3.76
477.746	3.74
478.097	3.71
478.448	3.69
478.8	3.68
479.15	3.64
479.501	3.63
479.852	3.62
480.203	3.61
480.554	3.6
480.905	3.59
481.255	3.59
481.606	3.58
481.957	3.59
482.307	3.58
482.658	3.58
483.009	3.57
483.359	3.57
483.709	3.58
484.06	3.57
484.41	3.57
484.761	3.58
485.111	3.58
485.461	3.58
485.811	3.59
486.162	3.6
486.512	3.62
486.862	3.61
487.212	3.62
487.562	3.64
487.912	3.65
488.262	3.66
488.612	3.67
488.961	3.68
489.311	3.68
489.661	3.69
490.011	3.7
490.36	3.71
490.71	3.71
491.06	3.73
491.409	3.74
491.759	3.76
492.108	3.75
492.458	3.76
492.807	3.78
493.157	3.79
493.506	3.81
493.855	3.81
494.204	3.82
494.554	3.85
494.903	3.85
495.252	3.88
495.601	3.92
495.95	3.96
496.299	3.96
496.648	3.98
496.997	4.02
497.346	4.04
497.695	4.08
498.043	4.11
498.392	4.14
498.741	4.17
499.09	4.19
499.438	4.23
499.787	4.28
500.135	4.34
500.484	4.38
500.832	4.4
501.181	4.43
501.529	4.46
501.878	4.5
502.226	4.56
502.574	4.59
502.923	4.61
503.271	4.64
503.619	4.72
503.967	4.79
504.315	4.84
504.663	4.89
505.011	4.95
505.359	5
505.707	5.05
506.055	5.11
506.403	5.17
506.751	5.24
507.098	5.3
507.446	5.33
507.794	5.39
508.141	5.46
508.489	5.53
508.837	5.6
509.184	5.65
509.531	5.7
509.879	5.77
510.226	5.83
510.574	5.87
510.921	5.92
511.268	5.96
511.616	6.02
511.963	6.08
512.31	6.12
512.657	6.21
513.004	6.27
513.351	6.37
513.698	6.43
514.045	6.51
514.392	6.57
514.739	6.68
515.086	6.75
515.432	6.83
515.779	6.89
516.126	6.96
516.473	7.04
516.819	7.12
517.166	7.18
517.512	7.25
517.859	7.34
518.205	7.41
518.552	7.47
518.898	7.54
519.245	7.61
519.591	7.69
519.937	7.77
520.283	7.86
520.629	7.94
520.976	8.02
521.322	8.11
521.668	8.22
522.014	8.31
522.36	8.43
522.706	8.54
523.052	8.69
523.398	8.84
523.743	8.97
524.089	9.12
524.435	9.25
524.781	9.41
525.126	9.55
525.472	9.69
525.817	9.84
526.163	9.94
526.509	10.07
526.854	10.19
527.199	10.29
527.545	10.39
527.89	10.49
528.235	10.6
528.581	10.72
528.926	10.85
529.271	10.97
529.616	11.08
529.961	11.2
530.306	11.34
530.651	11.46
530.996	11.62
531.341	11.76
531.686	11.93
532.031	12.1
532.376	12.25
532.721	12.42
533.065	12.57
533.41	12.78
533.755	12.96
534.099	13.16
534.444	13.37
534.788	13.56
535.133	13.75
535.477	13.96
535.822	14.19
536.166	14.41
536.51	14.63
536.855	14.92
537.199	15.2
537.543	15.5
537.887	15.82
538.231	16.12
538.576	16.46
538.92	16.8
539.264	17.06
539.608	17.39
539.951	17.64
540.295	17.92
540.639	18.18
540.983	18.43
541.327	18.68
541.671	18.92
542.014	19.18
542.358	19.42
542.701	19.68
543.045	19.92
543.389	20.19
543.732	20.45
544.075	20.7
544.419	20.96
544.762	21.22
545.105	21.5
545.449	21.78
545.792	22.07
546.135	22.34
546.478	22.68
546.821	23
547.165	23.37
547.508	23.71
547.851	24.07
548.194	24.43
548.536	24.78
548.879	25.12
549.222	25.49
549.565	25.85
549.908	26.19
550.25	26.59
550.593	26.96
550.936	27.36
551.278	27.75
551.621	28.16
551.963	28.51
552.306	28.86
552.648	29.2
552.991	29.56
553.333	29.93
553.675	30.3
554.017	30.62
554.36	30.88
554.702	31.19
555.044	31.52
555.386	31.84
555.728	32.18
556.07	32.53
556.412	32.88
556.754	33.22
557.096	33.57
557.438	33.89
557.78	34.24
558.121	34.56
558.463	34.89
558.805	35.16
559.147	35.48
559.488	35.78
559.83	36.14
560.171	36.45
560.513	36.7
560.854	37
561.196	37.35
561.537	37.73
561.878	38.06
562.22	38.34
562.561	38.6
562.902	38.88
563.243	39.14
563.584	39.43
563.925	39.72
564.266	39.95
564.607	40.23
564.948	40.49
565.289	40.74
565.63	40.97
565.971	41.26
566.312	41.51
566.653	41.79
566.993	42.01
567.334	42.24
567.675	42.52
568.015	42.76
568.356	42.99
568.696	43.2
569.037	43.47
569.377	43.69
569.718	43.95
570.058	44.15
570.398	44.43
570.739	44.65
571.079	44.85
571.419	45.1
571.759	45.3
572.099	45.48
572.439	45.71
572.779	45.88
573.119	46.08
573.459	46.27
573.799	46.44
574.139	46.65
574.479	46.82
574.819	47.02
575.158	47.26
575.498	47.38
575.838	47.54
576.177	47.67
576.517	47.86
576.856	48
577.196	48.2
577.535	48.33
577.875	48.49
578.214	48.66
578.553	48.82
578.893	48.95
579.232	49.09
579.571	49.22
579.91	49.39
580.25	49.51
580.589	49.63
580.928	49.81
581.267	50.01
581.606	50.18
581.945	50.27
582.283	50.29
582.622	50.48
582.961	50.65
583.3	50.76
583.639	50.91
583.977	51.09
584.316	51.15
584.654	51.34
584.993	51.49
585.332	51.67
585.67	51.75
586.008	51.87
586.347	52.04
586.685	52.13
587.024	52.31
587.362	52.5
587.7	52.6
588.038	52.73
588.376	52.72
588.715	52.83
589.053	52.98
589.391	53.04
589.729	53.14
590.067	53.24
590.404	53.39
590.742	53.5
591.08	53.6
591.418	53.8
591.756	53.89
592.093	54.03
592.431	54.14
592.769	54.29
593.106	54.47
593.444	54.49
593.781	54.66
594.119	54.71
594.456	54.77
594.793	54.93
595.131	54.94
595.468	55.08
595.805	55.25
596.143	55.34
596.48	55.41
596.817	55.54
597.154	55.61
597.491	55.7
597.828	55.74
598.165	55.83
598.502	55.9
598.839	55.99
599.176	56.08
599.512	56.15
599.849	56.25
600.186	56.31
600.523	56.47
600.859	56.63
601.196	56.7
601.532	56.83
601.869	56.95
602.205	57.1
602.542	57.17
602.878	57.2
603.215	57.23
603.551	57.34
603.887	57.39
604.223	57.47
604.56	57.54
604.896	57.65
605.232	57.73
605.568	57.82
605.904	57.84
606.24	57.9
606.576	57.92
606.912	58.07
607.248	58.16
607.583	58.17
607.919	58.18
608.255	58.3
608.591	58.36
608.926	58.39
609.262	58.36
609.597	58.44
609.933	58.47
610.268	58.59
610.604	58.68
610.939	58.68
611.275	58.7
611.61	58.76
611.945	58.83
612.281	58.85
612.616	58.83
612.951	58.97
613.286	59.02
613.621	59.14
613.956	59.15
614.291	59.23
614.626	59.31
614.961	59.33
615.296	59.4
615.631	59.46
615.966	59.52
616.3	59.66
616.635	59.67
616.97	59.7
617.304	59.66
617.639	59.63
617.973	59.62
618.308	59.72
618.642	59.8
618.977	59.82
619.311	59.85
619.646	59.96
619.98	60.1
620.314	60.18
620.648	60.28
620.983	60.26
621.317	60.21
621.651	60.37
621.985	60.48
622.319	60.51
622.653	60.49
622.987	60.48
623.321	60.52
623.655	60.58
623.988	60.63
624.322	60.65
624.656	60.74
624.99	60.89
625.323	60.88
625.657	60.93
625.99	60.99
626.324	61.09
626.657	61.18
626.991	61.08
627.324	61.08
627.658	61.16
627.991	61.13
628.324	61.18
628.657	61.17
628.991	61.24
629.324	61.32
629.657	61.39
629.99	61.46
630.323	61.56
630.656	61.6
630.989	61.67
631.322	61.78
631.655	61.85
631.987	61.87
632.32	61.95
632.653	61.93
632.986	61.9
633.318	61.93
633.651	61.83
633.984	61.87
634.316	61.9
634.649	61.87
634.981	61.93
635.313	61.94
635.646	61.97
635.978	61.94
636.31	61.96
636.643	61.88
636.975	61.88
637.307	61.88
637.639	61.84
637.971	61.87
638.303	61.76
638.635	61.75
638.967	61.78
639.299	61.88
639.631	61.92
639.963	62.08
640.295	62.06
640.626	62.08
640.958	62.16
641.29	62.16
641.621	62.2
641.953	62.22
642.285	62.24
642.616	62.25
642.948	62.2
643.279	62.26
643.61	62.41
643.942	62.42
644.273	62.46
644.604	62.62
644.936	62.55
645.267	62.71
645.598	62.78
645.929	62.89
646.26	62.94
646.591	63.02
646.922	62.85
647.253	62.82
647.584	63.07
647.915	63.04
648.245	63.06
648.576	63.09
648.907	63.21
649.238	63.22
649.568	63.28
649.899	63.4
650.229	63.41
650.56	63.36
650.89	63.39
651.221	63.38
651.551	63.37
651.882	63.52
652.212	63.5
652.542	63.49
652.872	63.39
653.203	63.38
653.533	63.36
653.863	63.53
654.193	63.57
654.523	63.43
654.853	63.46
655.183	63.52
655.513	63.54
655.843	63.57
656.172	63.59
656.502	63.59
656.832	63.65
657.162	63.6
657.491	63.66
657.821	63.68
658.15	63.65
658.48	63.66
658.809	63.63
659.139	63.67
659.468	63.67
659.798	63.78
660.127	63.76
660.456	63.79
660.785	63.72
661.115	63.76
661.444	63.84
661.773	63.84
662.102	63.87
662.431	63.89
662.76	63.92
663.089	64.02
663.418	64.04
663.747	64.1
664.076	64.12
664.404	64.07
664.733	64.16
665.062	64.28
665.39	64.33
665.719	64.36
666.048	64.4
666.376	64.53
666.705	64.44
667.033	64.35
667.362	64.21
667.69	64.33
668.018	64.46
668.347	64.47
668.675	64.54
669.003	64.54
669.331	64.47
669.659	64.47
669.987	64.39
670.315	64.4
670.643	64.19
670.971	64.2
671.299	64.35
671.627	64.33
671.955	64.45
672.283	64.41
672.61	64.28
672.938	64.29
673.266	64.27
673.593	64.32
673.921	64.36
674.249	64.61
674.576	64.6
674.904	64.51
675.231	64.51
675.558	64.44
675.886	64.46
676.213	64.49
676.54	64.5
676.867	64.58
677.195	64.55
677.522	64.7
677.849	64.82
678.176	64.83
678.503	64.93
678.83	64.74
679.157	64.78
679.484	64.88
679.81	64.95
680.137	64.9
680.464	64.81
680.791	64.82
681.117	64.72
681.444	64.7
681.771	64.8
682.097	64.73
682.424	64.87
682.75	64.85
683.077	64.97
683.403	64.88
683.729	64.86
684.056	64.94
684.382	64.86
684.708	64.72
685.034	64.69
685.36	64.69
685.686	64.79
686.012	64.67
686.339	64.79
686.664	64.71
686.99	64.82
687.316	64.88
687.642	64.98
687.968	64.87
688.294	64.85
688.619	64.84
688.945	64.96
689.271	64.91
689.596	64.82
689.922	64.86
690.247	64.94
690.573	65.01
690.898	65.03
691.224	65.12
691.549	65.13
691.874	65.16
692.2	65.09
692.525	65.01
692.85	65.19
693.175	65.2
693.5	65.3
693.825	65.16
694.15	65.31
694.475	65.36
694.8	65.54
695.125	65.51
695.45	65.47
695.775	65.48
696.099	65.5
696.424	65.66
696.749	65.48
697.073	65.46
697.398	65.36
697.723	65.39
698.047	65.51
698.372	65.47
698.696	65.45
699.02	65.52
699.345	65.59
699.669	65.73
699.993	65.7
700.318	65.71
700.642	65.78
700.966	65.7
701.29	65.65
701.614	65.66
701.938	65.8
702.262	65.95
702.586	65.82
702.91	65.85
703.234	65.84
703.557	66.05
703.881	66.17
704.205	66.27
704.529	66.19
704.852	66.08
705.176	66.19
705.499	66.34
705.823	66.2
706.146	66.25
706.47	66.05
706.793	66.13
707.117	66.04
707.44	66.13
707.763	66.2
708.086	66.27
708.409	66.27
708.733	66.2
709.056	65.93
709.379	66.2
709.702	66.25
710.025	66.23
710.348	66.07
710.671	65.99
710.993	65.93
711.316	65.77
711.639	65.8
711.962	65.8
712.284	65.73
712.607	65.87
712.93	65.7
713.252	65.72
713.575	65.68
713.897	65.64
714.22	65.55
714.542	65.53
714.864	65.44
715.187	65.35
715.509	65.29
715.831	65.45
716.153	65.39
716.475	65.35
716.798	65.41
717.12	65.48
717.442	65.58
717.764	65.68
718.085	65.9
718.407	65.82
718.729	65.87
719.051	65.74
719.373	65.65
719.695	65.81
720.016	65.66
720.338	65.63
720.659	65.64
720.981	65.59
721.302	65.6
721.624	65.57
721.945	65.47
722.267	65.58
722.588	65.51
722.909	65.3
723.231	65.15
723.552	65.23
723.873	65.22
724.194	65.34
724.515	65.37
724.836	65.44
725.157	65.62
725.478	65.49
725.799	65.5
726.12	65.5
726.441	65.09
726.762	65.33
727.083	65.5
727.403	65.61
727.724	65.59
728.045	65.61
728.365	65.93
728.686	66
729.006	66.09
729.327	66.1
729.647	66.19
729.967	66.47
730.288	66.5
730.608	66.47
730.928	66.26
731.249	66.15
731.569	66.02
731.889	65.84
732.209	66.04
732.529	66.21
732.849	66.14
733.169	66.5
733.489	66.46
733.809	66.27
734.129	66.41
734.448	66.87
734.768	66.76
735.088	66.59
735.408	66.77
735.727	66.71
736.047	66.91
736.366	66.84
736.686	66.6
737.005	66.32
737.325	66.37
737.644	66.41
737.963	66.55
738.283	66.56
738.602	66.67
738.921	66.69
739.24	66.57
739.56	66.8
739.879	66.58
740.198	66.61
740.517	66.59
740.836	66.35
741.155	65.9
741.473	66.24
741.792	66.41
742.111	66.07
742.43	66.06
742.748	65.68
743.067	66.03
743.386	65.84
743.704	66.12
744.023	66.11
744.341	66.28
744.66	66.26
744.978	66.59
745.297	66.81
745.615	66.63
745.933	66.86
746.252	66.67
746.57	67.01
746.888	67
747.206	67.08
747.524	67.08
747.842	67.22
748.16	66.89
748.478	66.68
748.796	66.9
749.114	66.96
749.432	66.96
749.749	66.74
750.067	67.21
750.385	66.86
750.703	66.88
751.02	66.6
751.338	66.59
751.655	66.29
751.973	66.27
752.29	66.07
752.608	65.78
752.925	65.9
753.242	65.73
753.56	65.42
753.877	65.27
754.194	65.28
754.511	65.51
754.828	65.66
755.145	65.46
755.462	65.38
755.779	65.49
756.096	65.71
756.413	65.67
756.73	65.31
757.047	65.39
757.364	65.45
757.68	65.74
757.997	65.59
758.314	65.88
758.63	65.97
758.947	66.15
759.264	65.89
759.58	65.75
759.896	65.68
760.213	65.94
760.529	66.18
760.846	66.29
761.162	65.96
761.478	65.85
761.794	66.14
762.11	66.33
762.426	66.24
762.743	66.37
763.059	66.5
763.375	66.69
763.69	66.62
764.006	66.4
764.322	66.21
764.638	66.27
764.954	66.14
765.27	66.07
765.585	66.25
765.901	66.56
766.216	66.54
766.532	66.54
766.848	66.45
767.163	66.26
767.478	66.38
767.794	66.5
768.109	66.8
768.424	66.74
768.74	66.7
769.055	66.9
769.37	66.39
769.685	66.11
770	66.3
770.315	66.55
770.63	66.9
770.945	67.12
771.26	67.14
771.575	67.12
771.89	66.74
772.205	66.54
772.52	66.66
772.834	66.9
773.149	67.08
773.464	67.59
773.778	67.56
774.093	67.19
774.407	67.54
774.722	67.38
775.036	67.43
775.351	67.65
775.665	67.47
775.979	67.55
776.293	67.83
776.608	67.44
776.922	67.52
777.236	67.51
777.55	67.71
777.864	68.28
778.178	68.16
778.492	68.67
778.806	68.95
779.12	68.98
779.434	69.13
779.747	69.13
780.061	69.08
780.375	69.25
780.689	69.87
781.002	69.51
781.316	69.54
781.629	69.67
781.943	69.77
782.256	70.08
782.57	70.97
782.883	70.66
783.196	71.23
783.51	71.14
783.823	71.11
784.136	71.11
784.449	70.42
784.762	70.63
785.075	70.4
785.388	69.99
785.701	70.13
786.014	69.6
786.327	69.54
786.64	69.76
786.953	69.82
787.266	69.15
787.578	69.41
787.891	69.42
788.204	69.31
788.516	69.02
788.829	69.06
789.141	68.86
789.454	68.9
789.766	68.63
790.079	68.66
790.391	68.7
790.703	68.62
791.016	68.75
791.328	68.94
791.64	69.21
791.952	69.45
792.264	69.32
792.576	69.49
792.888	69.4
793.2	68.78
793.512	68.78
793.824	69.48
794.136	68.32
794.448	67.9
794.76	68.31
795.071	68.93
795.383	68.52
795.695	68.19
796.006	68.26
796.318	68.26
796.629	68.51
796.941	68.91
797.252	68.6
797.564	68.96
797.875	69.14
798.186	69.01
798.497	69.09
798.809	69.09
799.12	69.13
799.431	69.55
799.742	69.63
800.053	69.63
800.364	69.2
800.675	70.41
800.986	70.57
801.297	70.56
801.608	69.87
801.918	70.05
802.229	70.39
802.54	70.95
802.851	71.16
803.161	71.17
803.472	70.45
803.782	71.17
804.093	70.99
804.403	71.3
804.714	71.7
805.024	71.31
805.334	70.98
805.645	72.13
805.955	72.22
806.265	72.23
806.575	72.57
806.885	73.08
807.195	73.08
807.505	73.72
807.815	73.37
808.125	73.21
808.435	73.35
808.745	73.33
809.055	72.83
809.365	73.29
809.674	73.33
809.984	73.58
810.294	73.22
810.603	73.82
810.913	73.15
811.222	72.67
811.532	73.31
811.841	73.73
812.151	72.4
812.46	71.69
812.769	71.83
813.079	71.71
813.388	71.65
813.697	71.37
814.006	71.46
814.315	71.36
814.624	71.98
814.933	71.39
815.242	71.54
815.551	71.59
815.86	71.24
816.169	70.52
816.478	71.52
816.786	70.83
817.095	70.17
817.404	69.78
817.712	69.99
818.021	69.89
818.33	68.78
818.638	68.96
818.947	69.53
819.255	69.75
819.563	69.28
819.872	69.16
820.18	69.39
820.488	69.13
820.796	69.02
821.105	68.85
821.413	68.87
821.721	68.59
822.029	68.61
822.337	68.19
822.645	68.24
822.953	67.84
823.26	67.98
823.568	67.97
823.876	67.96
824.184	68.01
824.491	67.98
824.799	68.33
825.107	68.3
825.414	68.03
825.722	67.92
826.029	68.08
826.337	68.08
826.644	67.92
826.951	67.86
827.259	67.88
827.566	67.89
827.873	67.88
828.18	67.92
828.488	67.98
828.795	68.59
829.102	68.88
829.409	69.24
829.716	69.17
830.023	69.14
830.329	69.11
830.636	69.26
830.943	69.11
831.25	68.87
831.557	68.88
831.863	69.49
832.17	69.35
832.476	69.15
832.783	69.1
833.089	68.7
833.396	68.63
833.702	68.71
834.009	68.8
834.315	68.85
834.621	69
834.928	69.03
835.234	69.02
835.54	68.55
835.846	68.14
836.152	68.59
836.458	68.71
836.764	69.23
837.07	69.12
837.376	69.24
837.682	69.26
837.988	69.73
838.293	69.46
838.599	69.76
838.905	70.52
839.211	70.38
839.516	70.61
839.822	70.72
840.127	71.17
840.433	71.05
840.738	71.87
841.044	71.89
841.349	72.02
841.654	71.76
841.959	72.96
842.265	73.98
842.57	73.97
842.875	74.38
843.18	74.5
843.485	74.98
843.79	74.78
844.095	76.24
844.4	75.15
844.705	75.54
845.01	75.15
845.315	72.94
845.619	72.57
845.924	72.99
846.229	73.36
846.533	73.91
846.838	74.89
847.142	74.19
847.447	75.57
847.751	75.12
848.056	74.65
848.36	74.29
848.664	72.36
848.969	72.38
849.273	71.28
849.577	70.63
849.881	68.75
850.185	71.8
850.489	70.52
850.794	69.34
851.097	69.44
851.401	69.96
851.705	72.17
852.009	74.69
852.313	75.36
852.617	76.55
852.92	74.05
853.224	73.96
853.528	72.84
853.831	73.9
854.135	76.08
854.438	76.13
854.742	76.84
855.045	76.22
855.349	76.08
855.652	77.06
855.955	78.76
856.259	78.97
856.562	79.03
856.865	79.2
857.168	81.51
857.471	83.05
857.774	82.55
858.077	80.41
858.38	79.64
858.683	79.45
858.986	79.06
859.289	78.31
859.592	79.68
859.894	80.87
860.197	80.85
860.5	79.5
860.802	80.38
861.105	78.16
861.407	82.13
861.71	80.52
862.012	80.91
862.315	79.73
862.617	79.64
862.919	77.68
863.222	77.19
863.524	78.15
863.826	75.06
864.128	76.12
864.43	76.78
864.732	75.25
865.034	76.27
865.336	75.95
865.638	78.37
865.94	75.45
866.242	75.85
866.544	73.91
866.846	74.22
867.147	73.88
867.449	76.19
867.751	77.54
868.052	81.43
868.354	78.84
868.655	80.77
868.957	79.6
869.258	80.99
869.56	82.83
869.861	81.69
870.162	82.81
870.463	83.02
870.765	84.51
871.066	86.75
871.367	83.96
871.668	84.4
871.969	81.54
872.27	81.52
872.571	82.58
872.872	81.49
873.173	81.01
873.473	82.13
873.774	81.93
874.075	78.81
874.376	76.81
874.676	77.94
874.977	73.75
875.277	76.9
875.578	77.38
875.878	75.92
876.179	76.3
876.479	77.57
876.78	77.26
877.08	77.46
877.38	76.44
877.68	79.11
877.981	78.66
878.281	83.22
878.581	85.42
