Data from BA57748_Reflection_00006.txt Node
Date: Mon Nov 18 15:55:25 EST 2019
User: vgr7
Spectrometer: USB2G7710
Scans to average: 3
Trigger mode: 4
Integration Time (sec): 2.000000E-2
Electric dark correction enabled: true
Boxcar width: 10
XAxis mode: Wavelengths
Number of Pixels in Spectrum: 2048
>>>>>Begin Spectral Data<<<<<
177.721	57.05
178.105	-121.24
178.488	-25.45
178.871	-33.72
179.254	-71.26
179.636	-400
180.019	-75.33
180.402	109.09
180.785	-69.36
181.168	-96.32
181.55	67.61
181.933	78.27
182.316	85.45
182.698	86.47
183.081	111.46
183.463	64.31
183.846	200.38
184.228	151.9
184.611	117.47
184.993	89.72
185.376	217.65
185.758	-657.4
186.14	134.71
186.522	345.68
186.904	146.46
187.287	69.03
187.669	58.97
188.051	83.24
188.433	241.11
188.815	295.47
189.197	236.32
189.579	164.63
189.961	222.02
190.342	273.74
190.724	368.71
191.106	290.76
191.488	-4981.08
191.869	-1097.45
192.251	4831.71
192.633	475.37
193.014	128.17
193.396	90.3
193.777	22.74
194.159	76.17
194.54	46.16
194.922	244.8
195.303	-303.67
195.684	464.31
196.065	-262.02
196.447	923.53
196.828	616.13
197.209	809.68
197.59	-69.49
197.971	-245.95
198.352	2316.22
198.733	-32.83
199.114	-205.34
199.495	-31.84
199.876	-116.92
200.257	-458.66
200.638	197.2
201.018	19.4
201.399	22.46
201.78	8.84
202.16	57.65
202.541	671.43
202.922	2.44
203.302	70.62
203.683	-203.66
204.063	-66.92
204.444	-23.84
204.824	-167.78
205.204	25.58
205.585	42.56
205.965	-143.9
206.345	-159.07
206.725	-79.31
207.106	-321.05
207.486	-359.89
207.866	640.15
208.246	-359.89
208.626	-747.68
209.006	-266.27
209.386	587.27
209.766	607.74
210.145	843.49
210.525	1498.23
210.905	-365.47
211.285	-188.11
211.664	-280.31
212.044	-244.53
212.424	-167.75
212.803	-232.86
213.183	-60.49
213.562	-67.23
213.942	-51.99
214.321	-35.23
214.701	-44.47
215.08	-73.61
215.459	-43.29
215.838	-52.55
216.218	-79.62
216.597	-32.23
216.976	-17.13
217.355	-14.29
217.734	-17.5
218.113	9.93
218.492	8.31
218.871	-55.68
219.25	-31.9
219.629	-47.95
220.008	-61.33
220.387	-64.64
220.766	-57.29
221.144	-142.39
221.523	-153.33
221.902	-225.12
222.28	-343.01
222.659	-330.36
223.037	-234.18
223.416	-347.11
223.794	-302.48
224.173	-215.84
224.551	-224.42
224.929	-185.71
225.308	-122.63
225.686	-97.12
226.064	-89.19
226.442	-77.47
226.821	-50.71
227.199	-45.01
227.577	-37.66
227.955	-34.79
228.333	-29.01
228.711	-22.92
229.089	-14.1
229.467	-14.47
229.845	-11.46
230.222	-3.54
230.6	-3.47
230.978	-5.15
231.356	-3.99
231.733	-2.03
232.111	0.56
232.488	3.39
232.866	3.95
233.243	7.48
233.621	6.23
233.998	7.47
234.376	6.25
234.753	8.11
235.13	8.71
235.508	9.36
235.885	10.44
236.262	8.67
236.639	7.23
237.016	6.6
237.393	7.42
237.77	7.12
238.147	6.3
238.524	7.21
238.901	8.85
239.278	8.81
239.655	9.2
240.032	8.96
240.409	8.22
240.785	8.93
241.162	8.21
241.539	8.37
241.915	8.7
242.292	8.56
242.668	8.15
243.045	8.16
243.421	7.98
243.798	7.8
244.174	8.04
244.551	8.14
244.927	7.82
245.303	8.19
245.679	8.47
246.056	8.39
246.432	8.07
246.808	8
247.184	7.69
247.56	7.67
247.936	7.64
248.312	7.76
248.688	7.56
249.064	7.35
249.44	7.26
249.815	6.64
250.191	6.79
250.567	6.77
250.943	6.76
251.318	6.85
251.694	7
252.069	6.74
252.445	6.9
252.82	6.84
253.196	6.68
253.571	7.01
253.947	7.25
254.322	7.79
254.697	7.76
255.073	8.09
255.448	7.57
255.823	7.12
256.198	6.99
256.573	6.89
256.948	7.22
257.323	7.33
257.698	7.42
258.073	7.16
258.448	7.19
258.823	7.19
259.198	7.21
259.573	7.02
259.948	7.02
260.322	6.84
260.697	6.81
261.072	6.62
261.446	6.56
261.821	6.06
262.195	6.1
262.57	6.1
262.944	6.05
263.319	6.19
263.693	6.28
264.067	6.28
264.442	6.41
264.816	6.28
265.19	6.11
265.564	6.33
265.938	6.34
266.313	6.37
266.687	6.4
267.061	6.29
267.435	6.1
267.809	5.93
268.183	5.92
268.556	6.03
268.93	6.23
269.304	6.07
269.678	6.56
270.051	6.38
270.425	6.31
270.799	6.42
271.172	6.39
271.546	6.43
271.919	6.33
272.293	6.31
272.666	6.26
273.04	6.13
273.413	6.12
273.787	6.22
274.16	6.03
274.533	5.88
274.906	5.88
275.279	5.97
275.653	6.18
276.026	6.09
276.399	6.27
276.772	6.24
277.145	5.91
277.518	5.89
277.891	5.9
278.263	5.85
278.636	5.76
279.009	5.75
279.382	5.99
279.755	6.07
280.127	6.34
280.5	6.36
280.872	6.55
281.245	6.38
281.617	6.59
281.99	6.81
282.362	6.92
282.735	6.86
283.107	6.91
283.479	7
283.852	6.98
284.224	6.86
284.596	6.9
284.968	7.17
285.34	7.27
285.713	7.16
286.085	7.19
286.457	7.24
286.829	7.26
287.201	7.16
287.572	7.28
287.944	6.99
288.316	6.93
288.688	6.98
289.06	7.14
289.431	7.08
289.803	7
290.175	7.02
290.546	7.23
290.918	7.24
291.289	7.12
291.661	7.2
292.032	7.23
292.403	7.19
292.775	7.23
293.146	7.13
293.517	7.24
293.889	7.34
294.26	7.29
294.631	7.37
295.002	7.33
295.373	7.21
295.744	7.28
296.115	7.3
296.486	7.2
296.857	7.29
297.228	7.34
297.599	7.39
297.97	7.31
298.34	7.19
298.711	7.32
299.082	7.37
299.452	7.55
299.823	7.68
300.194	7.77
300.564	7.82
300.935	7.88
301.305	7.83
301.676	7.89
302.046	8.05
302.416	8.02
302.787	7.95
303.157	8.08
303.527	8.01
303.897	8.22
304.267	8.44
304.637	8.41
305.008	8.42
305.378	8.5
305.748	8.65
306.117	8.61
306.487	8.58
306.857	8.55
307.227	8.51
307.597	8.49
307.967	8.49
308.336	8.38
308.706	8.42
309.076	8.56
309.445	8.47
309.815	8.45
310.184	8.47
310.554	8.62
310.923	8.61
311.293	8.75
311.662	8.62
312.031	8.45
312.401	8.34
312.77	8.51
313.139	8.49
313.508	8.4
313.877	8.36
314.246	8.32
314.616	8.3
314.985	8.19
315.353	8
315.722	7.96
316.091	8.07
316.46	7.89
316.829	7.88
317.198	8.03
317.567	7.94
317.935	7.87
318.304	7.91
318.672	7.86
319.041	7.76
319.41	7.76
319.778	7.85
320.147	7.98
320.515	7.67
320.883	7.55
321.252	7.58
321.62	7.67
321.988	7.71
322.357	7.7
322.725	7.81
323.093	7.93
323.461	7.98
323.829	7.85
324.197	7.95
324.565	8.01
324.933	7.89
325.301	7.92
325.669	7.97
326.037	7.89
326.405	7.97
326.772	8.13
327.14	8.16
327.508	8.23
327.875	8.05
328.243	8.08
328.61	8.26
328.978	8.24
329.346	8.3
329.713	8.22
330.08	8.33
330.448	8.1
330.815	7.89
331.182	7.8
331.55	7.87
331.917	7.95
332.284	7.91
332.651	7.77
333.018	7.8
333.385	7.8
333.752	7.74
334.119	7.81
334.486	7.68
334.853	7.67
335.22	7.59
335.587	7.67
335.954	7.59
336.32	7.45
336.687	7.46
337.054	7.49
337.42	7.53
337.787	7.54
338.153	7.52
338.52	7.72
338.886	7.61
339.253	7.53
339.619	7.48
339.986	7.41
340.352	7.56
340.718	7.47
341.084	7.42
341.451	7.53
341.817	7.5
342.183	7.37
342.549	7.35
342.915	7.46
343.281	7.53
343.647	7.53
344.013	7.7
344.379	7.59
344.745	7.47
345.11	7.43
345.476	7.44
345.842	7.51
346.208	7.5
346.573	7.61
346.939	7.7
347.304	7.65
347.67	7.7
348.035	7.69
348.401	7.74
348.766	7.73
349.132	7.75
349.497	7.62
349.862	7.82
350.228	7.77
350.593	7.77
350.958	7.72
351.323	7.83
351.688	7.78
352.053	7.89
352.418	7.99
352.783	8
353.148	7.91
353.513	7.91
353.878	7.9
354.243	7.91
354.608	7.83
354.972	7.87
355.337	7.84
355.702	7.89
356.066	7.87
356.431	7.83
356.795	7.77
357.16	7.86
357.524	7.77
357.889	7.82
358.253	7.82
358.618	7.92
358.982	7.82
359.346	7.73
359.71	7.67
360.075	7.62
360.439	7.66
360.803	7.67
361.167	7.6
361.531	7.52
361.895	7.54
362.259	7.5
362.623	7.52
362.987	7.52
363.351	7.47
363.714	7.47
364.078	7.54
364.442	7.57
364.806	7.57
365.169	7.6
365.533	7.56
365.896	7.46
366.26	7.32
366.623	7.37
366.987	7.4
367.35	7.43
367.714	7.42
368.077	7.32
368.44	7.3
368.803	7.29
369.167	7.28
369.53	7.22
369.893	7.26
370.256	7.25
370.619	7.2
370.982	7.1
371.345	7.09
371.708	7.08
372.071	7.03
372.434	6.93
372.797	6.9
373.159	6.88
373.522	6.89
373.885	6.96
374.247	6.97
374.61	6.95
374.973	6.95
375.335	6.91
375.698	6.97
376.06	7.02
376.423	7.1
376.785	7.18
377.147	7.18
377.51	7.16
377.872	7.13
378.234	7.12
378.596	7.19
378.958	7.19
379.321	7.17
379.683	7.16
380.045	7.16
380.407	7.17
380.769	7.17
381.13	7.2
381.492	7.17
381.854	7.17
382.216	7.18
382.578	7.15
382.939	7.21
383.301	7.2
383.663	7.19
384.024	7.17
384.386	7.14
384.747	7.15
385.109	7.23
385.47	7.21
385.832	7.24
386.193	7.22
386.554	7.21
386.916	7.22
387.277	7.22
387.638	7.23
387.999	7.17
388.36	7.19
388.721	7.17
389.082	7.14
389.443	7.11
389.804	7.09
390.165	7.1
390.526	7.08
390.887	7.08
391.248	7.11
391.609	7.1
391.969	7.08
392.33	7.04
392.691	7
393.051	6.99
393.412	7
393.772	6.94
394.133	6.97
394.493	6.95
394.854	6.93
395.214	6.94
395.574	6.96
395.935	6.92
396.295	6.94
396.655	6.97
397.015	6.94
397.376	6.91
397.736	6.92
398.096	6.89
398.456	6.89
398.816	6.84
399.176	6.83
399.535	6.83
399.895	6.83
400.255	6.81
400.615	6.82
400.975	6.83
401.334	6.86
401.694	6.85
402.054	6.87
402.413	6.91
402.773	6.87
403.132	6.86
403.492	6.87
403.851	6.85
404.211	6.8
404.57	6.77
404.929	6.81
405.288	6.8
405.648	6.83
406.007	6.82
406.366	6.82
406.725	6.86
407.084	6.88
407.443	6.89
407.802	6.9
408.161	6.86
408.52	6.82
408.879	6.82
409.238	6.82
409.596	6.81
409.955	6.79
410.314	6.82
410.673	6.82
411.031	6.83
411.39	6.84
411.748	6.83
412.107	6.88
412.465	6.89
412.824	6.88
413.182	6.84
413.54	6.83
413.899	6.82
414.257	6.76
414.615	6.7
414.974	6.7
415.332	6.68
415.69	6.69
416.048	6.68
416.406	6.69
416.764	6.64
417.122	6.63
417.48	6.61
417.838	6.59
418.195	6.58
418.553	6.55
418.911	6.55
419.269	6.56
419.626	6.54
419.984	6.52
420.342	6.52
420.699	6.52
421.057	6.52
421.414	6.51
421.772	6.52
422.129	6.53
422.486	6.52
422.844	6.52
423.201	6.5
423.558	6.5
423.915	6.49
424.273	6.51
424.63	6.51
424.987	6.5
425.344	6.5
425.701	6.49
426.058	6.51
426.415	6.5
426.772	6.5
427.128	6.5
427.485	6.5
427.842	6.48
428.199	6.48
428.555	6.49
428.912	6.5
429.269	6.5
429.625	6.5
429.982	6.48
430.338	6.47
430.695	6.47
431.051	6.47
431.407	6.47
431.764	6.47
432.12	6.45
432.476	6.47
432.832	6.46
433.189	6.48
433.545	6.47
433.901	6.46
434.257	6.44
434.613	6.46
434.969	6.45
435.325	6.45
435.681	6.45
436.036	6.43
436.392	6.44
436.748	6.43
437.104	6.4
437.459	6.4
437.815	6.4
438.171	6.4
438.526	6.43
438.882	6.43
439.237	6.44
439.593	6.45
439.948	6.45
440.304	6.46
440.659	6.43
441.014	6.44
441.369	6.42
441.725	6.4
442.08	6.38
442.435	6.39
442.79	6.39
443.145	6.38
443.5	6.37
443.855	6.36
444.21	6.35
444.565	6.38
444.92	6.37
445.275	6.37
445.629	6.36
445.984	6.33
446.339	6.31
446.693	6.28
447.048	6.27
447.403	6.24
447.757	6.22
448.112	6.23
448.466	6.22
448.82	6.2
449.175	6.23
449.529	6.24
449.883	6.22
450.238	6.2
450.592	6.2
450.946	6.18
451.3	6.17
451.654	6.18
452.008	6.17
452.362	6.17
452.716	6.17
453.07	6.17
453.424	6.17
453.778	6.17
454.132	6.18
454.486	6.17
454.839	6.17
455.193	6.15
455.547	6.13
455.9	6.16
456.254	6.17
456.607	6.17
456.961	6.14
457.314	6.14
457.668	6.16
458.021	6.16
458.375	6.17
458.728	6.19
459.081	6.17
459.434	6.16
459.787	6.16
460.141	6.15
460.494	6.16
460.847	6.18
461.2	6.16
461.553	6.13
461.906	6.15
462.259	6.17
462.611	6.19
462.964	6.23
463.317	6.21
463.67	6.22
464.022	6.21
464.375	6.2
464.728	6.22
465.08	6.24
465.433	6.24
465.785	6.24
466.138	6.22
466.49	6.24
466.843	6.25
467.195	6.26
467.547	6.28
467.899	6.28
468.252	6.27
468.604	6.3
468.956	6.33
469.308	6.33
469.66	6.31
470.012	6.33
470.364	6.33
470.716	6.32
471.068	6.33
471.42	6.36
471.772	6.37
472.123	6.38
472.475	6.36
472.827	6.37
473.178	6.37
473.53	6.37
473.882	6.38
474.233	6.39
474.585	6.35
474.936	6.36
475.288	6.37
475.639	6.39
475.99	6.38
476.342	6.36
476.693	6.37
477.044	6.39
477.395	6.35
477.746	6.35
478.097	6.37
478.448	6.36
478.8	6.36
479.15	6.35
479.501	6.38
479.852	6.39
480.203	6.4
480.554	6.41
480.905	6.44
481.255	6.45
481.606	6.46
481.957	6.48
482.307	6.47
482.658	6.47
483.009	6.47
483.359	6.48
483.709	6.48
484.06	6.49
484.41	6.5
484.761	6.51
485.111	6.52
485.461	6.51
485.811	6.52
486.162	6.52
486.512	6.53
486.862	6.52
487.212	6.52
487.562	6.52
487.912	6.53
488.262	6.52
488.612	6.52
488.961	6.52
489.311	6.52
489.661	6.52
490.011	6.51
490.36	6.52
490.71	6.52
491.06	6.52
491.409	6.53
491.759	6.51
492.108	6.5
492.458	6.48
492.807	6.49
493.157	6.5
493.506	6.5
493.855	6.5
494.204	6.5
494.554	6.5
494.903	6.49
495.252	6.48
495.601	6.48
495.95	6.49
496.299	6.48
496.648	6.48
496.997	6.5
497.346	6.52
497.695	6.5
498.043	6.51
498.392	6.53
498.741	6.52
499.09	6.53
499.438	6.56
499.787	6.59
500.135	6.6
500.484	6.59
500.832	6.61
501.181	6.63
501.529	6.65
501.878	6.67
502.226	6.69
502.574	6.7
502.923	6.72
503.271	6.7
503.619	6.73
503.967	6.73
504.315	6.75
504.663	6.75
505.011	6.77
505.359	6.78
505.707	6.79
506.055	6.82
506.403	6.83
506.751	6.84
507.098	6.84
507.446	6.86
507.794	6.87
508.141	6.87
508.489	6.9
508.837	6.9
509.184	6.91
509.531	6.91
509.879	6.93
510.226	6.95
510.574	6.99
510.921	6.99
511.268	7.02
511.616	7.02
511.963	7.06
512.31	7.08
512.657	7.1
513.004	7.12
513.351	7.13
513.698	7.15
514.045	7.15
514.392	7.18
514.739	7.18
515.086	7.21
515.432	7.23
515.779	7.22
516.126	7.24
516.473	7.26
516.819	7.26
517.166	7.27
517.512	7.28
517.859	7.28
518.205	7.3
518.552	7.3
518.898	7.3
519.245	7.3
519.591	7.29
519.937	7.29
520.283	7.28
520.629	7.31
520.976	7.31
521.322	7.32
521.668	7.33
522.014	7.33
522.36	7.34
522.706	7.37
523.052	7.38
523.398	7.4
523.743	7.39
524.089	7.42
524.435	7.43
524.781	7.45
525.126	7.48
525.472	7.5
525.817	7.52
526.163	7.53
526.509	7.54
526.854	7.57
527.199	7.59
527.545	7.61
527.89	7.63
528.235	7.64
528.581	7.65
528.926	7.66
529.271	7.68
529.616	7.67
529.961	7.66
530.306	7.68
530.651	7.68
530.996	7.71
531.341	7.71
531.686	7.71
532.031	7.72
532.376	7.73
532.721	7.73
533.065	7.73
533.41	7.73
533.755	7.73
534.099	7.73
534.444	7.74
534.788	7.75
535.133	7.73
535.477	7.74
535.822	7.73
536.166	7.73
536.51	7.74
536.855	7.74
537.199	7.76
537.543	7.76
537.887	7.77
538.231	7.77
538.576	7.79
538.92	7.81
539.264	7.81
539.608	7.82
539.951	7.82
540.295	7.84
540.639	7.86
540.983	7.89
541.327	7.89
541.671	7.88
542.014	7.87
542.358	7.88
542.701	7.89
543.045	7.9
543.389	7.89
543.732	7.91
544.075	7.93
544.419	7.92
544.762	7.92
545.105	7.94
545.449	7.96
545.792	7.95
546.135	7.94
546.478	7.95
546.821	7.95
547.165	7.95
547.508	7.96
547.851	7.97
548.194	7.96
548.536	7.95
548.879	7.97
549.222	7.97
549.565	7.98
549.908	7.99
550.25	8.02
550.593	8.02
550.936	8
551.278	8.01
551.621	8.03
551.963	8.03
552.306	8
552.648	7.99
552.991	8.01
553.333	8.04
553.675	8.02
554.017	8.02
554.36	8
554.702	7.99
555.044	7.98
555.386	7.98
555.728	7.98
556.07	7.99
556.412	8
556.754	7.99
557.096	7.95
557.438	7.91
557.78	7.97
558.121	8
558.463	7.99
558.805	7.96
559.147	7.96
559.488	7.98
559.83	7.99
560.171	7.99
560.513	8.01
560.854	8.04
561.196	8.04
561.537	8.07
561.878	8.06
562.22	8.05
562.561	8.04
562.902	8.04
563.243	8.02
563.584	8.02
563.925	8
564.266	8.02
564.607	8.05
564.948	8.02
565.289	8.02
565.63	8.02
565.971	8.04
566.312	8.06
566.653	8.06
566.993	8.06
567.334	8.06
567.675	8.05
568.015	8.05
568.356	8.06
568.696	8.05
569.037	8.05
569.377	8.07
569.718	8.09
570.058	8.1
570.398	8.1
570.739	8.12
571.079	8.14
571.419	8.14
571.759	8.13
572.099	8.13
572.439	8.1
572.779	8.11
573.119	8.13
573.459	8.15
573.799	8.15
574.139	8.15
574.479	8.15
574.819	8.13
575.158	8.13
575.498	8.1
575.838	8.11
576.177	8.07
576.517	8.07
576.856	8.03
577.196	8.04
577.535	8.06
577.875	8.04
578.214	8.03
578.553	8.04
578.893	8.04
579.232	8.07
579.571	8.13
579.91	8.12
580.25	8.1
580.589	8.04
580.928	8.07
581.267	8.11
581.606	8.06
581.945	8.04
582.283	8.03
582.622	8.07
582.961	8.05
583.3	8.14
583.639	8.11
583.977	8.16
584.316	8.14
584.654	8.15
584.993	8.21
585.332	8.22
585.67	8.2
586.008	8.22
586.347	8.16
586.685	8.08
587.024	8.1
587.362	8.1
587.7	8.19
588.038	8.21
588.376	8.16
588.715	8.2
589.053	8.29
589.391	8.3
589.729	8.31
590.067	8.34
590.404	8.3
590.742	8.3
591.08	8.28
591.418	8.29
591.756	8.3
592.093	8.28
592.431	8.29
592.769	8.33
593.106	8.33
593.444	8.38
593.781	8.42
594.119	8.44
594.456	8.48
594.793	8.43
595.131	8.39
595.468	8.41
595.805	8.41
596.143	8.39
596.48	8.38
596.817	8.36
597.154	8.34
597.491	8.35
597.828	8.35
598.165	8.35
598.502	8.33
598.839	8.33
599.176	8.32
599.512	8.29
599.849	8.28
600.186	8.29
600.523	8.26
600.859	8.28
601.196	8.25
601.532	8.21
601.869	8.18
602.205	8.2
602.542	8.23
602.878	8.22
603.215	8.23
603.551	8.24
603.887	8.25
604.223	8.27
604.56	8.26
604.896	8.29
605.232	8.29
605.568	8.31
605.904	8.32
606.24	8.33
606.576	8.33
606.912	8.33
607.248	8.31
607.583	8.35
607.919	8.33
608.255	8.3
608.591	8.32
608.926	8.38
609.262	8.39
609.597	8.37
609.933	8.38
610.268	8.36
610.604	8.38
610.939	8.37
611.275	8.38
611.61	8.41
611.945	8.42
612.281	8.47
612.616	8.48
612.951	8.49
613.286	8.5
613.621	8.5
613.956	8.51
614.291	8.54
614.626	8.51
614.961	8.48
615.296	8.53
615.631	8.51
615.966	8.48
616.3	8.47
616.635	8.45
616.97	8.48
617.304	8.52
617.639	8.5
617.973	8.49
618.308	8.48
618.642	8.49
618.977	8.47
619.311	8.44
619.646	8.45
619.98	8.43
620.314	8.45
620.648	8.51
620.983	8.52
621.317	8.47
621.651	8.52
621.985	8.59
622.319	8.55
622.653	8.55
622.987	8.58
623.321	8.62
623.655	8.65
623.988	8.65
624.322	8.63
624.656	8.61
624.99	8.65
625.323	8.62
625.657	8.66
625.99	8.69
626.324	8.68
626.657	8.7
626.991	8.73
627.324	8.73
627.658	8.72
627.991	8.75
628.324	8.8
628.657	8.74
628.991	8.71
629.324	8.79
629.657	8.81
629.99	8.8
630.323	8.8
630.656	8.8
630.989	8.82
631.322	8.83
631.655	8.9
631.987	8.89
632.32	8.96
632.653	8.91
632.986	8.9
633.318	8.94
633.651	8.9
633.984	8.85
634.316	8.79
634.649	8.72
634.981	8.72
635.313	8.71
635.646	8.75
635.978	8.83
636.31	8.79
636.643	8.75
636.975	8.75
637.307	8.75
637.639	8.74
637.971	8.68
638.303	8.63
638.635	8.6
638.967	8.58
639.299	8.55
639.631	8.54
639.963	8.5
640.295	8.4
640.626	8.41
640.958	8.5
641.29	8.55
641.621	8.6
641.953	8.56
642.285	8.55
642.616	8.62
642.948	8.57
643.279	8.55
643.61	8.55
643.942	8.59
644.273	8.54
644.604	8.52
644.936	8.48
645.267	8.53
645.598	8.62
645.929	8.58
646.26	8.6
646.591	8.61
646.922	8.61
647.253	8.68
647.584	8.63
647.915	8.57
648.245	8.63
648.576	8.67
648.907	8.62
649.238	8.6
649.568	8.54
649.899	8.54
650.229	8.6
650.56	8.7
650.89	8.61
651.221	8.66
651.551	8.7
651.882	8.75
652.212	8.7
652.542	8.59
652.872	8.59
653.203	8.56
653.533	8.57
653.863	8.6
654.193	8.6
654.523	8.67
654.853	8.71
655.183	8.67
655.513	8.66
655.843	8.66
656.172	8.66
656.502	8.65
656.832	8.64
657.162	8.64
657.491	8.55
657.821	8.6
658.15	8.62
658.48	8.63
658.809	8.65
659.139	8.66
659.468	8.65
659.798	8.62
660.127	8.65
660.456	8.67
660.785	8.71
661.115	8.74
661.444	8.78
661.773	8.76
662.102	8.73
662.431	8.78
662.76	8.87
663.089	8.87
663.418	8.83
663.747	8.79
664.076	8.8
664.404	8.84
664.733	8.8
665.062	8.79
665.39	8.7
665.719	8.7
666.048	8.77
666.376	8.78
666.705	8.81
667.033	8.77
667.362	8.72
667.69	8.66
668.018	8.63
668.347	8.59
668.675	8.61
669.003	8.64
669.331	8.59
669.659	8.62
669.987	8.65
670.315	8.71
670.643	8.82
670.971	8.78
671.299	8.77
671.627	8.82
671.955	8.78
672.283	8.89
672.61	8.89
672.938	8.83
673.266	8.94
673.593	9.02
673.921	9.03
674.249	9.11
674.576	9.14
674.904	9.15
675.231	9.12
675.558	9.09
675.886	9.08
676.213	9.05
676.54	9.04
676.867	9.03
677.195	8.97
677.522	8.89
677.849	8.92
678.176	8.96
678.503	8.95
678.83	8.97
679.157	8.86
679.484	8.85
679.81	8.83
680.137	8.77
680.464	8.69
680.791	8.77
681.117	8.74
681.444	8.75
681.771	8.77
682.097	8.79
682.424	8.83
682.75	8.83
683.077	8.86
683.403	8.83
683.729	8.79
684.056	8.85
684.382	8.86
684.708	8.88
685.034	8.92
685.36	8.85
685.686	8.76
686.012	8.85
686.339	8.95
686.664	9.05
686.99	9.01
687.316	9.07
687.642	9.08
687.968	9.09
688.294	9.14
688.619	9.16
688.945	9.09
689.271	9.11
689.596	9.08
689.922	9.03
690.247	8.93
690.573	8.99
690.898	8.96
691.224	8.95
691.549	9
691.874	8.98
692.2	9.13
692.525	9.3
692.85	9.41
693.175	9.37
693.5	9.31
693.825	9.28
694.15	9.29
694.475	9.24
694.8	9.24
695.125	9.13
695.45	9.06
695.775	9.16
696.099	9.12
696.424	9.19
696.749	9.25
697.073	9.3
697.398	9.42
697.723	9.5
698.047	9.51
698.372	9.47
698.696	9.48
699.02	9.43
699.345	9.31
699.669	9.32
699.993	9.29
700.318	9.28
700.642	9.38
700.966	9.39
701.29	9.45
701.614	9.42
701.938	9.51
702.262	9.6
702.586	9.52
702.91	9.62
703.234	9.53
703.557	9.53
703.881	9.64
704.205	9.62
704.529	9.46
704.852	9.5
705.176	9.4
705.499	9.35
705.823	9.3
706.146	9.36
706.47	9.25
706.793	9.23
707.117	9.29
707.44	9.24
707.763	9.38
708.086	9.11
708.409	9.05
708.733	8.96
709.056	8.98
709.379	9.12
709.702	9.01
710.025	9.07
710.348	9.11
710.671	8.99
710.993	8.92
711.316	8.94
711.639	8.91
711.962	8.96
712.284	8.97
712.607	9
712.93	9.08
713.252	8.99
713.575	9
713.897	8.95
714.22	8.95
714.542	8.79
714.864	8.84
715.187	8.98
715.509	9.08
715.831	9.04
716.153	8.97
716.475	8.95
716.798	8.92
717.12	8.76
717.442	8.79
717.764	8.72
718.085	8.68
718.407	8.71
718.729	8.73
719.051	8.63
719.373	8.71
719.695	8.59
720.016	8.73
720.338	8.76
720.659	8.93
720.981	8.86
721.302	8.88
721.624	9
721.945	8.79
722.267	8.72
722.588	8.54
722.909	8.62
723.231	8.65
723.552	8.73
723.873	8.81
724.194	8.78
724.515	8.85
724.836	8.91
725.157	9.09
725.478	8.92
725.799	9.07
726.12	8.99
726.441	9.21
726.762	9.14
727.083	9.14
727.403	8.99
727.724	9.05
728.045	9.07
728.365	8.99
728.686	9.16
729.006	9.24
729.327	9.38
729.647	9.47
729.967	9.56
730.288	9.56
730.608	9.65
730.928	9.76
731.249	9.79
731.569	9.9
731.889	9.7
732.209	9.96
732.529	10.09
732.849	10.22
733.169	10.09
733.489	10.22
733.809	10.19
734.129	10.22
734.448	10.31
734.768	10.24
735.088	10.47
735.408	10.44
735.727	10.53
736.047	10.68
736.366	10.4
736.686	10.57
737.005	10.67
737.325	10.57
737.644	10.51
737.963	10.57
738.283	10.48
738.602	10.48
738.921	10.31
739.24	10.08
739.56	9.9
739.879	9.94
740.198	9.77
740.517	9.76
740.836	9.71
741.155	9.67
741.473	9.89
741.792	9.87
742.111	9.97
742.43	9.81
742.748	9.38
743.067	9.47
743.386	9.22
743.704	9.36
744.023	9.37
744.341	9.36
744.66	9.38
744.978	9.39
745.297	9.62
745.615	9.62
745.933	9.49
746.252	9.77
746.57	9.84
746.888	9.88
747.206	9.8
747.524	9.86
747.842	9.89
748.16	9.67
748.478	9.6
748.796	9.57
749.114	9.65
749.432	9.93
749.749	10
750.067	9.95
750.385	10.03
750.703	10.16
751.02	10.27
751.338	10.27
751.655	10.27
751.973	10.16
752.29	10.22
752.608	10.61
752.925	10.58
753.242	10.57
753.56	10.42
753.877	10.46
754.194	10.43
754.511	10.36
754.828	10.43
755.145	10.36
755.462	10.23
755.779	10.45
756.096	10.44
756.413	10.52
756.73	10.53
757.047	10.32
757.364	10.28
757.68	10.12
757.997	10.04
758.314	10.1
758.63	9.85
758.947	9.85
759.264	9.57
759.58	9.49
759.896	9.6
760.213	9.84
760.529	10.02
760.846	10.24
761.162	10.19
761.478	10.2
761.794	10.12
762.11	10.03
762.426	9.84
762.743	9.86
763.059	9.89
763.375	9.97
763.69	10
764.006	10.12
764.322	10.42
764.638	10.51
764.954	10.61
765.27	10.64
765.585	10.65
765.901	10.73
766.216	10.76
766.532	10.7
766.848	10.7
767.163	10.52
767.478	10.38
767.794	10.36
768.109	10.33
768.424	10.64
768.74	10.85
769.055	10.91
769.37	11.15
769.685	10.88
770	11.13
770.315	10.96
770.63	10.86
770.945	10.7
771.26	10.67
771.575	10.51
771.89	10.8
772.205	10.79
772.52	10.84
772.834	10.83
773.149	10.87
773.464	10.65
773.778	10.87
774.093	10.8
774.407	10.79
774.722	10.58
775.036	10.41
775.351	10.37
775.665	10.29
775.979	10.2
776.293	10.59
776.608	10.11
776.922	10.31
777.236	10.4
777.55	10.26
777.864	10.23
778.178	10.67
778.492	10.66
778.806	10.84
779.12	10.85
779.434	10.76
779.747	10.58
780.061	10.78
780.375	10.77
780.689	10.77
781.002	10.93
781.316	11.47
781.629	11.43
781.943	11.62
782.256	11.5
782.57	11.4
782.883	11.5
783.196	11.67
783.51	11.49
783.823	11.18
784.136	11.34
784.449	11.47
784.762	11.25
785.075	11.19
785.388	10.83
785.701	10.66
786.014	10.24
786.327	10.52
786.64	10.6
786.953	10.53
787.266	10.65
787.578	10.77
787.891	10.31
788.204	10.21
788.516	10.28
788.829	10.58
789.141	10.58
789.454	10.14
789.766	10.22
790.079	10.13
790.391	10.21
790.703	10.46
791.016	10.31
791.328	9.9
791.64	9.85
791.952	10.28
792.264	10.39
792.576	10.39
792.888	10.22
793.2	10.14
793.512	10.14
793.824	10.29
794.136	10.31
794.448	10.72
794.76	10.58
795.071	10.63
795.383	10.47
795.695	10.39
796.006	10.89
796.318	10.74
796.629	10.94
796.941	11.39
797.252	10.98
797.564	10.82
797.875	11.52
798.186	11.28
798.497	10.99
798.809	11.29
799.12	11.66
799.431	11.95
799.742	12.21
800.053	12.51
800.364	12.33
800.675	12.29
800.986	12.04
801.297	12.78
801.608	12.81
801.918	12.56
802.229	12.78
802.54	12.75
802.851	12.91
803.161	13.05
803.472	12.57
803.782	12.31
804.093	12.65
804.403	12.19
804.714	12.73
805.024	12.81
805.334	12.7
805.645	12.63
805.955	12.8
806.265	12.57
806.575	12.22
806.885	12.31
807.195	12.12
807.505	12.29
807.815	11.76
808.125	11.38
808.435	11.51
808.745	11.98
809.055	12.3
809.365	11.96
809.674	11.29
809.984	12.08
810.294	12.51
810.603	12.72
810.913	13.12
811.222	12.62
811.532	12.89
811.841	13.3
812.151	13.95
812.46	13.76
812.769	13.58
813.079	13.67
813.388	13.91
813.697	14.77
814.006	14.59
814.315	14.83
814.624	15.37
814.933	16.02
815.242	15.92
815.551	15.38
815.86	15.41
816.169	15.99
816.478	15.41
816.786	16.23
817.095	16.32
817.404	16.33
817.712	16.23
818.021	15.92
818.33	15.61
818.638	15.09
818.947	15.09
819.255	15.33
819.563	15.04
819.872	14.58
820.18	14.28
820.488	14.01
820.796	13.93
821.105	13.59
821.413	13.51
821.721	13.31
822.029	13.34
822.337	13.62
822.645	13.43
822.953	13.39
823.26	13.21
823.568	13.04
823.876	12.91
824.184	13.06
824.491	13.01
824.799	12.97
825.107	13.07
825.414	12.85
825.722	12.78
826.029	12.89
826.337	12.88
826.644	12.93
826.951	13.04
827.259	13.06
827.566	13.19
827.873	13.05
828.18	13.16
828.488	13.27
828.795	13.08
829.102	13.3
829.409	13.48
829.716	13.38
830.023	13.64
830.329	13.67
830.636	13.49
830.943	13.5
831.25	13.31
831.557	13.01
831.863	13.35
832.17	13.41
832.476	13.22
832.783	13.23
833.089	12.74
833.396	12.92
833.702	12.91
834.009	12.78
834.315	12.76
834.621	12.77
834.928	12.97
835.234	12.86
835.54	12.46
835.846	12.34
836.152	12.59
836.458	12.43
836.764	12.74
837.07	12.46
837.376	11.77
837.682	11.84
837.988	11.86
838.293	11.6
838.599	11.18
838.905	10.45
839.211	10.57
839.516	11
839.822	10.68
840.127	9.84
840.433	10.16
840.738	9.96
841.044	8.89
841.349	7.61
841.654	7.93
841.959	8.59
842.265	8.09
842.57	7.33
842.875	6.38
843.18	5.42
843.485	6.27
843.79	8.18
844.095	8.29
844.4	8.92
844.705	8.31
845.01	9.31
845.315	8.77
845.619	8.35
845.924	8.49
846.229	8.84
846.533	10.27
846.838	8.41
847.142	9.25
847.447	8.25
847.751	7.84
848.056	5.92
848.36	6.03
848.664	7.17
848.969	7.16
849.273	8.12
849.577	9.94
849.881	9.16
850.185	11.14
850.489	12.36
850.794	12.98
851.097	15.19
851.401	14.24
851.705	17.66
852.009	18.25
852.313	18.2
852.617	16.81
852.92	17.17
853.224	17.94
853.528	18.29
853.831	18.7
854.135	20.72
854.438	21.71
854.742	20.39
855.045	19.61
855.349	19.71
855.652	19.57
855.955	17.77
856.259	15.75
856.562	11.35
856.865	9.12
857.168	8.3
857.471	7.56
857.774	5.65
858.077	6.05
858.38	6.21
858.683	5.62
858.986	7.19
859.289	7.26
859.592	6.81
859.894	5.92
860.197	6.89
860.5	6.18
860.802	6.13
861.105	6.68
861.407	7.5
861.71	8.09
862.012	9.5
862.315	11.4
862.617	13.96
862.919	16.49
863.222	16.62
863.524	14.92
863.826	13.68
864.128	15.25
864.43	15.44
864.732	14.22
865.034	14.04
865.336	11.78
865.638	9.94
865.94	9.44
866.242	8.45
866.544	10.34
866.846	12.06
867.147	11.41
867.449	13.58
867.751	13.6
868.052	14.98
868.354	14.21
868.655	13.11
868.957	14.17
869.258	13.31
869.56	14.05
869.861	13.39
870.162	13.49
870.463	15.78
870.765	15.72
871.066	17.67
871.367	17.55
871.668	17.52
871.969	15.94
872.27	16.5
872.571	18.06
872.872	18.78
873.173	15.7
873.473	16.09
873.774	11.68
874.075	11.64
874.376	7.71
874.676	9.56
874.977	6.94
875.277	5.07
875.578	3.44
875.878	3.23
876.179	4.77
876.479	4.33
876.78	1.22
877.08	-0.62
877.38	-2.64
877.68	-4.09
877.981	-2.81
878.281	-0.46
878.581	0.57
