Data from BA57757_Reflection_00038.txt Node
Date: Mon Nov 18 15:02:24 EST 2019
User: vgr7
Spectrometer: USB2G7710
Scans to average: 3
Trigger mode: 4
Integration Time (sec): 2.000000E-2
Electric dark correction enabled: true
Boxcar width: 10
XAxis mode: Wavelengths
Number of Pixels in Spectrum: 2048
>>>>>Begin Spectral Data<<<<<
177.721	125.12
178.105	-14.98
178.488	551.88
178.871	-55.17
179.254	72.67
179.636	-132.76
180.019	642.71
180.402	29.27
180.785	-1582.24
181.168	1015.93
181.55	3309.3
181.933	174.18
182.316	147.33
182.698	113.05
183.081	129.48
183.463	180.76
183.846	211.04
184.228	320.02
184.611	374.86
184.993	365.1
185.376	-451.96
185.758	-511.02
186.14	-361.54
186.522	-995.12
186.904	-746.92
187.287	3898.17
187.669	-743.59
188.051	-585.07
188.433	-237.12
188.815	-170.01
189.197	-88.59
189.579	-108.14
189.961	-77.6
190.342	-70.19
190.724	-69.51
191.106	-59.7
191.488	-56.18
191.869	-54.81
192.251	-72.87
192.633	-110.6
193.014	-124.98
193.396	-168.99
193.777	-107.83
194.159	-117.31
194.54	-94.96
194.922	-68.9
195.303	-60.47
195.684	-56.31
196.065	-48.83
196.447	-55.18
196.828	-59.2
197.209	-59.67
197.59	-56.13
197.971	-58.88
198.352	-38.21
198.733	-34.32
199.114	-30.36
199.495	-41.88
199.876	-25.45
200.257	-16.62
200.638	1.07
201.018	4.03
201.399	4.08
201.78	0.09
202.16	4.38
202.541	-8.25
202.922	-23.71
203.302	-30.93
203.683	-28.61
204.063	-53.11
204.444	-51.76
204.824	-43.96
205.204	-45.21
205.585	-55.96
205.965	-54.56
206.345	-70.47
206.725	-70.5
207.106	-91.36
207.486	-75.01
207.866	-78.45
208.246	-70.19
208.626	-79.28
209.006	-53.44
209.386	-61.85
209.766	-69.66
210.145	-67.37
210.525	-52.32
210.905	-46.74
211.285	-34.94
211.664	-39.16
212.044	-31.72
212.424	-27.77
212.803	-39.76
213.183	-52.31
213.562	-28.77
213.942	-20.3
214.321	-19.89
214.701	-30.56
215.08	-31.72
215.459	-24.17
215.838	-28.88
216.218	-43.98
216.597	-34.87
216.976	-43.65
217.355	-43.9
217.734	-30.25
218.113	-23.61
218.492	-28.97
218.871	-24.24
219.25	-23.62
219.629	-18.53
220.008	-19.43
220.387	-18.63
220.766	-6.23
221.144	-3.77
221.523	-12.73
221.902	-14.92
222.28	-13.23
222.659	-7.86
223.037	1.92
223.416	-6.4
223.794	-3.46
224.173	6.66
224.551	14.74
224.929	12.23
225.308	23.21
225.686	20.14
226.064	15.76
226.442	15.01
226.821	13.14
227.199	11.05
227.577	9.12
227.955	7.67
228.333	6.32
228.711	4.45
229.089	5.64
229.467	4.42
229.845	1.76
230.222	0.43
230.6	0.55
230.978	-2.62
231.356	-0.47
231.733	-2.15
232.111	-3.39
232.488	-3.82
232.866	-5.48
233.243	-6.75
233.621	-8.1
233.998	-5.84
234.376	-8.05
234.753	-7.94
235.13	-8.19
235.508	-6.56
235.885	-4.97
236.262	-4.42
236.639	-4.22
237.016	-4.28
237.393	-1.76
237.77	-0.53
238.147	0.52
238.524	1.14
238.901	2.43
239.278	3.19
239.655	4.33
240.032	5.11
240.409	4.63
240.785	5.7
241.162	5.58
241.539	5.87
241.915	5.34
242.292	5.17
242.668	5.02
243.045	4.64
243.421	4.46
243.798	4.14
244.174	4.27
244.551	4.22
244.927	4.43
245.303	4.33
245.679	4.54
246.056	4.5
246.432	4.5
246.808	4.47
247.184	4.2
247.56	4.22
247.936	4.04
248.312	4.18
248.688	4.22
249.064	4.14
249.44	3.97
249.815	4.12
250.191	4.44
250.567	4.37
250.943	4.5
251.318	4.61
251.694	4.78
252.069	4.73
252.445	4.86
252.82	4.63
253.196	4.51
253.571	4.32
253.947	4.37
254.322	4.16
254.697	3.95
255.073	3.79
255.448	3.68
255.823	3.9
256.198	3.83
256.573	3.69
256.948	3.83
257.323	4.13
257.698	4.11
258.073	4.19
258.448	4.23
258.823	4.29
259.198	4.17
259.573	4.1
259.948	4.01
260.322	3.99
260.697	3.87
261.072	3.87
261.446	3.88
261.821	4.05
262.195	4.21
262.57	4.17
262.944	4.2
263.319	4.15
263.693	3.84
264.067	3.96
264.442	4.14
264.816	4.15
265.19	4.14
265.564	4.11
265.938	3.98
266.313	3.82
266.687	3.82
267.061	3.8
267.435	4.05
267.809	4.18
268.183	4.16
268.556	4.49
268.93	4.55
269.304	4.42
269.678	4.33
270.051	4.2
270.425	4.35
270.799	4.31
271.172	4.28
271.546	4.25
271.919	4.03
272.293	3.96
272.666	3.98
273.04	3.88
273.413	3.84
273.787	3.85
274.16	3.91
274.533	3.84
274.906	3.75
275.279	3.65
275.653	3.51
276.026	3.32
276.399	3.13
276.772	3.19
277.145	3.29
277.518	3.26
277.891	3.26
278.263	3.11
278.636	3.16
279.009	3.34
279.382	3.66
279.755	3.74
280.127	3.89
280.5	3.92
280.872	3.99
281.245	4.03
281.617	4.09
281.99	4.15
282.362	4.26
282.735	4.37
283.107	4.41
283.479	4.4
283.852	4.55
284.224	4.84
284.596	4.9
284.968	4.93
285.34	4.98
285.713	5.06
286.085	5.21
286.457	5.26
286.829	5.16
287.201	5.09
287.572	5.14
287.944	5.02
288.316	5.03
288.688	4.98
289.06	5.01
289.431	4.91
289.803	4.91
290.175	4.89
290.546	5
290.918	5.01
291.289	5.13
291.661	5.21
292.032	5.1
292.403	4.96
292.775	5
293.146	4.88
293.517	4.81
293.889	4.88
294.26	4.96
294.631	4.98
295.002	5.03
295.373	5
295.744	4.99
296.115	4.92
296.486	4.82
296.857	4.78
297.228	5.02
297.599	5.01
297.97	5.1
298.34	5.03
298.711	5.01
299.082	4.89
299.452	4.94
299.823	4.98
300.194	4.99
300.564	4.91
300.935	5.02
301.305	4.95
301.676	5.03
302.046	5.05
302.416	5.19
302.787	5.2
303.157	5.25
303.527	5.32
303.897	5.45
304.267	5.63
304.637	5.79
305.008	5.8
305.378	6.05
305.748	6.02
306.117	5.96
306.487	6.05
306.857	6.27
307.227	6.39
307.597	6.38
307.967	6.51
308.336	6.64
308.706	6.63
309.076	6.83
309.445	6.65
309.815	6.49
310.184	6.44
310.554	6.54
310.923	6.49
311.293	6.47
311.662	6.47
312.031	6.46
312.401	6.31
312.77	6.27
313.139	6.14
313.508	6.11
313.877	6.21
314.246	6.21
314.616	6.09
314.985	5.98
315.353	5.92
315.722	5.95
316.091	5.97
316.46	5.99
316.829	6
317.198	6.2
317.567	6.31
317.935	6.22
318.304	6.29
318.672	6.34
319.041	6.55
319.41	6.55
319.778	6.76
320.147	7.1
320.515	7.1
320.883	7.24
321.252	7.35
321.62	7.35
321.988	7.52
322.357	7.62
322.725	7.72
323.093	7.91
323.461	7.79
323.829	7.81
324.197	7.88
324.565	8
324.933	7.98
325.301	8.06
325.669	8.23
326.037	8.1
326.405	8.2
326.772	8.2
327.14	8.28
327.508	8.26
327.875	8.2
328.243	8.28
328.61	8.36
328.978	8.45
329.346	8.62
329.713	8.52
330.08	8.7
330.448	8.6
330.815	8.5
331.182	8.69
331.55	8.76
331.917	8.87
332.284	8.99
332.651	9.05
333.018	9.12
333.385	9.08
333.752	9.23
334.119	9.28
334.486	9.35
334.853	9.44
335.22	9.63
335.587	9.71
335.954	9.81
336.32	9.77
336.687	9.83
337.054	9.77
337.42	9.94
337.787	9.94
338.153	10.09
338.52	10.16
338.886	10.14
339.253	10.1
339.619	10.08
339.986	10.04
340.352	10.12
340.718	10.26
341.084	10.32
341.451	10.41
341.817	10.6
342.183	10.55
342.549	10.52
342.915	10.56
343.281	10.45
343.647	10.39
344.013	10.46
344.379	10.43
344.745	10.55
345.11	10.49
345.476	10.51
345.842	10.48
346.208	10.49
346.573	10.52
346.939	10.65
347.304	10.66
347.67	10.67
348.035	10.59
348.401	10.51
348.766	10.53
349.132	10.5
349.497	10.33
349.862	10.41
350.228	10.43
350.593	10.34
350.958	10.4
351.323	10.4
351.688	10.32
352.053	10.31
352.418	10.32
352.783	10.33
353.148	10.33
353.513	10.38
353.878	10.41
354.243	10.38
354.608	10.35
354.972	10.34
355.337	10.38
355.702	10.49
356.066	10.52
356.431	10.54
356.795	10.55
357.16	10.54
357.524	10.43
357.889	10.38
358.253	10.4
358.618	10.39
358.982	10.45
359.346	10.44
359.71	10.4
360.075	10.35
360.439	10.36
360.803	10.32
361.167	10.23
361.531	10.14
361.895	10.12
362.259	10.05
362.623	9.99
362.987	9.88
363.351	9.79
363.714	9.8
364.078	9.7
364.442	9.67
364.806	9.63
365.169	9.67
365.533	9.64
365.896	9.55
366.26	9.52
366.623	9.34
366.987	9.33
367.35	9.36
367.714	9.33
368.077	9.21
368.44	9.14
368.803	9.12
369.167	9.08
369.53	9.02
369.893	9.04
370.256	9.07
370.619	9.03
370.982	8.94
371.345	8.89
371.708	8.88
372.071	8.85
372.434	8.8
372.797	8.71
373.159	8.66
373.522	8.63
373.885	8.61
374.247	8.65
374.61	8.59
374.973	8.45
375.335	8.38
375.698	8.31
376.06	8.25
376.423	8.16
376.785	8.14
377.147	8.14
377.51	8.02
377.872	7.95
378.234	7.96
378.596	7.92
378.958	7.75
379.321	7.7
379.683	7.55
380.045	7.52
380.407	7.42
380.769	7.36
381.13	7.28
381.492	7.18
381.854	7.08
382.216	7.01
382.578	6.98
382.939	6.87
383.301	6.81
383.663	6.74
384.024	6.76
384.386	6.73
384.747	6.69
385.109	6.68
385.47	6.62
385.832	6.54
386.193	6.5
386.554	6.51
386.916	6.49
387.277	6.49
387.638	6.43
387.999	6.39
388.36	6.32
388.721	6.33
389.082	6.29
389.443	6.27
389.804	6.2
390.165	6.12
390.526	6.13
390.887	6.1
391.248	6.08
391.609	6.02
391.969	5.96
392.33	5.9
392.691	5.86
393.051	5.78
393.412	5.73
393.772	5.69
394.133	5.62
394.493	5.59
394.854	5.55
395.214	5.5
395.574	5.46
395.935	5.49
396.295	5.44
396.655	5.41
397.015	5.38
397.376	5.34
397.736	5.35
398.096	5.27
398.456	5.28
398.816	5.27
399.176	5.21
399.535	5.19
399.895	5.15
400.255	5.1
400.615	5.11
400.975	5.06
401.334	5
401.694	4.99
402.054	4.93
402.413	4.89
402.773	4.87
403.132	4.86
403.492	4.8
403.851	4.77
404.211	4.7
404.57	4.67
404.929	4.67
405.288	4.62
405.648	4.6
406.007	4.57
406.366	4.54
406.725	4.55
407.084	4.52
407.443	4.5
407.802	4.51
408.161	4.46
408.52	4.44
408.879	4.44
409.238	4.44
409.596	4.42
409.955	4.4
410.314	4.39
410.673	4.37
411.031	4.36
411.39	4.33
411.748	4.34
412.107	4.32
412.465	4.29
412.824	4.29
413.182	4.29
413.54	4.26
413.899	4.23
414.257	4.19
414.615	4.2
414.974	4.19
415.332	4.18
415.69	4.17
416.048	4.17
416.406	4.16
416.764	4.13
417.122	4.13
417.48	4.08
417.838	4.06
418.195	4.03
418.553	4.01
418.911	3.98
419.269	3.97
419.626	3.96
419.984	3.93
420.342	3.92
420.699	3.89
421.057	3.88
421.414	3.87
421.772	3.87
422.129	3.85
422.486	3.83
422.844	3.82
423.201	3.8
423.558	3.78
423.915	3.76
424.273	3.75
424.63	3.72
424.987	3.72
425.344	3.71
425.701	3.71
426.058	3.7
426.415	3.7
426.772	3.69
427.128	3.67
427.485	3.68
427.842	3.66
428.199	3.66
428.555	3.66
428.912	3.65
429.269	3.65
429.625	3.64
429.982	3.63
430.338	3.63
430.695	3.62
431.051	3.62
431.407	3.62
431.764	3.63
432.12	3.63
432.476	3.61
432.832	3.61
433.189	3.6
433.545	3.6
433.901	3.58
434.257	3.58
434.613	3.6
434.969	3.61
435.325	3.62
435.681	3.62
436.036	3.61
436.392	3.59
436.748	3.56
437.104	3.55
437.459	3.54
437.815	3.52
438.171	3.51
438.526	3.51
438.882	3.51
439.237	3.51
439.593	3.52
439.948	3.5
440.304	3.48
440.659	3.49
441.014	3.5
441.369	3.49
441.725	3.49
442.08	3.48
442.435	3.46
442.79	3.44
443.145	3.44
443.5	3.42
443.855	3.42
444.21	3.42
444.565	3.42
444.92	3.43
445.275	3.43
445.629	3.43
445.984	3.42
446.339	3.42
446.693	3.41
447.048	3.4
447.403	3.4
447.757	3.41
448.112	3.4
448.466	3.38
448.82	3.38
449.175	3.37
449.529	3.36
449.883	3.35
450.238	3.34
450.592	3.32
450.946	3.33
451.3	3.31
451.654	3.31
452.008	3.31
452.362	3.29
452.716	3.29
453.07	3.3
453.424	3.3
453.778	3.28
454.132	3.26
454.486	3.26
454.839	3.26
455.193	3.25
455.547	3.24
455.9	3.24
456.254	3.25
456.607	3.25
456.961	3.26
457.314	3.26
457.668	3.28
458.021	3.28
458.375	3.27
458.728	3.29
459.081	3.3
459.434	3.29
459.787	3.3
460.141	3.3
460.494	3.3
460.847	3.3
461.2	3.3
461.553	3.33
461.906	3.34
462.259	3.36
462.611	3.38
462.964	3.38
463.317	3.37
463.67	3.37
464.022	3.37
464.375	3.38
464.728	3.39
465.08	3.39
465.433	3.41
465.785	3.42
466.138	3.42
466.49	3.4
466.843	3.4
467.195	3.37
467.547	3.38
467.899	3.39
468.252	3.37
468.604	3.39
468.956	3.37
469.308	3.36
469.66	3.35
470.012	3.37
470.364	3.4
470.716	3.42
471.068	3.41
471.42	3.41
471.772	3.41
472.123	3.41
472.475	3.42
472.827	3.42
473.178	3.44
473.53	3.44
473.882	3.46
474.233	3.48
474.585	3.51
474.936	3.49
475.288	3.49
475.639	3.51
475.99	3.51
476.342	3.51
476.693	3.53
477.044	3.53
477.395	3.52
477.746	3.51
478.097	3.49
478.448	3.5
478.8	3.49
479.15	3.47
479.501	3.47
479.852	3.48
480.203	3.48
480.554	3.49
480.905	3.49
481.255	3.49
481.606	3.48
481.957	3.48
482.307	3.49
482.658	3.49
483.009	3.49
483.359	3.5
483.709	3.5
484.06	3.5
484.41	3.51
484.761	3.5
485.111	3.51
485.461	3.51
485.811	3.52
486.162	3.52
486.512	3.53
486.862	3.54
487.212	3.53
487.562	3.54
487.912	3.53
488.262	3.54
488.612	3.54
488.961	3.54
489.311	3.55
489.661	3.55
490.011	3.55
490.36	3.54
490.71	3.54
491.06	3.54
491.409	3.53
491.759	3.54
492.108	3.55
492.458	3.55
492.807	3.55
493.157	3.55
493.506	3.57
493.855	3.57
494.204	3.57
494.554	3.59
494.903	3.58
495.252	3.59
495.601	3.61
495.95	3.62
496.299	3.64
496.648	3.66
496.997	3.67
497.346	3.71
497.695	3.75
498.043	3.76
498.392	3.79
498.741	3.82
499.09	3.84
499.438	3.88
499.787	3.92
500.135	3.95
500.484	3.99
500.832	4.02
501.181	4.05
501.529	4.08
501.878	4.13
502.226	4.18
502.574	4.22
502.923	4.24
503.271	4.28
503.619	4.34
503.967	4.37
504.315	4.41
504.663	4.47
505.011	4.51
505.359	4.57
505.707	4.64
506.055	4.71
506.403	4.78
506.751	4.82
507.098	4.85
507.446	4.91
507.794	4.94
508.141	5.01
508.489	5.06
508.837	5.15
509.184	5.18
509.531	5.24
509.879	5.32
510.226	5.41
510.574	5.48
510.921	5.53
511.268	5.59
511.616	5.67
511.963	5.72
512.31	5.8
512.657	5.86
513.004	5.9
513.351	5.98
513.698	6.06
514.045	6.13
514.392	6.23
514.739	6.32
515.086	6.44
515.432	6.51
515.779	6.59
516.126	6.68
516.473	6.77
516.819	6.85
517.166	6.93
517.512	6.98
517.859	7.05
518.205	7.12
518.552	7.2
518.898	7.27
519.245	7.35
519.591	7.44
519.937	7.5
520.283	7.61
520.629	7.71
520.976	7.79
521.322	7.9
521.668	8.02
522.014	8.14
522.36	8.24
522.706	8.38
523.052	8.52
523.398	8.69
523.743	8.83
524.089	8.98
524.435	9.17
524.781	9.33
525.126	9.49
525.472	9.63
525.817	9.78
526.163	9.9
526.509	10.02
526.854	10.13
527.199	10.24
527.545	10.35
527.89	10.46
528.235	10.56
528.581	10.69
528.926	10.83
529.271	10.95
529.616	11.07
529.961	11.19
530.306	11.32
530.651	11.45
530.996	11.6
531.341	11.78
531.686	11.92
532.031	12.1
532.376	12.28
532.721	12.46
533.065	12.64
533.41	12.85
533.755	13.05
534.099	13.26
534.444	13.47
534.788	13.69
535.133	13.91
535.477	14.15
535.822	14.4
536.166	14.64
536.51	14.91
536.855	15.22
537.199	15.53
537.543	15.87
537.887	16.18
538.231	16.5
538.576	16.82
538.92	17.14
539.264	17.45
539.608	17.74
539.951	18.02
540.295	18.29
540.639	18.55
540.983	18.82
541.327	19.08
541.671	19.37
542.014	19.63
542.358	19.89
542.701	20.14
543.045	20.39
543.389	20.67
543.732	20.94
544.075	21.22
544.419	21.53
544.762	21.81
545.105	22.16
545.449	22.48
545.792	22.82
546.135	23.17
546.478	23.53
546.821	23.88
547.165	24.29
547.508	24.75
547.851	25.19
548.194	25.61
548.536	26.02
548.879	26.43
549.222	26.88
549.565	27.32
549.908	27.75
550.25	28.14
550.593	28.55
550.936	28.97
551.278	29.39
551.621	29.8
551.963	30.24
552.306	30.62
552.648	31.06
552.991	31.47
553.333	31.86
553.675	32.29
554.017	32.71
554.36	33.07
554.702	33.42
555.044	33.79
555.386	34.12
555.728	34.45
556.07	34.87
556.412	35.17
556.754	35.53
557.096	35.9
557.438	36.34
557.78	36.72
558.121	37.14
558.463	37.48
558.805	37.84
559.147	38.19
559.488	38.54
559.83	38.92
560.171	39.31
560.513	39.71
560.854	39.99
561.196	40.33
561.537	40.75
561.878	41.08
562.22	41.37
562.561	41.76
562.902	42.21
563.243	42.54
563.584	42.94
563.925	43.25
564.266	43.56
564.607	43.9
564.948	44.2
565.289	44.54
565.63	44.86
565.971	45.16
566.312	45.46
566.653	45.74
566.993	45.97
567.334	46.21
567.675	46.47
568.015	46.78
568.356	47.03
568.696	47.26
569.037	47.56
569.377	47.84
569.718	48.1
570.058	48.3
570.398	48.53
570.739	48.84
571.079	49.09
571.419	49.33
571.759	49.5
572.099	49.72
572.439	49.9
572.779	50.08
573.119	50.34
573.459	50.53
573.799	50.69
574.139	50.91
574.479	51.14
574.819	51.36
575.158	51.59
575.498	51.8
575.838	52.02
576.177	52.22
576.517	52.39
576.856	52.6
577.196	52.84
577.535	53.05
577.875	53.21
578.214	53.41
578.553	53.63
578.893	53.91
579.232	54.1
579.571	54.32
579.91	54.56
580.25	54.71
580.589	54.89
580.928	55.18
581.267	55.32
581.606	55.45
581.945	55.61
582.283	55.75
582.622	55.98
582.961	56.17
583.3	56.32
583.639	56.57
583.977	56.76
584.316	56.85
584.654	56.96
584.993	57.05
585.332	57.25
585.67	57.43
586.008	57.48
586.347	57.64
586.685	57.74
587.024	57.85
587.362	57.91
587.7	58.14
588.038	58.22
588.376	58.46
588.715	58.57
589.053	58.64
589.391	58.81
589.729	58.88
590.067	58.9
590.404	59.01
590.742	59.12
591.08	59.12
591.418	59.26
591.756	59.41
592.093	59.59
592.431	59.77
592.769	59.86
593.106	60.12
593.444	60.24
593.781	60.37
594.119	60.52
594.456	60.71
594.793	60.73
595.131	60.86
595.468	60.88
595.805	60.97
596.143	61.07
596.48	61.09
596.817	61.25
597.154	61.36
597.491	61.39
597.828	61.47
598.165	61.56
598.502	61.66
598.839	61.73
599.176	61.83
599.512	61.86
599.849	61.91
600.186	61.87
600.523	61.95
600.859	62
601.196	62.11
601.532	62.25
601.869	62.32
602.205	62.4
602.542	62.54
602.878	62.64
603.215	62.76
603.551	62.85
603.887	62.84
604.223	62.84
604.56	62.85
604.896	62.88
605.232	62.99
605.568	63.02
605.904	63.09
606.24	63.13
606.576	63.18
606.912	63.27
607.248	63.35
607.583	63.42
607.919	63.51
608.255	63.53
608.591	63.56
608.926	63.67
609.262	63.66
609.597	63.66
609.933	63.65
610.268	63.74
610.604	63.81
610.939	63.9
611.275	64.02
611.61	64.18
611.945	64.2
612.281	64.29
612.616	64.38
612.951	64.41
613.286	64.45
613.621	64.47
613.956	64.6
614.291	64.72
614.626	64.83
614.961	64.93
615.296	65.07
615.631	65.09
615.966	65.05
616.3	65.12
616.635	65.23
616.97	65.36
617.304	65.21
617.639	65.29
617.973	65.37
618.308	65.38
618.642	65.43
618.977	65.48
619.311	65.52
619.646	65.58
619.98	65.61
620.314	65.57
620.648	65.68
620.983	65.67
621.317	65.66
621.651	65.58
621.985	65.54
622.319	65.44
622.653	65.45
622.987	65.56
623.321	65.71
623.655	65.72
623.988	65.69
624.322	65.68
624.656	65.66
624.99	65.67
625.323	65.69
625.657	65.73
625.99	65.77
626.324	65.69
626.657	65.73
626.991	65.78
627.324	65.82
627.658	65.81
627.991	65.92
628.324	65.93
628.657	66
628.991	65.99
629.324	66.13
629.657	66.19
629.99	66.2
630.323	66.16
630.656	66.19
630.989	66.24
631.322	66.43
631.655	66.48
631.987	66.47
632.32	66.57
632.653	66.63
632.986	66.66
633.318	66.72
633.651	66.66
633.984	66.63
634.316	66.68
634.649	66.76
634.981	66.58
635.313	66.57
635.646	66.53
635.978	66.66
636.31	66.62
636.643	66.63
636.975	66.56
637.307	66.69
637.639	66.74
637.971	66.79
638.303	66.85
638.635	66.8
638.967	66.74
639.299	66.71
639.631	66.63
639.963	66.61
640.295	66.64
640.626	66.75
640.958	66.9
641.29	66.97
641.621	66.93
641.953	67.08
642.285	67.21
642.616	67.31
642.948	67.33
643.279	67.29
643.61	67.21
643.942	67.39
644.273	67.33
644.604	67.22
644.936	67.2
645.267	67.08
645.598	67.12
645.929	67.22
646.26	67.22
646.591	67.23
646.922	67.35
647.253	67.4
647.584	67.29
647.915	67.09
648.245	67.14
648.576	67.06
648.907	67.11
649.238	67.05
649.568	67.02
649.899	66.98
650.229	67.04
650.56	67.06
650.89	67.01
651.221	67.08
651.551	67.22
651.882	67.31
652.212	67.35
652.542	67.39
652.872	67.4
653.203	67.36
653.533	67.31
653.863	67.34
654.193	67.38
654.523	67.48
654.853	67.72
655.183	67.72
655.513	67.83
655.843	67.88
656.172	67.9
656.502	68.02
656.832	68.13
657.162	68.07
657.491	68.14
657.821	68.28
658.15	68.19
658.48	68.08
658.809	68.08
659.139	68.14
659.468	68.03
659.798	68.12
660.127	68.14
660.456	68.31
660.785	68.32
661.115	68.32
661.444	68.36
661.773	68.25
662.102	68.29
662.431	68.35
662.76	68.21
663.089	68.25
663.418	68.16
663.747	68.05
664.076	68.15
664.404	68.13
664.733	67.97
665.062	68.06
665.39	68.18
665.719	68.2
666.048	68.19
666.376	68.25
666.705	68.15
667.033	68.21
667.362	68.18
667.69	68.08
668.018	67.98
668.347	68.05
668.675	68.21
669.003	68.14
669.331	68.16
669.659	68.22
669.987	68.1
670.315	68.14
670.643	68.22
670.971	68.33
671.299	68.27
671.627	68.3
671.955	68.31
672.283	68.33
672.61	68.18
672.938	68.19
673.266	68.27
673.593	68.28
673.921	68.36
674.249	68.24
674.576	68.29
674.904	68.37
675.231	68.32
675.558	68.18
675.886	68.18
676.213	68.08
676.54	68.16
676.867	68.28
677.195	68.3
677.522	68.29
677.849	68.18
678.176	68.22
678.503	68.21
678.83	68.25
679.157	68.16
679.484	68.3
679.81	68.31
680.137	68.27
680.464	68.3
680.791	68.3
681.117	68.39
681.444	68.44
681.771	68.48
682.097	68.45
682.424	68.66
682.75	68.51
683.077	68.66
683.403	68.6
683.729	68.59
684.056	68.75
684.382	68.79
684.708	68.93
685.034	68.96
685.36	69
685.686	68.96
686.012	69.05
686.339	69.1
686.664	69.26
686.99	69.28
687.316	69.25
687.642	69.11
687.968	69.17
688.294	69.17
688.619	69.21
688.945	69.21
689.271	68.96
689.596	69.15
689.922	69.13
690.247	69.15
690.573	69.11
690.898	68.93
691.224	68.88
691.549	68.83
691.874	68.85
692.2	68.82
692.525	68.79
692.85	68.72
693.175	68.51
693.5	68.38
693.825	68.46
694.15	68.52
694.475	68.56
694.8	68.58
695.125	68.56
695.45	68.46
695.775	68.47
696.099	68.8
696.424	69.01
696.749	68.92
697.073	68.99
697.398	68.9
697.723	68.95
698.047	68.87
698.372	68.95
698.696	68.95
699.02	68.95
699.345	68.84
699.669	68.92
699.993	69.06
700.318	69.11
700.642	69.14
700.966	69.1
701.29	69.18
701.614	69.04
701.938	69.03
702.262	69.26
702.586	69.24
702.91	69.03
703.234	68.86
703.557	68.86
703.881	68.83
704.205	69.06
704.529	69.05
704.852	69.16
705.176	69.12
705.499	69.24
705.823	69.19
706.146	69.34
706.47	69.22
706.793	69.04
707.117	69
707.44	68.98
707.763	68.85
708.086	68.86
708.409	68.83
708.733	68.93
709.056	68.59
709.379	68.61
709.702	68.56
710.025	68.51
710.348	68.62
710.671	68.5
710.993	68.33
711.316	68.2
711.639	68.15
711.962	68.16
712.284	68.09
712.607	68.15
712.93	68.15
713.252	68.22
713.575	68.3
713.897	68.24
714.22	68.35
714.542	68.69
714.864	68.69
715.187	68.78
715.509	68.71
715.831	68.68
716.153	68.66
716.475	68.65
716.798	68.55
717.12	68.54
717.442	68.52
717.764	68.79
718.085	68.9
718.407	68.82
718.729	68.79
719.051	68.83
719.373	68.7
719.695	68.54
720.016	68.6
720.338	68.6
720.659	68.81
720.981	68.54
721.302	68.18
721.624	68.06
721.945	68.03
722.267	68.17
722.588	68.46
722.909	68.38
723.231	68.29
723.552	68.25
723.873	68.24
724.194	68.33
724.515	68.15
724.836	68
725.157	67.98
725.478	67.83
725.799	67.66
726.12	67.75
726.441	67.83
726.762	67.65
727.083	67.56
727.403	67.31
727.724	66.98
728.045	67.26
728.365	67.43
728.686	67.42
729.006	67.11
729.327	67.19
729.647	67.45
729.967	67.4
730.288	67.5
730.608	67.41
730.928	67.25
731.249	67.2
731.569	67.5
731.889	67.69
732.209	67.64
732.529	67.79
732.849	67.83
733.169	67.87
733.489	67.94
733.809	67.94
734.129	68.05
734.448	68.53
734.768	68.58
735.088	68.49
735.408	68.65
735.727	68.97
736.047	68.71
736.366	68.66
736.686	68.72
737.005	68.62
737.325	68.68
737.644	68.86
737.963	69.09
738.283	68.95
738.602	68.93
738.921	69.06
739.24	69.11
739.56	69.35
739.879	69.33
740.198	69.62
740.517	69.97
740.836	70.16
741.155	70.25
741.473	69.88
741.792	69.8
742.111	69.88
742.43	69.8
742.748	70.04
743.067	69.76
743.386	70.05
743.704	70.26
744.023	70.47
744.341	70.69
744.66	70.56
744.978	70.15
745.297	70.2
745.615	70.21
745.933	70.12
746.252	69.91
746.57	70.06
746.888	69.84
747.206	69.65
747.524	69.41
747.842	69.15
748.16	69.4
748.478	69.49
748.796	69.44
749.114	69.35
749.432	69.06
749.749	69.13
750.067	69.11
750.385	69.06
750.703	68.5
751.02	68.18
751.338	68.33
751.655	68.47
751.973	68.57
752.29	68.54
752.608	68.71
752.925	68.73
753.242	68.44
753.56	68.47
753.877	68.38
754.194	68.35
754.511	68.66
754.828	68.33
755.145	68.17
755.462	68.14
755.779	68.35
756.096	68.38
756.413	68.55
756.73	68.49
757.047	68.32
757.364	68.53
757.68	68.52
757.997	68.32
758.314	68.18
758.63	68.11
758.947	68.21
759.264	68
759.58	67.85
759.896	68.12
760.213	67.98
760.529	67.98
760.846	67.91
761.162	67.75
761.478	68.49
761.794	68.72
762.11	68.82
762.426	68.96
762.743	69.03
763.059	68.98
763.375	69.08
763.69	69.25
764.006	69.36
764.322	69.66
764.638	69.82
764.954	70.15
765.27	70.21
765.585	70.15
765.901	70.17
766.216	70.3
766.532	70.22
766.848	70.26
767.163	70.34
767.478	70.32
767.794	70.46
768.109	70.1
768.424	70.05
768.74	69.92
769.055	69.25
769.37	69.5
769.685	69.74
770	69.62
770.315	69.75
770.63	69.29
770.945	69.14
771.26	68.98
771.575	69.15
771.89	68.7
772.205	68.34
772.52	68.21
772.834	67.88
773.149	68.09
773.464	67.91
773.778	67.74
774.093	67.68
774.407	67.55
774.722	67.1
775.036	67.11
775.351	67.36
775.665	67.87
775.979	67.77
776.293	67.89
776.608	68.21
776.922	68.12
777.236	68.5
777.55	68.41
777.864	68.49
778.178	68.57
778.492	69.13
778.806	69.85
779.12	70.51
779.434	71.19
779.747	71.07
780.061	71.33
780.375	71.9
780.689	71.91
781.002	71.66
781.316	72.24
781.629	72.51
781.943	71.66
782.256	71.68
782.57	71.66
782.883	71.15
783.196	71.31
783.51	71.25
783.823	71.13
784.136	71.16
784.449	71.39
784.762	70.52
785.075	69.86
785.388	69.36
785.701	69.11
786.014	68.75
786.327	69.18
786.64	69.27
786.953	68.88
787.266	69.52
787.578	69.6
787.891	69.32
788.204	68.54
788.516	68.73
788.829	68.49
789.141	68.52
789.454	68.56
789.766	67.9
790.079	67.7
790.391	68.16
790.703	67.75
791.016	67.62
791.328	67.8
791.64	67.86
791.952	67.7
792.264	67.3
792.576	67
792.888	66.31
793.2	66.46
793.512	66.43
793.824	65.96
794.136	66.25
794.448	66.82
794.76	67.18
795.071	67.57
795.383	67.89
795.695	67.41
796.006	67.44
796.318	67.61
796.629	67.74
796.941	67.36
797.252	67.86
797.564	67.35
797.875	67.35
798.186	67.49
798.497	68.05
798.809	68.16
799.12	68.69
799.431	68.89
799.742	68.5
800.053	68.95
800.364	68.71
800.675	68.61
800.986	68.45
801.297	68.63
801.608	68.89
801.918	69.05
802.229	69.57
802.54	69.61
802.851	69.93
803.161	69.65
803.472	69.87
803.782	69.61
804.093	69.41
804.403	69.33
804.714	69.91
805.024	69.51
805.334	70
805.645	69.23
805.955	69.49
806.265	69.59
806.575	69.04
806.885	69.84
807.195	69.85
807.505	69.35
807.815	68.43
808.125	68.55
808.435	68.83
808.745	69.11
809.055	69.5
809.365	69.17
809.674	69.51
809.984	69.03
810.294	69.04
810.603	69.91
810.913	70.46
811.222	69.55
811.532	69.45
811.841	69.18
812.151	69.99
812.46	69.95
812.769	70.17
813.079	70.64
813.388	70.22
813.697	70.28
814.006	70.77
814.315	71.96
814.624	71.51
814.933	70.89
815.242	70.29
815.551	69.95
815.86	69.62
816.169	70.65
816.478	70.99
816.786	71.04
817.095	70.14
817.404	70.3
817.712	70.29
818.021	70.61
818.33	70.42
818.638	69.92
818.947	69.57
819.255	69.67
819.563	69.58
819.872	69.59
820.18	69.51
820.488	69.13
820.796	69.43
821.105	69.56
821.413	69.67
821.721	69.71
822.029	69.53
822.337	69.79
822.645	69.67
822.953	69.66
823.26	69.8
823.568	69.88
823.876	69.92
824.184	70.12
824.491	70.11
824.799	69.99
825.107	70.28
825.414	70.51
825.722	70.68
826.029	70.65
826.337	70.57
826.644	70.71
826.951	70.84
827.259	70.83
827.566	70.62
827.873	70.55
828.18	70.48
828.488	70.88
828.795	70.74
829.102	70.44
829.409	70.33
829.716	70.19
830.023	70.53
830.329	70.19
830.636	70.43
830.943	70.2
831.25	70.49
831.557	69.77
831.863	69.59
832.17	69.06
832.476	69.35
832.783	69.33
833.089	69.42
833.396	69.5
833.702	69.18
834.009	69.44
834.315	68.97
834.621	69.55
834.928	69.41
835.234	69.32
835.54	70
835.846	70.41
836.152	70.4
836.458	69.85
836.764	69.97
837.07	68.97
837.376	68.99
837.682	69.64
837.988	69.65
838.293	69.42
838.599	69.25
838.905	68.98
839.211	69.14
839.516	68.74
839.822	68.6
840.127	69.47
840.433	69.84
840.738	70.69
841.044	69.74
841.349	69.27
841.654	69.49
841.959	68.8
842.265	68.45
842.57	68.64
842.875	69.27
843.18	69.42
843.485	70.78
843.79	71.37
844.095	68.19
844.4	69.03
844.705	68.88
845.01	69.13
845.315	69.05
845.619	69.91
845.924	70.11
846.229	69.74
846.533	67.56
846.838	66.05
847.142	65.72
847.447	67.35
847.751	67.62
848.056	66.35
848.36	65.55
848.664	65.46
848.969	64.22
849.273	62.66
849.577	61.71
849.881	60.77
850.185	61
850.489	65.74
850.794	65.76
851.097	64.56
851.401	64.5
851.705	64.33
852.009	64.1
852.313	62.28
852.617	62.78
852.92	64.28
853.224	64.77
853.528	65.55
853.831	63.72
854.135	64.15
854.438	69.07
854.742	68.76
855.045	70.37
855.349	71.31
855.652	72.82
855.955	73.85
856.259	75.92
856.562	75.64
856.865	74.52
857.168	74.01
857.471	75.86
857.774	77.03
858.077	76.73
858.38	77.41
858.683	79.89
858.986	81.37
859.289	82.23
859.592	84.01
859.894	84.88
860.197	83.19
860.5	82.41
860.802	77.05
861.105	77.43
861.407	76.06
861.71	75.32
862.012	73.61
862.315	73.05
862.617	71.19
862.919	69.94
863.222	69.97
863.524	71.11
863.826	69.09
864.128	67.33
864.43	65.95
864.732	63
865.034	60.89
865.336	61.96
865.638	59.39
865.94	57.51
866.242	56.56
866.544	58.63
866.846	57.54
867.147	58.56
867.449	59.59
867.751	58.77
868.052	60.28
868.354	62.51
868.655	63.59
868.957	63.73
869.258	64.72
869.56	62.88
869.861	62.85
870.162	66.69
870.463	68.07
870.765	69.52
871.066	69.83
871.367	70.78
871.668	70.42
871.969	68.94
872.27	70.75
872.571	70.99
872.872	68.34
873.173	69.11
873.473	69.29
873.774	67.84
874.075	70.56
874.376	69.51
874.676	68.61
874.977	67.43
875.277	67.92
875.578	65.93
875.878	66.59
876.179	65.19
876.479	63.24
876.78	62.14
877.08	61.65
877.38	63.23
877.68	63.91
877.981	60.73
878.281	63.91
878.581	61.33
