Data from BA57730_Reflection_00001.txt Node
Date: Mon Nov 18 15:59:23 EST 2019
User: vgr7
Spectrometer: USB2G7710
Scans to average: 3
Trigger mode: 4
Integration Time (sec): 2.000000E-2
Electric dark correction enabled: true
Boxcar width: 10
XAxis mode: Wavelengths
Number of Pixels in Spectrum: 2048
>>>>>Begin Spectral Data<<<<<
177.721	-1074.6
178.105	132.68
178.488	204.25
178.871	230.34
179.254	119.2
179.636	37.71
180.019	77.94
180.402	65.12
180.785	-20.47
181.168	-88.7
181.55	-89.16
181.933	276.97
182.316	166.07
182.698	185.94
183.081	152.76
183.463	220.31
183.846	217.97
184.228	360.26
184.611	521.71
184.993	748.02
185.376	588.61
185.758	480.95
186.14	305.4
186.522	308.9
186.904	270.75
187.287	212.02
187.669	261.93
188.051	325.58
188.433	2476.07
188.815	420.46
189.197	282.76
189.579	260.85
189.961	280.42
190.342	204.22
190.724	335.83
191.106	-2624.64
191.488	-544.26
191.869	-204.04
192.251	-489.97
192.633	-596.17
193.014	-422.78
193.396	1585.38
193.777	-481.11
194.159	-566.67
194.54	-427.67
194.922	-190.18
195.303	-203.66
195.684	-343.74
196.065	-245.27
196.447	-274.45
196.828	-293.67
197.209	-313.02
197.59	-324.06
197.971	-428.65
198.352	-194.57
198.733	-372.29
199.114	-415.06
199.495	-610.33
199.876	-502.96
200.257	-524.22
200.638	-348.31
201.018	-290.11
201.399	-226.77
201.78	-220.49
202.16	-276.75
202.541	-575.4
202.922	1127.99
203.302	1150.77
203.683	-7233.33
204.063	686.25
204.444	390.46
204.824	351.06
205.204	1268.25
205.585	1540.33
205.965	1433.33
206.345	789.04
206.725	485.19
207.106	274.83
207.486	271.94
207.866	307.99
208.246	274.3
208.626	270.39
209.006	322.22
209.386	275.85
209.766	816.25
210.145	-2242.34
210.525	-328.38
210.905	-120.98
211.285	-45.63
211.664	-51.95
212.044	-42.12
212.424	-51.66
212.803	-64.44
213.183	-65.98
213.562	-87
213.942	-70.55
214.321	-57.06
214.701	-52.57
215.08	-63.1
215.459	-63.22
215.838	-63.97
216.218	-60.38
216.597	-44.09
216.976	-60.53
217.355	-62.41
217.734	-60.22
218.113	-73.27
218.492	-63.46
218.871	-85.04
219.25	-90.4
219.629	-106.58
220.008	-98.54
220.387	-104.6
220.766	-91.16
221.144	-128.76
221.523	-98.38
221.902	-130.44
222.28	-123.36
222.659	-93.63
223.037	-84.36
223.416	-65.83
223.794	-66.55
224.173	-76.4
224.551	-65.47
224.929	-65.73
225.308	-36.36
225.686	-36.83
226.064	-18.78
226.442	-15.73
226.821	-4.11
227.199	-0.99
227.577	0.19
227.955	-1.6
228.333	-5.83
228.711	-3.04
229.089	3.56
229.467	-1.45
229.845	-3.39
230.222	-2.47
230.6	-3.92
230.978	-3.68
231.356	0.13
231.733	-0.29
232.111	1.24
232.488	0.86
232.866	1.59
233.243	0.66
233.621	0.15
233.998	-1.81
234.376	-1.84
234.753	-2.85
235.13	-5.72
235.508	-3.9
235.885	-3.65
236.262	-1.2
236.639	-1.18
237.016	-1.91
237.393	0.19
237.77	1.67
238.147	2.19
238.524	1.79
238.901	2.99
239.278	2.76
239.655	3.53
240.032	3.62
240.409	3.52
240.785	4.14
241.162	3.88
241.539	4.31
241.915	5.09
242.292	4.98
242.668	5.1
243.045	5.9
243.421	5.71
243.798	5.64
244.174	5.91
244.551	6.08
244.927	6.34
245.303	6.41
245.679	6.69
246.056	6.49
246.432	6.64
246.808	6.69
247.184	6.58
247.56	6.56
247.936	6.74
248.312	6.74
248.688	6.73
249.064	7.1
249.44	7.15
249.815	7.06
250.191	7.02
250.567	6.98
250.943	6.87
251.318	6.91
251.694	6.85
252.069	6.68
252.445	6.78
252.82	6.6
253.196	6.43
253.571	6.04
253.947	5.85
254.322	6.06
254.697	5.81
255.073	5.59
255.448	5.44
255.823	5.2
256.198	5.34
256.573	5.5
256.948	5.45
257.323	5.37
257.698	5.2
258.073	5.39
258.448	5.33
258.823	5.33
259.198	5.13
259.573	5.09
259.948	5.17
260.322	5.25
260.697	5.25
261.072	5.28
261.446	5.39
261.821	5.24
262.195	5.32
262.57	5.26
262.944	5.3
263.319	5.25
263.693	5.23
264.067	5.29
264.442	5.2
264.816	5.08
265.19	4.99
265.564	4.95
265.938	4.65
266.313	4.56
266.687	4.63
267.061	4.87
267.435	4.97
267.809	4.83
268.183	4.64
268.556	4.71
268.93	4.75
269.304	4.79
269.678	5.07
270.051	4.95
270.425	4.91
270.799	4.93
271.172	5.02
271.546	5.02
271.919	4.8
272.293	4.83
272.666	4.79
273.04	4.8
273.413	4.74
273.787	4.93
274.16	5.13
274.533	4.9
274.906	4.79
275.279	4.78
275.653	4.72
276.026	4.71
276.399	4.62
276.772	4.81
277.145	4.63
277.518	4.74
277.891	4.66
278.263	4.75
278.636	4.81
279.009	4.77
279.382	4.99
279.755	5.2
280.127	5.19
280.5	5.33
280.872	5.56
281.245	5.65
281.617	5.74
281.99	5.68
282.362	5.89
282.735	5.83
283.107	5.8
283.479	5.96
283.852	6.07
284.224	6.07
284.596	5.94
284.968	6
285.34	5.95
285.713	6.02
286.085	6.08
286.457	6.1
286.829	6.33
287.201	6.18
287.572	6.09
287.944	6.01
288.316	6.02
288.688	5.92
289.06	6
289.431	5.8
289.803	5.79
290.175	5.73
290.546	5.91
290.918	6.03
291.289	6.03
291.661	5.99
292.032	6.11
292.403	6.25
292.775	6.34
293.146	6.29
293.517	6.37
293.889	6.45
294.26	6.5
294.631	6.45
295.002	6.4
295.373	6.48
295.744	6.63
296.115	6.62
296.486	6.47
296.857	6.47
297.228	6.76
297.599	6.79
297.97	6.93
298.34	6.99
298.711	7.05
299.082	7.1
299.452	7.19
299.823	7.28
300.194	7.14
300.564	7.16
300.935	7.31
301.305	7.27
301.676	7.25
302.046	7.32
302.416	7.25
302.787	7.42
303.157	7.51
303.527	7.33
303.897	7.43
304.267	7.89
304.637	7.94
305.008	7.75
305.378	7.73
305.748	7.61
306.117	7.54
306.487	7.52
306.857	7.41
307.227	7.4
307.597	7.24
307.967	7.27
308.336	7.29
308.706	7.34
309.076	7.27
309.445	7.21
309.815	7.07
310.184	6.99
310.554	6.98
310.923	6.85
311.293	6.95
311.662	6.9
312.031	6.64
312.401	6.57
312.77	6.64
313.139	6.73
313.508	6.87
313.877	6.75
314.246	6.76
314.616	6.81
314.985	6.81
315.353	6.81
315.722	6.8
316.091	6.81
316.46	6.69
316.829	6.65
317.198	6.77
317.567	6.8
317.935	6.86
318.304	6.8
318.672	6.79
319.041	6.86
319.41	6.88
319.778	6.89
320.147	7.06
320.515	7
320.883	6.68
321.252	6.5
321.62	6.66
321.988	6.61
322.357	6.49
322.725	6.49
323.093	6.58
323.461	6.58
323.829	6.53
324.197	6.52
324.565	6.71
324.933	6.75
325.301	6.88
325.669	6.84
326.037	6.93
326.405	7.14
326.772	7.19
327.14	7.27
327.508	7.31
327.875	7.18
328.243	7.11
328.61	7.26
328.978	7.35
329.346	7.45
329.713	7.38
330.08	7.49
330.448	7.34
330.815	7.2
331.182	7.27
331.55	7.32
331.917	7.32
332.284	7.38
332.651	7.25
333.018	7.13
333.385	7.26
333.752	7.23
334.119	7.16
334.486	7.04
334.853	6.86
335.22	6.84
335.587	6.81
335.954	6.85
336.32	6.89
336.687	6.89
337.054	6.78
337.42	6.73
337.787	6.78
338.153	6.79
338.52	7
338.886	6.92
339.253	6.95
339.619	6.89
339.986	6.74
340.352	6.88
340.718	6.98
341.084	6.9
341.451	6.88
341.817	6.92
342.183	6.95
342.549	7.02
342.915	7.04
343.281	7.1
343.647	7.11
344.013	7.14
344.379	7.11
344.745	7.12
345.11	7.21
345.476	7.17
345.842	7.23
346.208	7.14
346.573	7.18
346.939	7.17
347.304	7.09
347.67	7.07
348.035	6.98
348.401	6.96
348.766	6.98
349.132	6.99
349.497	6.86
349.862	6.86
350.228	6.83
350.593	6.77
350.958	6.69
351.323	6.65
351.688	6.67
352.053	6.77
352.418	6.76
352.783	6.68
353.148	6.62
353.513	6.74
353.878	6.72
354.243	6.74
354.608	6.73
354.972	6.82
355.337	6.84
355.702	7
356.066	6.91
356.431	6.88
356.795	6.91
357.16	6.96
357.524	6.87
357.889	6.81
358.253	6.84
358.618	6.83
358.982	6.84
359.346	6.74
359.71	6.65
360.075	6.66
360.439	6.69
360.803	6.72
361.167	6.63
361.531	6.65
361.895	6.59
362.259	6.54
362.623	6.57
362.987	6.59
363.351	6.52
363.714	6.61
364.078	6.61
364.442	6.57
364.806	6.6
365.169	6.7
365.533	6.78
365.896	6.81
366.26	6.86
366.623	6.87
366.987	6.94
367.35	6.96
367.714	6.97
368.077	6.96
368.44	7.01
368.803	7.02
369.167	6.98
369.53	6.99
369.893	7.06
370.256	7.01
370.619	7.02
370.982	6.96
371.345	6.89
371.708	6.89
372.071	6.89
372.434	6.79
372.797	6.78
373.159	6.76
373.522	6.69
373.885	6.71
374.247	6.74
374.61	6.78
374.973	6.74
375.335	6.69
375.698	6.75
376.06	6.67
376.423	6.6
376.785	6.67
377.147	6.75
377.51	6.72
377.872	6.78
378.234	6.77
378.596	6.75
378.958	6.78
379.321	6.79
379.683	6.82
380.045	6.83
380.407	6.79
380.769	6.82
381.13	6.93
381.492	6.88
381.854	6.88
382.216	6.88
382.578	6.92
382.939	6.96
383.301	6.94
383.663	6.95
384.024	6.97
384.386	6.95
384.747	6.9
385.109	6.9
385.47	6.83
385.832	6.82
386.193	6.87
386.554	6.81
386.916	6.8
387.277	6.77
387.638	6.82
387.999	6.83
388.36	6.81
388.721	6.78
389.082	6.76
389.443	6.75
389.804	6.73
390.165	6.66
390.526	6.67
390.887	6.66
391.248	6.69
391.609	6.7
391.969	6.69
392.33	6.68
392.691	6.74
393.051	6.75
393.412	6.75
393.772	6.74
394.133	6.78
394.493	6.76
394.854	6.77
395.214	6.75
395.574	6.75
395.935	6.72
396.295	6.75
396.655	6.77
397.015	6.74
397.376	6.76
397.736	6.79
398.096	6.75
398.456	6.73
398.816	6.73
399.176	6.72
399.535	6.75
399.895	6.74
400.255	6.69
400.615	6.71
400.975	6.68
401.334	6.66
401.694	6.67
402.054	6.68
402.413	6.67
402.773	6.67
403.132	6.67
403.492	6.71
403.851	6.65
404.211	6.63
404.57	6.63
404.929	6.6
405.288	6.61
405.648	6.59
406.007	6.61
406.366	6.62
406.725	6.65
407.084	6.66
407.443	6.67
407.802	6.71
408.161	6.66
408.52	6.68
408.879	6.69
409.238	6.69
409.596	6.68
409.955	6.66
410.314	6.65
410.673	6.64
411.031	6.61
411.39	6.62
411.748	6.62
412.107	6.62
412.465	6.62
412.824	6.64
413.182	6.65
413.54	6.66
413.899	6.65
414.257	6.63
414.615	6.63
414.974	6.65
415.332	6.64
415.69	6.67
416.048	6.66
416.406	6.64
416.764	6.62
417.122	6.65
417.48	6.64
417.838	6.65
418.195	6.67
418.553	6.68
418.911	6.67
419.269	6.69
419.626	6.72
419.984	6.73
420.342	6.73
420.699	6.72
421.057	6.71
421.414	6.7
421.772	6.7
422.129	6.68
422.486	6.66
422.844	6.66
423.201	6.66
423.558	6.66
423.915	6.67
424.273	6.67
424.63	6.66
424.987	6.66
425.344	6.66
425.701	6.65
426.058	6.64
426.415	6.64
426.772	6.61
427.128	6.57
427.485	6.57
427.842	6.56
428.199	6.56
428.555	6.56
428.912	6.58
429.269	6.58
429.625	6.57
429.982	6.58
430.338	6.56
430.695	6.56
431.051	6.56
431.407	6.56
431.764	6.55
432.12	6.54
432.476	6.55
432.832	6.53
433.189	6.53
433.545	6.53
433.901	6.55
434.257	6.56
434.613	6.57
434.969	6.57
435.325	6.54
435.681	6.53
436.036	6.53
436.392	6.52
436.748	6.5
437.104	6.5
437.459	6.5
437.815	6.49
438.171	6.48
438.526	6.48
438.882	6.49
439.237	6.51
439.593	6.52
439.948	6.54
440.304	6.53
440.659	6.53
441.014	6.54
441.369	6.52
441.725	6.51
442.08	6.52
442.435	6.52
442.79	6.53
443.145	6.53
443.5	6.52
443.855	6.51
444.21	6.51
444.565	6.51
444.92	6.5
445.275	6.51
445.629	6.51
445.984	6.51
446.339	6.49
446.693	6.46
447.048	6.43
447.403	6.42
447.757	6.43
448.112	6.42
448.466	6.41
448.82	6.43
449.175	6.44
449.529	6.42
449.883	6.43
450.238	6.44
450.592	6.43
450.946	6.43
451.3	6.44
451.654	6.44
452.008	6.44
452.362	6.44
452.716	6.43
453.07	6.45
453.424	6.43
453.778	6.41
454.132	6.42
454.486	6.44
454.839	6.42
455.193	6.39
455.547	6.42
455.9	6.44
456.254	6.42
456.607	6.41
456.961	6.41
457.314	6.4
457.668	6.39
458.021	6.38
458.375	6.4
458.728	6.39
459.081	6.4
459.434	6.41
459.787	6.42
460.141	6.43
460.494	6.42
460.847	6.44
461.2	6.46
461.553	6.47
461.906	6.48
462.259	6.49
462.611	6.51
462.964	6.5
463.317	6.48
463.67	6.49
464.022	6.49
464.375	6.49
464.728	6.48
465.08	6.47
465.433	6.49
465.785	6.47
466.138	6.46
466.49	6.45
466.843	6.43
467.195	6.42
467.547	6.42
467.899	6.42
468.252	6.4
468.604	6.39
468.956	6.39
469.308	6.39
469.66	6.39
470.012	6.41
470.364	6.41
470.716	6.4
471.068	6.4
471.42	6.43
471.772	6.46
472.123	6.47
472.475	6.5
472.827	6.49
473.178	6.51
473.53	6.52
473.882	6.51
474.233	6.53
474.585	6.53
474.936	6.54
475.288	6.52
475.639	6.53
475.99	6.52
476.342	6.53
476.693	6.54
477.044	6.52
477.395	6.5
477.746	6.47
478.097	6.46
478.448	6.45
478.8	6.44
479.15	6.43
479.501	6.46
479.852	6.47
480.203	6.49
480.554	6.5
480.905	6.5
481.255	6.5
481.606	6.52
481.957	6.53
482.307	6.55
482.658	6.57
483.009	6.57
483.359	6.58
483.709	6.59
484.06	6.58
484.41	6.6
484.761	6.61
485.111	6.63
485.461	6.63
485.811	6.64
486.162	6.65
486.512	6.64
486.862	6.63
487.212	6.62
487.562	6.62
487.912	6.62
488.262	6.64
488.612	6.64
488.961	6.64
489.311	6.64
489.661	6.62
490.011	6.62
490.36	6.62
490.71	6.62
491.06	6.61
491.409	6.61
491.759	6.59
492.108	6.59
492.458	6.57
492.807	6.57
493.157	6.57
493.506	6.57
493.855	6.59
494.204	6.59
494.554	6.59
494.903	6.58
495.252	6.58
495.601	6.58
495.95	6.57
496.299	6.56
496.648	6.56
496.997	6.57
497.346	6.6
497.695	6.6
498.043	6.61
498.392	6.61
498.741	6.62
499.09	6.62
499.438	6.61
499.787	6.63
500.135	6.66
500.484	6.67
500.832	6.67
501.181	6.68
501.529	6.7
501.878	6.72
502.226	6.73
502.574	6.72
502.923	6.73
503.271	6.75
503.619	6.75
503.967	6.76
504.315	6.75
504.663	6.75
505.011	6.77
505.359	6.78
505.707	6.78
506.055	6.78
506.403	6.82
506.751	6.87
507.098	6.87
507.446	6.88
507.794	6.89
508.141	6.88
508.489	6.88
508.837	6.9
509.184	6.89
509.531	6.9
509.879	6.93
510.226	6.96
510.574	6.95
510.921	6.97
511.268	6.98
511.616	7
511.963	7
512.31	7
512.657	7.02
513.004	7.04
513.351	7.04
513.698	7.03
514.045	7.01
514.392	7.03
514.739	7.04
515.086	7.04
515.432	7.04
515.779	7.03
516.126	7.03
516.473	7.06
516.819	7.07
517.166	7.05
517.512	7.05
517.859	7.04
518.205	7.04
518.552	7.04
518.898	7.04
519.245	7.03
519.591	7.03
519.937	7.01
520.283	7.01
520.629	7.01
520.976	7.02
521.322	7.03
521.668	7.02
522.014	7
522.36	7.02
522.706	7.06
523.052	7.08
523.398	7.09
523.743	7.08
524.089	7.09
524.435	7.11
524.781	7.13
525.126	7.15
525.472	7.16
525.817	7.16
526.163	7.18
526.509	7.19
526.854	7.21
527.199	7.22
527.545	7.24
527.89	7.25
528.235	7.26
528.581	7.27
528.926	7.28
529.271	7.29
529.616	7.28
529.961	7.28
530.306	7.28
530.651	7.28
530.996	7.3
531.341	7.3
531.686	7.31
532.031	7.31
532.376	7.32
532.721	7.33
533.065	7.35
533.41	7.35
533.755	7.35
534.099	7.34
534.444	7.34
534.788	7.34
535.133	7.34
535.477	7.34
535.822	7.31
536.166	7.3
536.51	7.29
536.855	7.3
537.199	7.3
537.543	7.31
537.887	7.31
538.231	7.29
538.576	7.29
538.92	7.3
539.264	7.3
539.608	7.31
539.951	7.3
540.295	7.3
540.639	7.32
540.983	7.32
541.327	7.33
541.671	7.32
542.014	7.32
542.358	7.32
542.701	7.32
543.045	7.33
543.389	7.36
543.732	7.37
544.075	7.39
544.419	7.39
544.762	7.38
545.105	7.39
545.449	7.4
545.792	7.4
546.135	7.39
546.478	7.41
546.821	7.38
547.165	7.39
547.508	7.4
547.851	7.4
548.194	7.42
548.536	7.4
548.879	7.44
549.222	7.45
549.565	7.48
549.908	7.49
550.25	7.51
550.593	7.48
550.936	7.48
551.278	7.48
551.621	7.48
551.963	7.5
552.306	7.51
552.648	7.51
552.991	7.5
553.333	7.47
553.675	7.45
554.017	7.45
554.36	7.42
554.702	7.42
555.044	7.37
555.386	7.35
555.728	7.34
556.07	7.31
556.412	7.29
556.754	7.28
557.096	7.27
557.438	7.27
557.78	7.28
558.121	7.29
558.463	7.33
558.805	7.36
559.147	7.37
559.488	7.36
559.83	7.39
560.171	7.42
560.513	7.48
560.854	7.48
561.196	7.52
561.537	7.56
561.878	7.56
562.22	7.59
562.561	7.58
562.902	7.62
563.243	7.62
563.584	7.65
563.925	7.65
564.266	7.63
564.607	7.64
564.948	7.67
565.289	7.69
565.63	7.64
565.971	7.61
566.312	7.62
566.653	7.66
566.993	7.64
567.334	7.62
567.675	7.58
568.015	7.62
568.356	7.6
568.696	7.59
569.037	7.6
569.377	7.63
569.718	7.63
570.058	7.62
570.398	7.62
570.739	7.62
571.079	7.6
571.419	7.61
571.759	7.62
572.099	7.62
572.439	7.59
572.779	7.59
573.119	7.61
573.459	7.6
573.799	7.59
574.139	7.6
574.479	7.58
574.819	7.59
575.158	7.55
575.498	7.55
575.838	7.52
576.177	7.49
576.517	7.45
576.856	7.5
577.196	7.5
577.535	7.47
577.875	7.46
578.214	7.5
578.553	7.53
578.893	7.51
579.232	7.5
579.571	7.5
579.91	7.54
580.25	7.52
580.589	7.52
580.928	7.53
581.267	7.54
581.606	7.58
581.945	7.6
582.283	7.63
582.622	7.63
582.961	7.69
583.3	7.72
583.639	7.8
583.977	7.74
584.316	7.72
584.654	7.75
584.993	7.76
585.332	7.73
585.67	7.73
586.008	7.71
586.347	7.69
586.685	7.74
587.024	7.68
587.362	7.69
587.7	7.68
588.038	7.69
588.376	7.65
588.715	7.65
589.053	7.66
589.391	7.63
589.729	7.65
590.067	7.61
590.404	7.61
590.742	7.59
591.08	7.56
591.418	7.6
591.756	7.59
592.093	7.62
592.431	7.62
592.769	7.59
593.106	7.64
593.444	7.63
593.781	7.59
594.119	7.59
594.456	7.58
594.793	7.58
595.131	7.58
595.468	7.63
595.805	7.63
596.143	7.6
596.48	7.59
596.817	7.59
597.154	7.62
597.491	7.58
597.828	7.55
598.165	7.55
598.502	7.55
598.839	7.57
599.176	7.55
599.512	7.57
599.849	7.58
600.186	7.57
600.523	7.59
600.859	7.65
601.196	7.72
601.532	7.73
601.869	7.73
602.205	7.71
602.542	7.72
602.878	7.71
603.215	7.75
603.551	7.77
603.887	7.77
604.223	7.75
604.56	7.78
604.896	7.82
605.232	7.87
605.568	7.86
605.904	7.83
606.24	7.83
606.576	7.85
606.912	7.86
607.248	7.84
607.583	7.86
607.919	7.8
608.255	7.77
608.591	7.78
608.926	7.81
609.262	7.82
609.597	7.81
609.933	7.8
610.268	7.77
610.604	7.77
610.939	7.78
611.275	7.78
611.61	7.8
611.945	7.77
612.281	7.71
612.616	7.73
612.951	7.78
613.286	7.79
613.621	7.76
613.956	7.74
614.291	7.79
614.626	7.8
614.961	7.8
615.296	7.71
615.631	7.77
615.966	7.77
616.3	7.75
616.635	7.67
616.97	7.72
617.304	7.75
617.639	7.77
617.973	7.77
618.308	7.77
618.642	7.79
618.977	7.79
619.311	7.84
619.646	7.81
619.98	7.79
620.314	7.76
620.648	7.76
620.983	7.8
621.317	7.82
621.651	7.82
621.985	7.84
622.319	7.86
622.653	7.81
622.987	7.86
623.321	7.85
623.655	7.9
623.988	7.9
624.322	7.87
624.656	7.91
624.99	7.93
625.323	7.98
625.657	7.99
625.99	8.02
626.324	7.98
626.657	7.98
626.991	7.99
627.324	8.03
627.658	8.06
627.991	8.07
628.324	8.05
628.657	8.04
628.991	8.01
629.324	8.04
629.657	8.1
629.99	8.06
630.323	8.08
630.656	8.11
630.989	8.14
631.322	8.2
631.655	8.11
631.987	8.12
632.32	8.09
632.653	8.07
632.986	8.05
633.318	8.05
633.651	8.08
633.984	8.11
634.316	8.03
634.649	8.01
634.981	8.04
635.313	8.05
635.646	8.07
635.978	8.06
636.31	8.07
636.643	7.97
636.975	7.99
637.307	7.97
637.639	7.92
637.971	7.91
638.303	7.88
638.635	7.87
638.967	7.89
639.299	7.86
639.631	7.85
639.963	7.82
640.295	7.91
640.626	7.92
640.958	7.89
641.29	8
641.621	8.01
641.953	7.94
642.285	7.87
642.616	7.88
642.948	7.92
643.279	7.88
643.61	7.95
643.942	7.91
644.273	7.91
644.604	7.92
644.936	7.86
645.267	7.84
645.598	7.89
645.929	7.83
646.26	7.87
646.591	7.9
646.922	7.91
647.253	7.87
647.584	7.87
647.915	7.85
648.245	7.83
648.576	7.79
648.907	7.88
649.238	7.93
649.568	7.93
649.899	7.92
650.229	7.99
650.56	7.95
650.89	7.94
651.221	7.99
651.551	8.03
651.882	8.07
652.212	8.09
652.542	8.15
652.872	8.18
653.203	8.11
653.533	8.11
653.863	8.1
654.193	8.1
654.523	8.09
654.853	8.14
655.183	8.15
655.513	8.18
655.843	8.09
656.172	8.04
656.502	8.03
656.832	8.01
657.162	8.03
657.491	8.06
657.821	8.12
658.15	8.14
658.48	8.16
658.809	8.19
659.139	8.08
659.468	8.01
659.798	7.97
660.127	8.06
660.456	8.1
660.785	8.2
661.115	8.22
661.444	8.27
661.773	8.26
662.102	8.29
662.431	8.24
662.76	8.29
663.089	8.35
663.418	8.29
663.747	8.35
664.076	8.31
664.404	8.34
664.733	8.28
665.062	8.27
665.39	8.23
665.719	8.14
666.048	8.35
666.376	8.36
666.705	8.35
667.033	8.27
667.362	8.22
667.69	8.19
668.018	8.23
668.347	8.2
668.675	8.21
669.003	8.16
669.331	8.18
669.659	8.2
669.987	8.19
670.315	8.31
670.643	8.33
670.971	8.29
671.299	8.29
671.627	8.4
671.955	8.3
672.283	8.39
672.61	8.47
672.938	8.38
673.266	8.48
673.593	8.56
673.921	8.67
674.249	8.65
674.576	8.66
674.904	8.66
675.231	8.68
675.558	8.68
675.886	8.7
676.213	8.69
676.54	8.71
676.867	8.81
677.195	8.74
677.522	8.71
677.849	8.81
678.176	8.85
678.503	8.8
678.83	8.86
679.157	8.77
679.484	8.77
679.81	8.77
680.137	8.64
680.464	8.7
680.791	8.6
681.117	8.6
681.444	8.6
681.771	8.58
682.097	8.52
682.424	8.52
682.75	8.5
683.077	8.54
683.403	8.49
683.729	8.51
684.056	8.57
684.382	8.56
684.708	8.57
685.034	8.51
685.36	8.56
685.686	8.55
686.012	8.59
686.339	8.66
686.664	8.74
686.99	8.77
687.316	8.64
687.642	8.71
687.968	8.77
688.294	8.77
688.619	8.83
688.945	8.95
689.271	8.93
689.596	8.87
689.922	8.85
690.247	8.91
690.573	8.87
690.898	8.76
691.224	8.77
691.549	8.77
691.874	8.66
692.2	8.63
692.525	8.69
692.85	8.74
693.175	8.67
693.5	8.53
693.825	8.55
694.15	8.63
694.475	8.62
694.8	8.61
695.125	8.51
695.45	8.39
695.775	8.38
696.099	8.33
696.424	8.46
696.749	8.47
697.073	8.47
697.398	8.39
697.723	8.53
698.047	8.52
698.372	8.5
698.696	8.56
699.02	8.59
699.345	8.63
699.669	8.64
699.993	8.63
700.318	8.76
700.642	8.79
700.966	8.8
701.29	8.83
701.614	8.9
701.938	9.05
702.262	9.11
702.586	9.19
702.91	9.3
703.234	9.3
703.557	9.41
703.881	9.35
704.205	9.46
704.529	9.36
704.852	9.35
705.176	9.31
705.499	9.47
705.823	9.5
706.146	9.37
706.47	9.39
706.793	9.36
707.117	9.33
707.44	9.39
707.763	9.43
708.086	9.28
708.409	9.13
708.733	9.01
709.056	9.01
709.379	8.97
709.702	8.93
710.025	8.91
710.348	8.8
710.671	8.76
710.993	8.7
711.316	8.74
711.639	8.87
711.962	8.91
712.284	8.87
712.607	8.76
712.93	8.89
713.252	8.77
713.575	8.78
713.897	8.66
714.22	8.63
714.542	8.69
714.864	8.8
715.187	8.78
715.509	8.91
715.831	8.86
716.153	8.81
716.475	8.8
716.798	8.86
717.12	8.85
717.442	8.83
717.764	8.81
718.085	8.82
718.407	8.77
718.729	8.75
719.051	8.75
719.373	8.89
719.695	8.92
720.016	8.93
720.338	9.07
720.659	9.16
720.981	9.24
721.302	9.15
721.624	9.18
721.945	9.29
722.267	9.37
722.588	9.4
722.909	9.35
723.231	9.38
723.552	9.24
723.873	9.32
724.194	9.4
724.515	9.55
724.836	9.52
725.157	9.59
725.478	9.45
725.799	9.54
726.12	9.43
726.441	9.34
726.762	9.39
727.083	9.29
727.403	9.4
727.724	9.27
728.045	9.32
728.365	9.24
728.686	9.16
729.006	9.08
729.327	9.17
729.647	9.21
729.967	9.17
730.288	9.13
730.608	9.04
730.928	9.14
731.249	9.01
731.569	9.11
731.889	9.04
732.209	9.05
732.529	9.03
732.849	9.1
733.169	9.06
733.489	9.17
733.809	9.16
734.129	9.06
734.448	9.26
734.768	9.15
735.088	9.34
735.408	9.55
735.727	9.46
736.047	9.38
736.366	9.21
736.686	9.37
737.005	9.47
737.325	9.5
737.644	9.49
737.963	9.59
738.283	9.52
738.602	9.47
738.921	9.52
739.24	9.54
739.56	9.47
739.879	9.43
740.198	9.58
740.517	9.6
740.836	9.65
741.155	9.48
741.473	9.58
741.792	9.45
742.111	9.52
742.43	9.44
742.748	9.38
743.067	9.63
743.386	9.66
743.704	9.7
744.023	9.79
744.341	9.67
744.66	9.87
744.978	9.83
745.297	9.77
745.615	9.9
745.933	9.77
746.252	9.87
746.57	10.04
746.888	9.78
747.206	9.69
747.524	9.72
747.842	9.81
748.16	10.07
748.478	10.06
748.796	9.81
749.114	10.05
749.432	10.08
749.749	9.97
750.067	9.68
750.385	9.52
750.703	9.46
751.02	9.34
751.338	8.88
751.655	9
751.973	9.32
752.29	9.56
752.608	9.48
752.925	9.39
753.242	9.28
753.56	9.11
753.877	9.12
754.194	9
754.511	8.93
754.828	8.72
755.145	8.86
755.462	8.8
755.779	8.72
756.096	8.94
756.413	9.07
756.73	9.24
757.047	9.49
757.364	9.48
757.68	9.94
757.997	10.21
758.314	10.22
758.63	10.15
758.947	9.89
759.264	9.85
759.58	9.9
759.896	10.08
760.213	10.36
760.529	10.43
760.846	10.51
761.162	10.61
761.478	10.76
761.794	10.78
762.11	10.96
762.426	10.83
762.743	10.76
763.059	10.82
763.375	10.94
763.69	10.97
764.006	11.18
764.322	11.13
764.638	11.21
764.954	11.41
765.27	11.33
765.585	11.22
765.901	11.44
766.216	11.43
766.532	11.38
766.848	11.08
767.163	11.07
767.478	10.96
767.794	10.88
768.109	10.6
768.424	10.59
768.74	10.52
769.055	10.52
769.37	10.75
769.685	10.61
770	10.77
770.315	10.62
770.63	10.64
770.945	10.68
771.26	10.55
771.575	10.07
771.89	10.16
772.205	10.46
772.52	10.38
772.834	10.36
773.149	10.22
773.464	10.35
773.778	10.38
774.093	10.19
774.407	10.39
774.722	10.47
775.036	10.66
775.351	10.72
775.665	10.73
775.979	10.53
776.293	10.66
776.608	10.27
776.922	10.14
777.236	9.8
777.55	9.6
777.864	9.66
778.178	10.03
778.492	10.08
778.806	9.58
779.12	9.58
779.434	9.68
779.747	9.79
780.061	9.54
780.375	9.48
780.689	9.94
781.002	10
781.316	10.28
781.629	9.96
781.943	10.28
782.256	10.48
782.57	10.37
782.883	10.27
783.196	10.24
783.51	10.31
783.823	10.54
784.136	10.68
784.449	10.74
784.762	10.53
785.075	10.5
785.388	10.92
785.701	10.87
786.014	10.65
786.327	10.56
786.64	11.38
786.953	11.65
787.266	11.48
787.578	11.03
787.891	10.91
788.204	10.92
788.516	10.65
788.829	10.42
789.141	10.4
789.454	10.44
789.766	10.74
790.079	11.2
790.391	11.15
790.703	11.37
791.016	11.24
791.328	11.73
791.64	11.99
791.952	12.5
792.264	12.16
792.576	12.21
792.888	11.92
793.2	11.52
793.512	11.57
793.824	11.8
794.136	11.99
794.448	11.47
794.76	11.4
795.071	12.03
795.383	12.31
795.695	12.15
796.006	12.04
796.318	12.13
796.629	12.36
796.941	12.17
797.252	12.06
797.564	12.22
797.875	11.22
798.186	10.54
798.497	10.18
798.809	10.55
799.12	11
799.431	11.32
799.742	11.57
800.053	11.96
800.364	11.73
800.675	11.66
800.986	12.14
801.297	11.92
801.608	11.01
801.918	10.55
802.229	10.6
802.54	10.83
802.851	10.7
803.161	9.89
803.472	10.26
803.782	10.02
804.093	9.66
804.403	10.1
804.714	10.8
805.024	10.7
805.334	10.73
805.645	10.49
805.955	10.78
806.265	10.68
806.575	9.88
806.885	10.17
807.195	10.18
807.505	10.34
807.815	10.48
808.125	10.61
808.435	10.69
808.745	10.79
809.055	10.86
809.365	10.79
809.674	10.12
809.984	10.13
810.294	10.2
810.603	10.59
810.913	11.16
811.222	11.29
811.532	11.01
811.841	10.63
812.151	11.17
812.46	11.08
812.769	10.8
813.079	10.44
813.388	10.18
813.697	10.69
814.006	10.36
814.315	10.28
814.624	10.6
814.933	10.87
815.242	11.16
815.551	10.75
815.86	11.02
816.169	11.62
816.478	10.88
816.786	10.67
817.095	10.71
817.404	10.11
817.712	9.77
818.021	10.57
818.33	10.97
818.638	10.47
818.947	10.43
819.255	11.03
819.563	11.63
819.872	11.74
820.18	11.64
820.488	11.67
820.796	12.03
821.105	11.76
821.413	12.04
821.721	12.05
822.029	12.17
822.337	12.29
822.645	12.28
822.953	12.33
823.26	12.34
823.568	12.34
823.876	12.37
824.184	12.38
824.491	12.25
824.799	12.19
825.107	12.23
825.414	12.25
825.722	12.26
826.029	12.18
826.337	12.23
826.644	12.33
826.951	12.27
827.259	12.17
827.566	12.43
827.873	12.32
828.18	12.42
828.488	12.21
828.795	12.05
829.102	12.15
829.409	12.37
829.716	12.23
830.023	12.06
830.329	12.18
830.636	12.02
830.943	12.2
831.25	12.16
831.557	12.15
831.863	12.34
832.17	12.59
832.476	12.79
832.783	12.88
833.089	12.91
833.396	12.98
833.702	13.03
834.009	13.09
834.315	13.19
834.621	13.24
834.928	13.88
835.234	13.74
835.54	13.95
835.846	13.6
836.152	13.74
836.458	14.18
836.764	13.91
837.07	14.1
837.376	13.76
837.682	13.6
837.988	13.19
838.293	12.88
838.599	11.86
838.905	11.38
839.211	11.19
839.516	10.94
839.822	10.96
840.127	10.26
840.433	9.53
840.738	8.78
841.044	8.51
841.349	7.87
841.654	8.28
841.959	7.93
842.265	8.67
842.57	9.21
842.875	9.51
843.18	9.71
843.485	9.4
843.79	9.5
844.095	9.86
844.4	10.8
844.705	11.08
845.01	11.22
845.315	11.71
845.619	11.27
845.924	11.08
846.229	11.71
846.533	12.67
846.838	14.33
847.142	14.32
847.447	12.63
847.751	12.45
848.056	10.26
848.36	9.96
848.664	9.29
848.969	9.49
849.273	7.75
849.577	8.02
849.881	9.42
850.185	10.83
850.489	11.9
850.794	11.37
851.097	11.6
851.401	13.05
851.705	13.18
852.009	13.34
852.313	12.97
852.617	13.17
852.92	13.66
853.224	11.43
853.528	12.7
853.831	13.52
854.135	12.94
854.438	13.72
854.742	14.27
855.045	12.16
855.349	11.35
855.652	10.52
855.955	10.6
856.259	6.84
856.562	5.87
856.865	4.3
857.168	3.93
857.471	2.65
857.774	1.21
858.077	1.04
858.38	2.28
858.683	3.15
858.986	2.26
859.289	0.23
859.592	1.16
859.894	2.57
860.197	4.16
860.5	5.54
860.802	6.58
861.105	7.33
861.407	8.02
861.71	8.31
862.012	9.63
862.315	9.34
862.617	13.57
862.919	12.31
863.222	12.43
863.524	14.01
863.826	15.6
864.128	16.99
864.43	17.05
864.732	15.46
865.034	13.97
865.336	12.1
865.638	13.68
865.94	11.83
866.242	9.3
866.544	6.8
866.846	5.85
867.147	5.8
867.449	4.46
867.751	5.9
868.052	5.97
868.354	7.52
868.655	9.72
868.957	8.75
869.258	8.29
869.56	9.53
869.861	9.5
870.162	8.55
870.463	8.47
870.765	9.22
871.066	9.01
871.367	8.54
871.668	10.12
871.969	10.71
872.27	11.74
872.571	13.08
872.872	15.57
873.173	15.42
873.473	15.45
873.774	18.98
874.075	18.31
874.376	17.71
874.676	18.3
874.977	15.19
875.277	16.09
875.578	18.45
875.878	18.46
876.179	18.15
876.479	19.23
876.78	18.89
877.08	18.86
877.38	20.04
877.68	23.05
877.981	25.09
878.281	24.41
878.581	26.23
