Data from BA57715_Reflection_00013.txt Node
Date: Mon Nov 18 15:26:14 EST 2019
User: vgr7
Spectrometer: USB2G7710
Scans to average: 3
Trigger mode: 4
Integration Time (sec): 2.000000E-2
Electric dark correction enabled: true
Boxcar width: 10
XAxis mode: Wavelengths
Number of Pixels in Spectrum: 2048
>>>>>Begin Spectral Data<<<<<
177.721	60.11
178.105	43.56
178.488	38.96
178.871	33.19
179.254	-55.76
179.636	-16.52
180.019	107.98
180.402	116.67
180.785	-180.7
181.168	355.95
181.55	324.42
181.933	92.51
182.316	67.82
182.698	120.66
183.081	217.87
183.463	291.53
183.846	192.77
184.228	806.83
184.611	271.85
184.993	-2591.36
185.376	-305.64
185.758	-596.17
186.14	-395.01
186.522	-417.3
186.904	793.6
187.287	322.22
187.669	-1305.62
188.051	4512.7
188.433	1414.01
188.815	1253.44
189.197	-494.32
189.579	-243.26
189.961	-530.39
190.342	-177.36
190.724	-84.83
191.106	-95.73
191.488	-112.98
191.869	-72.43
192.251	-48.44
192.633	-31.67
193.014	-41.41
193.396	-143.2
193.777	-118.46
194.159	535.56
194.54	-123.29
194.922	-40.49
195.303	-4.36
195.684	-46.01
196.065	-38.55
196.447	-29.32
196.828	-72.73
197.209	-31.69
197.59	-74.09
197.971	-43.77
198.352	-17.08
198.733	-18.8
199.114	-22.7
199.495	-29.37
199.876	-15.24
200.257	-31.19
200.638	-25.75
201.018	-42.81
201.399	-37.43
201.78	-12.91
202.16	-20.65
202.541	-32.08
202.922	-70.61
203.302	-157.31
203.683	-78.84
204.063	-91.44
204.444	-164.57
204.824	-161.36
205.204	-236.92
205.585	-164.97
205.965	-132.64
206.345	-190.93
206.725	-301.83
207.106	-380.08
207.486	-481.72
207.866	-2971.9
208.246	1713.17
208.626	-3063.12
209.006	-397.18
209.386	-400.51
209.766	-528.17
210.145	-331.3
210.525	-440.02
210.905	-218.99
211.285	-156.47
211.664	-172.76
212.044	-185.84
212.424	-126.52
212.803	-120.96
213.183	-93.26
213.562	-96.93
213.942	-100.76
214.321	-86.77
214.701	-119.8
215.08	-109.37
215.459	-79.15
215.838	-49.06
216.218	-59.46
216.597	-47.11
216.976	-54.42
217.355	-48.88
217.734	-43.82
218.113	-38.54
218.492	-31.52
218.871	-40.42
219.25	-38.46
219.629	-33.33
220.008	-31.27
220.387	-29.95
220.766	-24.77
221.144	-39.75
221.523	-42.52
221.902	-50.07
222.28	-46.67
222.659	-23.27
223.037	-19.85
223.416	-26.67
223.794	-37.1
224.173	-23.67
224.551	-27.25
224.929	-20.37
225.308	-16.19
225.686	-3.83
226.064	-5.31
226.442	-6.88
226.821	-0.15
227.199	-3.4
227.577	-8.36
227.955	-8.08
228.333	-6.82
228.711	-7.84
229.089	-2.21
229.467	-3.15
229.845	-3.93
230.222	-3.27
230.6	-5.85
230.978	-7.36
231.356	-8.09
231.733	-9.11
232.111	-8.55
232.488	-6.32
232.866	-5.49
233.243	-4.08
233.621	-4.76
233.998	-4.45
234.376	-5.25
234.753	-5.16
235.13	-5.62
235.508	-2.94
235.885	-3.11
236.262	-4.34
236.639	-4.16
237.016	-4.76
237.393	-4.29
237.77	-2.86
238.147	-2.41
238.524	-1.59
238.901	0.28
239.278	1.34
239.655	2.65
240.032	3.82
240.409	3.08
240.785	3.6
241.162	3.67
241.539	3.68
241.915	3.46
242.292	3.46
242.668	3.39
243.045	3.74
243.421	3.49
243.798	3.53
244.174	3.3
244.551	3.62
244.927	3.57
245.303	4.15
245.679	4.23
246.056	4.04
246.432	4.14
246.808	4.03
247.184	3.56
247.56	3.55
247.936	3.41
248.312	3.55
248.688	3.41
249.064	3.27
249.44	3.37
249.815	3.6
250.191	3.75
250.567	3.67
250.943	3.39
251.318	3.43
251.694	3.25
252.069	3.6
252.445	3.63
252.82	3.75
253.196	3.4
253.571	3.49
253.947	3.43
254.322	3.24
254.697	3.39
255.073	3.34
255.448	3.06
255.823	2.85
256.198	2.92
256.573	2.67
256.948	2.8
257.323	2.95
257.698	2.98
258.073	2.86
258.448	2.99
258.823	3.11
259.198	3.05
259.573	2.96
259.948	2.91
260.322	2.83
260.697	2.71
261.072	2.73
261.446	2.61
261.821	2.59
262.195	2.66
262.57	2.5
262.944	2.61
263.319	2.65
263.693	2.48
264.067	2.43
264.442	2.63
264.816	2.52
265.19	2.35
265.564	2.03
265.938	1.97
266.313	1.89
266.687	1.93
267.061	1.88
267.435	2
267.809	1.89
268.183	1.95
268.556	2.04
268.93	1.95
269.304	1.99
269.678	2.28
270.051	2.32
270.425	2.48
270.799	2.5
271.172	2.62
271.546	2.69
271.919	2.69
272.293	2.75
272.666	2.95
273.04	2.86
273.413	3.03
273.787	3.07
274.16	3.08
274.533	3.02
274.906	3.12
275.279	3.21
275.653	3.24
276.026	3.05
276.399	3.03
276.772	3.18
277.145	3.17
277.518	3.03
277.891	3
278.263	2.86
278.636	2.98
279.009	2.83
279.382	2.99
279.755	2.92
280.127	2.96
280.5	2.82
280.872	2.97
281.245	3.11
281.617	3.09
281.99	3.14
282.362	3.21
282.735	3.2
283.107	3.16
283.479	3.25
283.852	3.42
284.224	3.5
284.596	3.39
284.968	3.41
285.34	3.44
285.713	3.45
286.085	3.5
286.457	3.44
286.829	3.54
287.201	3.59
287.572	3.62
287.944	3.58
288.316	3.62
288.688	3.47
289.06	3.4
289.431	3.47
289.803	3.48
290.175	3.33
290.546	3.22
290.918	3.22
291.289	3.15
291.661	3.18
292.032	3.23
292.403	3.33
292.775	3.4
293.146	3.37
293.517	3.3
293.889	3.2
294.26	3.14
294.631	3.08
295.002	2.91
295.373	3.03
295.744	3.05
296.115	3
296.486	3.01
296.857	3.01
297.228	3.07
297.599	3.11
297.97	3.33
298.34	3.46
298.711	3.53
299.082	3.64
299.452	3.57
299.823	3.58
300.194	3.56
300.564	3.46
300.935	3.49
301.305	3.51
301.676	3.71
302.046	3.83
302.416	4.04
302.787	4.18
303.157	4.16
303.527	4.16
303.897	4.32
304.267	4.54
304.637	4.67
305.008	4.65
305.378	4.64
305.748	4.6
306.117	4.49
306.487	4.59
306.857	4.54
307.227	4.51
307.597	4.49
307.967	4.57
308.336	4.85
308.706	4.92
309.076	5.04
309.445	5.08
309.815	5.04
310.184	4.81
310.554	4.9
310.923	4.86
311.293	4.9
311.662	4.77
312.031	4.66
312.401	4.59
312.77	4.59
313.139	4.69
313.508	4.79
313.877	4.92
314.246	4.9
314.616	4.87
314.985	4.93
315.353	4.99
315.722	5.16
316.091	5
316.46	5.05
316.829	5.13
317.198	5.23
317.567	5.42
317.935	5.47
318.304	5.43
318.672	5.6
319.041	5.76
319.41	5.91
319.778	6.1
320.147	6.33
320.515	6.59
320.883	6.62
321.252	6.74
321.62	6.71
321.988	6.83
322.357	7.11
322.725	7.24
323.093	7.23
323.461	7.2
323.829	7.29
324.197	7.4
324.565	7.48
324.933	7.46
325.301	7.46
325.669	7.64
326.037	7.7
326.405	7.72
326.772	7.73
327.14	7.87
327.508	7.92
327.875	7.71
328.243	7.71
328.61	7.6
328.978	7.64
329.346	7.89
329.713	7.76
330.08	7.69
330.448	7.55
330.815	7.57
331.182	7.6
331.55	7.71
331.917	7.69
332.284	7.79
332.651	7.83
333.018	7.92
333.385	8.02
333.752	8.06
334.119	8.2
334.486	8.2
334.853	8.22
335.22	8.11
335.587	8.33
335.954	8.29
336.32	8.4
336.687	8.46
337.054	8.41
337.42	8.59
337.787	8.69
338.153	8.88
338.52	9.01
338.886	8.99
339.253	8.87
339.619	8.85
339.986	8.75
340.352	8.8
340.718	8.8
341.084	8.75
341.451	8.84
341.817	8.76
342.183	8.73
342.549	8.62
342.915	8.82
343.281	8.76
343.647	8.73
344.013	8.86
344.379	8.73
344.745	8.82
345.11	8.89
345.476	8.93
345.842	8.92
346.208	8.85
346.573	8.97
346.939	9.09
347.304	9.11
347.67	9.17
348.035	9.2
348.401	9.21
348.766	9.28
349.132	9.3
349.497	9.34
349.862	9.46
350.228	9.51
350.593	9.42
350.958	9.55
351.323	9.65
351.688	9.57
352.053	9.66
352.418	9.63
352.783	9.61
353.148	9.57
353.513	9.64
353.878	9.7
354.243	9.71
354.608	9.68
354.972	9.7
355.337	9.69
355.702	9.63
356.066	9.6
356.431	9.61
356.795	9.55
357.16	9.49
357.524	9.41
357.889	9.47
358.253	9.47
358.618	9.39
358.982	9.31
359.346	9.25
359.71	9.17
360.075	9.14
360.439	9.1
360.803	9.08
361.167	9.01
361.531	8.97
361.895	8.87
362.259	8.88
362.623	8.85
362.987	8.78
363.351	8.79
363.714	8.82
364.078	8.78
364.442	8.77
364.806	8.81
365.169	8.77
365.533	8.64
365.896	8.6
366.26	8.56
366.623	8.59
366.987	8.62
367.35	8.63
367.714	8.58
368.077	8.47
368.44	8.41
368.803	8.38
369.167	8.3
369.53	8.22
369.893	8.21
370.256	8.11
370.619	8.08
370.982	8.01
371.345	7.89
371.708	7.81
372.071	7.76
372.434	7.64
372.797	7.61
373.159	7.59
373.522	7.54
373.885	7.54
374.247	7.45
374.61	7.45
374.973	7.31
375.335	7.25
375.698	7.24
376.06	7.19
376.423	7.09
376.785	7.1
377.147	7.09
377.51	7.02
377.872	7.05
378.234	6.95
378.596	6.96
378.958	6.91
379.321	6.9
379.683	6.84
380.045	6.82
380.407	6.8
380.769	6.79
381.13	6.74
381.492	6.69
381.854	6.66
382.216	6.6
382.578	6.57
382.939	6.51
383.301	6.47
383.663	6.47
384.024	6.45
384.386	6.4
384.747	6.38
385.109	6.38
385.47	6.33
385.832	6.37
386.193	6.3
386.554	6.28
386.916	6.2
387.277	6.2
387.638	6.16
387.999	6.09
388.36	6.05
388.721	6.01
389.082	5.95
389.443	5.88
389.804	5.84
390.165	5.8
390.526	5.81
390.887	5.77
391.248	5.74
391.609	5.74
391.969	5.75
392.33	5.67
392.691	5.56
393.051	5.51
393.412	5.47
393.772	5.42
394.133	5.41
394.493	5.4
394.854	5.33
395.214	5.28
395.574	5.22
395.935	5.21
396.295	5.18
396.655	5.15
397.015	5.11
397.376	5.08
397.736	5.05
398.096	4.95
398.456	4.9
398.816	4.85
399.176	4.76
399.535	4.72
399.895	4.69
400.255	4.68
400.615	4.66
400.975	4.61
401.334	4.55
401.694	4.45
402.054	4.39
402.413	4.36
402.773	4.32
403.132	4.28
403.492	4.2
403.851	4.18
404.211	4.15
404.57	4.11
404.929	4.07
405.288	4.09
405.648	4.07
406.007	4.07
406.366	4.04
406.725	4.04
407.084	4
407.443	4.02
407.802	4.01
408.161	3.96
408.52	3.91
408.879	3.9
409.238	3.9
409.596	3.9
409.955	3.87
410.314	3.84
410.673	3.84
411.031	3.83
411.39	3.81
411.748	3.77
412.107	3.76
412.465	3.72
412.824	3.67
413.182	3.66
413.54	3.65
413.899	3.64
414.257	3.62
414.615	3.58
414.974	3.54
415.332	3.5
415.69	3.51
416.048	3.5
416.406	3.5
416.764	3.48
417.122	3.46
417.48	3.44
417.838	3.44
418.195	3.43
418.553	3.41
418.911	3.39
419.269	3.39
419.626	3.42
419.984	3.4
420.342	3.42
420.699	3.4
421.057	3.39
421.414	3.37
421.772	3.35
422.129	3.35
422.486	3.33
422.844	3.35
423.201	3.32
423.558	3.32
423.915	3.31
424.273	3.31
424.63	3.29
424.987	3.31
425.344	3.3
425.701	3.3
426.058	3.29
426.415	3.31
426.772	3.28
427.128	3.25
427.485	3.25
427.842	3.21
428.199	3.21
428.555	3.18
428.912	3.17
429.269	3.17
429.625	3.15
429.982	3.15
430.338	3.1
430.695	3.11
431.051	3.09
431.407	3.07
431.764	3.07
432.12	3.07
432.476	3.05
432.832	3.03
433.189	3.03
433.545	3.03
433.901	3
434.257	2.99
434.613	2.99
434.969	3
435.325	3.02
435.681	3.01
436.036	3.02
436.392	3.03
436.748	3.03
437.104	3.04
437.459	3.03
437.815	3.04
438.171	3.04
438.526	3.05
438.882	3.04
439.237	3.05
439.593	3.06
439.948	3.05
440.304	3.05
440.659	3.04
441.014	3.04
441.369	3.02
441.725	3.03
442.08	3.02
442.435	3.02
442.79	3
443.145	3
443.5	3
443.855	2.99
444.21	2.98
444.565	2.98
444.92	2.98
445.275	2.96
445.629	2.97
445.984	2.97
446.339	2.96
446.693	2.94
447.048	2.91
447.403	2.91
447.757	2.9
448.112	2.89
448.466	2.88
448.82	2.89
449.175	2.89
449.529	2.88
449.883	2.86
450.238	2.86
450.592	2.85
450.946	2.83
451.3	2.82
451.654	2.82
452.008	2.82
452.362	2.8
452.716	2.81
453.07	2.79
453.424	2.79
453.778	2.79
454.132	2.8
454.486	2.82
454.839	2.81
455.193	2.8
455.547	2.81
455.9	2.81
456.254	2.83
456.607	2.81
456.961	2.8
457.314	2.82
457.668	2.81
458.021	2.8
458.375	2.8
458.728	2.81
459.081	2.8
459.434	2.8
459.787	2.81
460.141	2.83
460.494	2.84
460.847	2.83
461.2	2.83
461.553	2.83
461.906	2.83
462.259	2.85
462.611	2.85
462.964	2.87
463.317	2.88
463.67	2.87
464.022	2.9
464.375	2.93
464.728	2.94
465.08	2.97
465.433	2.99
465.785	3.01
466.138	3.02
466.49	3.04
466.843	3.03
467.195	3.05
467.547	3.04
467.899	3.05
468.252	3.07
468.604	3.1
468.956	3.08
469.308	3.08
469.66	3.09
470.012	3.1
470.364	3.09
470.716	3.1
471.068	3.11
471.42	3.12
471.772	3.13
472.123	3.13
472.475	3.12
472.827	3.12
473.178	3.12
473.53	3.09
473.882	3.1
474.233	3.12
474.585	3.09
474.936	3.06
475.288	3.04
475.639	3.05
475.99	3.05
476.342	3.07
476.693	3.07
477.044	3.08
477.395	3.08
477.746	3.06
478.097	3.05
478.448	3.05
478.8	3.04
479.15	3
479.501	2.99
479.852	2.98
480.203	3.01
480.554	3.02
480.905	3.03
481.255	3.03
481.606	3.04
481.957	3.04
482.307	3.04
482.658	3.05
483.009	3.04
483.359	3.05
483.709	3.05
484.06	3.05
484.41	3.05
484.761	3.05
485.111	3.07
485.461	3.07
485.811	3.07
486.162	3.08
486.512	3.09
486.862	3.1
487.212	3.11
487.562	3.11
487.912	3.11
488.262	3.11
488.612	3.11
488.961	3.1
489.311	3.12
489.661	3.13
490.011	3.14
490.36	3.16
490.71	3.16
491.06	3.17
491.409	3.17
491.759	3.17
492.108	3.19
492.458	3.19
492.807	3.19
493.157	3.21
493.506	3.23
493.855	3.24
494.204	3.25
494.554	3.27
494.903	3.26
495.252	3.3
495.601	3.33
495.95	3.36
496.299	3.4
496.648	3.42
496.997	3.45
497.346	3.48
497.695	3.52
498.043	3.55
498.392	3.59
498.741	3.63
499.09	3.65
499.438	3.7
499.787	3.74
500.135	3.8
500.484	3.83
500.832	3.88
501.181	3.93
501.529	3.97
501.878	4.01
502.226	4.09
502.574	4.1
502.923	4.14
503.271	4.19
503.619	4.26
503.967	4.3
504.315	4.35
504.663	4.4
505.011	4.45
505.359	4.5
505.707	4.53
506.055	4.58
506.403	4.64
506.751	4.7
507.098	4.75
507.446	4.81
507.794	4.87
508.141	4.9
508.489	4.95
508.837	5.01
509.184	5.07
509.531	5.14
509.879	5.26
510.226	5.33
510.574	5.38
510.921	5.42
511.268	5.49
511.616	5.56
511.963	5.62
512.31	5.69
512.657	5.77
513.004	5.84
513.351	5.93
513.698	6.03
514.045	6.11
514.392	6.21
514.739	6.28
515.086	6.38
515.432	6.48
515.779	6.58
516.126	6.67
516.473	6.74
516.819	6.81
517.166	6.84
517.512	6.92
517.859	7.02
518.205	7.11
518.552	7.22
518.898	7.32
519.245	7.4
519.591	7.46
519.937	7.53
520.283	7.63
520.629	7.73
520.976	7.82
521.322	7.92
521.668	8.01
522.014	8.16
522.36	8.29
522.706	8.41
523.052	8.56
523.398	8.75
523.743	8.95
524.089	9.12
524.435	9.29
524.781	9.46
525.126	9.62
525.472	9.75
525.817	9.88
526.163	10
526.509	10.13
526.854	10.24
527.199	10.37
527.545	10.51
527.89	10.62
528.235	10.74
528.581	10.87
528.926	10.99
529.271	11.11
529.616	11.23
529.961	11.35
530.306	11.49
530.651	11.61
530.996	11.75
531.341	11.89
531.686	12.05
532.031	12.21
532.376	12.35
532.721	12.54
533.065	12.72
533.41	12.91
533.755	13.09
534.099	13.29
534.444	13.49
534.788	13.67
535.133	13.85
535.477	14.05
535.822	14.26
536.166	14.51
536.51	14.76
536.855	15.01
537.199	15.3
537.543	15.57
537.887	15.87
538.231	16.14
538.576	16.43
538.92	16.73
539.264	17
539.608	17.32
539.951	17.57
540.295	17.84
540.639	18.08
540.983	18.32
541.327	18.57
541.671	18.78
542.014	19.02
542.358	19.25
542.701	19.47
543.045	19.7
543.389	19.93
543.732	20.18
544.075	20.42
544.419	20.66
544.762	20.93
545.105	21.21
545.449	21.48
545.792	21.79
546.135	22.06
546.478	22.38
546.821	22.68
547.165	22.99
547.508	23.28
547.851	23.6
548.194	23.92
548.536	24.24
548.879	24.62
549.222	24.91
549.565	25.26
549.908	25.63
550.25	25.96
550.593	26.26
550.936	26.56
551.278	26.9
551.621	27.24
551.963	27.52
552.306	27.83
552.648	28.14
552.991	28.47
553.333	28.79
553.675	29.08
554.017	29.32
554.36	29.65
554.702	29.91
555.044	30.23
555.386	30.55
555.728	30.84
556.07	31.14
556.412	31.47
556.754	31.77
557.096	32.07
557.438	32.32
557.78	32.64
558.121	32.95
558.463	33.26
558.805	33.51
559.147	33.85
559.488	34.09
559.83	34.38
560.171	34.57
560.513	34.85
560.854	35.13
561.196	35.44
561.537	35.7
561.878	35.97
562.22	36.2
562.561	36.46
562.902	36.77
563.243	37.02
563.584	37.27
563.925	37.55
564.266	37.81
564.607	38.07
564.948	38.29
565.289	38.49
565.63	38.67
565.971	38.94
566.312	39.12
566.653	39.38
566.993	39.55
567.334	39.79
567.675	39.97
568.015	40.13
568.356	40.31
568.696	40.52
569.037	40.69
569.377	40.93
569.718	41.08
570.058	41.21
570.398	41.34
570.739	41.53
571.079	41.67
571.419	41.8
571.759	41.97
572.099	42.11
572.439	42.31
572.779	42.47
573.119	42.67
573.459	42.86
573.799	43
574.139	43.18
574.479	43.32
574.819	43.44
575.158	43.63
575.498	43.77
575.838	43.89
576.177	44.04
576.517	44.15
576.856	44.33
577.196	44.51
577.535	44.75
577.875	44.86
578.214	44.98
578.553	45.16
578.893	45.39
579.232	45.56
579.571	45.71
579.91	45.92
580.25	46
580.589	46.14
580.928	46.3
581.267	46.44
581.606	46.61
581.945	46.83
582.283	46.97
582.622	47.15
582.961	47.3
583.3	47.43
583.639	47.57
583.977	47.64
584.316	47.78
584.654	47.8
584.993	47.96
585.332	48.16
585.67	48.26
586.008	48.28
586.347	48.34
586.685	48.46
587.024	48.49
587.362	48.59
587.7	48.62
588.038	48.7
588.376	48.76
588.715	48.83
589.053	48.93
589.391	49.03
589.729	49.03
590.067	49.09
590.404	49.17
590.742	49.28
591.08	49.39
591.418	49.43
591.756	49.48
592.093	49.53
592.431	49.55
592.769	49.61
593.106	49.71
593.444	49.82
593.781	49.91
594.119	49.98
594.456	50.05
594.793	50.14
595.131	50.14
595.468	50.23
595.805	50.25
596.143	50.31
596.48	50.36
596.817	50.45
597.154	50.47
597.491	50.57
597.828	50.61
598.165	50.7
598.502	50.73
598.839	50.85
599.176	50.87
599.512	50.98
599.849	51.05
600.186	51.13
600.523	51.17
600.859	51.15
601.196	51.23
601.532	51.3
601.869	51.34
602.205	51.48
602.542	51.59
602.878	51.68
603.215	51.67
603.551	51.73
603.887	51.73
604.223	51.84
604.56	51.87
604.896	51.89
605.232	51.88
605.568	51.95
605.904	51.98
606.24	52.1
606.576	52.07
606.912	52.12
607.248	52.17
607.583	52.23
607.919	52.32
608.255	52.35
608.591	52.4
608.926	52.47
609.262	52.48
609.597	52.51
609.933	52.6
610.268	52.67
610.604	52.73
610.939	52.86
611.275	52.87
611.61	52.93
611.945	53.02
612.281	53.11
612.616	53.1
612.951	53.16
613.286	53.21
613.621	53.37
613.956	53.4
614.291	53.41
614.626	53.49
614.961	53.51
615.296	53.55
615.631	53.62
615.966	53.66
616.3	53.73
616.635	53.86
616.97	53.88
617.304	53.97
617.639	53.89
617.973	53.85
618.308	53.98
618.642	53.94
618.977	53.97
619.311	53.98
619.646	54.01
619.98	54.01
620.314	54
620.648	53.91
620.983	53.94
621.317	53.93
621.651	53.96
621.985	54.02
622.319	54.04
622.653	54.08
622.987	54.19
623.321	54.22
623.655	54.14
623.988	54.17
624.322	54.11
624.656	54.18
624.99	54.27
625.323	54.26
625.657	54.32
625.99	54.31
626.324	54.35
626.657	54.51
626.991	54.56
627.324	54.59
627.658	54.64
627.991	54.64
628.324	54.76
628.657	54.78
628.991	54.78
629.324	54.86
629.657	54.91
629.99	54.84
630.323	54.83
630.656	54.87
630.989	54.92
631.322	55.04
631.655	55.09
631.987	55.08
632.32	55.05
632.653	55.07
632.986	55.08
633.318	55.1
633.651	55.05
633.984	55.07
634.316	55.02
634.649	55.14
634.981	55.15
635.313	55.13
635.646	55.2
635.978	55.25
636.31	55.25
636.643	55.18
636.975	55.29
637.307	55.38
637.639	55.45
637.971	55.38
638.303	55.32
638.635	55.4
638.967	55.46
639.299	55.54
639.631	55.5
639.963	55.56
640.295	55.62
640.626	55.58
640.958	55.68
641.29	55.72
641.621	55.73
641.953	55.85
642.285	55.93
642.616	55.95
642.948	55.93
643.279	55.96
643.61	56.07
643.942	56
644.273	55.95
644.604	55.91
644.936	55.88
645.267	55.89
645.598	55.75
645.929	55.74
646.26	55.73
646.591	55.87
646.922	55.89
647.253	55.99
647.584	56.02
647.915	55.94
648.245	56.01
648.576	55.96
648.907	55.81
649.238	55.75
649.568	55.73
649.899	55.84
650.229	55.86
650.56	55.84
650.89	55.81
651.221	55.76
651.551	55.72
651.882	55.8
652.212	55.72
652.542	55.69
652.872	55.65
653.203	55.69
653.533	55.55
653.863	55.52
654.193	55.46
654.523	55.52
654.853	55.56
655.183	55.63
655.513	55.61
655.843	55.75
656.172	55.8
656.502	55.77
656.832	55.63
657.162	55.63
657.491	55.67
657.821	55.75
658.15	55.93
658.48	55.92
658.809	56.01
659.139	56.23
659.468	56.28
659.798	56.39
660.127	56.39
660.456	56.58
660.785	56.62
661.115	56.52
661.444	56.54
661.773	56.48
662.102	56.47
662.431	56.49
662.76	56.48
663.089	56.51
663.418	56.55
663.747	56.77
664.076	56.74
664.404	56.73
664.733	56.77
665.062	56.7
665.39	56.64
665.719	56.47
666.048	56.28
666.376	56.29
666.705	56.39
667.033	56.4
667.362	56.3
667.69	56.44
668.018	56.52
668.347	56.59
668.675	56.7
669.003	56.72
669.331	56.83
669.659	56.94
669.987	56.91
670.315	56.97
670.643	56.8
670.971	56.92
671.299	56.94
671.627	56.86
671.955	56.85
672.283	56.91
672.61	56.98
672.938	57.12
673.266	57.04
673.593	56.79
673.921	56.75
674.249	56.79
674.576	56.63
674.904	56.74
675.231	56.65
675.558	56.63
675.886	56.43
676.213	56.32
676.54	56.23
676.867	56.32
677.195	56.28
677.522	56.48
677.849	56.46
678.176	56.35
678.503	56.41
678.83	56.42
679.157	56.57
679.484	56.66
679.81	56.61
680.137	56.86
680.464	57.07
680.791	57.15
681.117	57.16
681.444	57.12
681.771	56.97
682.097	56.96
682.424	57.12
682.75	57.3
683.077	57.34
683.403	57.34
683.729	57.4
684.056	57.42
684.382	57.41
684.708	57.41
685.034	57.59
685.36	57.51
685.686	57.44
686.012	57.42
686.339	57.42
686.664	57.45
686.99	57.37
687.316	57.32
687.642	57.37
687.968	57.4
688.294	57.5
688.619	57.54
688.945	57.44
689.271	57.24
689.596	57.2
689.922	57.16
690.247	57.17
690.573	57.08
690.898	57.04
691.224	57.06
691.549	56.98
691.874	56.9
692.2	57.09
692.525	57.15
692.85	57.05
693.175	57.03
693.5	57.09
693.825	57.01
694.15	56.89
694.475	56.69
694.8	56.56
695.125	56.49
695.45	56.49
695.775	56.64
696.099	56.69
696.424	56.6
696.749	56.65
697.073	56.73
697.398	56.66
697.723	56.73
698.047	56.59
698.372	56.65
698.696	56.71
699.02	56.6
699.345	56.49
699.669	56.57
699.993	56.62
700.318	56.6
700.642	56.45
700.966	56.53
701.29	56.55
701.614	56.7
701.938	56.66
702.262	56.8
702.586	56.97
702.91	56.88
703.234	56.89
703.557	57.01
703.881	56.96
704.205	57.15
704.529	57.06
704.852	57.06
705.176	57.03
705.499	57.06
705.823	57.18
706.146	57.3
706.47	57.39
706.793	57.13
707.117	57.07
707.44	57.17
707.763	57.2
708.086	57.11
708.409	57.01
708.733	57.13
709.056	57.01
709.379	56.97
709.702	57.1
710.025	57.31
710.348	57.22
710.671	57.14
710.993	56.96
711.316	56.92
711.639	57.07
711.962	57.01
712.284	56.93
712.607	57.08
712.93	57.18
713.252	57.05
713.575	57.12
713.897	57.1
714.22	57.25
714.542	57.15
714.864	57.19
715.187	57.15
715.509	57.19
715.831	57.07
716.153	56.94
716.475	57.04
716.798	57.04
717.12	57.01
717.442	57.07
717.764	57.13
718.085	57.22
718.407	57.08
718.729	57.15
719.051	57.24
719.373	56.86
719.695	56.77
720.016	56.86
720.338	56.79
720.659	56.75
720.981	56.71
721.302	56.83
721.624	57.11
721.945	57.07
722.267	57.01
722.588	57
722.909	57.05
723.231	56.88
723.552	56.73
723.873	56.81
724.194	56.77
724.515	56.84
724.836	56.87
725.157	57
725.478	57.01
725.799	56.64
726.12	56.75
726.441	56.9
726.762	56.68
727.083	56.71
727.403	56.88
727.724	56.85
728.045	56.73
728.365	56.66
728.686	56.67
729.006	56.69
729.327	56.79
729.647	56.67
729.967	56.69
730.288	56.63
730.608	56.48
730.928	56.64
731.249	56.73
731.569	56.89
731.889	57.06
732.209	57.06
732.529	57.42
732.849	57.61
733.169	57.41
733.489	57.79
733.809	57.96
734.129	58.08
734.448	58.03
734.768	57.99
735.088	58.09
735.408	58.19
735.727	58.38
736.047	58.47
736.366	58.72
736.686	58.83
737.005	58.94
737.325	59.01
737.644	58.81
737.963	58.52
738.283	58.45
738.602	58.14
738.921	58.24
739.24	57.77
739.56	57.6
739.879	57.72
740.198	57.48
740.517	57.24
740.836	57.04
741.155	57.15
741.473	57.05
741.792	56.86
742.111	56.67
742.43	56.58
742.748	56.62
743.067	56.35
743.386	56.18
743.704	55.77
744.023	55.86
744.341	55.88
744.66	56.18
744.978	55.85
745.297	55.8
745.615	55.77
745.933	56.35
746.252	56.58
746.57	56.58
746.888	56.47
747.206	56.34
747.524	56.27
747.842	56.12
748.16	56.09
748.478	56.05
748.796	56.3
749.114	56.3
749.432	56.17
749.749	56.27
750.067	56.2
750.385	56.42
750.703	56.24
751.02	56.13
751.338	55.66
751.655	55.86
751.973	55.86
752.29	55.66
752.608	55.2
752.925	55.2
753.242	55.05
753.56	55.27
753.877	55.61
754.194	55.47
754.511	55.4
754.828	55.5
755.145	55.6
755.462	55.52
755.779	55.09
756.096	54.94
756.413	54.8
756.73	54.91
757.047	55.01
757.364	54.98
757.68	54.93
757.997	55.19
758.314	55.19
758.63	55.36
758.947	55.57
759.264	55.74
759.58	55.28
759.896	55.41
760.213	54.86
760.529	54.78
760.846	54.74
761.162	54.8
761.478	55.09
761.794	54.9
762.11	54.86
762.426	55.13
762.743	55.33
763.059	55.37
763.375	55.41
763.69	55.37
764.006	55.83
764.322	56.13
764.638	56.31
764.954	56.44
765.27	56.27
765.585	56.1
765.901	56.02
766.216	56.11
766.532	56.04
766.848	56.58
767.163	56.56
767.478	56.81
767.794	56.88
768.109	56.57
768.424	56.72
768.74	56.74
769.055	56.76
769.37	56.87
769.685	56.82
770	56.92
770.315	56.69
770.63	56.39
770.945	56.49
771.26	55.91
771.575	55.92
771.89	56.04
772.205	55.96
772.52	56.01
772.834	56.07
773.149	56.22
773.464	55.9
773.778	56.24
774.093	56.05
774.407	55.93
774.722	56.1
775.036	56.28
775.351	56.03
775.665	56.14
775.979	55.65
776.293	55.46
776.608	55.44
776.922	55.86
777.236	55.32
777.55	54.85
777.864	55.5
778.178	55.42
778.492	55.72
778.806	56.09
779.12	56.06
779.434	56.16
779.747	55.9
780.061	55.71
780.375	55.41
780.689	55.27
781.002	55.73
781.316	55.87
781.629	56.05
781.943	56.16
782.256	56.39
782.57	57.12
782.883	57.79
783.196	57.36
783.51	57.28
783.823	57.08
784.136	57.07
784.449	56.72
784.762	56.53
785.075	56.1
785.388	55.7
785.701	55.68
786.014	55.34
786.327	55.77
786.64	56.36
786.953	56.29
787.266	56.38
787.578	56.3
787.891	56.4
788.204	56.15
788.516	56.12
788.829	55.88
789.141	55.32
789.454	54.92
789.766	55.32
790.079	55.53
790.391	56.01
790.703	56.71
791.016	56.87
791.328	56.84
791.64	56.95
791.952	57.47
792.264	57.67
792.576	57.8
792.888	58.15
793.2	57.68
793.512	58.05
793.824	57.78
794.136	57.91
794.448	57.99
794.76	57.76
795.071	57.97
795.383	57.85
795.695	57.63
796.006	57.22
796.318	56.85
796.629	56.67
796.941	57.1
797.252	56.63
797.564	56.8
797.875	56.47
798.186	56.31
798.497	55.95
798.809	56.51
799.12	56.88
799.431	56.44
799.742	56.81
800.053	56.55
800.364	57.11
800.675	56.64
800.986	56.58
801.297	56.81
801.608	56.53
801.918	56.38
802.229	56.44
802.54	56.86
802.851	57.19
803.161	57.16
803.472	56.84
803.782	56.81
804.093	56.23
804.403	55.87
804.714	56.35
805.024	56.58
805.334	55.17
805.645	55.13
805.955	55.05
806.265	55.01
806.575	55.45
806.885	55.11
807.195	55.22
807.505	55.18
807.815	54.79
808.125	55.19
808.435	55
808.745	55.31
809.055	55.73
809.365	55.45
809.674	55.39
809.984	55.56
810.294	55.59
810.603	55.46
810.913	56.71
811.222	56.3
811.532	56.11
811.841	56.92
812.151	57.14
812.46	57.13
812.769	57.15
813.079	56.6
813.388	57.23
813.697	57.24
814.006	56.52
814.315	56.9
814.624	56.65
814.933	56.25
815.242	56.18
815.551	55.19
815.86	54.79
816.169	55.28
816.478	55.41
816.786	54.92
817.095	55.59
817.404	54.41
817.712	54.34
818.021	54.77
818.33	55.24
818.638	55.02
818.947	54.78
819.255	54.62
819.563	54.69
819.872	54.71
820.18	54.8
820.488	55.24
820.796	55.37
821.105	55.61
821.413	56.12
821.721	56.16
822.029	56.63
822.337	56.69
822.645	56.54
822.953	56.48
823.26	56.49
823.568	56.35
823.876	56.49
824.184	56.47
824.491	56.33
824.799	56.32
825.107	56.34
825.414	56.57
825.722	56.83
826.029	57.1
826.337	57.18
826.644	57.19
826.951	57.01
827.259	56.86
827.566	56.86
827.873	56.61
828.18	56.69
828.488	56.45
828.795	56.73
829.102	56.95
829.409	56.75
829.716	57.01
830.023	57.32
830.329	57.86
830.636	57.96
830.943	58.26
831.25	58.35
831.557	58.29
831.863	57.92
832.17	57.1
832.476	56.66
832.783	56.78
833.089	57.34
833.396	57.57
833.702	57.59
834.009	57.7
834.315	58
834.621	57.98
834.928	58.06
835.234	57.98
835.54	57.72
835.846	57.99
836.152	57.26
836.458	56.97
836.764	56.54
837.07	56.75
837.376	56.78
837.682	56.54
837.988	56.74
838.293	56.65
838.599	57.17
838.905	57.46
839.211	56.54
839.516	56.48
839.822	56.61
840.127	57.37
840.433	56.67
840.738	56.8
841.044	56.15
841.349	55.99
841.654	55.65
841.959	55.1
842.265	54.68
842.57	55.35
842.875	55.12
843.18	54.66
843.485	54.61
843.79	54.04
844.095	52.45
844.4	51.42
844.705	51.81
845.01	51.71
845.315	50.62
845.619	50.12
845.924	49.92
846.229	49.22
846.533	49.41
846.838	50.23
847.142	51.09
847.447	51.04
847.751	49.59
848.056	49.79
848.36	53.21
848.664	52.76
848.969	53.44
849.273	54.41
849.577	53.76
849.881	53.89
850.185	54.38
850.489	56.05
850.794	56.26
851.097	56.07
851.401	55.35
851.705	54.45
852.009	57.11
852.313	55
852.617	55.84
852.92	56.41
853.224	57.39
853.528	55.24
853.831	54.83
854.135	55.9
854.438	56.98
854.742	54.17
855.045	54.31
855.349	54.77
855.652	55.39
855.955	57.55
856.259	57.08
856.562	55.53
856.865	54.43
857.168	55.58
857.471	56.5
857.774	58.84
858.077	61.13
858.38	60.3
858.683	60.89
858.986	63.22
859.289	62.1
859.592	61.2
859.894	62.39
860.197	62.37
860.5	63.35
860.802	60.96
861.105	60.05
861.407	58.45
861.71	60.37
862.012	59.27
862.315	59.56
862.617	59.67
862.919	61.31
863.222	63.25
863.524	63.91
863.826	63.94
864.128	62.93
864.43	61.72
864.732	61.74
865.034	60.73
865.336	57.38
865.638	55.7
865.94	54.75
866.242	52.19
866.544	53.45
866.846	54.78
867.147	56.93
867.449	57.42
867.751	59.86
868.052	55.75
868.354	54.04
868.655	54.06
868.957	54.53
869.258	53.76
869.56	53.78
869.861	54.53
870.162	52.8
870.463	52.03
870.765	52.04
871.066	51.31
871.367	52.25
871.668	50.92
871.969	51.53
872.27	53.09
872.571	55.07
872.872	54.97
873.173	51.86
873.473	51.35
873.774	50.64
874.075	51.54
874.376	54.46
874.676	56.84
874.977	54.97
875.277	53.48
875.578	53.5
875.878	52.9
876.179	51.67
876.479	52.12
876.78	52.99
877.08	53.74
877.38	55.08
877.68	54.56
877.981	58.39
878.281	59.71
878.581	56.77
