Data from BA57757_Reflection_00039.txt Node
Date: Mon Nov 18 15:02:27 EST 2019
User: vgr7
Spectrometer: USB2G7710
Scans to average: 3
Trigger mode: 4
Integration Time (sec): 2.000000E-2
Electric dark correction enabled: true
Boxcar width: 10
XAxis mode: Wavelengths
Number of Pixels in Spectrum: 2048
>>>>>Begin Spectral Data<<<<<
177.721	-130.98
178.105	-60.28
178.488	196.23
178.871	-412.93
179.254	115.95
179.636	91.38
180.019	285.93
180.402	78.05
180.785	-918.69
181.168	502.65
181.55	1937.21
181.933	131.27
182.316	125.52
182.698	121.31
183.081	124.08
183.463	117.39
183.846	142.76
184.228	213.97
184.611	228.49
184.993	331.22
185.376	-412.78
185.758	-402.5
186.14	-230.67
186.522	-488.69
186.904	-414.91
187.287	1650.46
187.669	-239.19
188.051	-217.44
188.433	-72.74
188.815	-51.11
189.197	-27.43
189.579	-8.67
189.961	-2.49
190.342	5
190.724	8.12
191.106	-7.34
191.488	-39.76
191.869	-38.08
192.251	-42.12
192.633	-33.03
193.014	-8.15
193.396	-11.52
193.777	-15.18
194.159	-26.5
194.54	-23.15
194.922	-27.17
195.303	-33.17
195.684	-30.08
196.065	-22.21
196.447	-15.3
196.828	-23.63
197.209	-15.38
197.59	-35.2
197.971	-39.82
198.352	-33.11
198.733	-40.52
199.114	-39.54
199.495	-30.35
199.876	-24.51
200.257	-13.64
200.638	-13.93
201.018	-28.13
201.399	-19.81
201.78	3.2
202.16	16.75
202.541	14.6
202.922	28.84
203.302	47.34
203.683	30.04
204.063	34.33
204.444	16.28
204.824	25.87
205.204	4.87
205.585	6.48
205.965	16.35
206.345	2.28
206.725	-5.82
207.106	-8.15
207.486	-16.42
207.866	-23.92
208.246	-43.16
208.626	-46.05
209.006	-27.62
209.386	-53.34
209.766	-74.33
210.145	-66.26
210.525	-51.39
210.905	-60.94
211.285	-64.98
211.664	-50.21
212.044	-49.77
212.424	-46.05
212.803	-37.25
213.183	-29.12
213.562	-10.77
213.942	-2.16
214.321	9.9
214.701	18.07
215.08	19.44
215.459	25.76
215.838	33.72
216.218	38.27
216.597	37.15
216.976	47.29
217.355	74.83
217.734	77.1
218.113	79.61
218.492	80.56
218.871	83.81
219.25	78.69
219.629	73.14
220.008	56.25
220.387	39.49
220.766	31.69
221.144	14.84
221.523	5.88
221.902	-5.03
222.28	-11.07
222.659	-6.95
223.037	3.8
223.416	-6.56
223.794	-8.03
224.173	-1.18
224.551	-1.52
224.929	-9.83
225.308	-9.19
225.686	-7.65
226.064	-2.93
226.442	-4.01
226.821	2.12
227.199	3.03
227.577	1.17
227.955	2.86
228.333	1.1
228.711	1.64
229.089	7.69
229.467	6.61
229.845	6.24
230.222	6.34
230.6	5.12
230.978	3.52
231.356	4.55
231.733	3.28
232.111	2.68
232.488	1.08
232.866	2
233.243	3.03
233.621	3.02
233.998	2.16
234.376	3.38
234.753	2.24
235.13	2.58
235.508	2.2
235.885	1.97
236.262	1.99
236.639	2.2
237.016	1.41
237.393	3.2
237.77	2.69
238.147	2.43
238.524	3.63
238.901	4.35
239.278	4.87
239.655	5.94
240.032	5.69
240.409	6.1
240.785	5.92
241.162	4.8
241.539	4.98
241.915	5.23
242.292	4.52
242.668	4.97
243.045	4.79
243.421	4.91
243.798	4.89
244.174	4.91
244.551	4.96
244.927	4.75
245.303	4.76
245.679	4.83
246.056	4.94
246.432	4.45
246.808	4.42
247.184	4.15
247.56	3.85
247.936	3.58
248.312	3.51
248.688	3.68
249.064	3.86
249.44	4.05
249.815	4.06
250.191	4.23
250.567	4.07
250.943	3.81
251.318	3.87
251.694	3.93
252.069	3.84
252.445	3.9
252.82	4.01
253.196	3.98
253.571	4.2
253.947	4.48
254.322	5.07
254.697	4.8
255.073	4.76
255.448	4.74
255.823	5.21
256.198	5.41
256.573	5.14
256.948	5.12
257.323	5.04
257.698	4.93
258.073	4.79
258.448	4.78
258.823	4.86
259.198	4.7
259.573	4.57
259.948	4.55
260.322	4.35
260.697	4.54
261.072	4.4
261.446	4.4
261.821	4.24
262.195	4.21
262.57	4.27
262.944	4.39
263.319	4.43
263.693	4.18
264.067	4.06
264.442	4.2
264.816	4.15
265.19	3.94
265.564	3.77
265.938	3.79
266.313	3.75
266.687	3.83
267.061	3.94
267.435	4.01
267.809	3.95
268.183	4.05
268.556	3.8
268.93	3.78
269.304	3.63
269.678	3.65
270.051	3.42
270.425	3.2
270.799	3.23
271.172	3.41
271.546	3.63
271.919	3.55
272.293	3.53
272.666	3.71
273.04	3.82
273.413	4.03
273.787	4.15
274.16	4.12
274.533	4.09
274.906	3.85
275.279	3.89
275.653	3.98
276.026	3.92
276.399	4.02
276.772	4.05
277.145	4.07
277.518	3.9
277.891	4.04
278.263	4.29
278.636	4.2
279.009	3.87
279.382	3.81
279.755	3.78
280.127	3.88
280.5	3.75
280.872	3.73
281.245	3.62
281.617	3.73
281.99	3.87
282.362	4
282.735	4.15
283.107	4.16
283.479	4.17
283.852	4.2
284.224	4.11
284.596	4.17
284.968	4.24
285.34	4.45
285.713	4.51
286.085	4.46
286.457	4.52
286.829	4.63
287.201	4.67
287.572	4.71
287.944	4.64
288.316	4.71
288.688	4.63
289.06	4.59
289.431	4.48
289.803	4.48
290.175	4.43
290.546	4.49
290.918	4.48
291.289	4.42
291.661	4.46
292.032	4.6
292.403	4.67
292.775	4.69
293.146	4.63
293.517	4.52
293.889	4.58
294.26	4.67
294.631	4.8
295.002	4.72
295.373	4.74
295.744	4.86
296.115	4.77
296.486	4.73
296.857	4.78
297.228	4.85
297.599	4.73
297.97	4.8
298.34	4.81
298.711	4.76
299.082	4.79
299.452	4.91
299.823	4.94
300.194	4.9
300.564	4.9
300.935	4.9
301.305	4.92
301.676	4.97
302.046	4.91
302.416	4.91
302.787	4.86
303.157	4.88
303.527	4.77
303.897	4.95
304.267	5.1
304.637	5.15
305.008	5.16
305.378	5.32
305.748	5.3
306.117	5.31
306.487	5.36
306.857	5.5
307.227	5.4
307.597	5.29
307.967	5.41
308.336	5.37
308.706	5.45
309.076	5.52
309.445	5.56
309.815	5.51
310.184	5.56
310.554	5.76
310.923	5.85
311.293	5.86
311.662	5.77
312.031	5.9
312.401	5.95
312.77	6.11
313.139	6.22
313.508	6.32
313.877	6.45
314.246	6.64
314.616	6.71
314.985	6.86
315.353	6.99
315.722	7.15
316.091	7.38
316.46	7.27
316.829	7.49
317.198	7.65
317.567	7.73
317.935	7.79
318.304	7.82
318.672	7.76
319.041	7.87
319.41	7.98
319.778	8.03
320.147	8.01
320.515	7.92
320.883	7.93
321.252	8.05
321.62	8.09
321.988	8.15
322.357	8.29
322.725	8.29
323.093	8.49
323.461	8.53
323.829	8.5
324.197	8.79
324.565	8.83
324.933	8.8
325.301	8.93
325.669	9.01
326.037	8.97
326.405	9.05
326.772	9.24
327.14	9.36
327.508	9.37
327.875	9.46
328.243	9.48
328.61	9.4
328.978	9.4
329.346	9.53
329.713	9.44
330.08	9.45
330.448	9.51
330.815	9.36
331.182	9.38
331.55	9.45
331.917	9.44
332.284	9.55
332.651	9.52
333.018	9.57
333.385	9.6
333.752	9.81
334.119	9.93
334.486	9.87
334.853	9.91
335.22	9.98
335.587	10.18
335.954	10.19
336.32	10.23
336.687	10.42
337.054	10.33
337.42	10.39
337.787	10.36
338.153	10.37
338.52	10.51
338.886	10.42
339.253	10.33
339.619	10.34
339.986	10.43
340.352	10.56
340.718	10.55
341.084	10.51
341.451	10.47
341.817	10.65
342.183	10.69
342.549	10.67
342.915	10.62
343.281	10.55
343.647	10.61
344.013	10.64
344.379	10.41
344.745	10.57
345.11	10.66
345.476	10.7
345.842	10.75
346.208	10.76
346.573	10.77
346.939	11.03
347.304	11.02
347.67	10.94
348.035	10.93
348.401	11.03
348.766	11.03
349.132	11
349.497	10.84
349.862	10.83
350.228	10.83
350.593	10.85
350.958	10.89
351.323	10.96
351.688	10.89
352.053	11
352.418	10.86
352.783	10.87
353.148	10.8
353.513	10.78
353.878	10.81
354.243	10.84
354.608	10.71
354.972	10.71
355.337	10.69
355.702	10.69
356.066	10.63
356.431	10.62
356.795	10.67
357.16	10.65
357.524	10.61
357.889	10.54
358.253	10.58
358.618	10.48
358.982	10.4
359.346	10.41
359.71	10.32
360.075	10.3
360.439	10.24
360.803	10.26
361.167	10.22
361.531	10.17
361.895	10.13
362.259	10.1
362.623	10.06
362.987	9.98
363.351	9.92
363.714	9.89
364.078	9.89
364.442	9.8
364.806	9.76
365.169	9.67
365.533	9.66
365.896	9.56
366.26	9.58
366.623	9.52
366.987	9.52
367.35	9.51
367.714	9.45
368.077	9.39
368.44	9.25
368.803	9.16
369.167	9.13
369.53	9.06
369.893	9.02
370.256	8.96
370.619	8.85
370.982	8.75
371.345	8.68
371.708	8.59
372.071	8.51
372.434	8.41
372.797	8.43
373.159	8.35
373.522	8.3
373.885	8.27
374.247	8.2
374.61	8.15
374.973	8.03
375.335	8.01
375.698	7.97
376.06	7.95
376.423	7.92
376.785	7.81
377.147	7.79
377.51	7.64
377.872	7.61
378.234	7.66
378.596	7.65
378.958	7.59
379.321	7.58
379.683	7.55
380.045	7.51
380.407	7.37
380.769	7.31
381.13	7.26
381.492	7.17
381.854	7.13
382.216	7.02
382.578	7.04
382.939	6.95
383.301	6.9
383.663	6.87
384.024	6.84
384.386	6.82
384.747	6.72
385.109	6.73
385.47	6.68
385.832	6.58
386.193	6.54
386.554	6.49
386.916	6.4
387.277	6.33
387.638	6.34
387.999	6.32
388.36	6.28
388.721	6.24
389.082	6.23
389.443	6.2
389.804	6.17
390.165	6.12
390.526	6.08
390.887	6.03
391.248	5.96
391.609	5.89
391.969	5.82
392.33	5.79
392.691	5.76
393.051	5.69
393.412	5.68
393.772	5.63
394.133	5.62
394.493	5.62
394.854	5.61
395.214	5.52
395.574	5.49
395.935	5.45
396.295	5.44
396.655	5.33
397.015	5.28
397.376	5.26
397.736	5.21
398.096	5.17
398.456	5.11
398.816	5.08
399.176	5.06
399.535	5.02
399.895	4.97
400.255	4.94
400.615	4.91
400.975	4.88
401.334	4.83
401.694	4.76
402.054	4.72
402.413	4.7
402.773	4.67
403.132	4.64
403.492	4.61
403.851	4.55
404.211	4.57
404.57	4.53
404.929	4.5
405.288	4.45
405.648	4.44
406.007	4.43
406.366	4.4
406.725	4.38
407.084	4.39
407.443	4.37
407.802	4.35
408.161	4.31
408.52	4.27
408.879	4.23
409.238	4.23
409.596	4.21
409.955	4.17
410.314	4.16
410.673	4.16
411.031	4.17
411.39	4.13
411.748	4.12
412.107	4.13
412.465	4.1
412.824	4.1
413.182	4.09
413.54	4.09
413.899	4.09
414.257	4.07
414.615	4.06
414.974	4.06
415.332	4.03
415.69	4.01
416.048	3.98
416.406	3.97
416.764	3.95
417.122	3.94
417.48	3.89
417.838	3.89
418.195	3.86
418.553	3.82
418.911	3.83
419.269	3.82
419.626	3.79
419.984	3.77
420.342	3.76
420.699	3.75
421.057	3.73
421.414	3.71
421.772	3.68
422.129	3.67
422.486	3.64
422.844	3.62
423.201	3.61
423.558	3.6
423.915	3.6
424.273	3.59
424.63	3.56
424.987	3.56
425.344	3.55
425.701	3.53
426.058	3.53
426.415	3.51
426.772	3.49
427.128	3.47
427.485	3.47
427.842	3.45
428.199	3.44
428.555	3.43
428.912	3.43
429.269	3.45
429.625	3.42
429.982	3.42
430.338	3.44
430.695	3.44
431.051	3.42
431.407	3.4
431.764	3.39
432.12	3.4
432.476	3.41
432.832	3.38
433.189	3.38
433.545	3.37
433.901	3.37
434.257	3.37
434.613	3.39
434.969	3.38
435.325	3.39
435.681	3.37
436.036	3.37
436.392	3.37
436.748	3.35
437.104	3.36
437.459	3.35
437.815	3.33
438.171	3.34
438.526	3.35
438.882	3.37
439.237	3.37
439.593	3.38
439.948	3.36
440.304	3.37
440.659	3.38
441.014	3.39
441.369	3.37
441.725	3.35
442.08	3.34
442.435	3.33
442.79	3.33
443.145	3.32
443.5	3.3
443.855	3.3
444.21	3.3
444.565	3.3
444.92	3.31
445.275	3.29
445.629	3.3
445.984	3.28
446.339	3.26
446.693	3.24
447.048	3.21
447.403	3.21
447.757	3.21
448.112	3.2
448.466	3.18
448.82	3.18
449.175	3.18
449.529	3.18
449.883	3.17
450.238	3.15
450.592	3.16
450.946	3.15
451.3	3.13
451.654	3.13
452.008	3.13
452.362	3.11
452.716	3.13
453.07	3.13
453.424	3.14
453.778	3.15
454.132	3.16
454.486	3.16
454.839	3.16
455.193	3.13
455.547	3.12
455.9	3.15
456.254	3.13
456.607	3.14
456.961	3.15
457.314	3.15
457.668	3.16
458.021	3.16
458.375	3.16
458.728	3.17
459.081	3.16
459.434	3.15
459.787	3.16
460.141	3.14
460.494	3.13
460.847	3.12
461.2	3.12
461.553	3.13
461.906	3.16
462.259	3.18
462.611	3.21
462.964	3.23
463.317	3.22
463.67	3.23
464.022	3.23
464.375	3.23
464.728	3.24
465.08	3.25
465.433	3.26
465.785	3.28
466.138	3.28
466.49	3.3
466.843	3.31
467.195	3.32
467.547	3.35
467.899	3.36
468.252	3.37
468.604	3.38
468.956	3.38
469.308	3.37
469.66	3.36
470.012	3.35
470.364	3.36
470.716	3.36
471.068	3.36
471.42	3.37
471.772	3.38
472.123	3.4
472.475	3.4
472.827	3.41
473.178	3.42
473.53	3.41
473.882	3.43
474.233	3.43
474.585	3.42
474.936	3.4
475.288	3.4
475.639	3.41
475.99	3.42
476.342	3.41
476.693	3.4
477.044	3.41
477.395	3.41
477.746	3.42
478.097	3.42
478.448	3.41
478.8	3.41
479.15	3.38
479.501	3.38
479.852	3.39
480.203	3.38
480.554	3.38
480.905	3.38
481.255	3.38
481.606	3.37
481.957	3.37
482.307	3.37
482.658	3.36
483.009	3.36
483.359	3.35
483.709	3.36
484.06	3.36
484.41	3.36
484.761	3.36
485.111	3.34
485.461	3.35
485.811	3.36
486.162	3.36
486.512	3.36
486.862	3.36
487.212	3.36
487.562	3.37
487.912	3.37
488.262	3.37
488.612	3.36
488.961	3.37
489.311	3.39
489.661	3.4
490.011	3.41
490.36	3.4
490.71	3.41
491.06	3.41
491.409	3.42
491.759	3.43
492.108	3.43
492.458	3.45
492.807	3.46
493.157	3.47
493.506	3.49
493.855	3.49
494.204	3.49
494.554	3.5
494.903	3.5
495.252	3.52
495.601	3.53
495.95	3.54
496.299	3.55
496.648	3.54
496.997	3.58
497.346	3.62
497.695	3.66
498.043	3.68
498.392	3.7
498.741	3.74
499.09	3.75
499.438	3.81
499.787	3.8
500.135	3.84
500.484	3.86
500.832	3.89
501.181	3.94
501.529	3.98
501.878	4.02
502.226	4.09
502.574	4.13
502.923	4.18
503.271	4.23
503.619	4.29
503.967	4.34
504.315	4.37
504.663	4.39
505.011	4.43
505.359	4.48
505.707	4.52
506.055	4.55
506.403	4.63
506.751	4.65
507.098	4.74
507.446	4.79
507.794	4.84
508.141	4.89
508.489	4.96
508.837	5.01
509.184	5.08
509.531	5.13
509.879	5.18
510.226	5.21
510.574	5.26
510.921	5.32
511.268	5.39
511.616	5.45
511.963	5.53
512.31	5.62
512.657	5.7
513.004	5.78
513.351	5.87
513.698	5.93
514.045	6.04
514.392	6.13
514.739	6.23
515.086	6.35
515.432	6.42
515.779	6.5
516.126	6.59
516.473	6.67
516.819	6.74
517.166	6.83
517.512	6.94
517.859	7.03
518.205	7.13
518.552	7.21
518.898	7.31
519.245	7.39
519.591	7.46
519.937	7.56
520.283	7.65
520.629	7.75
520.976	7.86
521.322	7.96
521.668	8.09
522.014	8.22
522.36	8.34
522.706	8.5
523.052	8.65
523.398	8.82
523.743	8.99
524.089	9.19
524.435	9.37
524.781	9.55
525.126	9.71
525.472	9.85
525.817	9.99
526.163	10.11
526.509	10.22
526.854	10.36
527.199	10.49
527.545	10.61
527.89	10.73
528.235	10.87
528.581	11
528.926	11.12
529.271	11.26
529.616	11.38
529.961	11.51
530.306	11.66
530.651	11.82
530.996	11.99
531.341	12.15
531.686	12.31
532.031	12.48
532.376	12.67
532.721	12.88
533.065	13.09
533.41	13.3
533.755	13.54
534.099	13.75
534.444	13.97
534.788	14.2
535.133	14.44
535.477	14.66
535.822	14.91
536.166	15.2
536.51	15.5
536.855	15.83
537.199	16.17
537.543	16.51
537.887	16.84
538.231	17.15
538.576	17.51
538.92	17.86
539.264	18.18
539.608	18.49
539.951	18.79
540.295	19.06
540.639	19.36
540.983	19.63
541.327	19.91
541.671	20.19
542.014	20.49
542.358	20.77
542.701	21.03
543.045	21.31
543.389	21.56
543.732	21.82
544.075	22.09
544.419	22.39
544.762	22.67
545.105	23.01
545.449	23.35
545.792	23.68
546.135	24.06
546.478	24.44
546.821	24.81
547.165	25.22
547.508	25.65
547.851	26.05
548.194	26.46
548.536	26.91
548.879	27.33
549.222	27.72
549.565	28.11
549.908	28.55
550.25	29.01
550.593	29.46
550.936	29.92
551.278	30.4
551.621	30.82
551.963	31.24
552.306	31.68
552.648	32.18
552.991	32.6
553.333	32.96
553.675	33.38
554.017	33.83
554.36	34.18
554.702	34.56
555.044	34.94
555.386	35.35
555.728	35.7
556.07	36.11
556.412	36.48
556.754	36.9
557.096	37.34
557.438	37.73
557.78	38.08
558.121	38.48
558.463	38.85
558.805	39.29
559.147	39.7
559.488	39.97
559.83	40.27
560.171	40.65
560.513	41.06
560.854	41.36
561.196	41.77
561.537	42.12
561.878	42.47
562.22	42.85
562.561	43.14
562.902	43.51
563.243	43.84
563.584	44.2
563.925	44.52
564.266	44.83
564.607	45.1
564.948	45.45
565.289	45.76
565.63	46.06
565.971	46.27
566.312	46.58
566.653	46.9
566.993	47.17
567.334	47.46
567.675	47.7
568.015	48.01
568.356	48.23
568.696	48.46
569.037	48.75
569.377	49.03
569.718	49.3
570.058	49.51
570.398	49.72
570.739	49.97
571.079	50.2
571.419	50.37
571.759	50.6
572.099	50.82
572.439	51.02
572.779	51.2
573.119	51.48
573.459	51.62
573.799	51.83
574.139	52.04
574.479	52.27
574.819	52.48
575.158	52.71
575.498	52.9
575.838	53.15
576.177	53.36
576.517	53.48
576.856	53.71
577.196	53.96
577.535	54.18
577.875	54.46
578.214	54.6
578.553	54.88
578.893	55.06
579.232	55.21
579.571	55.43
579.91	55.69
580.25	55.86
580.589	56.13
580.928	56.43
581.267	56.64
581.606	56.74
581.945	56.97
582.283	57.08
582.622	57.29
582.961	57.46
583.3	57.59
583.639	57.86
583.977	58.06
584.316	58.18
584.654	58.24
584.993	58.29
585.332	58.58
585.67	58.71
586.008	58.85
586.347	58.99
586.685	59.04
587.024	59.14
587.362	59.19
587.7	59.35
588.038	59.42
588.376	59.55
588.715	59.61
589.053	59.75
589.391	59.88
589.729	59.96
590.067	60.06
590.404	60.18
590.742	60.31
591.08	60.33
591.418	60.46
591.756	60.63
592.093	60.82
592.431	60.87
592.769	60.92
593.106	61.14
593.444	61.3
593.781	61.44
594.119	61.54
594.456	61.7
594.793	61.72
595.131	61.76
595.468	61.85
595.805	62.03
596.143	61.99
596.48	62.03
596.817	62.12
597.154	62.16
597.491	62.24
597.828	62.29
598.165	62.39
598.502	62.44
598.839	62.51
599.176	62.55
599.512	62.63
599.849	62.75
600.186	62.75
600.523	62.81
600.859	62.87
601.196	62.98
601.532	63.02
601.869	63.07
602.205	63.18
602.542	63.2
602.878	63.27
603.215	63.35
603.551	63.53
603.887	63.53
604.223	63.67
604.56	63.71
604.896	63.7
605.232	63.81
605.568	63.86
605.904	63.89
606.24	64
606.576	64.06
606.912	64.15
607.248	64.22
607.583	64.28
607.919	64.37
608.255	64.4
608.591	64.51
608.926	64.61
609.262	64.64
609.597	64.76
609.933	64.7
610.268	64.79
610.604	64.81
610.939	64.97
611.275	64.96
611.61	64.98
611.945	65.13
612.281	65.15
612.616	65.25
612.951	65.36
613.286	65.36
613.621	65.42
613.956	65.51
614.291	65.55
614.626	65.66
614.961	65.65
615.296	65.72
615.631	65.79
615.966	65.85
616.3	65.96
616.635	65.99
616.97	66.21
617.304	66.17
617.639	66.22
617.973	66.16
618.308	66.24
618.642	66.34
618.977	66.4
619.311	66.47
619.646	66.53
619.98	66.66
620.314	66.67
620.648	66.68
620.983	66.67
621.317	66.79
621.651	66.85
621.985	66.91
622.319	66.87
622.653	66.85
622.987	66.92
623.321	66.91
623.655	66.97
623.988	66.92
624.322	66.92
624.656	66.98
624.99	67.03
625.323	66.95
625.657	66.98
625.99	66.93
626.324	66.92
626.657	66.96
626.991	67.01
627.324	67.13
627.658	67.23
627.991	67.33
628.324	67.31
628.657	67.27
628.991	67.3
629.324	67.45
629.657	67.49
629.99	67.53
630.323	67.6
630.656	67.63
630.989	67.71
631.322	67.82
631.655	67.78
631.987	67.86
632.32	68.03
632.653	68.12
632.986	68.2
633.318	68.24
633.651	68.23
633.984	68.06
634.316	68.04
634.649	67.96
634.981	67.92
635.313	67.88
635.646	67.92
635.978	67.99
636.31	67.94
636.643	68.03
636.975	68.02
637.307	68.09
637.639	68.14
637.971	68.1
638.303	68.21
638.635	68.28
638.967	68.11
639.299	68.16
639.631	68.06
639.963	68.03
640.295	68.06
640.626	68.16
640.958	68.23
641.29	68.2
641.621	68.35
641.953	68.39
642.285	68.47
642.616	68.45
642.948	68.51
643.279	68.56
643.61	68.58
643.942	68.58
644.273	68.56
644.604	68.41
644.936	68.45
645.267	68.39
645.598	68.43
645.929	68.65
646.26	68.48
646.591	68.52
646.922	68.6
647.253	68.62
647.584	68.47
647.915	68.38
648.245	68.41
648.576	68.39
648.907	68.39
649.238	68.33
649.568	68.39
649.899	68.39
650.229	68.38
650.56	68.34
650.89	68.43
651.221	68.42
651.551	68.61
651.882	68.59
652.212	68.63
652.542	68.59
652.872	68.51
653.203	68.68
653.533	68.68
653.863	68.61
654.193	68.55
654.523	68.61
654.853	68.83
655.183	68.9
655.513	68.86
655.843	68.95
656.172	69.04
656.502	69.07
656.832	69.07
657.162	69.11
657.491	69.1
657.821	69.05
658.15	68.98
658.48	68.82
658.809	68.83
659.139	68.92
659.468	68.86
659.798	68.97
660.127	69
660.456	69.08
660.785	69.07
661.115	69.18
661.444	69.32
661.773	69.26
662.102	69.31
662.431	69.37
662.76	69.26
663.089	69.16
663.418	69.12
663.747	69.08
664.076	69.02
664.404	69.02
664.733	69.13
665.062	69.26
665.39	69.33
665.719	69.31
666.048	69.3
666.376	69.41
666.705	69.23
667.033	69.12
667.362	69.13
667.69	69.29
668.018	69.19
668.347	69.18
668.675	69.29
669.003	69.22
669.331	69.26
669.659	69.25
669.987	69.27
670.315	69.36
670.643	69.34
670.971	69.45
671.299	69.45
671.627	69.51
671.955	69.41
672.283	69.61
672.61	69.63
672.938	69.46
673.266	69.58
673.593	69.78
673.921	69.84
674.249	69.65
674.576	69.54
674.904	69.62
675.231	69.44
675.558	69.46
675.886	69.35
676.213	69.29
676.54	69.36
676.867	69.31
677.195	69.26
677.522	69.32
677.849	69.33
678.176	69.38
678.503	69.28
678.83	69.28
679.157	69.16
679.484	69.2
679.81	69.32
680.137	69.2
680.464	69.26
680.791	69.23
681.117	69.44
681.444	69.54
681.771	69.54
682.097	69.64
682.424	69.74
682.75	69.8
683.077	70.01
683.403	70.13
683.729	70.26
684.056	70.39
684.382	70.47
684.708	70.52
685.034	70.48
685.36	70.33
685.686	70.49
686.012	70.7
686.339	70.66
686.664	70.71
686.99	70.89
687.316	70.78
687.642	70.86
687.968	70.84
688.294	70.73
688.619	70.85
688.945	70.64
689.271	70.45
689.596	70.47
689.922	70.23
690.247	70.1
690.573	70.16
690.898	70.08
691.224	69.97
691.549	69.9
691.874	70.09
692.2	70.24
692.525	70.12
692.85	69.9
693.175	69.83
693.5	69.89
693.825	69.7
694.15	69.67
694.475	69.58
694.8	69.74
695.125	69.68
695.45	69.6
695.775	69.72
696.099	69.85
696.424	69.87
696.749	69.89
697.073	70.04
697.398	69.86
697.723	69.85
698.047	69.83
698.372	69.9
698.696	69.71
699.02	69.7
699.345	69.6
699.669	69.68
699.993	69.8
700.318	69.64
700.642	69.73
700.966	69.66
701.29	69.75
701.614	69.49
701.938	69.57
702.262	69.68
702.586	69.84
702.91	69.79
703.234	69.88
703.557	69.87
703.881	69.6
704.205	69.8
704.529	69.93
704.852	69.93
705.176	69.94
705.499	69.95
705.823	70.1
706.146	70.28
706.47	70.35
706.793	70.19
707.117	70.36
707.44	70.23
707.763	70.25
708.086	70.25
708.409	70.39
708.733	70.61
709.056	70.46
709.379	70.49
709.702	70.42
710.025	70.34
710.348	70.41
710.671	70.48
710.993	70.43
711.316	70.35
711.639	70.48
711.962	70.42
712.284	70.55
712.607	70.54
712.93	70.47
713.252	70.47
713.575	70.64
713.897	70.46
714.22	70.55
714.542	70.6
714.864	70.5
715.187	70.47
715.509	70.19
715.831	69.96
716.153	69.69
716.475	69.88
716.798	69.85
717.12	69.62
717.442	69.6
717.764	69.64
718.085	69.71
718.407	69.57
718.729	69.56
719.051	69.33
719.373	69.13
719.695	69.11
720.016	68.84
720.338	68.65
720.659	68.67
720.981	68.5
721.302	68.51
721.624	68.35
721.945	68.27
722.267	68.32
722.588	68.7
722.909	68.58
723.231	68.21
723.552	68.25
723.873	68.57
724.194	68.61
724.515	68.56
724.836	68.36
725.157	68.62
725.478	68.54
725.799	68.81
726.12	68.95
726.441	69.07
726.762	69.31
727.083	69.4
727.403	69.64
727.724	69.52
728.045	69.57
728.365	69.74
728.686	69.69
729.006	69.81
729.327	69.68
729.647	69.98
729.967	70.06
730.288	69.9
730.608	69.8
730.928	69.62
731.249	69.6
731.569	69.67
731.889	69.51
732.209	69.57
732.529	69.55
732.849	69.54
733.169	69.62
733.489	69.57
733.809	69.64
734.129	69.43
734.448	69.52
734.768	69.56
735.088	69.64
735.408	69.82
735.727	69.85
736.047	69.68
736.366	69.79
736.686	69.73
737.005	69.91
737.325	70.14
737.644	70.23
737.963	70.38
738.283	70.32
738.602	70.49
738.921	70.51
739.24	70.68
739.56	70.59
739.879	70.46
740.198	70.54
740.517	70.62
740.836	70.62
741.155	70.94
741.473	70.65
741.792	70.41
742.111	70.11
742.43	69.85
742.748	69.84
743.067	69.52
743.386	69.71
743.704	69.79
744.023	69.58
744.341	69.69
744.66	69.65
744.978	69.64
745.297	69.94
745.615	70.07
745.933	70.06
746.252	70.11
746.57	70.12
746.888	69.7
747.206	69.69
747.524	69.8
747.842	69.86
748.16	70.16
748.478	70.17
748.796	70.77
749.114	71.12
749.432	71.11
749.749	71.22
750.067	71.04
750.385	70.79
750.703	70.86
751.02	70.5
751.338	70.6
751.655	70.44
751.973	69.92
752.29	69.79
752.608	69.69
752.925	69.67
753.242	69.55
753.56	69.88
753.877	69.66
754.194	69.7
754.511	69.38
754.828	68.98
755.145	69.4
755.462	69.22
755.779	69.28
756.096	69.54
756.413	69.68
756.73	69.87
757.047	69.86
757.364	69.82
757.68	70.32
757.997	70.34
758.314	70.29
758.63	70.47
758.947	70.59
759.264	70.58
759.58	70.55
759.896	70.83
760.213	71
760.529	71.04
760.846	71.16
761.162	71.25
761.478	71.61
761.794	71.85
762.11	71.6
762.426	71.49
762.743	71.51
763.059	71.29
763.375	71.41
763.69	71.59
764.006	71.67
764.322	71.61
764.638	71.4
764.954	71.85
765.27	71.88
765.585	71.66
765.901	71.5
766.216	71.33
766.532	71.21
766.848	71.18
767.163	71.19
767.478	70.88
767.794	70.9
768.109	70.97
768.424	70.55
768.74	70.44
769.055	70.26
769.37	70.55
769.685	70.56
770	70.49
770.315	70.62
770.63	70.48
770.945	70.22
771.26	70.37
771.575	70.19
771.89	69.94
772.205	70.09
772.52	70.31
772.834	70.41
773.149	70.74
773.464	70.26
773.778	70.37
774.093	70.65
774.407	70.75
774.722	70.64
775.036	70.85
775.351	71.17
775.665	71.55
775.979	71.23
776.293	71.48
776.608	71.45
776.922	71.37
777.236	71.5
777.55	71.52
777.864	71.8
778.178	71.94
778.492	72.17
778.806	72.21
779.12	72.37
779.434	73.07
779.747	73.13
780.061	73.58
780.375	73.33
780.689	73.15
781.002	72.52
781.316	72.57
781.629	72.74
781.943	72.27
782.256	72.02
782.57	71.65
782.883	71.42
783.196	71.62
783.51	71.32
783.823	71.27
784.136	72.12
784.449	71.89
784.762	71.56
785.075	71.37
785.388	71.19
785.701	71
786.014	71.08
786.327	70.71
786.64	70.37
786.953	70.64
787.266	70.64
787.578	70.84
787.891	70.7
788.204	69.92
788.516	70
788.829	69.93
789.141	70.49
789.454	70.93
789.766	70.3
790.079	70.22
790.391	70.15
790.703	69.46
791.016	69.66
791.328	69.38
791.64	69.34
791.952	69.3
792.264	68.77
792.576	68.32
792.888	68.13
793.2	68.26
793.512	68.48
793.824	68.57
794.136	68.64
794.448	68.78
794.76	69.04
795.071	69.33
795.383	69.27
795.695	68.51
796.006	68.42
796.318	69
796.629	69.37
796.941	69.46
797.252	70.02
797.564	69.9
797.875	70.31
798.186	69.94
798.497	70.31
798.809	71.17
799.12	71.35
799.431	71.44
799.742	71.22
800.053	71.07
800.364	71.01
800.675	70.51
800.986	70.74
801.297	70.78
801.608	70.99
801.918	71.67
802.229	72.34
802.54	72.04
802.851	71.93
803.161	71.93
803.472	71.93
803.782	71.4
804.093	70.93
804.403	71.04
804.714	71.68
805.024	71.55
805.334	71.42
805.645	71.03
805.955	70.72
806.265	70.87
806.575	71.15
806.885	71.09
807.195	71.79
807.505	71.68
807.815	71.3
808.125	71.33
808.435	71.08
808.745	71.43
809.055	71.74
809.365	71.36
809.674	70.51
809.984	70.39
810.294	70.42
810.603	70.9
810.913	70.67
811.222	71.38
811.532	71.82
811.841	70.81
812.151	71.05
812.46	71.18
812.769	70.99
813.079	70.41
813.388	70.49
813.697	71.05
814.006	71.38
814.315	72.01
814.624	72.4
814.933	72.13
815.242	71.35
815.551	70.72
815.86	71.29
816.169	72.43
816.478	71.59
816.786	71.74
817.095	71.42
817.404	71.89
817.712	70.55
818.021	70.4
818.33	70.89
818.638	70.67
818.947	70.9
819.255	71.58
819.563	71.41
819.872	71.58
820.18	71.4
820.488	71.23
820.796	71.36
821.105	71.11
821.413	71.31
821.721	71.44
822.029	71.68
822.337	71.45
822.645	71.4
822.953	71.44
823.26	71.14
823.568	71.21
823.876	71.18
824.184	71.58
824.491	71.53
824.799	71.57
825.107	71.79
825.414	71.9
825.722	71.94
826.029	72.01
826.337	71.93
826.644	71.76
826.951	71.6
827.259	71.72
827.566	71.81
827.873	71.77
828.18	71.68
828.488	71.84
828.795	71.83
829.102	71.91
829.409	72.27
829.716	72.53
830.023	72.65
830.329	72.87
830.636	72.36
830.943	72.82
831.25	73.03
831.557	72.66
831.863	72.57
832.17	72.06
832.476	72.42
832.783	72.6
833.089	72.86
833.396	73.09
833.702	72.85
834.009	72.5
834.315	72.2
834.621	72.11
834.928	71.56
835.234	71.27
835.54	71.12
835.846	70.86
836.152	71.23
836.458	71.25
836.764	70.87
837.07	70.58
837.376	70.15
837.682	70.32
837.988	69.86
838.293	69.27
838.599	68.9
838.905	68.52
839.211	68.18
839.516	67.35
839.822	67.2
840.127	67.26
840.433	67.33
840.738	67.26
841.044	66.73
841.349	66.78
841.654	68.03
841.959	67.62
842.265	68.36
842.57	68.46
842.875	68.08
843.18	67.17
843.485	68.91
843.79	68.21
844.095	66.53
844.4	67.81
844.705	69.15
845.01	70.22
845.315	70.06
845.619	70.54
845.924	72.77
846.229	73.05
846.533	71.36
846.838	72.09
847.142	72.43
847.447	73.06
847.751	71.95
848.056	71.59
848.36	72.98
848.664	71.52
848.969	71.01
849.273	71.71
849.577	72.04
849.881	69.84
850.185	70.42
850.489	73.45
850.794	74.17
851.097	72.46
851.401	72.62
851.705	72.63
852.009	72.8
852.313	71.89
852.617	71.36
852.92	74.77
853.224	75.48
853.528	74.92
853.831	76.45
854.135	77.25
854.438	79.82
854.742	78.5
855.045	79.62
855.349	79.4
855.652	77.83
855.955	78.87
856.259	80.93
856.562	81.08
856.865	79.78
857.168	79.29
857.471	79.03
857.774	79.24
858.077	77.8
858.38	78.49
858.683	79.67
858.986	81.34
859.289	80.29
859.592	79.8
859.894	81.56
860.197	81.46
860.5	82
860.802	77.57
861.105	78.31
861.407	78.22
861.71	80.49
862.012	79.54
862.315	78.97
862.617	78.55
862.919	77.7
863.222	76.71
863.524	75.07
863.826	75.09
864.128	74.13
864.43	72.84
864.732	70.48
865.034	70.59
865.336	70.32
865.638	68.3
865.94	68.19
866.242	66.51
866.544	65.14
866.846	64.4
867.147	64.7
867.449	65.52
867.751	66.95
868.052	66.09
868.354	68.03
868.655	68.4
868.957	66.4
869.258	67.37
869.56	66.09
869.861	67.73
870.162	69.67
870.463	70.49
870.765	72.96
871.066	74.61
871.367	73.48
871.668	73.28
871.969	73.04
872.27	70.1
872.571	70.55
872.872	69.48
873.173	70.86
873.473	73.25
873.774	72.86
874.075	72.57
874.376	70.5
874.676	68.18
874.977	69.63
875.277	70.28
875.578	71.14
875.878	72.6
876.179	71.79
876.479	70.59
876.78	70.3
877.08	70.56
877.38	70.13
877.68	70.48
877.981	69.3
878.281	70.49
878.581	74.86
