Data from BA57712_Reflection_00010.txt Node
Date: Mon Nov 18 15:19:35 EST 2019
User: vgr7
Spectrometer: USB2G7710
Scans to average: 3
Trigger mode: 4
Integration Time (sec): 2.000000E-2
Electric dark correction enabled: true
Boxcar width: 10
XAxis mode: Wavelengths
Number of Pixels in Spectrum: 2048
>>>>>Begin Spectral Data<<<<<
177.721	-310.31
178.105	-145.42
178.488	-45.58
178.871	-71.63
179.254	-19.87
179.636	-98.83
180.019	19.69
180.402	11.36
180.785	-76.01
181.168	2822.22
181.55	203.75
181.933	99.38
182.316	79.45
182.698	76.09
183.081	78.77
183.463	41.42
183.846	30.85
184.228	-7.95
184.611	-1.27
184.993	-18.99
185.376	36.54
185.758	56.8
186.14	117.17
186.522	105.04
186.904	167.42
187.287	212.91
187.669	266.09
188.051	453.54
188.433	560.64
188.815	413.8
189.197	1067
189.579	-841.33
189.961	-425.87
190.342	-541.23
190.724	-491.57
191.106	-412.9
191.488	-167.48
191.869	-174.92
192.251	-248.46
192.633	-165.16
193.014	-277.01
193.396	-314.6
193.777	-326.7
194.159	-377.93
194.54	-242.32
194.922	-187.39
195.303	-152.58
195.684	-221.05
196.065	-164.4
196.447	-113.97
196.828	-119.91
197.209	-138.95
197.59	-137.84
197.971	-98.62
198.352	-75.68
198.733	-97.8
199.114	-81.84
199.495	-109.41
199.876	-62.05
200.257	-50.88
200.638	-56.48
201.018	-58.79
201.399	-71.33
201.78	-61.23
202.16	-49.27
202.541	-62.47
202.922	-67.87
203.302	-81.85
203.683	-78.56
204.063	-88.48
204.444	-105.76
204.824	-104.7
205.204	-88.26
205.585	-65.83
205.965	-75.05
206.345	-61.4
206.725	-70.48
207.106	-145.25
207.486	-486.56
207.866	252.41
208.246	167.17
208.626	207.6
209.006	251.32
209.386	232.16
209.766	267.31
210.145	136.58
210.525	161.73
210.905	246.14
211.285	142.42
211.664	152.75
212.044	515.87
212.424	209.03
212.803	285.19
213.183	-162.79
213.562	-310.47
213.942	-185.49
214.321	-506.35
214.701	-143.54
215.08	-93.77
215.459	-62.03
215.838	-35.21
216.218	-30.07
216.597	-27.42
216.976	-21.7
217.355	-11.5
217.734	-11.67
218.113	-8.03
218.492	-25.71
218.871	-58.45
219.25	-67.46
219.629	-92.25
220.008	-99.53
220.387	-103.07
220.766	-81.15
221.144	-121.96
221.523	-144.09
221.902	-130.69
222.28	-124.16
222.659	-118.23
223.037	-100.99
223.416	-125.15
223.794	-117.81
224.173	-121.98
224.551	-85.76
224.929	-89
225.308	-71.14
225.686	-49.23
226.064	-49.54
226.442	-38.3
226.821	-23.81
227.199	-22.99
227.577	-21.06
227.955	-19.8
228.333	-20.22
228.711	-18.78
229.089	-14.32
229.467	-12.25
229.845	-14.62
230.222	-12.62
230.6	-12.66
230.978	-12.66
231.356	-9.05
231.733	-8.77
232.111	-6.52
232.488	-7.14
232.866	-7.4
233.243	-8.98
233.621	-9.8
233.998	-7.88
234.376	-7.15
234.753	-7.87
235.13	-5.13
235.508	-1.91
235.885	-0.31
236.262	0.19
236.639	0.69
237.016	1.89
237.393	1.91
237.77	3.63
238.147	4.73
238.524	4.6
238.901	5.66
239.278	5.69
239.655	6.13
240.032	6.34
240.409	6.07
240.785	6.11
241.162	6.63
241.539	6.34
241.915	5.77
242.292	5.41
242.668	5.56
243.045	5.01
243.421	4.54
243.798	4.31
244.174	4.49
244.551	4.52
244.927	4.32
245.303	4.37
245.679	4.61
246.056	4.38
246.432	4.41
246.808	4.35
247.184	4.16
247.56	3.91
247.936	3.67
248.312	3.46
248.688	3.59
249.064	3.49
249.44	3.7
249.815	3.84
250.191	3.83
250.567	3.89
250.943	3.95
251.318	4.11
251.694	3.94
252.069	3.8
252.445	3.71
252.82	3.64
253.196	3.29
253.571	2.87
253.947	2.8
254.322	2.87
254.697	2.79
255.073	2.79
255.448	3.12
255.823	3.16
256.198	3.6
256.573	3.72
256.948	3.85
257.323	3.79
257.698	3.77
258.073	3.83
258.448	3.81
258.823	3.73
259.198	3.62
259.573	3.69
259.948	3.77
260.322	3.93
260.697	3.93
261.072	4.03
261.446	4.1
261.821	4.21
262.195	4.31
262.57	4.08
262.944	4.08
263.319	3.94
263.693	4.03
264.067	3.99
264.442	3.95
264.816	3.89
265.19	3.86
265.564	3.76
265.938	3.68
266.313	3.47
266.687	3.46
267.061	3.62
267.435	3.63
267.809	3.56
268.183	3.44
268.556	3.43
268.93	3.49
269.304	3.43
269.678	3.44
270.051	3.22
270.425	3.35
270.799	3.51
271.172	3.61
271.546	3.44
271.919	3.39
272.293	3.3
272.666	3.31
273.04	3.22
273.413	3.32
273.787	3.36
274.16	3.38
274.533	3.39
274.906	3.1
275.279	3.04
275.653	2.97
276.026	2.88
276.399	2.8
276.772	2.74
277.145	2.8
277.518	2.68
277.891	2.72
278.263	2.65
278.636	2.71
279.009	2.72
279.382	2.96
279.755	2.94
280.127	3.04
280.5	3.13
280.872	3.12
281.245	3.01
281.617	3.16
281.99	3.27
282.362	3.15
282.735	3.3
283.107	3.18
283.479	3.4
283.852	3.46
284.224	3.68
284.596	3.69
284.968	3.68
285.34	3.77
285.713	3.71
286.085	3.79
286.457	3.77
286.829	3.75
287.201	3.64
287.572	3.63
287.944	3.64
288.316	3.59
288.688	3.59
289.06	3.75
289.431	3.69
289.803	3.85
290.175	4.1
290.546	4.28
290.918	4.47
291.289	4.47
291.661	4.54
292.032	4.54
292.403	4.54
292.775	4.47
293.146	4.41
293.517	4.55
293.889	4.63
294.26	4.59
294.631	4.55
295.002	4.49
295.373	4.55
295.744	4.55
296.115	4.55
296.486	4.62
296.857	4.63
297.228	4.7
297.599	4.61
297.97	4.44
298.34	4.39
298.711	4.48
299.082	4.48
299.452	4.48
299.823	4.51
300.194	4.6
300.564	4.72
300.935	4.73
301.305	4.81
301.676	4.85
302.046	4.85
302.416	5.02
302.787	5.24
303.157	5.4
303.527	5.49
303.897	5.65
304.267	5.72
304.637	5.75
305.008	5.84
305.378	5.95
305.748	6.17
306.117	6.18
306.487	6.22
306.857	6.26
307.227	6.44
307.597	6.46
307.967	6.57
308.336	6.69
308.706	6.77
309.076	6.92
309.445	6.93
309.815	7.07
310.184	7.12
310.554	7.25
310.923	7.29
311.293	7.41
311.662	7.41
312.031	7.41
312.401	7.52
312.77	7.7
313.139	7.83
313.508	7.9
313.877	8.11
314.246	8.18
314.616	8.23
314.985	8.35
315.353	8.38
315.722	8.52
316.091	8.57
316.46	8.72
316.829	8.65
317.198	8.77
317.567	8.83
317.935	8.88
318.304	9
318.672	8.89
319.041	8.98
319.41	9.01
319.778	9.19
320.147	9.33
320.515	9.21
320.883	9.11
321.252	9.38
321.62	9.3
321.988	9.48
322.357	9.69
322.725	9.58
323.093	9.72
323.461	9.8
323.829	9.85
324.197	10.08
324.565	10.15
324.933	10.21
325.301	10.28
325.669	10.36
326.037	10.23
326.405	10.41
326.772	10.51
327.14	10.8
327.508	10.9
327.875	10.86
328.243	11.09
328.61	11.21
328.978	11.2
329.346	11.41
329.713	11.34
330.08	11.26
330.448	11.32
330.815	11.31
331.182	11.24
331.55	11.33
331.917	11.33
332.284	11.45
332.651	11.35
333.018	11.4
333.385	11.54
333.752	11.54
334.119	11.53
334.486	11.47
334.853	11.37
335.22	11.3
335.587	11.31
335.954	11.22
336.32	11.19
336.687	11.17
337.054	11.08
337.42	11.12
337.787	11.31
338.153	11.41
338.52	11.56
338.886	11.61
339.253	11.62
339.619	11.56
339.986	11.52
340.352	11.7
340.718	11.64
341.084	11.48
341.451	11.55
341.817	11.65
342.183	11.71
342.549	11.75
342.915	11.84
343.281	11.85
343.647	11.77
344.013	11.87
344.379	11.79
344.745	11.88
345.11	11.78
345.476	11.75
345.842	11.77
346.208	11.73
346.573	11.73
346.939	11.76
347.304	11.81
347.67	11.88
348.035	11.9
348.401	12.04
348.766	12.14
349.132	12.14
349.497	12.06
349.862	12.1
350.228	12.09
350.593	11.99
350.958	12.11
351.323	12.21
351.688	12.17
352.053	12.28
352.418	12.33
352.783	12.41
353.148	12.32
353.513	12.2
353.878	12.19
354.243	12.22
354.608	12.17
354.972	12.15
355.337	12.12
355.702	12.05
356.066	12.08
356.431	12.08
356.795	12.14
357.16	12.07
357.524	12
357.889	11.97
358.253	12.01
358.618	12
358.982	11.99
359.346	11.99
359.71	11.91
360.075	11.78
360.439	11.79
360.803	11.78
361.167	11.82
361.531	11.85
361.895	11.73
362.259	11.76
362.623	11.7
362.987	11.66
363.351	11.62
363.714	11.57
364.078	11.5
364.442	11.48
364.806	11.47
365.169	11.43
365.533	11.36
365.896	11.32
366.26	11.26
366.623	11.14
366.987	11.11
367.35	11.07
367.714	11.11
368.077	11.01
368.44	10.94
368.803	10.9
369.167	10.71
369.53	10.66
369.893	10.6
370.256	10.5
370.619	10.44
370.982	10.37
371.345	10.27
371.708	10.23
372.071	10.09
372.434	10.05
372.797	10.01
373.159	9.9
373.522	9.84
373.885	9.74
374.247	9.8
374.61	9.7
374.973	9.66
375.335	9.53
375.698	9.48
376.06	9.39
376.423	9.25
376.785	9.26
377.147	9.23
377.51	9.16
377.872	9.12
378.234	9.02
378.596	9
378.958	8.9
379.321	8.82
379.683	8.8
380.045	8.72
380.407	8.61
380.769	8.61
381.13	8.51
381.492	8.43
381.854	8.3
382.216	8.18
382.578	8.07
382.939	7.96
383.301	7.92
383.663	7.88
384.024	7.84
384.386	7.79
384.747	7.76
385.109	7.73
385.47	7.69
385.832	7.67
386.193	7.6
386.554	7.58
386.916	7.56
387.277	7.48
387.638	7.45
387.999	7.4
388.36	7.36
388.721	7.33
389.082	7.29
389.443	7.25
389.804	7.23
390.165	7.22
390.526	7.17
390.887	7.08
391.248	7.06
391.609	7
391.969	6.91
392.33	6.84
392.691	6.74
393.051	6.67
393.412	6.63
393.772	6.58
394.133	6.5
394.493	6.43
394.854	6.36
395.214	6.28
395.574	6.22
395.935	6.16
396.295	6.14
396.655	6.07
397.015	6
397.376	5.98
397.736	5.9
398.096	5.85
398.456	5.84
398.816	5.77
399.176	5.71
399.535	5.69
399.895	5.65
400.255	5.62
400.615	5.57
400.975	5.51
401.334	5.46
401.694	5.41
402.054	5.37
402.413	5.35
402.773	5.33
403.132	5.26
403.492	5.2
403.851	5.13
404.211	5.1
404.57	5.07
404.929	5.01
405.288	4.97
405.648	4.97
406.007	4.92
406.366	4.92
406.725	4.92
407.084	4.89
407.443	4.9
407.802	4.91
408.161	4.87
408.52	4.84
408.879	4.81
409.238	4.84
409.596	4.81
409.955	4.8
410.314	4.78
410.673	4.82
411.031	4.83
411.39	4.81
411.748	4.81
412.107	4.81
412.465	4.77
412.824	4.77
413.182	4.73
413.54	4.7
413.899	4.66
414.257	4.65
414.615	4.62
414.974	4.59
415.332	4.54
415.69	4.54
416.048	4.51
416.406	4.49
416.764	4.43
417.122	4.42
417.48	4.41
417.838	4.4
418.195	4.35
418.553	4.31
418.911	4.29
419.269	4.28
419.626	4.27
419.984	4.27
420.342	4.25
420.699	4.23
421.057	4.23
421.414	4.2
421.772	4.17
422.129	4.15
422.486	4.11
422.844	4.11
423.201	4.07
423.558	4.05
423.915	4.04
424.273	4.02
424.63	4
424.987	3.97
425.344	3.94
425.701	3.94
426.058	3.93
426.415	3.92
426.772	3.88
427.128	3.85
427.485	3.82
427.842	3.8
428.199	3.79
428.555	3.79
428.912	3.8
429.269	3.8
429.625	3.8
429.982	3.79
430.338	3.77
430.695	3.8
431.051	3.78
431.407	3.79
431.764	3.79
432.12	3.79
432.476	3.79
432.832	3.79
433.189	3.79
433.545	3.79
433.901	3.8
434.257	3.81
434.613	3.81
434.969	3.82
435.325	3.83
435.681	3.85
436.036	3.82
436.392	3.84
436.748	3.83
437.104	3.83
437.459	3.85
437.815	3.86
438.171	3.84
438.526	3.85
438.882	3.85
439.237	3.85
439.593	3.86
439.948	3.87
440.304	3.86
440.659	3.87
441.014	3.85
441.369	3.83
441.725	3.81
442.08	3.82
442.435	3.8
442.79	3.8
443.145	3.78
443.5	3.78
443.855	3.75
444.21	3.74
444.565	3.75
444.92	3.72
445.275	3.7
445.629	3.7
445.984	3.69
446.339	3.67
446.693	3.65
447.048	3.63
447.403	3.61
447.757	3.61
448.112	3.59
448.466	3.6
448.82	3.6
449.175	3.6
449.529	3.57
449.883	3.55
450.238	3.52
450.592	3.52
450.946	3.5
451.3	3.5
451.654	3.5
452.008	3.48
452.362	3.46
452.716	3.47
453.07	3.46
453.424	3.46
453.778	3.45
454.132	3.46
454.486	3.46
454.839	3.46
455.193	3.45
455.547	3.45
455.9	3.45
456.254	3.46
456.607	3.46
456.961	3.47
457.314	3.48
457.668	3.51
458.021	3.5
458.375	3.5
458.728	3.48
459.081	3.5
459.434	3.49
459.787	3.51
460.141	3.5
460.494	3.52
460.847	3.53
461.2	3.52
461.553	3.54
461.906	3.55
462.259	3.56
462.611	3.56
462.964	3.58
463.317	3.58
463.67	3.57
464.022	3.58
464.375	3.58
464.728	3.58
465.08	3.59
465.433	3.61
465.785	3.63
466.138	3.65
466.49	3.65
466.843	3.66
467.195	3.66
467.547	3.68
467.899	3.68
468.252	3.69
468.604	3.72
468.956	3.73
469.308	3.72
469.66	3.72
470.012	3.74
470.364	3.75
470.716	3.77
471.068	3.79
471.42	3.8
471.772	3.84
472.123	3.85
472.475	3.87
472.827	3.86
473.178	3.86
473.53	3.85
473.882	3.83
474.233	3.86
474.585	3.86
474.936	3.82
475.288	3.82
475.639	3.84
475.99	3.83
476.342	3.82
476.693	3.85
477.044	3.87
477.395	3.86
477.746	3.83
478.097	3.83
478.448	3.83
478.8	3.82
479.15	3.78
479.501	3.77
479.852	3.75
480.203	3.77
480.554	3.77
480.905	3.78
481.255	3.79
481.606	3.78
481.957	3.79
482.307	3.81
482.658	3.81
483.009	3.8
483.359	3.8
483.709	3.81
484.06	3.8
484.41	3.79
484.761	3.78
485.111	3.8
485.461	3.79
485.811	3.79
486.162	3.8
486.512	3.82
486.862	3.82
487.212	3.83
487.562	3.83
487.912	3.84
488.262	3.84
488.612	3.85
488.961	3.86
489.311	3.87
489.661	3.87
490.011	3.88
490.36	3.88
490.71	3.88
491.06	3.89
491.409	3.9
491.759	3.91
492.108	3.93
492.458	3.95
492.807	3.97
493.157	3.98
493.506	4
493.855	4
494.204	4.03
494.554	4.05
494.903	4.06
495.252	4.09
495.601	4.13
495.95	4.15
496.299	4.16
496.648	4.18
496.997	4.22
497.346	4.27
497.695	4.31
498.043	4.34
498.392	4.37
498.741	4.41
499.09	4.45
499.438	4.51
499.787	4.54
500.135	4.58
500.484	4.62
500.832	4.65
501.181	4.68
501.529	4.7
501.878	4.78
502.226	4.83
502.574	4.88
502.923	4.93
503.271	4.98
503.619	5.07
503.967	5.13
504.315	5.2
504.663	5.24
505.011	5.32
505.359	5.41
505.707	5.48
506.055	5.56
506.403	5.63
506.751	5.69
507.098	5.77
507.446	5.86
507.794	5.93
508.141	6.04
508.489	6.14
508.837	6.25
509.184	6.34
509.531	6.41
509.879	6.54
510.226	6.62
510.574	6.71
510.921	6.77
511.268	6.86
511.616	6.93
511.963	7.01
512.31	7.11
512.657	7.21
513.004	7.32
513.351	7.44
513.698	7.58
514.045	7.7
514.392	7.82
514.739	7.93
515.086	8.08
515.432	8.19
515.779	8.31
516.126	8.43
516.473	8.55
516.819	8.67
517.166	8.78
517.512	8.89
517.859	9.01
518.205	9.14
518.552	9.26
518.898	9.39
519.245	9.52
519.591	9.63
519.937	9.72
520.283	9.86
520.629	9.98
520.976	10.11
521.322	10.24
521.668	10.38
522.014	10.53
522.36	10.68
522.706	10.85
523.052	11.05
523.398	11.26
523.743	11.46
524.089	11.67
524.435	11.86
524.781	12.06
525.126	12.25
525.472	12.43
525.817	12.59
526.163	12.73
526.509	12.88
526.854	13.04
527.199	13.19
527.545	13.3
527.89	13.44
528.235	13.57
528.581	13.7
528.926	13.84
529.271	14.01
529.616	14.15
529.961	14.29
530.306	14.44
530.651	14.61
530.996	14.78
531.341	14.95
531.686	15.14
532.031	15.31
532.376	15.49
532.721	15.69
533.065	15.89
533.41	16.1
533.755	16.31
534.099	16.52
534.444	16.75
534.788	16.98
535.133	17.21
535.477	17.44
535.822	17.68
536.166	17.95
536.51	18.21
536.855	18.5
537.199	18.8
537.543	19.12
537.887	19.39
538.231	19.7
538.576	20.05
538.92	20.34
539.264	20.63
539.608	20.91
539.951	21.16
540.295	21.42
540.639	21.71
540.983	21.95
541.327	22.18
541.671	22.41
542.014	22.67
542.358	22.91
542.701	23.15
543.045	23.41
543.389	23.62
543.732	23.85
544.075	24.1
544.419	24.37
544.762	24.62
545.105	24.9
545.449	25.18
545.792	25.42
546.135	25.73
546.478	26.07
546.821	26.41
547.165	26.75
547.508	27.09
547.851	27.4
548.194	27.73
548.536	28.06
548.879	28.43
549.222	28.71
549.565	29.07
549.908	29.45
550.25	29.78
550.593	30.16
550.936	30.49
551.278	30.79
551.621	31.1
551.963	31.4
552.306	31.7
552.648	31.99
552.991	32.34
553.333	32.64
553.675	32.9
554.017	33.19
554.36	33.48
554.702	33.73
555.044	34.02
555.386	34.31
555.728	34.6
556.07	34.85
556.412	35.11
556.754	35.34
557.096	35.59
557.438	35.87
557.78	36.14
558.121	36.48
558.463	36.78
558.805	37.08
559.147	37.37
559.488	37.63
559.83	37.85
560.171	38.1
560.513	38.33
560.854	38.63
561.196	38.95
561.537	39.23
561.878	39.44
562.22	39.65
562.561	39.89
562.902	40.15
563.243	40.39
563.584	40.65
563.925	40.97
564.266	41.19
564.607	41.39
564.948	41.66
565.289	41.87
565.63	42.05
565.971	42.21
566.312	42.45
566.653	42.67
566.993	42.91
567.334	43.1
567.675	43.34
568.015	43.46
568.356	43.58
568.696	43.75
569.037	43.94
569.377	44.13
569.718	44.31
570.058	44.45
570.398	44.62
570.739	44.82
571.079	44.94
571.419	45.12
571.759	45.32
572.099	45.44
572.439	45.63
572.779	45.82
573.119	46.03
573.459	46.13
573.799	46.29
574.139	46.48
574.479	46.62
574.819	46.74
575.158	46.93
575.498	47.1
575.838	47.2
576.177	47.38
576.517	47.56
576.856	47.76
577.196	47.92
577.535	48.03
577.875	48.15
578.214	48.3
578.553	48.45
578.893	48.56
579.232	48.69
579.571	48.78
579.91	48.96
580.25	49.08
580.589	49.26
580.928	49.46
581.267	49.53
581.606	49.69
581.945	49.81
582.283	49.91
582.622	50.05
582.961	50.24
583.3	50.37
583.639	50.47
583.977	50.56
584.316	50.65
584.654	50.81
584.993	50.86
585.332	50.95
585.67	51.01
586.008	51.09
586.347	51.22
586.685	51.33
587.024	51.29
587.362	51.32
587.7	51.36
588.038	51.34
588.376	51.45
588.715	51.49
589.053	51.68
589.391	51.78
589.729	51.92
590.067	52.03
590.404	52.08
590.742	52.2
591.08	52.25
591.418	52.38
591.756	52.45
592.093	52.59
592.431	52.62
592.769	52.76
593.106	52.86
593.444	52.88
593.781	52.97
594.119	53.13
594.456	53.24
594.793	53.31
595.131	53.4
595.468	53.48
595.805	53.57
596.143	53.5
596.48	53.52
596.817	53.5
597.154	53.56
597.491	53.64
597.828	53.73
598.165	53.79
598.502	53.92
598.839	53.92
599.176	53.94
599.512	54.06
599.849	54.1
600.186	54.19
600.523	54.26
600.859	54.29
601.196	54.28
601.532	54.36
601.869	54.47
602.205	54.5
602.542	54.48
602.878	54.47
603.215	54.55
603.551	54.61
603.887	54.63
604.223	54.61
604.56	54.7
604.896	54.66
605.232	54.68
605.568	54.67
605.904	54.75
606.24	54.78
606.576	54.8
606.912	54.83
607.248	54.82
607.583	54.91
607.919	54.93
608.255	55.05
608.591	55.1
608.926	55.08
609.262	55.14
609.597	55.23
609.933	55.3
610.268	55.39
610.604	55.42
610.939	55.57
611.275	55.64
611.61	55.65
611.945	55.7
612.281	55.76
612.616	55.84
612.951	55.87
613.286	56.01
613.621	56.05
613.956	56.12
614.291	56.21
614.626	56.24
614.961	56.28
615.296	56.36
615.631	56.35
615.966	56.43
616.3	56.51
616.635	56.52
616.97	56.65
617.304	56.67
617.639	56.71
617.973	56.69
618.308	56.77
618.642	56.83
618.977	56.84
619.311	56.83
619.646	56.87
619.98	57.05
620.314	57.08
620.648	57.1
620.983	57.15
621.317	57.13
621.651	57.18
621.985	57.28
622.319	57.27
622.653	57.22
622.987	57.27
623.321	57.28
623.655	57.31
623.988	57.28
624.322	57.27
624.656	57.35
624.99	57.4
625.323	57.42
625.657	57.41
625.99	57.48
626.324	57.58
626.657	57.57
626.991	57.52
627.324	57.55
627.658	57.63
627.991	57.59
628.324	57.7
628.657	57.71
628.991	57.66
629.324	57.71
629.657	57.81
629.99	57.81
630.323	57.85
630.656	57.85
630.989	58
631.322	58.05
631.655	58.08
631.987	58.13
632.32	58.19
632.653	58.28
632.986	58.25
633.318	58.2
633.651	58.22
633.984	58.27
634.316	58.34
634.649	58.31
634.981	58.29
635.313	58.21
635.646	58.22
635.978	58.33
636.31	58.33
636.643	58.34
636.975	58.35
637.307	58.36
637.639	58.4
637.971	58.34
638.303	58.36
638.635	58.36
638.967	58.36
639.299	58.33
639.631	58.28
639.963	58.38
640.295	58.36
640.626	58.44
640.958	58.42
641.29	58.33
641.621	58.45
641.953	58.58
642.285	58.69
642.616	58.69
642.948	58.68
643.279	58.63
643.61	58.74
643.942	58.78
644.273	58.78
644.604	58.83
644.936	58.68
645.267	58.76
645.598	58.79
645.929	58.75
646.26	58.67
646.591	58.6
646.922	58.63
647.253	58.72
647.584	58.57
647.915	58.63
648.245	58.66
648.576	58.66
648.907	58.65
649.238	58.61
649.568	58.64
649.899	58.61
650.229	58.72
650.56	58.69
650.89	58.67
651.221	58.64
651.551	58.62
651.882	58.72
652.212	58.65
652.542	58.63
652.872	58.65
653.203	58.66
653.533	58.76
653.863	58.81
654.193	58.9
654.523	58.96
654.853	58.92
655.183	58.98
655.513	58.91
655.843	58.91
656.172	58.89
656.502	58.98
656.832	59.06
657.162	59.05
657.491	59.06
657.821	59.15
658.15	59.22
658.48	59.25
658.809	59.32
659.139	59.35
659.468	59.38
659.798	59.35
660.127	59.4
660.456	59.44
660.785	59.39
661.115	59.33
661.444	59.24
661.773	59.19
662.102	59.16
662.431	59.25
662.76	59.22
663.089	59.36
663.418	59.41
663.747	59.46
664.076	59.42
664.404	59.49
664.733	59.51
665.062	59.44
665.39	59.43
665.719	59.33
666.048	59.38
666.376	59.41
666.705	59.55
667.033	59.49
667.362	59.52
667.69	59.47
668.018	59.45
668.347	59.64
668.675	59.68
669.003	59.75
669.331	59.83
669.659	59.88
669.987	59.74
670.315	59.73
670.643	59.64
670.971	59.83
671.299	59.78
671.627	59.82
671.955	60.01
672.283	60.04
672.61	60.11
672.938	60.16
673.266	60.15
673.593	60.04
673.921	60.15
674.249	60.14
674.576	60.1
674.904	60.22
675.231	60.14
675.558	60.22
675.886	60.21
676.213	60.09
676.54	60.01
676.867	60.17
677.195	60.18
677.522	60.18
677.849	60.05
678.176	60.12
678.503	60.04
678.83	59.98
679.157	60.01
679.484	60.06
679.81	59.98
680.137	59.87
680.464	59.94
680.791	60.05
681.117	59.94
681.444	59.95
681.771	59.81
682.097	59.9
682.424	59.88
682.75	59.9
683.077	59.96
683.403	60.07
683.729	60.07
684.056	60.04
684.382	59.96
684.708	60.06
685.034	60.04
685.36	60.05
685.686	60
686.012	59.96
686.339	60.14
686.664	60.09
686.99	60.18
687.316	60.13
687.642	60.05
687.968	60.23
688.294	60.38
688.619	60.59
688.945	60.55
689.271	60.54
689.596	60.37
689.922	60.29
690.247	60.3
690.573	60.23
690.898	60.23
691.224	60.35
691.549	60.3
691.874	60.1
692.2	60.08
692.525	60.05
692.85	60.18
693.175	60.02
693.5	59.97
693.825	59.88
694.15	59.96
694.475	59.76
694.8	59.73
695.125	59.68
695.45	59.57
695.775	59.66
696.099	59.72
696.424	59.85
696.749	59.79
697.073	59.77
697.398	59.86
697.723	60
698.047	59.92
698.372	59.89
698.696	60
699.02	60.05
699.345	60.24
699.669	60.24
699.993	60.14
700.318	60.23
700.642	60.36
700.966	60.45
701.29	60.38
701.614	60.47
701.938	60.49
702.262	60.66
702.586	60.75
702.91	60.81
703.234	60.77
703.557	60.89
703.881	60.99
704.205	60.91
704.529	60.58
704.852	60.82
705.176	60.78
705.499	60.84
705.823	60.87
706.146	60.63
706.47	60.69
706.793	60.76
707.117	60.87
707.44	60.77
707.763	60.43
708.086	60.68
708.409	60.5
708.733	60.63
709.056	60.54
709.379	60.29
709.702	60.32
710.025	60.52
710.348	60.64
710.671	60.55
710.993	60.63
711.316	60.77
711.639	60.69
711.962	60.54
712.284	60.5
712.607	60.4
712.93	60.5
713.252	60.45
713.575	60.41
713.897	60.31
714.22	60.54
714.542	60.85
714.864	60.89
715.187	60.94
715.509	60.67
715.831	60.89
716.153	61.03
716.475	61.05
716.798	61.1
717.12	60.85
717.442	60.88
717.764	60.6
718.085	60.64
718.407	60.7
718.729	60.89
719.051	61.19
719.373	61.3
719.695	61.13
720.016	61.1
720.338	61.11
720.659	61.32
720.981	60.94
721.302	60.86
721.624	60.81
721.945	60.86
722.267	60.92
722.588	60.57
722.909	60.65
723.231	60.53
723.552	60.23
723.873	60.41
724.194	60.36
724.515	60.7
724.836	60.7
725.157	60.57
725.478	60.6
725.799	60.17
726.12	60.11
726.441	60.27
726.762	60.28
727.083	60.2
727.403	60.31
727.724	60.57
728.045	60.74
728.365	60.76
728.686	60.68
729.006	60.81
729.327	61.2
729.647	60.9
729.967	60.94
730.288	61.19
730.608	61.18
730.928	61.07
731.249	61.05
731.569	61.03
731.889	61.18
732.209	61.4
732.529	61.76
732.849	61.96
733.169	62.05
733.489	62.17
733.809	62.53
734.129	62.36
734.448	62.34
734.768	62.07
735.088	62.18
735.408	62.09
735.727	62.18
736.047	61.92
736.366	62.18
736.686	62.12
737.005	61.92
737.325	62.01
737.644	62.1
737.963	61.93
738.283	61.98
738.602	62.05
738.921	61.53
739.24	61.33
739.56	61.2
739.879	60.96
740.198	60.92
740.517	60.81
740.836	60.78
741.155	60.55
741.473	60.8
741.792	60.68
742.111	60.87
742.43	60.73
742.748	60.78
743.067	60.76
743.386	60.75
743.704	60.96
744.023	60.75
744.341	60.95
744.66	61.18
744.978	61.12
745.297	60.9
745.615	61.34
745.933	61.43
746.252	61.48
746.57	61.43
746.888	61.28
747.206	61.16
747.524	60.95
747.842	61.4
748.16	61.21
748.478	61.51
748.796	61.44
749.114	61.61
749.432	61.38
749.749	61.48
750.067	61.47
750.385	61.38
750.703	61.52
751.02	61.43
751.338	61.42
751.655	61.3
751.973	61.13
752.29	60.99
752.608	60.8
752.925	60.69
753.242	60.88
753.56	60.9
753.877	61.05
754.194	61.07
754.511	61.03
754.828	61.04
755.145	60.83
755.462	61.03
755.779	60.85
756.096	61.24
756.413	61.15
756.73	61.36
757.047	61.25
757.364	61.31
757.68	61.37
757.997	61.29
758.314	61.41
758.63	61.58
758.947	61.65
759.264	61.46
759.58	61.65
759.896	61.79
760.213	62.15
760.529	61.96
760.846	61.89
761.162	61.78
761.478	61.88
761.794	61.76
762.11	61.63
762.426	62
762.743	61.77
763.059	61.69
763.375	61.64
763.69	61.83
764.006	61.83
764.322	61.94
764.638	61.93
764.954	62.03
765.27	61.95
765.585	61.98
765.901	62.2
766.216	62.23
766.532	62.06
766.848	61.68
767.163	61.77
767.478	62.28
767.794	62.23
768.109	62.01
768.424	62.33
768.74	62.5
769.055	62.29
769.37	62.32
769.685	62.45
770	62.48
770.315	62.79
770.63	63
770.945	62.42
771.26	62.14
771.575	61.85
771.89	61.99
772.205	62.12
772.52	62
772.834	61.92
773.149	61.87
773.464	61.82
773.778	61.88
774.093	61.43
774.407	61.29
774.722	61.73
775.036	61.46
775.351	61.21
775.665	60.62
775.979	60.48
776.293	60.38
776.608	60.04
776.922	59.42
777.236	59.2
777.55	59.78
777.864	60.19
778.178	60.56
778.492	60.51
778.806	60.18
779.12	60.23
779.434	59.77
779.747	60.19
780.061	60.76
780.375	60.54
780.689	60.26
781.002	60.64
781.316	60.53
781.629	60.49
781.943	60.54
782.256	60.99
782.57	61.5
782.883	61.64
783.196	61.58
783.51	60.83
783.823	61.14
784.136	60.97
784.449	61
784.762	60.82
785.075	61.29
785.388	61.73
785.701	61.73
786.014	62.06
786.327	61.52
786.64	61.58
786.953	61.87
787.266	62.18
787.578	61.78
787.891	61.43
788.204	61.54
788.516	61.66
788.829	61.99
789.141	61.72
789.454	61.52
789.766	61.67
790.079	62.54
790.391	61.9
790.703	61.9
791.016	61.65
791.328	61.69
791.64	61.38
791.952	61.48
792.264	61.18
792.576	61.31
792.888	61.92
793.2	61.52
793.512	61.34
793.824	61.52
794.136	61.48
794.448	61.68
794.76	61.61
795.071	61.56
795.383	61.22
795.695	61.08
796.006	61.08
796.318	61.27
796.629	61.41
796.941	61.6
797.252	61.36
797.564	61.48
797.875	61.77
798.186	61.59
798.497	60.94
798.809	61.6
799.12	61.56
799.431	61.23
799.742	62.04
800.053	62
800.364	61.47
800.675	61.41
800.986	61.36
801.297	61.12
801.608	60.64
801.918	60.52
802.229	60.4
802.54	60.96
802.851	61.06
803.161	60.71
803.472	60.39
803.782	60.82
804.093	61.05
804.403	60.54
804.714	60.61
805.024	60.36
805.334	60.62
805.645	60.78
805.955	60.22
806.265	59.22
806.575	58.66
806.885	59.25
807.195	59.82
807.505	59.6
807.815	59.38
808.125	60.16
808.435	60.19
808.745	60.7
809.055	60.53
809.365	60.73
809.674	60.75
809.984	61.56
810.294	60.93
810.603	60.69
810.913	60.42
811.222	60.24
811.532	60.59
811.841	60.89
812.151	60.69
812.46	61.52
812.769	61.4
813.079	62.2
813.388	61.42
813.697	61.07
814.006	60.93
814.315	61.87
814.624	61.69
814.933	62
815.242	61.09
815.551	60.06
815.86	59.62
816.169	60.13
816.478	59.21
816.786	59.12
817.095	59.11
817.404	59.47
817.712	60.43
818.021	60.93
818.33	60.4
818.638	60.07
818.947	60.21
819.255	60.59
819.563	60.55
819.872	60.66
820.18	60.75
820.488	60.77
820.796	60.74
821.105	61.07
821.413	60.81
821.721	61.06
822.029	61.4
822.337	61.77
822.645	61.77
822.953	61.99
823.26	62.09
823.568	62.12
823.876	62.21
824.184	62.07
824.491	61.93
824.799	61.76
825.107	61.83
825.414	61.94
825.722	61.84
826.029	61.77
826.337	62.01
826.644	62.13
826.951	62.11
827.259	62.06
827.566	61.88
827.873	62.08
828.18	61.92
828.488	61.92
828.795	61.48
829.102	61.52
829.409	61.53
829.716	61.56
830.023	61.36
830.329	61.21
830.636	61.49
830.943	61.71
831.25	61.78
831.557	62.02
831.863	61.41
832.17	61.77
832.476	61.79
832.783	61.21
833.089	61.13
833.396	61.76
833.702	61.79
834.009	61.7
834.315	61.77
834.621	62.08
834.928	61.88
835.234	61.87
835.54	61.75
835.846	61.44
836.152	61.66
836.458	61.91
836.764	62.19
837.07	61.64
837.376	61.4
837.682	61.01
837.988	61.19
838.293	61.73
838.599	61.41
838.905	63.06
839.211	62.99
839.516	63.01
839.822	62.9
840.127	62.7
840.433	62.47
840.738	62.34
841.044	62.99
841.349	63.81
841.654	64.13
841.959	62.93
842.265	63.56
842.57	63.28
842.875	62.82
843.18	62.93
843.485	63.35
843.79	63.7
844.095	64.39
844.4	63.69
844.705	63.01
845.01	63.79
845.315	61.44
845.619	62.57
845.924	61.98
846.229	61.72
846.533	62.89
846.838	62.95
847.142	63.47
847.447	63.15
847.751	61.39
848.056	59.74
848.36	61
848.664	61.34
848.969	60.38
849.273	61.21
849.577	60.09
849.881	59.9
850.185	61.04
850.489	60.38
850.794	59.51
851.097	60.93
851.401	59.82
851.705	60.96
852.009	63.22
852.313	63.28
852.617	61.42
852.92	59.12
853.224	61.62
853.528	59.19
853.831	58.66
854.135	60.74
854.438	60.97
854.742	61.63
855.045	61.79
855.349	62.02
855.652	61.01
855.955	60.04
856.259	60.46
856.562	58.39
856.865	60.62
857.168	60.85
857.471	60.02
857.774	61.08
858.077	59.69
858.38	59.6
858.683	59.92
858.986	60.92
859.289	62.98
859.592	60.66
859.894	62.67
860.197	62.96
860.5	62.18
860.802	62.66
861.105	61.31
861.407	59.1
861.71	59.21
862.012	61.68
862.315	61.16
862.617	59.31
862.919	59.35
863.222	59.08
863.524	60.03
863.826	60.1
864.128	58.99
864.43	59.27
864.732	59.12
865.034	57.99
865.336	57.79
865.638	57.78
865.94	58.24
866.242	58.38
866.544	59.69
866.846	59.84
867.147	60.28
867.449	59.12
867.751	60.81
868.052	60.55
868.354	58.33
868.655	59.59
868.957	59.44
869.258	59.74
869.56	58.97
869.861	59.43
870.162	60.28
870.463	60.01
870.765	59.4
871.066	58.73
871.367	60.22
871.668	60.2
871.969	57.99
872.27	58.03
872.571	56.44
872.872	54.51
873.173	54.26
873.473	54.73
873.774	59.07
874.075	59.64
874.376	62.33
874.676	63.7
874.977	64.16
875.277	64.25
875.578	64.22
875.878	64.73
876.179	63.9
876.479	63.31
876.78	64.12
877.08	64.53
877.38	62.12
877.68	62.44
877.981	63.22
878.281	66.08
878.581	66.32
