Data from BA57710_Reflection_00012.txt Node
Date: Mon Nov 18 15:32:03 EST 2019
User: vgr7
Spectrometer: USB2G7710
Scans to average: 3
Trigger mode: 4
Integration Time (sec): 2.000000E-2
Electric dark correction enabled: true
Boxcar width: 10
XAxis mode: Wavelengths
Number of Pixels in Spectrum: 2048
>>>>>Begin Spectral Data<<<<<
177.721	31.93
178.105	53.32
178.488	59.49
178.871	107.26
179.254	311.18
179.636	163.14
180.019	32.07
180.402	147.22
180.785	95.31
181.168	8.97
181.55	56.45
181.933	95.09
182.316	136.36
182.698	321.92
183.081	395.33
183.463	-561.48
183.846	-521.16
184.228	-271.02
184.611	-336.09
184.993	-90.11
185.376	-118.73
185.758	-122.75
186.14	-153.02
186.522	-199.33
186.904	-175.19
187.287	-437.21
187.669	-211.43
188.051	-237.51
188.433	-380.86
188.815	-149.52
189.197	-175.62
189.579	-98.11
189.961	-53.13
190.342	-87.01
190.724	-45.61
191.106	-57.52
191.488	-78.46
191.869	-66.13
192.251	-89.58
192.633	-74.42
193.014	-104.23
193.396	-152.5
193.777	-101.82
194.159	-117.11
194.54	-89.21
194.922	-92.34
195.303	-98.89
195.684	-99.94
196.065	-116.07
196.447	-110.97
196.828	-133.48
197.209	-120.43
197.59	-170.34
197.971	-189.98
198.352	-111.13
198.733	-144.79
199.114	-116.74
199.495	-95.56
199.876	-122.05
200.257	-66.71
200.638	-69.05
201.018	-55.56
201.399	-35.78
201.78	-20.55
202.16	-41.76
202.541	-64.2
202.922	-67.86
203.302	-59.85
203.683	-69.95
204.063	-75.8
204.444	-89.55
204.824	-97.4
205.204	-85.67
205.585	-84.01
205.965	-94.72
206.345	-137.01
206.725	-127.54
207.106	-164.6
207.486	-206.3
207.866	-188.36
208.246	-213.3
208.626	-296.72
209.006	-246.24
209.386	-360.72
209.766	-389.7
210.145	-262.97
210.525	-312.91
210.905	-250.93
211.285	-276.24
211.664	-252.18
212.044	-210.28
212.424	-146.01
212.803	-157.81
213.183	-160.69
213.562	-141.02
213.942	-114.52
214.321	-87.38
214.701	-114.06
215.08	-117.11
215.459	-93.66
215.838	-79
216.218	-77.48
216.597	-51.05
216.976	-62.34
217.355	-58.79
217.734	-55.95
218.113	-42.93
218.492	-31.59
218.871	-43.07
219.25	-29.9
219.629	-42.79
220.008	-46.52
220.387	-50.17
220.766	-44.3
221.144	-64.98
221.523	-75.33
221.902	-76.4
222.28	-78.29
222.659	-76.74
223.037	-63.02
223.416	-62.1
223.794	-68.6
224.173	-63.79
224.551	-55.39
224.929	-46.83
225.308	-30.44
225.686	-25.71
226.064	-25.37
226.442	-25.13
226.821	-21.82
227.199	-22.32
227.577	-17.98
227.955	-15.52
228.333	-14.7
228.711	-11.77
229.089	-4.71
229.467	-7.07
229.845	-8.38
230.222	-7.75
230.6	-5.2
230.978	-5.99
231.356	-4.39
231.733	-4.23
232.111	-3.4
232.488	-3
232.866	-2.25
233.243	-4.34
233.621	-2.67
233.998	-0.59
234.376	0.11
234.753	-0.28
235.13	-2.38
235.508	-1.96
235.885	-1.35
236.262	-3.16
236.639	-3.25
237.016	-3.79
237.393	-1.25
237.77	-0.12
238.147	0.93
238.524	0.88
238.901	2.08
239.278	2.43
239.655	3.13
240.032	3.07
240.409	3
240.785	3.01
241.162	3.23
241.539	3.31
241.915	3.51
242.292	3.3
242.668	3.78
243.045	4.18
243.421	4.24
243.798	4.06
244.174	4.56
244.551	4.58
244.927	4.52
245.303	4.5
245.679	4.48
246.056	4.27
246.432	4.31
246.808	4.02
247.184	3.67
247.56	3.58
247.936	3.39
248.312	3.31
248.688	3.53
249.064	3.59
249.44	3.48
249.815	3.36
250.191	3.52
250.567	3.44
250.943	3.69
251.318	3.73
251.694	3.73
252.069	3.46
252.445	3.54
252.82	3.45
253.196	3.21
253.571	3.29
253.947	3.15
254.322	3.15
254.697	3.37
255.073	3.53
255.448	3.31
255.823	3.46
256.198	3.73
256.573	3.51
256.948	3.55
257.323	3.62
257.698	3.75
258.073	3.65
258.448	3.66
258.823	3.65
259.198	3.7
259.573	3.6
259.948	3.72
260.322	3.62
260.697	3.73
261.072	3.8
261.446	3.69
261.821	3.69
262.195	3.66
262.57	3.42
262.944	3.4
263.319	3.53
263.693	3.43
264.067	3.6
264.442	3.7
264.816	3.57
265.19	3.46
265.564	3.29
265.938	3.09
266.313	3.16
266.687	3
267.061	2.93
267.435	3.23
267.809	3.25
268.183	3.43
268.556	3.37
268.93	3.22
269.304	3.35
269.678	3.45
270.051	3.42
270.425	3.61
270.799	3.65
271.172	3.55
271.546	3.78
271.919	3.51
272.293	3.41
272.666	3.57
273.04	3.7
273.413	3.71
273.787	3.78
274.16	3.71
274.533	3.76
274.906	3.73
275.279	3.71
275.653	3.62
276.026	3.55
276.399	3.55
276.772	3.59
277.145	3.52
277.518	3.59
277.891	3.58
278.263	3.52
278.636	3.68
279.009	3.73
279.382	3.74
279.755	3.66
280.127	3.85
280.5	3.81
280.872	3.87
281.245	3.93
281.617	4.01
281.99	4.04
282.362	4
282.735	3.91
283.107	3.82
283.479	3.89
283.852	3.84
284.224	3.85
284.596	3.84
284.968	3.85
285.34	3.74
285.713	3.72
286.085	3.69
286.457	3.65
286.829	3.75
287.201	3.67
287.572	3.72
287.944	3.61
288.316	3.55
288.688	3.49
289.06	3.46
289.431	3.47
289.803	3.44
290.175	3.49
290.546	3.67
290.918	3.66
291.289	3.65
291.661	3.76
292.032	3.78
292.403	3.83
292.775	3.87
293.146	3.88
293.517	3.96
293.889	4.11
294.26	4.05
294.631	4.03
295.002	4.03
295.373	4.16
295.744	4.21
296.115	4.3
296.486	4.12
296.857	4.12
297.228	4.09
297.599	4
297.97	3.92
298.34	3.91
298.711	4
299.082	4.04
299.452	3.93
299.823	3.88
300.194	3.92
300.564	3.88
300.935	3.93
301.305	4
301.676	4.01
302.046	4.06
302.416	4.03
302.787	4.06
303.157	4.06
303.527	4.02
303.897	3.95
304.267	4.22
304.637	4.41
305.008	4.49
305.378	4.67
305.748	4.83
306.117	4.8
306.487	4.73
306.857	4.73
307.227	4.91
307.597	5.07
307.967	5.22
308.336	5.32
308.706	5.43
309.076	5.42
309.445	5.38
309.815	5.4
310.184	5.47
310.554	5.47
310.923	5.59
311.293	5.69
311.662	5.73
312.031	5.65
312.401	5.66
312.77	5.71
313.139	5.82
313.508	5.78
313.877	5.87
314.246	5.99
314.616	5.95
314.985	5.95
315.353	5.83
315.722	5.76
316.091	5.62
316.46	5.58
316.829	5.54
317.198	5.65
317.567	5.69
317.935	5.67
318.304	5.77
318.672	5.61
319.041	5.73
319.41	5.87
319.778	5.94
320.147	5.84
320.515	5.86
320.883	6.02
321.252	6.14
321.62	6.12
321.988	6.24
322.357	6.32
322.725	6.44
323.093	6.59
323.461	6.76
323.829	6.94
324.197	7.14
324.565	7.27
324.933	7.41
325.301	7.29
325.669	7.34
326.037	7.45
326.405	7.43
326.772	7.45
327.14	7.59
327.508	7.52
327.875	7.57
328.243	7.73
328.61	7.59
328.978	7.57
329.346	7.73
329.713	7.61
330.08	7.7
330.448	7.69
330.815	7.6
331.182	7.63
331.55	7.73
331.917	7.68
332.284	7.84
332.651	7.7
333.018	7.9
333.385	7.95
333.752	7.91
334.119	7.95
334.486	7.86
334.853	7.84
335.22	7.95
335.587	8.02
335.954	7.96
336.32	8.1
336.687	8.2
337.054	8.19
337.42	8.25
337.787	8.39
338.153	8.43
338.52	8.55
338.886	8.46
339.253	8.33
339.619	8.35
339.986	8.27
340.352	8.36
340.718	8.46
341.084	8.53
341.451	8.62
341.817	8.71
342.183	8.71
342.549	8.6
342.915	8.74
343.281	8.69
343.647	8.77
344.013	8.66
344.379	8.6
344.745	8.66
345.11	8.7
345.476	8.72
345.842	8.71
346.208	8.76
346.573	8.84
346.939	9
347.304	9
347.67	8.97
348.035	9.06
348.401	8.94
348.766	8.97
349.132	8.85
349.497	8.98
349.862	9.04
350.228	9.15
350.593	9.11
350.958	9.16
351.323	9.14
351.688	9.24
352.053	9.27
352.418	9.28
352.783	9.25
353.148	9.12
353.513	9.17
353.878	9.15
354.243	9.26
354.608	9.24
354.972	9.24
355.337	9.35
355.702	9.3
356.066	9.37
356.431	9.29
356.795	9.41
357.16	9.32
357.524	9.24
357.889	9.19
358.253	9.25
358.618	9.3
358.982	9.35
359.346	9.32
359.71	9.36
360.075	9.35
360.439	9.38
360.803	9.4
361.167	9.38
361.531	9.34
361.895	9.21
362.259	9.15
362.623	9.16
362.987	9.11
363.351	9.03
363.714	9.05
364.078	9.01
364.442	8.93
364.806	8.85
365.169	8.9
365.533	8.9
365.896	8.8
366.26	8.71
366.623	8.62
366.987	8.58
367.35	8.53
367.714	8.45
368.077	8.41
368.44	8.35
368.803	8.27
369.167	8.26
369.53	8.22
369.893	8.22
370.256	8.11
370.619	8.07
370.982	8.06
371.345	7.93
371.708	7.96
372.071	7.92
372.434	7.92
372.797	7.8
373.159	7.78
373.522	7.75
373.885	7.75
374.247	7.69
374.61	7.63
374.973	7.53
375.335	7.46
375.698	7.42
376.06	7.37
376.423	7.32
376.785	7.31
377.147	7.29
377.51	7.28
377.872	7.28
378.234	7.26
378.596	7.25
378.958	7.2
379.321	7.19
379.683	7.19
380.045	7.11
380.407	7.11
380.769	7.02
381.13	6.99
381.492	6.92
381.854	6.89
382.216	6.85
382.578	6.85
382.939	6.81
383.301	6.75
383.663	6.72
384.024	6.7
384.386	6.65
384.747	6.56
385.109	6.52
385.47	6.45
385.832	6.39
386.193	6.37
386.554	6.38
386.916	6.31
387.277	6.24
387.638	6.24
387.999	6.18
388.36	6.16
388.721	6.12
389.082	6.07
389.443	6.01
389.804	5.98
390.165	5.91
390.526	5.88
390.887	5.88
391.248	5.9
391.609	5.86
391.969	5.82
392.33	5.84
392.691	5.77
393.051	5.75
393.412	5.71
393.772	5.64
394.133	5.59
394.493	5.56
394.854	5.57
395.214	5.53
395.574	5.52
395.935	5.49
396.295	5.48
396.655	5.47
397.015	5.44
397.376	5.4
397.736	5.38
398.096	5.35
398.456	5.28
398.816	5.2
399.176	5.15
399.535	5.09
399.895	5.03
400.255	5.02
400.615	5.02
400.975	4.99
401.334	4.98
401.694	4.94
402.054	4.88
402.413	4.82
402.773	4.79
403.132	4.76
403.492	4.72
403.851	4.68
404.211	4.64
404.57	4.62
404.929	4.64
405.288	4.6
405.648	4.6
406.007	4.56
406.366	4.55
406.725	4.58
407.084	4.6
407.443	4.63
407.802	4.63
408.161	4.59
408.52	4.54
408.879	4.53
409.238	4.54
409.596	4.56
409.955	4.55
410.314	4.58
410.673	4.57
411.031	4.58
411.39	4.56
411.748	4.53
412.107	4.51
412.465	4.49
412.824	4.5
413.182	4.48
413.54	4.49
413.899	4.5
414.257	4.49
414.615	4.44
414.974	4.39
415.332	4.36
415.69	4.35
416.048	4.33
416.406	4.31
416.764	4.27
417.122	4.26
417.48	4.22
417.838	4.19
418.195	4.17
418.553	4.15
418.911	4.14
419.269	4.13
419.626	4.1
419.984	4.07
420.342	4.06
420.699	4.05
421.057	4.02
421.414	3.99
421.772	3.97
422.129	3.97
422.486	3.95
422.844	3.94
423.201	3.91
423.558	3.91
423.915	3.9
424.273	3.89
424.63	3.86
424.987	3.87
425.344	3.84
425.701	3.83
426.058	3.82
426.415	3.8
426.772	3.77
427.128	3.77
427.485	3.75
427.842	3.74
428.199	3.72
428.555	3.71
428.912	3.7
429.269	3.7
429.625	3.69
429.982	3.69
430.338	3.68
430.695	3.69
431.051	3.67
431.407	3.67
431.764	3.69
432.12	3.69
432.476	3.68
432.832	3.7
433.189	3.7
433.545	3.7
433.901	3.71
434.257	3.72
434.613	3.75
434.969	3.75
435.325	3.76
435.681	3.76
436.036	3.76
436.392	3.77
436.748	3.76
437.104	3.74
437.459	3.73
437.815	3.73
438.171	3.74
438.526	3.75
438.882	3.76
439.237	3.76
439.593	3.76
439.948	3.76
440.304	3.77
440.659	3.75
441.014	3.74
441.369	3.73
441.725	3.71
442.08	3.71
442.435	3.72
442.79	3.71
443.145	3.7
443.5	3.7
443.855	3.68
444.21	3.67
444.565	3.67
444.92	3.67
445.275	3.67
445.629	3.65
445.984	3.65
446.339	3.62
446.693	3.6
447.048	3.58
447.403	3.56
447.757	3.55
448.112	3.55
448.466	3.54
448.82	3.55
449.175	3.56
449.529	3.54
449.883	3.5
450.238	3.48
450.592	3.49
450.946	3.49
451.3	3.49
451.654	3.49
452.008	3.48
452.362	3.45
452.716	3.45
453.07	3.47
453.424	3.45
453.778	3.45
454.132	3.46
454.486	3.47
454.839	3.47
455.193	3.46
455.547	3.48
455.9	3.49
456.254	3.48
456.607	3.47
456.961	3.49
457.314	3.5
457.668	3.51
458.021	3.48
458.375	3.49
458.728	3.51
459.081	3.52
459.434	3.51
459.787	3.56
460.141	3.55
460.494	3.54
460.847	3.54
461.2	3.54
461.553	3.53
461.906	3.53
462.259	3.54
462.611	3.57
462.964	3.58
463.317	3.59
463.67	3.6
464.022	3.6
464.375	3.58
464.728	3.58
465.08	3.6
465.433	3.64
465.785	3.64
466.138	3.62
466.49	3.62
466.843	3.64
467.195	3.64
467.547	3.68
467.899	3.69
468.252	3.68
468.604	3.71
468.956	3.74
469.308	3.78
469.66	3.78
470.012	3.79
470.364	3.79
470.716	3.78
471.068	3.78
471.42	3.81
471.772	3.85
472.123	3.87
472.475	3.87
472.827	3.86
473.178	3.86
473.53	3.87
473.882	3.9
474.233	3.92
474.585	3.87
474.936	3.84
475.288	3.86
475.639	3.89
475.99	3.9
476.342	3.86
476.693	3.84
477.044	3.82
477.395	3.82
477.746	3.81
478.097	3.81
478.448	3.83
478.8	3.82
479.15	3.79
479.501	3.77
479.852	3.76
480.203	3.76
480.554	3.76
480.905	3.77
481.255	3.75
481.606	3.75
481.957	3.77
482.307	3.77
482.658	3.76
483.009	3.76
483.359	3.75
483.709	3.77
484.06	3.77
484.41	3.77
484.761	3.78
485.111	3.78
485.461	3.78
485.811	3.79
486.162	3.79
486.512	3.79
486.862	3.8
487.212	3.81
487.562	3.82
487.912	3.82
488.262	3.82
488.612	3.82
488.961	3.82
489.311	3.83
489.661	3.84
490.011	3.83
490.36	3.84
490.71	3.83
491.06	3.84
491.409	3.84
491.759	3.84
492.108	3.84
492.458	3.84
492.807	3.85
493.157	3.84
493.506	3.86
493.855	3.86
494.204	3.86
494.554	3.88
494.903	3.88
495.252	3.88
495.601	3.89
495.95	3.93
496.299	3.94
496.648	3.95
496.997	3.97
497.346	4
497.695	4.04
498.043	4.06
498.392	4.09
498.741	4.09
499.09	4.13
499.438	4.16
499.787	4.17
500.135	4.22
500.484	4.25
500.832	4.29
501.181	4.35
501.529	4.4
501.878	4.45
502.226	4.49
502.574	4.55
502.923	4.61
503.271	4.66
503.619	4.71
503.967	4.76
504.315	4.83
504.663	4.89
505.011	4.93
505.359	5.02
505.707	5.09
506.055	5.18
506.403	5.26
506.751	5.34
507.098	5.43
507.446	5.5
507.794	5.56
508.141	5.64
508.489	5.71
508.837	5.79
509.184	5.87
509.531	5.94
509.879	6.05
510.226	6.15
510.574	6.22
510.921	6.33
511.268	6.41
511.616	6.49
511.963	6.6
512.31	6.71
512.657	6.8
513.004	6.9
513.351	7.03
513.698	7.13
514.045	7.23
514.392	7.35
514.739	7.49
515.086	7.64
515.432	7.74
515.779	7.85
516.126	7.98
516.473	8.12
516.819	8.25
517.166	8.32
517.512	8.42
517.859	8.55
518.205	8.66
518.552	8.78
518.898	8.91
519.245	9.01
519.591	9.13
519.937	9.26
520.283	9.38
520.629	9.54
520.976	9.68
521.322	9.86
521.668	10.03
522.014	10.17
522.36	10.32
522.706	10.53
523.052	10.76
523.398	10.98
523.743	11.21
524.089	11.44
524.435	11.67
524.781	11.89
525.126	12.09
525.472	12.29
525.817	12.49
526.163	12.67
526.509	12.85
526.854	12.99
527.199	13.14
527.545	13.29
527.89	13.43
528.235	13.59
528.581	13.77
528.926	13.93
529.271	14.11
529.616	14.28
529.961	14.46
530.306	14.62
530.651	14.8
530.996	15
531.341	15.21
531.686	15.42
532.031	15.66
532.376	15.9
532.721	16.12
533.065	16.37
533.41	16.61
533.755	16.88
534.099	17.17
534.444	17.44
534.788	17.72
535.133	17.98
535.477	18.25
535.822	18.51
536.166	18.83
536.51	19.14
536.855	19.47
537.199	19.81
537.543	20.18
537.887	20.57
538.231	20.91
538.576	21.26
538.92	21.66
539.264	22.03
539.608	22.37
539.951	22.7
540.295	22.97
540.639	23.25
540.983	23.5
541.327	23.75
541.671	24.04
542.014	24.33
542.358	24.61
542.701	24.89
543.045	25.21
543.389	25.48
543.732	25.77
544.075	26.09
544.419	26.41
544.762	26.74
545.105	27.04
545.449	27.39
545.792	27.78
546.135	28.11
546.478	28.46
546.821	28.83
547.165	29.22
547.508	29.68
547.851	30.12
548.194	30.57
548.536	30.99
548.879	31.41
549.222	31.74
549.565	32.16
549.908	32.53
550.25	32.87
550.593	33.26
550.936	33.7
551.278	34.08
551.621	34.44
551.963	34.84
552.306	35.22
552.648	35.53
552.991	35.89
553.333	36.23
553.675	36.54
554.017	36.9
554.36	37.25
554.702	37.54
555.044	37.86
555.386	38.16
555.728	38.51
556.07	38.85
556.412	39.23
556.754	39.52
557.096	39.87
557.438	40.19
557.78	40.49
558.121	40.81
558.463	41.15
558.805	41.52
559.147	41.82
559.488	42.15
559.83	42.5
560.171	42.79
560.513	43.11
560.854	43.36
561.196	43.65
561.537	43.87
561.878	44.18
562.22	44.43
562.561	44.78
562.902	45.03
563.243	45.33
563.584	45.56
563.925	45.83
564.266	46.16
564.607	46.45
564.948	46.73
565.289	46.95
565.63	47.21
565.971	47.4
566.312	47.59
566.653	47.85
566.993	48.09
567.334	48.27
567.675	48.48
568.015	48.73
568.356	48.97
568.696	49.25
569.037	49.43
569.377	49.64
569.718	49.78
570.058	49.98
570.398	50.16
570.739	50.35
571.079	50.58
571.419	50.74
571.759	50.87
572.099	51
572.439	51.17
572.779	51.27
573.119	51.37
573.459	51.57
573.799	51.74
574.139	51.88
574.479	52.05
574.819	52.26
575.158	52.38
575.498	52.5
575.838	52.58
576.177	52.7
576.517	52.86
576.856	53.05
577.196	53.22
577.535	53.33
577.875	53.45
578.214	53.51
578.553	53.69
578.893	53.9
579.232	54.08
579.571	54.22
579.91	54.39
580.25	54.58
580.589	54.65
580.928	54.74
581.267	54.87
581.606	54.98
581.945	55
582.283	55.14
582.622	55.25
582.961	55.4
583.3	55.56
583.639	55.71
583.977	55.75
584.316	55.88
584.654	56
584.993	56.18
585.332	56.41
585.67	56.48
586.008	56.48
586.347	56.54
586.685	56.59
587.024	56.62
587.362	56.71
587.7	56.88
588.038	57.08
588.376	57.15
588.715	57.27
589.053	57.37
589.391	57.51
589.729	57.52
590.067	57.62
590.404	57.69
590.742	57.73
591.08	57.93
591.418	57.92
591.756	58.02
592.093	58.11
592.431	58.2
592.769	58.2
593.106	58.34
593.444	58.47
593.781	58.57
594.119	58.75
594.456	58.83
594.793	58.88
595.131	58.88
595.468	58.94
595.805	58.97
596.143	59
596.48	58.99
596.817	59.14
597.154	59.2
597.491	59.24
597.828	59.27
598.165	59.3
598.502	59.46
598.839	59.48
599.176	59.55
599.512	59.63
599.849	59.7
600.186	59.75
600.523	59.86
600.859	59.97
601.196	60.02
601.532	60.03
601.869	60.17
602.205	60.24
602.542	60.34
602.878	60.41
603.215	60.47
603.551	60.56
603.887	60.58
604.223	60.62
604.56	60.67
604.896	60.79
605.232	60.82
605.568	60.79
605.904	60.91
606.24	60.94
606.576	60.92
606.912	61
607.248	61.04
607.583	61.05
607.919	61.14
608.255	61.21
608.591	61.33
608.926	61.33
609.262	61.36
609.597	61.42
609.933	61.47
610.268	61.55
610.604	61.61
610.939	61.66
611.275	61.77
611.61	61.8
611.945	61.77
612.281	61.89
612.616	61.98
612.951	62.04
613.286	62.16
613.621	62.16
613.956	62.27
614.291	62.37
614.626	62.4
614.961	62.37
615.296	62.41
615.631	62.46
615.966	62.52
616.3	62.6
616.635	62.56
616.97	62.63
617.304	62.75
617.639	62.85
617.973	62.99
618.308	62.98
618.642	63.1
618.977	63.08
619.311	63.06
619.646	63.16
619.98	63.19
620.314	63.18
620.648	63.25
620.983	63.29
621.317	63.27
621.651	63.38
621.985	63.44
622.319	63.4
622.653	63.47
622.987	63.52
623.321	63.52
623.655	63.58
623.988	63.66
624.322	63.66
624.656	63.7
624.99	63.61
625.323	63.68
625.657	63.67
625.99	63.8
626.324	63.84
626.657	63.82
626.991	63.88
627.324	63.93
627.658	63.94
627.991	63.96
628.324	64.04
628.657	64.02
628.991	64.01
629.324	64.14
629.657	64.12
629.99	64.03
630.323	64.1
630.656	64.23
630.989	64.25
631.322	64.18
631.655	64.23
631.987	64.37
632.32	64.45
632.653	64.55
632.986	64.47
633.318	64.46
633.651	64.59
633.984	64.59
634.316	64.57
634.649	64.63
634.981	64.73
635.313	64.71
635.646	64.76
635.978	64.74
636.31	64.78
636.643	64.78
636.975	64.82
637.307	64.81
637.639	64.7
637.971	64.55
638.303	64.61
638.635	64.54
638.967	64.48
639.299	64.29
639.631	64.2
639.963	64.32
640.295	64.45
640.626	64.51
640.958	64.45
641.29	64.54
641.621	64.6
641.953	64.55
642.285	64.71
642.616	64.68
642.948	64.73
643.279	64.72
643.61	64.76
643.942	64.9
644.273	64.87
644.604	64.97
644.936	65.16
645.267	65.24
645.598	65.26
645.929	65.42
646.26	65.46
646.591	65.52
646.922	65.44
647.253	65.34
647.584	65.24
647.915	65.35
648.245	65.24
648.576	65.27
648.907	65.31
649.238	65.28
649.568	65.43
649.899	65.54
650.229	65.45
650.56	65.46
650.89	65.41
651.221	65.49
651.551	65.5
651.882	65.58
652.212	65.7
652.542	65.68
652.872	65.64
653.203	65.94
653.533	65.91
653.863	65.99
654.193	66.16
654.523	66.17
654.853	66.16
655.183	66.25
655.513	66.29
655.843	66.26
656.172	66.36
656.502	66.24
656.832	66.15
657.162	66.23
657.491	66.33
657.821	66.44
658.15	66.53
658.48	66.44
658.809	66.42
659.139	66.38
659.468	66.45
659.798	66.42
660.127	66.27
660.456	66.38
660.785	66.53
661.115	66.39
661.444	66.33
661.773	66.31
662.102	66.3
662.431	66.28
662.76	66.33
663.089	66.33
663.418	66.32
663.747	66.4
664.076	66.4
664.404	66.21
664.733	66.15
665.062	66.04
665.39	66.19
665.719	66.2
666.048	66.21
666.376	66.35
666.705	66.35
667.033	66.34
667.362	66.39
667.69	66.22
668.018	66.2
668.347	66.36
668.675	66.46
669.003	66.59
669.331	66.74
669.659	66.77
669.987	66.8
670.315	66.96
670.643	67.05
670.971	67.14
671.299	67.32
671.627	67.42
671.955	67.41
672.283	67.38
672.61	67.41
672.938	67.41
673.266	67.28
673.593	67.36
673.921	67.27
674.249	67.26
674.576	67.36
674.904	67.54
675.231	67.62
675.558	67.63
675.886	67.65
676.213	67.71
676.54	67.68
676.867	67.68
677.195	67.57
677.522	67.68
677.849	67.68
678.176	67.68
678.503	67.65
678.83	67.69
679.157	67.72
679.484	67.8
679.81	67.81
680.137	67.77
680.464	67.7
680.791	67.87
681.117	67.87
681.444	67.82
681.771	67.7
682.097	67.61
682.424	67.6
682.75	67.64
683.077	67.56
683.403	67.53
683.729	67.43
684.056	67.55
684.382	67.44
684.708	67.37
685.034	67.41
685.36	67.51
685.686	67.46
686.012	67.55
686.339	67.5
686.664	67.66
686.99	67.65
687.316	67.7
687.642	67.64
687.968	67.73
688.294	67.82
688.619	67.89
688.945	67.91
689.271	67.91
689.596	67.78
689.922	67.71
690.247	67.59
690.573	67.45
690.898	67.45
691.224	67.25
691.549	67.28
691.874	67.24
692.2	67.26
692.525	67.34
692.85	67.23
693.175	67.19
693.5	67.1
693.825	67.07
694.15	67
694.475	67.07
694.8	67.07
695.125	66.98
695.45	66.89
695.775	66.97
696.099	67.04
696.424	67.03
696.749	67.15
697.073	67.3
697.398	67.43
697.723	67.36
698.047	67.45
698.372	67.42
698.696	67.4
699.02	67.28
699.345	67.12
699.669	67.16
699.993	67.05
700.318	66.91
700.642	67.08
700.966	66.98
701.29	66.99
701.614	66.89
701.938	66.98
702.262	67.06
702.586	67.05
702.91	67.07
703.234	67.13
703.557	67.1
703.881	67.17
704.205	67.17
704.529	67.25
704.852	67.3
705.176	67.18
705.499	67.26
705.823	67.35
706.146	67.59
706.47	67.59
706.793	67.74
707.117	67.8
707.44	67.88
707.763	68.15
708.086	68.18
708.409	68.23
708.733	68.34
709.056	68.29
709.379	68.18
709.702	68.02
710.025	67.87
710.348	67.92
710.671	67.95
710.993	67.98
711.316	68.13
711.639	68.13
711.962	68.19
712.284	68.16
712.607	68.12
712.93	68.09
713.252	68
713.575	68.1
713.897	68.21
714.22	68.15
714.542	68.04
714.864	67.95
715.187	67.89
715.509	67.7
715.831	67.83
716.153	67.9
716.475	67.93
716.798	68
717.12	67.71
717.442	67.44
717.764	67.37
718.085	67.2
718.407	67.08
718.729	67.24
719.051	67.31
719.373	67.26
719.695	67.21
720.016	67.41
720.338	67.34
720.659	67.23
720.981	67.1
721.302	67.07
721.624	67.44
721.945	67.46
722.267	67.66
722.588	67.57
722.909	67.64
723.231	67.68
723.552	67.67
723.873	67.95
724.194	68.13
724.515	68.18
724.836	68.43
725.157	68.71
725.478	68.61
725.799	68.58
726.12	68.62
726.441	68.8
726.762	68.61
727.083	68.5
727.403	68.63
727.724	68.66
728.045	68.71
728.365	68.58
728.686	68.56
729.006	68.55
729.327	68.81
729.647	68.75
729.967	68.75
730.288	68.88
730.608	68.72
730.928	68.75
731.249	68.71
731.569	68.71
731.889	68.79
732.209	68.63
732.529	68.66
732.849	68.68
733.169	68.62
733.489	68.78
733.809	68.99
734.129	68.67
734.448	68.6
734.768	68.78
735.088	68.67
735.408	68.71
735.727	68.39
736.047	68.4
736.366	68.39
736.686	68.32
737.005	68.28
737.325	68.47
737.644	68.75
737.963	68.84
738.283	68.33
738.602	68.48
738.921	68.62
739.24	68.69
739.56	68.76
739.879	68.83
740.198	68.89
740.517	68.79
740.836	69.11
741.155	69.18
741.473	68.96
741.792	68.76
742.111	68.93
742.43	69.41
742.748	69.14
743.067	68.92
743.386	69.09
743.704	69
744.023	69.07
744.341	68.65
744.66	68.57
744.978	69.04
745.297	68.54
745.615	68.61
745.933	68.58
746.252	68.74
746.57	68.87
746.888	68.89
747.206	68.77
747.524	68.82
747.842	69.02
748.16	69.23
748.478	69.38
748.796	69.05
749.114	68.87
749.432	68.79
749.749	69.27
750.067	69.22
750.385	69.43
750.703	69.39
751.02	69.32
751.338	69.5
751.655	69.31
751.973	69.34
752.29	69.44
752.608	68.98
752.925	68.6
753.242	68.63
753.56	68.13
753.877	68.24
754.194	68.27
754.511	68.01
754.828	67.94
755.145	67.83
755.462	67.88
755.779	67.83
756.096	67.99
756.413	67.81
756.73	68.2
757.047	68.31
757.364	68.12
757.68	68.27
757.997	68.6
758.314	68.49
758.63	68.65
758.947	68.67
759.264	68.98
759.58	69.14
759.896	69.26
760.213	69.64
760.529	69.85
760.846	69.7
761.162	70.07
761.478	70.11
761.794	70.27
762.11	70.23
762.426	70.35
762.743	70.23
763.059	70.24
763.375	70.22
763.69	70.14
764.006	70.07
764.322	70.04
764.638	70.09
764.954	70.34
765.27	70.24
765.585	70.18
765.901	70.29
766.216	70.42
766.532	70.22
766.848	70.29
767.163	70.1
767.478	70.37
767.794	69.87
768.109	69.94
768.424	70.02
768.74	70.21
769.055	70.29
769.37	70.38
769.685	70.29
770	70.19
770.315	70.46
770.63	70.67
770.945	70.77
771.26	70.19
771.575	70.4
771.89	70.78
772.205	70.95
772.52	70.78
772.834	70.42
773.149	70.46
773.464	70.42
773.778	71.11
774.093	70.58
774.407	71.09
774.722	71.04
775.036	70.81
775.351	70.85
775.665	70.76
775.979	70.84
776.293	71.15
776.608	70.42
776.922	69.52
777.236	69.18
777.55	69.61
777.864	69.94
778.178	69.59
778.492	69.7
778.806	69.27
779.12	69.14
779.434	69.04
779.747	68.71
780.061	68.78
780.375	67.83
780.689	68.08
781.002	67.92
781.316	67.73
781.629	67.98
781.943	68.35
782.256	68.08
782.57	68.28
782.883	68.14
783.196	68.2
783.51	68.64
783.823	69.25
784.136	68.8
784.449	68.7
784.762	68.79
785.075	68.28
785.388	68.42
785.701	68.37
786.014	68.31
786.327	68.92
786.64	69.26
786.953	70.09
787.266	70.43
787.578	70.26
787.891	70.34
788.204	70.38
788.516	70.15
788.829	69.97
789.141	70.24
789.454	70.51
789.766	70.5
790.079	70.14
790.391	69.15
790.703	69.19
791.016	68.86
791.328	68.44
791.64	68.91
791.952	69.03
792.264	69.8
792.576	69.75
792.888	69.64
793.2	69.2
793.512	68.14
793.824	67.58
794.136	68.4
794.448	67.92
794.76	67.73
795.071	66.98
795.383	67.24
795.695	66.43
796.006	66.03
796.318	66.66
796.629	67.15
796.941	68.6
797.252	69.04
797.564	68.99
797.875	69.43
798.186	68.63
798.497	68.84
798.809	68.61
799.12	68.75
799.431	68.78
799.742	68.37
800.053	68.87
800.364	69.09
800.675	68.44
800.986	68.73
801.297	68.29
801.608	68.5
801.918	68.28
802.229	68.32
802.54	68.56
802.851	67.92
803.161	68.1
803.472	67.86
803.782	66.56
804.093	66.63
804.403	66.48
804.714	66.94
805.024	66.65
805.334	66.5
805.645	66.92
805.955	66.31
806.265	66.3
806.575	66.13
806.885	66.44
807.195	66.94
807.505	67.03
807.815	67.14
808.125	67
808.435	67.67
808.745	67.97
809.055	67.74
809.365	68.46
809.674	68.66
809.984	67.84
810.294	68.93
810.603	69.08
810.913	68.97
811.222	68.98
811.532	68.96
811.841	69.04
812.151	69.29
812.46	69.55
812.769	69.94
813.079	69.87
813.388	69.58
813.697	69.24
814.006	68.68
814.315	69.19
814.624	69.62
814.933	69.33
815.242	69.22
815.551	69.58
815.86	68.51
816.169	68.4
816.478	68.86
816.786	69.09
817.095	69.2
817.404	69.46
817.712	68.92
818.021	69.06
818.33	69.13
818.638	68.85
818.947	69.26
819.255	69.64
819.563	69.97
819.872	70.39
820.18	70.51
820.488	70.78
820.796	71.07
821.105	71.27
821.413	71.52
821.721	71.6
822.029	71.71
822.337	72.22
822.645	72.1
822.953	72.07
823.26	71.88
823.568	71.83
823.876	71.63
824.184	71.68
824.491	71.94
824.799	71.99
825.107	71.99
825.414	71.96
825.722	71.9
826.029	72.04
826.337	71.96
826.644	72.27
826.951	72.49
827.259	72.25
827.566	72.28
827.873	72.22
828.18	72.04
828.488	71.84
828.795	71.41
829.102	71.47
829.409	71.62
829.716	71.98
830.023	72.21
830.329	72.44
830.636	72.66
830.943	72.09
831.25	72.03
831.557	72.29
831.863	72.5
832.17	72.37
832.476	71.77
832.783	71.2
833.089	70.22
833.396	70.02
833.702	69.93
834.009	69.61
834.315	69.62
834.621	69.7
834.928	69.7
835.234	69.49
835.54	69.41
835.846	69.24
836.152	68.87
836.458	68.53
836.764	68.92
837.07	68.53
837.376	68.1
837.682	67.28
837.988	66.82
838.293	66.32
838.599	66.55
838.905	66.63
839.211	67.64
839.516	67.6
839.822	66.59
840.127	66.23
840.433	65.83
840.738	64.85
841.044	65.57
841.349	65.38
841.654	65.71
841.959	64.8
842.265	64.42
842.57	64.5
842.875	65.04
843.18	64.03
843.485	64.27
843.79	65.07
844.095	65.81
844.4	66.12
844.705	66.91
845.01	65.88
845.315	65.51
845.619	64.07
845.924	64.03
846.229	65.04
846.533	65.93
846.838	66.86
847.142	67.03
847.447	66.17
847.751	65.72
848.056	64.82
848.36	67.92
848.664	68.13
848.969	66.07
849.273	66.29
849.577	67.7
849.881	69.75
850.185	69.94
850.489	70.46
850.794	69.83
851.097	68.37
851.401	68.26
851.705	68.58
852.009	66.1
852.313	66.1
852.617	63.72
852.92	62.49
853.224	61.48
853.528	62.29
853.831	61.67
854.135	61.39
854.438	62.15
854.742	59.25
855.045	60.79
855.349	63.83
855.652	62.3
855.955	62.61
856.259	58.55
856.562	58.86
856.865	59
857.168	59.95
857.471	60.44
857.774	60.74
858.077	59.07
858.38	60.64
858.683	58.85
858.986	60.88
859.289	62.44
859.592	61.22
859.894	61.25
860.197	62.01
860.5	62.55
860.802	61.46
861.105	63.72
861.407	61.3
861.71	59.71
862.012	58.92
862.315	56.85
862.617	57.48
862.919	56.49
863.222	56.67
863.524	57.18
863.826	56.49
864.128	56.75
864.43	59.63
864.732	61.4
865.034	61.26
865.336	62.05
865.638	59.18
865.94	61.67
866.242	60.05
866.544	58.81
866.846	58.2
867.147	59.89
867.449	59.13
867.751	59.65
868.052	61.82
868.354	62.47
868.655	61.42
868.957	62.86
869.258	63.96
869.56	63.11
869.861	61.51
870.162	63.1
870.463	62.12
870.765	60.87
871.066	58.36
871.367	60.61
871.668	60.94
871.969	63.69
872.27	64.58
872.571	63.82
872.872	65.32
873.173	66.53
873.473	63.43
873.774	62.63
874.075	62.3
874.376	57.5
874.676	58.98
874.977	62.98
875.277	64.89
875.578	66.06
875.878	66.07
876.179	67.05
876.479	65.37
876.78	66.42
877.08	67.37
877.38	70.53
877.68	70.35
877.981	69.37
878.281	69.09
878.581	66.13
