Data from BA57758_Reflection_00006.txt Node
Date: Mon Nov 18 15:11:27 EST 2019
User: vgr7
Spectrometer: USB2G7710
Scans to average: 3
Trigger mode: 4
Integration Time (sec): 2.000000E-2
Electric dark correction enabled: true
Boxcar width: 10
XAxis mode: Wavelengths
Number of Pixels in Spectrum: 2048
>>>>>Begin Spectral Data<<<<<
177.721	-499.19
178.105	-52.47
178.488	-7.51
178.871	127.92
179.254	247.76
179.636	-175.42
180.019	-632.67
180.402	-560
180.785	-78.5
181.168	-44.02
181.55	-10.9
181.933	60.46
182.316	62.7
182.698	69.06
183.081	16.32
183.463	-73.7
183.846	-77.99
184.228	-94.25
184.611	-78.77
184.993	-75.69
185.376	-35.82
185.758	-48.01
186.14	11.37
186.522	-4.03
186.904	27.44
187.287	53.67
187.669	27.94
188.051	35.44
188.433	-15.36
188.815	-44.66
189.197	-24.27
189.579	-39.86
189.961	-47.99
190.342	85.87
190.724	-174.88
191.106	77.9
191.488	1113.7
191.869	-304.18
192.251	-132.56
192.633	-108.29
193.014	-121.64
193.396	-48.91
193.777	-197.64
194.159	-80.87
194.54	-74.78
194.922	-41.19
195.303	-17.41
195.684	-38.7
196.065	0.92
196.447	-12.68
196.828	-28.63
197.209	-30.45
197.59	-47.18
197.971	-35.37
198.352	-23.78
198.733	-38.52
199.114	-32.85
199.495	-17.54
199.876	-10
200.257	-8.11
200.638	-6.49
201.018	-17.53
201.399	-32.16
201.78	-8.92
202.16	-11.81
202.541	-23.51
202.922	-44.09
203.302	-72.59
203.683	-83.42
204.063	-197.06
204.444	-223.98
204.824	-244.1
205.204	-498.43
205.585	-235.65
205.965	-360.43
206.345	-239.08
206.725	-487.83
207.106	-768.89
207.486	-571.45
207.866	-530.69
208.246	-958.37
208.626	-1076.47
209.006	-291.72
209.386	10740
209.766	-572.38
210.145	-492.08
210.525	-890.54
210.905	-186.07
211.285	-82.06
211.664	-51.46
212.044	-43.22
212.424	-23.14
212.803	-23.45
213.183	-18.98
213.562	-16.84
213.942	-13.27
214.321	-5.74
214.701	10.79
215.08	10.92
215.459	7.89
215.838	-2.02
216.218	-18.28
216.597	-16.13
216.976	1.14
217.355	3.86
217.734	-6.75
218.113	-7.35
218.492	2.93
218.871	1.73
219.25	2.46
219.629	13.12
220.008	14.74
220.387	7.7
220.766	25.01
221.144	26.13
221.523	4.53
221.902	-29.5
222.28	-43.65
222.659	-42.13
223.037	-21.65
223.416	-22.97
223.794	-21.76
224.173	-21.66
224.551	-10.74
224.929	-16.67
225.308	-13.76
225.686	-4.37
226.064	-3.18
226.442	-0.98
226.821	2.42
227.199	-1.35
227.577	-3.29
227.955	-4.32
228.333	-4.5
228.711	-5.9
229.089	-2.51
229.467	-2.66
229.845	-1.03
230.222	2.62
230.6	-0.43
230.978	-3.27
231.356	-1.66
231.733	-0.49
232.111	0.67
232.488	-0.25
232.866	-0.09
233.243	1.72
233.621	2.73
233.998	4.06
234.376	1.75
234.753	2.54
235.13	2
235.508	3.45
235.885	3.86
236.262	4.64
236.639	5.02
237.016	4.86
237.393	6.78
237.77	7.29
238.147	6.47
238.524	7.16
238.901	8.67
239.278	9.07
239.655	9.84
240.032	10.01
240.409	9.41
240.785	9.1
241.162	9.32
241.539	9.12
241.915	8.8
242.292	8.28
242.668	8.21
243.045	8.36
243.421	7.77
243.798	7.58
244.174	7.73
244.551	7.87
244.927	7.98
245.303	7.79
245.679	7.85
246.056	7.84
246.432	7.92
246.808	7.97
247.184	7.77
247.56	7.63
247.936	7.88
248.312	7.81
248.688	7.91
249.064	7.86
249.44	7.93
249.815	7.95
250.191	8.09
250.567	8.17
250.943	8.08
251.318	8.2
251.694	8.47
252.069	8.24
252.445	8.4
252.82	8.1
253.196	8.57
253.571	8.62
253.947	8.68
254.322	8.59
254.697	8.1
255.073	8
255.448	7.59
255.823	7.04
256.198	7.25
256.573	7.02
256.948	6.95
257.323	6.76
257.698	6.75
258.073	6.92
258.448	6.57
258.823	6.68
259.198	6.58
259.573	6.45
259.948	6.56
260.322	6.54
260.697	6.57
261.072	6.37
261.446	6.46
261.821	6.39
262.195	6.32
262.57	6.37
262.944	6.36
263.319	6.34
263.693	6.34
264.067	6.38
264.442	6.46
264.816	6.36
265.19	6.45
265.564	6.42
265.938	6.31
266.313	6.41
266.687	6.4
267.061	6.64
267.435	6.68
267.809	6.6
268.183	6.62
268.556	6.72
268.93	6.76
269.304	6.85
269.678	6.74
270.051	6.99
270.425	6.91
270.799	6.81
271.172	6.88
271.546	6.8
271.919	6.8
272.293	6.7
272.666	6.83
273.04	6.78
273.413	6.78
273.787	6.84
274.16	6.81
274.533	6.74
274.906	6.49
275.279	6.5
275.653	6.37
276.026	6.23
276.399	6.21
276.772	6.11
277.145	5.83
277.518	5.94
277.891	5.71
278.263	5.77
278.636	5.82
279.009	5.84
279.382	6
279.755	5.81
280.127	6.09
280.5	6.02
280.872	6.11
281.245	6.1
281.617	6.31
281.99	6.53
282.362	6.54
282.735	6.46
283.107	6.36
283.479	6.55
283.852	6.61
284.224	6.52
284.596	6.49
284.968	6.61
285.34	6.73
285.713	6.65
286.085	6.8
286.457	6.85
286.829	6.84
287.201	6.9
287.572	6.96
287.944	6.9
288.316	6.85
288.688	6.86
289.06	6.89
289.431	6.83
289.803	6.71
290.175	6.85
290.546	7.1
290.918	7.22
291.289	7.04
291.661	7.14
292.032	7.21
292.403	7.24
292.775	7.28
293.146	7.15
293.517	7.29
293.889	7.23
294.26	7.33
294.631	7.43
295.002	7.5
295.373	7.57
295.744	7.5
296.115	7.63
296.486	7.56
296.857	7.57
297.228	7.56
297.599	7.6
297.97	7.58
298.34	7.63
298.711	7.67
299.082	7.79
299.452	7.75
299.823	7.89
300.194	7.99
300.564	8.06
300.935	8.04
301.305	8.08
301.676	8.22
302.046	8.28
302.416	8.31
302.787	8.21
303.157	8.28
303.527	8.27
303.897	8.32
304.267	8.47
304.637	8.46
305.008	8.48
305.378	8.67
305.748	8.75
306.117	8.65
306.487	8.62
306.857	8.61
307.227	8.72
307.597	8.71
307.967	8.83
308.336	8.79
308.706	8.9
309.076	8.89
309.445	8.74
309.815	8.67
310.184	8.59
310.554	8.55
310.923	8.45
311.293	8.48
311.662	8.39
312.031	8.27
312.401	8.33
312.77	8.34
313.139	8.3
313.508	8.25
313.877	8.27
314.246	8.36
314.616	8.33
314.985	8.24
315.353	8.14
315.722	7.99
316.091	7.76
316.46	7.79
316.829	7.83
317.198	7.94
317.567	7.97
317.935	7.94
318.304	7.99
318.672	8.07
319.041	8.14
319.41	8.22
319.778	8.24
320.147	8.4
320.515	8.32
320.883	8.17
321.252	8.1
321.62	8.17
321.988	8.06
322.357	8.21
322.725	8.2
323.093	8.22
323.461	8.24
323.829	8.37
324.197	8.35
324.565	8.26
324.933	8.21
325.301	8.2
325.669	8.27
326.037	8.35
326.405	8.34
326.772	8.37
327.14	8.34
327.508	8.38
327.875	8.27
328.243	8.34
328.61	8.37
328.978	8.5
329.346	8.48
329.713	8.46
330.08	8.44
330.448	8.45
330.815	8.4
331.182	8.31
331.55	8.27
331.917	8.33
332.284	8.44
332.651	8.42
333.018	8.48
333.385	8.51
333.752	8.48
334.119	8.49
334.486	8.44
334.853	8.38
335.22	8.46
335.587	8.45
335.954	8.53
336.32	8.61
336.687	8.56
337.054	8.51
337.42	8.54
337.787	8.44
338.153	8.43
338.52	8.62
338.886	8.65
339.253	8.83
339.619	8.66
339.986	8.7
340.352	8.64
340.718	8.63
341.084	8.58
341.451	8.52
341.817	8.54
342.183	8.55
342.549	8.61
342.915	8.54
343.281	8.58
343.647	8.39
344.013	8.42
344.379	8.27
344.745	8.27
345.11	8.29
345.476	8.41
345.842	8.38
346.208	8.22
346.573	8.25
346.939	8.15
347.304	8.23
347.67	8.1
348.035	8.09
348.401	7.98
348.766	7.99
349.132	7.94
349.497	7.85
349.862	7.88
350.228	7.87
350.593	7.93
350.958	7.94
351.323	8.09
351.688	8.04
352.053	8.14
352.418	8.13
352.783	8.13
353.148	8.12
353.513	8.11
353.878	8.16
354.243	8.18
354.608	8.25
354.972	8.26
355.337	8.33
355.702	8.44
356.066	8.6
356.431	8.64
356.795	8.73
357.16	8.78
357.524	8.72
357.889	8.64
358.253	8.62
358.618	8.61
358.982	8.57
359.346	8.54
359.71	8.53
360.075	8.57
360.439	8.59
360.803	8.53
361.167	8.5
361.531	8.46
361.895	8.46
362.259	8.44
362.623	8.41
362.987	8.36
363.351	8.36
363.714	8.29
364.078	8.21
364.442	8.16
364.806	8.09
365.169	8.1
365.533	8.16
365.896	8.14
366.26	8.11
366.623	8.13
366.987	8.15
367.35	8.18
367.714	8.18
368.077	8.16
368.44	8.19
368.803	8.19
369.167	8.16
369.53	8.19
369.893	8.18
370.256	8.25
370.619	8.32
370.982	8.26
371.345	8.17
371.708	8.23
372.071	8.24
372.434	8.33
372.797	8.4
373.159	8.35
373.522	8.36
373.885	8.33
374.247	8.3
374.61	8.3
374.973	8.3
375.335	8.31
375.698	8.22
376.06	8.18
376.423	8.2
376.785	8.28
377.147	8.27
377.51	8.28
377.872	8.24
378.234	8.21
378.596	8.21
378.958	8.16
379.321	8.17
379.683	8.18
380.045	8.15
380.407	8.15
380.769	8.23
381.13	8.2
381.492	8.26
381.854	8.24
382.216	8.21
382.578	8.16
382.939	8.11
383.301	8.21
383.663	8.23
384.024	8.22
384.386	8.19
384.747	8.18
385.109	8.16
385.47	8.13
385.832	8.11
386.193	8.1
386.554	8.18
386.916	8.16
387.277	8.18
387.638	8.17
387.999	8.09
388.36	8.04
388.721	8.03
389.082	8.01
389.443	8.01
389.804	8.04
390.165	8.04
390.526	8.08
390.887	8.06
391.248	8.07
391.609	8.06
391.969	8.07
392.33	8.05
392.691	8
393.051	7.99
393.412	8.01
393.772	8
394.133	7.99
394.493	7.99
394.854	7.96
395.214	7.96
395.574	7.97
395.935	7.93
396.295	7.93
396.655	7.91
397.015	7.91
397.376	7.88
397.736	7.87
398.096	7.85
398.456	7.81
398.816	7.78
399.176	7.77
399.535	7.72
399.895	7.68
400.255	7.7
400.615	7.72
400.975	7.69
401.334	7.69
401.694	7.66
402.054	7.64
402.413	7.65
402.773	7.6
403.132	7.6
403.492	7.62
403.851	7.61
404.211	7.64
404.57	7.61
404.929	7.61
405.288	7.62
405.648	7.59
406.007	7.61
406.366	7.6
406.725	7.59
407.084	7.56
407.443	7.6
407.802	7.61
408.161	7.58
408.52	7.54
408.879	7.54
409.238	7.56
409.596	7.59
409.955	7.57
410.314	7.6
410.673	7.59
411.031	7.59
411.39	7.6
411.748	7.59
412.107	7.61
412.465	7.61
412.824	7.63
413.182	7.65
413.54	7.64
413.899	7.67
414.257	7.67
414.615	7.7
414.974	7.7
415.332	7.68
415.69	7.7
416.048	7.71
416.406	7.7
416.764	7.68
417.122	7.65
417.48	7.62
417.838	7.63
418.195	7.62
418.553	7.61
418.911	7.59
419.269	7.57
419.626	7.57
419.984	7.55
420.342	7.55
420.699	7.52
421.057	7.51
421.414	7.5
421.772	7.49
422.129	7.5
422.486	7.49
422.844	7.49
423.201	7.47
423.558	7.46
423.915	7.45
424.273	7.44
424.63	7.44
424.987	7.44
425.344	7.41
425.701	7.41
426.058	7.4
426.415	7.41
426.772	7.39
427.128	7.38
427.485	7.37
427.842	7.34
428.199	7.33
428.555	7.3
428.912	7.28
429.269	7.27
429.625	7.25
429.982	7.2
430.338	7.18
430.695	7.17
431.051	7.18
431.407	7.18
431.764	7.19
432.12	7.15
432.476	7.17
432.832	7.17
433.189	7.17
433.545	7.17
433.901	7.15
434.257	7.18
434.613	7.15
434.969	7.18
435.325	7.19
435.681	7.21
436.036	7.23
436.392	7.24
436.748	7.24
437.104	7.24
437.459	7.25
437.815	7.26
438.171	7.27
438.526	7.27
438.882	7.27
439.237	7.26
439.593	7.27
439.948	7.24
440.304	7.26
440.659	7.26
441.014	7.25
441.369	7.23
441.725	7.21
442.08	7.22
442.435	7.21
442.79	7.2
443.145	7.18
443.5	7.17
443.855	7.17
444.21	7.17
444.565	7.17
444.92	7.17
445.275	7.16
445.629	7.16
445.984	7.15
446.339	7.13
446.693	7.12
447.048	7.12
447.403	7.11
447.757	7.09
448.112	7.07
448.466	7.08
448.82	7.09
449.175	7.09
449.529	7.07
449.883	7.05
450.238	7.03
450.592	7.04
450.946	7.02
451.3	7
451.654	6.96
452.008	6.96
452.362	6.94
452.716	6.92
453.07	6.92
453.424	6.91
453.778	6.92
454.132	6.91
454.486	6.89
454.839	6.91
455.193	6.91
455.547	6.91
455.9	6.9
456.254	6.9
456.607	6.93
456.961	6.92
457.314	6.94
457.668	6.94
458.021	6.94
458.375	6.97
458.728	6.98
459.081	7.02
459.434	7.02
459.787	7.03
460.141	7.05
460.494	7.05
460.847	7.04
461.2	7.04
461.553	7.05
461.906	7.07
462.259	7.07
462.611	7.08
462.964	7.09
463.317	7.11
463.67	7.11
464.022	7.1
464.375	7.12
464.728	7.13
465.08	7.12
465.433	7.13
465.785	7.12
466.138	7.11
466.49	7.1
466.843	7.1
467.195	7.11
467.547	7.1
467.899	7.12
468.252	7.12
468.604	7.13
468.956	7.14
469.308	7.16
469.66	7.13
470.012	7.15
470.364	7.17
470.716	7.16
471.068	7.18
471.42	7.18
471.772	7.19
472.123	7.19
472.475	7.21
472.827	7.21
473.178	7.25
473.53	7.23
473.882	7.24
474.233	7.24
474.585	7.23
474.936	7.23
475.288	7.24
475.639	7.25
475.99	7.24
476.342	7.24
476.693	7.24
477.044	7.27
477.395	7.23
477.746	7.22
478.097	7.21
478.448	7.22
478.8	7.22
479.15	7.22
479.501	7.21
479.852	7.22
480.203	7.23
480.554	7.25
480.905	7.27
481.255	7.29
481.606	7.29
481.957	7.3
482.307	7.3
482.658	7.3
483.009	7.31
483.359	7.32
483.709	7.32
484.06	7.32
484.41	7.33
484.761	7.33
485.111	7.34
485.461	7.33
485.811	7.32
486.162	7.33
486.512	7.33
486.862	7.33
487.212	7.32
487.562	7.33
487.912	7.32
488.262	7.32
488.612	7.31
488.961	7.31
489.311	7.31
489.661	7.32
490.011	7.33
490.36	7.32
490.71	7.32
491.06	7.32
491.409	7.31
491.759	7.3
492.108	7.32
492.458	7.31
492.807	7.32
493.157	7.32
493.506	7.32
493.855	7.32
494.204	7.33
494.554	7.35
494.903	7.35
495.252	7.34
495.601	7.34
495.95	7.36
496.299	7.35
496.648	7.36
496.997	7.35
497.346	7.37
497.695	7.4
498.043	7.41
498.392	7.41
498.741	7.42
499.09	7.42
499.438	7.44
499.787	7.46
500.135	7.51
500.484	7.53
500.832	7.54
501.181	7.56
501.529	7.58
501.878	7.61
502.226	7.62
502.574	7.64
502.923	7.65
503.271	7.68
503.619	7.71
503.967	7.71
504.315	7.71
504.663	7.72
505.011	7.72
505.359	7.74
505.707	7.76
506.055	7.78
506.403	7.82
506.751	7.84
507.098	7.85
507.446	7.83
507.794	7.85
508.141	7.87
508.489	7.89
508.837	7.91
509.184	7.92
509.531	7.93
509.879	7.95
510.226	7.97
510.574	7.96
510.921	7.97
511.268	7.98
511.616	7.99
511.963	7.98
512.31	8.01
512.657	8.03
513.004	8.05
513.351	8.08
513.698	8.08
514.045	8.07
514.392	8.08
514.739	8.09
515.086	8.11
515.432	8.12
515.779	8.13
516.126	8.16
516.473	8.16
516.819	8.17
517.166	8.19
517.512	8.18
517.859	8.21
518.205	8.22
518.552	8.25
518.898	8.28
519.245	8.28
519.591	8.28
519.937	8.28
520.283	8.3
520.629	8.31
520.976	8.31
521.322	8.32
521.668	8.33
522.014	8.34
522.36	8.34
522.706	8.33
523.052	8.33
523.398	8.33
523.743	8.36
524.089	8.36
524.435	8.36
524.781	8.4
525.126	8.4
525.472	8.41
525.817	8.42
526.163	8.42
526.509	8.43
526.854	8.45
527.199	8.45
527.545	8.44
527.89	8.45
528.235	8.45
528.581	8.46
528.926	8.46
529.271	8.47
529.616	8.47
529.961	8.49
530.306	8.49
530.651	8.5
530.996	8.49
531.341	8.5
531.686	8.5
532.031	8.49
532.376	8.49
532.721	8.48
533.065	8.48
533.41	8.49
533.755	8.48
534.099	8.49
534.444	8.49
534.788	8.5
535.133	8.49
535.477	8.5
535.822	8.51
536.166	8.51
536.51	8.49
536.855	8.49
537.199	8.49
537.543	8.5
537.887	8.49
538.231	8.5
538.576	8.51
538.92	8.51
539.264	8.52
539.608	8.55
539.951	8.55
540.295	8.56
540.639	8.55
540.983	8.55
541.327	8.54
541.671	8.53
542.014	8.54
542.358	8.55
542.701	8.56
543.045	8.55
543.389	8.55
543.732	8.57
544.075	8.58
544.419	8.59
544.762	8.58
545.105	8.58
545.449	8.58
545.792	8.58
546.135	8.6
546.478	8.6
546.821	8.57
547.165	8.58
547.508	8.58
547.851	8.61
548.194	8.59
548.536	8.61
548.879	8.61
549.222	8.59
549.565	8.58
549.908	8.55
550.25	8.56
550.593	8.56
550.936	8.54
551.278	8.52
551.621	8.51
551.963	8.55
552.306	8.54
552.648	8.53
552.991	8.54
553.333	8.54
553.675	8.52
554.017	8.54
554.36	8.53
554.702	8.51
555.044	8.48
555.386	8.49
555.728	8.47
556.07	8.49
556.412	8.47
556.754	8.47
557.096	8.47
557.438	8.47
557.78	8.46
558.121	8.46
558.463	8.46
558.805	8.46
559.147	8.41
559.488	8.43
559.83	8.44
560.171	8.43
560.513	8.42
560.854	8.44
561.196	8.41
561.537	8.46
561.878	8.46
562.22	8.51
562.561	8.52
562.902	8.55
563.243	8.55
563.584	8.59
563.925	8.59
564.266	8.59
564.607	8.6
564.948	8.61
565.289	8.63
565.63	8.64
565.971	8.63
566.312	8.64
566.653	8.65
566.993	8.64
567.334	8.61
567.675	8.62
568.015	8.64
568.356	8.64
568.696	8.62
569.037	8.59
569.377	8.56
569.718	8.58
570.058	8.57
570.398	8.57
570.739	8.57
571.079	8.58
571.419	8.61
571.759	8.64
572.099	8.6
572.439	8.61
572.779	8.6
573.119	8.61
573.459	8.64
573.799	8.64
574.139	8.67
574.479	8.69
574.819	8.67
575.158	8.66
575.498	8.66
575.838	8.67
576.177	8.68
576.517	8.7
576.856	8.68
577.196	8.67
577.535	8.66
577.875	8.67
578.214	8.67
578.553	8.67
578.893	8.63
579.232	8.63
579.571	8.62
579.91	8.64
580.25	8.63
580.589	8.62
580.928	8.62
581.267	8.58
581.606	8.6
581.945	8.59
582.283	8.62
582.622	8.6
582.961	8.57
583.3	8.59
583.639	8.61
583.977	8.62
584.316	8.59
584.654	8.63
584.993	8.65
585.332	8.61
585.67	8.62
586.008	8.64
586.347	8.68
586.685	8.66
587.024	8.71
587.362	8.74
587.7	8.73
588.038	8.73
588.376	8.75
588.715	8.72
589.053	8.78
589.391	8.74
589.729	8.73
590.067	8.73
590.404	8.73
590.742	8.68
591.08	8.66
591.418	8.7
591.756	8.68
592.093	8.64
592.431	8.66
592.769	8.67
593.106	8.66
593.444	8.65
593.781	8.68
594.119	8.64
594.456	8.65
594.793	8.66
595.131	8.65
595.468	8.64
595.805	8.69
596.143	8.64
596.48	8.63
596.817	8.62
597.154	8.63
597.491	8.66
597.828	8.72
598.165	8.76
598.502	8.77
598.839	8.78
599.176	8.81
599.512	8.83
599.849	8.8
600.186	8.85
600.523	8.87
600.859	8.88
601.196	8.93
601.532	8.91
601.869	8.89
602.205	8.92
602.542	8.9
602.878	8.9
603.215	8.93
603.551	8.98
603.887	9
604.223	8.97
604.56	8.98
604.896	8.96
605.232	8.98
605.568	8.97
605.904	8.97
606.24	8.97
606.576	8.98
606.912	9
607.248	8.98
607.583	8.99
607.919	8.99
608.255	8.98
608.591	9.02
608.926	9.07
609.262	9.07
609.597	9.11
609.933	9.12
610.268	9.16
610.604	9.13
610.939	9.13
611.275	9.17
611.61	9.15
611.945	9.13
612.281	9.09
612.616	9.1
612.951	9.08
613.286	9.06
613.621	9.05
613.956	9.03
614.291	8.98
614.626	8.98
614.961	8.92
615.296	8.9
615.631	8.88
615.966	8.87
616.3	8.91
616.635	8.88
616.97	8.88
617.304	8.79
617.639	8.8
617.973	8.81
618.308	8.79
618.642	8.79
618.977	8.78
619.311	8.78
619.646	8.83
619.98	8.85
620.314	8.9
620.648	8.92
620.983	8.93
621.317	8.98
621.651	9
621.985	9.05
622.319	9.05
622.653	9.02
622.987	9.02
623.321	8.99
623.655	9
623.988	8.99
624.322	8.99
624.656	9.03
624.99	9.06
625.323	9.07
625.657	9.14
625.99	9.17
626.324	9.16
626.657	9.16
626.991	9.17
627.324	9.17
627.658	9.19
627.991	9.23
628.324	9.23
628.657	9.18
628.991	9.17
629.324	9.22
629.657	9.26
629.99	9.24
630.323	9.23
630.656	9.26
630.989	9.28
631.322	9.29
631.655	9.27
631.987	9.24
632.32	9.23
632.653	9.17
632.986	9.16
633.318	9.17
633.651	9.14
633.984	9.11
634.316	9.11
634.649	9.08
634.981	9.1
635.313	9.1
635.646	9.16
635.978	9.16
636.31	9.1
636.643	9.1
636.975	9.11
637.307	9.11
637.639	9.04
637.971	9.01
638.303	9.01
638.635	8.95
638.967	8.99
639.299	9.04
639.631	9.06
639.963	9.05
640.295	9.09
640.626	9.1
640.958	9.14
641.29	9.16
641.621	9.12
641.953	9.05
642.285	9.04
642.616	9.02
642.948	9.01
643.279	9.01
643.61	9
643.942	8.98
644.273	8.97
644.604	9.01
644.936	9.03
645.267	9.03
645.598	9.06
645.929	9.05
646.26	9.03
646.591	9
646.922	8.99
647.253	8.98
647.584	8.96
647.915	8.93
648.245	8.93
648.576	9.03
648.907	9.04
649.238	9.09
649.568	9.08
649.899	9.12
650.229	9.17
650.56	9.15
650.89	9.17
651.221	9.21
651.551	9.2
651.882	9.22
652.212	9.23
652.542	9.21
652.872	9.18
653.203	9.26
653.533	9.33
653.863	9.33
654.193	9.34
654.523	9.34
654.853	9.37
655.183	9.33
655.513	9.26
655.843	9.22
656.172	9.2
656.502	9.2
656.832	9.21
657.162	9.2
657.491	9.19
657.821	9.22
658.15	9.16
658.48	9.15
658.809	9.16
659.139	9.18
659.468	9.22
659.798	9.26
660.127	9.19
660.456	9.2
660.785	9.21
661.115	9.17
661.444	9.16
661.773	9.2
662.102	9.21
662.431	9.23
662.76	9.3
663.089	9.29
663.418	9.36
663.747	9.37
664.076	9.42
664.404	9.37
664.733	9.35
665.062	9.41
665.39	9.46
665.719	9.37
666.048	9.33
666.376	9.21
666.705	9.19
667.033	9.15
667.362	9.11
667.69	9.14
668.018	9.16
668.347	9.19
668.675	9.15
669.003	9.18
669.331	9.23
669.659	9.25
669.987	9.25
670.315	9.22
670.643	9.23
670.971	9.1
671.299	9.24
671.627	9.25
671.955	9.28
672.283	9.29
672.61	9.39
672.938	9.38
673.266	9.53
673.593	9.6
673.921	9.67
674.249	9.67
674.576	9.6
674.904	9.63
675.231	9.63
675.558	9.61
675.886	9.58
676.213	9.54
676.54	9.51
676.867	9.59
677.195	9.61
677.522	9.53
677.849	9.61
678.176	9.49
678.503	9.48
678.83	9.5
679.157	9.43
679.484	9.41
679.81	9.46
680.137	9.39
680.464	9.3
680.791	9.32
681.117	9.31
681.444	9.37
681.771	9.35
682.097	9.32
682.424	9.35
682.75	9.41
683.077	9.41
683.403	9.46
683.729	9.37
684.056	9.34
684.382	9.44
684.708	9.39
685.034	9.43
685.36	9.49
685.686	9.46
686.012	9.47
686.339	9.57
686.664	9.53
686.99	9.6
687.316	9.67
687.642	9.75
687.968	9.78
688.294	9.9
688.619	9.88
688.945	9.95
689.271	9.94
689.596	9.92
689.922	9.93
690.247	9.85
690.573	9.91
690.898	9.87
691.224	9.98
691.549	10.04
691.874	10.03
692.2	9.96
692.525	10.06
692.85	10.14
693.175	10.06
693.5	10.04
693.825	10.09
694.15	10.06
694.475	9.93
694.8	9.92
695.125	9.82
695.45	9.92
695.775	9.86
696.099	9.98
696.424	9.99
696.749	9.97
697.073	9.93
697.398	9.9
697.723	9.97
698.047	9.83
698.372	9.77
698.696	9.78
699.02	9.78
699.345	9.69
699.669	9.68
699.993	9.69
700.318	9.73
700.642	9.71
700.966	9.66
701.29	9.73
701.614	9.79
701.938	9.83
702.262	9.8
702.586	9.82
702.91	9.65
703.234	9.66
703.557	9.71
703.881	9.73
704.205	9.83
704.529	9.75
704.852	9.73
705.176	9.75
705.499	9.87
705.823	9.93
706.146	9.9
706.47	9.87
706.793	9.91
707.117	9.97
707.44	10.11
707.763	10.12
708.086	10.08
708.409	9.96
708.733	9.9
709.056	9.94
709.379	9.98
709.702	10.05
710.025	10
710.348	10.08
710.671	9.93
710.993	9.82
711.316	9.85
711.639	10.01
711.962	10.13
712.284	10.03
712.607	10.05
712.93	10.14
713.252	10.16
713.575	10.16
713.897	10.13
714.22	9.99
714.542	10.09
714.864	10.1
715.187	10.14
715.509	10.21
715.831	10.19
716.153	10.25
716.475	10.25
716.798	10.28
717.12	10.15
717.442	10.25
717.764	10.33
718.085	10.37
718.407	10.33
718.729	10.25
719.051	10.33
719.373	10.24
719.695	10.27
720.016	10.45
720.338	10.47
720.659	10.54
720.981	10.59
721.302	10.48
721.624	10.48
721.945	10.55
722.267	10.42
722.588	10.29
722.909	10.2
723.231	10.3
723.552	10.15
723.873	10.31
724.194	10.48
724.515	10.57
724.836	10.57
725.157	10.53
725.478	10.53
725.799	10.51
726.12	10.51
726.441	10.5
726.762	10.26
727.083	10.17
727.403	10.1
727.724	10.04
728.045	10.17
728.365	10.1
728.686	10.15
729.006	10.33
729.327	10.35
729.647	10.4
729.967	10.19
730.288	10.24
730.608	10.09
730.928	9.99
731.249	9.88
731.569	9.94
731.889	9.95
732.209	10
732.529	9.93
732.849	10.03
733.169	9.92
733.489	9.95
733.809	9.91
734.129	10.01
734.448	10.05
734.768	10.01
735.088	10.17
735.408	10.11
735.727	10.22
736.047	10.51
736.366	10.34
736.686	10.46
737.005	10.68
737.325	10.63
737.644	10.72
737.963	10.72
738.283	10.67
738.602	10.68
738.921	10.85
739.24	11.02
739.56	10.94
739.879	10.95
740.198	11.23
740.517	11.5
740.836	11.4
741.155	11.27
741.473	11.34
741.792	11.25
742.111	11.22
742.43	10.97
742.748	10.52
743.067	10.61
743.386	10.67
743.704	10.49
744.023	10.67
744.341	10.61
744.66	10.79
744.978	10.65
745.297	10.46
745.615	10.42
745.933	10.38
746.252	10.52
746.57	10.51
746.888	10.1
747.206	9.72
747.524	9.68
747.842	9.91
748.16	10.06
748.478	10.24
748.796	10.39
749.114	10.57
749.432	10.86
749.749	10.99
750.067	10.83
750.385	10.75
750.703	10.62
751.02	10.75
751.338	10.66
751.655	10.8
751.973	11.05
752.29	10.67
752.608	10.61
752.925	10.61
753.242	10.85
753.56	11
753.877	11.12
754.194	11.15
754.511	10.96
754.828	10.66
755.145	10.38
755.462	10.09
755.779	10.06
756.096	9.81
756.413	9.97
756.73	10.07
757.047	10.21
757.364	10.25
757.68	10.15
757.997	10.13
758.314	10.2
758.63	9.97
758.947	10.22
759.264	10.16
759.58	9.99
759.896	9.92
760.213	10.04
760.529	10.12
760.846	10.28
761.162	10.58
761.478	10.64
761.794	10.74
762.11	10.87
762.426	10.79
762.743	10.93
763.059	10.86
763.375	10.88
763.69	10.98
764.006	11.14
764.322	11.18
764.638	11.2
764.954	11.27
765.27	11.42
765.585	11.47
765.901	11.36
766.216	11.59
766.532	11.73
766.848	11.57
767.163	11.77
767.478	11.74
767.794	11.71
768.109	11.56
768.424	11.69
768.74	11.65
769.055	11.87
769.37	11.98
769.685	11.87
770	11.89
770.315	11.83
770.63	11.88
770.945	12.02
771.26	12.05
771.575	11.71
771.89	11.77
772.205	11.76
772.52	12.05
772.834	11.82
773.149	11.62
773.464	11.72
773.778	11.42
774.093	11.27
774.407	11.28
774.722	11.57
775.036	11.39
775.351	11.56
775.665	11.43
775.979	11.16
776.293	11.36
776.608	11.19
776.922	11.3
777.236	10.97
777.55	10.71
777.864	11
778.178	11.44
778.492	11.31
778.806	11.24
779.12	11.4
779.434	11.43
779.747	11.41
780.061	11.73
780.375	11.81
780.689	12.02
781.002	12.01
781.316	12.09
781.629	12.55
781.943	12.63
782.256	12.48
782.57	12.85
782.883	12.7
783.196	12.95
783.51	12.5
783.823	12.33
784.136	12.67
784.449	12.42
784.762	12.27
785.075	12.23
785.388	12.19
785.701	11.98
786.014	11.4
786.327	11.48
786.64	11.37
786.953	11.38
787.266	10.96
787.578	10.54
787.891	10.39
788.204	10.03
788.516	9.82
788.829	10.14
789.141	10.02
789.454	9.87
789.766	10.14
790.079	10.42
790.391	10.72
790.703	10.38
791.016	10.62
791.328	10.47
791.64	10.89
791.952	11.35
792.264	11.41
792.576	11.87
792.888	12.05
793.2	11.9
793.512	12.09
793.824	12.28
794.136	12.34
794.448	12.26
794.76	12.13
795.071	12.56
795.383	12.32
795.695	11.99
796.006	11.98
796.318	11.95
796.629	12.53
796.941	12.64
797.252	13.18
797.564	12.64
797.875	12.91
798.186	12.83
798.497	12.69
798.809	12.84
799.12	13.08
799.431	12.92
799.742	13.08
800.053	13.13
800.364	13.51
800.675	13.53
800.986	13.82
801.297	13.95
801.608	13.87
801.918	13.63
802.229	14.18
802.54	14.12
802.851	13.97
803.161	13.52
803.472	13.13
803.782	13.1
804.093	13.61
804.403	13.13
804.714	12.68
805.024	12.29
805.334	12.5
805.645	12.55
805.955	12.48
806.265	12.67
806.575	12.25
806.885	12.31
807.195	12.65
807.505	12.92
807.815	13.06
808.125	12.6
808.435	12.91
808.745	12.47
809.055	12.68
809.365	12.53
809.674	12.12
809.984	12.81
810.294	12.6
810.603	12.76
810.913	13.33
811.222	13.57
811.532	14.48
811.841	14.47
812.151	15.3
812.46	15.11
812.769	14.21
813.079	14.15
813.388	14
813.697	14.39
814.006	14.39
814.315	14.2
814.624	14.73
814.933	14.9
815.242	15.57
815.551	15.58
815.86	14.93
816.169	15.39
816.478	14.46
816.786	14.08
817.095	14.11
817.404	14.27
817.712	14.29
818.021	14.11
818.33	14.11
818.638	13.51
818.947	13.54
819.255	13.94
819.563	14.01
819.872	13.77
820.18	13.45
820.488	13.45
820.796	13.41
821.105	13.31
821.413	13.32
821.721	13.03
822.029	13.1
822.337	13.39
822.645	13.26
822.953	13.33
823.26	13.41
823.568	13.23
823.876	13.13
824.184	13.08
824.491	12.84
824.799	12.64
825.107	12.6
825.414	12.69
825.722	12.66
826.029	12.66
826.337	12.77
826.644	12.82
826.951	12.69
827.259	12.64
827.566	12.75
827.873	12.57
828.18	12.73
828.488	12.8
828.795	12.73
829.102	13.04
829.409	13.41
829.716	13.42
830.023	13.51
830.329	13.61
830.636	13.98
830.943	14.4
831.25	14.98
831.557	15.29
831.863	15.47
832.17	15.59
832.476	15.57
832.783	16.09
833.089	16.17
833.396	16.52
833.702	16.85
834.009	16.63
834.315	16.91
834.621	16.93
834.928	16.65
835.234	16.31
835.54	16.11
835.846	16.1
836.152	16.05
836.458	16.24
836.764	16.25
837.07	16.09
837.376	15.91
837.682	15.83
837.988	15.59
838.293	15.39
838.599	15.45
838.905	15.81
839.211	14.94
839.516	14.89
839.822	14.74
840.127	15.03
840.433	15.72
840.738	15.33
841.044	15.24
841.349	15.93
841.654	17.24
841.959	16.65
842.265	15.94
842.57	16.35
842.875	15.75
843.18	16.02
843.485	15.4
843.79	15.3
844.095	14.11
844.4	14.73
844.705	14.36
845.01	14.24
845.315	14.1
845.619	13.5
845.924	13.47
846.229	14.23
846.533	13.02
846.838	11.71
847.142	12.15
847.447	11.73
847.751	11.59
848.056	10.32
848.36	10.34
848.664	10.36
848.969	11.03
849.273	11.95
849.577	10.44
849.881	11.34
850.185	13.04
850.489	15.47
850.794	15.61
851.097	16.13
851.401	16.04
851.705	15.81
852.009	17.35
852.313	16.57
852.617	14.24
852.92	16.18
853.224	16.73
853.528	17.99
853.831	17.35
854.135	15.29
854.438	14.38
854.742	14.52
855.045	13.16
855.349	12.56
855.652	11.84
855.955	12.12
856.259	9.77
856.562	9.6
856.865	9.64
857.168	8.44
857.471	8.94
857.774	9.8
858.077	8.39
858.38	7.29
858.683	9.41
858.986	10.43
859.289	8.31
859.592	10.3
859.894	8.86
860.197	10.55
860.5	13.31
860.802	13.31
861.105	14.53
861.407	17.62
861.71	18.34
862.012	19.32
862.315	17
862.617	17.53
862.919	15.05
863.222	12.57
863.524	11.27
863.826	10.68
864.128	9.49
864.43	9.87
864.732	9.99
865.034	9.52
865.336	9.81
865.638	11.53
865.94	7.53
866.242	6.84
866.544	6.11
866.846	3.08
867.147	5.02
867.449	3.89
867.751	0.95
868.052	1.82
868.354	2.23
868.655	6.31
868.957	9.22
869.258	10.28
869.56	12.27
869.861	12.92
870.162	11.25
870.463	13.14
870.765	14.77
871.066	15.33
871.367	15.03
871.668	15.15
871.969	11.23
872.27	14.01
872.571	17.01
872.872	17.57
873.173	18.46
873.473	18.72
873.774	20.84
874.075	22.01
874.376	21.41
874.676	21.54
874.977	20.53
875.277	19.91
875.578	18.91
875.878	18.47
876.179	19.24
876.479	21.79
876.78	21.02
877.08	21.26
877.38	21.46
877.68	21.33
877.981	20.94
878.281	26.29
878.581	25.32
