Data from BA57715_Reflection_00015.txt Node
Date: Mon Nov 18 15:26:20 EST 2019
User: vgr7
Spectrometer: USB2G7710
Scans to average: 3
Trigger mode: 4
Integration Time (sec): 2.000000E-2
Electric dark correction enabled: true
Boxcar width: 10
XAxis mode: Wavelengths
Number of Pixels in Spectrum: 2048
>>>>>Begin Spectral Data<<<<<
177.721	56.5
178.105	13.58
178.488	32.39
178.871	-20.41
179.254	-146.11
179.636	-0.29
180.019	-261.28
180.402	70.83
180.785	-274.8
181.168	290.48
181.55	281.52
181.933	109.74
182.316	103.22
182.698	133.17
183.081	135.75
183.463	234.44
183.846	159.33
184.228	730.52
184.611	234.81
184.993	-2504.94
185.376	-282.72
185.758	-557.82
186.14	-476.85
186.522	-371.77
186.904	1093.27
187.287	337.83
187.669	-1325.7
188.051	5925.4
188.433	1177.29
188.815	1025.93
189.197	-538.24
189.579	-301.42
189.961	-609.75
190.342	-216.62
190.724	-160.68
191.106	-240.69
191.488	-225.77
191.869	-206.62
192.251	-214.78
192.633	-161.79
193.014	-250.43
193.396	-485.12
193.777	-625.05
194.159	1704.44
194.54	-590.59
194.922	-186.94
195.303	-125.53
195.684	-275.6
196.065	-150.2
196.447	-152.98
196.828	-157.67
197.209	-91.06
197.59	-120.57
197.971	-60.58
198.352	-10.79
198.733	-4.81
199.114	17.55
199.495	55.66
199.876	21.17
200.257	8.86
200.638	14.38
201.018	8.01
201.399	24.35
201.78	40.14
202.16	29.52
202.541	28.75
202.922	30
203.302	69.09
203.683	43.78
204.063	-7.26
204.444	-26.39
204.824	-34.87
205.204	-59.86
205.585	-24.54
205.965	-41.15
206.345	-90.55
206.725	-180.37
207.106	-250.83
207.486	-302.83
207.866	-808.5
208.246	499.18
208.626	-758.16
209.006	-70.62
209.386	-134.87
209.766	-168.49
210.145	-46.61
210.525	-27.53
210.905	-4.74
211.285	-29.33
211.664	-17.62
212.044	-33.77
212.424	-24.45
212.803	-16.18
213.183	-7.96
213.562	-16.71
213.942	15.42
214.321	23.62
214.701	31.1
215.08	48.33
215.459	30.56
215.838	12.61
216.218	25.08
216.597	23.17
216.976	29.55
217.355	24.69
217.734	23.36
218.113	17.72
218.492	4.82
218.871	4.46
219.25	16.29
219.629	10.87
220.008	11.1
220.387	5.9
220.766	6.26
221.144	-5.22
221.523	-11.96
221.902	-21.09
222.28	-30.1
222.659	-27.76
223.037	-39.76
223.416	-55.38
223.794	-53.19
224.173	-54.86
224.551	-41.96
224.929	-42.13
225.308	-28.25
225.686	-15.38
226.064	-12.71
226.442	-9.61
226.821	-7.75
227.199	-5.15
227.577	-8.29
227.955	-6.51
228.333	-4.36
228.711	-3.32
229.089	-1.54
229.467	-1.65
229.845	-1.41
230.222	0.35
230.6	0.24
230.978	1.65
231.356	3.76
231.733	3.3
232.111	3.38
232.488	1.72
232.866	0.07
233.243	0.71
233.621	-1.41
233.998	-0.29
234.376	0.26
234.753	-1
235.13	-3.02
235.508	-1.12
235.885	-0.33
236.262	0.09
236.639	-1.14
237.016	-1.51
237.393	1.03
237.77	1.15
238.147	1.77
238.524	2.02
238.901	2.31
239.278	2.14
239.655	3.1
240.032	3.16
240.409	3.72
240.785	3.73
241.162	3.34
241.539	3.74
241.915	3.67
242.292	3.09
242.668	3.05
243.045	3.46
243.421	3.53
243.798	2.99
244.174	3.28
244.551	3.33
244.927	3.52
245.303	3.23
245.679	3.4
246.056	3.24
246.432	3.11
246.808	3.04
247.184	2.89
247.56	2.67
247.936	2.72
248.312	2.3
248.688	2.73
249.064	2.52
249.44	2.44
249.815	2.32
250.191	2.6
250.567	2.74
250.943	2.49
251.318	2.56
251.694	2.85
252.069	2.66
252.445	2.92
252.82	2.78
253.196	2.77
253.571	2.58
253.947	2.77
254.322	3.07
254.697	2.87
255.073	2.9
255.448	2.85
255.823	2.85
256.198	3.16
256.573	2.63
256.948	2.87
257.323	2.83
257.698	2.75
258.073	2.72
258.448	2.52
258.823	2.62
259.198	2.41
259.573	2.41
259.948	2.5
260.322	2.45
260.697	2.57
261.072	2.5
261.446	2.51
261.821	2.51
262.195	2.5
262.57	2.6
262.944	2.6
263.319	2.59
263.693	2.42
264.067	2.56
264.442	2.85
264.816	3.04
265.19	3
265.564	2.98
265.938	2.99
266.313	3.12
266.687	3.19
267.061	3.4
267.435	3.38
267.809	3.14
268.183	2.96
268.556	2.9
268.93	3.13
269.304	3.09
269.678	3.2
270.051	2.97
270.425	3.07
270.799	3.14
271.172	3.22
271.546	3.43
271.919	3.25
272.293	3.2
272.666	3.04
273.04	3.15
273.413	3.22
273.787	3.17
274.16	3.23
274.533	3.2
274.906	3.12
275.279	3.37
275.653	3.38
276.026	3.4
276.399	3.3
276.772	3.26
277.145	3.33
277.518	3.37
277.891	3.6
278.263	3.3
278.636	3.2
279.009	3.03
279.382	2.98
279.755	2.96
280.127	2.9
280.5	2.92
280.872	3.02
281.245	3.08
281.617	3.21
281.99	3.18
282.362	3.28
282.735	3.18
283.107	3.08
283.479	3.21
283.852	3.29
284.224	3.44
284.596	3.4
284.968	3.46
285.34	3.36
285.713	3.29
286.085	3.49
286.457	3.63
286.829	3.8
287.201	3.76
287.572	3.68
287.944	3.64
288.316	3.65
288.688	3.57
289.06	3.59
289.431	3.6
289.803	3.66
290.175	3.67
290.546	3.78
290.918	3.7
291.289	3.76
291.661	3.75
292.032	3.67
292.403	3.68
292.775	3.64
293.146	3.54
293.517	3.51
293.889	3.54
294.26	3.41
294.631	3.48
295.002	3.46
295.373	3.56
295.744	3.62
296.115	3.64
296.486	3.54
296.857	3.56
297.228	3.64
297.599	3.61
297.97	3.53
298.34	3.68
298.711	3.7
299.082	3.64
299.452	3.65
299.823	3.75
300.194	3.75
300.564	3.68
300.935	3.87
301.305	3.97
301.676	4.06
302.046	4.24
302.416	4.28
302.787	4.44
303.157	4.61
303.527	4.62
303.897	4.66
304.267	4.85
304.637	4.81
305.008	4.72
305.378	4.83
305.748	5.02
306.117	5.05
306.487	5.09
306.857	5.27
307.227	5.36
307.597	5.39
307.967	5.42
308.336	5.55
308.706	5.52
309.076	5.63
309.445	5.55
309.815	5.52
310.184	5.43
310.554	5.54
310.923	5.43
311.293	5.47
311.662	5.64
312.031	5.52
312.401	5.7
312.77	5.88
313.139	5.96
313.508	5.96
313.877	5.86
314.246	5.97
314.616	5.99
314.985	6.11
315.353	6.15
315.722	6.27
316.091	6.32
316.46	6.42
316.829	6.3
317.198	6.52
317.567	6.53
317.935	6.71
318.304	6.62
318.672	6.64
319.041	6.76
319.41	6.68
319.778	6.92
320.147	6.97
320.515	6.91
320.883	6.8
321.252	6.92
321.62	6.92
321.988	6.93
322.357	6.84
322.725	6.79
323.093	6.89
323.461	6.94
323.829	7.03
324.197	7.18
324.565	7.26
324.933	7.29
325.301	7.38
325.669	7.46
326.037	7.63
326.405	7.77
326.772	7.77
327.14	7.9
327.508	7.88
327.875	7.8
328.243	7.82
328.61	7.89
328.978	7.89
329.346	8.08
329.713	8.13
330.08	8.21
330.448	8.29
330.815	8.2
331.182	8.16
331.55	8.45
331.917	8.39
332.284	8.6
332.651	8.53
333.018	8.57
333.385	8.54
333.752	8.67
334.119	8.78
334.486	8.82
334.853	8.78
335.22	8.9
335.587	8.96
335.954	8.97
336.32	9.15
336.687	9.16
337.054	9.16
337.42	9.26
337.787	9.27
338.153	9.44
338.52	9.68
338.886	9.61
339.253	9.34
339.619	9.27
339.986	9.21
340.352	9.4
340.718	9.54
341.084	9.52
341.451	9.45
341.817	9.51
342.183	9.54
342.549	9.61
342.915	9.67
343.281	9.74
343.647	9.78
344.013	9.82
344.379	9.88
344.745	9.93
345.11	9.94
345.476	10.09
345.842	9.97
346.208	9.92
346.573	10.04
346.939	10.22
347.304	10.32
347.67	10.36
348.035	10.24
348.401	10.19
348.766	10.2
349.132	10.15
349.497	10.04
349.862	10.14
350.228	10.11
350.593	10.12
350.958	10.1
351.323	10.14
351.688	9.98
352.053	9.96
352.418	10
352.783	10.08
353.148	9.97
353.513	9.98
353.878	9.97
354.243	10.08
354.608	10.01
354.972	9.94
355.337	9.94
355.702	9.93
356.066	9.96
356.431	9.97
356.795	9.95
357.16	9.93
357.524	9.8
357.889	9.79
358.253	9.76
358.618	9.78
358.982	9.8
359.346	9.8
359.71	9.78
360.075	9.71
360.439	9.66
360.803	9.7
361.167	9.71
361.531	9.69
361.895	9.66
362.259	9.64
362.623	9.66
362.987	9.65
363.351	9.69
363.714	9.65
364.078	9.53
364.442	9.51
364.806	9.46
365.169	9.48
365.533	9.42
365.896	9.35
366.26	9.29
366.623	9.22
366.987	9.19
367.35	9.21
367.714	9.11
368.077	9.03
368.44	8.93
368.803	8.8
369.167	8.72
369.53	8.58
369.893	8.49
370.256	8.37
370.619	8.32
370.982	8.21
371.345	8.12
371.708	8.18
372.071	8.09
372.434	8.14
372.797	8.1
373.159	8.05
373.522	8
373.885	7.96
374.247	7.89
374.61	7.9
374.973	7.78
375.335	7.75
375.698	7.68
376.06	7.64
376.423	7.61
376.785	7.57
377.147	7.53
377.51	7.51
377.872	7.6
378.234	7.5
378.596	7.45
378.958	7.41
379.321	7.29
379.683	7.27
380.045	7.2
380.407	7.13
380.769	7.13
381.13	7.09
381.492	7.03
381.854	6.96
382.216	6.82
382.578	6.79
382.939	6.73
383.301	6.71
383.663	6.61
384.024	6.59
384.386	6.57
384.747	6.57
385.109	6.53
385.47	6.39
385.832	6.38
386.193	6.37
386.554	6.34
386.916	6.32
387.277	6.33
387.638	6.26
387.999	6.2
388.36	6.16
388.721	6.1
389.082	6.05
389.443	5.98
389.804	5.95
390.165	5.87
390.526	5.85
390.887	5.78
391.248	5.82
391.609	5.77
391.969	5.67
392.33	5.62
392.691	5.58
393.051	5.54
393.412	5.5
393.772	5.46
394.133	5.39
394.493	5.37
394.854	5.3
395.214	5.28
395.574	5.25
395.935	5.17
396.295	5.13
396.655	5.09
397.015	5.08
397.376	5.07
397.736	5.07
398.096	5.01
398.456	5
398.816	4.89
399.176	4.82
399.535	4.77
399.895	4.7
400.255	4.63
400.615	4.6
400.975	4.55
401.334	4.48
401.694	4.45
402.054	4.39
402.413	4.35
402.773	4.3
403.132	4.26
403.492	4.23
403.851	4.26
404.211	4.24
404.57	4.2
404.929	4.19
405.288	4.16
405.648	4.12
406.007	4.11
406.366	4.11
406.725	4.17
407.084	4.19
407.443	4.17
407.802	4.2
408.161	4.17
408.52	4.12
408.879	4.1
409.238	4.09
409.596	4.12
409.955	4.11
410.314	4.13
410.673	4.14
411.031	4.12
411.39	4.07
411.748	4.04
412.107	4.04
412.465	4.01
412.824	3.98
413.182	3.98
413.54	3.96
413.899	3.94
414.257	3.88
414.615	3.87
414.974	3.86
415.332	3.82
415.69	3.8
416.048	3.8
416.406	3.78
416.764	3.72
417.122	3.68
417.48	3.65
417.838	3.6
418.195	3.56
418.553	3.54
418.911	3.52
419.269	3.51
419.626	3.47
419.984	3.47
420.342	3.44
420.699	3.43
421.057	3.41
421.414	3.39
421.772	3.38
422.129	3.36
422.486	3.34
422.844	3.32
423.201	3.3
423.558	3.3
423.915	3.29
424.273	3.28
424.63	3.27
424.987	3.25
425.344	3.26
425.701	3.26
426.058	3.25
426.415	3.24
426.772	3.24
427.128	3.24
427.485	3.23
427.842	3.22
428.199	3.21
428.555	3.19
428.912	3.18
429.269	3.17
429.625	3.16
429.982	3.14
430.338	3.16
430.695	3.15
431.051	3.14
431.407	3.14
431.764	3.15
432.12	3.13
432.476	3.12
432.832	3.09
433.189	3.11
433.545	3.11
433.901	3.09
434.257	3.09
434.613	3.1
434.969	3.11
435.325	3.12
435.681	3.12
436.036	3.12
436.392	3.12
436.748	3.12
437.104	3.12
437.459	3.11
437.815	3.1
438.171	3.09
438.526	3.09
438.882	3.09
439.237	3.1
439.593	3.11
439.948	3.11
440.304	3.12
440.659	3.1
441.014	3.09
441.369	3.06
441.725	3.05
442.08	3.04
442.435	3.01
442.79	3.01
443.145	2.99
443.5	2.97
443.855	2.95
444.21	2.95
444.565	2.94
444.92	2.94
445.275	2.92
445.629	2.92
445.984	2.9
446.339	2.88
446.693	2.86
447.048	2.85
447.403	2.83
447.757	2.83
448.112	2.82
448.466	2.82
448.82	2.83
449.175	2.82
449.529	2.81
449.883	2.82
450.238	2.8
450.592	2.79
450.946	2.77
451.3	2.79
451.654	2.78
452.008	2.79
452.362	2.77
452.716	2.79
453.07	2.78
453.424	2.79
453.778	2.8
454.132	2.8
454.486	2.79
454.839	2.79
455.193	2.79
455.547	2.78
455.9	2.78
456.254	2.79
456.607	2.79
456.961	2.77
457.314	2.78
457.668	2.81
458.021	2.81
458.375	2.83
458.728	2.81
459.081	2.8
459.434	2.8
459.787	2.82
460.141	2.81
460.494	2.81
460.847	2.81
461.2	2.8
461.553	2.82
461.906	2.83
462.259	2.83
462.611	2.84
462.964	2.86
463.317	2.87
463.67	2.87
464.022	2.88
464.375	2.9
464.728	2.9
465.08	2.89
465.433	2.89
465.785	2.88
466.138	2.91
466.49	2.93
466.843	2.94
467.195	2.94
467.547	2.96
467.899	2.99
468.252	3
468.604	3.03
468.956	3.02
469.308	3.03
469.66	3.04
470.012	3.05
470.364	3.05
470.716	3.04
471.068	3.06
471.42	3.06
471.772	3.09
472.123	3.11
472.475	3.11
472.827	3.14
473.178	3.15
473.53	3.14
473.882	3.12
474.233	3.1
474.585	3.1
474.936	3.1
475.288	3.08
475.639	3.08
475.99	3.09
476.342	3.08
476.693	3.09
477.044	3.11
477.395	3.09
477.746	3.11
478.097	3.12
478.448	3.13
478.8	3.11
479.15	3.07
479.501	3.06
479.852	3.06
480.203	3.05
480.554	3.06
480.905	3.06
481.255	3.07
481.606	3.07
481.957	3.08
482.307	3.07
482.658	3.06
483.009	3.05
483.359	3.05
483.709	3.05
484.06	3.04
484.41	3.04
484.761	3.04
485.111	3.04
485.461	3.04
485.811	3.03
486.162	3.04
486.512	3.05
486.862	3.05
487.212	3.04
487.562	3.05
487.912	3.05
488.262	3.06
488.612	3.06
488.961	3.06
489.311	3.08
489.661	3.1
490.011	3.1
490.36	3.11
490.71	3.12
491.06	3.14
491.409	3.14
491.759	3.15
492.108	3.17
492.458	3.17
492.807	3.18
493.157	3.21
493.506	3.23
493.855	3.26
494.204	3.27
494.554	3.31
494.903	3.32
495.252	3.34
495.601	3.35
495.95	3.38
496.299	3.42
496.648	3.42
496.997	3.44
497.346	3.46
497.695	3.51
498.043	3.54
498.392	3.55
498.741	3.59
499.09	3.6
499.438	3.63
499.787	3.69
500.135	3.71
500.484	3.73
500.832	3.76
501.181	3.79
501.529	3.84
501.878	3.88
502.226	3.93
502.574	3.98
502.923	4.03
503.271	4.07
503.619	4.12
503.967	4.19
504.315	4.24
504.663	4.31
505.011	4.36
505.359	4.42
505.707	4.49
506.055	4.57
506.403	4.64
506.751	4.72
507.098	4.79
507.446	4.86
507.794	4.93
508.141	5.01
508.489	5.07
508.837	5.13
509.184	5.19
509.531	5.27
509.879	5.36
510.226	5.46
510.574	5.53
510.921	5.61
511.268	5.65
511.616	5.72
511.963	5.79
512.31	5.87
512.657	5.95
513.004	6.03
513.351	6.14
513.698	6.24
514.045	6.32
514.392	6.41
514.739	6.51
515.086	6.6
515.432	6.7
515.779	6.77
516.126	6.87
516.473	6.99
516.819	7.09
517.166	7.16
517.512	7.22
517.859	7.3
518.205	7.39
518.552	7.51
518.898	7.62
519.245	7.7
519.591	7.79
519.937	7.87
520.283	7.97
520.629	8.06
520.976	8.18
521.322	8.31
521.668	8.43
522.014	8.57
522.36	8.69
522.706	8.82
523.052	9.03
523.398	9.19
523.743	9.34
524.089	9.5
524.435	9.67
524.781	9.86
525.126	10.03
525.472	10.2
525.817	10.32
526.163	10.45
526.509	10.56
526.854	10.7
527.199	10.83
527.545	10.94
527.89	11.06
528.235	11.16
528.581	11.25
528.926	11.37
529.271	11.52
529.616	11.65
529.961	11.79
530.306	11.9
530.651	12.05
530.996	12.19
531.341	12.35
531.686	12.5
532.031	12.66
532.376	12.83
532.721	12.98
533.065	13.16
533.41	13.36
533.755	13.57
534.099	13.75
534.444	13.95
534.788	14.15
535.133	14.35
535.477	14.56
535.822	14.79
536.166	15.02
536.51	15.25
536.855	15.49
537.199	15.76
537.543	16.05
537.887	16.36
538.231	16.64
538.576	16.91
538.92	17.22
539.264	17.49
539.608	17.75
539.951	17.99
540.295	18.24
540.639	18.45
540.983	18.69
541.327	18.93
541.671	19.14
542.014	19.36
542.358	19.58
542.701	19.79
543.045	20.03
543.389	20.27
543.732	20.47
544.075	20.73
544.419	20.96
544.762	21.21
545.105	21.43
545.449	21.7
545.792	21.98
546.135	22.24
546.478	22.52
546.821	22.84
547.165	23.13
547.508	23.44
547.851	23.77
548.194	24.02
548.536	24.35
548.879	24.69
549.222	25.03
549.565	25.33
549.908	25.69
550.25	26
550.593	26.32
550.936	26.64
551.278	26.98
551.621	27.3
551.963	27.57
552.306	27.85
552.648	28.16
552.991	28.46
553.333	28.78
553.675	29.05
554.017	29.3
554.36	29.63
554.702	29.9
555.044	30.17
555.386	30.48
555.728	30.72
556.07	30.96
556.412	31.27
556.754	31.56
557.096	31.82
557.438	32.04
557.78	32.34
558.121	32.62
558.463	32.91
558.805	33.16
559.147	33.48
559.488	33.74
559.83	33.99
560.171	34.23
560.513	34.48
560.854	34.74
561.196	35.01
561.537	35.24
561.878	35.46
562.22	35.71
562.561	35.96
562.902	36.21
563.243	36.43
563.584	36.59
563.925	36.85
564.266	37.04
564.607	37.28
564.948	37.46
565.289	37.63
565.63	37.78
565.971	37.96
566.312	38.17
566.653	38.33
566.993	38.54
567.334	38.73
567.675	38.87
568.015	39.05
568.356	39.19
568.696	39.35
569.037	39.52
569.377	39.67
569.718	39.84
570.058	39.98
570.398	40.16
570.739	40.33
571.079	40.45
571.419	40.61
571.759	40.75
572.099	40.89
572.439	41.02
572.779	41.15
573.119	41.31
573.459	41.44
573.799	41.63
574.139	41.74
574.479	41.83
574.819	41.93
575.158	42.04
575.498	42.17
575.838	42.3
576.177	42.44
576.517	42.59
576.856	42.72
577.196	42.84
577.535	43.01
577.875	43.16
578.214	43.26
578.553	43.38
578.893	43.56
579.232	43.74
579.571	43.96
579.91	44.15
580.25	44.27
580.589	44.36
580.928	44.46
581.267	44.63
581.606	44.81
581.945	45.07
582.283	45.16
582.622	45.28
582.961	45.38
583.3	45.49
583.639	45.61
583.977	45.7
584.316	45.83
584.654	45.88
584.993	46.01
585.332	46.16
585.67	46.25
586.008	46.28
586.347	46.25
586.685	46.31
587.024	46.4
587.362	46.48
587.7	46.47
588.038	46.56
588.376	46.58
588.715	46.66
589.053	46.77
589.391	46.89
589.729	47
590.067	47.07
590.404	47.15
590.742	47.18
591.08	47.27
591.418	47.31
591.756	47.33
592.093	47.32
592.431	47.36
592.769	47.47
593.106	47.55
593.444	47.7
593.781	47.77
594.119	47.75
594.456	47.75
594.793	47.91
595.131	47.95
595.468	47.99
595.805	48.06
596.143	48
596.48	48.05
596.817	48.06
597.154	48.1
597.491	48.1
597.828	48.14
598.165	48.13
598.502	48.17
598.839	48.24
599.176	48.26
599.512	48.31
599.849	48.36
600.186	48.38
600.523	48.41
600.859	48.33
601.196	48.43
601.532	48.46
601.869	48.4
602.205	48.43
602.542	48.48
602.878	48.47
603.215	48.52
603.551	48.56
603.887	48.59
604.223	48.67
604.56	48.75
604.896	48.78
605.232	48.9
605.568	48.95
605.904	48.98
606.24	49.02
606.576	49.1
606.912	49.13
607.248	49.19
607.583	49.22
607.919	49.42
608.255	49.42
608.591	49.53
608.926	49.66
609.262	49.75
609.597	49.86
609.933	49.94
610.268	50.07
610.604	50.14
610.939	50.2
611.275	50.26
611.61	50.31
611.945	50.43
612.281	50.43
612.616	50.49
612.951	50.52
613.286	50.67
613.621	50.74
613.956	50.74
614.291	50.86
614.626	50.95
614.961	50.96
615.296	51.02
615.631	51.15
615.966	51.23
616.3	51.27
616.635	51.3
616.97	51.29
617.304	51.21
617.639	51.24
617.973	51.28
618.308	51.3
618.642	51.31
618.977	51.3
619.311	51.33
619.646	51.31
619.98	51.43
620.314	51.45
620.648	51.52
620.983	51.66
621.317	51.61
621.651	51.63
621.985	51.48
622.319	51.55
622.653	51.45
622.987	51.45
623.321	51.42
623.655	51.38
623.988	51.4
624.322	51.47
624.656	51.45
624.99	51.45
625.323	51.5
625.657	51.51
625.99	51.56
626.324	51.64
626.657	51.63
626.991	51.59
627.324	51.66
627.658	51.64
627.991	51.63
628.324	51.69
628.657	51.65
628.991	51.78
629.324	51.79
629.657	51.96
629.99	52.04
630.323	52.16
630.656	52.16
630.989	52.19
631.322	52.26
631.655	52.35
631.987	52.38
632.32	52.38
632.653	52.38
632.986	52.33
633.318	52.23
633.651	52.4
633.984	52.47
634.316	52.42
634.649	52.39
634.981	52.35
635.313	52.34
635.646	52.48
635.978	52.51
636.31	52.54
636.643	52.43
636.975	52.44
637.307	52.4
637.639	52.53
637.971	52.58
638.303	52.56
638.635	52.56
638.967	52.6
639.299	52.58
639.631	52.63
639.963	52.67
640.295	52.81
640.626	52.86
640.958	52.96
641.29	53.03
641.621	53.17
641.953	53.3
642.285	53.38
642.616	53.36
642.948	53.32
643.279	53.37
643.61	53.43
643.942	53.38
644.273	53.33
644.604	53.28
644.936	53.19
645.267	53.15
645.598	53.13
645.929	53.17
646.26	53.24
646.591	53.25
646.922	53.15
647.253	53.09
647.584	52.85
647.915	52.75
648.245	52.6
648.576	52.57
648.907	52.42
649.238	52.44
649.568	52.34
649.899	52.48
650.229	52.5
650.56	52.56
650.89	52.58
651.221	52.56
651.551	52.55
651.882	52.58
652.212	52.55
652.542	52.47
652.872	52.32
653.203	52.33
653.533	52.27
653.863	52.42
654.193	52.44
654.523	52.71
654.853	52.66
655.183	52.79
655.513	52.8
655.843	52.93
656.172	52.88
656.502	52.9
656.832	52.8
657.162	52.78
657.491	52.81
657.821	52.73
658.15	52.88
658.48	52.89
658.809	53.02
659.139	53.12
659.468	53.18
659.798	53.3
660.127	53.27
660.456	53.38
660.785	53.33
661.115	53.33
661.444	53.32
661.773	53.36
662.102	53.32
662.431	53.31
662.76	53.28
663.089	53.31
663.418	53.44
663.747	53.54
664.076	53.57
664.404	53.44
664.733	53.45
665.062	53.34
665.39	53.4
665.719	53.3
666.048	53.22
666.376	53.24
666.705	53.29
667.033	53.26
667.362	53.31
667.69	53.46
668.018	53.45
668.347	53.45
668.675	53.48
669.003	53.61
669.331	53.7
669.659	53.71
669.987	53.65
670.315	53.62
670.643	53.52
670.971	53.51
671.299	53.56
671.627	53.62
671.955	53.84
672.283	53.8
672.61	53.82
672.938	53.88
673.266	53.95
673.593	53.96
673.921	53.95
674.249	53.97
674.576	53.8
674.904	53.84
675.231	53.71
675.558	53.76
675.886	53.56
676.213	53.46
676.54	53.47
676.867	53.62
677.195	53.57
677.522	53.69
677.849	53.63
678.176	53.65
678.503	53.55
678.83	53.35
679.157	53.35
679.484	53.44
679.81	53.32
680.137	53.33
680.464	53.36
680.791	53.37
681.117	53.16
681.444	53.24
681.771	53.16
682.097	53.21
682.424	53.24
682.75	53.33
683.077	53.27
683.403	53.28
683.729	53.17
684.056	53.16
684.382	53.05
684.708	52.97
685.034	53.01
685.36	53.06
685.686	52.95
686.012	52.9
686.339	52.81
686.664	52.8
686.99	52.64
687.316	52.6
687.642	52.64
687.968	52.73
688.294	52.68
688.619	52.75
688.945	52.65
689.271	52.45
689.596	52.42
689.922	52.45
690.247	52.39
690.573	52.42
690.898	52.44
691.224	52.54
691.549	52.69
691.874	52.61
692.2	52.71
692.525	52.92
692.85	53.1
693.175	53.17
693.5	53.32
693.825	53.43
694.15	53.27
694.475	53.34
694.8	53.26
695.125	53.26
695.45	53.24
695.775	53.35
696.099	53.36
696.424	53.28
696.749	53.14
697.073	53.13
697.398	52.99
697.723	52.99
698.047	52.9
698.372	52.82
698.696	52.82
699.02	52.82
699.345	52.74
699.669	52.55
699.993	52.51
700.318	52.58
700.642	52.45
700.966	52.66
701.29	52.6
701.614	52.8
701.938	52.83
702.262	52.82
702.586	52.76
702.91	52.77
703.234	52.87
703.557	53.04
703.881	53.17
704.205	53.32
704.529	53.39
704.852	53.38
705.176	53.35
705.499	53.48
705.823	53.41
706.146	53.49
706.47	53.66
706.793	53.61
707.117	53.42
707.44	53.61
707.763	53.14
708.086	52.98
708.409	52.97
708.733	52.97
709.056	53
709.379	53.01
709.702	53.19
710.025	53.17
710.348	53.19
710.671	53.09
710.993	53.01
711.316	52.92
711.639	53.03
711.962	53.12
712.284	52.9
712.607	52.87
712.93	52.96
713.252	52.91
713.575	52.86
713.897	52.79
714.22	52.62
714.542	52.9
714.864	52.97
715.187	52.85
715.509	52.88
715.831	52.77
716.153	52.93
716.475	52.9
716.798	53.14
717.12	52.97
717.442	52.98
717.764	52.98
718.085	53.12
718.407	53.18
718.729	53.12
719.051	53.34
719.373	53.44
719.695	53.29
720.016	53.41
720.338	53.48
720.659	53.66
720.981	53.84
721.302	53.88
721.624	54
721.945	54.04
722.267	53.88
722.588	53.85
722.909	53.66
723.231	53.55
723.552	53.17
723.873	53.17
724.194	53.05
724.515	53.21
724.836	53.05
725.157	53.14
725.478	52.92
725.799	52.62
726.12	52.62
726.441	52.85
726.762	52.58
727.083	52.53
727.403	52.5
727.724	52.6
728.045	52.55
728.365	52.53
728.686	52.36
729.006	52.52
729.327	52.48
729.647	52.58
729.967	52.62
730.288	52.73
730.608	52.85
730.928	53.1
731.249	53.19
731.569	53.42
731.889	53.21
732.209	53.65
732.529	53.84
732.849	53.72
733.169	53.62
733.489	53.93
733.809	53.91
734.129	53.78
734.448	53.69
734.768	53.87
735.088	54.09
735.408	54.1
735.727	54.21
736.047	54.45
736.366	54.47
736.686	54.59
737.005	54.8
737.325	54.91
737.644	54.83
737.963	54.58
738.283	54.37
738.602	54.48
738.921	54.25
739.24	54.26
739.56	53.95
739.879	53.94
740.198	53.89
740.517	54.02
740.836	54.12
741.155	53.78
741.473	53.57
741.792	53.12
742.111	53.07
742.43	52.81
742.748	52.31
743.067	52.12
743.386	52.01
743.704	51.79
744.023	51.78
744.341	51.61
744.66	51.76
744.978	51.67
745.297	51.5
745.615	51.68
745.933	51.72
746.252	52.03
746.57	51.83
746.888	51.72
747.206	51.83
747.524	51.58
747.842	51.87
748.16	52.08
748.478	52.38
748.796	52.35
749.114	52.68
749.432	53.15
749.749	53.17
750.067	53.26
750.385	53.08
750.703	52.51
751.02	52.38
751.338	52.2
751.655	52.6
751.973	52.76
752.29	52.48
752.608	52.43
752.925	52.73
753.242	52.91
753.56	52.92
753.877	52.84
754.194	52.94
754.511	52.85
754.828	52.62
755.145	52.67
755.462	52.94
755.779	52.73
756.096	52.69
756.413	52.76
756.73	52.55
757.047	52.43
757.364	52.75
757.68	52.72
757.997	52.48
758.314	52.25
758.63	52.04
758.947	52.03
759.264	51.79
759.58	51.49
759.896	51.16
760.213	50.82
760.529	50.8
760.846	50.71
761.162	50.7
761.478	50.8
761.794	50.65
762.11	50.69
762.426	50.86
762.743	50.72
763.059	50.74
763.375	50.72
763.69	50.83
764.006	50.98
764.322	51.11
764.638	51.35
764.954	51.25
765.27	51.38
765.585	51.42
765.901	51.49
766.216	51.49
766.532	51.53
766.848	51.94
767.163	52.09
767.478	52.38
767.794	52.53
768.109	52.44
768.424	52.45
768.74	52.57
769.055	52.48
769.37	52.92
769.685	52.78
770	53.02
770.315	53.31
770.63	53.07
770.945	53.47
771.26	53.26
771.575	53.14
771.89	53.13
772.205	53.15
772.52	53.28
772.834	53.67
773.149	53.66
773.464	53.28
773.778	53.5
774.093	53.61
774.407	53.59
774.722	53.77
775.036	53.71
775.351	53.33
775.665	53.24
775.979	52.97
776.293	53.03
776.608	53.15
776.922	52.73
777.236	52.97
777.55	52.71
777.864	52.73
778.178	53.38
778.492	53.63
778.806	53.45
779.12	53.61
779.434	53.1
779.747	53.23
780.061	53.66
780.375	52.94
780.689	52.39
781.002	52.45
781.316	52.23
781.629	52.6
781.943	53.08
782.256	53.11
782.57	52.79
782.883	53.39
783.196	52.86
783.51	52.96
783.823	52.58
784.136	52.41
784.449	52.43
784.762	52.27
785.075	51.9
785.388	52.22
785.701	52.02
786.014	52.07
786.327	52.26
786.64	52.2
786.953	52.23
787.266	52.95
787.578	52.68
787.891	53.08
788.204	53.18
788.516	52.76
788.829	52.89
789.141	52.92
789.454	52.57
789.766	52.5
790.079	52.96
790.391	53.02
790.703	53.13
791.016	53.43
791.328	53.33
791.64	53.45
791.952	52.85
792.264	53.04
792.576	53.18
792.888	53.57
793.2	53.06
793.512	53.25
793.824	52.93
794.136	53.31
794.448	52.71
794.76	52.13
795.071	52.29
795.383	52.08
795.695	52.63
796.006	52.13
796.318	52.61
796.629	51.88
796.941	52.1
797.252	52.14
797.564	51.94
797.875	51.26
798.186	50.76
798.497	51.53
798.809	51.35
799.12	51.52
799.431	51.42
799.742	51.9
800.053	51.96
800.364	51.74
800.675	51.56
800.986	51.63
801.297	51.64
801.608	51.47
801.918	51.27
802.229	51.16
802.54	51.59
802.851	51.38
803.161	51.5
803.472	51.08
803.782	50.91
804.093	50.99
804.403	51.26
804.714	51.87
805.024	51.74
805.334	50.92
805.645	50.81
805.955	50.27
806.265	50.13
806.575	50.22
806.885	50.4
807.195	50.47
807.505	50.6
807.815	51.16
808.125	51.13
808.435	50.93
808.745	50.68
809.055	50.63
809.365	50.57
809.674	50.92
809.984	51.89
810.294	52.09
810.603	52.18
810.913	53.07
811.222	52.82
811.532	52.92
811.841	53.59
812.151	53.69
812.46	54.03
812.769	53.66
813.079	53.44
813.388	53.86
813.697	54.04
814.006	53.96
814.315	53.99
814.624	53.95
814.933	54.02
815.242	53.89
815.551	53.86
815.86	53.98
816.169	53.67
816.478	53.23
816.786	53.06
817.095	53.07
817.404	52.23
817.712	52
818.021	51.82
818.33	51.89
818.638	51.83
818.947	51.97
819.255	52.19
819.563	52.02
819.872	52.01
820.18	51.78
820.488	51.95
820.796	51.91
821.105	51.89
821.413	51.96
821.721	52.35
822.029	52.42
822.337	52.35
822.645	52.4
822.953	52.11
823.26	52.27
823.568	52.18
823.876	52.25
824.184	52.23
824.491	52.05
824.799	52.09
825.107	52.19
825.414	52.27
825.722	52.24
826.029	52.46
826.337	52.42
826.644	52.33
826.951	52.17
827.259	51.89
827.566	51.88
827.873	51.89
828.18	51.61
828.488	51.41
828.795	51.46
829.102	51.41
829.409	51.7
829.716	51.28
830.023	51.48
830.329	51.66
830.636	52.24
830.943	52.69
831.25	52.75
831.557	52.54
831.863	52.19
832.17	52.54
832.476	52.04
832.783	52.47
833.089	53.03
833.396	53.04
833.702	53.45
834.009	53.99
834.315	53.97
834.621	53.68
834.928	53.86
835.234	53.68
835.54	53.53
835.846	53.41
836.152	53.25
836.458	52.9
836.764	52.78
837.07	52.05
837.376	52.16
837.682	52.11
837.988	52.29
838.293	52.17
838.599	52.03
838.905	52.11
839.211	51.5
839.516	50.75
839.822	51.49
840.127	51.02
840.433	50.27
840.738	50.09
841.044	50.19
841.349	50.09
841.654	50.25
841.959	50.33
842.265	50.89
842.57	52.13
842.875	52.35
843.18	51.74
843.485	51.99
843.79	52.1
844.095	51.32
844.4	50.37
844.705	49.32
845.01	48.42
845.315	48.32
845.619	47.32
845.924	48.36
846.229	47.03
846.533	46.69
846.838	47.61
847.142	47.72
847.447	47.54
847.751	47.95
848.056	48.11
848.36	49.46
848.664	49.98
848.969	49.22
849.273	49.19
849.577	49.86
849.881	51.45
850.185	50.38
850.489	51.36
850.794	52.92
851.097	55.25
851.401	56.9
851.705	56.54
852.009	58.34
852.313	56.91
852.617	58.47
852.92	62.59
853.224	59.85
853.528	61.13
853.831	59.72
854.135	58.53
854.438	57.18
854.742	55.97
855.045	55.59
855.349	54.98
855.652	55.96
855.955	55.75
856.259	55.47
856.562	55.56
856.865	56.35
857.168	54.11
857.471	54.24
857.774	55.59
858.077	55.21
858.38	53.38
858.683	51.88
858.986	52.51
859.289	50.17
859.592	52.82
859.894	51.97
860.197	52.57
860.5	53.94
860.802	54.6
861.105	54.35
861.407	52.42
861.71	53.3
862.012	51.78
862.315	51.52
862.617	48.23
862.919	48.86
863.222	47.59
863.524	50.55
863.826	50.2
864.128	46.6
864.43	47.25
864.732	48.26
865.034	50.51
865.336	49.29
865.638	47.78
865.94	45.66
866.242	44.46
866.544	44.74
866.846	43.47
867.147	44.67
867.449	44.54
867.751	44.3
868.052	43.95
868.354	43.87
868.655	44.84
868.957	47.16
869.258	44.59
869.56	45.93
869.861	42.07
870.162	41.39
870.463	43.19
870.765	42.85
871.066	43.66
871.367	42.55
871.668	42.52
871.969	40.99
872.27	42.08
872.571	41.76
872.872	40.78
873.173	42.08
873.473	43.38
873.774	41.82
874.075	41.85
874.376	43.39
874.676	42.51
874.977	43.25
875.277	42.54
875.578	43.96
875.878	42.88
876.179	45.46
876.479	45.84
876.78	44.57
877.08	45.35
877.38	42.99
877.68	43.84
877.981	43.31
878.281	48.32
878.581	47.75
