Data from BA57715_Reflection_00011.txt Node
Date: Mon Nov 18 15:26:09 EST 2019
User: vgr7
Spectrometer: USB2G7710
Scans to average: 3
Trigger mode: 4
Integration Time (sec): 2.000000E-2
Electric dark correction enabled: true
Boxcar width: 10
XAxis mode: Wavelengths
Number of Pixels in Spectrum: 2048
>>>>>Begin Spectral Data<<<<<
177.721	14.49
178.105	29.45
178.488	18.18
178.871	19.24
179.254	22.12
179.636	26.25
180.019	62.08
180.402	66.67
180.785	40.99
181.168	22.62
181.55	-35.31
181.933	46.82
182.316	28.74
182.698	9.19
183.081	8.21
183.463	-97.05
183.846	62.24
184.228	272.69
184.611	83.7
184.993	-430.86
185.376	-7.58
185.758	8.55
186.14	86.03
186.522	54.46
186.904	-240.07
187.287	-42.33
187.669	409.24
188.051	-1788.89
188.433	-503.86
188.815	-593.12
189.197	298.97
189.579	132.62
189.961	192.97
190.342	44.03
190.724	19.06
191.106	37.45
191.488	35.1
191.869	92.11
192.251	111.27
192.633	68.38
193.014	71.25
193.396	55.65
193.777	109.42
194.159	131.11
194.54	-6.86
194.922	-11.99
195.303	-3.92
195.684	-33.53
196.065	-8.39
196.447	-13.62
196.828	-33.48
197.209	4.17
197.59	4.06
197.971	-1.45
198.352	21.14
198.733	15.63
199.114	43.34
199.495	68.18
199.876	59.35
200.257	75.09
200.638	95.89
201.018	88.46
201.399	103.63
201.78	94.61
202.16	112.62
202.541	116.34
202.922	144.04
203.302	204.43
203.683	80.97
204.063	62
204.444	118.99
204.824	170.58
205.204	150.9
205.585	124.91
205.965	129.89
206.345	122.01
206.725	208.68
207.106	116.52
207.486	137.32
207.866	446.41
208.246	54.73
208.626	-375.18
209.006	37.85
209.386	-11.79
209.766	-83.38
210.145	-22.95
210.525	-64.47
210.905	-4.74
211.285	20.95
211.664	45.68
212.044	91.72
212.424	73.21
212.803	37.01
213.183	41.14
213.562	33.68
213.942	40.01
214.321	39.81
214.701	36.12
215.08	30.66
215.459	24.27
215.838	8.14
216.218	4.79
216.597	10.08
216.976	2.51
217.355	8.28
217.734	14.77
218.113	11.21
218.492	19.9
218.871	11.21
219.25	15.46
219.629	11.74
220.008	1.62
220.387	-7.25
220.766	8.25
221.144	-8.17
221.523	-13.04
221.902	-22.24
222.28	-19.56
222.659	-11.37
223.037	1.64
223.416	5.11
223.794	20.79
224.173	25.18
224.551	32.41
224.929	22.66
225.308	17.07
225.686	10.01
226.064	8.56
226.442	2.25
226.821	5.07
227.199	0.77
227.577	1.7
227.955	2.51
228.333	3.53
228.711	3.69
229.089	10.64
229.467	10.21
229.845	10.43
230.222	10.85
230.6	10.65
230.978	8.33
231.356	8.13
231.733	8.64
232.111	7.76
232.488	7.52
232.866	7.89
233.243	8.59
233.621	8.56
233.998	9.23
234.376	8.92
234.753	10.01
235.13	11.03
235.508	12.46
235.885	11.83
236.262	9.69
236.639	8
237.016	5.52
237.393	5.95
237.77	5.48
238.147	5.18
238.524	4.63
238.901	4.76
239.278	4.83
239.655	4.54
240.032	4.57
240.409	3.59
240.785	3.79
241.162	3.56
241.539	3.79
241.915	3.47
242.292	3.57
242.668	3.27
243.045	3.34
243.421	3.34
243.798	3.2
244.174	3.72
244.551	3.69
244.927	3.8
245.303	3.84
245.679	3.96
246.056	3.95
246.432	3.76
246.808	3.87
247.184	3.8
247.56	3.62
247.936	3.64
248.312	3.75
248.688	3.97
249.064	4.15
249.44	4.15
249.815	4.47
250.191	4.63
250.567	4.61
250.943	4.65
251.318	4.61
251.694	4.84
252.069	4.61
252.445	4.42
252.82	4.39
253.196	4.31
253.571	4.43
253.947	4.54
254.322	4.85
254.697	4.79
255.073	4.51
255.448	4.55
255.823	4.5
256.198	4.45
256.573	4.27
256.948	4.25
257.323	4.24
257.698	4.15
258.073	4.09
258.448	3.99
258.823	3.8
259.198	3.7
259.573	3.72
259.948	3.8
260.322	3.89
260.697	3.84
261.072	3.86
261.446	3.72
261.821	3.77
262.195	3.83
262.57	3.74
262.944	3.75
263.319	3.7
263.693	3.74
264.067	3.64
264.442	3.61
264.816	3.52
265.19	3.49
265.564	3.41
265.938	3.37
266.313	3.36
266.687	3.35
267.061	3.59
267.435	3.46
267.809	3.51
268.183	3.68
268.556	3.73
268.93	3.8
269.304	3.84
269.678	3.87
270.051	3.75
270.425	3.79
270.799	3.91
271.172	3.95
271.546	3.89
271.919	4.02
272.293	3.96
272.666	3.97
273.04	3.93
273.413	3.83
273.787	3.87
274.16	3.9
274.533	4.1
274.906	3.92
275.279	4.15
275.653	4.13
276.026	3.94
276.399	3.98
276.772	4
277.145	3.93
277.518	3.65
277.891	3.74
278.263	3.72
278.636	3.63
279.009	3.57
279.382	3.6
279.755	3.53
280.127	3.81
280.5	3.86
280.872	4.06
281.245	4.12
281.617	4.16
281.99	4.26
282.362	4.14
282.735	4.11
283.107	3.92
283.479	3.91
283.852	3.93
284.224	3.96
284.596	4.02
284.968	4.17
285.34	4.38
285.713	4.31
286.085	4.41
286.457	4.46
286.829	4.54
287.201	4.58
287.572	4.54
287.944	4.36
288.316	4.26
288.688	4.1
289.06	4.15
289.431	4.22
289.803	4.08
290.175	4.11
290.546	4.24
290.918	4.18
291.289	4.25
291.661	4.39
292.032	4.53
292.403	4.53
292.775	4.5
293.146	4.47
293.517	4.54
293.889	4.55
294.26	4.54
294.631	4.55
295.002	4.6
295.373	4.73
295.744	4.81
296.115	4.89
296.486	4.88
296.857	4.79
297.228	4.8
297.599	4.91
297.97	4.91
298.34	4.76
298.711	4.88
299.082	4.87
299.452	4.84
299.823	4.86
300.194	4.81
300.564	4.77
300.935	4.81
301.305	4.81
301.676	4.97
302.046	5.18
302.416	5.32
302.787	5.28
303.157	5.19
303.527	5.26
303.897	5.37
304.267	5.63
304.637	5.83
305.008	5.77
305.378	5.89
305.748	6.03
306.117	6.15
306.487	6.19
306.857	6.29
307.227	6.45
307.597	6.37
307.967	6.49
308.336	6.6
308.706	6.6
309.076	6.71
309.445	6.64
309.815	6.61
310.184	6.54
310.554	6.7
310.923	6.81
311.293	6.92
311.662	6.99
312.031	6.94
312.401	6.95
312.77	7.12
313.139	7.16
313.508	7.15
313.877	7.35
314.246	7.4
314.616	7.44
314.985	7.51
315.353	7.69
315.722	7.83
316.091	7.78
316.46	7.83
316.829	8.03
317.198	8.2
317.567	8.38
317.935	8.67
318.304	8.56
318.672	8.78
319.041	8.74
319.41	8.88
319.778	9.09
320.147	9.15
320.515	9.32
320.883	9.37
321.252	9.59
321.62	9.48
321.988	9.47
322.357	9.61
322.725	9.66
323.093	9.64
323.461	9.66
323.829	9.89
324.197	10.04
324.565	9.97
324.933	10.09
325.301	10.03
325.669	9.98
326.037	10.25
326.405	10.15
326.772	10.25
327.14	10.15
327.508	10.21
327.875	10.21
328.243	10.22
328.61	10.22
328.978	10.31
329.346	10.52
329.713	10.6
330.08	10.72
330.448	10.58
330.815	10.53
331.182	10.58
331.55	10.68
331.917	10.75
332.284	10.87
332.651	10.75
333.018	10.75
333.385	10.83
333.752	10.78
334.119	10.95
334.486	10.91
334.853	11.14
335.22	11.13
335.587	11.34
335.954	11.26
336.32	11.31
336.687	11.29
337.054	11.12
337.42	11.3
337.787	11.27
338.153	11.37
338.52	11.53
338.886	11.56
339.253	11.53
339.619	11.6
339.986	11.54
340.352	11.69
340.718	11.75
341.084	11.71
341.451	11.76
341.817	11.9
342.183	11.92
342.549	11.87
342.915	11.77
343.281	11.7
343.647	11.73
344.013	11.76
344.379	11.72
344.745	11.83
345.11	11.75
345.476	11.64
345.842	11.74
346.208	11.82
346.573	11.78
346.939	11.79
347.304	11.75
347.67	11.72
348.035	11.65
348.401	11.73
348.766	11.71
349.132	11.69
349.497	11.52
349.862	11.7
350.228	11.66
350.593	11.7
350.958	11.68
351.323	11.78
351.688	11.75
352.053	11.85
352.418	11.91
352.783	11.93
353.148	12.03
353.513	12.11
353.878	12.04
354.243	12.06
354.608	12.02
354.972	11.99
355.337	12.05
355.702	12.04
356.066	12.07
356.431	12.09
356.795	12.09
357.16	12.1
357.524	11.99
357.889	12.03
358.253	12.08
358.618	12.08
358.982	11.98
359.346	11.93
359.71	11.88
360.075	11.82
360.439	11.83
360.803	11.79
361.167	11.69
361.531	11.6
361.895	11.59
362.259	11.57
362.623	11.6
362.987	11.56
363.351	11.58
363.714	11.52
364.078	11.49
364.442	11.43
364.806	11.38
365.169	11.33
365.533	11.27
365.896	11.19
366.26	11.15
366.623	11.15
366.987	11.16
367.35	11.16
367.714	11.13
368.077	10.96
368.44	10.9
368.803	10.8
369.167	10.78
369.53	10.65
369.893	10.6
370.256	10.46
370.619	10.43
370.982	10.26
371.345	10.2
371.708	10.18
372.071	10.13
372.434	10.12
372.797	10.05
373.159	9.95
373.522	9.87
373.885	9.85
374.247	9.8
374.61	9.71
374.973	9.62
375.335	9.55
375.698	9.54
376.06	9.51
376.423	9.49
376.785	9.46
377.147	9.49
377.51	9.35
377.872	9.31
378.234	9.25
378.596	9.21
378.958	9.08
379.321	8.98
379.683	8.97
380.045	8.89
380.407	8.87
380.769	8.84
381.13	8.77
381.492	8.69
381.854	8.61
382.216	8.56
382.578	8.45
382.939	8.37
383.301	8.33
383.663	8.26
384.024	8.21
384.386	8.2
384.747	8.07
385.109	8.1
385.47	8.01
385.832	7.92
386.193	7.9
386.554	7.87
386.916	7.84
387.277	7.72
387.638	7.66
387.999	7.54
388.36	7.5
388.721	7.46
389.082	7.41
389.443	7.35
389.804	7.27
390.165	7.22
390.526	7.21
390.887	7.17
391.248	7.16
391.609	7.09
391.969	7.02
392.33	6.96
392.691	6.85
393.051	6.79
393.412	6.76
393.772	6.69
394.133	6.62
394.493	6.57
394.854	6.51
395.214	6.48
395.574	6.47
395.935	6.38
396.295	6.34
396.655	6.28
397.015	6.19
397.376	6.15
397.736	6.11
398.096	6.06
398.456	6
398.816	5.89
399.176	5.84
399.535	5.73
399.895	5.7
400.255	5.69
400.615	5.65
400.975	5.6
401.334	5.56
401.694	5.52
402.054	5.44
402.413	5.42
402.773	5.36
403.132	5.3
403.492	5.26
403.851	5.21
404.211	5.14
404.57	5.11
404.929	5.07
405.288	5.03
405.648	4.94
406.007	4.92
406.366	4.91
406.725	4.89
407.084	4.89
407.443	4.91
407.802	4.88
408.161	4.86
408.52	4.84
408.879	4.79
409.238	4.8
409.596	4.81
409.955	4.83
410.314	4.82
410.673	4.81
411.031	4.82
411.39	4.79
411.748	4.8
412.107	4.81
412.465	4.78
412.824	4.76
413.182	4.76
413.54	4.73
413.899	4.7
414.257	4.68
414.615	4.65
414.974	4.58
415.332	4.55
415.69	4.52
416.048	4.47
416.406	4.45
416.764	4.38
417.122	4.35
417.48	4.29
417.838	4.26
418.195	4.23
418.553	4.18
418.911	4.16
419.269	4.15
419.626	4.13
419.984	4.12
420.342	4.11
420.699	4.08
421.057	4.07
421.414	4.05
421.772	4.03
422.129	4.03
422.486	4.01
422.844	3.98
423.201	3.95
423.558	3.94
423.915	3.95
424.273	3.95
424.63	3.92
424.987	3.91
425.344	3.9
425.701	3.89
426.058	3.88
426.415	3.87
426.772	3.85
427.128	3.81
427.485	3.81
427.842	3.78
428.199	3.78
428.555	3.75
428.912	3.74
429.269	3.73
429.625	3.66
429.982	3.65
430.338	3.66
430.695	3.67
431.051	3.65
431.407	3.65
431.764	3.66
432.12	3.64
432.476	3.65
432.832	3.63
433.189	3.63
433.545	3.63
433.901	3.63
434.257	3.63
434.613	3.65
434.969	3.64
435.325	3.64
435.681	3.63
436.036	3.63
436.392	3.63
436.748	3.64
437.104	3.66
437.459	3.66
437.815	3.68
438.171	3.66
438.526	3.69
438.882	3.67
439.237	3.67
439.593	3.68
439.948	3.67
440.304	3.66
440.659	3.65
441.014	3.65
441.369	3.64
441.725	3.61
442.08	3.59
442.435	3.57
442.79	3.56
443.145	3.55
443.5	3.53
443.855	3.51
444.21	3.49
444.565	3.5
444.92	3.48
445.275	3.43
445.629	3.42
445.984	3.39
446.339	3.36
446.693	3.33
447.048	3.32
447.403	3.3
447.757	3.31
448.112	3.31
448.466	3.29
448.82	3.28
449.175	3.28
449.529	3.27
449.883	3.27
450.238	3.26
450.592	3.25
450.946	3.23
451.3	3.23
451.654	3.21
452.008	3.2
452.362	3.21
452.716	3.23
453.07	3.24
453.424	3.25
453.778	3.26
454.132	3.27
454.486	3.28
454.839	3.28
455.193	3.26
455.547	3.27
455.9	3.27
456.254	3.28
456.607	3.28
456.961	3.28
457.314	3.27
457.668	3.26
458.021	3.26
458.375	3.28
458.728	3.28
459.081	3.29
459.434	3.28
459.787	3.28
460.141	3.29
460.494	3.29
460.847	3.3
461.2	3.3
461.553	3.3
461.906	3.3
462.259	3.32
462.611	3.34
462.964	3.35
463.317	3.36
463.67	3.36
464.022	3.38
464.375	3.41
464.728	3.43
465.08	3.44
465.433	3.47
465.785	3.49
466.138	3.52
466.49	3.53
466.843	3.54
467.195	3.55
467.547	3.56
467.899	3.57
468.252	3.57
468.604	3.58
468.956	3.58
469.308	3.6
469.66	3.59
470.012	3.58
470.364	3.57
470.716	3.57
471.068	3.6
471.42	3.59
471.772	3.61
472.123	3.62
472.475	3.64
472.827	3.63
473.178	3.62
473.53	3.62
473.882	3.64
474.233	3.64
474.585	3.63
474.936	3.63
475.288	3.63
475.639	3.63
475.99	3.64
476.342	3.64
476.693	3.63
477.044	3.63
477.395	3.62
477.746	3.62
478.097	3.61
478.448	3.59
478.8	3.57
479.15	3.52
479.501	3.52
479.852	3.5
480.203	3.49
480.554	3.51
480.905	3.5
481.255	3.5
481.606	3.51
481.957	3.51
482.307	3.51
482.658	3.51
483.009	3.51
483.359	3.5
483.709	3.5
484.06	3.5
484.41	3.5
484.761	3.5
485.111	3.51
485.461	3.51
485.811	3.52
486.162	3.52
486.512	3.54
486.862	3.55
487.212	3.56
487.562	3.57
487.912	3.57
488.262	3.58
488.612	3.58
488.961	3.59
489.311	3.6
489.661	3.6
490.011	3.61
490.36	3.62
490.71	3.65
491.06	3.66
491.409	3.67
491.759	3.67
492.108	3.7
492.458	3.71
492.807	3.72
493.157	3.74
493.506	3.76
493.855	3.78
494.204	3.79
494.554	3.83
494.903	3.84
495.252	3.87
495.601	3.91
495.95	3.93
496.299	3.95
496.648	3.98
496.997	4.03
497.346	4.07
497.695	4.12
498.043	4.15
498.392	4.18
498.741	4.22
499.09	4.27
499.438	4.3
499.787	4.35
500.135	4.42
500.484	4.48
500.832	4.54
501.181	4.61
501.529	4.69
501.878	4.75
502.226	4.83
502.574	4.88
502.923	4.94
503.271	5.01
503.619	5.08
503.967	5.15
504.315	5.21
504.663	5.26
505.011	5.33
505.359	5.4
505.707	5.49
506.055	5.58
506.403	5.66
506.751	5.75
507.098	5.84
507.446	5.94
507.794	6.02
508.141	6.11
508.489	6.19
508.837	6.25
509.184	6.34
509.531	6.43
509.879	6.53
510.226	6.63
510.574	6.71
510.921	6.79
511.268	6.86
511.616	6.97
511.963	7.06
512.31	7.17
512.657	7.29
513.004	7.4
513.351	7.51
513.698	7.62
514.045	7.74
514.392	7.85
514.739	7.95
515.086	8.08
515.432	8.18
515.779	8.3
516.126	8.44
516.473	8.55
516.819	8.65
517.166	8.77
517.512	8.88
517.859	9
518.205	9.11
518.552	9.23
518.898	9.34
519.245	9.45
519.591	9.54
519.937	9.65
520.283	9.76
520.629	9.88
520.976	10.03
521.322	10.17
521.668	10.33
522.014	10.52
522.36	10.69
522.706	10.88
523.052	11.08
523.398	11.28
523.743	11.52
524.089	11.74
524.435	11.95
524.781	12.17
525.126	12.35
525.472	12.54
525.817	12.72
526.163	12.88
526.509	13.05
526.854	13.2
527.199	13.35
527.545	13.51
527.89	13.68
528.235	13.82
528.581	13.98
528.926	14.13
529.271	14.28
529.616	14.44
529.961	14.6
530.306	14.75
530.651	14.92
530.996	15.1
531.341	15.29
531.686	15.49
532.031	15.7
532.376	15.93
532.721	16.16
533.065	16.38
533.41	16.62
533.755	16.86
534.099	17.13
534.444	17.38
534.788	17.61
535.133	17.82
535.477	18.08
535.822	18.33
536.166	18.62
536.51	18.91
536.855	19.22
537.199	19.56
537.543	19.93
537.887	20.28
538.231	20.59
538.576	20.93
538.92	21.27
539.264	21.6
539.608	21.9
539.951	22.19
540.295	22.5
540.639	22.78
540.983	23.04
541.327	23.33
541.671	23.57
542.014	23.85
542.358	24.12
542.701	24.39
543.045	24.65
543.389	24.92
543.732	25.21
544.075	25.49
544.419	25.74
544.762	26.03
545.105	26.36
545.449	26.7
545.792	27.03
546.135	27.36
546.478	27.69
546.821	28.06
547.165	28.42
547.508	28.77
547.851	29.12
548.194	29.5
548.536	29.84
548.879	30.23
549.222	30.58
549.565	30.97
549.908	31.31
550.25	31.72
550.593	32.06
550.936	32.38
551.278	32.75
551.621	33.13
551.963	33.45
552.306	33.77
552.648	34.11
552.991	34.44
553.333	34.77
553.675	35.07
554.017	35.37
554.36	35.72
554.702	36.02
555.044	36.34
555.386	36.66
555.728	36.99
556.07	37.34
556.412	37.62
556.754	37.96
557.096	38.3
557.438	38.52
557.78	38.83
558.121	39.15
558.463	39.43
558.805	39.67
559.147	39.97
559.488	40.22
559.83	40.5
560.171	40.77
560.513	41.05
560.854	41.31
561.196	41.62
561.537	41.85
561.878	42.14
562.22	42.4
562.561	42.65
562.902	42.9
563.243	43.17
563.584	43.4
563.925	43.62
564.266	43.84
564.607	44.15
564.948	44.44
565.289	44.71
565.63	44.95
565.971	45.22
566.312	45.44
566.653	45.66
566.993	45.87
567.334	46.07
567.675	46.29
568.015	46.51
568.356	46.66
568.696	46.88
569.037	47.07
569.377	47.3
569.718	47.45
570.058	47.63
570.398	47.78
570.739	48.03
571.079	48.23
571.419	48.44
571.759	48.58
572.099	48.7
572.439	48.78
572.779	48.95
573.119	49.13
573.459	49.3
573.799	49.41
574.139	49.53
574.479	49.67
574.819	49.77
575.158	49.89
575.498	50.11
575.838	50.22
576.177	50.33
576.517	50.43
576.856	50.58
577.196	50.71
577.535	50.84
577.875	50.93
578.214	51.03
578.553	51.17
578.893	51.32
579.232	51.51
579.571	51.67
579.91	51.78
580.25	51.84
580.589	51.95
580.928	52.17
581.267	52.3
581.606	52.48
581.945	52.61
582.283	52.77
582.622	52.76
582.961	52.91
583.3	53.04
583.639	53.17
583.977	53.27
584.316	53.4
584.654	53.46
584.993	53.53
585.332	53.69
585.67	53.77
586.008	53.86
586.347	53.86
586.685	53.99
587.024	54.13
587.362	54.24
587.7	54.22
588.038	54.28
588.376	54.38
588.715	54.45
589.053	54.55
589.391	54.58
589.729	54.72
590.067	54.78
590.404	54.83
590.742	54.92
591.08	55.05
591.418	55.06
591.756	55.22
592.093	55.33
592.431	55.32
592.769	55.39
593.106	55.48
593.444	55.61
593.781	55.68
594.119	55.76
594.456	55.83
594.793	55.96
595.131	55.95
595.468	56.02
595.805	56.06
596.143	56.12
596.48	56.2
596.817	56.25
597.154	56.26
597.491	56.35
597.828	56.38
598.165	56.43
598.502	56.49
598.839	56.51
599.176	56.55
599.512	56.64
599.849	56.66
600.186	56.68
600.523	56.73
600.859	56.72
601.196	56.75
601.532	56.78
601.869	56.81
602.205	56.95
602.542	57.02
602.878	57.11
603.215	57.11
603.551	57.16
603.887	57.21
604.223	57.28
604.56	57.35
604.896	57.39
605.232	57.45
605.568	57.58
605.904	57.64
606.24	57.7
606.576	57.7
606.912	57.7
607.248	57.79
607.583	57.85
607.919	57.95
608.255	57.97
608.591	58.02
608.926	58.13
609.262	58.11
609.597	58.17
609.933	58.2
610.268	58.25
610.604	58.31
610.939	58.39
611.275	58.48
611.61	58.49
611.945	58.53
612.281	58.54
612.616	58.51
612.951	58.48
613.286	58.54
613.621	58.64
613.956	58.72
614.291	58.71
614.626	58.69
614.961	58.77
615.296	58.77
615.631	58.84
615.966	58.77
616.3	58.88
616.635	58.87
616.97	58.81
617.304	58.86
617.639	58.83
617.973	58.79
618.308	58.79
618.642	58.78
618.977	58.84
619.311	58.88
619.646	58.97
619.98	59
620.314	59.03
620.648	59.03
620.983	59.08
621.317	59.09
621.651	59.19
621.985	59.08
622.319	59.18
622.653	59.24
622.987	59.37
623.321	59.42
623.655	59.52
623.988	59.6
624.322	59.58
624.656	59.63
624.99	59.75
625.323	59.78
625.657	59.77
625.99	59.8
626.324	59.78
626.657	59.79
626.991	59.9
627.324	59.94
627.658	60.01
627.991	60.05
628.324	60.1
628.657	60.08
628.991	60.12
629.324	60.09
629.657	60.08
629.99	60.07
630.323	59.95
630.656	59.85
630.989	59.89
631.322	59.92
631.655	59.93
631.987	59.85
632.32	59.73
632.653	59.73
632.986	59.68
633.318	59.77
633.651	59.72
633.984	59.62
634.316	59.62
634.649	59.6
634.981	59.61
635.313	59.63
635.646	59.71
635.978	59.82
636.31	59.9
636.643	59.87
636.975	59.86
637.307	59.98
637.639	60.09
637.971	60.1
638.303	60.18
638.635	60.19
638.967	60.25
639.299	60.49
639.631	60.53
639.963	60.53
640.295	60.6
640.626	60.62
640.958	60.86
641.29	60.88
641.621	61.01
641.953	61.1
642.285	61.25
642.616	61.28
642.948	61.24
643.279	61.22
643.61	61.32
643.942	61.34
644.273	61.41
644.604	61.31
644.936	61.28
645.267	61.24
645.598	61.28
645.929	61.25
646.26	61.12
646.591	61.21
646.922	61.19
647.253	61.18
647.584	61.15
647.915	61.03
648.245	60.95
648.576	60.84
648.907	60.7
649.238	60.7
649.568	60.65
649.899	60.68
650.229	60.77
650.56	60.77
650.89	60.7
651.221	60.66
651.551	60.75
651.882	60.86
652.212	60.9
652.542	60.87
652.872	60.89
653.203	60.99
653.533	60.95
653.863	61
654.193	60.98
654.523	61.12
654.853	61.12
655.183	61.24
655.513	61.25
655.843	61.38
656.172	61.29
656.502	61.36
656.832	61.32
657.162	61.33
657.491	61.34
657.821	61.44
658.15	61.53
658.48	61.51
658.809	61.62
659.139	61.7
659.468	61.74
659.798	61.77
660.127	61.77
660.456	61.81
660.785	61.87
661.115	61.87
661.444	61.87
661.773	61.82
662.102	61.79
662.431	61.91
662.76	61.84
663.089	61.88
663.418	61.82
663.747	61.98
664.076	61.9
664.404	61.84
664.733	61.9
665.062	61.79
665.39	61.79
665.719	61.58
666.048	61.46
666.376	61.38
666.705	61.48
667.033	61.41
667.362	61.43
667.69	61.42
668.018	61.45
668.347	61.53
668.675	61.58
669.003	61.68
669.331	61.63
669.659	61.75
669.987	61.69
670.315	61.75
670.643	61.58
670.971	61.65
671.299	61.71
671.627	61.65
671.955	61.72
672.283	61.64
672.61	61.75
672.938	61.9
673.266	61.96
673.593	61.92
673.921	61.94
674.249	61.96
674.576	61.92
674.904	61.9
675.231	61.73
675.558	61.81
675.886	61.7
676.213	61.76
676.54	61.78
676.867	61.73
677.195	61.67
677.522	61.81
677.849	61.86
678.176	61.92
678.503	61.86
678.83	61.9
679.157	62.08
679.484	61.96
679.81	61.81
680.137	62
680.464	62.01
680.791	62.04
681.117	61.99
681.444	62.05
681.771	62.07
682.097	62.17
682.424	62.17
682.75	62.22
683.077	62.06
683.403	62.01
683.729	62.15
684.056	62.21
684.382	62.11
684.708	61.91
685.034	61.93
685.36	61.98
685.686	61.75
686.012	61.68
686.339	61.81
686.664	61.98
686.99	61.8
687.316	61.81
687.642	61.92
687.968	61.87
688.294	61.86
688.619	62.03
688.945	61.95
689.271	62.02
689.596	61.97
689.922	61.98
690.247	61.9
690.573	61.91
690.898	61.89
691.224	61.9
691.549	62.08
691.874	62.05
692.2	62.21
692.525	62.48
692.85	62.5
693.175	62.41
693.5	62.44
693.825	62.49
694.15	62.41
694.475	62.6
694.8	62.62
695.125	62.69
695.45	62.48
695.775	62.63
696.099	62.57
696.424	62.64
696.749	62.78
697.073	62.95
697.398	62.82
697.723	62.87
698.047	62.83
698.372	62.72
698.696	62.81
699.02	62.63
699.345	62.6
699.669	62.64
699.993	62.74
700.318	62.65
700.642	62.51
700.966	62.68
701.29	62.51
701.614	62.58
701.938	62.57
702.262	62.69
702.586	62.63
702.91	62.65
703.234	62.57
703.557	62.58
703.881	62.41
704.205	62.57
704.529	62.49
704.852	62.61
705.176	62.68
705.499	62.64
705.823	62.77
706.146	62.72
706.47	62.7
706.793	62.68
707.117	62.71
707.44	62.92
707.763	62.83
708.086	62.69
708.409	62.83
708.733	62.83
709.056	62.85
709.379	62.86
709.702	62.91
710.025	63.04
710.348	63.04
710.671	63.04
710.993	62.97
711.316	62.85
711.639	62.87
711.962	62.91
712.284	62.79
712.607	62.83
712.93	62.94
713.252	62.91
713.575	62.95
713.897	62.93
714.22	63.1
714.542	63.14
714.864	63.07
715.187	62.96
715.509	63.04
715.831	62.84
716.153	63.01
716.475	62.98
716.798	63.04
717.12	63.07
717.442	63.15
717.764	63.09
718.085	63.26
718.407	63.17
718.729	63.26
719.051	63.47
719.373	63.55
719.695	63.38
720.016	63.5
720.338	63.41
720.659	63.39
720.981	63.22
721.302	63
721.624	63.33
721.945	63.27
722.267	63.04
722.588	63.16
722.909	62.87
723.231	62.8
723.552	62.59
723.873	62.52
724.194	62.49
724.515	62.72
724.836	62.62
725.157	62.92
725.478	62.73
725.799	62.6
726.12	62.57
726.441	62.57
726.762	62.27
727.083	62.21
727.403	62.44
727.724	62.55
728.045	62.56
728.365	62.58
728.686	62.71
729.006	62.81
729.327	62.72
729.647	62.89
729.967	62.77
730.288	62.79
730.608	62.78
730.928	62.81
731.249	62.45
731.569	62.48
731.889	62.56
732.209	62.83
732.529	62.94
732.849	62.84
733.169	62.77
733.489	63.01
733.809	63.08
734.129	62.98
734.448	62.73
734.768	62.97
735.088	62.7
735.408	62.73
735.727	62.74
736.047	62.85
736.366	62.57
736.686	62.74
737.005	62.69
737.325	62.63
737.644	62.79
737.963	62.92
738.283	62.88
738.602	62.73
738.921	62.63
739.24	62.54
739.56	62.4
739.879	62.75
740.198	62.74
740.517	62.68
740.836	62.66
741.155	62.42
741.473	62.27
741.792	62.14
742.111	61.88
742.43	61.67
742.748	61.58
743.067	61.69
743.386	61.57
743.704	61.58
744.023	61.73
744.341	61.56
744.66	62.06
744.978	62.19
745.297	61.96
745.615	61.91
745.933	61.77
746.252	62.08
746.57	61.78
746.888	62.09
747.206	62.21
747.524	62.11
747.842	62.48
748.16	62.35
748.478	62.83
748.796	63.1
749.114	63.48
749.432	63.61
749.749	63.62
750.067	63.65
750.385	63.76
750.703	63.61
751.02	63.3
751.338	62.86
751.655	62.97
751.973	62.84
752.29	62.93
752.608	62.71
752.925	62.76
753.242	63.21
753.56	62.85
753.877	62.82
754.194	63.03
754.511	62.98
754.828	63.05
755.145	62.82
755.462	62.82
755.779	62.46
756.096	62.48
756.413	62.62
756.73	62.62
757.047	62.3
757.364	62.41
757.68	62.59
757.997	62.56
758.314	62.67
758.63	62.86
758.947	62.98
759.264	63.15
759.58	63.04
759.896	62.71
760.213	62.57
760.529	62.4
760.846	62.15
761.162	62.11
761.478	62.18
761.794	62.28
762.11	62.48
762.426	62.87
762.743	62.8
763.059	62.65
763.375	62.8
763.69	62.92
764.006	62.94
764.322	62.94
764.638	63.09
764.954	62.9
765.27	62.93
765.585	62.63
765.901	62.65
766.216	62.67
766.532	62.81
766.848	62.96
767.163	63.11
767.478	63.37
767.794	63.49
768.109	63.42
768.424	63.35
768.74	63.17
769.055	63.03
769.37	63.4
769.685	63.5
770	63.62
770.315	63.74
770.63	63.62
770.945	63.39
771.26	63.32
771.575	63.47
771.89	63.38
772.205	63.21
772.52	63.06
772.834	62.82
773.149	62.69
773.464	62.84
773.778	62.82
774.093	62.77
774.407	62.73
774.722	62.98
775.036	63.06
775.351	62.67
775.665	62.59
775.979	62.4
776.293	62.05
776.608	61.84
776.922	61.86
777.236	61.82
777.55	61.76
777.864	61.62
778.178	61.86
778.492	62.19
778.806	62.64
779.12	63.14
779.434	63.47
779.747	63.76
780.061	63.54
780.375	63.77
780.689	63.23
781.002	63.3
781.316	63.26
781.629	63.12
781.943	63.45
782.256	63.24
782.57	63.15
782.883	63.68
783.196	63.54
783.51	63.33
783.823	63.22
784.136	63.93
784.449	64.24
784.762	63.49
785.075	63.37
785.388	63.53
785.701	63.25
786.014	62.65
786.327	62.58
786.64	62.58
786.953	62.5
787.266	62.68
787.578	62.93
787.891	63.36
788.204	63.72
788.516	63.72
788.829	64.13
789.141	64.22
789.454	64.02
789.766	63.81
790.079	64.18
790.391	64.04
790.703	63.99
791.016	63.82
791.328	64.37
791.64	64.38
791.952	63.58
792.264	63.52
792.576	64.43
792.888	63.97
793.2	63.91
793.512	63.79
793.824	63.45
794.136	63.27
794.448	62.87
794.76	62.83
795.071	63.08
795.383	62.96
795.695	62.27
796.006	62.29
796.318	62.71
796.629	62.1
796.941	62.07
797.252	62.09
797.564	62.3
797.875	62.1
798.186	61.37
798.497	62
798.809	62.53
799.12	62.18
799.431	62.42
799.742	62.8
800.053	62.69
800.364	63.22
800.675	63.12
800.986	62.78
801.297	63.13
801.608	62.27
801.918	61.6
802.229	62.54
802.54	62.65
802.851	62.24
803.161	62.75
803.472	62.57
803.782	62.68
804.093	62.85
804.403	62.77
804.714	63.32
805.024	63.34
805.334	62.49
805.645	62.73
805.955	63.36
806.265	63.08
806.575	62.47
806.885	62.43
807.195	62.13
807.505	62.59
807.815	62.27
808.125	62.57
808.435	63.38
808.745	63.16
809.055	63.09
809.365	63.4
809.674	63.55
809.984	64.77
810.294	64.24
810.603	63.52
810.913	63.91
811.222	64.16
811.532	64.78
811.841	65.66
812.151	65.65
812.46	64.8
812.769	64.67
813.079	65.44
813.388	66.03
813.697	66.17
814.006	65.29
814.315	64.87
814.624	65.31
814.933	64.44
815.242	64.55
815.551	64.21
815.86	64.24
816.169	64.25
816.478	63.65
816.786	63.93
817.095	64.03
817.404	63.39
817.712	62.76
818.021	62.5
818.33	62.23
818.638	62.63
818.947	62.92
819.255	62.95
819.563	62.64
819.872	62.51
820.18	62.69
820.488	63.36
820.796	63.62
821.105	63.39
821.413	63.77
821.721	63.8
822.029	64.16
822.337	63.93
822.645	63.59
822.953	63.69
823.26	63.71
823.568	63.74
823.876	63.75
824.184	63.87
824.491	63.94
824.799	63.97
825.107	63.84
825.414	63.84
825.722	63.94
826.029	64.25
826.337	64.31
826.644	64.35
826.951	64.04
827.259	63.62
827.566	63.84
827.873	63.62
828.18	63.46
828.488	63.32
828.795	63.67
829.102	64.11
829.409	64.05
829.716	64
830.023	64.14
830.329	64.37
830.636	64.29
830.943	64.23
831.25	64.03
831.557	63.8
831.863	63.31
832.17	63.06
832.476	62.62
832.783	62.75
833.089	62.99
833.396	63.4
833.702	63.96
834.009	64.33
834.315	64.68
834.621	64.69
834.928	64.46
835.234	64.51
835.54	64.33
835.846	64.51
836.152	64.59
836.458	64.89
836.764	64.78
837.07	64.74
837.376	64.69
837.682	64.66
837.988	65.16
838.293	65.79
838.599	66.02
838.905	66.21
839.211	65.71
839.516	65.84
839.822	65.97
840.127	66.44
840.433	65.34
840.738	64.99
841.044	64.42
841.349	65.13
841.654	64.64
841.959	64.58
842.265	65.11
842.57	65.9
842.875	64.8
843.18	65.34
843.485	65.53
843.79	65.33
844.095	66.1
844.4	65.56
844.705	65.87
845.01	65.47
845.315	66.17
845.619	66.1
845.924	66.13
846.229	66.54
846.533	66.8
846.838	68.63
847.142	69.35
847.447	69.82
847.751	69.31
848.056	69.71
848.36	70.8
848.664	69.36
848.969	68.31
849.273	68.79
849.577	68.08
849.881	69.87
850.185	68.74
850.489	66.97
850.794	67.59
851.097	66.39
851.401	67.92
851.705	66.5
852.009	68.02
852.313	66.3
852.617	65.04
852.92	65.39
853.224	62.63
853.528	63.03
853.831	65.44
854.135	63.91
854.438	62.79
854.742	60.76
855.045	62.57
855.349	62.15
855.652	64.65
855.955	63.06
856.259	64.04
856.562	64.66
856.865	66.92
857.168	66
857.471	67.01
857.774	66.97
858.077	69.04
858.38	70.58
858.683	71.5
858.986	72.82
859.289	73.89
859.592	74.14
859.894	73.26
860.197	72.42
860.5	74.79
860.802	74.76
861.105	74.97
861.407	72.5
861.71	70.97
862.012	71.64
862.315	73.18
862.617	71.38
862.919	70.32
863.222	69.95
863.524	71.81
863.826	72.23
864.128	72.31
864.43	72.33
864.732	71.17
865.034	70.81
865.336	68.82
865.638	68.34
865.94	70.44
866.242	69.73
866.544	68.18
866.846	66.15
867.147	66.67
867.449	67.58
867.751	67.99
868.052	70.38
868.354	65.64
868.655	69.45
868.957	70.56
869.258	70.78
869.56	69.4
869.861	68.24
870.162	65.45
870.463	66.85
870.765	65.03
871.066	63.55
871.367	63.41
871.668	64.09
871.969	63.08
872.27	62.22
872.571	62.65
872.872	63.65
873.173	63.67
873.473	67.18
873.774	65.16
874.075	64.13
874.376	63.34
874.676	62.42
874.977	58.51
875.277	58.1
875.578	58.91
875.878	59.74
876.179	59.31
876.479	60.95
876.78	58.31
877.08	58.69
877.38	59.62
877.68	59.51
877.981	59.2
878.281	58.08
878.581	57.92
