Data from BA57710_Reflection_00001.txt Node
Date: Mon Nov 18 15:31:36 EST 2019
User: vgr7
Spectrometer: USB2G7710
Scans to average: 3
Trigger mode: 4
Integration Time (sec): 2.000000E-2
Electric dark correction enabled: true
Boxcar width: 10
XAxis mode: Wavelengths
Number of Pixels in Spectrum: 2048
>>>>>Begin Spectral Data<<<<<
177.721	41.25
178.105	12.03
178.488	-9.44
178.871	2.9
179.254	-167.08
179.636	2.06
180.019	-2.9
180.402	66.67
180.785	136.34
181.168	93.21
181.55	92.22
181.933	94.59
182.316	170.55
182.698	296.21
183.081	427.1
183.463	-744.36
183.846	-804.44
184.228	-223.82
184.611	-226.32
184.993	-37.43
185.376	-17.49
185.758	-61.41
186.14	-137.71
186.522	-192.66
186.904	-161.11
187.287	-315.61
187.669	-107.28
188.051	-109.26
188.433	-241.5
188.815	-45.77
189.197	-74.29
189.579	-59.17
189.961	-42.44
190.342	-66.74
190.724	-48.98
191.106	-64.13
191.488	-71.12
191.869	-55.27
192.251	-91.46
192.633	-100.44
193.014	-154.09
193.396	-194.9
193.777	-122.19
194.159	-107.47
194.54	-99.31
194.922	-113.56
195.303	-119.65
195.684	-137.79
196.065	-125.66
196.447	-120.71
196.828	-184.45
197.209	-161.1
197.59	-201.5
197.971	-207.46
198.352	-137.18
198.733	-152.4
199.114	-126.41
199.495	-127.05
199.876	-171.09
200.257	-126.25
200.638	-117.17
201.018	-105.47
201.399	-88.22
201.78	-84.83
202.16	-115.67
202.541	-125.38
202.922	-138.18
203.302	-140.61
203.683	-133.18
204.063	-143.13
204.444	-136.3
204.824	-127.88
205.204	-116.95
205.585	-121.26
205.965	-133.07
206.345	-139.77
206.725	-148.86
207.106	-164.34
207.486	-178.87
207.866	-143.57
208.246	-133.05
208.626	-181.53
209.006	-123.04
209.386	-198.31
209.766	-193.72
210.145	-129.79
210.525	-136.24
210.905	-91.19
211.285	-92.87
211.664	-105.37
212.044	-100
212.424	-80.16
212.803	-93.21
213.183	-83.59
213.562	-68.94
213.942	-57.79
214.321	-58.12
214.701	-69.01
215.08	-88.8
215.459	-67.96
215.838	-69.9
216.218	-97.23
216.597	-67.09
216.976	-77.08
217.355	-62.66
217.734	-64.99
218.113	-63.12
218.492	-54.1
218.871	-56.07
219.25	-50.86
219.629	-50.96
220.008	-51.95
220.387	-55.38
220.766	-53.72
221.144	-80.31
221.523	-110.07
221.902	-110.81
222.28	-108.83
222.659	-105.16
223.037	-99.22
223.416	-104.7
223.794	-93.68
224.173	-64.7
224.551	-56.19
224.929	-59.04
225.308	-52.13
225.686	-46.02
226.064	-38.22
226.442	-37.36
226.821	-33.16
227.199	-29.06
227.577	-24.97
227.955	-20.61
228.333	-20.44
228.711	-14.96
229.089	-10.01
229.467	-6.75
229.845	-10.11
230.222	-10.57
230.6	-10.39
230.978	-8.34
231.356	-8
231.733	-8.55
232.111	-9.54
232.488	-8.87
232.866	-8.54
233.243	-8.3
233.621	-8.7
233.998	-9.64
234.376	-9.57
234.753	-9.87
235.13	-10.41
235.508	-9.23
235.885	-9.27
236.262	-9.68
236.639	-9.16
237.016	-9.27
237.393	-6.68
237.77	-3.48
238.147	-2.15
238.524	-2.14
238.901	-0.64
239.278	0.43
239.655	0.88
240.032	0.97
240.409	1.09
240.785	1.41
241.162	1.83
241.539	2.27
241.915	2.87
242.292	2.94
242.668	2.81
243.045	3
243.421	2.85
243.798	2.98
244.174	3.29
244.551	3.36
244.927	3.48
245.303	3.39
245.679	3.62
246.056	3.18
246.432	3.37
246.808	3.02
247.184	2.7
247.56	2.71
247.936	2.84
248.312	2.91
248.688	2.85
249.064	2.95
249.44	2.9
249.815	2.93
250.191	3.07
250.567	3.21
250.943	3.18
251.318	3.1
251.694	2.93
252.069	3.18
252.445	3.2
252.82	3.38
253.196	3.13
253.571	2.99
253.947	3.44
254.322	3.67
254.697	3.83
255.073	3.62
255.448	3.58
255.823	3.44
256.198	3.48
256.573	3.65
256.948	3.66
257.323	3.96
257.698	3.98
258.073	3.91
258.448	3.89
258.823	3.9
259.198	3.87
259.573	3.82
259.948	3.64
260.322	3.58
260.697	3.48
261.072	3.64
261.446	3.46
261.821	3.48
262.195	3.44
262.57	3.36
262.944	3.46
263.319	3.5
263.693	3.4
264.067	3.31
264.442	3.33
264.816	3.13
265.19	2.82
265.564	2.67
265.938	2.49
266.313	2.35
266.687	2.35
267.061	2.56
267.435	2.6
267.809	2.64
268.183	2.54
268.556	2.34
268.93	2.3
269.304	2.49
269.678	2.47
270.051	2.33
270.425	2.48
270.799	2.58
271.172	2.42
271.546	2.52
271.919	2.64
272.293	2.47
272.666	2.54
273.04	2.66
273.413	2.67
273.787	2.76
274.16	2.87
274.533	3.02
274.906	2.86
275.279	2.85
275.653	2.89
276.026	2.95
276.399	3.11
276.772	3.16
277.145	2.9
277.518	3
277.891	3.09
278.263	2.94
278.636	2.97
279.009	3.1
279.382	3.1
279.755	3.12
280.127	3.4
280.5	3.46
280.872	3.47
281.245	3.53
281.617	3.51
281.99	3.62
282.362	3.45
282.735	3.41
283.107	3.5
283.479	3.42
283.852	3.38
284.224	3.41
284.596	3.51
284.968	3.59
285.34	3.63
285.713	3.65
286.085	3.73
286.457	3.85
286.829	3.85
287.201	4.02
287.572	3.89
287.944	3.82
288.316	3.9
288.688	3.89
289.06	3.86
289.431	3.97
289.803	3.83
290.175	3.93
290.546	4.1
290.918	4.18
291.289	4.26
291.661	4.42
292.032	4.43
292.403	4.35
292.775	4.47
293.146	4.44
293.517	4.4
293.889	4.49
294.26	4.44
294.631	4.64
295.002	4.56
295.373	4.67
295.744	4.7
296.115	4.68
296.486	4.58
296.857	4.65
297.228	4.71
297.599	4.77
297.97	4.81
298.34	4.76
298.711	4.83
299.082	4.79
299.452	4.96
299.823	5.03
300.194	5.06
300.564	5.09
300.935	5.07
301.305	5.23
301.676	5.28
302.046	5.39
302.416	5.37
302.787	5.36
303.157	5.34
303.527	5.43
303.897	5.53
304.267	5.8
304.637	5.73
305.008	5.73
305.378	5.92
305.748	5.94
306.117	6.04
306.487	5.89
306.857	5.99
307.227	5.9
307.597	5.84
307.967	5.82
308.336	5.93
308.706	6.05
309.076	6.08
309.445	6.07
309.815	6
310.184	5.82
310.554	5.92
310.923	5.88
311.293	5.85
311.662	5.76
312.031	5.71
312.401	5.64
312.77	5.6
313.139	5.53
313.508	5.54
313.877	5.48
314.246	5.6
314.616	5.72
314.985	5.62
315.353	5.57
315.722	5.58
316.091	5.38
316.46	5.18
316.829	5.17
317.198	5.07
317.567	5.01
317.935	5.01
318.304	4.9
318.672	5
319.041	5.04
319.41	5.07
319.778	5.01
320.147	5.19
320.515	5.18
320.883	5.06
321.252	5.2
321.62	5.29
321.988	5.3
322.357	5.12
322.725	5.13
323.093	5.27
323.461	5.28
323.829	5.44
324.197	5.46
324.565	5.46
324.933	5.51
325.301	5.55
325.669	5.63
326.037	5.65
326.405	5.59
326.772	5.66
327.14	5.76
327.508	5.86
327.875	5.78
328.243	5.89
328.61	5.87
328.978	5.76
329.346	5.77
329.713	5.65
330.08	5.7
330.448	5.53
330.815	5.35
331.182	5.48
331.55	5.35
331.917	5.51
332.284	5.49
332.651	5.42
333.018	5.41
333.385	5.59
333.752	5.64
334.119	5.76
334.486	5.65
334.853	5.49
335.22	5.34
335.587	5.45
335.954	5.42
336.32	5.42
336.687	5.54
337.054	5.58
337.42	5.68
337.787	5.71
338.153	5.81
338.52	5.97
338.886	5.83
339.253	5.8
339.619	5.71
339.986	5.76
340.352	5.84
340.718	5.83
341.084	5.78
341.451	5.8
341.817	5.76
342.183	5.78
342.549	5.75
342.915	5.81
343.281	5.82
343.647	5.83
344.013	5.92
344.379	5.69
344.745	5.63
345.11	5.65
345.476	5.61
345.842	5.64
346.208	5.7
346.573	5.81
346.939	5.88
347.304	5.93
347.67	5.82
348.035	5.81
348.401	5.83
348.766	5.81
349.132	5.73
349.497	5.68
349.862	5.68
350.228	5.76
350.593	5.74
350.958	5.83
351.323	5.8
351.688	5.84
352.053	5.95
352.418	6.05
352.783	5.97
353.148	5.99
353.513	5.98
353.878	5.88
354.243	5.91
354.608	6
354.972	5.99
355.337	6.06
355.702	6.13
356.066	6.21
356.431	6.15
356.795	6.24
357.16	6.22
357.524	6.22
357.889	6.24
358.253	6.29
358.618	6.26
358.982	6.25
359.346	6.16
359.71	6.18
360.075	6.14
360.439	6.18
360.803	6.2
361.167	6.17
361.531	6.11
361.895	6.01
362.259	5.95
362.623	5.98
362.987	5.94
363.351	5.92
363.714	5.87
364.078	5.89
364.442	5.83
364.806	5.92
365.169	5.99
365.533	6
365.896	5.99
366.26	5.95
366.623	5.93
366.987	5.93
367.35	5.91
367.714	5.89
368.077	5.85
368.44	5.82
368.803	5.84
369.167	5.87
369.53	5.87
369.893	5.92
370.256	5.9
370.619	5.91
370.982	5.85
371.345	5.8
371.708	5.77
372.071	5.79
372.434	5.71
372.797	5.72
373.159	5.71
373.522	5.7
373.885	5.73
374.247	5.75
374.61	5.86
374.973	5.9
375.335	5.88
375.698	5.83
376.06	5.84
376.423	5.88
376.785	5.93
377.147	6
377.51	6.03
377.872	6.04
378.234	6.05
378.596	6.08
378.958	6.15
379.321	6.19
379.683	6.24
380.045	6.28
380.407	6.26
380.769	6.24
381.13	6.23
381.492	6.2
381.854	6.19
382.216	6.16
382.578	6.13
382.939	6.15
383.301	6.19
383.663	6.17
384.024	6.21
384.386	6.23
384.747	6.19
385.109	6.14
385.47	6.14
385.832	6.11
386.193	6.09
386.554	6.05
386.916	6.02
387.277	5.99
387.638	6.02
387.999	5.96
388.36	5.95
388.721	6.01
389.082	6.03
389.443	6.02
389.804	6.02
390.165	5.99
390.526	6
390.887	6.02
391.248	6.05
391.609	6.04
391.969	6.05
392.33	6.05
392.691	6.05
393.051	6.03
393.412	6.07
393.772	6.07
394.133	6.09
394.493	6.08
394.854	6.06
395.214	6.03
395.574	6.07
395.935	6.06
396.295	6.09
396.655	6.07
397.015	6.08
397.376	6.08
397.736	6.12
398.096	6.14
398.456	6.15
398.816	6.1
399.176	6.06
399.535	6.05
399.895	6.05
400.255	6.05
400.615	6.07
400.975	6.09
401.334	6.11
401.694	6.1
402.054	6.09
402.413	6.09
402.773	6.07
403.132	6.07
403.492	6.07
403.851	6.01
404.211	6
404.57	6
404.929	6.03
405.288	6.04
405.648	6
406.007	5.99
406.366	6.03
406.725	6.05
407.084	6.04
407.443	6.03
407.802	6.03
408.161	6.03
408.52	5.99
408.879	5.98
409.238	6.01
409.596	5.98
409.955	5.98
410.314	6
410.673	5.98
411.031	6.03
411.39	6.04
411.748	6.04
412.107	6.03
412.465	6.03
412.824	5.98
413.182	6
413.54	5.99
413.899	5.98
414.257	5.99
414.615	6.01
414.974	6.01
415.332	6.02
415.69	6.01
416.048	6.03
416.406	6.03
416.764	6.02
417.122	6.08
417.48	6.08
417.838	6.09
418.195	6.1
418.553	6.06
418.911	6.05
419.269	6.06
419.626	6.06
419.984	6.05
420.342	6.08
420.699	6.07
421.057	6.07
421.414	6.06
421.772	6.06
422.129	6.04
422.486	6.04
422.844	6.03
423.201	6.02
423.558	6
423.915	5.99
424.273	5.98
424.63	5.95
424.987	5.94
425.344	5.93
425.701	5.93
426.058	5.93
426.415	5.94
426.772	5.94
427.128	5.93
427.485	5.94
427.842	5.91
428.199	5.91
428.555	5.93
428.912	5.93
429.269	5.95
429.625	5.93
429.982	5.94
430.338	5.95
430.695	5.97
431.051	5.98
431.407	6.01
431.764	6.01
432.12	6.02
432.476	6.02
432.832	6.02
433.189	6.01
433.545	5.99
433.901	5.96
434.257	5.97
434.613	6
434.969	6.01
435.325	6.02
435.681	6.01
436.036	5.97
436.392	5.97
436.748	5.96
437.104	5.95
437.459	5.96
437.815	5.95
438.171	5.95
438.526	5.96
438.882	5.95
439.237	5.96
439.593	5.97
439.948	5.96
440.304	5.98
440.659	5.98
441.014	6.02
441.369	6.03
441.725	6.01
442.08	6.01
442.435	6.01
442.79	5.99
443.145	6.02
443.5	6.03
443.855	6.04
444.21	6.02
444.565	6.04
444.92	6.03
445.275	6.03
445.629	6.03
445.984	6.02
446.339	6
446.693	5.98
447.048	5.97
447.403	5.97
447.757	5.97
448.112	5.96
448.466	5.93
448.82	5.94
449.175	5.96
449.529	5.93
449.883	5.91
450.238	5.91
450.592	5.9
450.946	5.88
451.3	5.87
451.654	5.89
452.008	5.9
452.362	5.88
452.716	5.88
453.07	5.88
453.424	5.88
453.778	5.9
454.132	5.91
454.486	5.91
454.839	5.92
455.193	5.92
455.547	5.92
455.9	5.93
456.254	5.92
456.607	5.91
456.961	5.92
457.314	5.93
457.668	5.94
458.021	5.92
458.375	5.93
458.728	5.94
459.081	5.92
459.434	5.91
459.787	5.93
460.141	5.92
460.494	5.94
460.847	5.92
461.2	5.91
461.553	5.91
461.906	5.92
462.259	5.93
462.611	5.93
462.964	5.92
463.317	5.93
463.67	5.93
464.022	5.93
464.375	5.94
464.728	5.94
465.08	5.93
465.433	5.95
465.785	5.98
466.138	5.96
466.49	5.98
466.843	5.97
467.195	5.97
467.547	5.99
467.899	5.97
468.252	6.01
468.604	6.05
468.956	6.06
469.308	6.07
469.66	6.04
470.012	6.06
470.364	6.06
470.716	6.07
471.068	6.08
471.42	6.08
471.772	6.08
472.123	6.09
472.475	6.11
472.827	6.1
473.178	6.1
473.53	6.11
473.882	6.1
474.233	6.11
474.585	6.08
474.936	6.08
475.288	6.08
475.639	6.09
475.99	6.09
476.342	6.09
476.693	6.09
477.044	6.1
477.395	6.09
477.746	6.09
478.097	6.08
478.448	6.05
478.8	6.04
479.15	6.05
479.501	6.05
479.852	6.06
480.203	6.08
480.554	6.08
480.905	6.09
481.255	6.1
481.606	6.13
481.957	6.13
482.307	6.13
482.658	6.14
483.009	6.14
483.359	6.13
483.709	6.15
484.06	6.15
484.41	6.15
484.761	6.15
485.111	6.16
485.461	6.16
485.811	6.18
486.162	6.19
486.512	6.19
486.862	6.2
487.212	6.2
487.562	6.21
487.912	6.21
488.262	6.21
488.612	6.2
488.961	6.19
489.311	6.2
489.661	6.2
490.011	6.2
490.36	6.2
490.71	6.21
491.06	6.21
491.409	6.2
491.759	6.2
492.108	6.21
492.458	6.18
492.807	6.17
493.157	6.17
493.506	6.17
493.855	6.15
494.204	6.13
494.554	6.12
494.903	6.1
495.252	6.11
495.601	6.12
495.95	6.13
496.299	6.15
496.648	6.14
496.997	6.14
497.346	6.15
497.695	6.17
498.043	6.16
498.392	6.18
498.741	6.19
499.09	6.19
499.438	6.19
499.787	6.23
500.135	6.25
500.484	6.26
500.832	6.28
501.181	6.29
501.529	6.29
501.878	6.31
502.226	6.33
502.574	6.32
502.923	6.31
503.271	6.3
503.619	6.29
503.967	6.29
504.315	6.3
504.663	6.28
505.011	6.28
505.359	6.3
505.707	6.28
506.055	6.28
506.403	6.29
506.751	6.32
507.098	6.32
507.446	6.32
507.794	6.32
508.141	6.35
508.489	6.37
508.837	6.39
509.184	6.4
509.531	6.4
509.879	6.41
510.226	6.46
510.574	6.47
510.921	6.5
511.268	6.5
511.616	6.52
511.963	6.55
512.31	6.56
512.657	6.58
513.004	6.59
513.351	6.62
513.698	6.62
514.045	6.61
514.392	6.62
514.739	6.64
515.086	6.67
515.432	6.67
515.779	6.65
516.126	6.68
516.473	6.68
516.819	6.69
517.166	6.67
517.512	6.63
517.859	6.63
518.205	6.63
518.552	6.64
518.898	6.65
519.245	6.65
519.591	6.64
519.937	6.63
520.283	6.62
520.629	6.61
520.976	6.63
521.322	6.62
521.668	6.63
522.014	6.64
522.36	6.66
522.706	6.66
523.052	6.71
523.398	6.71
523.743	6.72
524.089	6.74
524.435	6.76
524.781	6.78
525.126	6.79
525.472	6.8
525.817	6.79
526.163	6.78
526.509	6.78
526.854	6.78
527.199	6.79
527.545	6.8
527.89	6.8
528.235	6.8
528.581	6.8
528.926	6.8
529.271	6.8
529.616	6.79
529.961	6.8
530.306	6.78
530.651	6.77
530.996	6.77
531.341	6.75
531.686	6.75
532.031	6.76
532.376	6.76
532.721	6.76
533.065	6.77
533.41	6.79
533.755	6.79
534.099	6.81
534.444	6.8
534.788	6.8
535.133	6.8
535.477	6.81
535.822	6.82
536.166	6.83
536.51	6.82
536.855	6.84
537.199	6.82
537.543	6.83
537.887	6.83
538.231	6.81
538.576	6.84
538.92	6.84
539.264	6.84
539.608	6.84
539.951	6.84
540.295	6.82
540.639	6.8
540.983	6.8
541.327	6.78
541.671	6.77
542.014	6.78
542.358	6.79
542.701	6.79
543.045	6.8
543.389	6.83
543.732	6.83
544.075	6.83
544.419	6.83
544.762	6.84
545.105	6.84
545.449	6.85
545.792	6.85
546.135	6.82
546.478	6.8
546.821	6.8
547.165	6.82
547.508	6.86
547.851	6.85
548.194	6.85
548.536	6.85
548.879	6.9
549.222	6.88
549.565	6.9
549.908	6.89
550.25	6.87
550.593	6.82
550.936	6.8
551.278	6.8
551.621	6.82
551.963	6.83
552.306	6.81
552.648	6.8
552.991	6.8
553.333	6.82
553.675	6.85
554.017	6.87
554.36	6.85
554.702	6.84
555.044	6.85
555.386	6.85
555.728	6.84
556.07	6.81
556.412	6.81
556.754	6.78
557.096	6.79
557.438	6.77
557.78	6.77
558.121	6.77
558.463	6.77
558.805	6.76
559.147	6.76
559.488	6.79
559.83	6.83
560.171	6.85
560.513	6.89
560.854	6.89
561.196	6.88
561.537	6.87
561.878	6.86
562.22	6.88
562.561	6.9
562.902	6.9
563.243	6.93
563.584	6.95
563.925	6.98
564.266	6.97
564.607	6.97
564.948	6.98
565.289	6.98
565.63	7
565.971	7.01
566.312	7.01
566.653	7
566.993	6.99
567.334	6.98
567.675	6.97
568.015	6.98
568.356	7.01
568.696	7.03
569.037	7.04
569.377	7.04
569.718	7.02
570.058	7
570.398	6.99
570.739	7.01
571.079	7.02
571.419	7.06
571.759	7.07
572.099	7.06
572.439	7.04
572.779	6.99
573.119	7
573.459	7.01
573.799	7.03
574.139	7.01
574.479	7.02
574.819	7.02
575.158	6.97
575.498	6.94
575.838	6.94
576.177	6.92
576.517	6.93
576.856	6.98
577.196	7
577.535	6.97
577.875	6.93
578.214	6.89
578.553	6.87
578.893	6.88
579.232	6.91
579.571	6.96
579.91	6.97
580.25	6.97
580.589	6.94
580.928	6.96
581.267	6.97
581.606	6.96
581.945	7
582.283	7.02
582.622	7
582.961	6.98
583.3	7.02
583.639	7.05
583.977	7.03
584.316	7.04
584.654	7.1
584.993	7.1
585.332	7.06
585.67	7.03
586.008	7.02
586.347	6.97
586.685	6.95
587.024	6.96
587.362	6.96
587.7	6.95
588.038	6.98
588.376	6.99
588.715	6.96
589.053	6.97
589.391	7
589.729	7.04
590.067	7.03
590.404	7.03
590.742	7.06
591.08	7.04
591.418	7.07
591.756	7.06
592.093	7.1
592.431	7.16
592.769	7.2
593.106	7.19
593.444	7.21
593.781	7.21
594.119	7.24
594.456	7.26
594.793	7.27
595.131	7.21
595.468	7.21
595.805	7.22
596.143	7.2
596.48	7.16
596.817	7.17
597.154	7.2
597.491	7.15
597.828	7.1
598.165	7.1
598.502	7.09
598.839	7.07
599.176	7.05
599.512	7.04
599.849	7.05
600.186	7.06
600.523	7.07
600.859	7.11
601.196	7.12
601.532	7.11
601.869	7.1
602.205	7.12
602.542	7.14
602.878	7.2
603.215	7.17
603.551	7.2
603.887	7.23
604.223	7.22
604.56	7.23
604.896	7.24
605.232	7.26
605.568	7.27
605.904	7.27
606.24	7.3
606.576	7.32
606.912	7.29
607.248	7.29
607.583	7.29
607.919	7.29
608.255	7.24
608.591	7.28
608.926	7.29
609.262	7.34
609.597	7.31
609.933	7.26
610.268	7.31
610.604	7.29
610.939	7.27
611.275	7.32
611.61	7.34
611.945	7.34
612.281	7.3
612.616	7.32
612.951	7.33
613.286	7.31
613.621	7.29
613.956	7.28
614.291	7.29
614.626	7.28
614.961	7.24
615.296	7.25
615.631	7.22
615.966	7.24
616.3	7.16
616.635	7.19
616.97	7.18
617.304	7.18
617.639	7.24
617.973	7.24
618.308	7.18
618.642	7.24
618.977	7.19
619.311	7.24
619.646	7.26
619.98	7.32
620.314	7.38
620.648	7.44
620.983	7.5
621.317	7.54
621.651	7.58
621.985	7.59
622.319	7.64
622.653	7.7
622.987	7.71
623.321	7.74
623.655	7.71
623.988	7.75
624.322	7.69
624.656	7.7
624.99	7.69
625.323	7.68
625.657	7.61
625.99	7.67
626.324	7.7
626.657	7.64
626.991	7.6
627.324	7.55
627.658	7.49
627.991	7.49
628.324	7.48
628.657	7.46
628.991	7.47
629.324	7.43
629.657	7.44
629.99	7.45
630.323	7.45
630.656	7.51
630.989	7.54
631.322	7.56
631.655	7.54
631.987	7.53
632.32	7.55
632.653	7.55
632.986	7.54
633.318	7.52
633.651	7.55
633.984	7.51
634.316	7.53
634.649	7.54
634.981	7.49
635.313	7.46
635.646	7.47
635.978	7.47
636.31	7.42
636.643	7.4
636.975	7.42
637.307	7.33
637.639	7.27
637.971	7.2
638.303	7.22
638.635	7.18
638.967	7.17
639.299	7.19
639.631	7.2
639.963	7.17
640.295	7.16
640.626	7.2
640.958	7.27
641.29	7.26
641.621	7.22
641.953	7.26
642.285	7.26
642.616	7.3
642.948	7.27
643.279	7.33
643.61	7.25
643.942	7.19
644.273	7.22
644.604	7.25
644.936	7.25
645.267	7.31
645.598	7.33
645.929	7.34
646.26	7.4
646.591	7.42
646.922	7.48
647.253	7.51
647.584	7.49
647.915	7.49
648.245	7.49
648.576	7.57
648.907	7.64
649.238	7.71
649.568	7.69
649.899	7.76
650.229	7.73
650.56	7.78
650.89	7.79
651.221	7.84
651.551	7.85
651.882	7.88
652.212	7.81
652.542	7.78
652.872	7.77
653.203	7.7
653.533	7.73
653.863	7.66
654.193	7.68
654.523	7.66
654.853	7.65
655.183	7.64
655.513	7.62
655.843	7.52
656.172	7.48
656.502	7.47
656.832	7.46
657.162	7.51
657.491	7.52
657.821	7.53
658.15	7.51
658.48	7.47
658.809	7.49
659.139	7.52
659.468	7.47
659.798	7.46
660.127	7.5
660.456	7.5
660.785	7.55
661.115	7.51
661.444	7.54
661.773	7.48
662.102	7.51
662.431	7.56
662.76	7.59
663.089	7.53
663.418	7.54
663.747	7.56
664.076	7.65
664.404	7.6
664.733	7.63
665.062	7.64
665.39	7.71
665.719	7.7
666.048	7.72
666.376	7.77
666.705	7.82
667.033	7.82
667.362	7.83
667.69	7.8
668.018	7.82
668.347	7.83
668.675	7.93
669.003	7.91
669.331	7.9
669.659	7.96
669.987	8.03
670.315	8.02
670.643	8.05
670.971	7.94
671.299	8.04
671.627	8.04
671.955	8
672.283	8.01
672.61	8.03
672.938	7.99
673.266	8.07
673.593	8.14
673.921	8.09
674.249	8.03
674.576	8.09
674.904	8.13
675.231	8.04
675.558	7.95
675.886	8.04
676.213	7.98
676.54	7.94
676.867	8.01
677.195	8.03
677.522	7.95
677.849	7.95
678.176	7.92
678.503	7.9
678.83	7.93
679.157	7.93
679.484	7.93
679.81	8.03
680.137	7.93
680.464	7.88
680.791	7.91
681.117	7.91
681.444	7.9
681.771	7.86
682.097	7.97
682.424	7.98
682.75	7.97
683.077	7.97
683.403	8.05
683.729	8
684.056	8
684.382	8.04
684.708	8.08
685.034	8.04
685.36	8.06
685.686	8.04
686.012	7.98
686.339	7.98
686.664	7.97
686.99	8.09
687.316	8.14
687.642	8.31
687.968	8.38
688.294	8.36
688.619	8.41
688.945	8.29
689.271	8.32
689.596	8.28
689.922	8.26
690.247	8.14
690.573	8.13
690.898	8.16
691.224	8.28
691.549	8.27
691.874	8.27
692.2	8.22
692.525	8.28
692.85	8.42
693.175	8.41
693.5	8.32
693.825	8.26
694.15	8.12
694.475	8.01
694.8	7.93
695.125	7.96
695.45	7.85
695.775	8.01
696.099	7.97
696.424	7.98
696.749	7.99
697.073	8.11
697.398	8.05
697.723	8.02
698.047	7.86
698.372	7.77
698.696	7.84
699.02	7.84
699.345	7.84
699.669	7.83
699.993	7.79
700.318	7.76
700.642	7.82
700.966	7.9
701.29	7.93
701.614	8.09
701.938	7.94
702.262	8.12
702.586	8.1
702.91	8.09
703.234	8.04
703.557	8
703.881	7.94
704.205	8.05
704.529	8.1
704.852	8.28
705.176	8.39
705.499	8.31
705.823	8.23
706.146	8.26
706.47	8.27
706.793	8.36
707.117	8.43
707.44	8.38
707.763	8.37
708.086	8.1
708.409	8.03
708.733	8.12
709.056	7.99
709.379	7.93
709.702	7.97
710.025	8.06
710.348	8.16
710.671	8.09
710.993	8.16
711.316	8.07
711.639	7.95
711.962	7.99
712.284	8.03
712.607	8.09
712.93	8.08
713.252	7.92
713.575	7.86
713.897	7.91
714.22	7.98
714.542	7.95
714.864	8.12
715.187	8.05
715.509	8.15
715.831	8.24
716.153	8.3
716.475	8.4
716.798	8.41
717.12	8.36
717.442	8.39
717.764	8.27
718.085	8.41
718.407	8.4
718.729	8.34
719.051	8.31
719.373	8.34
719.695	8.27
720.016	8.44
720.338	8.61
720.659	8.48
720.981	8.45
721.302	8.51
721.624	8.31
721.945	8.28
722.267	8.29
722.588	8.17
722.909	8.04
723.231	8.05
723.552	8.01
723.873	8.02
724.194	8.13
724.515	8.08
724.836	7.89
725.157	7.92
725.478	7.84
725.799	7.99
726.12	8.11
726.441	8.08
726.762	8.04
727.083	8.05
727.403	8.11
727.724	8.14
728.045	8.12
728.365	8.34
728.686	8.39
729.006	8.22
729.327	8.13
729.647	8.29
729.967	8.4
730.288	8.35
730.608	8.32
730.928	8.22
731.249	8.27
731.569	8.34
731.889	8.3
732.209	8.43
732.529	8.34
732.849	8.3
733.169	8.35
733.489	8.37
733.809	8.28
734.129	8.35
734.448	8.3
734.768	8.33
735.088	8.51
735.408	8.58
735.727	8.7
736.047	8.82
736.366	8.7
736.686	8.43
737.005	8.56
737.325	8.67
737.644	8.58
737.963	8.74
738.283	8.48
738.602	8.7
738.921	8.75
739.24	8.82
739.56	8.75
739.879	8.81
740.198	8.99
740.517	9.12
740.836	9.2
741.155	9.15
741.473	9.28
741.792	9.05
742.111	8.97
742.43	9.03
742.748	9.06
743.067	8.95
743.386	9.24
743.704	9.01
744.023	9
744.341	9.18
744.66	9.38
744.978	9.69
745.297	9.53
745.615	9.47
745.933	9.27
746.252	9.37
746.57	9.22
746.888	9
747.206	8.56
747.524	8.51
747.842	8.62
748.16	8.62
748.478	8.72
748.796	8.81
749.114	9
749.432	8.87
749.749	9.2
750.067	8.75
750.385	8.77
750.703	8.68
751.02	8.68
751.338	8.41
751.655	8.32
751.973	8.4
752.29	8.24
752.608	8.26
752.925	8.22
753.242	8.42
753.56	8.35
753.877	8.74
754.194	8.63
754.511	8.67
754.828	8.38
755.145	8.48
755.462	8.4
755.779	8.19
756.096	8.15
756.413	8.02
756.73	8.36
757.047	8.39
757.364	8.45
757.68	8.54
757.997	8.52
758.314	8.61
758.63	8.48
758.947	8.67
759.264	8.82
759.58	8.81
759.896	8.93
760.213	8.89
760.529	8.84
760.846	9
761.162	8.7
761.478	8.88
761.794	8.68
762.11	8.61
762.426	8.47
762.743	8.56
763.059	8.67
763.375	8.6
763.69	8.9
764.006	8.87
764.322	9
764.638	8.95
764.954	9.09
765.27	8.92
765.585	8.8
765.901	8.86
766.216	8.96
766.532	8.58
766.848	8.72
767.163	8.74
767.478	8.73
767.794	8.91
768.109	8.88
768.424	8.9
768.74	8.86
769.055	8.96
769.37	9.04
769.685	8.74
770	8.99
770.315	8.95
770.63	8.82
770.945	8.48
771.26	8.53
771.575	8.57
771.89	8.84
772.205	8.96
772.52	8.65
772.834	8.56
773.149	8.99
773.464	9.29
773.778	9.29
774.093	8.78
774.407	8.85
774.722	8.71
775.036	8.95
775.351	9.38
775.665	9.29
775.979	9.55
776.293	9.68
776.608	9.29
776.922	9.13
777.236	9.28
777.55	9.18
777.864	9.31
778.178	9.29
778.492	9.41
778.806	9.71
779.12	10.09
779.434	10
779.747	10.1
780.061	9.43
780.375	9.12
780.689	9.4
781.002	9.7
781.316	9.99
781.629	10.01
781.943	9.92
782.256	10.29
782.57	9.83
782.883	9.78
783.196	10.02
783.51	9.32
783.823	9.35
784.136	9.65
784.449	9.79
784.762	9.49
785.075	9.68
785.388	9.49
785.701	9.48
786.014	9.44
786.327	9.5
786.64	9.63
786.953	9.94
787.266	10
787.578	9.58
787.891	9.36
788.204	9.08
788.516	9
788.829	8.83
789.141	9.22
789.454	9.43
789.766	9.44
790.079	9.82
790.391	10
790.703	10.28
791.016	9.75
791.328	10.2
791.64	9.79
791.952	10.09
792.264	9.54
792.576	9.43
792.888	9.41
793.2	9.66
793.512	9.7
793.824	9.64
794.136	9.75
794.448	9.66
794.76	9.69
795.071	9.22
795.383	9.32
795.695	8.81
796.006	8.97
796.318	9.13
796.629	9.62
796.941	9.17
797.252	8.65
797.564	9.09
797.875	8.4
798.186	8.41
798.497	7.93
798.809	8.42
799.12	9.05
799.431	9.07
799.742	9.21
800.053	9.42
800.364	9.61
800.675	9.53
800.986	9.38
801.297	9.27
801.608	9.45
801.918	9.44
802.229	10.02
802.54	9.61
802.851	9.27
803.161	9.12
803.472	9.51
803.782	9.99
804.093	9.98
804.403	10.15
804.714	9.91
805.024	10.02
805.334	10.17
805.645	9.87
805.955	9.53
806.265	9.37
806.575	8.72
806.885	9.15
807.195	9.48
807.505	9.83
807.815	10.17
808.125	10.3
808.435	10.41
808.745	10.17
809.055	10.33
809.365	9.8
809.674	9.46
809.984	9.75
810.294	9.51
810.603	9.17
810.913	9.65
811.222	10.08
811.532	10.1
811.841	10.35
812.151	10.96
812.46	10.78
812.769	10.21
813.079	10.45
813.388	10.21
813.697	10.11
814.006	9.62
814.315	9.23
814.624	9.38
814.933	9.36
815.242	10.06
815.551	10.04
815.86	11.15
816.169	11.07
816.478	10.32
816.786	10.4
817.095	10.42
817.404	10.28
817.712	10.86
818.021	10.72
818.33	10.5
818.638	10.59
818.947	11.03
819.255	11.83
819.563	11.88
819.872	11.86
820.18	11.95
820.488	12.25
820.796	12.41
821.105	12.39
821.413	12.36
821.721	12.01
822.029	12.01
822.337	11.84
822.645	11.9
822.953	12.04
823.26	12.04
823.568	12.01
823.876	11.84
824.184	11.56
824.491	11.66
824.799	11.72
825.107	11.53
825.414	11.5
825.722	11.37
826.029	11.35
826.337	11.19
826.644	11.18
826.951	10.96
827.259	10.94
827.566	10.74
827.873	10.64
828.18	10.58
828.488	10.4
828.795	10.39
829.102	10.4
829.409	10.38
829.716	10.14
830.023	10.13
830.329	10.17
830.636	10.44
830.943	10.36
831.25	10.07
831.557	10.09
831.863	10.11
832.17	9.83
832.476	10.07
832.783	10.63
833.089	10.24
833.396	10.4
833.702	10.29
834.009	10.89
834.315	10.43
834.621	10.54
834.928	10.7
835.234	10.46
835.54	10.23
835.846	9.54
836.152	9.77
836.458	9.66
836.764	9.51
837.07	9.74
837.376	9.42
837.682	9.39
837.988	9.24
838.293	8.9
838.599	8.82
838.905	8.23
839.211	7.57
839.516	7.67
839.822	7.42
840.127	7.22
840.433	6.46
840.738	8.08
841.044	7.86
841.349	8.14
841.654	8.21
841.959	8.34
842.265	9.2
842.57	9.33
842.875	9.7
843.18	11.35
843.485	10.46
843.79	10.44
844.095	10.58
844.4	11.86
844.705	11.52
845.01	12.11
845.315	10.73
845.619	10.1
845.924	9.47
846.229	9.42
846.533	9.03
846.838	8.61
847.142	7.05
847.447	5.32
847.751	3.89
848.056	3.91
848.36	4.58
848.664	5.64
848.969	4.99
849.273	4.23
849.577	1.44
849.881	1.7
850.185	2.47
850.489	3.91
850.794	1.91
851.097	3.69
851.401	3.95
851.705	4.44
852.009	3.34
852.313	3.26
852.617	3.26
852.92	3.28
853.224	3.88
853.528	5.19
853.831	4.69
854.135	6.39
854.438	4.5
854.742	3.1
855.045	0.67
855.349	0.35
855.652	0.4
855.955	1.97
856.259	1.29
856.562	1.1
856.865	-1.26
857.168	-2.28
857.471	-4.33
857.774	-3.37
858.077	0.12
858.38	2.3
858.683	3.97
858.986	3.87
859.289	3.27
859.592	4.16
859.894	1.91
860.197	3.9
860.5	1.34
860.802	3.08
861.105	4.03
861.407	4.3
861.71	1.97
862.012	2.35
862.315	1.16
862.617	2.08
862.919	0.81
863.222	0.82
863.524	-0.31
863.826	1.27
864.128	0.62
864.43	-1.33
864.732	-3.1
865.034	-5.09
865.336	-7.48
865.638	-6.74
865.94	-8.58
866.242	-9.11
866.544	-10.51
866.846	-10.02
867.147	-9.92
867.449	-9.81
867.751	-9.01
868.052	-6.2
868.354	-5.82
868.655	-5.99
868.957	-7.32
869.258	-7.38
869.56	-7.92
869.861	-6.3
870.162	-8.1
870.463	-8.21
870.765	-8.05
871.066	-7.98
871.367	-7.49
871.668	-6.82
871.969	-6.79
872.27	-6.28
872.571	-4.75
872.872	-2.09
873.173	-2.85
873.473	-2.88
873.774	-2.28
874.075	-3.28
874.376	-4.59
874.676	-2.03
874.977	-3.49
875.277	-1.08
875.578	-0.22
875.878	-0.05
876.179	0.19
876.479	1.43
876.78	-0.16
877.08	0.48
877.38	1.6
877.68	2.24
877.981	5.46
878.281	4.57
878.581	4.51
