Data from BA57712_Reflection_00008.txt Node
Date: Mon Nov 18 15:19:29 EST 2019
User: vgr7
Spectrometer: USB2G7710
Scans to average: 3
Trigger mode: 4
Integration Time (sec): 2.000000E-2
Electric dark correction enabled: true
Boxcar width: 10
XAxis mode: Wavelengths
Number of Pixels in Spectrum: 2048
>>>>>Begin Spectral Data<<<<<
177.721	-90.27
178.105	-24.54
178.488	43.98
178.871	145.63
179.254	132.84
179.636	54.68
180.019	155.01
180.402	-0
180.785	-267.75
181.168	3238.89
181.55	144.15
181.933	82.55
182.316	75.68
182.698	80.48
183.081	74.32
183.463	42.69
183.846	35.15
184.228	18.9
184.611	18.58
184.993	-7.17
185.376	38.39
185.758	47.13
186.14	65.66
186.522	73.41
186.904	120.16
187.287	109.47
187.669	102.32
188.051	215.44
188.433	163.65
188.815	7.2
189.197	106.6
189.579	-129.33
189.961	-39.59
190.342	-87.42
190.724	-92.36
191.106	-81.63
191.488	-9.16
191.869	-12.19
192.251	-12.86
192.633	0.84
193.014	10.08
193.396	17.23
193.777	49.22
194.159	53.05
194.54	67.89
194.922	65.29
195.303	53.34
195.684	95.53
196.065	144.16
196.447	96.75
196.828	113.87
197.209	137.75
197.59	160.69
197.971	122.11
198.352	120.45
198.733	130.7
199.114	131.14
199.495	156.56
199.876	121.46
200.257	102.92
200.638	115.03
201.018	104.08
201.399	106.75
201.78	101.98
202.16	97.34
202.541	96.99
202.922	107.47
203.302	128.25
203.683	118.34
204.063	111.87
204.444	134.67
204.824	134.55
205.204	144.44
205.585	105.34
205.965	124.95
206.345	86.51
206.725	98.98
207.106	110.01
207.486	94.83
207.866	54.77
208.246	44.76
208.626	29.27
209.006	6.88
209.386	-9.94
209.766	-43.04
210.145	-22.84
210.525	-40.55
210.905	-123.32
211.285	-28.48
211.664	7.97
212.044	87.3
212.424	-80.69
212.803	37.32
213.183	54.14
213.562	160.61
213.942	163.8
214.321	512.7
214.701	195.24
215.08	83.8
215.459	59.21
215.838	90.96
216.218	87.86
216.597	87.93
216.976	74.58
217.355	55.75
217.734	35.95
218.113	27.84
218.492	26.99
218.871	29.47
219.25	38.2
219.629	29.74
220.008	37.52
220.387	27.99
220.766	27.04
221.144	23.34
221.523	0.57
221.902	3.23
222.28	2.45
222.659	-0.54
223.037	13.12
223.416	9.94
223.794	-1.56
224.173	-10.87
224.551	-8.38
224.929	1.35
225.308	14.04
225.686	20.64
226.064	21.29
226.442	14.01
226.821	13.76
227.199	10.78
227.577	13.21
227.955	13.89
228.333	12.22
228.711	13.48
229.089	15.2
229.467	15.25
229.845	12.1
230.222	10.26
230.6	10.67
230.978	8.48
231.356	9.76
231.733	8.22
232.111	9.15
232.488	9.49
232.866	8.88
233.243	7.67
233.621	6.51
233.998	6.92
234.376	8.42
234.753	6.07
235.13	6.94
235.508	5.08
235.885	3.88
236.262	2.17
236.639	2.34
237.016	2.46
237.393	4.36
237.77	6.3
238.147	6.69
238.524	6.74
238.901	7.29
239.278	7.26
239.655	7.71
240.032	7.55
240.409	6.57
240.785	6.47
241.162	6.4
241.539	6.37
241.915	6.16
242.292	6.07
242.668	6.09
243.045	5.61
243.421	5.89
243.798	5.84
244.174	5.83
244.551	5.84
244.927	5.54
245.303	5.41
245.679	5.05
246.056	4.87
246.432	4.85
246.808	4.76
247.184	4.55
247.56	4.39
247.936	4.15
248.312	4.47
248.688	4.47
249.064	4.48
249.44	4.58
249.815	4.54
250.191	4.72
250.567	4.72
250.943	4.57
251.318	4.75
251.694	4.75
252.069	4.85
252.445	4.82
252.82	4.74
253.196	4.84
253.571	4.83
253.947	5.05
254.322	4.96
254.697	4.79
255.073	4.61
255.448	4.41
255.823	4.21
256.198	3.9
256.573	3.85
256.948	3.8
257.323	3.67
257.698	3.67
258.073	3.43
258.448	3.46
258.823	3.74
259.198	3.59
259.573	3.67
259.948	3.69
260.322	3.53
260.697	3.5
261.072	3.35
261.446	3.35
261.821	3.24
262.195	3.32
262.57	3.33
262.944	3.46
263.319	3.49
263.693	3.68
264.067	3.81
264.442	3.78
264.816	3.75
265.19	3.83
265.564	3.97
265.938	4.03
266.313	3.92
266.687	3.8
267.061	3.8
267.435	3.57
267.809	3.46
268.183	3.65
268.556	3.64
268.93	3.68
269.304	3.63
269.678	3.88
270.051	3.9
270.425	3.95
270.799	3.88
271.172	3.83
271.546	3.78
271.919	3.74
272.293	3.78
272.666	3.93
273.04	3.77
273.413	3.68
273.787	3.62
274.16	3.69
274.533	3.74
274.906	3.72
275.279	3.81
275.653	3.85
276.026	3.69
276.399	3.82
276.772	4.02
277.145	3.98
277.518	3.83
277.891	3.77
278.263	3.72
278.636	3.67
279.009	3.98
279.382	4.01
279.755	3.99
280.127	3.95
280.5	3.79
280.872	3.93
281.245	3.89
281.617	3.92
281.99	4.08
282.362	4.02
282.735	3.9
283.107	3.81
283.479	3.9
283.852	4.08
284.224	3.99
284.596	3.81
284.968	4.05
285.34	4.1
285.713	4.1
286.085	4.21
286.457	4.22
286.829	3.97
287.201	3.96
287.572	3.89
287.944	3.85
288.316	3.9
288.688	3.91
289.06	4.02
289.431	4.08
289.803	4.06
290.175	4.14
290.546	4.26
290.918	4.34
291.289	4.27
291.661	4.35
292.032	4.4
292.403	4.4
292.775	4.22
293.146	4.16
293.517	4.21
293.889	4.12
294.26	4.19
294.631	4.28
295.002	4.36
295.373	4.4
295.744	4.5
296.115	4.56
296.486	4.48
296.857	4.5
297.228	4.57
297.599	4.5
297.97	4.45
298.34	4.58
298.711	4.64
299.082	4.66
299.452	4.52
299.823	4.61
300.194	4.64
300.564	4.76
300.935	4.89
301.305	4.83
301.676	4.87
302.046	4.88
302.416	5.06
302.787	5.08
303.157	5.14
303.527	5.11
303.897	5.19
304.267	5.33
304.637	5.36
305.008	5.41
305.378	5.56
305.748	5.67
306.117	5.53
306.487	5.56
306.857	5.67
307.227	5.8
307.597	5.85
307.967	6
308.336	6.03
308.706	5.97
309.076	6.08
309.445	6.16
309.815	6.17
310.184	6.1
310.554	6.09
310.923	6.19
311.293	6.24
311.662	6.07
312.031	6.11
312.401	6.12
312.77	6.16
313.139	6.19
313.508	6.12
313.877	6.23
314.246	6.38
314.616	6.38
314.985	6.39
315.353	6.36
315.722	6.4
316.091	6.41
316.46	6.43
316.829	6.43
317.198	6.36
317.567	6.39
317.935	6.53
318.304	6.6
318.672	6.71
319.041	7.01
319.41	7.21
319.778	7.25
320.147	7.24
320.515	7.35
320.883	7.34
321.252	7.53
321.62	7.55
321.988	7.54
322.357	7.55
322.725	7.53
323.093	7.66
323.461	7.71
323.829	7.76
324.197	7.77
324.565	7.85
324.933	8.07
325.301	8.18
325.669	8.27
326.037	8.34
326.405	8.24
326.772	8.07
327.14	8.2
327.508	8.28
327.875	8.24
328.243	8.15
328.61	8.36
328.978	8.43
329.346	8.53
329.713	8.42
330.08	8.49
330.448	8.5
330.815	8.49
331.182	8.44
331.55	8.48
331.917	8.6
332.284	8.62
332.651	8.67
333.018	8.76
333.385	8.69
333.752	8.73
334.119	8.8
334.486	8.85
334.853	8.7
335.22	8.7
335.587	8.88
335.954	8.99
336.32	8.87
336.687	8.97
337.054	9.01
337.42	9.19
337.787	9.31
338.153	9.39
338.52	9.5
338.886	9.5
339.253	9.5
339.619	9.54
339.986	9.58
340.352	9.54
340.718	9.49
341.084	9.52
341.451	9.62
341.817	9.69
342.183	9.74
342.549	9.86
342.915	9.95
343.281	9.91
343.647	9.92
344.013	9.87
344.379	9.67
344.745	9.67
345.11	9.64
345.476	9.54
345.842	9.55
346.208	9.53
346.573	9.57
346.939	9.65
347.304	9.65
347.67	9.6
348.035	9.6
348.401	9.64
348.766	9.65
349.132	9.61
349.497	9.5
349.862	9.49
350.228	9.48
350.593	9.49
350.958	9.37
351.323	9.31
351.688	9.31
352.053	9.4
352.418	9.39
352.783	9.42
353.148	9.4
353.513	9.37
353.878	9.31
354.243	9.33
354.608	9.28
354.972	9.23
355.337	9.28
355.702	9.35
356.066	9.32
356.431	9.25
356.795	9.2
357.16	9.2
357.524	9.18
357.889	9.11
358.253	9
358.618	9.13
358.982	9.07
359.346	9
359.71	8.96
360.075	8.95
360.439	8.96
360.803	8.99
361.167	8.98
361.531	8.96
361.895	8.93
362.259	8.87
362.623	8.87
362.987	8.86
363.351	8.73
363.714	8.75
364.078	8.73
364.442	8.64
364.806	8.62
365.169	8.59
365.533	8.6
365.896	8.51
366.26	8.42
366.623	8.38
366.987	8.41
367.35	8.42
367.714	8.33
368.077	8.24
368.44	8.15
368.803	8.08
369.167	7.96
369.53	7.89
369.893	7.86
370.256	7.81
370.619	7.68
370.982	7.63
371.345	7.5
371.708	7.49
372.071	7.47
372.434	7.4
372.797	7.3
373.159	7.2
373.522	7.2
373.885	7.15
374.247	7.11
374.61	7.04
374.973	6.92
375.335	6.86
375.698	6.83
376.06	6.74
376.423	6.7
376.785	6.72
377.147	6.63
377.51	6.62
377.872	6.56
378.234	6.55
378.596	6.56
378.958	6.5
379.321	6.42
379.683	6.42
380.045	6.39
380.407	6.38
380.769	6.35
381.13	6.29
381.492	6.23
381.854	6.21
382.216	6.16
382.578	6.16
382.939	6.13
383.301	6.05
383.663	6.04
384.024	6.04
384.386	5.97
384.747	6.01
385.109	5.97
385.47	5.96
385.832	5.95
386.193	5.93
386.554	5.91
386.916	5.89
387.277	5.85
387.638	5.83
387.999	5.79
388.36	5.8
388.721	5.77
389.082	5.75
389.443	5.68
389.804	5.68
390.165	5.63
390.526	5.6
390.887	5.57
391.248	5.58
391.609	5.5
391.969	5.48
392.33	5.42
392.691	5.38
393.051	5.31
393.412	5.26
393.772	5.19
394.133	5.14
394.493	5.09
394.854	5.03
395.214	5
395.574	4.96
395.935	4.89
396.295	4.88
396.655	4.83
397.015	4.8
397.376	4.78
397.736	4.72
398.096	4.68
398.456	4.64
398.816	4.58
399.176	4.57
399.535	4.57
399.895	4.54
400.255	4.49
400.615	4.48
400.975	4.45
401.334	4.43
401.694	4.41
402.054	4.36
402.413	4.36
402.773	4.29
403.132	4.3
403.492	4.28
403.851	4.23
404.211	4.22
404.57	4.2
404.929	4.19
405.288	4.16
405.648	4.13
406.007	4.12
406.366	4.13
406.725	4.15
407.084	4.1
407.443	4.09
407.802	4.11
408.161	4.07
408.52	4.04
408.879	4.05
409.238	4.05
409.596	4.06
409.955	4.05
410.314	4.06
410.673	4.03
411.031	4.01
411.39	4.03
411.748	4.03
412.107	4.04
412.465	3.99
412.824	4
413.182	4.01
413.54	4
413.899	3.99
414.257	3.95
414.615	3.95
414.974	3.93
415.332	3.88
415.69	3.87
416.048	3.85
416.406	3.84
416.764	3.8
417.122	3.8
417.48	3.75
417.838	3.74
418.195	3.72
418.553	3.72
418.911	3.69
419.269	3.68
419.626	3.67
419.984	3.66
420.342	3.65
420.699	3.65
421.057	3.63
421.414	3.61
421.772	3.59
422.129	3.58
422.486	3.56
422.844	3.55
423.201	3.54
423.558	3.54
423.915	3.52
424.273	3.52
424.63	3.5
424.987	3.51
425.344	3.5
425.701	3.51
426.058	3.5
426.415	3.51
426.772	3.5
427.128	3.47
427.485	3.48
427.842	3.47
428.199	3.45
428.555	3.45
428.912	3.46
429.269	3.47
429.625	3.45
429.982	3.44
430.338	3.46
430.695	3.47
431.051	3.46
431.407	3.46
431.764	3.45
432.12	3.46
432.476	3.47
432.832	3.45
433.189	3.44
433.545	3.43
433.901	3.42
434.257	3.42
434.613	3.44
434.969	3.44
435.325	3.45
435.681	3.46
436.036	3.44
436.392	3.45
436.748	3.43
437.104	3.44
437.459	3.43
437.815	3.42
438.171	3.41
438.526	3.42
438.882	3.43
439.237	3.44
439.593	3.44
439.948	3.44
440.304	3.45
440.659	3.47
441.014	3.48
441.369	3.46
441.725	3.45
442.08	3.45
442.435	3.44
442.79	3.43
443.145	3.42
443.5	3.43
443.855	3.42
444.21	3.43
444.565	3.43
444.92	3.45
445.275	3.44
445.629	3.44
445.984	3.42
446.339	3.41
446.693	3.4
447.048	3.38
447.403	3.37
447.757	3.35
448.112	3.31
448.466	3.3
448.82	3.31
449.175	3.32
449.529	3.31
449.883	3.3
450.238	3.3
450.592	3.31
450.946	3.3
451.3	3.27
451.654	3.25
452.008	3.25
452.362	3.24
452.716	3.24
453.07	3.25
453.424	3.24
453.778	3.24
454.132	3.23
454.486	3.25
454.839	3.27
455.193	3.26
455.547	3.27
455.9	3.29
456.254	3.29
456.607	3.29
456.961	3.3
457.314	3.31
457.668	3.3
458.021	3.29
458.375	3.29
458.728	3.3
459.081	3.29
459.434	3.28
459.787	3.28
460.141	3.28
460.494	3.26
460.847	3.27
461.2	3.26
461.553	3.29
461.906	3.3
462.259	3.3
462.611	3.32
462.964	3.33
463.317	3.32
463.67	3.32
464.022	3.33
464.375	3.31
464.728	3.32
465.08	3.31
465.433	3.32
465.785	3.34
466.138	3.37
466.49	3.39
466.843	3.41
467.195	3.41
467.547	3.4
467.899	3.42
468.252	3.44
468.604	3.47
468.956	3.45
469.308	3.44
469.66	3.44
470.012	3.46
470.364	3.46
470.716	3.47
471.068	3.48
471.42	3.47
471.772	3.5
472.123	3.5
472.475	3.53
472.827	3.54
473.178	3.51
473.53	3.51
473.882	3.51
474.233	3.53
474.585	3.52
474.936	3.52
475.288	3.52
475.639	3.5
475.99	3.48
476.342	3.48
476.693	3.47
477.044	3.47
477.395	3.45
477.746	3.45
478.097	3.44
478.448	3.41
478.8	3.41
479.15	3.4
479.501	3.41
479.852	3.4
480.203	3.41
480.554	3.42
480.905	3.4
481.255	3.39
481.606	3.4
481.957	3.4
482.307	3.41
482.658	3.41
483.009	3.41
483.359	3.41
483.709	3.42
484.06	3.42
484.41	3.41
484.761	3.42
485.111	3.42
485.461	3.43
485.811	3.44
486.162	3.45
486.512	3.45
486.862	3.45
487.212	3.45
487.562	3.45
487.912	3.45
488.262	3.46
488.612	3.47
488.961	3.47
489.311	3.47
489.661	3.48
490.011	3.48
490.36	3.5
490.71	3.51
491.06	3.51
491.409	3.51
491.759	3.53
492.108	3.54
492.458	3.55
492.807	3.56
493.157	3.57
493.506	3.6
493.855	3.61
494.204	3.62
494.554	3.64
494.903	3.63
495.252	3.65
495.601	3.68
495.95	3.7
496.299	3.71
496.648	3.73
496.997	3.75
497.346	3.77
497.695	3.79
498.043	3.81
498.392	3.82
498.741	3.85
499.09	3.87
499.438	3.91
499.787	3.92
500.135	3.94
500.484	3.98
500.832	3.98
501.181	4
501.529	4.03
501.878	4.07
502.226	4.11
502.574	4.15
502.923	4.17
503.271	4.21
503.619	4.27
503.967	4.31
504.315	4.37
504.663	4.41
505.011	4.46
505.359	4.5
505.707	4.57
506.055	4.63
506.403	4.69
506.751	4.73
507.098	4.8
507.446	4.89
507.794	4.93
508.141	5.01
508.489	5.05
508.837	5.13
509.184	5.21
509.531	5.3
509.879	5.37
510.226	5.46
510.574	5.52
510.921	5.59
511.268	5.67
511.616	5.71
511.963	5.81
512.31	5.88
512.657	5.98
513.004	6.08
513.351	6.17
513.698	6.25
514.045	6.34
514.392	6.43
514.739	6.5
515.086	6.61
515.432	6.69
515.779	6.8
516.126	6.91
516.473	6.99
516.819	7.07
517.166	7.15
517.512	7.23
517.859	7.32
518.205	7.4
518.552	7.48
518.898	7.58
519.245	7.66
519.591	7.74
519.937	7.82
520.283	7.88
520.629	7.98
520.976	8.08
521.322	8.19
521.668	8.29
522.014	8.42
522.36	8.54
522.706	8.69
523.052	8.84
523.398	8.99
523.743	9.17
524.089	9.33
524.435	9.48
524.781	9.65
525.126	9.8
525.472	9.94
525.817	10.06
526.163	10.2
526.509	10.31
526.854	10.43
527.199	10.54
527.545	10.65
527.89	10.75
528.235	10.86
528.581	10.97
528.926	11.08
529.271	11.2
529.616	11.32
529.961	11.44
530.306	11.57
530.651	11.69
530.996	11.82
531.341	11.97
531.686	12.14
532.031	12.29
532.376	12.45
532.721	12.62
533.065	12.8
533.41	12.97
533.755	13.16
534.099	13.35
534.444	13.52
534.788	13.73
535.133	13.93
535.477	14.13
535.822	14.33
536.166	14.57
536.51	14.78
536.855	15.04
537.199	15.29
537.543	15.57
537.887	15.84
538.231	16.12
538.576	16.41
538.92	16.69
539.264	16.92
539.608	17.17
539.951	17.4
540.295	17.66
540.639	17.89
540.983	18.12
541.327	18.35
541.671	18.57
542.014	18.79
542.358	18.99
542.701	19.22
543.045	19.45
543.389	19.67
543.732	19.92
544.075	20.14
544.419	20.38
544.762	20.62
545.105	20.88
545.449	21.14
545.792	21.38
546.135	21.66
546.478	21.99
546.821	22.31
547.165	22.66
547.508	22.95
547.851	23.28
548.194	23.61
548.536	23.95
548.879	24.31
549.222	24.62
549.565	24.99
549.908	25.36
550.25	25.7
550.593	26.07
550.936	26.43
551.278	26.73
551.621	27.08
551.963	27.46
552.306	27.81
552.648	28.15
552.991	28.48
553.333	28.79
553.675	29.05
554.017	29.37
554.36	29.61
554.702	29.91
555.044	30.22
555.386	30.48
555.728	30.76
556.07	31.05
556.412	31.39
556.754	31.69
557.096	32.01
557.438	32.36
557.78	32.68
558.121	33.02
558.463	33.36
558.805	33.65
559.147	33.9
559.488	34.14
559.83	34.41
560.171	34.69
560.513	34.95
560.854	35.21
561.196	35.49
561.537	35.8
561.878	36.06
562.22	36.3
562.561	36.58
562.902	36.83
563.243	37.1
563.584	37.34
563.925	37.57
564.266	37.79
564.607	38
564.948	38.18
565.289	38.35
565.63	38.56
565.971	38.77
566.312	38.98
566.653	39.22
566.993	39.43
567.334	39.67
567.675	39.85
568.015	40.06
568.356	40.26
568.696	40.47
569.037	40.67
569.377	40.86
569.718	41.06
570.058	41.23
570.398	41.35
570.739	41.55
571.079	41.75
571.419	41.9
571.759	42.1
572.099	42.26
572.439	42.44
572.779	42.59
573.119	42.8
573.459	43.01
573.799	43.16
574.139	43.26
574.479	43.41
574.819	43.61
575.158	43.77
575.498	43.88
575.838	44.03
576.177	44.16
576.517	44.3
576.856	44.47
577.196	44.68
577.535	44.86
577.875	44.97
578.214	45.12
578.553	45.31
578.893	45.45
579.232	45.61
579.571	45.86
579.91	45.98
580.25	46.1
580.589	46.17
580.928	46.36
581.267	46.61
581.606	46.8
581.945	46.9
582.283	47.01
582.622	47.2
582.961	47.33
583.3	47.52
583.639	47.71
583.977	47.84
584.316	47.88
584.654	48.03
584.993	48.16
585.332	48.28
585.67	48.33
586.008	48.45
586.347	48.54
586.685	48.5
587.024	48.63
587.362	48.71
587.7	48.85
588.038	48.89
588.376	48.94
588.715	48.94
589.053	49.1
589.391	49.23
589.729	49.34
590.067	49.41
590.404	49.51
590.742	49.59
591.08	49.62
591.418	49.73
591.756	49.86
592.093	49.93
592.431	50.01
592.769	50.04
593.106	50.1
593.444	50.25
593.781	50.36
594.119	50.45
594.456	50.53
594.793	50.6
595.131	50.66
595.468	50.7
595.805	50.78
596.143	50.76
596.48	50.75
596.817	50.79
597.154	50.86
597.491	50.88
597.828	50.92
598.165	51
598.502	51.1
598.839	51.09
599.176	51.22
599.512	51.27
599.849	51.33
600.186	51.41
600.523	51.45
600.859	51.5
601.196	51.53
601.532	51.6
601.869	51.69
602.205	51.81
602.542	51.87
602.878	51.87
603.215	51.98
603.551	52.12
603.887	52.12
604.223	52.16
604.56	52.3
604.896	52.29
605.232	52.42
605.568	52.42
605.904	52.49
606.24	52.46
606.576	52.51
606.912	52.62
607.248	52.7
607.583	52.7
607.919	52.77
608.255	52.87
608.591	52.92
608.926	52.88
609.262	52.9
609.597	52.99
609.933	53.07
610.268	53.12
610.604	53.17
610.939	53.28
611.275	53.29
611.61	53.25
611.945	53.39
612.281	53.32
612.616	53.44
612.951	53.55
613.286	53.63
613.621	53.69
613.956	53.71
614.291	53.7
614.626	53.85
614.961	53.84
615.296	53.85
615.631	53.89
615.966	53.97
616.3	54.04
616.635	54.08
616.97	54.14
617.304	54.1
617.639	54.07
617.973	54.09
618.308	54.19
618.642	54.21
618.977	54.18
619.311	54.22
619.646	54.18
619.98	54.24
620.314	54.34
620.648	54.37
620.983	54.45
621.317	54.49
621.651	54.5
621.985	54.63
622.319	54.66
622.653	54.75
622.987	54.77
623.321	54.82
623.655	54.84
623.988	54.89
624.322	54.94
624.656	55.11
624.99	55.09
625.323	55.09
625.657	55.13
625.99	55.16
626.324	55.27
626.657	55.3
626.991	55.25
627.324	55.26
627.658	55.25
627.991	55.27
628.324	55.27
628.657	55.23
628.991	55.22
629.324	55.25
629.657	55.22
629.99	55.24
630.323	55.16
630.656	55.16
630.989	55.21
631.322	55.28
631.655	55.23
631.987	55.34
632.32	55.33
632.653	55.4
632.986	55.46
633.318	55.28
633.651	55.38
633.984	55.46
634.316	55.49
634.649	55.51
634.981	55.54
635.313	55.61
635.646	55.67
635.978	55.71
636.31	55.72
636.643	55.7
636.975	55.81
637.307	55.84
637.639	55.92
637.971	55.95
638.303	55.99
638.635	55.89
638.967	55.94
639.299	55.99
639.631	55.96
639.963	55.98
640.295	56.07
640.626	56.05
640.958	56.03
641.29	56.02
641.621	56.07
641.953	56.09
642.285	56.17
642.616	56.28
642.948	56.25
643.279	56.35
643.61	56.43
643.942	56.32
644.273	56.45
644.604	56.43
644.936	56.37
645.267	56.31
645.598	56.46
645.929	56.48
646.26	56.52
646.591	56.61
646.922	56.68
647.253	56.71
647.584	56.74
647.915	56.74
648.245	56.76
648.576	56.77
648.907	56.84
649.238	56.75
649.568	56.6
649.899	56.59
650.229	56.59
650.56	56.65
650.89	56.7
651.221	56.64
651.551	56.69
651.882	56.75
652.212	56.81
652.542	56.72
652.872	56.65
653.203	56.66
653.533	56.59
653.863	56.51
654.193	56.55
654.523	56.59
654.853	56.65
655.183	56.62
655.513	56.59
655.843	56.53
656.172	56.52
656.502	56.61
656.832	56.77
657.162	56.79
657.491	56.87
657.821	56.89
658.15	56.95
658.48	56.99
658.809	56.99
659.139	57.06
659.468	57.14
659.798	57.1
660.127	57.11
660.456	57.24
660.785	57.33
661.115	57.33
661.444	57.28
661.773	57.21
662.102	57.33
662.431	57.4
662.76	57.38
663.089	57.48
663.418	57.61
663.747	57.55
664.076	57.46
664.404	57.41
664.733	57.43
665.062	57.4
665.39	57.33
665.719	57.34
666.048	57.38
666.376	57.46
666.705	57.68
667.033	57.64
667.362	57.59
667.69	57.55
668.018	57.63
668.347	57.67
668.675	57.65
669.003	57.53
669.331	57.54
669.659	57.62
669.987	57.62
670.315	57.61
670.643	57.65
670.971	57.89
671.299	57.87
671.627	57.88
671.955	57.96
672.283	58.04
672.61	58.06
672.938	58.06
673.266	58.07
673.593	58
673.921	58.07
674.249	58.04
674.576	58.08
674.904	58.1
675.231	58.18
675.558	58.28
675.886	58.39
676.213	58.45
676.54	58.46
676.867	58.48
677.195	58.47
677.522	58.39
677.849	58.1
678.176	58.28
678.503	58.3
678.83	58.26
679.157	58.31
679.484	58.38
679.81	58.36
680.137	58.21
680.464	58.24
680.791	58.31
681.117	58.21
681.444	58.19
681.771	58.1
682.097	58.08
682.424	58.15
682.75	58.11
683.077	58
683.403	57.96
683.729	57.98
684.056	58.02
684.382	58.15
684.708	58.34
685.034	58.14
685.36	58.11
685.686	58.06
686.012	58.09
686.339	58.15
686.664	58.22
686.99	58.31
687.316	58.21
687.642	58.09
687.968	58.2
688.294	58.26
688.619	58.43
688.945	58.43
689.271	58.43
689.596	58.4
689.922	58.51
690.247	58.45
690.573	58.46
690.898	58.43
691.224	58.34
691.549	58.25
691.874	58.23
692.2	58.34
692.525	58.42
692.85	58.36
693.175	58.35
693.5	58.08
693.825	58.08
694.15	58
694.475	57.99
694.8	57.96
695.125	57.95
695.45	57.92
695.775	57.94
696.099	57.91
696.424	57.96
696.749	57.94
697.073	58.09
697.398	58.17
697.723	58.17
698.047	58.19
698.372	58.22
698.696	58.32
699.02	58.23
699.345	58.38
699.669	58.4
699.993	58.27
700.318	58.42
700.642	58.37
700.966	58.6
701.29	58.46
701.614	58.63
701.938	58.7
702.262	58.69
702.586	58.62
702.91	58.73
703.234	58.79
703.557	58.78
703.881	58.69
704.205	58.51
704.529	58.49
704.852	58.6
705.176	58.56
705.499	58.63
705.823	58.84
706.146	58.76
706.47	58.71
706.793	58.87
707.117	58.96
707.44	59.05
707.763	58.88
708.086	59.13
708.409	59.06
708.733	58.97
709.056	58.93
709.379	59
709.702	59.14
710.025	59.24
710.348	59.19
710.671	59.2
710.993	59.37
711.316	59.44
711.639	59.43
711.962	59.48
712.284	59.37
712.607	59.3
712.93	59.1
713.252	59.13
713.575	59.08
713.897	59.05
714.22	59.23
714.542	59.17
714.864	59.12
715.187	59.04
715.509	58.92
715.831	59.1
716.153	59.1
716.475	59.08
716.798	59
717.12	59.1
717.442	59.19
717.764	58.92
718.085	58.82
718.407	58.78
718.729	58.83
719.051	58.76
719.373	58.84
719.695	58.99
720.016	58.92
720.338	58.97
720.659	58.86
720.981	58.56
721.302	58.69
721.624	58.89
721.945	58.86
722.267	58.88
722.588	58.97
722.909	59.17
723.231	59.07
723.552	59.16
723.873	59.19
724.194	59.24
724.515	59.56
724.836	59.86
725.157	59.92
725.478	59.83
725.799	60.06
726.12	59.85
726.441	59.82
726.762	60.08
727.083	60.13
727.403	60.06
727.724	59.95
728.045	59.93
728.365	59.91
728.686	59.89
729.006	60.21
729.327	60.1
729.647	59.98
729.967	60.01
730.288	59.97
730.608	59.8
730.928	59.72
731.249	59.64
731.569	59.6
731.889	59.5
732.209	59.6
732.529	59.64
732.849	59.93
733.169	59.88
733.489	59.76
733.809	59.91
734.129	60.06
734.448	60.41
734.768	60.42
735.088	60.43
735.408	60.56
735.727	60.66
736.047	60.54
736.366	60.8
736.686	60.71
737.005	60.53
737.325	60.53
737.644	60.43
737.963	60.39
738.283	60.24
738.602	60.33
738.921	60.33
739.24	60.36
739.56	59.98
739.879	60.04
740.198	60.1
740.517	59.72
740.836	59.71
741.155	59.57
741.473	59.69
741.792	59.58
742.111	59.41
742.43	59.01
742.748	58.92
743.067	58.67
743.386	58.52
743.704	58.63
744.023	58.88
744.341	58.78
744.66	58.96
744.978	58.88
745.297	58.74
745.615	58.61
745.933	58.46
746.252	58.66
746.57	58.52
746.888	58.43
747.206	58.42
747.524	58.38
747.842	58.56
748.16	58.26
748.478	58.46
748.796	58.88
749.114	59.19
749.432	59.28
749.749	59.11
750.067	59.09
750.385	59.06
750.703	59.04
751.02	59.38
751.338	59.34
751.655	59.42
751.973	59.56
752.29	59.69
752.608	59.77
752.925	59.85
753.242	60.12
753.56	60.2
753.877	60.41
754.194	60.75
754.511	60.74
754.828	61.25
755.145	60.87
755.462	60.62
755.779	60.64
756.096	60.47
756.413	60.68
756.73	60.81
757.047	60.97
757.364	60.88
757.68	60.74
757.997	60.43
758.314	60.54
758.63	60.42
758.947	60.39
759.264	60.26
759.58	60.25
759.896	60.02
760.213	59.82
760.529	59.8
760.846	59.52
761.162	59.63
761.478	59.49
761.794	59.87
762.11	59.76
762.426	59.63
762.743	59.88
763.059	59.71
763.375	59.53
763.69	59.5
764.006	59.53
764.322	59.57
764.638	59.54
764.954	59.24
765.27	59.38
765.585	59.41
765.901	59.52
766.216	59.64
766.532	59.77
766.848	60.06
767.163	60.23
767.478	60.25
767.794	60.36
768.109	60.31
768.424	60.17
768.74	60.38
769.055	60.38
769.37	60.22
769.685	60.55
770	60.67
770.315	60.9
770.63	60.82
770.945	60.45
771.26	60.75
771.575	60.95
771.89	61.24
772.205	61.28
772.52	61.01
772.834	60.81
773.149	60.61
773.464	60.24
773.778	60.2
774.093	59.94
774.407	59.27
774.722	59.59
775.036	59.94
775.351	60.07
775.665	60.19
775.979	60.19
776.293	60.13
776.608	60.45
776.922	60.04
777.236	60.33
777.55	61.17
777.864	61.21
778.178	61.24
778.492	60.88
778.806	61.09
779.12	61.59
779.434	61.24
779.747	61.65
780.061	61.76
780.375	61.42
780.689	61.27
781.002	61.36
781.316	61.08
781.629	60.6
781.943	60.42
782.256	60.38
782.57	60.52
782.883	60.2
783.196	60.19
783.51	60.29
783.823	60.37
784.136	60.24
784.449	60.55
784.762	60.48
785.075	60.66
785.388	60.48
785.701	60.15
786.014	60.37
786.327	60.36
786.64	60.74
786.953	60.78
787.266	61.45
787.578	61.69
787.891	61.73
788.204	61.53
788.516	61.32
788.829	61.22
789.141	61.38
789.454	61.47
789.766	61.26
790.079	61.31
790.391	60.88
790.703	60.7
791.016	60.23
791.328	60.12
791.64	59.91
791.952	59.93
792.264	59.91
792.576	60.21
792.888	60.25
793.2	59.84
793.512	59.94
793.824	59.99
794.136	59.71
794.448	59.98
794.76	60.1
795.071	60.32
795.383	60.49
795.695	60.3
796.006	60.26
796.318	60.53
796.629	60.6
796.941	60.91
797.252	60.9
797.564	61.5
797.875	61.79
798.186	61.57
798.497	61.41
798.809	61.06
799.12	60.89
799.431	60.72
799.742	60.91
800.053	61.04
800.364	60.55
800.675	61.1
800.986	60.51
801.297	61.05
801.608	61.08
801.918	60.46
802.229	60.38
802.54	60.38
802.851	60.43
803.161	60.24
803.472	60.5
803.782	60.52
804.093	60.3
804.403	60.06
804.714	60.04
805.024	59.88
805.334	60.18
805.645	60.52
805.955	60.11
806.265	60.09
806.575	59.87
806.885	60.04
807.195	59.8
807.505	59.96
807.815	60.03
808.125	59.26
808.435	59.83
808.745	60.03
809.055	59.9
809.365	59.9
809.674	60.32
809.984	60.3
810.294	60.59
810.603	60.3
810.913	60.92
811.222	60.57
811.532	60.46
811.841	61.29
812.151	61.78
812.46	62.79
812.769	62.57
813.079	62.45
813.388	62.49
813.697	62.47
814.006	63.03
814.315	62.8
814.624	63.68
814.933	63.66
815.242	63.46
815.551	63.89
815.86	63.96
816.169	63.41
816.478	62.89
816.786	62.22
817.095	61.9
817.404	61.74
817.712	62.79
818.021	63.32
818.33	62.33
818.638	61.51
818.947	60.87
819.255	60.94
819.563	60.9
819.872	60.37
820.18	60.03
820.488	59.87
820.796	59.94
821.105	59.96
821.413	59.98
821.721	59.98
822.029	59.84
822.337	60.08
822.645	60.14
822.953	60.39
823.26	60.55
823.568	60.82
823.876	60.9
824.184	60.71
824.491	60.63
824.799	60.58
825.107	60.54
825.414	60.58
825.722	60.73
826.029	60.67
826.337	60.96
826.644	61.22
826.951	61.32
827.259	61.31
827.566	61.38
827.873	61.42
828.18	61.4
828.488	61.72
828.795	61.27
829.102	61.6
829.409	61.52
829.716	61.34
830.023	61
830.329	60.47
830.636	60.59
830.943	60.67
831.25	60.58
831.557	60.75
831.863	60.72
832.17	60.27
832.476	60.41
832.783	60.37
833.089	60.37
833.396	60.16
833.702	59.97
834.009	59.59
834.315	59.36
834.621	59.64
834.928	59.85
835.234	59.73
835.54	59.33
835.846	59.25
836.152	59.67
836.458	59.89
836.764	60.28
837.07	60.67
837.376	60.89
837.682	61.41
837.988	60.95
838.293	61.25
838.599	61.67
838.905	62.23
839.211	62.12
839.516	61.5
839.822	61.38
840.127	61.7
840.433	62.06
840.738	62.77
841.044	62.53
841.349	62.23
841.654	62.79
841.959	62.74
842.265	62.87
842.57	61.76
842.875	60.76
843.18	60.75
843.485	58.68
843.79	57.48
844.095	56.82
844.4	58.65
844.705	58.15
845.01	58
845.315	57.08
845.619	57.38
845.924	58.78
846.229	58.65
846.533	58.57
846.838	59.85
847.142	60.9
847.447	61.39
847.751	60.79
848.056	60.08
848.36	59.8
848.664	59.7
848.969	59.13
849.273	60.24
849.577	58.8
849.881	60.29
850.185	63.17
850.489	63.76
850.794	60.87
851.097	61.17
851.401	61.36
851.705	63.69
852.009	64.14
852.313	62.53
852.617	63.39
852.92	63.14
853.224	62.22
853.528	59.27
853.831	59.24
854.135	59.5
854.438	61.72
854.742	63.24
855.045	64.08
855.349	65.67
855.652	65.97
855.955	67.38
856.259	68.6
856.562	67.22
856.865	68.17
857.168	70.17
857.471	70.67
857.774	70.26
858.077	69.77
858.38	67.33
858.683	68.33
858.986	69.2
859.289	69.47
859.592	69.77
859.894	70.41
860.197	71.17
860.5	72
860.802	70.08
861.105	70.5
861.407	68.05
861.71	70
862.012	72.17
862.315	70.26
862.617	71.51
862.919	71.54
863.222	70.63
863.524	69.49
863.826	68.42
864.128	66.21
864.43	66.39
864.732	70.6
865.034	69.75
865.336	67.5
865.638	68.91
865.94	69.2
866.242	70.27
866.544	68.85
866.846	67.21
867.147	67.97
867.449	63.52
867.751	66.81
868.052	65.69
868.354	62.36
868.655	66.04
868.957	64.86
869.258	63.41
869.56	63.81
869.861	61.9
870.162	61.78
870.463	62.14
870.765	59.69
871.066	60.01
871.367	60.52
871.668	61.3
871.969	59.9
872.27	61.21
872.571	59.62
872.872	57.41
873.173	58.47
873.473	57.93
873.774	59.17
874.075	58.05
874.376	56.93
874.676	60.31
874.977	59.21
875.277	59.15
875.578	59.61
875.878	59.38
876.179	61.81
876.479	62.55
876.78	63.8
877.08	65.31
877.38	61.65
877.68	61.88
877.981	61.84
878.281	61.85
878.581	56.67
