Data from BA57965_Reflection_00002.txt Node
Date: Mon Nov 18 15:15:53 EST 2019
User: vgr7
Spectrometer: USB2G7710
Scans to average: 3
Trigger mode: 4
Integration Time (sec): 2.000000E-2
Electric dark correction enabled: true
Boxcar width: 10
XAxis mode: Wavelengths
Number of Pixels in Spectrum: 2048
>>>>>Begin Spectral Data<<<<<
177.721	40.17
178.105	8.01
178.488	-35.88
178.871	55.04
179.254	29.31
179.636	27.2
180.019	10.87
180.402	100
180.785	73.48
181.168	123.32
181.55	297.04
181.933	215.34
182.316	272.19
182.698	844.77
183.081	1093.55
183.463	-766.24
183.846	-243.58
184.228	-136.31
184.611	-173.29
184.993	-171.01
185.376	-83.68
185.758	-103.1
186.14	-85.2
186.522	-95.41
186.904	-58.71
187.287	-83.44
187.669	-70.56
188.051	-84.37
188.433	-98.68
188.815	-63.27
189.197	-62.3
189.579	-58.45
189.961	-50.19
190.342	-48.17
190.724	-38.05
191.106	-36.43
191.488	-67.27
191.869	-63.55
192.251	-80
192.633	-83.34
193.014	-71.29
193.396	-88.67
193.777	-83.16
194.159	-110.62
194.54	-104.12
194.922	-100.05
195.303	-83.48
195.684	-86.29
196.065	-64.55
196.447	-57.2
196.828	-74.5
197.209	-70.96
197.59	-88.3
197.971	-89.59
198.352	-80.54
198.733	-92.2
199.114	-97.89
199.495	-78.26
199.876	-69.28
200.257	-59.85
200.638	-53.73
201.018	-63.11
201.399	-51.52
201.78	-47.17
202.16	-48.64
202.541	-58.75
202.922	-78.87
203.302	-82.49
203.683	-74.85
204.063	-87.72
204.444	-87.02
204.824	-92.56
205.204	-71.97
205.585	-70.17
205.965	-70.97
206.345	-88.74
206.725	-93.1
207.106	-86.58
207.486	-103.95
207.866	-103.9
208.246	-119.1
208.626	-116.35
209.006	-90.1
209.386	-89.91
209.766	-81.2
210.145	-61.98
210.525	-43.32
210.905	-25.12
211.285	-26.17
211.664	-20.24
212.044	-11.28
212.424	-17.08
212.803	-11.43
213.183	-17.69
213.562	-6.54
213.942	5.45
214.321	4.74
214.701	2.69
215.08	2.24
215.459	-6.32
215.838	-6.67
216.218	1.11
216.597	17.94
216.976	9.99
217.355	12.3
217.734	18.11
218.113	14.59
218.492	8.74
218.871	0.37
219.25	4.7
219.629	-2.7
220.008	-3.47
220.387	-7.84
220.766	-9.58
221.144	-16.88
221.523	-26.51
221.902	-36.85
222.28	-41.43
222.659	-37.09
223.037	-35.5
223.416	-30.36
223.794	-26.19
224.173	-37.25
224.551	-40.22
224.929	-37.77
225.308	-38.88
225.686	-32.88
226.064	-25.58
226.442	-20.29
226.821	-10.9
227.199	-12.07
227.577	-11.17
227.955	-11.14
228.333	-7.78
228.711	-5.97
229.089	-0.93
229.467	0.6
229.845	-0.46
230.222	0.79
230.6	-0.83
230.978	-2
231.356	0.26
231.733	-1.37
232.111	1.7
232.488	-0.04
232.866	2.35
233.243	1.67
233.621	0.09
233.998	-0.23
234.376	-1.32
234.753	-2.29
235.13	-1.73
235.508	-1.86
235.885	-1.55
236.262	-0.58
236.639	-1.23
237.016	-1.43
237.393	0.13
237.77	1.65
238.147	2.05
238.524	2.43
238.901	3.61
239.278	3.75
239.655	4.98
240.032	4.42
240.409	4.81
240.785	3.92
241.162	4.28
241.539	4.93
241.915	4.96
242.292	4.83
242.668	5
243.045	5.22
243.421	5.31
243.798	4.99
244.174	4.55
244.551	4.89
244.927	4.63
245.303	4.54
245.679	4.84
246.056	4.9
246.432	4.97
246.808	4.8
247.184	4.6
247.56	4.3
247.936	4.47
248.312	4.5
248.688	4.64
249.064	4.68
249.44	4.29
249.815	4.3
250.191	4.51
250.567	4.27
250.943	3.96
251.318	4.02
251.694	4.3
252.069	4.53
252.445	4.41
252.82	4.56
253.196	4.29
253.571	3.94
253.947	4
254.322	4.23
254.697	4.31
255.073	4.3
255.448	4.26
255.823	4.24
256.198	4.2
256.573	4.3
256.948	4.58
257.323	4.92
257.698	4.67
258.073	4.8
258.448	4.67
258.823	4.75
259.198	4.63
259.573	4.58
259.948	4.5
260.322	4.48
260.697	4.55
261.072	4.53
261.446	4.42
261.821	4.34
262.195	4.3
262.57	4.33
262.944	4.29
263.319	4.25
263.693	4.3
264.067	4.39
264.442	4.47
264.816	4.25
265.19	4.22
265.564	4.33
265.938	4.08
266.313	4.28
266.687	4.38
267.061	4.77
267.435	4.78
267.809	4.7
268.183	4.57
268.556	4.26
268.93	4.39
269.304	4.53
269.678	4.59
270.051	4.52
270.425	4.38
270.799	4.6
271.172	4.71
271.546	4.47
271.919	4.47
272.293	4.32
272.666	4.35
273.04	4.31
273.413	4.29
273.787	4.4
274.16	4.4
274.533	4.27
274.906	3.96
275.279	3.88
275.653	3.88
276.026	3.94
276.399	3.95
276.772	4.03
277.145	3.84
277.518	3.79
277.891	3.79
278.263	3.65
278.636	3.55
279.009	3.6
279.382	3.79
279.755	3.73
280.127	4.02
280.5	4.03
280.872	3.99
281.245	4.13
281.617	4.23
281.99	4.2
282.362	4.41
282.735	4.38
283.107	4.46
283.479	4.45
283.852	4.48
284.224	4.64
284.596	4.57
284.968	4.71
285.34	4.72
285.713	4.69
286.085	4.82
286.457	4.99
286.829	4.94
287.201	4.96
287.572	4.87
287.944	4.72
288.316	4.82
288.688	4.93
289.06	4.85
289.431	4.69
289.803	4.78
290.175	4.74
290.546	4.89
290.918	4.9
291.289	4.99
291.661	5.13
292.032	5.21
292.403	5.15
292.775	5.17
293.146	5.15
293.517	5.22
293.889	5.31
294.26	5.21
294.631	5.31
295.002	5.2
295.373	5.28
295.744	5.35
296.115	5.21
296.486	5.06
296.857	5.13
297.228	5.26
297.599	5.2
297.97	5.11
298.34	5.17
298.711	5.32
299.082	5.39
299.452	5.34
299.823	5.27
300.194	5.34
300.564	5.4
300.935	5.44
301.305	5.39
301.676	5.37
302.046	5.31
302.416	5.26
302.787	5.43
303.157	5.52
303.527	5.46
303.897	5.59
304.267	5.81
304.637	5.83
305.008	5.78
305.378	5.86
305.748	5.99
306.117	5.77
306.487	5.64
306.857	5.56
307.227	5.66
307.597	5.65
307.967	5.62
308.336	5.54
308.706	5.58
309.076	5.7
309.445	5.68
309.815	5.63
310.184	5.56
310.554	5.56
310.923	5.46
311.293	5.44
311.662	5.29
312.031	5.26
312.401	5.24
312.77	5.25
313.139	5.26
313.508	5.27
313.877	5.36
314.246	5.3
314.616	5.26
314.985	5.16
315.353	4.98
315.722	5.05
316.091	5.09
316.46	5.03
316.829	5.04
317.198	4.98
317.567	5.1
317.935	5.12
318.304	5.06
318.672	5.17
319.041	5.4
319.41	5.44
319.778	5.33
320.147	5.21
320.515	5.31
320.883	5.15
321.252	5.17
321.62	5.09
321.988	5.04
322.357	5.16
322.725	5.3
323.093	5.47
323.461	5.56
323.829	5.66
324.197	5.69
324.565	5.62
324.933	5.64
325.301	5.45
325.669	5.61
326.037	5.65
326.405	5.65
326.772	5.52
327.14	5.68
327.508	5.75
327.875	5.72
328.243	5.7
328.61	5.81
328.978	5.68
329.346	5.81
329.713	5.94
330.08	5.79
330.448	5.65
330.815	5.57
331.182	5.4
331.55	5.33
331.917	5.32
332.284	5.4
332.651	5.41
333.018	5.61
333.385	5.58
333.752	5.61
334.119	5.69
334.486	5.53
334.853	5.49
335.22	5.38
335.587	5.51
335.954	5.49
336.32	5.49
336.687	5.57
337.054	5.47
337.42	5.5
337.787	5.62
338.153	5.59
338.52	5.72
338.886	5.68
339.253	5.69
339.619	5.75
339.986	5.68
340.352	5.79
340.718	5.75
341.084	5.64
341.451	5.61
341.817	5.57
342.183	5.59
342.549	5.56
342.915	5.63
343.281	5.61
343.647	5.62
344.013	5.56
344.379	5.56
344.745	5.59
345.11	5.54
345.476	5.53
345.842	5.53
346.208	5.55
346.573	5.61
346.939	5.66
347.304	5.59
347.67	5.55
348.035	5.53
348.401	5.57
348.766	5.65
349.132	5.67
349.497	5.61
349.862	5.72
350.228	5.75
350.593	5.69
350.958	5.65
351.323	5.68
351.688	5.68
352.053	5.75
352.418	5.78
352.783	5.76
353.148	5.82
353.513	5.84
353.878	5.79
354.243	5.76
354.608	5.74
354.972	5.76
355.337	5.85
355.702	5.91
356.066	5.9
356.431	5.85
356.795	5.83
357.16	5.82
357.524	5.79
357.889	5.76
358.253	5.77
358.618	5.88
358.982	5.89
359.346	5.89
359.71	5.87
360.075	5.9
360.439	5.89
360.803	5.85
361.167	5.81
361.531	5.85
361.895	5.91
362.259	5.86
362.623	5.89
362.987	5.88
363.351	5.83
363.714	5.83
364.078	5.9
364.442	5.91
364.806	5.96
365.169	5.99
365.533	5.99
365.896	6.03
366.26	5.97
366.623	5.97
366.987	6.02
367.35	5.98
367.714	6.01
368.077	6.02
368.44	6.01
368.803	6.05
369.167	5.99
369.53	5.95
369.893	5.98
370.256	5.99
370.619	6.01
370.982	5.98
371.345	5.94
371.708	5.89
372.071	5.84
372.434	5.8
372.797	5.83
373.159	5.83
373.522	5.83
373.885	5.84
374.247	5.82
374.61	5.81
374.973	5.77
375.335	5.72
375.698	5.77
376.06	5.77
376.423	5.8
376.785	5.86
377.147	5.89
377.51	5.87
377.872	5.85
378.234	5.79
378.596	5.8
378.958	5.82
379.321	5.87
379.683	5.91
380.045	5.9
380.407	5.89
380.769	5.9
381.13	5.93
381.492	5.94
381.854	5.92
382.216	5.91
382.578	5.94
382.939	5.92
383.301	5.9
383.663	5.84
384.024	5.82
384.386	5.79
384.747	5.82
385.109	5.87
385.47	5.81
385.832	5.85
386.193	5.85
386.554	5.82
386.916	5.79
387.277	5.78
387.638	5.79
387.999	5.79
388.36	5.78
388.721	5.79
389.082	5.76
389.443	5.75
389.804	5.74
390.165	5.76
390.526	5.78
390.887	5.79
391.248	5.84
391.609	5.85
391.969	5.91
392.33	5.87
392.691	5.84
393.051	5.91
393.412	5.91
393.772	5.9
394.133	5.95
394.493	5.96
394.854	5.96
395.214	5.98
395.574	5.98
395.935	5.96
396.295	5.95
396.655	5.97
397.015	5.94
397.376	5.97
397.736	5.94
398.096	5.97
398.456	5.96
398.816	5.96
399.176	5.94
399.535	5.88
399.895	5.89
400.255	5.91
400.615	5.9
400.975	5.9
401.334	5.9
401.694	5.84
402.054	5.83
402.413	5.86
402.773	5.81
403.132	5.81
403.492	5.85
403.851	5.83
404.211	5.81
404.57	5.85
404.929	5.84
405.288	5.89
405.648	5.87
406.007	5.86
406.366	5.86
406.725	5.89
407.084	5.89
407.443	5.91
407.802	5.91
408.161	5.89
408.52	5.88
408.879	5.87
409.238	5.93
409.596	5.94
409.955	5.93
410.314	5.96
410.673	5.95
411.031	5.93
411.39	5.95
411.748	5.95
412.107	5.96
412.465	5.96
412.824	5.95
413.182	5.93
413.54	5.93
413.899	5.93
414.257	5.92
414.615	5.91
414.974	5.9
415.332	5.88
415.69	5.88
416.048	5.87
416.406	5.88
416.764	5.85
417.122	5.84
417.48	5.82
417.838	5.83
418.195	5.8
418.553	5.8
418.911	5.78
419.269	5.79
419.626	5.8
419.984	5.79
420.342	5.8
420.699	5.82
421.057	5.83
421.414	5.84
421.772	5.82
422.129	5.81
422.486	5.82
422.844	5.82
423.201	5.82
423.558	5.81
423.915	5.8
424.273	5.8
424.63	5.79
424.987	5.82
425.344	5.82
425.701	5.83
426.058	5.84
426.415	5.85
426.772	5.86
427.128	5.84
427.485	5.85
427.842	5.83
428.199	5.82
428.555	5.8
428.912	5.81
429.269	5.82
429.625	5.84
429.982	5.83
430.338	5.83
430.695	5.85
431.051	5.85
431.407	5.86
431.764	5.88
432.12	5.89
432.476	5.87
432.832	5.85
433.189	5.86
433.545	5.85
433.901	5.85
434.257	5.82
434.613	5.83
434.969	5.82
435.325	5.83
435.681	5.84
436.036	5.83
436.392	5.82
436.748	5.82
437.104	5.82
437.459	5.81
437.815	5.81
438.171	5.79
438.526	5.8
438.882	5.82
439.237	5.82
439.593	5.82
439.948	5.81
440.304	5.82
440.659	5.81
441.014	5.83
441.369	5.83
441.725	5.83
442.08	5.82
442.435	5.82
442.79	5.82
443.145	5.79
443.5	5.79
443.855	5.79
444.21	5.78
444.565	5.78
444.92	5.78
445.275	5.77
445.629	5.78
445.984	5.77
446.339	5.74
446.693	5.72
447.048	5.71
447.403	5.71
447.757	5.69
448.112	5.69
448.466	5.67
448.82	5.68
449.175	5.68
449.529	5.68
449.883	5.68
450.238	5.67
450.592	5.7
450.946	5.69
451.3	5.68
451.654	5.68
452.008	5.68
452.362	5.68
452.716	5.68
453.07	5.68
453.424	5.68
453.778	5.69
454.132	5.68
454.486	5.69
454.839	5.68
455.193	5.72
455.547	5.73
455.9	5.73
456.254	5.73
456.607	5.72
456.961	5.72
457.314	5.71
457.668	5.71
458.021	5.68
458.375	5.69
458.728	5.7
459.081	5.73
459.434	5.71
459.787	5.73
460.141	5.74
460.494	5.74
460.847	5.76
461.2	5.76
461.553	5.78
461.906	5.79
462.259	5.79
462.611	5.76
462.964	5.78
463.317	5.8
463.67	5.8
464.022	5.81
464.375	5.82
464.728	5.82
465.08	5.82
465.433	5.84
465.785	5.84
466.138	5.86
466.49	5.84
466.843	5.83
467.195	5.84
467.547	5.83
467.899	5.84
468.252	5.8
468.604	5.83
468.956	5.81
469.308	5.8
469.66	5.8
470.012	5.82
470.364	5.81
470.716	5.78
471.068	5.79
471.42	5.76
471.772	5.78
472.123	5.81
472.475	5.83
472.827	5.83
473.178	5.84
473.53	5.83
473.882	5.83
474.233	5.86
474.585	5.82
474.936	5.82
475.288	5.8
475.639	5.81
475.99	5.79
476.342	5.78
476.693	5.8
477.044	5.8
477.395	5.8
477.746	5.79
478.097	5.79
478.448	5.79
478.8	5.8
479.15	5.8
479.501	5.78
479.852	5.79
480.203	5.81
480.554	5.83
480.905	5.84
481.255	5.85
481.606	5.86
481.957	5.87
482.307	5.89
482.658	5.9
483.009	5.9
483.359	5.92
483.709	5.94
484.06	5.95
484.41	5.96
484.761	5.96
485.111	5.97
485.461	5.99
485.811	6
486.162	6
486.512	6.01
486.862	6.03
487.212	6.02
487.562	6.02
487.912	6.03
488.262	6.04
488.612	6.04
488.961	6.05
489.311	6.05
489.661	6.05
490.011	6.07
490.36	6.08
490.71	6.08
491.06	6.08
491.409	6.07
491.759	6.07
492.108	6.05
492.458	6.06
492.807	6.06
493.157	6.06
493.506	6.05
493.855	6.05
494.204	6.06
494.554	6.08
494.903	6.07
495.252	6.06
495.601	6.06
495.95	6.07
496.299	6.07
496.648	6.08
496.997	6.06
497.346	6.05
497.695	6.07
498.043	6.05
498.392	6.04
498.741	6.05
499.09	6.05
499.438	6.08
499.787	6.07
500.135	6.07
500.484	6.07
500.832	6.09
501.181	6.11
501.529	6.1
501.878	6.1
502.226	6.13
502.574	6.13
502.923	6.14
503.271	6.11
503.619	6.12
503.967	6.11
504.315	6.12
504.663	6.14
505.011	6.13
505.359	6.15
505.707	6.16
506.055	6.16
506.403	6.18
506.751	6.2
507.098	6.23
507.446	6.24
507.794	6.25
508.141	6.25
508.489	6.23
508.837	6.25
509.184	6.25
509.531	6.26
509.879	6.29
510.226	6.28
510.574	6.3
510.921	6.31
511.268	6.34
511.616	6.35
511.963	6.33
512.31	6.35
512.657	6.34
513.004	6.35
513.351	6.38
513.698	6.38
514.045	6.36
514.392	6.36
514.739	6.37
515.086	6.38
515.432	6.39
515.779	6.4
516.126	6.38
516.473	6.39
516.819	6.38
517.166	6.37
517.512	6.4
517.859	6.4
518.205	6.39
518.552	6.38
518.898	6.39
519.245	6.42
519.591	6.42
519.937	6.43
520.283	6.43
520.629	6.43
520.976	6.43
521.322	6.44
521.668	6.43
522.014	6.43
522.36	6.43
522.706	6.43
523.052	6.45
523.398	6.47
523.743	6.48
524.089	6.51
524.435	6.53
524.781	6.52
525.126	6.55
525.472	6.58
525.817	6.58
526.163	6.59
526.509	6.58
526.854	6.59
527.199	6.62
527.545	6.62
527.89	6.62
528.235	6.63
528.581	6.64
528.926	6.65
529.271	6.66
529.616	6.66
529.961	6.66
530.306	6.67
530.651	6.66
530.996	6.68
531.341	6.66
531.686	6.66
532.031	6.67
532.376	6.66
532.721	6.65
533.065	6.65
533.41	6.65
533.755	6.66
534.099	6.66
534.444	6.65
534.788	6.67
535.133	6.68
535.477	6.68
535.822	6.67
536.166	6.65
536.51	6.65
536.855	6.65
537.199	6.67
537.543	6.66
537.887	6.69
538.231	6.67
538.576	6.68
538.92	6.7
539.264	6.72
539.608	6.74
539.951	6.73
540.295	6.74
540.639	6.74
540.983	6.75
541.327	6.75
541.671	6.76
542.014	6.74
542.358	6.71
542.701	6.71
543.045	6.72
543.389	6.73
543.732	6.74
544.075	6.73
544.419	6.73
544.762	6.72
545.105	6.7
545.449	6.71
545.792	6.72
546.135	6.7
546.478	6.68
546.821	6.65
547.165	6.66
547.508	6.65
547.851	6.65
548.194	6.63
548.536	6.61
548.879	6.56
549.222	6.59
549.565	6.62
549.908	6.64
550.25	6.63
550.593	6.63
550.936	6.62
551.278	6.62
551.621	6.6
551.963	6.62
552.306	6.63
552.648	6.6
552.991	6.6
553.333	6.64
553.675	6.67
554.017	6.69
554.36	6.68
554.702	6.67
555.044	6.68
555.386	6.71
555.728	6.75
556.07	6.8
556.412	6.77
556.754	6.79
557.096	6.78
557.438	6.8
557.78	6.78
558.121	6.81
558.463	6.81
558.805	6.83
559.147	6.84
559.488	6.84
559.83	6.88
560.171	6.86
560.513	6.85
560.854	6.83
561.196	6.82
561.537	6.81
561.878	6.85
562.22	6.83
562.561	6.82
562.902	6.82
563.243	6.78
563.584	6.81
563.925	6.81
564.266	6.79
564.607	6.78
564.948	6.83
565.289	6.82
565.63	6.86
565.971	6.87
566.312	6.86
566.653	6.87
566.993	6.84
567.334	6.83
567.675	6.82
568.015	6.8
568.356	6.81
568.696	6.84
569.037	6.83
569.377	6.87
569.718	6.88
570.058	6.88
570.398	6.88
570.739	6.89
571.079	6.88
571.419	6.9
571.759	6.93
572.099	6.9
572.439	6.9
572.779	6.88
573.119	6.88
573.459	6.91
573.799	6.95
574.139	6.96
574.479	6.98
574.819	6.99
575.158	6.98
575.498	6.99
575.838	6.98
576.177	6.97
576.517	6.94
576.856	6.96
577.196	6.96
577.535	6.96
577.875	6.96
578.214	6.98
578.553	7.01
578.893	6.99
579.232	7.01
579.571	7
579.91	7.01
580.25	7.03
580.589	7
580.928	6.96
581.267	6.94
581.606	6.93
581.945	6.96
582.283	7.02
582.622	7
582.961	7.01
583.3	7.04
583.639	7.05
583.977	7.03
584.316	7.01
584.654	7.02
584.993	6.99
585.332	6.97
585.67	6.92
586.008	6.93
586.347	6.91
586.685	6.88
587.024	6.88
587.362	6.85
587.7	6.86
588.038	6.88
588.376	6.92
588.715	6.91
589.053	6.91
589.391	6.9
589.729	6.94
590.067	6.93
590.404	6.93
590.742	6.95
591.08	6.95
591.418	6.97
591.756	6.99
592.093	7.05
592.431	7.08
592.769	7.08
593.106	7.1
593.444	7.11
593.781	7.16
594.119	7.17
594.456	7.15
594.793	7.13
595.131	7.08
595.468	7.06
595.805	7.06
596.143	7.05
596.48	7.04
596.817	7.01
597.154	7.02
597.491	6.99
597.828	7.02
598.165	7.02
598.502	6.99
598.839	6.96
599.176	6.95
599.512	6.91
599.849	6.91
600.186	6.9
600.523	6.93
600.859	6.93
601.196	6.92
601.532	6.96
601.869	6.96
602.205	6.98
602.542	7.01
602.878	7.02
603.215	7.01
603.551	7.03
603.887	7.05
604.223	7.07
604.56	7.1
604.896	7.07
605.232	7.08
605.568	7.08
605.904	7.09
606.24	7.08
606.576	7.08
606.912	7.1
607.248	7.08
607.583	7.08
607.919	7.04
608.255	7.05
608.591	7.06
608.926	7.08
609.262	7.09
609.597	7.08
609.933	7.13
610.268	7.16
610.604	7.13
610.939	7.11
611.275	7.07
611.61	7.11
611.945	7.14
612.281	7.14
612.616	7.16
612.951	7.18
613.286	7.16
613.621	7.2
613.956	7.2
614.291	7.23
614.626	7.22
614.961	7.22
615.296	7.23
615.631	7.22
615.966	7.18
616.3	7.17
616.635	7.16
616.97	7.11
617.304	7.09
617.639	7.13
617.973	7.11
618.308	7.1
618.642	7.06
618.977	7.08
619.311	7.11
619.646	7.16
619.98	7.16
620.314	7.19
620.648	7.2
620.983	7.23
621.317	7.21
621.651	7.26
621.985	7.28
622.319	7.29
622.653	7.29
622.987	7.34
623.321	7.37
623.655	7.36
623.988	7.37
624.322	7.35
624.656	7.36
624.99	7.38
625.323	7.42
625.657	7.44
625.99	7.46
626.324	7.4
626.657	7.35
626.991	7.34
627.324	7.35
627.658	7.37
627.991	7.41
628.324	7.4
628.657	7.33
628.991	7.35
629.324	7.34
629.657	7.35
629.99	7.38
630.323	7.34
630.656	7.36
630.989	7.37
631.322	7.4
631.655	7.36
631.987	7.37
632.32	7.37
632.653	7.36
632.986	7.3
633.318	7.37
633.651	7.42
633.984	7.42
634.316	7.42
634.649	7.39
634.981	7.3
635.313	7.33
635.646	7.34
635.978	7.36
636.31	7.36
636.643	7.36
636.975	7.41
637.307	7.49
637.639	7.48
637.971	7.5
638.303	7.53
638.635	7.53
638.967	7.59
639.299	7.59
639.631	7.55
639.963	7.51
640.295	7.52
640.626	7.48
640.958	7.49
641.29	7.42
641.621	7.41
641.953	7.37
642.285	7.43
642.616	7.49
642.948	7.48
643.279	7.46
643.61	7.46
643.942	7.4
644.273	7.3
644.604	7.32
644.936	7.28
645.267	7.26
645.598	7.32
645.929	7.33
646.26	7.32
646.591	7.34
646.922	7.4
647.253	7.34
647.584	7.36
647.915	7.37
648.245	7.38
648.576	7.39
648.907	7.45
649.238	7.39
649.568	7.38
649.899	7.37
650.229	7.41
650.56	7.47
650.89	7.47
651.221	7.53
651.551	7.46
651.882	7.48
652.212	7.44
652.542	7.43
652.872	7.34
653.203	7.35
653.533	7.36
653.863	7.37
654.193	7.38
654.523	7.4
654.853	7.43
655.183	7.47
655.513	7.5
655.843	7.52
656.172	7.55
656.502	7.6
656.832	7.64
657.162	7.68
657.491	7.64
657.821	7.62
658.15	7.59
658.48	7.71
658.809	7.68
659.139	7.71
659.468	7.7
659.798	7.76
660.127	7.77
660.456	7.78
660.785	7.78
661.115	7.83
661.444	7.79
661.773	7.78
662.102	7.8
662.431	7.84
662.76	7.87
663.089	7.85
663.418	7.76
663.747	7.66
664.076	7.59
664.404	7.53
664.733	7.63
665.062	7.6
665.39	7.49
665.719	7.51
666.048	7.54
666.376	7.5
666.705	7.48
667.033	7.44
667.362	7.44
667.69	7.45
668.018	7.5
668.347	7.57
668.675	7.62
669.003	7.57
669.331	7.6
669.659	7.64
669.987	7.62
670.315	7.59
670.643	7.67
670.971	7.72
671.299	7.88
671.627	7.78
671.955	7.8
672.283	7.9
672.61	7.88
672.938	7.86
673.266	8.04
673.593	8.13
673.921	8.2
674.249	8.15
674.576	8.18
674.904	8.07
675.231	8.05
675.558	8.06
675.886	8.12
676.213	8.04
676.54	8.02
676.867	8.15
677.195	8.26
677.522	8.27
677.849	8.22
678.176	8.12
678.503	8.12
678.83	8.2
679.157	8.18
679.484	8.13
679.81	8.15
680.137	8.02
680.464	7.95
680.791	7.92
681.117	7.95
681.444	7.87
681.771	7.9
682.097	7.88
682.424	7.85
682.75	7.82
683.077	7.83
683.403	7.85
683.729	7.74
684.056	7.69
684.382	7.69
684.708	7.69
685.034	7.71
685.36	7.71
685.686	7.65
686.012	7.64
686.339	7.74
686.664	7.77
686.99	7.72
687.316	7.72
687.642	7.79
687.968	7.76
688.294	7.9
688.619	7.99
688.945	7.96
689.271	8
689.596	8.06
689.922	8.07
690.247	8.07
690.573	8.16
690.898	8.24
691.224	8.22
691.549	8.25
691.874	8.14
692.2	8.16
692.525	8.19
692.85	8.31
693.175	8.26
693.5	8.22
693.825	8.34
694.15	8.31
694.475	8.21
694.8	8.22
695.125	8.09
695.45	7.89
695.775	7.98
696.099	8.01
696.424	8.02
696.749	7.98
697.073	8
697.398	7.88
697.723	7.9
698.047	7.86
698.372	7.82
698.696	7.92
699.02	7.95
699.345	7.98
699.669	7.97
699.993	8.01
700.318	7.95
700.642	7.89
700.966	7.99
701.29	8.07
701.614	8.14
701.938	8.16
702.262	8.29
702.586	8.32
702.91	8.28
703.234	8.25
703.557	8.27
703.881	8.13
704.205	8.24
704.529	8.1
704.852	8.29
705.176	8.46
705.499	8.47
705.823	8.57
706.146	8.51
706.47	8.42
706.793	8.41
707.117	8.48
707.44	8.47
707.763	8.3
708.086	8.18
708.409	8.2
708.733	8.25
709.056	8.25
709.379	8.32
709.702	8.33
710.025	8.28
710.348	8.23
710.671	8.19
710.993	8.19
711.316	8.32
711.639	8.18
711.962	8.08
712.284	8.03
712.607	7.92
712.93	7.99
713.252	8.05
713.575	8.11
713.897	8.12
714.22	8.25
714.542	8.3
714.864	8.32
715.187	8.34
715.509	8.33
715.831	8.42
716.153	8.33
716.475	8.33
716.798	8.53
717.12	8.52
717.442	8.73
717.764	8.64
718.085	8.6
718.407	8.76
718.729	8.69
719.051	8.64
719.373	8.55
719.695	8.59
720.016	8.71
720.338	8.69
720.659	8.55
720.981	8.46
721.302	8.4
721.624	8.48
721.945	8.33
722.267	8.33
722.588	8.12
722.909	8.03
723.231	7.92
723.552	7.76
723.873	8
724.194	7.87
724.515	8.06
724.836	8.03
725.157	8.04
725.478	8.18
725.799	8.3
726.12	8.3
726.441	8.17
726.762	7.98
727.083	7.96
727.403	8.25
727.724	8.37
728.045	8.39
728.365	8.39
728.686	8.43
729.006	8.45
729.327	8.48
729.647	8.46
729.967	8.48
730.288	8.48
730.608	8.39
730.928	8.31
731.249	8.23
731.569	8.27
731.889	8.35
732.209	8.33
732.529	8.49
732.849	8.68
733.169	8.72
733.489	8.89
733.809	8.84
734.129	8.74
734.448	8.64
734.768	8.68
735.088	8.77
735.408	8.86
735.727	8.9
736.047	9.11
736.366	9.23
736.686	9.44
737.005	9.38
737.325	9.34
737.644	9.43
737.963	9.38
738.283	9.12
738.602	8.86
738.921	8.95
739.24	8.77
739.56	8.75
739.879	8.69
740.198	8.55
740.517	8.55
740.836	8.53
741.155	8.65
741.473	8.86
741.792	8.78
742.111	8.73
742.43	8.67
742.748	8.49
743.067	8.4
743.386	8.13
743.704	8.3
744.023	8.23
744.341	8.36
744.66	8.61
744.978	8.7
745.297	8.81
745.615	8.81
745.933	8.77
746.252	8.72
746.57	8.68
746.888	8.44
747.206	8.58
747.524	8.51
747.842	8.24
748.16	7.95
748.478	7.94
748.796	7.91
749.114	8.13
749.432	8.06
749.749	8.31
750.067	8.32
750.385	8.36
750.703	8.45
751.02	8.35
751.338	8.33
751.655	8.69
751.973	8.75
752.29	8.45
752.608	8.53
752.925	8.55
753.242	8.63
753.56	8.71
753.877	8.49
754.194	8.42
754.511	8.55
754.828	8.69
755.145	8.57
755.462	8.75
755.779	8.57
756.096	8.71
756.413	8.74
756.73	8.91
757.047	8.55
757.364	8.37
757.68	8.54
757.997	8.43
758.314	8.2
758.63	8.16
758.947	8.44
759.264	8.22
759.58	8.14
759.896	8.24
760.213	8.18
760.529	8.32
760.846	8.7
761.162	8.64
761.478	8.53
761.794	8.52
762.11	8.49
762.426	8.54
762.743	8.61
763.059	8.42
763.375	8.53
763.69	8.88
764.006	9.18
764.322	8.98
764.638	8.98
764.954	9.21
765.27	8.95
765.585	8.84
765.901	8.97
766.216	9.01
766.532	8.82
766.848	8.87
767.163	8.91
767.478	8.8
767.794	8.89
768.109	8.93
768.424	9.09
768.74	9.15
769.055	9.03
769.37	9.18
769.685	9.07
770	9.08
770.315	8.91
770.63	8.5
770.945	8.5
771.26	8.72
771.575	8.74
771.89	8.89
772.205	8.87
772.52	8.89
772.834	8.7
773.149	9.22
773.464	9.23
773.778	9.34
774.093	9.08
774.407	9.31
774.722	9.77
775.036	9.7
775.351	9.81
775.665	10.13
775.979	9.69
776.293	9.93
776.608	9.82
776.922	9.64
777.236	9.81
777.55	10.1
777.864	9.86
778.178	9.56
778.492	10.12
778.806	9.94
779.12	9.78
779.434	9.95
779.747	9.71
780.061	10.1
780.375	10.08
780.689	10.25
781.002	10.2
781.316	9.73
781.629	9.8
781.943	9.44
782.256	9.43
782.57	9.63
782.883	9.65
783.196	9.51
783.51	9.8
783.823	9.7
784.136	9.63
784.449	9.82
784.762	9.91
785.075	9.43
785.388	9.77
785.701	10.08
786.014	9.89
786.327	9.62
786.64	9.67
786.953	9.53
787.266	9.42
787.578	9.23
787.891	9.49
788.204	9.44
788.516	9.6
788.829	9.81
789.141	10.35
789.454	10.38
789.766	10.5
790.079	10.38
790.391	10.67
790.703	10.6
791.016	10.41
791.328	10.54
791.64	10.4
791.952	10.4
792.264	10.08
792.576	10.51
792.888	10.86
793.2	10.6
793.512	10.63
793.824	10.78
794.136	10.91
794.448	10.64
794.76	10.23
795.071	10.21
795.383	9.36
795.695	8.89
796.006	8.95
796.318	9.16
796.629	9.54
796.941	9.52
797.252	9.54
797.564	9.53
797.875	9.21
798.186	9.44
798.497	9.46
798.809	9.62
799.12	9.32
799.431	9.44
799.742	9.43
800.053	9.92
800.364	9.9
800.675	10.02
800.986	10.14
801.297	10.81
801.608	10.36
801.918	10.82
802.229	11
802.54	11.06
802.851	10.62
803.161	10.32
803.472	10.38
803.782	11.06
804.093	11.15
804.403	11.04
804.714	11.35
805.024	11.49
805.334	11.8
805.645	11.76
805.955	11.56
806.265	11.97
806.575	11.45
806.885	11.41
807.195	11.1
807.505	11.71
807.815	11.38
808.125	11.92
808.435	11.69
808.745	11.67
809.055	11.45
809.365	11.97
809.674	11.75
809.984	12.12
810.294	11.67
810.603	12.17
810.913	12.49
811.222	12.6
811.532	12.06
811.841	11.89
812.151	12.36
812.46	12.07
812.769	11.06
813.079	10.62
813.388	10.33
813.697	10.58
814.006	10.11
814.315	10.23
814.624	10.04
814.933	10.28
815.242	10.05
815.551	10.7
815.86	10.69
816.169	11.1
816.478	10.62
816.786	10.5
817.095	9.95
817.404	10.13
817.712	9.75
818.021	10.31
818.33	10.91
818.638	11.08
818.947	11.7
819.255	12.24
819.563	12.63
819.872	12.79
820.18	12.57
820.488	12.55
820.796	12.66
821.105	12.4
821.413	12.43
821.721	12.33
822.029	12.15
822.337	11.96
822.645	11.8
822.953	11.67
823.26	11.68
823.568	11.63
823.876	11.71
824.184	11.83
824.491	11.93
824.799	11.76
825.107	11.74
825.414	11.85
825.722	11.94
826.029	11.85
826.337	11.97
826.644	12.03
826.951	11.85
827.259	11.6
827.566	11.68
827.873	11.63
828.18	11.72
828.488	11.76
828.795	11.97
829.102	12.22
829.409	12.68
829.716	12.59
830.023	12.62
830.329	12.64
830.636	12.36
830.943	12.36
831.25	12.35
831.557	12.26
831.863	11.78
832.17	11.35
832.476	11.31
832.783	11.32
833.089	11.1
833.396	11.6
833.702	11.96
834.009	12.2
834.315	12.42
834.621	12.51
834.928	12.65
835.234	12.34
835.54	11.86
835.846	11.51
836.152	11.63
836.458	12.3
836.764	12.16
837.07	11.89
837.376	11.29
837.682	11.33
837.988	10.88
838.293	10.55
838.599	11.05
838.905	11.34
839.211	10.54
839.516	10.43
839.822	9.7
840.127	9.28
840.433	9.42
840.738	8.5
841.044	8.14
841.349	7.35
841.654	6.82
841.959	7.49
842.265	6.82
842.57	7.63
842.875	6.42
843.18	6.6
843.485	8.25
843.79	9.12
844.095	8.91
844.4	10.06
844.705	8.85
845.01	8.36
845.315	8.33
845.619	8.95
845.924	10.43
846.229	11
846.533	10.9
846.838	9.35
847.142	9.97
847.447	9.29
847.751	10.04
848.056	10.34
848.36	11.63
848.664	11.42
848.969	11.65
849.273	10.76
849.577	11.29
849.881	10.4
850.185	11.31
850.489	11.07
850.794	10.61
851.097	12.33
851.401	11.56
851.705	10.24
852.009	11.86
852.313	9.55
852.617	7.8
852.92	10.39
853.224	11.32
853.528	12.72
853.831	12.1
854.135	11.99
854.438	12.63
854.742	10.68
855.045	11.43
855.349	8.66
855.652	7.22
855.955	7.28
856.259	7.12
856.562	6.08
856.865	7.14
857.168	7.6
857.471	8.88
857.774	10.46
858.077	9.97
858.38	7.6
858.683	8.79
858.986	11.73
859.289	9.85
859.592	11.6
859.894	11
860.197	12.05
860.5	12.09
860.802	12.72
861.105	14.06
861.407	13.71
861.71	15.82
862.012	18.32
862.315	17.15
862.617	17.14
862.919	15.94
863.222	16.1
863.524	14.89
863.826	15.91
864.128	15.69
864.43	17.04
864.732	18.29
865.034	18.09
865.336	17.64
865.638	17.4
865.94	13.96
866.242	14.6
866.544	14.55
866.846	14.41
867.147	13.73
867.449	13.52
867.751	15.46
868.052	13.94
868.354	13
868.655	14.09
868.957	13.5
869.258	14.48
869.56	13.36
869.861	13.01
870.162	10.55
870.463	12.24
870.765	12.46
871.066	11.95
871.367	11.51
871.668	11.33
871.969	10.33
872.27	12.21
872.571	10.58
872.872	12.71
873.173	10.4
873.473	10.3
873.774	9.9
874.075	8.36
874.376	7.41
874.676	8.73
874.977	6.67
875.277	7.6
875.578	7.42
875.878	7.42
876.179	8.61
876.479	9.82
876.78	7.05
877.08	6.67
877.38	6.03
877.68	6.74
877.981	5.76
878.281	7.38
878.581	7.95
