Data from BA57890_Reflection_00001.txt Node
Date: Mon Nov 18 15:05:42 EST 2019
User: vgr7
Spectrometer: USB2G7710
Scans to average: 3
Trigger mode: 4
Integration Time (sec): 2.000000E-2
Electric dark correction enabled: true
Boxcar width: 10
XAxis mode: Wavelengths
Number of Pixels in Spectrum: 2048
>>>>>Begin Spectral Data<<<<<
177.721	-60.39
178.105	35.96
178.488	30.28
178.871	0.95
179.254	28.21
179.636	-191.44
180.019	-202.17
180.402	278.57
180.785	114.93
181.168	-52.99
181.55	-45.13
181.933	57.53
182.316	114.42
182.698	83.96
183.081	103.86
183.463	158.53
183.846	147.92
184.228	173.7
184.611	156.83
184.993	173.71
185.376	91.63
185.758	110.37
186.14	178.98
186.522	135.31
186.904	109.51
187.287	124.84
187.669	151.83
188.051	213.96
188.433	493.73
188.815	-4319.35
189.197	-150.24
189.579	-450.77
189.961	-462.33
190.342	-5386.49
190.724	-2092.66
191.106	589.74
191.488	417.19
191.869	406.36
192.251	217.97
192.633	1776.06
193.014	215.14
193.396	161.26
193.777	95.9
194.159	133.87
194.54	218.57
194.922	188.36
195.303	232.84
195.684	142.29
196.065	107.08
196.447	82.65
196.828	60.07
197.209	46.28
197.59	53.53
197.971	52.44
198.352	27.94
198.733	-22.74
199.114	-40.27
199.495	297.45
199.876	7.12
200.257	43.07
200.638	87.28
201.018	64.58
201.399	63.16
201.78	79.47
202.16	123.39
202.541	224.02
202.922	226.52
203.302	450.13
203.683	348.9
204.063	231.26
204.444	117.28
204.824	85.54
205.204	90.2
205.585	84.47
205.965	69.19
206.345	45.2
206.725	48.61
207.106	55.42
207.486	75.93
207.866	74.09
208.246	-284.62
208.626	4.56
209.006	35.85
209.386	87.16
209.766	148.63
210.145	-81.69
210.525	-37.41
210.905	-42.65
211.285	-70.41
211.664	-75.08
212.044	-63.81
212.424	-110.38
212.803	-75.07
213.183	-69.47
213.562	-93.2
213.942	-69.28
214.321	-42.42
214.701	-57.65
215.08	-40.41
215.459	-32
215.838	-19.44
216.218	-31.1
216.597	-17.14
216.976	-12.72
217.355	-9.85
217.734	-0.82
218.113	16.68
218.492	12.11
218.871	12.65
219.25	24.5
219.629	20.33
220.008	11.74
220.387	25
220.766	19.59
221.144	17.25
221.523	12.67
221.902	13.35
222.28	12.04
222.659	26.18
223.037	14.06
223.416	-1.29
223.794	4.91
224.173	7.96
224.551	6.33
224.929	0.71
225.308	6.9
225.686	3.38
226.064	-2.89
226.442	1.24
226.821	8.37
227.199	10.23
227.577	9.35
227.955	7.79
228.333	5.48
228.711	5.26
229.089	6.29
229.467	6.07
229.845	7.14
230.222	5.67
230.6	1.84
230.978	3.78
231.356	7.59
231.733	6.48
232.111	6.78
232.488	7.85
232.866	8.82
233.243	10.04
233.621	9.31
233.998	8.92
234.376	8.38
234.753	5.75
235.13	4.66
235.508	5.62
235.885	7.18
236.262	6.19
236.639	6.2
237.016	5.31
237.393	5.75
237.77	5.14
238.147	5.78
238.524	7.2
238.901	6.63
239.278	6.27
239.655	6.61
240.032	5.59
240.409	5.5
240.785	5.24
241.162	4.94
241.539	5.34
241.915	5.28
242.292	4.96
242.668	5.12
243.045	5.17
243.421	5.19
243.798	5.08
244.174	5.36
244.551	5.82
244.927	5.93
245.303	6.19
245.679	6.4
246.056	6.25
246.432	6.03
246.808	6.17
247.184	6.07
247.56	5.95
247.936	6.27
248.312	6.26
248.688	6.22
249.064	6.23
249.44	6.03
249.815	6.19
250.191	6.26
250.567	6.29
250.943	6.24
251.318	6.43
251.694	6.59
252.069	6.38
252.445	6.1
252.82	5.98
253.196	5.59
253.571	5.45
253.947	5.53
254.322	5.54
254.697	5.37
255.073	5.2
255.448	5.25
255.823	5.34
256.198	5.32
256.573	5.33
256.948	5.39
257.323	5.64
257.698	5.57
258.073	5.75
258.448	5.69
258.823	5.69
259.198	5.44
259.573	5.4
259.948	5.5
260.322	5.53
260.697	5.49
261.072	5.63
261.446	5.57
261.821	5.45
262.195	5.41
262.57	5.35
262.944	5.52
263.319	5.46
263.693	5.3
264.067	5.24
264.442	5.25
264.816	5.06
265.19	4.88
265.564	4.79
265.938	4.56
266.313	4.64
266.687	4.67
267.061	4.84
267.435	4.84
267.809	4.7
268.183	4.79
268.556	4.62
268.93	4.46
269.304	4.78
269.678	4.98
270.051	4.98
270.425	4.98
270.799	4.73
271.172	4.63
271.546	4.66
271.919	4.68
272.293	4.76
272.666	5.03
273.04	5.23
273.413	5.35
273.787	5.48
274.16	5.39
274.533	5.33
274.906	5.26
275.279	5.19
275.653	5.27
276.026	5.01
276.399	5.14
276.772	5.23
277.145	4.86
277.518	4.91
277.891	5.02
278.263	5.01
278.636	5.21
279.009	5.32
279.382	5.34
279.755	5.28
280.127	5.38
280.5	5.29
280.872	5.28
281.245	5.28
281.617	5.32
281.99	5.47
282.362	5.53
282.735	5.4
283.107	5.38
283.479	5.47
283.852	5.65
284.224	5.66
284.596	5.72
284.968	5.84
285.34	5.9
285.713	5.83
286.085	5.91
286.457	5.98
286.829	6.04
287.201	6.06
287.572	6.14
287.944	6.13
288.316	6.04
288.688	5.93
289.06	5.76
289.431	5.75
289.803	5.64
290.175	5.76
290.546	6
290.918	6.13
291.289	6.08
291.661	6.16
292.032	6.28
292.403	6.26
292.775	6.27
293.146	6.1
293.517	6.2
293.889	6.32
294.26	6.37
294.631	6.5
295.002	6.55
295.373	6.56
295.744	6.63
296.115	6.67
296.486	6.7
296.857	6.87
297.228	6.87
297.599	7
297.97	6.82
298.34	6.85
298.711	6.88
299.082	6.95
299.452	6.98
299.823	7.05
300.194	7.11
300.564	7.1
300.935	7.3
301.305	7.22
301.676	7.19
302.046	7.16
302.416	7.19
302.787	7.22
303.157	7.19
303.527	7.13
303.897	7.24
304.267	7.36
304.637	7.35
305.008	7.47
305.378	7.53
305.748	7.66
306.117	7.67
306.487	7.6
306.857	7.64
307.227	7.66
307.597	7.64
307.967	7.71
308.336	7.78
308.706	7.72
309.076	7.79
309.445	7.74
309.815	7.74
310.184	7.65
310.554	7.65
310.923	7.76
311.293	7.75
311.662	7.79
312.031	7.81
312.401	7.91
312.77	7.81
313.139	7.83
313.508	7.98
313.877	7.87
314.246	7.97
314.616	8
314.985	7.99
315.353	7.88
315.722	7.93
316.091	7.85
316.46	7.81
316.829	7.96
317.198	8.03
317.567	8.04
317.935	8.12
318.304	8.16
318.672	8.01
319.041	8.12
319.41	8.09
319.778	8.01
320.147	7.99
320.515	7.88
320.883	7.69
321.252	7.65
321.62	7.72
321.988	7.72
322.357	7.71
322.725	7.65
323.093	7.79
323.461	7.78
323.829	8.05
324.197	7.99
324.565	7.8
324.933	7.69
325.301	7.67
325.669	7.51
326.037	7.55
326.405	7.56
326.772	7.54
327.14	7.52
327.508	7.51
327.875	7.37
328.243	7.49
328.61	7.56
328.978	7.53
329.346	7.51
329.713	7.44
330.08	7.49
330.448	7.37
330.815	7.26
331.182	7.3
331.55	7.18
331.917	7.29
332.284	7.3
332.651	7.3
333.018	7.47
333.385	7.56
333.752	7.66
334.119	7.73
334.486	7.58
334.853	7.52
335.22	7.48
335.587	7.58
335.954	7.62
336.32	7.72
336.687	7.82
337.054	7.89
337.42	7.88
337.787	7.95
338.153	7.92
338.52	8.11
338.886	7.97
339.253	7.97
339.619	8.01
339.986	8.02
340.352	8.11
340.718	8.02
341.084	7.96
341.451	7.79
341.817	7.78
342.183	7.89
342.549	7.98
342.915	7.98
343.281	8.01
343.647	7.87
344.013	7.81
344.379	7.61
344.745	7.64
345.11	7.67
345.476	7.67
345.842	7.83
346.208	7.69
346.573	7.72
346.939	7.74
347.304	7.62
347.67	7.63
348.035	7.69
348.401	7.68
348.766	7.68
349.132	7.7
349.497	7.68
349.862	7.75
350.228	7.68
350.593	7.68
350.958	7.67
351.323	7.76
351.688	7.73
352.053	7.87
352.418	7.87
352.783	7.84
353.148	7.76
353.513	7.72
353.878	7.77
354.243	7.85
354.608	7.85
354.972	7.87
355.337	7.89
355.702	7.9
356.066	7.9
356.431	7.95
356.795	8.06
357.16	8.04
357.524	7.95
357.889	7.96
358.253	8.07
358.618	8.07
358.982	8.03
359.346	8.02
359.71	7.96
360.075	7.89
360.439	7.91
360.803	7.88
361.167	7.83
361.531	7.84
361.895	7.79
362.259	7.77
362.623	7.83
362.987	7.94
363.351	7.92
363.714	7.97
364.078	7.96
364.442	7.9
364.806	7.93
365.169	7.99
365.533	8.01
365.896	7.96
366.26	7.9
366.623	7.93
366.987	8
367.35	8.06
367.714	8.12
368.077	8.07
368.44	8.07
368.803	8.15
369.167	8.02
369.53	7.98
369.893	7.97
370.256	7.96
370.619	7.88
370.982	7.77
371.345	7.72
371.708	7.73
372.071	7.75
372.434	7.77
372.797	7.71
373.159	7.7
373.522	7.73
373.885	7.8
374.247	7.85
374.61	7.77
374.973	7.73
375.335	7.63
375.698	7.7
376.06	7.73
376.423	7.7
376.785	7.84
377.147	7.9
377.51	7.91
377.872	7.95
378.234	7.95
378.596	8.04
378.958	8.02
379.321	8.01
379.683	8.03
380.045	8.01
380.407	8.02
380.769	8.02
381.13	7.99
381.492	7.98
381.854	7.99
382.216	8.02
382.578	8.04
382.939	8.11
383.301	8.11
383.663	8.1
384.024	8.17
384.386	8.18
384.747	8.19
385.109	8.23
385.47	8.19
385.832	8.19
386.193	8.21
386.554	8.19
386.916	8.19
387.277	8.16
387.638	8.18
387.999	8.22
388.36	8.23
388.721	8.27
389.082	8.26
389.443	8.2
389.804	8.19
390.165	8.21
390.526	8.22
390.887	8.21
391.248	8.24
391.609	8.2
391.969	8.19
392.33	8.17
392.691	8.13
393.051	8.12
393.412	8.11
393.772	8.09
394.133	8.11
394.493	8.16
394.854	8.17
395.214	8.18
395.574	8.18
395.935	8.15
396.295	8.14
396.655	8.12
397.015	8.13
397.376	8.15
397.736	8.17
398.096	8.18
398.456	8.18
398.816	8.17
399.176	8.14
399.535	8.13
399.895	8.12
400.255	8.17
400.615	8.16
400.975	8.18
401.334	8.14
401.694	8.14
402.054	8.08
402.413	8.12
402.773	8.1
403.132	8.06
403.492	8.1
403.851	8.11
404.211	8.13
404.57	8.11
404.929	8.11
405.288	8.07
405.648	8.05
406.007	8.05
406.366	8.05
406.725	8.08
407.084	8.08
407.443	8.1
407.802	8.12
408.161	8.14
408.52	8.14
408.879	8.17
409.238	8.16
409.596	8.19
409.955	8.14
410.314	8.18
410.673	8.19
411.031	8.18
411.39	8.19
411.748	8.19
412.107	8.23
412.465	8.23
412.824	8.22
413.182	8.21
413.54	8.21
413.899	8.21
414.257	8.2
414.615	8.2
414.974	8.21
415.332	8.19
415.69	8.2
416.048	8.16
416.406	8.14
416.764	8.16
417.122	8.16
417.48	8.18
417.838	8.14
418.195	8.15
418.553	8.14
418.911	8.12
419.269	8.14
419.626	8.14
419.984	8.15
420.342	8.17
420.699	8.17
421.057	8.18
421.414	8.18
421.772	8.18
422.129	8.17
422.486	8.18
422.844	8.18
423.201	8.16
423.558	8.18
423.915	8.21
424.273	8.22
424.63	8.21
424.987	8.22
425.344	8.23
425.701	8.23
426.058	8.23
426.415	8.24
426.772	8.23
427.128	8.25
427.485	8.26
427.842	8.26
428.199	8.28
428.555	8.29
428.912	8.3
429.269	8.32
429.625	8.3
429.982	8.31
430.338	8.34
430.695	8.36
431.051	8.35
431.407	8.34
431.764	8.32
432.12	8.32
432.476	8.31
432.832	8.31
433.189	8.33
433.545	8.33
433.901	8.34
434.257	8.32
434.613	8.3
434.969	8.29
435.325	8.28
435.681	8.27
436.036	8.25
436.392	8.25
436.748	8.23
437.104	8.24
437.459	8.21
437.815	8.19
438.171	8.19
438.526	8.2
438.882	8.2
439.237	8.21
439.593	8.21
439.948	8.22
440.304	8.23
440.659	8.22
441.014	8.24
441.369	8.22
441.725	8.22
442.08	8.23
442.435	8.22
442.79	8.24
443.145	8.25
443.5	8.24
443.855	8.23
444.21	8.23
444.565	8.25
444.92	8.26
445.275	8.24
445.629	8.22
445.984	8.24
446.339	8.24
446.693	8.22
447.048	8.22
447.403	8.2
447.757	8.19
448.112	8.19
448.466	8.17
448.82	8.2
449.175	8.19
449.529	8.18
449.883	8.17
450.238	8.17
450.592	8.16
450.946	8.15
451.3	8.16
451.654	8.19
452.008	8.16
452.362	8.17
452.716	8.16
453.07	8.18
453.424	8.16
453.778	8.16
454.132	8.17
454.486	8.17
454.839	8.18
455.193	8.16
455.547	8.18
455.9	8.17
456.254	8.16
456.607	8.18
456.961	8.17
457.314	8.17
457.668	8.16
458.021	8.15
458.375	8.16
458.728	8.14
459.081	8.12
459.434	8.13
459.787	8.13
460.141	8.14
460.494	8.15
460.847	8.15
461.2	8.15
461.553	8.19
461.906	8.2
462.259	8.2
462.611	8.21
462.964	8.22
463.317	8.24
463.67	8.24
464.022	8.25
464.375	8.29
464.728	8.3
465.08	8.32
465.433	8.34
465.785	8.37
466.138	8.39
466.49	8.39
466.843	8.39
467.195	8.41
467.547	8.43
467.899	8.43
468.252	8.42
468.604	8.44
468.956	8.4
469.308	8.4
469.66	8.39
470.012	8.43
470.364	8.43
470.716	8.43
471.068	8.44
471.42	8.47
471.772	8.46
472.123	8.48
472.475	8.5
472.827	8.51
473.178	8.49
473.53	8.51
473.882	8.53
474.233	8.55
474.585	8.55
474.936	8.56
475.288	8.56
475.639	8.57
475.99	8.57
476.342	8.58
476.693	8.57
477.044	8.58
477.395	8.57
477.746	8.57
478.097	8.55
478.448	8.53
478.8	8.49
479.15	8.49
479.501	8.49
479.852	8.49
480.203	8.51
480.554	8.52
480.905	8.53
481.255	8.52
481.606	8.53
481.957	8.54
482.307	8.55
482.658	8.54
483.009	8.53
483.359	8.54
483.709	8.54
484.06	8.54
484.41	8.56
484.761	8.57
485.111	8.56
485.461	8.57
485.811	8.57
486.162	8.57
486.512	8.58
486.862	8.57
487.212	8.56
487.562	8.55
487.912	8.55
488.262	8.54
488.612	8.55
488.961	8.55
489.311	8.56
489.661	8.55
490.011	8.55
490.36	8.56
490.71	8.56
491.06	8.56
491.409	8.57
491.759	8.55
492.108	8.56
492.458	8.55
492.807	8.55
493.157	8.56
493.506	8.59
493.855	8.58
494.204	8.6
494.554	8.6
494.903	8.6
495.252	8.59
495.601	8.61
495.95	8.6
496.299	8.58
496.648	8.56
496.997	8.55
497.346	8.58
497.695	8.59
498.043	8.59
498.392	8.58
498.741	8.57
499.09	8.57
499.438	8.56
499.787	8.57
500.135	8.57
500.484	8.58
500.832	8.57
501.181	8.58
501.529	8.6
501.878	8.59
502.226	8.62
502.574	8.64
502.923	8.63
503.271	8.63
503.619	8.61
503.967	8.63
504.315	8.66
504.663	8.65
505.011	8.65
505.359	8.64
505.707	8.65
506.055	8.64
506.403	8.65
506.751	8.62
507.098	8.62
507.446	8.62
507.794	8.62
508.141	8.62
508.489	8.65
508.837	8.65
509.184	8.67
509.531	8.64
509.879	8.66
510.226	8.66
510.574	8.67
510.921	8.69
511.268	8.67
511.616	8.67
511.963	8.67
512.31	8.67
512.657	8.69
513.004	8.71
513.351	8.76
513.698	8.78
514.045	8.8
514.392	8.83
514.739	8.86
515.086	8.85
515.432	8.86
515.779	8.83
516.126	8.84
516.473	8.84
516.819	8.87
517.166	8.86
517.512	8.89
517.859	8.89
518.205	8.9
518.552	8.92
518.898	8.92
519.245	8.9
519.591	8.88
519.937	8.87
520.283	8.86
520.629	8.85
520.976	8.83
521.322	8.83
521.668	8.81
522.014	8.78
522.36	8.8
522.706	8.81
523.052	8.83
523.398	8.85
523.743	8.88
524.089	8.88
524.435	8.87
524.781	8.87
525.126	8.87
525.472	8.89
525.817	8.89
526.163	8.91
526.509	8.94
526.854	8.96
527.199	8.97
527.545	8.98
527.89	8.98
528.235	9
528.581	9.02
528.926	9.02
529.271	9.03
529.616	9.03
529.961	9.02
530.306	9.02
530.651	9
530.996	9
531.341	9.01
531.686	9.01
532.031	9.02
532.376	9.03
532.721	9.03
533.065	9.03
533.41	9.03
533.755	9.03
534.099	9.02
534.444	9.03
534.788	9.02
535.133	9.01
535.477	9.01
535.822	8.99
536.166	9.01
536.51	9.03
536.855	9.04
537.199	9.05
537.543	9.04
537.887	9.04
538.231	9.05
538.576	9.05
538.92	9.06
539.264	9.06
539.608	9.05
539.951	9.03
540.295	9.03
540.639	9.04
540.983	9.03
541.327	9.04
541.671	9.04
542.014	9.04
542.358	9.05
542.701	9.06
543.045	9.07
543.389	9.05
543.732	9.04
544.075	9.03
544.419	9.03
544.762	9.04
545.105	9.06
545.449	9.05
545.792	9.06
546.135	9.05
546.478	9.04
546.821	9.04
547.165	9.06
547.508	9.07
547.851	9.06
548.194	9.05
548.536	9.03
548.879	9.07
549.222	9.09
549.565	9.12
549.908	9.13
550.25	9.15
550.593	9.2
550.936	9.2
551.278	9.15
551.621	9.15
551.963	9.16
552.306	9.14
552.648	9.13
552.991	9.15
553.333	9.12
553.675	9.12
554.017	9.14
554.36	9.15
554.702	9.16
555.044	9.17
555.386	9.18
555.728	9.18
556.07	9.16
556.412	9.11
556.754	9.1
557.096	9.06
557.438	9.05
557.78	9.02
558.121	9.05
558.463	9.11
558.805	9.13
559.147	9.15
559.488	9.14
559.83	9.2
560.171	9.18
560.513	9.22
560.854	9.24
561.196	9.25
561.537	9.24
561.878	9.25
562.22	9.29
562.561	9.3
562.902	9.33
563.243	9.32
563.584	9.33
563.925	9.33
564.266	9.35
564.607	9.34
564.948	9.35
565.289	9.32
565.63	9.33
565.971	9.31
566.312	9.3
566.653	9.32
566.993	9.31
567.334	9.31
567.675	9.3
568.015	9.29
568.356	9.27
568.696	9.3
569.037	9.27
569.377	9.24
569.718	9.24
570.058	9.23
570.398	9.22
570.739	9.24
571.079	9.25
571.419	9.24
571.759	9.23
572.099	9.2
572.439	9.23
572.779	9.22
573.119	9.24
573.459	9.28
573.799	9.3
574.139	9.27
574.479	9.25
574.819	9.27
575.158	9.27
575.498	9.27
575.838	9.24
576.177	9.24
576.517	9.28
576.856	9.26
577.196	9.28
577.535	9.29
577.875	9.31
578.214	9.28
578.553	9.32
578.893	9.38
579.232	9.41
579.571	9.44
579.91	9.42
580.25	9.39
580.589	9.35
580.928	9.32
581.267	9.38
581.606	9.38
581.945	9.36
582.283	9.33
582.622	9.34
582.961	9.36
583.3	9.39
583.639	9.36
583.977	9.39
584.316	9.38
584.654	9.36
584.993	9.35
585.332	9.39
585.67	9.35
586.008	9.33
586.347	9.35
586.685	9.33
587.024	9.32
587.362	9.35
587.7	9.36
588.038	9.4
588.376	9.37
588.715	9.37
589.053	9.42
589.391	9.44
589.729	9.47
590.067	9.48
590.404	9.45
590.742	9.48
591.08	9.45
591.418	9.43
591.756	9.47
592.093	9.48
592.431	9.48
592.769	9.48
593.106	9.45
593.444	9.4
593.781	9.4
594.119	9.45
594.456	9.43
594.793	9.43
595.131	9.42
595.468	9.42
595.805	9.41
596.143	9.44
596.48	9.47
596.817	9.45
597.154	9.44
597.491	9.49
597.828	9.48
598.165	9.49
598.502	9.52
598.839	9.52
599.176	9.48
599.512	9.45
599.849	9.45
600.186	9.47
600.523	9.53
600.859	9.54
601.196	9.52
601.532	9.49
601.869	9.5
602.205	9.51
602.542	9.53
602.878	9.52
603.215	9.45
603.551	9.44
603.887	9.43
604.223	9.45
604.56	9.45
604.896	9.45
605.232	9.48
605.568	9.47
605.904	9.48
606.24	9.53
606.576	9.56
606.912	9.6
607.248	9.61
607.583	9.63
607.919	9.63
608.255	9.63
608.591	9.68
608.926	9.72
609.262	9.76
609.597	9.74
609.933	9.79
610.268	9.87
610.604	9.86
610.939	9.89
611.275	9.89
611.61	9.9
611.945	9.93
612.281	9.93
612.616	9.95
612.951	9.96
613.286	9.95
613.621	9.92
613.956	9.89
614.291	9.89
614.626	9.86
614.961	9.84
615.296	9.82
615.631	9.81
615.966	9.79
616.3	9.72
616.635	9.76
616.97	9.77
617.304	9.7
617.639	9.76
617.973	9.73
618.308	9.72
618.642	9.7
618.977	9.61
619.311	9.6
619.646	9.59
619.98	9.54
620.314	9.56
620.648	9.59
620.983	9.62
621.317	9.66
621.651	9.64
621.985	9.68
622.319	9.74
622.653	9.75
622.987	9.77
623.321	9.76
623.655	9.72
623.988	9.74
624.322	9.79
624.656	9.77
624.99	9.78
625.323	9.8
625.657	9.8
625.99	9.86
626.324	9.83
626.657	9.82
626.991	9.87
627.324	9.86
627.658	9.87
627.991	9.91
628.324	9.91
628.657	9.89
628.991	9.9
629.324	9.91
629.657	9.94
629.99	9.89
630.323	9.88
630.656	9.94
630.989	9.93
631.322	9.87
631.655	9.91
631.987	9.92
632.32	9.92
632.653	9.9
632.986	9.88
633.318	9.89
633.651	9.9
633.984	9.83
634.316	9.89
634.649	9.93
634.981	9.85
635.313	9.84
635.646	9.85
635.978	9.85
636.31	9.84
636.643	9.84
636.975	9.83
637.307	9.89
637.639	9.83
637.971	9.86
638.303	9.9
638.635	9.83
638.967	9.82
639.299	9.86
639.631	9.96
639.963	9.97
640.295	9.99
640.626	10.07
640.958	10.14
641.29	10.14
641.621	10.04
641.953	10.06
642.285	10
642.616	10.11
642.948	10.09
643.279	10.09
643.61	10.07
643.942	10.11
644.273	10.15
644.604	10.22
644.936	10.14
645.267	10.08
645.598	10.09
645.929	10.09
646.26	10.12
646.591	10.09
646.922	10.07
647.253	10.15
647.584	10.1
647.915	10.08
648.245	9.99
648.576	10.04
648.907	10.07
649.238	10.12
649.568	10.02
649.899	9.99
650.229	9.95
650.56	9.96
650.89	9.97
651.221	9.99
651.551	9.97
651.882	9.98
652.212	10.1
652.542	10.07
652.872	10.14
653.203	10.02
653.533	10
653.863	10.05
654.193	9.97
654.523	9.94
654.853	9.98
655.183	10.05
655.513	10.1
655.843	10.07
656.172	10.1
656.502	10.1
656.832	10.14
657.162	10.3
657.491	10.3
657.821	10.32
658.15	10.24
658.48	10.24
658.809	10.29
659.139	10.3
659.468	10.34
659.798	10.27
660.127	10.37
660.456	10.42
660.785	10.4
661.115	10.45
661.444	10.48
661.773	10.53
662.102	10.54
662.431	10.52
662.76	10.55
663.089	10.54
663.418	10.56
663.747	10.55
664.076	10.38
664.404	10.37
664.733	10.35
665.062	10.38
665.39	10.44
665.719	10.33
666.048	10.29
666.376	10.28
666.705	10.29
667.033	10.28
667.362	10.28
667.69	10.26
668.018	10.22
668.347	10.21
668.675	10.21
669.003	10.24
669.331	10.36
669.659	10.32
669.987	10.33
670.315	10.36
670.643	10.39
670.971	10.48
671.299	10.52
671.627	10.48
671.955	10.48
672.283	10.4
672.61	10.46
672.938	10.46
673.266	10.51
673.593	10.63
673.921	10.66
674.249	10.63
674.576	10.6
674.904	10.64
675.231	10.68
675.558	10.66
675.886	10.63
676.213	10.5
676.54	10.55
676.867	10.59
677.195	10.62
677.522	10.63
677.849	10.69
678.176	10.66
678.503	10.63
678.83	10.63
679.157	10.65
679.484	10.71
679.81	10.72
680.137	10.67
680.464	10.63
680.791	10.59
681.117	10.58
681.444	10.64
681.771	10.64
682.097	10.64
682.424	10.61
682.75	10.59
683.077	10.58
683.403	10.59
683.729	10.52
684.056	10.49
684.382	10.44
684.708	10.32
685.034	10.34
685.36	10.44
685.686	10.44
686.012	10.41
686.339	10.33
686.664	10.37
686.99	10.4
687.316	10.44
687.642	10.44
687.968	10.48
688.294	10.5
688.619	10.57
688.945	10.56
689.271	10.48
689.596	10.45
689.922	10.52
690.247	10.48
690.573	10.47
690.898	10.54
691.224	10.61
691.549	10.67
691.874	10.61
692.2	10.65
692.525	10.72
692.85	10.83
693.175	10.86
693.5	10.86
693.825	10.9
694.15	10.86
694.475	10.83
694.8	10.81
695.125	10.82
695.45	10.79
695.775	10.8
696.099	10.85
696.424	10.88
696.749	10.84
697.073	10.93
697.398	10.95
697.723	10.84
698.047	10.78
698.372	10.73
698.696	10.82
699.02	10.8
699.345	10.75
699.669	10.77
699.993	10.82
700.318	10.84
700.642	10.76
700.966	10.73
701.29	10.77
701.614	10.77
701.938	10.71
702.262	10.66
702.586	10.6
702.91	10.62
703.234	10.68
703.557	10.77
703.881	10.73
704.205	10.76
704.529	10.8
704.852	10.83
705.176	10.93
705.499	10.88
705.823	10.98
706.146	10.84
706.47	10.76
706.793	10.76
707.117	10.78
707.44	10.86
707.763	10.96
708.086	10.89
708.409	10.86
708.733	10.9
709.056	10.9
709.379	11.14
709.702	11.21
710.025	11.09
710.348	11.03
710.671	10.93
710.993	10.92
711.316	10.97
711.639	11.09
711.962	11.04
712.284	11.04
712.607	11.05
712.93	11.31
713.252	11.32
713.575	11.3
713.897	11.18
714.22	11.14
714.542	11.09
714.864	10.97
715.187	11.18
715.509	11.18
715.831	11.23
716.153	11.14
716.475	11.08
716.798	11.28
717.12	11.27
717.442	11.3
717.764	11.36
718.085	11.45
718.407	11.42
718.729	11.5
719.051	11.47
719.373	11.25
719.695	11.05
720.016	11.2
720.338	11.25
720.659	11.33
720.981	11.29
721.302	11.23
721.624	11.38
721.945	11.2
722.267	11.37
722.588	11.29
722.909	11.22
723.231	11.2
723.552	11.22
723.873	11.23
724.194	11.18
724.515	11.13
724.836	11.04
725.157	11.06
725.478	11.07
725.799	11.18
726.12	11.26
726.441	11.43
726.762	11.44
727.083	11.31
727.403	11.48
727.724	11.72
728.045	11.91
728.365	11.95
728.686	11.89
729.006	11.96
729.327	11.91
729.647	12.04
729.967	12.17
730.288	12.08
730.608	11.99
730.928	12.21
731.249	12.14
731.569	12.3
731.889	12.2
732.209	12.08
732.529	12.08
732.849	12.16
733.169	12.15
733.489	12.12
733.809	12.18
734.129	12.1
734.448	11.87
734.768	11.75
735.088	11.8
735.408	11.95
735.727	11.96
736.047	12.04
736.366	11.89
736.686	11.87
737.005	11.92
737.325	11.91
737.644	11.8
737.963	11.89
738.283	11.57
738.602	11.58
738.921	11.67
739.24	11.68
739.56	11.64
739.879	11.62
740.198	11.38
740.517	11.4
740.836	11.26
741.155	11.53
741.473	11.55
741.792	11.44
742.111	11.4
742.43	11.05
742.748	10.88
743.067	10.92
743.386	10.86
743.704	10.64
744.023	10.72
744.341	10.74
744.66	11.05
744.978	11.18
745.297	11.08
745.615	11.06
745.933	11.17
746.252	11.27
746.57	11.29
746.888	11.46
747.206	11.49
747.524	11.53
747.842	11.47
748.16	11.65
748.478	11.81
748.796	11.72
749.114	12
749.432	12.24
749.749	12.22
750.067	12.24
750.385	12.19
750.703	12.12
751.02	12.09
751.338	11.98
751.655	12.16
751.973	12.42
752.29	12.35
752.608	12.11
752.925	12.09
753.242	11.87
753.56	11.77
753.877	11.86
754.194	12.02
754.511	11.81
754.828	11.59
755.145	11.5
755.462	11.42
755.779	11.41
756.096	11.43
756.413	11.36
756.73	11.52
757.047	11.67
757.364	11.74
757.68	11.78
757.997	11.64
758.314	11.36
758.63	11.16
758.947	11.23
759.264	11.14
759.58	11.14
759.896	11.22
760.213	11.38
760.529	11.39
760.846	11.17
761.162	11.31
761.478	11.43
761.794	11.65
762.11	11.54
762.426	11.69
762.743	11.73
763.059	11.88
763.375	11.82
763.69	12.06
764.006	12.06
764.322	11.97
764.638	12.03
764.954	12.41
765.27	12.53
765.585	12.63
765.901	12.93
766.216	13.07
766.532	12.93
766.848	12.79
767.163	12.69
767.478	12.88
767.794	12.89
768.109	12.9
768.424	12.53
768.74	13.01
769.055	12.74
769.37	12.73
769.685	12.52
770	12.32
770.315	12.05
770.63	12.19
770.945	12.29
771.26	12.28
771.575	11.91
771.89	11.83
772.205	11.82
772.52	11.39
772.834	11.06
773.149	11.45
773.464	11.49
773.778	11.78
774.093	11.47
774.407	11.44
774.722	11.63
775.036	11.63
775.351	11.69
775.665	11.65
775.979	11.72
776.293	11.86
776.608	12.2
776.922	12.27
777.236	11.98
777.55	12.14
777.864	12.21
778.178	12.17
778.492	12.3
778.806	12.46
779.12	12.79
779.434	12.97
779.747	12.78
780.061	12.94
780.375	12.62
780.689	13.08
781.002	12.94
781.316	12.81
781.629	13.23
781.943	12.92
782.256	13.37
782.57	13.13
782.883	13.38
783.196	13.19
783.51	13.25
783.823	13.72
784.136	13.97
784.449	14.15
784.762	13.98
785.075	13.85
785.388	13.19
785.701	13.07
786.014	13.24
786.327	13.47
786.64	14.1
786.953	14.2
787.266	13.7
787.578	13.95
787.891	13.7
788.204	13.37
788.516	13.42
788.829	13.46
789.141	13.86
789.454	13.72
789.766	13.87
790.079	14.31
790.391	14.15
790.703	14.02
791.016	13.56
791.328	14.1
791.64	14.5
791.952	15.02
792.264	14.67
792.576	14.46
792.888	14.22
793.2	13.41
793.512	13.76
793.824	13.86
794.136	13.41
794.448	13.74
794.76	13.92
795.071	13.99
795.383	13.39
795.695	13.15
796.006	13.2
796.318	13.06
796.629	12.52
796.941	12
797.252	12.24
797.564	12.83
797.875	12.38
798.186	12.32
798.497	12.19
798.809	12.86
799.12	13.08
799.431	13.47
799.742	13.86
800.053	13.79
800.364	13.96
800.675	14.4
800.986	13.97
801.297	14.01
801.608	13.72
801.918	13.94
802.229	13.71
802.54	13.33
802.851	13.72
803.161	13.68
803.472	14.1
803.782	13.94
804.093	13.03
804.403	13.12
804.714	12.91
805.024	12.17
805.334	12.45
805.645	12.37
805.955	12.04
806.265	11.99
806.575	11.61
806.885	11.53
807.195	11.47
807.505	11.98
807.815	12.02
808.125	12.27
808.435	12
808.745	12.16
809.055	12.91
809.365	12.21
809.674	12.37
809.984	12.54
810.294	12.29
810.603	12.93
810.913	13.06
811.222	12.96
811.532	13.93
811.841	13.36
812.151	13.88
812.46	14.03
812.769	13.7
813.079	14.03
813.388	14.16
813.697	14.25
814.006	15.05
814.315	15.66
814.624	15.77
814.933	16.23
815.242	15.9
815.551	15.29
815.86	16.1
816.169	15.88
816.478	15.27
816.786	14.43
817.095	14.48
817.404	15.15
817.712	14.85
818.021	14.93
818.33	14.99
818.638	14.85
818.947	15.01
819.255	15.06
819.563	15.17
819.872	15.33
820.18	15.47
820.488	14.73
820.796	14.37
821.105	14.13
821.413	14.26
821.721	14.5
822.029	14.53
822.337	14.47
822.645	14.49
822.953	14.65
823.26	14.87
823.568	14.64
823.876	14.53
824.184	14.67
824.491	14.76
824.799	14.79
825.107	14.67
825.414	14.72
825.722	14.84
826.029	14.86
826.337	14.75
826.644	14.64
826.951	14.68
827.259	14.78
827.566	14.96
827.873	15.08
828.18	15.1
828.488	15.31
828.795	15.17
829.102	15.35
829.409	15.56
829.716	15.49
830.023	15.93
830.329	15.73
830.636	15.72
830.943	15.47
831.25	15.21
831.557	15.15
831.863	14.96
832.17	14.42
832.476	14.5
832.783	14.82
833.089	14.85
833.396	15.07
833.702	15.39
834.009	15.31
834.315	15.1
834.621	14.77
834.928	14.8
835.234	14.73
835.54	14.23
835.846	14.37
836.152	14.71
836.458	14.42
836.764	14.42
837.07	14.33
837.376	14.18
837.682	14.08
837.988	14.28
838.293	14.34
838.599	15.23
838.905	14.61
839.211	14.3
839.516	14.18
839.822	14.6
840.127	14.22
840.433	14.64
840.738	14.36
841.044	14.12
841.349	13.07
841.654	13.66
841.959	14.62
842.265	14.02
842.57	13.74
842.875	14.64
843.18	15.29
843.485	15.61
843.79	16.37
844.095	16.41
844.4	16.34
844.705	15.51
845.01	15.22
845.315	14.84
845.619	13.94
845.924	15.08
846.229	15.56
846.533	16.29
846.838	16.03
847.142	16.12
847.447	16.57
847.751	18.16
848.056	17.19
848.36	15.73
848.664	15.92
848.969	16.35
849.273	12.68
849.577	11.76
849.881	10.87
850.185	10.43
850.489	11.3
850.794	10.78
851.097	10.89
851.401	8.84
851.705	10.8
852.009	11.14
852.313	9.11
852.617	7.73
852.92	8.98
853.224	7.37
853.528	6.98
853.831	7.47
854.135	6.81
854.438	7.44
854.742	8.7
855.045	7.58
855.349	7.71
855.652	11.07
855.955	13.03
856.259	13.91
856.562	13.77
856.865	14.25
857.168	14.29
857.471	14.56
857.774	17.87
858.077	15.29
858.38	16.69
858.683	17.46
858.986	17
859.289	14.24
859.592	13.82
859.894	14.9
860.197	14.89
860.5	15.04
860.802	14.89
861.105	14.5
861.407	16.98
861.71	18.6
862.012	17.77
862.315	15.47
862.617	13.72
862.919	14.32
863.222	14.96
863.524	16.3
863.826	16.64
864.128	15.44
864.43	15.76
864.732	15.59
865.034	17.96
865.336	17.69
865.638	18.74
865.94	19.82
866.242	19.43
866.544	19.82
866.846	20.78
867.147	21.8
867.449	21.12
867.751	17.54
868.052	15
868.354	15.24
868.655	16.71
868.957	17.29
869.258	17.62
869.56	17.77
869.861	16.59
870.162	16.04
870.463	14.99
870.765	17.03
871.066	16.48
871.367	14.97
871.668	15.77
871.969	13.81
872.27	14.2
872.571	12.9
872.872	12.87
873.173	11.19
873.473	10.69
873.774	10.67
874.075	10.83
874.376	9.61
874.676	10.4
874.977	8.19
875.277	12.94
875.578	12.33
875.878	10.99
876.179	11.34
876.479	12.58
876.78	13.29
877.08	12.03
877.38	12.76
877.68	11.39
877.981	10.74
878.281	11.73
878.581	12.05
