Data from BA57750_Reflection_00006.txt Node
Date: Mon Nov 18 15:46:35 EST 2019
User: vgr7
Spectrometer: USB2G7710
Scans to average: 3
Trigger mode: 4
Integration Time (sec): 2.000000E-2
Electric dark correction enabled: true
Boxcar width: 10
XAxis mode: Wavelengths
Number of Pixels in Spectrum: 2048
>>>>>Begin Spectral Data<<<<<
177.721	40.8
178.105	65.3
178.488	1263.93
178.871	-129.4
179.254	-12.92
179.636	-45.22
180.019	-54.83
180.402	175
180.785	52.9
181.168	61.08
181.55	55.9
181.933	87.71
182.316	139.55
182.698	90.77
183.081	116.71
183.463	164.81
183.846	242.43
184.228	207.36
184.611	140.56
184.993	112.81
185.376	137.52
185.758	44.02
186.14	1.61
186.522	9.3
186.904	-51.07
187.287	7.84
187.669	2
188.051	-17.3
188.433	-20.18
188.815	-253.5
189.197	-12438.46
189.579	-1317.39
189.961	-6900
190.342	-3411.63
190.724	232.08
191.106	207.9
191.488	249.91
191.869	282.01
192.251	175.57
192.633	40.26
193.014	43.01
193.396	89.21
193.777	76.05
194.159	86.23
194.54	112.91
194.922	91.47
195.303	58.51
195.684	81.87
196.065	59.07
196.447	78.28
196.828	53.23
197.209	57.68
197.59	40.71
197.971	47.81
198.352	47.14
198.733	43.47
199.114	52.63
199.495	53.83
199.876	64.98
200.257	61.55
200.638	70.69
201.018	79.04
201.399	62.28
201.78	74.92
202.16	76.12
202.541	68.03
202.922	54.3
203.302	67.87
203.683	43.18
204.063	24.82
204.444	15.6
204.824	3.55
205.204	6.87
205.585	25.01
205.965	18.19
206.345	25.87
206.725	29.3
207.106	21.63
207.486	8.16
207.866	-19.93
208.246	-7.84
208.626	17.12
209.006	22.65
209.386	15.95
209.766	7.06
210.145	-28.44
210.525	-11.58
210.905	3.96
211.285	9.01
211.664	44.29
212.044	69.38
212.424	77.58
212.803	65.4
213.183	49.58
213.562	65.32
213.942	68.63
214.321	47.11
214.701	36.28
215.08	47.28
215.459	65.22
215.838	65.85
216.218	54.88
216.597	33.36
216.976	27.76
217.355	24.12
217.734	21.19
218.113	24.14
218.492	17.5
218.871	13.31
219.25	14.2
219.629	3.83
220.008	10.81
220.387	7.44
220.766	9.34
221.144	0.39
221.523	-15.35
221.902	-31.13
222.28	-39.9
222.659	-31.12
223.037	-32.77
223.416	-44.89
223.794	-45.28
224.173	-34.01
224.551	-30.25
224.929	-30.28
225.308	-17.51
225.686	-13.08
226.064	-4.55
226.442	0.41
226.821	-1.9
227.199	-3.02
227.577	-4.37
227.955	-7.6
228.333	-7.89
228.711	-5.56
229.089	-2.33
229.467	-1.64
229.845	-2.28
230.222	-1.96
230.6	-2.26
230.978	-3.61
231.356	-3.58
231.733	-3.36
232.111	-0.9
232.488	1.98
232.866	2.93
233.243	1.93
233.621	-0.39
233.998	-0.38
234.376	-0.16
234.753	2
235.13	2.65
235.508	5.43
235.885	5.85
236.262	6.07
236.639	4.72
237.016	5.57
237.393	6.02
237.77	7.47
238.147	7.93
238.524	7.45
238.901	7.83
239.278	7.87
239.655	8.03
240.032	7.53
240.409	7.01
240.785	7.23
241.162	6.96
241.539	7.42
241.915	7.03
242.292	6.5
242.668	6.68
243.045	6.58
243.421	6.01
243.798	5.98
244.174	5.86
244.551	5.83
244.927	5.52
245.303	5.59
245.679	5.68
246.056	5.71
246.432	5.57
246.808	5.45
247.184	5.35
247.56	4.91
247.936	4.75
248.312	4.58
248.688	4.64
249.064	4.5
249.44	4.55
249.815	4.66
250.191	4.53
250.567	4.38
250.943	3.94
251.318	4.27
251.694	4.05
252.069	3.99
252.445	4.29
252.82	4.2
253.196	3.75
253.571	3.13
253.947	3.33
254.322	3.57
254.697	3.45
255.073	3.31
255.448	3.53
255.823	3.72
256.198	3.97
256.573	3.66
256.948	4.02
257.323	4.1
257.698	4.17
258.073	4.44
258.448	4.3
258.823	4.48
259.198	4.31
259.573	4.43
259.948	4.49
260.322	4.42
260.697	4.4
261.072	4.75
261.446	5.15
261.821	4.84
262.195	4.89
262.57	4.87
262.944	4.99
263.319	4.98
263.693	4.77
264.067	4.81
264.442	4.94
264.816	4.89
265.19	4.76
265.564	4.7
265.938	4.63
266.313	4.66
266.687	4.86
267.061	4.98
267.435	5.02
267.809	4.92
268.183	4.92
268.556	4.91
268.93	4.79
269.304	4.49
269.678	4.63
270.051	4.61
270.425	4.89
270.799	4.68
271.172	4.73
271.546	4.92
271.919	4.68
272.293	4.71
272.666	4.77
273.04	4.64
273.413	4.64
273.787	4.72
274.16	4.75
274.533	4.72
274.906	4.65
275.279	4.55
275.653	4.65
276.026	4.7
276.399	4.82
276.772	4.8
277.145	4.75
277.518	4.78
277.891	4.59
278.263	4.37
278.636	4.6
279.009	4.35
279.382	4.46
279.755	4.61
280.127	4.58
280.5	4.66
280.872	4.85
281.245	4.79
281.617	4.96
281.99	5.03
282.362	4.99
282.735	5
283.107	5.04
283.479	5.01
283.852	4.89
284.224	4.78
284.596	4.78
284.968	4.82
285.34	4.9
285.713	4.89
286.085	4.97
286.457	5.09
286.829	5.45
287.201	5.38
287.572	5.3
287.944	5.32
288.316	5.25
288.688	5.25
289.06	5.24
289.431	5.26
289.803	5.26
290.175	5.29
290.546	5.33
290.918	5.37
291.289	5.4
291.661	5.52
292.032	5.52
292.403	5.5
292.775	5.65
293.146	5.47
293.517	5.53
293.889	5.55
294.26	5.53
294.631	5.39
295.002	5.38
295.373	5.53
295.744	5.5
296.115	5.44
296.486	5.28
296.857	5.33
297.228	5.2
297.599	5.17
297.97	5.19
298.34	5.14
298.711	5.13
299.082	5.13
299.452	5
299.823	5.11
300.194	5.1
300.564	5.06
300.935	5.15
301.305	5.2
301.676	5.2
302.046	5.13
302.416	5.25
302.787	5.29
303.157	5.19
303.527	5.15
303.897	5.22
304.267	5.46
304.637	5.45
305.008	5.49
305.378	5.6
305.748	5.66
306.117	5.63
306.487	5.65
306.857	5.73
307.227	5.74
307.597	5.68
307.967	5.75
308.336	5.69
308.706	5.75
309.076	5.69
309.445	5.62
309.815	5.56
310.184	5.46
310.554	5.43
310.923	5.42
311.293	5.49
311.662	5.47
312.031	5.36
312.401	5.43
312.77	5.53
313.139	5.57
313.508	5.47
313.877	5.42
314.246	5.36
314.616	5.28
314.985	5.35
315.353	5.34
315.722	5.32
316.091	5.43
316.46	5.34
316.829	5.38
317.198	5.45
317.567	5.46
317.935	5.41
318.304	5.28
318.672	5.43
319.041	5.45
319.41	5.56
319.778	5.64
320.147	5.56
320.515	5.38
320.883	5.19
321.252	5.41
321.62	5.48
321.988	5.49
322.357	5.45
322.725	5.32
323.093	5.42
323.461	5.57
323.829	5.45
324.197	5.49
324.565	5.44
324.933	5.42
325.301	5.36
325.669	5.35
326.037	5.41
326.405	5.4
326.772	5.39
327.14	5.38
327.508	5.39
327.875	5.31
328.243	5.38
328.61	5.46
328.978	5.32
329.346	5.26
329.713	5.25
330.08	5.35
330.448	5.32
330.815	5.32
331.182	5.13
331.55	5.16
331.917	5.2
332.284	5.25
332.651	5.32
333.018	5.38
333.385	5.52
333.752	5.64
334.119	5.59
334.486	5.52
334.853	5.53
335.22	5.57
335.587	5.62
335.954	5.56
336.32	5.47
336.687	5.5
337.054	5.6
337.42	5.69
337.787	5.57
338.153	5.65
338.52	5.53
338.886	5.53
339.253	5.4
339.619	5.32
339.986	5.29
340.352	5.29
340.718	5.31
341.084	5.3
341.451	5.26
341.817	5.27
342.183	5.31
342.549	5.17
342.915	5.12
343.281	5.13
343.647	5.08
344.013	5.13
344.379	5.03
344.745	5.02
345.11	5
345.476	5.04
345.842	4.99
346.208	5.04
346.573	5.08
346.939	5.18
347.304	5.2
347.67	5.19
348.035	5.08
348.401	4.99
348.766	4.88
349.132	4.76
349.497	4.71
349.862	4.74
350.228	4.74
350.593	4.68
350.958	4.72
351.323	4.75
351.688	4.74
352.053	4.88
352.418	4.91
352.783	4.92
353.148	4.88
353.513	4.92
353.878	4.91
354.243	4.9
354.608	5.02
354.972	5.02
355.337	5.05
355.702	5.22
356.066	5.32
356.431	5.38
356.795	5.52
357.16	5.58
357.524	5.52
357.889	5.6
358.253	5.68
358.618	5.72
358.982	5.7
359.346	5.63
359.71	5.58
360.075	5.61
360.439	5.64
360.803	5.7
361.167	5.7
361.531	5.69
361.895	5.7
362.259	5.58
362.623	5.59
362.987	5.56
363.351	5.47
363.714	5.49
364.078	5.42
364.442	5.36
364.806	5.37
365.169	5.37
365.533	5.34
365.896	5.31
366.26	5.28
366.623	5.3
366.987	5.34
367.35	5.32
367.714	5.25
368.077	5.13
368.44	5.12
368.803	5.1
369.167	5.14
369.53	5.1
369.893	5.17
370.256	5.21
370.619	5.23
370.982	5.22
371.345	5.16
371.708	5.24
372.071	5.24
372.434	5.17
372.797	5.19
373.159	5.15
373.522	5.15
373.885	5.25
374.247	5.24
374.61	5.26
374.973	5.24
375.335	5.29
375.698	5.4
376.06	5.43
376.423	5.45
376.785	5.44
377.147	5.52
377.51	5.44
377.872	5.42
378.234	5.46
378.596	5.48
378.958	5.48
379.321	5.45
379.683	5.52
380.045	5.54
380.407	5.52
380.769	5.54
381.13	5.56
381.492	5.5
381.854	5.49
382.216	5.47
382.578	5.5
382.939	5.44
383.301	5.36
383.663	5.29
384.024	5.3
384.386	5.32
384.747	5.32
385.109	5.36
385.47	5.33
385.832	5.33
386.193	5.31
386.554	5.33
386.916	5.36
387.277	5.3
387.638	5.31
387.999	5.35
388.36	5.35
388.721	5.33
389.082	5.31
389.443	5.3
389.804	5.34
390.165	5.36
390.526	5.38
390.887	5.4
391.248	5.43
391.609	5.43
391.969	5.39
392.33	5.37
392.691	5.36
393.051	5.36
393.412	5.39
393.772	5.39
394.133	5.38
394.493	5.38
394.854	5.37
395.214	5.35
395.574	5.34
395.935	5.37
396.295	5.39
396.655	5.38
397.015	5.41
397.376	5.39
397.736	5.39
398.096	5.4
398.456	5.42
398.816	5.42
399.176	5.38
399.535	5.42
399.895	5.41
400.255	5.43
400.615	5.45
400.975	5.43
401.334	5.46
401.694	5.42
402.054	5.37
402.413	5.42
402.773	5.4
403.132	5.38
403.492	5.38
403.851	5.35
404.211	5.37
404.57	5.35
404.929	5.35
405.288	5.33
405.648	5.32
406.007	5.33
406.366	5.31
406.725	5.36
407.084	5.32
407.443	5.31
407.802	5.34
408.161	5.31
408.52	5.27
408.879	5.26
409.238	5.3
409.596	5.34
409.955	5.3
410.314	5.36
410.673	5.35
411.031	5.33
411.39	5.36
411.748	5.36
412.107	5.36
412.465	5.38
412.824	5.38
413.182	5.35
413.54	5.35
413.899	5.42
414.257	5.41
414.615	5.42
414.974	5.45
415.332	5.41
415.69	5.38
416.048	5.4
416.406	5.39
416.764	5.39
417.122	5.37
417.48	5.38
417.838	5.38
418.195	5.38
418.553	5.37
418.911	5.36
419.269	5.35
419.626	5.33
419.984	5.32
420.342	5.3
420.699	5.31
421.057	5.3
421.414	5.24
421.772	5.23
422.129	5.23
422.486	5.21
422.844	5.23
423.201	5.25
423.558	5.25
423.915	5.26
424.273	5.26
424.63	5.25
424.987	5.26
425.344	5.25
425.701	5.25
426.058	5.25
426.415	5.23
426.772	5.23
427.128	5.23
427.485	5.25
427.842	5.25
428.199	5.25
428.555	5.26
428.912	5.3
429.269	5.33
429.625	5.33
429.982	5.32
430.338	5.32
430.695	5.32
431.051	5.3
431.407	5.3
431.764	5.28
432.12	5.3
432.476	5.27
432.832	5.27
433.189	5.28
433.545	5.28
433.901	5.29
434.257	5.29
434.613	5.3
434.969	5.28
435.325	5.3
435.681	5.31
436.036	5.32
436.392	5.3
436.748	5.3
437.104	5.29
437.459	5.28
437.815	5.26
438.171	5.28
438.526	5.29
438.882	5.28
439.237	5.29
439.593	5.3
439.948	5.29
440.304	5.29
440.659	5.29
441.014	5.3
441.369	5.29
441.725	5.29
442.08	5.29
442.435	5.3
442.79	5.29
443.145	5.3
443.5	5.28
443.855	5.28
444.21	5.27
444.565	5.29
444.92	5.29
445.275	5.29
445.629	5.28
445.984	5.29
446.339	5.29
446.693	5.29
447.048	5.27
447.403	5.26
447.757	5.25
448.112	5.24
448.466	5.23
448.82	5.23
449.175	5.23
449.529	5.22
449.883	5.2
450.238	5.18
450.592	5.18
450.946	5.17
451.3	5.17
451.654	5.19
452.008	5.16
452.362	5.16
452.716	5.16
453.07	5.16
453.424	5.13
453.778	5.11
454.132	5.09
454.486	5.09
454.839	5.12
455.193	5.11
455.547	5.12
455.9	5.15
456.254	5.17
456.607	5.15
456.961	5.18
457.314	5.2
457.668	5.21
458.021	5.2
458.375	5.2
458.728	5.2
459.081	5.18
459.434	5.18
459.787	5.2
460.141	5.2
460.494	5.2
460.847	5.21
461.2	5.23
461.553	5.26
461.906	5.25
462.259	5.25
462.611	5.28
462.964	5.27
463.317	5.25
463.67	5.25
464.022	5.26
464.375	5.26
464.728	5.27
465.08	5.28
465.433	5.28
465.785	5.31
466.138	5.32
466.49	5.31
466.843	5.32
467.195	5.31
467.547	5.33
467.899	5.34
468.252	5.33
468.604	5.33
468.956	5.3
469.308	5.34
469.66	5.33
470.012	5.34
470.364	5.37
470.716	5.35
471.068	5.38
471.42	5.4
471.772	5.4
472.123	5.41
472.475	5.39
472.827	5.37
473.178	5.38
473.53	5.37
473.882	5.39
474.233	5.43
474.585	5.42
474.936	5.41
475.288	5.43
475.639	5.44
475.99	5.45
476.342	5.47
476.693	5.46
477.044	5.47
477.395	5.46
477.746	5.45
478.097	5.48
478.448	5.48
478.8	5.45
479.15	5.43
479.501	5.44
479.852	5.44
480.203	5.47
480.554	5.47
480.905	5.48
481.255	5.5
481.606	5.49
481.957	5.51
482.307	5.51
482.658	5.51
483.009	5.5
483.359	5.5
483.709	5.5
484.06	5.49
484.41	5.49
484.761	5.48
485.111	5.49
485.461	5.49
485.811	5.48
486.162	5.48
486.512	5.5
486.862	5.49
487.212	5.5
487.562	5.5
487.912	5.5
488.262	5.5
488.612	5.49
488.961	5.49
489.311	5.48
489.661	5.48
490.011	5.47
490.36	5.47
490.71	5.47
491.06	5.46
491.409	5.47
491.759	5.47
492.108	5.48
492.458	5.47
492.807	5.46
493.157	5.45
493.506	5.46
493.855	5.47
494.204	5.47
494.554	5.46
494.903	5.47
495.252	5.47
495.601	5.47
495.95	5.47
496.299	5.48
496.648	5.48
496.997	5.48
497.346	5.51
497.695	5.52
498.043	5.51
498.392	5.53
498.741	5.55
499.09	5.57
499.438	5.59
499.787	5.6
500.135	5.64
500.484	5.67
500.832	5.68
501.181	5.67
501.529	5.66
501.878	5.67
502.226	5.68
502.574	5.69
502.923	5.71
503.271	5.72
503.619	5.72
503.967	5.72
504.315	5.73
504.663	5.71
505.011	5.75
505.359	5.77
505.707	5.78
506.055	5.78
506.403	5.79
506.751	5.81
507.098	5.82
507.446	5.84
507.794	5.85
508.141	5.9
508.489	5.91
508.837	5.91
509.184	5.94
509.531	5.94
509.879	5.96
510.226	5.97
510.574	5.97
510.921	5.99
511.268	6.03
511.616	6.05
511.963	6.09
512.31	6.09
512.657	6.13
513.004	6.14
513.351	6.17
513.698	6.18
514.045	6.19
514.392	6.19
514.739	6.19
515.086	6.19
515.432	6.17
515.779	6.18
516.126	6.21
516.473	6.21
516.819	6.24
517.166	6.23
517.512	6.23
517.859	6.24
518.205	6.25
518.552	6.25
518.898	6.24
519.245	6.22
519.591	6.22
519.937	6.19
520.283	6.19
520.629	6.18
520.976	6.19
521.322	6.21
521.668	6.22
522.014	6.23
522.36	6.23
522.706	6.24
523.052	6.26
523.398	6.27
523.743	6.26
524.089	6.24
524.435	6.26
524.781	6.26
525.126	6.26
525.472	6.27
525.817	6.26
526.163	6.26
526.509	6.27
526.854	6.28
527.199	6.3
527.545	6.31
527.89	6.31
528.235	6.31
528.581	6.31
528.926	6.31
529.271	6.31
529.616	6.31
529.961	6.31
530.306	6.3
530.651	6.3
530.996	6.3
531.341	6.31
531.686	6.32
532.031	6.32
532.376	6.33
532.721	6.33
533.065	6.32
533.41	6.33
533.755	6.33
534.099	6.33
534.444	6.32
534.788	6.33
535.133	6.36
535.477	6.36
535.822	6.36
536.166	6.37
536.51	6.37
536.855	6.38
537.199	6.38
537.543	6.4
537.887	6.41
538.231	6.41
538.576	6.42
538.92	6.42
539.264	6.43
539.608	6.44
539.951	6.44
540.295	6.45
540.639	6.46
540.983	6.45
541.327	6.46
541.671	6.46
542.014	6.46
542.358	6.44
542.701	6.45
543.045	6.45
543.389	6.45
543.732	6.46
544.075	6.48
544.419	6.48
544.762	6.49
545.105	6.5
545.449	6.52
545.792	6.52
546.135	6.53
546.478	6.56
546.821	6.56
547.165	6.57
547.508	6.57
547.851	6.57
548.194	6.58
548.536	6.59
548.879	6.61
549.222	6.61
549.565	6.65
549.908	6.65
550.25	6.63
550.593	6.63
550.936	6.65
551.278	6.64
551.621	6.65
551.963	6.64
552.306	6.63
552.648	6.61
552.991	6.63
553.333	6.62
553.675	6.61
554.017	6.61
554.36	6.61
554.702	6.64
555.044	6.65
555.386	6.68
555.728	6.66
556.07	6.7
556.412	6.66
556.754	6.62
557.096	6.65
557.438	6.67
557.78	6.67
558.121	6.68
558.463	6.7
558.805	6.7
559.147	6.72
559.488	6.72
559.83	6.72
560.171	6.72
560.513	6.72
560.854	6.72
561.196	6.71
561.537	6.71
561.878	6.68
562.22	6.7
562.561	6.67
562.902	6.7
563.243	6.67
563.584	6.7
563.925	6.72
564.266	6.69
564.607	6.68
564.948	6.71
565.289	6.72
565.63	6.71
565.971	6.69
566.312	6.68
566.653	6.7
566.993	6.68
567.334	6.69
567.675	6.7
568.015	6.71
568.356	6.72
568.696	6.73
569.037	6.76
569.377	6.75
569.718	6.78
570.058	6.77
570.398	6.77
570.739	6.76
571.079	6.78
571.419	6.8
571.759	6.84
572.099	6.83
572.439	6.82
572.779	6.82
573.119	6.86
573.459	6.89
573.799	6.87
574.139	6.87
574.479	6.85
574.819	6.87
575.158	6.86
575.498	6.87
575.838	6.85
576.177	6.84
576.517	6.83
576.856	6.81
577.196	6.82
577.535	6.85
577.875	6.88
578.214	6.85
578.553	6.89
578.893	6.84
579.232	6.83
579.571	6.83
579.91	6.84
580.25	6.83
580.589	6.78
580.928	6.79
581.267	6.82
581.606	6.8
581.945	6.81
582.283	6.81
582.622	6.84
582.961	6.87
583.3	6.87
583.639	6.92
583.977	6.93
584.316	6.93
584.654	6.92
584.993	6.9
585.332	6.93
585.67	6.88
586.008	6.93
586.347	6.93
586.685	6.92
587.024	6.91
587.362	6.9
587.7	6.92
588.038	6.92
588.376	6.92
588.715	6.97
589.053	6.94
589.391	6.95
589.729	6.95
590.067	6.93
590.404	6.93
590.742	6.89
591.08	6.9
591.418	6.94
591.756	6.94
592.093	6.95
592.431	6.98
592.769	7
593.106	6.98
593.444	6.97
593.781	6.96
594.119	6.99
594.456	7
594.793	6.99
595.131	6.98
595.468	6.99
595.805	7.02
596.143	7.01
596.48	6.98
596.817	6.96
597.154	6.97
597.491	7
597.828	7.03
598.165	7.02
598.502	6.98
598.839	7
599.176	6.99
599.512	6.97
599.849	7
600.186	7.02
600.523	7.04
600.859	7.08
601.196	7.08
601.532	7.08
601.869	7.08
602.205	7.12
602.542	7.12
602.878	7.07
603.215	7.09
603.551	7.15
603.887	7.13
604.223	7.14
604.56	7.15
604.896	7.16
605.232	7.18
605.568	7.2
605.904	7.2
606.24	7.24
606.576	7.25
606.912	7.22
607.248	7.23
607.583	7.22
607.919	7.2
608.255	7.16
608.591	7.17
608.926	7.18
609.262	7.18
609.597	7.18
609.933	7.2
610.268	7.19
610.604	7.17
610.939	7.21
611.275	7.21
611.61	7.18
611.945	7.17
612.281	7.16
612.616	7.16
612.951	7.13
613.286	7.07
613.621	7.03
613.956	7.04
614.291	7.02
614.626	7.02
614.961	7.03
615.296	7.02
615.631	7.05
615.966	7.05
616.3	7.03
616.635	7.05
616.97	7.09
617.304	7.09
617.639	7.14
617.973	7.07
618.308	7.08
618.642	7.17
618.977	7.22
619.311	7.19
619.646	7.22
619.98	7.25
620.314	7.31
620.648	7.33
620.983	7.35
621.317	7.37
621.651	7.42
621.985	7.43
622.319	7.47
622.653	7.47
622.987	7.52
623.321	7.52
623.655	7.48
623.988	7.47
624.322	7.46
624.656	7.46
624.99	7.53
625.323	7.51
625.657	7.46
625.99	7.46
626.324	7.49
626.657	7.48
626.991	7.47
627.324	7.44
627.658	7.5
627.991	7.51
628.324	7.49
628.657	7.48
628.991	7.48
629.324	7.53
629.657	7.53
629.99	7.48
630.323	7.53
630.656	7.6
630.989	7.61
631.322	7.7
631.655	7.69
631.987	7.66
632.32	7.68
632.653	7.67
632.986	7.65
633.318	7.67
633.651	7.68
633.984	7.67
634.316	7.68
634.649	7.62
634.981	7.6
635.313	7.63
635.646	7.62
635.978	7.67
636.31	7.61
636.643	7.62
636.975	7.64
637.307	7.62
637.639	7.6
637.971	7.59
638.303	7.53
638.635	7.48
638.967	7.51
639.299	7.5
639.631	7.51
639.963	7.48
640.295	7.48
640.626	7.44
640.958	7.48
641.29	7.51
641.621	7.57
641.953	7.58
642.285	7.6
642.616	7.63
642.948	7.62
643.279	7.69
643.61	7.68
643.942	7.68
644.273	7.75
644.604	7.77
644.936	7.74
645.267	7.8
645.598	7.83
645.929	7.82
646.26	7.83
646.591	7.86
646.922	7.85
647.253	7.81
647.584	7.85
647.915	7.85
648.245	7.82
648.576	7.76
648.907	7.78
649.238	7.75
649.568	7.75
649.899	7.7
650.229	7.7
650.56	7.74
650.89	7.7
651.221	7.59
651.551	7.53
651.882	7.63
652.212	7.54
652.542	7.52
652.872	7.49
653.203	7.53
653.533	7.53
653.863	7.61
654.193	7.59
654.523	7.56
654.853	7.58
655.183	7.6
655.513	7.56
655.843	7.54
656.172	7.52
656.502	7.5
656.832	7.52
657.162	7.56
657.491	7.46
657.821	7.49
658.15	7.47
658.48	7.56
658.809	7.5
659.139	7.52
659.468	7.53
659.798	7.53
660.127	7.55
660.456	7.61
660.785	7.63
661.115	7.66
661.444	7.69
661.773	7.69
662.102	7.7
662.431	7.8
662.76	7.81
663.089	7.85
663.418	7.87
663.747	7.87
664.076	7.83
664.404	7.96
664.733	8.07
665.062	8.1
665.39	8.1
665.719	8.1
666.048	8.19
666.376	8.15
666.705	8.24
667.033	8.18
667.362	8.15
667.69	8.15
668.018	8.14
668.347	8.15
668.675	8.19
669.003	8.16
669.331	8.2
669.659	8.27
669.987	8.33
670.315	8.31
670.643	8.32
670.971	8.32
671.299	8.33
671.627	8.32
671.955	8.32
672.283	8.3
672.61	8.31
672.938	8.29
673.266	8.41
673.593	8.4
673.921	8.42
674.249	8.35
674.576	8.27
674.904	8.33
675.231	8.29
675.558	8.26
675.886	8.37
676.213	8.27
676.54	8.18
676.867	8.14
677.195	8.1
677.522	8.07
677.849	8.12
678.176	8.08
678.503	8.02
678.83	8.06
679.157	8.06
679.484	8
679.81	7.9
680.137	7.85
680.464	7.8
680.791	7.83
681.117	7.83
681.444	7.85
681.771	7.83
682.097	7.9
682.424	7.92
682.75	7.86
683.077	7.87
683.403	7.88
683.729	7.85
684.056	7.95
684.382	7.99
684.708	7.96
685.034	7.98
685.36	8.04
685.686	8.05
686.012	8.02
686.339	8.18
686.664	8.28
686.99	8.27
687.316	8.29
687.642	8.35
687.968	8.42
688.294	8.5
688.619	8.53
688.945	8.54
689.271	8.46
689.596	8.44
689.922	8.48
690.247	8.52
690.573	8.62
690.898	8.64
691.224	8.66
691.549	8.73
691.874	8.75
692.2	8.66
692.525	8.69
692.85	8.7
693.175	8.67
693.5	8.68
693.825	8.69
694.15	8.7
694.475	8.54
694.8	8.52
695.125	8.43
695.45	8.42
695.775	8.49
696.099	8.61
696.424	8.56
696.749	8.53
697.073	8.51
697.398	8.51
697.723	8.59
698.047	8.57
698.372	8.48
698.696	8.43
699.02	8.46
699.345	8.4
699.669	8.48
699.993	8.41
700.318	8.41
700.642	8.44
700.966	8.45
701.29	8.55
701.614	8.6
701.938	8.62
702.262	8.71
702.586	8.61
702.91	8.56
703.234	8.57
703.557	8.7
703.881	8.73
704.205	8.61
704.529	8.43
704.852	8.46
705.176	8.53
705.499	8.67
705.823	8.61
706.146	8.66
706.47	8.59
706.793	8.7
707.117	8.75
707.44	8.81
707.763	8.73
708.086	8.71
708.409	8.7
708.733	8.76
709.056	8.67
709.379	8.74
709.702	8.79
710.025	8.86
710.348	8.8
710.671	8.81
710.993	8.9
711.316	9.01
711.639	9.08
711.962	9.16
712.284	9.08
712.607	9.09
712.93	9.15
713.252	9.14
713.575	9.13
713.897	9.06
714.22	9.12
714.542	9.2
714.864	9.33
715.187	9.23
715.509	9.32
715.831	9.37
716.153	9.28
716.475	9.25
716.798	9.41
717.12	9.33
717.442	9.42
717.764	9.32
718.085	9.33
718.407	9.32
718.729	9.25
719.051	9.39
719.373	9.45
719.695	9.24
720.016	9.36
720.338	9.42
720.659	9.69
720.981	9.68
721.302	9.88
721.624	9.73
721.945	9.83
722.267	9.8
722.588	9.75
722.909	10.05
723.231	10.1
723.552	9.92
723.873	10.1
724.194	10
724.515	10.14
724.836	10.06
725.157	10.07
725.478	9.89
725.799	9.9
726.12	10.02
726.441	10.18
726.762	10.21
727.083	10.13
727.403	9.96
727.724	9.91
728.045	9.86
728.365	9.93
728.686	9.91
729.006	9.9
729.327	9.85
729.647	9.8
729.967	9.83
730.288	9.92
730.608	9.84
730.928	9.8
731.249	9.8
731.569	9.96
731.889	9.83
732.209	9.97
732.529	9.94
732.849	9.99
733.169	10.06
733.489	9.98
733.809	10.01
734.129	10.11
734.448	10.23
734.768	10.02
735.088	10.1
735.408	10.09
735.727	10.13
736.047	10.25
736.366	10.02
736.686	10.08
737.005	10.1
737.325	10.2
737.644	10.16
737.963	10.14
738.283	9.91
738.602	10.04
738.921	10.08
739.24	10.19
739.56	10.06
739.879	10.23
740.198	10.53
740.517	10.58
740.836	10.55
741.155	10.55
741.473	10.82
741.792	10.94
742.111	11.03
742.43	10.96
742.748	10.81
743.067	10.93
743.386	10.73
743.704	10.88
744.023	10.87
744.341	11.06
744.66	11.45
744.978	11.64
745.297	11.66
745.615	11.57
745.933	11.41
746.252	11.46
746.57	11.1
746.888	10.7
747.206	10.57
747.524	10.35
747.842	10.26
748.16	10.27
748.478	10.18
748.796	10.34
749.114	10.42
749.432	10.53
749.749	10.72
750.067	10.77
750.385	10.54
750.703	10.61
751.02	10.52
751.338	10.42
751.655	10.33
751.973	10.43
752.29	10.65
752.608	10.56
752.925	10.56
753.242	10.94
753.56	10.92
753.877	11.02
754.194	11.22
754.511	11.1
754.828	11.18
755.145	11.08
755.462	10.9
755.779	10.79
756.096	10.97
756.413	10.71
756.73	10.78
757.047	10.92
757.364	10.63
757.68	10.81
757.997	11
758.314	11.01
758.63	10.8
758.947	10.77
759.264	10.97
759.58	11.03
759.896	10.98
760.213	11.23
760.529	11
760.846	10.94
761.162	11
761.478	10.98
761.794	10.94
762.11	10.93
762.426	11.1
762.743	11.03
763.059	11.08
763.375	11.02
763.69	10.97
764.006	11.09
764.322	11.24
764.638	10.99
764.954	11.08
765.27	11.39
765.585	11.51
765.901	11.45
766.216	11.48
766.532	11.51
766.848	11.15
767.163	11.44
767.478	11.34
767.794	11.45
768.109	11.35
768.424	11.29
768.74	11.15
769.055	11.04
769.37	10.94
769.685	11.07
770	11.34
770.315	11.19
770.63	11.38
770.945	11.13
771.26	11.15
771.575	11.07
771.89	10.68
772.205	10.49
772.52	10.28
772.834	10.05
773.149	10.21
773.464	10.47
773.778	10.39
774.093	10.65
774.407	10.79
774.722	10.73
775.036	10.84
775.351	11.07
775.665	10.99
775.979	11.17
776.293	10.89
776.608	10.66
776.922	10.85
777.236	10.71
777.55	10.52
777.864	10.71
778.178	10.87
778.492	11.2
778.806	10.95
779.12	11.27
779.434	11.05
779.747	10.85
780.061	11.01
780.375	10.96
780.689	11.22
781.002	11.17
781.316	11.07
781.629	11.33
781.943	11.26
782.256	11.59
782.57	11.43
782.883	11.57
783.196	11.54
783.51	11.61
783.823	11.62
784.136	12.07
784.449	11.64
784.762	11.6
785.075	11.62
785.388	11.86
785.701	11.73
786.014	12.1
786.327	11.81
786.64	12.19
786.953	12.52
787.266	11.95
787.578	11.61
787.891	11.59
788.204	11.35
788.516	12.05
788.829	12.12
789.141	12.4
789.454	12.93
789.766	13.22
790.079	13.48
790.391	13.5
790.703	13.43
791.016	13.68
791.328	14.04
791.64	14.09
791.952	14.45
792.264	14.27
792.576	14.64
792.888	14.97
793.2	14.79
793.512	14.61
793.824	15.32
794.136	15.13
794.448	15.6
794.76	15.96
795.071	15.7
795.383	15.3
795.695	15.35
796.006	15.05
796.318	14.94
796.629	15.15
796.941	15.25
797.252	15.44
797.564	15.81
797.875	15.54
798.186	15.34
798.497	15.42
798.809	15.5
799.12	15.82
799.431	15.73
799.742	15.5
800.053	15.78
800.364	15.1
800.675	15.44
800.986	15.02
801.297	14.72
801.608	14.34
801.918	14.34
802.229	14.37
802.54	14.38
802.851	14.17
803.161	13.94
803.472	14.24
803.782	13.84
804.093	13.75
804.403	13.77
804.714	14.18
805.024	13.42
805.334	13.5
805.645	12.75
805.955	12.86
806.265	13.34
806.575	12.98
806.885	13.52
807.195	14.17
807.505	14.8
807.815	15.22
808.125	15.07
808.435	15.21
808.745	14.7
809.055	14.68
809.365	14.87
809.674	14.28
809.984	14.35
810.294	14.52
810.603	14.66
810.913	14.81
811.222	15.22
811.532	15.35
811.841	15.58
812.151	16.15
812.46	16.12
812.769	15.74
813.079	15.77
813.388	15.67
813.697	15.36
814.006	14.71
814.315	14.28
814.624	14.31
814.933	14.8
815.242	15.28
815.551	15.73
815.86	15.99
816.169	16.25
816.478	15.78
816.786	15.89
817.095	15.92
817.404	15.99
817.712	14.9
818.021	15.72
818.33	15.63
818.638	15.09
818.947	14.97
819.255	14.73
819.563	15.02
819.872	14.52
820.18	14.32
820.488	14.31
820.796	14.53
821.105	14.46
821.413	14.36
821.721	14.32
822.029	14.19
822.337	14.13
822.645	14.12
822.953	14
823.26	13.83
823.568	13.74
823.876	13.61
824.184	13.49
824.491	13.28
824.799	13.35
825.107	13.22
825.414	13.25
825.722	13.55
826.029	13.43
826.337	13.66
826.644	13.62
826.951	13.69
827.259	13.4
827.566	13.29
827.873	13.34
828.18	13.43
828.488	13.55
828.795	13.66
829.102	13.65
829.409	13.89
829.716	14.26
830.023	14.09
830.329	13.99
830.636	14.58
830.943	14.99
831.25	15.22
831.557	15.69
831.863	15.85
832.17	15.65
832.476	15.71
832.783	15.75
833.089	16.01
833.396	15.98
833.702	16.93
834.009	17.5
834.315	17.19
834.621	17.05
834.928	16.71
835.234	16.77
835.54	16.51
835.846	16.35
836.152	16.19
836.458	16.58
836.764	16.91
837.07	16.67
837.376	16.5
837.682	16.45
837.988	16.43
838.293	15.84
838.599	15.15
838.905	15.19
839.211	15.18
839.516	15.31
839.822	15.61
840.127	15.17
840.433	14.9
840.738	15.94
841.044	15.78
841.349	15.98
841.654	15.79
841.959	16.48
842.265	16.54
842.57	16.57
842.875	15.78
843.18	16.18
843.485	17.14
843.79	16.88
844.095	16.31
844.4	17.13
844.705	18.29
845.01	18.41
845.315	19.53
845.619	19.37
845.924	19.55
846.229	19.76
846.533	19.28
846.838	19.21
847.142	17.04
847.447	16.86
847.751	18.49
848.056	17.96
848.36	18.56
848.664	19.51
848.969	19.59
849.273	18.62
849.577	19.01
849.881	17.33
850.185	16.99
850.489	18.38
850.794	17.99
851.097	17.16
851.401	18.07
851.705	15.65
852.009	17.02
852.313	14.97
852.617	14.5
852.92	15.82
853.224	16.56
853.528	19.02
853.831	17.48
854.135	15.96
854.438	15.51
854.742	13.92
855.045	13.88
855.349	14.29
855.652	16.18
855.955	15.55
856.259	16.49
856.562	17.63
856.865	16.12
857.168	16.66
857.471	17.98
857.774	17.68
858.077	18.37
858.38	19.17
858.683	21.55
858.986	22.58
859.289	20.58
859.592	19.87
859.894	16.73
860.197	17.29
860.5	16.95
860.802	17.14
861.105	20.97
861.407	19.51
861.71	19.63
862.012	19.58
862.315	18.61
862.617	19.48
862.919	18.78
863.222	18.77
863.524	18.62
863.826	18.44
864.128	20.54
864.43	19.11
864.732	17.65
865.034	18.35
865.336	16.88
865.638	17.13
865.94	16.34
866.242	17.39
866.544	19.65
866.846	18.61
867.147	18.2
867.449	16.23
867.751	18.56
868.052	18.43
868.354	19.37
868.655	19.3
868.957	17.49
869.258	17.05
869.56	16.63
869.861	15.81
870.162	14.48
870.463	15.21
870.765	18.24
871.066	16.57
871.367	13.69
871.668	15.65
871.969	17.65
872.27	18.48
872.571	19.82
872.872	20.15
873.173	18.73
873.473	19.66
873.774	20.25
874.075	20.34
874.376	19.16
874.676	18.43
874.977	18.04
875.277	19.9
875.578	21.4
875.878	21.87
876.179	21.84
876.479	23.16
876.78	20.85
877.08	20.12
877.38	21.38
877.68	23.25
877.981	21.74
878.281	19.42
878.581	21.44
