Data from BA57710_Reflection_00003.txt Node
Date: Mon Nov 18 15:31:41 EST 2019
User: vgr7
Spectrometer: USB2G7710
Scans to average: 3
Trigger mode: 4
Integration Time (sec): 2.000000E-2
Electric dark correction enabled: true
Boxcar width: 10
XAxis mode: Wavelengths
Number of Pixels in Spectrum: 2048
>>>>>Begin Spectral Data<<<<<
177.721	-9.04
178.105	-54.4
178.488	-78.7
178.871	-105.08
179.254	-378.26
179.636	-22.42
180.019	-48.85
180.402	83.33
180.785	42.56
181.168	-39.95
181.55	79.78
181.933	84.77
182.316	190.91
182.698	285.39
183.081	479.44
183.463	-806.61
183.846	-879.52
184.228	-320.42
184.611	-448.87
184.993	-147.15
185.376	-156.09
185.758	-142.41
186.14	-242.47
186.522	-322.31
186.904	-347.45
187.287	-605.99
187.669	-335.79
188.051	-344.55
188.433	-541.65
188.815	-181.99
189.197	-187.78
189.579	-96.98
189.961	-69.6
190.342	-83.29
190.724	-55.71
191.106	-51.48
191.488	-54.68
191.869	-40.59
192.251	-48
192.633	-33.75
193.014	-59.95
193.396	-85.33
193.777	-76.43
194.159	-75.12
194.54	-65.85
194.922	-63.41
195.303	-69.93
195.684	-54
196.065	-31.34
196.447	-23.3
196.828	-63.43
197.209	-59.89
197.59	-81.71
197.971	-65.88
198.352	-26.41
198.733	-52.5
199.114	-51.72
199.495	-54.79
199.876	-36.13
200.257	-35.97
200.638	-30.82
201.018	-24.4
201.399	-6.33
201.78	12.96
202.16	0.91
202.541	-6.21
202.922	-17.36
203.302	-16.88
203.683	-24.21
204.063	-32.28
204.444	-38.14
204.824	-23.85
205.204	-17.26
205.585	-15.76
205.965	-29.28
206.345	-59.43
206.725	-56.41
207.106	-59.78
207.486	-73.35
207.866	-76.25
208.246	-61.39
208.626	-75.32
209.006	-43.68
209.386	-104.82
209.766	-100.77
210.145	-46.6
210.525	-26.19
210.905	-4.51
211.285	12.48
211.664	27.21
212.044	46.54
212.424	38.08
212.803	46.71
213.183	39.19
213.562	41.83
213.942	40.8
214.321	60
214.701	57.25
215.08	44.32
215.459	37.36
215.838	27.96
216.218	11
216.597	21.38
216.976	11.77
217.355	13.37
217.734	2.92
218.113	3.7
218.492	-5.62
218.871	-15.24
219.25	-12.14
219.629	-20.12
220.008	-22.77
220.387	-24.84
220.766	-23.51
221.144	-29.35
221.523	-48.05
221.902	-41.08
222.28	-45.53
222.659	-34.46
223.037	-22.05
223.416	-33.78
223.794	-21.18
224.173	-17.49
224.551	-22.92
224.929	-16.37
225.308	-5.67
225.686	-4.92
226.064	0.22
226.442	5.41
226.821	9.21
227.199	5.61
227.577	7.83
227.955	1.33
228.333	-0.02
228.711	2.03
229.089	6.4
229.467	8.77
229.845	5.99
230.222	7.89
230.6	5.38
230.978	5.17
231.356	6.86
231.733	5.77
232.111	8.84
232.488	9.27
232.866	7.59
233.243	6.18
233.621	6.93
233.998	7.2
234.376	4.97
234.753	4.7
235.13	4.61
235.508	5.72
235.885	6.97
236.262	7.33
236.639	4.93
237.016	3.02
237.393	4.27
237.77	5.99
238.147	5.9
238.524	6.21
238.901	6.81
239.278	6
239.655	6.51
240.032	5.75
240.409	5.07
240.785	5.31
241.162	5.85
241.539	5.39
241.915	5.21
242.292	5.44
242.668	5.26
243.045	6.06
243.421	5.94
243.798	5.47
244.174	5.58
244.551	5.68
244.927	5.47
245.303	5.08
245.679	4.94
246.056	4.85
246.432	4.99
246.808	4.88
247.184	5.08
247.56	4.74
247.936	4.47
248.312	4.4
248.688	4.52
249.064	4.21
249.44	4.27
249.815	4.18
250.191	4.09
250.567	4.11
250.943	3.54
251.318	3.67
251.694	3.83
252.069	3.88
252.445	3.82
252.82	3.97
253.196	4.12
253.571	4.24
253.947	4.1
254.322	4.02
254.697	3.84
255.073	3.82
255.448	3.88
255.823	4.05
256.198	4.41
256.573	4.22
256.948	4.36
257.323	4.87
257.698	4.71
258.073	4.86
258.448	4.98
258.823	5.01
259.198	4.83
259.573	4.65
259.948	4.47
260.322	4.63
260.697	4.63
261.072	4.57
261.446	4.6
261.821	4.6
262.195	4.63
262.57	4.66
262.944	4.65
263.319	4.74
263.693	4.83
264.067	4.91
264.442	5.2
264.816	5.13
265.19	4.89
265.564	5
265.938	4.76
266.313	4.67
266.687	4.88
267.061	5.08
267.435	5.32
267.809	5.43
268.183	5.26
268.556	5.23
268.93	5.24
269.304	4.99
269.678	5.18
270.051	5.18
270.425	5.16
270.799	5.09
271.172	5.01
271.546	5.03
271.919	4.91
272.293	4.72
272.666	4.87
273.04	4.73
273.413	4.71
273.787	4.9
274.16	4.94
274.533	4.96
274.906	4.89
275.279	4.85
275.653	4.8
276.026	4.86
276.399	4.81
276.772	4.84
277.145	4.8
277.518	4.5
277.891	4.33
278.263	4.26
278.636	4.19
279.009	4.25
279.382	4.25
279.755	4.05
280.127	4.19
280.5	4.04
280.872	4.19
281.245	4.24
281.617	4.28
281.99	4.33
282.362	4.35
282.735	4.17
283.107	4.12
283.479	4.19
283.852	4.11
284.224	4.02
284.596	3.94
284.968	3.94
285.34	4.14
285.713	4.31
286.085	4.32
286.457	4.35
286.829	4.4
287.201	4.4
287.572	4.47
287.944	4.41
288.316	4.44
288.688	4.43
289.06	4.44
289.431	4.39
289.803	4.45
290.175	4.29
290.546	4.42
290.918	4.47
291.289	4.49
291.661	4.61
292.032	4.88
292.403	5.05
292.775	5.22
293.146	5.23
293.517	5.18
293.889	5.44
294.26	5.61
294.631	5.64
295.002	5.74
295.373	5.85
295.744	5.92
296.115	5.98
296.486	5.89
296.857	5.95
297.228	5.98
297.599	5.83
297.97	6
298.34	6.03
298.711	6.19
299.082	6.05
299.452	5.98
299.823	5.98
300.194	6.02
300.564	6
300.935	5.95
301.305	5.96
301.676	5.93
302.046	5.92
302.416	6
302.787	5.99
303.157	5.99
303.527	6.03
303.897	5.96
304.267	6.33
304.637	6.35
305.008	6.4
305.378	6.63
305.748	6.58
306.117	6.53
306.487	6.51
306.857	6.83
307.227	7.01
307.597	6.87
307.967	6.75
308.336	6.72
308.706	6.79
309.076	6.86
309.445	6.81
309.815	6.83
310.184	6.74
310.554	6.79
310.923	6.76
311.293	6.76
311.662	6.85
312.031	6.65
312.401	6.72
312.77	6.83
313.139	6.82
313.508	6.83
313.877	6.84
314.246	6.78
314.616	6.56
314.985	6.45
315.353	6.46
315.722	6.57
316.091	6.57
316.46	6.55
316.829	6.5
317.198	6.5
317.567	6.39
317.935	6.51
318.304	6.41
318.672	6.46
319.041	6.52
319.41	6.51
319.778	6.46
320.147	6.35
320.515	6.1
320.883	5.9
321.252	5.99
321.62	6.07
321.988	6.09
322.357	6.23
322.725	6.26
323.093	6.25
323.461	6.37
323.829	6.4
324.197	6.44
324.565	6.57
324.933	6.51
325.301	6.53
325.669	6.37
326.037	6.4
326.405	6.38
326.772	6.32
327.14	6.32
327.508	6.42
327.875	6.37
328.243	6.49
328.61	6.6
328.978	6.45
329.346	6.48
329.713	6.48
330.08	6.32
330.448	6.27
330.815	6.25
331.182	6.18
331.55	6.23
331.917	6.24
332.284	6.28
332.651	6.34
333.018	6.41
333.385	6.55
333.752	6.59
334.119	6.61
334.486	6.65
334.853	6.65
335.22	6.68
335.587	6.74
335.954	6.75
336.32	6.68
336.687	6.79
337.054	6.86
337.42	6.97
337.787	7.08
338.153	7.04
338.52	7.07
338.886	6.97
339.253	6.92
339.619	6.89
339.986	6.86
340.352	6.92
340.718	6.86
341.084	6.82
341.451	6.85
341.817	6.86
342.183	6.84
342.549	6.87
342.915	6.93
343.281	6.97
343.647	6.89
344.013	6.96
344.379	6.85
344.745	6.81
345.11	6.7
345.476	6.71
345.842	6.77
346.208	6.87
346.573	6.94
346.939	7.07
347.304	7.1
347.67	7.05
348.035	6.99
348.401	7.05
348.766	7.05
349.132	7.07
349.497	6.98
349.862	7.05
350.228	7.02
350.593	6.89
350.958	6.85
351.323	6.94
351.688	7.01
352.053	7.11
352.418	7.06
352.783	7.07
353.148	7.11
353.513	7.14
353.878	7.04
354.243	7.09
354.608	7.04
354.972	7
355.337	6.98
355.702	6.99
356.066	6.96
356.431	6.92
356.795	6.93
357.16	6.93
357.524	6.85
357.889	6.77
358.253	6.82
358.618	6.8
358.982	6.75
359.346	6.71
359.71	6.69
360.075	6.67
360.439	6.68
360.803	6.6
361.167	6.54
361.531	6.51
361.895	6.44
362.259	6.42
362.623	6.45
362.987	6.41
363.351	6.43
363.714	6.44
364.078	6.48
364.442	6.43
364.806	6.5
365.169	6.5
365.533	6.6
365.896	6.58
366.26	6.6
366.623	6.58
366.987	6.58
367.35	6.62
367.714	6.71
368.077	6.65
368.44	6.67
368.803	6.67
369.167	6.71
369.53	6.65
369.893	6.67
370.256	6.69
370.619	6.66
370.982	6.63
371.345	6.62
371.708	6.6
372.071	6.59
372.434	6.57
372.797	6.55
373.159	6.55
373.522	6.62
373.885	6.57
374.247	6.59
374.61	6.65
374.973	6.56
375.335	6.41
375.698	6.44
376.06	6.45
376.423	6.48
376.785	6.5
377.147	6.63
377.51	6.63
377.872	6.61
378.234	6.68
378.596	6.71
378.958	6.72
379.321	6.75
379.683	6.77
380.045	6.75
380.407	6.74
380.769	6.69
381.13	6.66
381.492	6.68
381.854	6.7
382.216	6.62
382.578	6.66
382.939	6.76
383.301	6.78
383.663	6.71
384.024	6.75
384.386	6.78
384.747	6.75
385.109	6.76
385.47	6.73
385.832	6.73
386.193	6.73
386.554	6.77
386.916	6.76
387.277	6.75
387.638	6.79
387.999	6.82
388.36	6.85
388.721	6.82
389.082	6.84
389.443	6.85
389.804	6.86
390.165	6.85
390.526	6.83
390.887	6.81
391.248	6.9
391.609	6.89
391.969	6.89
392.33	6.85
392.691	6.83
393.051	6.84
393.412	6.83
393.772	6.82
394.133	6.8
394.493	6.81
394.854	6.77
395.214	6.78
395.574	6.76
395.935	6.8
396.295	6.81
396.655	6.77
397.015	6.76
397.376	6.76
397.736	6.77
398.096	6.79
398.456	6.85
398.816	6.84
399.176	6.79
399.535	6.77
399.895	6.76
400.255	6.79
400.615	6.78
400.975	6.81
401.334	6.82
401.694	6.78
402.054	6.75
402.413	6.77
402.773	6.71
403.132	6.7
403.492	6.65
403.851	6.69
404.211	6.73
404.57	6.72
404.929	6.72
405.288	6.7
405.648	6.7
406.007	6.66
406.366	6.67
406.725	6.7
407.084	6.7
407.443	6.72
407.802	6.7
408.161	6.71
408.52	6.68
408.879	6.68
409.238	6.69
409.596	6.74
409.955	6.76
410.314	6.78
410.673	6.76
411.031	6.76
411.39	6.73
411.748	6.69
412.107	6.71
412.465	6.71
412.824	6.71
413.182	6.7
413.54	6.69
413.899	6.67
414.257	6.64
414.615	6.64
414.974	6.65
415.332	6.66
415.69	6.68
416.048	6.66
416.406	6.64
416.764	6.63
417.122	6.61
417.48	6.57
417.838	6.59
418.195	6.59
418.553	6.61
418.911	6.62
419.269	6.61
419.626	6.64
419.984	6.63
420.342	6.65
420.699	6.64
421.057	6.64
421.414	6.64
421.772	6.64
422.129	6.64
422.486	6.64
422.844	6.63
423.201	6.61
423.558	6.61
423.915	6.61
424.273	6.61
424.63	6.61
424.987	6.62
425.344	6.61
425.701	6.62
426.058	6.59
426.415	6.58
426.772	6.59
427.128	6.57
427.485	6.57
427.842	6.55
428.199	6.54
428.555	6.55
428.912	6.54
429.269	6.55
429.625	6.55
429.982	6.54
430.338	6.53
430.695	6.52
431.051	6.52
431.407	6.54
431.764	6.56
432.12	6.56
432.476	6.58
432.832	6.57
433.189	6.57
433.545	6.58
433.901	6.58
434.257	6.56
434.613	6.57
434.969	6.56
435.325	6.57
435.681	6.57
436.036	6.56
436.392	6.56
436.748	6.55
437.104	6.53
437.459	6.53
437.815	6.54
438.171	6.56
438.526	6.57
438.882	6.59
439.237	6.59
439.593	6.58
439.948	6.58
440.304	6.59
440.659	6.6
441.014	6.6
441.369	6.6
441.725	6.6
442.08	6.57
442.435	6.58
442.79	6.59
443.145	6.59
443.5	6.61
443.855	6.63
444.21	6.64
444.565	6.65
444.92	6.66
445.275	6.65
445.629	6.65
445.984	6.65
446.339	6.62
446.693	6.6
447.048	6.59
447.403	6.58
447.757	6.57
448.112	6.56
448.466	6.55
448.82	6.54
449.175	6.56
449.529	6.55
449.883	6.55
450.238	6.55
450.592	6.54
450.946	6.52
451.3	6.5
451.654	6.5
452.008	6.5
452.362	6.49
452.716	6.5
453.07	6.5
453.424	6.51
453.778	6.5
454.132	6.51
454.486	6.52
454.839	6.53
455.193	6.55
455.547	6.55
455.9	6.58
456.254	6.6
456.607	6.61
456.961	6.61
457.314	6.59
457.668	6.59
458.021	6.6
458.375	6.6
458.728	6.6
459.081	6.59
459.434	6.59
459.787	6.61
460.141	6.61
460.494	6.6
460.847	6.6
461.2	6.61
461.553	6.61
461.906	6.63
462.259	6.61
462.611	6.61
462.964	6.62
463.317	6.62
463.67	6.62
464.022	6.61
464.375	6.62
464.728	6.65
465.08	6.66
465.433	6.66
465.785	6.66
466.138	6.68
466.49	6.69
466.843	6.68
467.195	6.66
467.547	6.65
467.899	6.66
468.252	6.66
468.604	6.67
468.956	6.67
469.308	6.66
469.66	6.66
470.012	6.68
470.364	6.69
470.716	6.69
471.068	6.69
471.42	6.69
471.772	6.71
472.123	6.69
472.475	6.7
472.827	6.72
473.178	6.73
473.53	6.74
473.882	6.75
474.233	6.74
474.585	6.74
474.936	6.74
475.288	6.74
475.639	6.75
475.99	6.76
476.342	6.76
476.693	6.77
477.044	6.79
477.395	6.77
477.746	6.75
478.097	6.72
478.448	6.73
478.8	6.73
479.15	6.71
479.501	6.72
479.852	6.73
480.203	6.74
480.554	6.74
480.905	6.75
481.255	6.76
481.606	6.76
481.957	6.79
482.307	6.79
482.658	6.8
483.009	6.8
483.359	6.8
483.709	6.82
484.06	6.82
484.41	6.84
484.761	6.84
485.111	6.84
485.461	6.86
485.811	6.86
486.162	6.86
486.512	6.88
486.862	6.88
487.212	6.87
487.562	6.88
487.912	6.88
488.262	6.88
488.612	6.88
488.961	6.88
489.311	6.87
489.661	6.87
490.011	6.87
490.36	6.86
490.71	6.87
491.06	6.86
491.409	6.85
491.759	6.83
492.108	6.83
492.458	6.82
492.807	6.81
493.157	6.81
493.506	6.81
493.855	6.81
494.204	6.81
494.554	6.82
494.903	6.8
495.252	6.78
495.601	6.78
495.95	6.78
496.299	6.79
496.648	6.8
496.997	6.8
497.346	6.82
497.695	6.82
498.043	6.81
498.392	6.82
498.741	6.83
499.09	6.84
499.438	6.86
499.787	6.89
500.135	6.91
500.484	6.93
500.832	6.9
501.181	6.9
501.529	6.9
501.878	6.9
502.226	6.91
502.574	6.93
502.923	6.94
503.271	6.96
503.619	6.96
503.967	6.96
504.315	6.94
504.663	6.93
505.011	6.94
505.359	6.95
505.707	6.96
506.055	6.97
506.403	6.98
506.751	6.99
507.098	6.99
507.446	6.99
507.794	7
508.141	7.03
508.489	7.04
508.837	7.06
509.184	7.07
509.531	7.09
509.879	7.12
510.226	7.15
510.574	7.14
510.921	7.15
511.268	7.17
511.616	7.2
511.963	7.21
512.31	7.24
512.657	7.27
513.004	7.28
513.351	7.3
513.698	7.29
514.045	7.3
514.392	7.29
514.739	7.29
515.086	7.31
515.432	7.31
515.779	7.3
516.126	7.29
516.473	7.29
516.819	7.3
517.166	7.29
517.512	7.28
517.859	7.3
518.205	7.3
518.552	7.3
518.898	7.31
519.245	7.32
519.591	7.3
519.937	7.29
520.283	7.3
520.629	7.29
520.976	7.3
521.322	7.29
521.668	7.28
522.014	7.29
522.36	7.29
522.706	7.31
523.052	7.35
523.398	7.36
523.743	7.36
524.089	7.34
524.435	7.34
524.781	7.34
525.126	7.34
525.472	7.36
525.817	7.36
526.163	7.37
526.509	7.38
526.854	7.39
527.199	7.4
527.545	7.39
527.89	7.39
528.235	7.39
528.581	7.41
528.926	7.42
529.271	7.42
529.616	7.41
529.961	7.4
530.306	7.39
530.651	7.39
530.996	7.41
531.341	7.43
531.686	7.43
532.031	7.45
532.376	7.45
532.721	7.46
533.065	7.45
533.41	7.45
533.755	7.44
534.099	7.44
534.444	7.44
534.788	7.45
535.133	7.46
535.477	7.47
535.822	7.46
536.166	7.45
536.51	7.45
536.855	7.47
537.199	7.49
537.543	7.49
537.887	7.47
538.231	7.45
538.576	7.45
538.92	7.46
539.264	7.46
539.608	7.47
539.951	7.46
540.295	7.47
540.639	7.48
540.983	7.47
541.327	7.48
541.671	7.48
542.014	7.49
542.358	7.5
542.701	7.49
543.045	7.5
543.389	7.51
543.732	7.53
544.075	7.53
544.419	7.53
544.762	7.55
545.105	7.57
545.449	7.58
545.792	7.59
546.135	7.57
546.478	7.56
546.821	7.57
547.165	7.59
547.508	7.59
547.851	7.59
548.194	7.6
548.536	7.59
548.879	7.61
549.222	7.58
549.565	7.58
549.908	7.59
550.25	7.6
550.593	7.6
550.936	7.59
551.278	7.58
551.621	7.56
551.963	7.56
552.306	7.54
552.648	7.56
552.991	7.58
553.333	7.61
553.675	7.6
554.017	7.62
554.36	7.59
554.702	7.6
555.044	7.61
555.386	7.63
555.728	7.66
556.07	7.65
556.412	7.65
556.754	7.63
557.096	7.63
557.438	7.64
557.78	7.66
558.121	7.67
558.463	7.65
558.805	7.64
559.147	7.65
559.488	7.68
559.83	7.64
560.171	7.64
560.513	7.61
560.854	7.62
561.196	7.62
561.537	7.63
561.878	7.62
562.22	7.58
562.561	7.55
562.902	7.55
563.243	7.57
563.584	7.61
563.925	7.66
564.266	7.65
564.607	7.61
564.948	7.59
565.289	7.61
565.63	7.62
565.971	7.64
566.312	7.62
566.653	7.63
566.993	7.63
567.334	7.61
567.675	7.63
568.015	7.63
568.356	7.65
568.696	7.65
569.037	7.67
569.377	7.7
569.718	7.7
570.058	7.7
570.398	7.69
570.739	7.66
571.079	7.62
571.419	7.62
571.759	7.65
572.099	7.63
572.439	7.6
572.779	7.58
573.119	7.6
573.459	7.62
573.799	7.62
574.139	7.63
574.479	7.66
574.819	7.68
575.158	7.66
575.498	7.65
575.838	7.66
576.177	7.63
576.517	7.62
576.856	7.65
577.196	7.63
577.535	7.62
577.875	7.63
578.214	7.67
578.553	7.7
578.893	7.7
579.232	7.7
579.571	7.71
579.91	7.73
580.25	7.74
580.589	7.76
580.928	7.76
581.267	7.74
581.606	7.71
581.945	7.64
582.283	7.68
582.622	7.64
582.961	7.62
583.3	7.65
583.639	7.66
583.977	7.65
584.316	7.68
584.654	7.68
584.993	7.72
585.332	7.75
585.67	7.73
586.008	7.72
586.347	7.73
586.685	7.77
587.024	7.77
587.362	7.74
587.7	7.74
588.038	7.79
588.376	7.84
588.715	7.85
589.053	7.92
589.391	7.94
589.729	7.94
590.067	7.94
590.404	7.96
590.742	8.01
591.08	8
591.418	8.03
591.756	8.01
592.093	7.99
592.431	8.02
592.769	8.03
593.106	8.02
593.444	8.03
593.781	8.03
594.119	8.05
594.456	8.08
594.793	8.06
595.131	8.01
595.468	8
595.805	8.04
596.143	8.01
596.48	8.01
596.817	8.04
597.154	8.05
597.491	8.05
597.828	8.02
598.165	8.01
598.502	8.02
598.839	8.06
599.176	8.07
599.512	8.05
599.849	8.03
600.186	8.02
600.523	8.03
600.859	8.08
601.196	8.09
601.532	8.05
601.869	8.05
602.205	8.08
602.542	8.1
602.878	8.06
603.215	8.07
603.551	8.06
603.887	8.08
604.223	8.08
604.56	8.07
604.896	8.05
605.232	8.11
605.568	8.08
605.904	8.04
606.24	8.06
606.576	8.05
606.912	8.05
607.248	8.09
607.583	8.13
607.919	8.07
608.255	8.04
608.591	8.05
608.926	8.04
609.262	8.06
609.597	8.04
609.933	8.06
610.268	8.08
610.604	8.11
610.939	8.09
611.275	8.09
611.61	8.11
611.945	8.15
612.281	8.08
612.616	8.08
612.951	8.14
613.286	8.15
613.621	8.15
613.956	8.16
614.291	8.14
614.626	8.12
614.961	8.13
615.296	8.15
615.631	8.18
615.966	8.21
616.3	8.19
616.635	8.23
616.97	8.24
617.304	8.24
617.639	8.22
617.973	8.23
618.308	8.24
618.642	8.28
618.977	8.26
619.311	8.35
619.646	8.37
619.98	8.31
620.314	8.3
620.648	8.32
620.983	8.39
621.317	8.4
621.651	8.39
621.985	8.4
622.319	8.42
622.653	8.44
622.987	8.45
623.321	8.47
623.655	8.48
623.988	8.48
624.322	8.46
624.656	8.47
624.99	8.48
625.323	8.5
625.657	8.47
625.99	8.45
626.324	8.42
626.657	8.4
626.991	8.42
627.324	8.41
627.658	8.36
627.991	8.35
628.324	8.34
628.657	8.33
628.991	8.37
629.324	8.39
629.657	8.42
629.99	8.46
630.323	8.46
630.656	8.44
630.989	8.39
631.322	8.37
631.655	8.38
631.987	8.4
632.32	8.37
632.653	8.38
632.986	8.45
633.318	8.44
633.651	8.46
633.984	8.43
634.316	8.42
634.649	8.46
634.981	8.44
635.313	8.47
635.646	8.51
635.978	8.48
636.31	8.44
636.643	8.37
636.975	8.32
637.307	8.28
637.639	8.32
637.971	8.35
638.303	8.37
638.635	8.31
638.967	8.3
639.299	8.31
639.631	8.25
639.963	8.16
640.295	8.18
640.626	8.22
640.958	8.28
641.29	8.31
641.621	8.3
641.953	8.3
642.285	8.3
642.616	8.29
642.948	8.3
643.279	8.33
643.61	8.38
643.942	8.42
644.273	8.41
644.604	8.4
644.936	8.43
645.267	8.44
645.598	8.5
645.929	8.47
646.26	8.43
646.591	8.48
646.922	8.52
647.253	8.51
647.584	8.5
647.915	8.5
648.245	8.49
648.576	8.53
648.907	8.53
649.238	8.43
649.568	8.47
649.899	8.47
650.229	8.41
650.56	8.42
650.89	8.43
651.221	8.42
651.551	8.38
651.882	8.39
652.212	8.38
652.542	8.34
652.872	8.37
653.203	8.49
653.533	8.53
653.863	8.52
654.193	8.49
654.523	8.57
654.853	8.61
655.183	8.64
655.513	8.57
655.843	8.59
656.172	8.63
656.502	8.53
656.832	8.53
657.162	8.59
657.491	8.5
657.821	8.49
658.15	8.52
658.48	8.53
658.809	8.52
659.139	8.57
659.468	8.56
659.798	8.53
660.127	8.47
660.456	8.46
660.785	8.47
661.115	8.47
661.444	8.41
661.773	8.38
662.102	8.31
662.431	8.41
662.76	8.39
663.089	8.43
663.418	8.44
663.747	8.37
664.076	8.35
664.404	8.39
664.733	8.43
665.062	8.39
665.39	8.41
665.719	8.41
666.048	8.48
666.376	8.46
666.705	8.46
667.033	8.47
667.362	8.52
667.69	8.5
668.018	8.56
668.347	8.52
668.675	8.5
669.003	8.57
669.331	8.54
669.659	8.58
669.987	8.56
670.315	8.65
670.643	8.74
670.971	8.76
671.299	8.78
671.627	8.81
671.955	8.91
672.283	8.93
672.61	8.95
672.938	8.86
673.266	8.95
673.593	9
673.921	8.98
674.249	8.91
674.576	8.98
674.904	9
675.231	9.04
675.558	9.08
675.886	9.13
676.213	9.13
676.54	9.17
676.867	9.29
677.195	9.29
677.522	9.4
677.849	9.39
678.176	9.49
678.503	9.39
678.83	9.37
679.157	9.28
679.484	9.21
679.81	9.2
680.137	9.03
680.464	9.01
680.791	9.06
681.117	9.05
681.444	9.05
681.771	9.03
682.097	8.96
682.424	9
682.75	8.95
683.077	8.88
683.403	8.87
683.729	8.75
684.056	8.77
684.382	8.68
684.708	8.63
685.034	8.49
685.36	8.53
685.686	8.48
686.012	8.49
686.339	8.62
686.664	8.59
686.99	8.74
687.316	8.72
687.642	8.77
687.968	8.82
688.294	8.8
688.619	8.87
688.945	8.9
689.271	8.79
689.596	8.8
689.922	8.88
690.247	8.8
690.573	8.82
690.898	8.65
691.224	8.66
691.549	8.75
691.874	8.69
692.2	8.72
692.525	8.78
692.85	8.92
693.175	8.84
693.5	8.82
693.825	8.76
694.15	8.86
694.475	8.74
694.8	8.8
695.125	8.79
695.45	8.68
695.775	8.74
696.099	8.82
696.424	8.78
696.749	8.75
697.073	8.77
697.398	8.85
697.723	9.02
698.047	8.98
698.372	8.91
698.696	8.99
699.02	9.02
699.345	9.02
699.669	8.97
699.993	9.02
700.318	9.08
700.642	9.14
700.966	9.09
701.29	9.09
701.614	8.98
701.938	9.05
702.262	9.17
702.586	9.21
702.91	9.18
703.234	9.17
703.557	9.32
703.881	9.31
704.205	9.31
704.529	9.26
704.852	9.37
705.176	9.46
705.499	9.57
705.823	9.6
706.146	9.52
706.47	9.64
706.793	9.6
707.117	9.6
707.44	9.54
707.763	9.54
708.086	9.63
708.409	9.82
708.733	9.78
709.056	9.72
709.379	9.78
709.702	9.73
710.025	9.81
710.348	9.64
710.671	9.56
710.993	9.61
711.316	9.59
711.639	9.61
711.962	9.58
712.284	9.59
712.607	9.54
712.93	9.62
713.252	9.52
713.575	9.56
713.897	9.61
714.22	9.65
714.542	9.64
714.864	9.54
715.187	9.48
715.509	9.43
715.831	9.4
716.153	9.37
716.475	9.48
716.798	9.66
717.12	9.7
717.442	9.84
717.764	9.86
718.085	9.84
718.407	9.73
718.729	9.74
719.051	9.64
719.373	9.54
719.695	9.6
720.016	9.56
720.338	9.45
720.659	9.56
720.981	9.58
721.302	9.52
721.624	9.46
721.945	9.47
722.267	9.52
722.588	9.52
722.909	9.43
723.231	9.28
723.552	9.01
723.873	9.05
724.194	8.86
724.515	8.76
724.836	8.88
725.157	8.94
725.478	8.75
725.799	8.81
726.12	8.89
726.441	8.83
726.762	8.8
727.083	8.89
727.403	8.77
727.724	8.95
728.045	9.12
728.365	9.37
728.686	9.3
729.006	9.29
729.327	9.28
729.647	9.39
729.967	9.45
730.288	9.47
730.608	9.25
730.928	9.35
731.249	9.4
731.569	9.37
731.889	9.55
732.209	9.86
732.529	9.85
732.849	9.96
733.169	10.01
733.489	10.18
733.809	10.14
734.129	10.19
734.448	10.3
734.768	10.21
735.088	10.07
735.408	10.11
735.727	10.29
736.047	10.47
736.366	10.2
736.686	10.26
737.005	10.31
737.325	10.59
737.644	10.65
737.963	10.57
738.283	10.5
738.602	10.26
738.921	10.26
739.24	10.27
739.56	10.16
739.879	10.22
740.198	10.07
740.517	10.19
740.836	10.15
741.155	9.83
741.473	9.81
741.792	9.94
742.111	9.95
742.43	9.9
742.748	9.76
743.067	9.93
743.386	9.91
743.704	9.86
744.023	9.86
744.341	9.69
744.66	10.14
744.978	10.41
745.297	10.39
745.615	10.42
745.933	10.35
746.252	10.44
746.57	10.29
746.888	10.45
747.206	10.37
747.524	10.34
747.842	10.43
748.16	10.61
748.478	10.49
748.796	10.63
749.114	10.76
749.432	10.62
749.749	10.81
750.067	10.81
750.385	10.93
750.703	11.11
751.02	11.16
751.338	10.82
751.655	10.58
751.973	10.72
752.29	10.53
752.608	10.57
752.925	10.63
753.242	10.6
753.56	10.53
753.877	10.66
754.194	10.82
754.511	10.82
754.828	10.65
755.145	10.6
755.462	10.28
755.779	10.22
756.096	10.52
756.413	10.38
756.73	10.43
757.047	10.32
757.364	9.86
757.68	9.88
757.997	10.02
758.314	10
758.63	9.98
758.947	9.92
759.264	9.97
759.58	9.95
759.896	10.03
760.213	10.01
760.529	10.05
760.846	10.02
761.162	9.86
761.478	10.13
761.794	10.14
762.11	10.24
762.426	10.07
762.743	9.98
763.059	10.11
763.375	10.04
763.69	10.31
764.006	10.73
764.322	10.75
764.638	10.6
764.954	10.94
765.27	10.84
765.585	10.99
765.901	11.18
766.216	11.23
766.532	11.3
766.848	11.17
767.163	11.1
767.478	11.1
767.794	11.25
768.109	11.03
768.424	11.15
768.74	11.34
769.055	11.48
769.37	11.61
769.685	11.36
770	11.67
770.315	11.45
770.63	11.23
770.945	11.43
771.26	11.5
771.575	11.38
771.89	11.4
772.205	11.37
772.52	10.96
772.834	10.62
773.149	10.63
773.464	10.89
773.778	10.92
774.093	10.81
774.407	11.15
774.722	11.26
775.036	11.43
775.351	11.17
775.665	11.16
775.979	11.03
776.293	11.52
776.608	11.23
776.922	11.16
777.236	11.16
777.55	10.95
777.864	10.74
778.178	10.66
778.492	10.76
778.806	10.66
779.12	10.92
779.434	11.56
779.747	11.47
780.061	11.4
780.375	11.3
780.689	11.36
781.002	11.26
781.316	11.53
781.629	11.49
781.943	11.6
782.256	11.59
782.57	11.77
782.883	11.67
783.196	11.71
783.51	11.56
783.823	11.8
784.136	11.96
784.449	12.66
784.762	12.39
785.075	12.92
785.388	13.25
785.701	13.17
786.014	12.76
786.327	12.87
786.64	13.57
786.953	14.03
787.266	13.95
787.578	13.53
787.891	13.67
788.204	13.77
788.516	13.82
788.829	13.86
789.141	14.13
789.454	14.03
789.766	14.07
790.079	14.31
790.391	13.94
790.703	14.3
791.016	13.95
791.328	14.31
791.64	13.72
791.952	13.77
792.264	13.71
792.576	13.44
792.888	13.41
793.2	13.02
793.512	12.68
793.824	12.95
794.136	13.04
794.448	12.72
794.76	12.87
795.071	12.78
795.383	12.83
795.695	12.28
796.006	12.33
796.318	12.39
796.629	12.56
796.941	12.64
797.252	12.3
797.564	12.23
797.875	11.76
798.186	11.82
798.497	11.68
798.809	11.61
799.12	11.96
799.431	12.16
799.742	12.18
800.053	12.45
800.364	12.33
800.675	12.44
800.986	12.01
801.297	11.35
801.608	11.38
801.918	10.8
802.229	10.81
802.54	10.81
802.851	10.83
803.161	10.65
803.472	10.64
803.782	10.69
804.093	11.07
804.403	11.24
804.714	11.71
805.024	11.51
805.334	11.33
805.645	11.32
805.955	11.17
806.265	10.93
806.575	10.48
806.885	10.34
807.195	11.02
807.505	11.27
807.815	11.81
808.125	11.7
808.435	12.68
808.745	13.25
809.055	13.37
809.365	13.13
809.674	13.32
809.984	13.46
810.294	13.45
810.603	13.4
810.913	14.06
811.222	13.92
811.532	14.25
811.841	15.39
812.151	15.98
812.46	15.79
812.769	15.8
813.079	15.99
813.388	16.36
813.697	15.66
814.006	15.42
814.315	15.28
814.624	15.06
814.933	14.72
815.242	14.32
815.551	13.48
815.86	13.42
816.169	12.89
816.478	13.07
816.786	13.07
817.095	13.26
817.404	12.64
817.712	12.38
818.021	12.4
818.33	12.19
818.638	12.16
818.947	12.72
819.255	12.73
819.563	12.83
819.872	12.41
820.18	12.62
820.488	12.61
820.796	12.51
821.105	12.59
821.413	12.65
821.721	12.54
822.029	12.85
822.337	12.9
822.645	13.08
822.953	12.86
823.26	12.9
823.568	12.73
823.876	12.8
824.184	12.91
824.491	12.92
824.799	12.84
825.107	12.77
825.414	12.64
825.722	12.75
826.029	12.81
826.337	12.99
826.644	13.01
826.951	13.13
827.259	13.36
827.566	13.36
827.873	13.45
828.18	13.53
828.488	13.59
828.795	13.79
829.102	13.76
829.409	13.95
829.716	13.87
830.023	14.02
830.329	13.99
830.636	13.94
830.943	14.02
831.25	13.67
831.557	13.69
831.863	14
832.17	13.75
832.476	13.69
832.783	13.6
833.089	13.36
833.396	13.5
833.702	13.4
834.009	13.3
834.315	12.96
834.621	12.97
834.928	12.81
835.234	12.28
835.54	12.21
835.846	12.41
836.152	12.6
836.458	12.84
836.764	12.55
837.07	12.12
837.376	11.69
837.682	11.8
837.988	11.42
838.293	11.03
838.599	10.81
838.905	10.74
839.211	10.86
839.516	11.45
839.822	11.57
840.127	11.15
840.433	11.62
840.738	11.58
841.044	12.03
841.349	11.83
841.654	12.49
841.959	11.72
842.265	11.24
842.57	11.49
842.875	10.83
843.18	11.12
843.485	11.56
843.79	11.75
844.095	12.52
844.4	14.43
844.705	13.78
845.01	15.26
845.315	15.18
845.619	15.01
845.924	14.17
846.229	14.04
846.533	15.17
846.838	15.98
847.142	15.45
847.447	14.39
847.751	14.35
848.056	13.14
848.36	15.3
848.664	16.06
848.969	15.67
849.273	15.06
849.577	15.31
849.881	15.55
850.185	15.78
850.489	16.54
850.794	14.42
851.097	16.03
851.401	14.46
851.705	12.97
852.009	13.04
852.313	12.45
852.617	11.29
852.92	11.17
853.224	10.47
853.528	12.26
853.831	13
854.135	14.28
854.438	15.73
854.742	15.35
855.045	14.72
855.349	14.72
855.652	13.97
855.955	13.44
856.259	14.17
856.562	14.73
856.865	14.52
857.168	16.02
857.471	15.65
857.774	15.95
858.077	17.6
858.38	18.84
858.683	19.23
858.986	19.98
859.289	20.37
859.592	18.31
859.894	16.99
860.197	16.78
860.5	17.24
860.802	17.05
861.105	17.49
861.407	16.72
861.71	15.89
862.012	16.3
862.315	17.55
862.617	17.13
862.919	16.64
863.222	14.3
863.524	12.51
863.826	11.26
864.128	12.28
864.43	12.22
864.732	13.63
865.034	14.76
865.336	13.99
865.638	12.22
865.94	13.65
866.242	13.83
866.544	13.81
866.846	13.17
867.147	12
867.449	11.43
867.751	13.63
868.052	14.09
868.354	14.24
868.655	13.61
868.957	12.88
869.258	13.35
869.56	15.44
869.861	16.58
870.162	16.6
870.463	15.72
870.765	14.74
871.066	10.82
871.367	7.95
871.668	8.53
871.969	9.32
872.27	8.85
872.571	7.75
872.872	7.73
873.173	7.68
873.473	8.96
873.774	9
874.075	8.37
874.376	8.4
874.676	8.66
874.977	8.9
875.277	11.42
875.578	10.66
875.878	10.07
876.179	9.81
876.479	10.9
876.78	10.01
877.08	10.21
877.38	11.55
877.68	14.06
877.981	14.6
878.281	13.79
878.581	15.45
