Data from BA57890_Reflection_00011.txt Node
Date: Mon Nov 18 15:06:18 EST 2019
User: vgr7
Spectrometer: USB2G7710
Scans to average: 3
Trigger mode: 4
Integration Time (sec): 2.000000E-2
Electric dark correction enabled: true
Boxcar width: 10
XAxis mode: Wavelengths
Number of Pixels in Spectrum: 2048
>>>>>Begin Spectral Data<<<<<
177.721	-84.13
178.105	-62.56
178.488	-8.57
178.871	-36.04
179.254	39.9
179.636	116.04
180.019	140.07
180.402	192.86
180.785	10.45
181.168	10.45
181.55	28.43
181.933	76.83
182.316	69.91
182.698	57.67
183.081	30.5
183.463	62.64
183.846	47.73
184.228	53.45
184.611	82.29
184.993	125.03
185.376	3.41
185.758	-18.76
186.14	-26.81
186.522	-17.21
186.904	11.84
187.287	27.61
187.669	16.56
188.051	51.85
188.433	-25.44
188.815	487.1
189.197	29.89
189.579	136.92
189.961	66.76
190.342	1721.62
190.724	540.37
191.106	-75.95
191.488	27.36
191.869	-316.18
192.251	-106.9
192.633	-1421.13
193.014	-148.38
193.396	-41.38
193.777	-29.9
194.159	-22.68
194.54	-51.1
194.922	-68.46
195.303	-33.9
195.684	17.81
196.065	-54.54
196.447	-44.38
196.828	-2.68
197.209	11.08
197.59	37.67
197.971	84.36
198.352	123.69
198.733	160.36
199.114	208.6
199.495	61.78
199.876	-59.23
200.257	-119.12
200.638	-128.9
201.018	-121.55
201.399	-108.61
201.78	-121.7
202.16	-214.31
202.541	-408.63
202.922	-419.93
203.302	-655.67
203.683	-368.34
204.063	-468.34
204.444	-223.43
204.824	-171.53
205.204	-176.66
205.585	-137.81
205.965	-141.25
206.345	-170.21
206.725	-245.51
207.106	-399.58
207.486	-1160.39
207.866	-2480.31
208.246	2743.36
208.626	-1443.57
209.006	-1190.57
209.386	474.31
209.766	467.86
210.145	-316.09
210.525	-194.88
210.905	-134.61
211.285	-93.97
211.664	-47.24
212.044	-36.43
212.424	-55.76
212.803	-39.89
213.183	-3.41
213.562	0.57
213.942	51.85
214.321	44.72
214.701	77.41
215.08	91.87
215.459	83.71
215.838	72.79
216.218	52.06
216.597	46.32
216.976	41.19
217.355	22.73
217.734	22.01
218.113	20.73
218.492	8.04
218.871	1.15
219.25	15.27
219.629	-5.01
220.008	-4.62
220.387	-6.6
220.766	-10.69
221.144	-22.42
221.523	-31.95
221.902	-39.28
222.28	-37.45
222.659	-49.21
223.037	-32.33
223.416	-48.76
223.794	-33.81
224.173	-32.54
224.551	-26.99
224.929	-25.66
225.308	-12.53
225.686	-10.03
226.064	-2.33
226.442	-4.49
226.821	-2.62
227.199	-3.66
227.577	-0.84
227.955	-3.57
228.333	-1.98
228.711	-1.77
229.089	3.4
229.467	0.58
229.845	-3.14
230.222	0.78
230.6	4.58
230.978	3.53
231.356	4.9
231.733	1.66
232.111	1.16
232.488	-1.4
232.866	0.57
233.243	1.36
233.621	0.38
233.998	1.88
234.376	3.71
234.753	4.21
235.13	3.15
235.508	4.04
235.885	3.94
236.262	4.68
236.639	4.22
237.016	3.05
237.393	4.77
237.77	5.67
238.147	4.86
238.524	3.89
238.901	3.48
239.278	3.24
239.655	4.07
240.032	4.56
240.409	4.3
240.785	3.78
241.162	3.48
241.539	3.37
241.915	2.77
242.292	1.77
242.668	2.16
243.045	2.37
243.421	2.36
243.798	2.59
244.174	2.53
244.551	2.75
244.927	2.53
245.303	2.56
245.679	2.54
246.056	2.38
246.432	2.55
246.808	2.44
247.184	2.21
247.56	2.04
247.936	2.11
248.312	2.14
248.688	2.07
249.064	1.92
249.44	1.82
249.815	1.85
250.191	2.33
250.567	2.19
250.943	1.96
251.318	2.05
251.694	1.93
252.069	2.08
252.445	2.21
252.82	2.29
253.196	2.26
253.571	2.25
253.947	2.14
254.322	2.11
254.697	2.14
255.073	2.47
255.448	2.36
255.823	2.16
256.198	2.23
256.573	2.29
256.948	2.38
257.323	2.59
257.698	2.66
258.073	2.43
258.448	2.37
258.823	2.47
259.198	2.25
259.573	2.32
259.948	2.16
260.322	1.99
260.697	1.93
261.072	1.88
261.446	1.92
261.821	2.1
262.195	2.16
262.57	2.05
262.944	1.95
263.319	1.93
263.693	1.91
264.067	1.92
264.442	1.98
264.816	1.89
265.19	1.62
265.564	1.62
265.938	1.66
266.313	1.73
266.687	1.71
267.061	2
267.435	1.81
267.809	1.93
268.183	2.11
268.556	2.12
268.93	2.09
269.304	1.95
269.678	1.92
270.051	1.8
270.425	1.9
270.799	1.9
271.172	1.97
271.546	2.05
271.919	2
272.293	2.02
272.666	2.1
273.04	2.31
273.413	2.3
273.787	2.41
274.16	2.33
274.533	2.26
274.906	2.04
275.279	2.24
275.653	2.15
276.026	2.16
276.399	2.1
276.772	2.01
277.145	2.16
277.518	2.15
277.891	2.18
278.263	2.17
278.636	2.23
279.009	2.21
279.382	2.3
279.755	2.4
280.127	2.49
280.5	2.49
280.872	2.54
281.245	2.42
281.617	2.41
281.99	2.47
282.362	2.58
282.735	2.48
283.107	2.49
283.479	2.5
283.852	2.39
284.224	2.42
284.596	2.6
284.968	2.67
285.34	2.77
285.713	2.75
286.085	2.87
286.457	2.9
286.829	3.05
287.201	2.99
287.572	2.81
287.944	2.67
288.316	2.69
288.688	2.78
289.06	2.83
289.431	2.87
289.803	2.91
290.175	2.94
290.546	3.17
290.918	3.21
291.289	3.32
291.661	3.29
292.032	3.44
292.403	3.4
292.775	3.39
293.146	3.16
293.517	3.13
293.889	3.04
294.26	3.12
294.631	3.08
295.002	3.13
295.373	3.29
295.744	3.36
296.115	3.23
296.486	3.04
296.857	2.98
297.228	3.07
297.599	3.06
297.97	3.04
298.34	3.05
298.711	3.01
299.082	2.86
299.452	3.02
299.823	3.01
300.194	3.04
300.564	3.05
300.935	3.2
301.305	3.22
301.676	3.3
302.046	3.3
302.416	3.32
302.787	3.31
303.157	3.37
303.527	3.46
303.897	3.65
304.267	3.76
304.637	4.02
305.008	4
305.378	4.15
305.748	4.07
306.117	4.03
306.487	4.1
306.857	4.29
307.227	4.19
307.597	4.23
307.967	4.27
308.336	4.24
308.706	4.29
309.076	4.33
309.445	4.42
309.815	4.37
310.184	4.36
310.554	4.37
310.923	4.41
311.293	4.35
311.662	4.31
312.031	4.35
312.401	4.29
312.77	4.33
313.139	4.33
313.508	4.53
313.877	4.45
314.246	4.55
314.616	4.49
314.985	4.64
315.353	4.59
315.722	4.74
316.091	4.86
316.46	4.97
316.829	5.24
317.198	5.26
317.567	5.35
317.935	5.43
318.304	5.53
318.672	5.65
319.041	5.81
319.41	6.04
319.778	6.13
320.147	6.24
320.515	6.3
320.883	6.34
321.252	6.4
321.62	6.52
321.988	6.61
322.357	6.82
322.725	6.87
323.093	7.05
323.461	7.04
323.829	7.06
324.197	6.98
324.565	7.03
324.933	7.09
325.301	7.25
325.669	7.26
326.037	7.31
326.405	7.26
326.772	7.3
327.14	7.39
327.508	7.48
327.875	7.46
328.243	7.52
328.61	7.53
328.978	7.6
329.346	7.69
329.713	7.64
330.08	7.54
330.448	7.49
330.815	7.45
331.182	7.56
331.55	7.65
331.917	7.74
332.284	7.7
332.651	7.82
333.018	7.83
333.385	7.93
333.752	7.98
334.119	8.05
334.486	7.92
334.853	7.84
335.22	7.87
335.587	7.88
335.954	7.78
336.32	7.8
336.687	7.81
337.054	7.88
337.42	8
337.787	8.06
338.153	8.22
338.52	8.26
338.886	8.16
339.253	8.14
339.619	8.14
339.986	8.06
340.352	8.05
340.718	8.03
341.084	7.95
341.451	7.97
341.817	7.98
342.183	8.13
342.549	8.15
342.915	8.21
343.281	8.29
343.647	8.34
344.013	8.58
344.379	8.49
344.745	8.56
345.11	8.52
345.476	8.52
345.842	8.48
346.208	8.37
346.573	8.45
346.939	8.56
347.304	8.55
347.67	8.64
348.035	8.64
348.401	8.71
348.766	8.74
349.132	8.73
349.497	8.77
349.862	8.87
350.228	8.83
350.593	8.72
350.958	8.56
351.323	8.61
351.688	8.45
352.053	8.53
352.418	8.46
352.783	8.46
353.148	8.48
353.513	8.39
353.878	8.45
354.243	8.52
354.608	8.51
354.972	8.57
355.337	8.63
355.702	8.68
356.066	8.69
356.431	8.67
356.795	8.72
357.16	8.68
357.524	8.55
357.889	8.52
358.253	8.58
358.618	8.61
358.982	8.63
359.346	8.56
359.71	8.53
360.075	8.58
360.439	8.56
360.803	8.5
361.167	8.58
361.531	8.58
361.895	8.47
362.259	8.35
362.623	8.33
362.987	8.3
363.351	8.21
363.714	8.1
364.078	8.06
364.442	8.03
364.806	7.97
365.169	7.93
365.533	7.98
365.896	7.95
366.26	7.96
366.623	7.87
366.987	7.89
367.35	7.91
367.714	7.81
368.077	7.79
368.44	7.8
368.803	7.71
369.167	7.7
369.53	7.67
369.893	7.63
370.256	7.61
370.619	7.54
370.982	7.43
371.345	7.41
371.708	7.38
372.071	7.26
372.434	7.18
372.797	7.16
373.159	7.08
373.522	7.06
373.885	6.97
374.247	6.94
374.61	6.88
374.973	6.78
375.335	6.74
375.698	6.66
376.06	6.56
376.423	6.5
376.785	6.45
377.147	6.43
377.51	6.39
377.872	6.32
378.234	6.28
378.596	6.31
378.958	6.27
379.321	6.22
379.683	6.21
380.045	6.2
380.407	6.12
380.769	6.09
381.13	5.98
381.492	5.97
381.854	5.95
382.216	5.9
382.578	5.87
382.939	5.84
383.301	5.78
383.663	5.78
384.024	5.7
384.386	5.72
384.747	5.66
385.109	5.66
385.47	5.59
385.832	5.55
386.193	5.53
386.554	5.5
386.916	5.44
387.277	5.4
387.638	5.38
387.999	5.38
388.36	5.35
388.721	5.34
389.082	5.34
389.443	5.29
389.804	5.22
390.165	5.17
390.526	5.1
390.887	5.09
391.248	5.06
391.609	5.05
391.969	4.97
392.33	4.91
392.691	4.89
393.051	4.82
393.412	4.77
393.772	4.68
394.133	4.64
394.493	4.62
394.854	4.57
395.214	4.51
395.574	4.51
395.935	4.46
396.295	4.41
396.655	4.32
397.015	4.26
397.376	4.24
397.736	4.21
398.096	4.2
398.456	4.17
398.816	4.15
399.176	4.09
399.535	4.06
399.895	4.04
400.255	4.02
400.615	4.03
400.975	3.97
401.334	3.95
401.694	3.94
402.054	3.92
402.413	3.89
402.773	3.85
403.132	3.79
403.492	3.74
403.851	3.73
404.211	3.72
404.57	3.72
404.929	3.68
405.288	3.65
405.648	3.62
406.007	3.57
406.366	3.55
406.725	3.56
407.084	3.54
407.443	3.56
407.802	3.52
408.161	3.5
408.52	3.49
408.879	3.46
409.238	3.44
409.596	3.43
409.955	3.44
410.314	3.45
410.673	3.42
411.031	3.42
411.39	3.41
411.748	3.39
412.107	3.37
412.465	3.34
412.824	3.33
413.182	3.32
413.54	3.32
413.899	3.28
414.257	3.25
414.615	3.23
414.974	3.2
415.332	3.19
415.69	3.18
416.048	3.18
416.406	3.19
416.764	3.15
417.122	3.14
417.48	3.09
417.838	3.05
418.195	3.04
418.553	3.03
418.911	3.02
419.269	3.01
419.626	2.99
419.984	2.97
420.342	2.96
420.699	2.94
421.057	2.92
421.414	2.9
421.772	2.89
422.129	2.87
422.486	2.86
422.844	2.83
423.201	2.82
423.558	2.8
423.915	2.78
424.273	2.77
424.63	2.74
424.987	2.73
425.344	2.75
425.701	2.74
426.058	2.73
426.415	2.71
426.772	2.7
427.128	2.69
427.485	2.68
427.842	2.68
428.199	2.69
428.555	2.67
428.912	2.69
429.269	2.71
429.625	2.7
429.982	2.7
430.338	2.72
430.695	2.72
431.051	2.71
431.407	2.72
431.764	2.73
432.12	2.72
432.476	2.75
432.832	2.72
433.189	2.72
433.545	2.72
433.901	2.71
434.257	2.72
434.613	2.72
434.969	2.72
435.325	2.7
435.681	2.7
436.036	2.7
436.392	2.69
436.748	2.66
437.104	2.66
437.459	2.65
437.815	2.64
438.171	2.63
438.526	2.63
438.882	2.62
439.237	2.62
439.593	2.64
439.948	2.63
440.304	2.63
440.659	2.63
441.014	2.61
441.369	2.6
441.725	2.58
442.08	2.59
442.435	2.6
442.79	2.61
443.145	2.59
443.5	2.59
443.855	2.58
444.21	2.58
444.565	2.59
444.92	2.61
445.275	2.58
445.629	2.58
445.984	2.57
446.339	2.56
446.693	2.53
447.048	2.53
447.403	2.52
447.757	2.5
448.112	2.49
448.466	2.48
448.82	2.49
449.175	2.51
449.529	2.49
449.883	2.46
450.238	2.45
450.592	2.46
450.946	2.45
451.3	2.44
451.654	2.43
452.008	2.41
452.362	2.38
452.716	2.39
453.07	2.4
453.424	2.39
453.778	2.39
454.132	2.4
454.486	2.41
454.839	2.4
455.193	2.42
455.547	2.43
455.9	2.43
456.254	2.43
456.607	2.42
456.961	2.42
457.314	2.44
457.668	2.44
458.021	2.41
458.375	2.41
458.728	2.4
459.081	2.42
459.434	2.41
459.787	2.42
460.141	2.44
460.494	2.44
460.847	2.43
461.2	2.45
461.553	2.46
461.906	2.45
462.259	2.47
462.611	2.46
462.964	2.47
463.317	2.5
463.67	2.52
464.022	2.52
464.375	2.54
464.728	2.54
465.08	2.55
465.433	2.57
465.785	2.6
466.138	2.61
466.49	2.62
466.843	2.63
467.195	2.66
467.547	2.65
467.899	2.66
468.252	2.65
468.604	2.69
468.956	2.67
469.308	2.7
469.66	2.72
470.012	2.75
470.364	2.76
470.716	2.76
471.068	2.75
471.42	2.73
471.772	2.74
472.123	2.73
472.475	2.75
472.827	2.78
473.178	2.78
473.53	2.77
473.882	2.76
474.233	2.75
474.585	2.74
474.936	2.73
475.288	2.74
475.639	2.77
475.99	2.74
476.342	2.75
476.693	2.73
477.044	2.73
477.395	2.74
477.746	2.72
478.097	2.69
478.448	2.69
478.8	2.69
479.15	2.65
479.501	2.64
479.852	2.63
480.203	2.63
480.554	2.64
480.905	2.66
481.255	2.67
481.606	2.66
481.957	2.66
482.307	2.66
482.658	2.65
483.009	2.64
483.359	2.63
483.709	2.64
484.06	2.63
484.41	2.63
484.761	2.64
485.111	2.64
485.461	2.64
485.811	2.65
486.162	2.65
486.512	2.67
486.862	2.68
487.212	2.69
487.562	2.68
487.912	2.68
488.262	2.68
488.612	2.68
488.961	2.7
489.311	2.7
489.661	2.71
490.011	2.71
490.36	2.72
490.71	2.75
491.06	2.76
491.409	2.77
491.759	2.78
492.108	2.78
492.458	2.81
492.807	2.82
493.157	2.83
493.506	2.85
493.855	2.87
494.204	2.89
494.554	2.9
494.903	2.92
495.252	2.93
495.601	2.96
495.95	2.98
496.299	3
496.648	3.02
496.997	3.07
497.346	3.12
497.695	3.18
498.043	3.19
498.392	3.22
498.741	3.26
499.09	3.3
499.438	3.35
499.787	3.39
500.135	3.43
500.484	3.49
500.832	3.54
501.181	3.59
501.529	3.66
501.878	3.74
502.226	3.82
502.574	3.87
502.923	3.95
503.271	4.02
503.619	4.09
503.967	4.16
504.315	4.21
504.663	4.29
505.011	4.35
505.359	4.43
505.707	4.52
506.055	4.62
506.403	4.7
506.751	4.79
507.098	4.88
507.446	4.99
507.794	5.08
508.141	5.17
508.489	5.26
508.837	5.36
509.184	5.45
509.531	5.54
509.879	5.67
510.226	5.78
510.574	5.89
510.921	6
511.268	6.11
511.616	6.24
511.963	6.34
512.31	6.46
512.657	6.62
513.004	6.73
513.351	6.86
513.698	7.01
514.045	7.15
514.392	7.31
514.739	7.45
515.086	7.6
515.432	7.76
515.779	7.9
516.126	8.04
516.473	8.18
516.819	8.34
517.166	8.47
517.512	8.6
517.859	8.73
518.205	8.85
518.552	9
518.898	9.11
519.245	9.24
519.591	9.39
519.937	9.51
520.283	9.66
520.629	9.81
520.976	9.96
521.322	10.12
521.668	10.28
522.014	10.46
522.36	10.67
522.706	10.86
523.052	11.07
523.398	11.32
523.743	11.56
524.089	11.79
524.435	12.01
524.781	12.24
525.126	12.41
525.472	12.63
525.817	12.8
526.163	12.98
526.509	13.16
526.854	13.31
527.199	13.45
527.545	13.59
527.89	13.73
528.235	13.89
528.581	14.04
528.926	14.21
529.271	14.36
529.616	14.51
529.961	14.68
530.306	14.85
530.651	14.99
530.996	15.18
531.341	15.37
531.686	15.56
532.031	15.76
532.376	15.99
532.721	16.21
533.065	16.45
533.41	16.68
533.755	16.91
534.099	17.16
534.444	17.39
534.788	17.64
535.133	17.89
535.477	18.13
535.822	18.38
536.166	18.65
536.51	18.92
536.855	19.21
537.199	19.5
537.543	19.81
537.887	20.13
538.231	20.41
538.576	20.69
538.92	20.97
539.264	21.24
539.608	21.49
539.951	21.71
540.295	21.92
540.639	22.16
540.983	22.37
541.327	22.58
541.671	22.81
542.014	23.02
542.358	23.21
542.701	23.42
543.045	23.63
543.389	23.82
543.732	24.03
544.075	24.23
544.419	24.45
544.762	24.67
545.105	24.92
545.449	25.17
545.792	25.45
546.135	25.77
546.478	26.06
546.821	26.37
547.165	26.67
547.508	27
547.851	27.27
548.194	27.55
548.536	27.84
548.879	28.14
549.222	28.43
549.565	28.69
549.908	28.99
550.25	29.28
550.593	29.55
550.936	29.86
551.278	30.19
551.621	30.48
551.963	30.75
552.306	31
552.648	31.28
552.991	31.52
553.333	31.77
553.675	32.01
554.017	32.22
554.36	32.47
554.702	32.67
555.044	32.86
555.386	33.12
555.728	33.39
556.07	33.61
556.412	33.83
556.754	34.05
557.096	34.24
557.438	34.46
557.78	34.71
558.121	34.92
558.463	35.08
558.805	35.28
559.147	35.5
559.488	35.7
559.83	35.9
560.171	36.1
560.513	36.21
560.854	36.33
561.196	36.45
561.537	36.61
561.878	36.79
562.22	37.01
562.561	37.13
562.902	37.23
563.243	37.36
563.584	37.48
563.925	37.64
564.266	37.81
564.607	37.91
564.948	38.02
565.289	38.13
565.63	38.31
565.971	38.4
566.312	38.49
566.653	38.59
566.993	38.69
567.334	38.81
567.675	38.93
568.015	39.06
568.356	39.21
568.696	39.31
569.037	39.39
569.377	39.48
569.718	39.55
570.058	39.67
570.398	39.76
570.739	39.79
571.079	39.84
571.419	39.93
571.759	40.03
572.099	40.11
572.439	40.24
572.779	40.3
573.119	40.41
573.459	40.47
573.799	40.63
574.139	40.7
574.479	40.78
574.819	40.93
575.158	41.07
575.498	41.17
575.838	41.27
576.177	41.39
576.517	41.48
576.856	41.62
577.196	41.73
577.535	41.93
577.875	42.16
578.214	42.4
578.553	42.59
578.893	42.77
579.232	42.89
579.571	43.04
579.91	43.2
580.25	43.38
580.589	43.6
580.928	43.68
581.267	43.78
581.606	43.95
581.945	44.07
582.283	44.09
582.622	44.22
582.961	44.34
583.3	44.48
583.639	44.59
583.977	44.69
584.316	44.78
584.654	44.76
584.993	44.81
585.332	44.83
585.67	44.83
586.008	44.79
586.347	44.84
586.685	44.79
587.024	44.84
587.362	44.81
587.7	44.84
588.038	44.81
588.376	44.88
588.715	44.84
589.053	44.84
589.391	44.88
589.729	44.96
590.067	44.94
590.404	44.93
590.742	45.01
591.08	45.04
591.418	45.09
591.756	45.16
592.093	45.21
592.431	45.17
592.769	45.16
593.106	45.28
593.444	45.3
593.781	45.32
594.119	45.29
594.456	45.29
594.793	45.32
595.131	45.4
595.468	45.42
595.805	45.49
596.143	45.5
596.48	45.61
596.817	45.63
597.154	45.72
597.491	45.81
597.828	45.79
598.165	45.78
598.502	45.79
598.839	45.86
599.176	45.9
599.512	45.98
599.849	45.97
600.186	45.97
600.523	46.03
600.859	46.1
601.196	46.17
601.532	46.22
601.869	46.21
602.205	46.17
602.542	46.21
602.878	46.18
603.215	46.2
603.551	46.21
603.887	46.18
604.223	46.16
604.56	46.11
604.896	46.17
605.232	46.26
605.568	46.32
605.904	46.29
606.24	46.32
606.576	46.4
606.912	46.48
607.248	46.53
607.583	46.54
607.919	46.61
608.255	46.66
608.591	46.73
608.926	46.82
609.262	46.99
609.597	47.04
609.933	47.12
610.268	47.21
610.604	47.17
610.939	47.24
611.275	47.29
611.61	47.31
611.945	47.42
612.281	47.45
612.616	47.52
612.951	47.59
613.286	47.59
613.621	47.59
613.956	47.66
614.291	47.69
614.626	47.75
614.961	47.83
615.296	47.88
615.631	47.96
615.966	47.99
616.3	47.98
616.635	48.06
616.97	48.16
617.304	48.23
617.639	48.36
617.973	48.42
618.308	48.52
618.642	48.59
618.977	48.57
619.311	48.64
619.646	48.58
619.98	48.55
620.314	48.64
620.648	48.64
620.983	48.7
621.317	48.75
621.651	48.87
621.985	48.83
622.319	48.82
622.653	48.8
622.987	48.74
623.321	48.68
623.655	48.56
623.988	48.5
624.322	48.4
624.656	48.32
624.99	48.33
625.323	48.29
625.657	48.3
625.99	48.23
626.324	48.2
626.657	48.2
626.991	48.31
627.324	48.33
627.658	48.35
627.991	48.35
628.324	48.34
628.657	48.3
628.991	48.33
629.324	48.38
629.657	48.45
629.99	48.44
630.323	48.53
630.656	48.67
630.989	48.72
631.322	48.71
631.655	48.76
631.987	48.85
632.32	48.91
632.653	48.89
632.986	48.93
633.318	48.93
633.651	48.96
633.984	48.95
634.316	48.99
634.649	49.04
634.981	49.06
635.313	49.11
635.646	49.13
635.978	49.17
636.31	49.3
636.643	49.22
636.975	49.35
637.307	49.35
637.639	49.36
637.971	49.48
638.303	49.68
638.635	49.74
638.967	49.63
639.299	49.66
639.631	49.75
639.963	49.76
640.295	49.9
640.626	49.99
640.958	49.95
641.29	49.97
641.621	49.97
641.953	50.06
642.285	50.12
642.616	50.18
642.948	50.18
643.279	50.03
643.61	50.13
643.942	50.18
644.273	50.19
644.604	50.14
644.936	50.06
645.267	49.88
645.598	49.9
645.929	49.93
646.26	49.95
646.591	49.98
646.922	50.02
647.253	49.97
647.584	50.02
647.915	50.04
648.245	50.03
648.576	50.07
648.907	49.97
649.238	49.91
649.568	49.86
649.899	49.77
650.229	49.83
650.56	49.88
650.89	49.82
651.221	49.88
651.551	49.98
651.882	50.06
652.212	50.19
652.542	50.2
652.872	50.17
653.203	50.13
653.533	50.1
653.863	50.15
654.193	50.14
654.523	50.03
654.853	50.1
655.183	50.15
655.513	50.12
655.843	50.12
656.172	50.1
656.502	50.14
656.832	50.14
657.162	50.13
657.491	50.1
657.821	50.17
658.15	50.12
658.48	50.05
658.809	49.97
659.139	49.97
659.468	49.98
659.798	50.06
660.127	50.1
660.456	50.16
660.785	50.16
661.115	50.24
661.444	50.3
661.773	50.25
662.102	50.26
662.431	50.35
662.76	50.49
663.089	50.56
663.418	50.65
663.747	50.85
664.076	50.87
664.404	50.91
664.733	50.91
665.062	51
665.39	51.09
665.719	51.19
666.048	51.28
666.376	51.38
666.705	51.33
667.033	51.3
667.362	51.36
667.69	51.32
668.018	51.25
668.347	51.36
668.675	51.39
669.003	51.29
669.331	51.25
669.659	51.24
669.987	51.31
670.315	51.33
670.643	51.21
670.971	51.26
671.299	51.29
671.627	51.22
671.955	51.19
672.283	51.27
672.61	51.26
672.938	51.22
673.266	51.2
673.593	51.37
673.921	51.46
674.249	51.32
674.576	51.42
674.904	51.5
675.231	51.45
675.558	51.48
675.886	51.53
676.213	51.54
676.54	51.5
676.867	51.36
677.195	51.28
677.522	51.19
677.849	51.12
678.176	50.99
678.503	50.98
678.83	50.97
679.157	50.86
679.484	50.82
679.81	50.75
680.137	50.7
680.464	50.54
680.791	50.53
681.117	50.6
681.444	50.52
681.771	50.4
682.097	50.38
682.424	50.37
682.75	50.37
683.077	50.34
683.403	50.29
683.729	50.4
684.056	50.28
684.382	50.29
684.708	50.24
685.034	50.31
685.36	50.33
685.686	50.39
686.012	50.4
686.339	50.38
686.664	50.45
686.99	50.54
687.316	50.68
687.642	50.72
687.968	50.7
688.294	50.82
688.619	50.75
688.945	50.84
689.271	50.87
689.596	50.91
689.922	51.04
690.247	50.98
690.573	50.99
690.898	51.18
691.224	51.22
691.549	51.4
691.874	51.35
692.2	51.27
692.525	51.26
692.85	51.25
693.175	51.3
693.5	51.33
693.825	51.33
694.15	51.29
694.475	51.32
694.8	51.33
695.125	51.13
695.45	51.17
695.775	50.97
696.099	50.84
696.424	50.65
696.749	50.59
697.073	50.61
697.398	50.49
697.723	50.45
698.047	50.48
698.372	50.38
698.696	50.42
699.02	50.46
699.345	50.56
699.669	50.6
699.993	50.67
700.318	50.68
700.642	50.65
700.966	50.53
701.29	50.35
701.614	50.37
701.938	50.52
702.262	50.62
702.586	50.83
702.91	50.81
703.234	51.02
703.557	50.89
703.881	50.82
704.205	50.86
704.529	50.95
704.852	50.95
705.176	51.08
705.499	51.21
705.823	51.18
706.146	50.93
706.47	51.06
706.793	51.02
707.117	50.96
707.44	50.93
707.763	50.97
708.086	51.12
708.409	51.08
708.733	51.08
709.056	51.1
709.379	51.24
709.702	51.29
710.025	51.22
710.348	51.45
710.671	51.61
710.993	51.67
711.316	51.54
711.639	51.62
711.962	51.46
712.284	51.32
712.607	51.4
712.93	51.5
713.252	51.29
713.575	51.21
713.897	51.08
714.22	51.02
714.542	50.94
714.864	50.79
715.187	50.92
715.509	50.76
715.831	50.73
716.153	50.57
716.475	50.71
716.798	50.86
717.12	50.84
717.442	50.72
717.764	50.81
718.085	50.92
718.407	50.86
718.729	50.94
719.051	50.97
719.373	50.97
719.695	50.9
720.016	51.22
720.338	51.26
720.659	51.57
720.981	51.46
721.302	51.52
721.624	51.57
721.945	51.33
722.267	51.37
722.588	51.63
722.909	51.53
723.231	51.52
723.552	51.31
723.873	51.26
724.194	51.22
724.515	50.99
724.836	50.93
725.157	50.83
725.478	50.77
725.799	50.78
726.12	50.68
726.441	50.8
726.762	50.67
727.083	50.73
727.403	50.68
727.724	50.91
728.045	51.07
728.365	51.06
728.686	51.1
729.006	51.19
729.327	50.84
729.647	50.74
729.967	50.77
730.288	50.85
730.608	50.63
730.928	50.88
731.249	50.9
731.569	50.94
731.889	51.05
732.209	51.23
732.529	51.28
732.849	51.34
733.169	51.22
733.489	51.07
733.809	51.12
734.129	51.15
734.448	50.95
734.768	50.86
735.088	51.14
735.408	51.15
735.727	51.04
736.047	51.26
736.366	51.44
736.686	51.39
737.005	51.12
737.325	51.31
737.644	51.01
737.963	51.21
738.283	51.15
738.602	51.17
738.921	51.16
739.24	51.21
739.56	51.31
739.879	51.35
740.198	51.66
740.517	51.62
740.836	51.49
741.155	51.68
741.473	51.88
741.792	51.68
742.111	51.92
742.43	52.09
742.748	52.03
743.067	52.1
743.386	52.19
743.704	52.74
744.023	52.8
744.341	53.12
744.66	53.03
744.978	53.09
745.297	53.05
745.615	52.67
745.933	52.69
746.252	52.69
746.57	52.63
746.888	52.17
747.206	51.97
747.524	52.12
747.842	51.97
748.16	51.86
748.478	51.93
748.796	51.97
749.114	52.24
749.432	52.01
749.749	51.75
750.067	51.72
750.385	51.55
750.703	51.58
751.02	51.44
751.338	51.51
751.655	51.51
751.973	51.79
752.29	51.98
752.608	51.7
752.925	51.9
753.242	52.12
753.56	52.3
753.877	52.33
754.194	52.04
754.511	52.08
754.828	51.82
755.145	51.73
755.462	51.5
755.779	51.24
756.096	51.39
756.413	51.38
756.73	51.12
757.047	51.12
757.364	50.84
757.68	50.84
757.997	50.54
758.314	50.4
758.63	50.14
758.947	50.25
759.264	50.32
759.58	50.08
759.896	49.99
760.213	49.94
760.529	50.08
760.846	49.97
761.162	49.86
761.478	49.88
761.794	49.61
762.11	49.44
762.426	49.42
762.743	49.36
763.059	49.26
763.375	49.38
763.69	49.37
764.006	49.42
764.322	49.55
764.638	49.81
764.954	49.88
765.27	49.8
765.585	49.81
765.901	50.12
766.216	50.34
766.532	50.51
766.848	50.5
767.163	50.61
767.478	50.82
767.794	51.31
768.109	51.45
768.424	51.56
768.74	52.01
769.055	51.95
769.37	52.24
769.685	52.67
770	52.71
770.315	53.11
770.63	53.31
770.945	53.13
771.26	52.82
771.575	53.13
771.89	53.36
772.205	53.37
772.52	52.97
772.834	52.6
773.149	52.13
773.464	51.97
773.778	52.01
774.093	51.79
774.407	51.65
774.722	51.82
775.036	52.2
775.351	52.16
775.665	52.35
775.979	51.98
776.293	51.65
776.608	51.91
776.922	51.22
777.236	51.3
777.55	51.05
777.864	51.72
778.178	51.79
778.492	51.5
778.806	51.47
779.12	51.48
779.434	51.39
779.747	51.42
780.061	51.43
780.375	51.11
780.689	51.07
781.002	50.85
781.316	50.86
781.629	50.49
781.943	50.28
782.256	50.33
782.57	50.77
782.883	50.84
783.196	50.99
783.51	50.9
783.823	50.87
784.136	51.41
784.449	50.8
784.762	50.16
785.075	50.59
785.388	50.27
785.701	50.49
786.014	50.52
786.327	50.71
786.64	50.96
786.953	51.32
787.266	51.7
787.578	51.77
787.891	51.52
788.204	52.11
788.516	52.68
788.829	52.63
789.141	52.24
789.454	52.56
789.766	52.5
790.079	52.97
790.391	52.87
790.703	52.6
791.016	52.79
791.328	52.98
791.64	52.92
791.952	53.24
792.264	52.62
792.576	53.02
792.888	53.01
793.2	53.31
793.512	52.66
793.824	52.48
794.136	52.03
794.448	51.74
794.76	51.47
795.071	50.92
795.383	50.58
795.695	50.48
796.006	50.41
796.318	49.92
796.629	49.7
796.941	49.83
797.252	50.19
797.564	49.89
797.875	49.69
798.186	49.33
798.497	48.95
798.809	49.15
799.12	48.75
799.431	48.71
799.742	48.54
800.053	48.94
800.364	49.1
800.675	49.41
800.986	49.59
801.297	49.59
801.608	49.13
801.918	49.16
802.229	49.29
802.54	48.73
802.851	48.4
803.161	48.73
803.472	48.27
803.782	48.26
804.093	48.98
804.403	48.98
804.714	48.96
805.024	49.62
805.334	50.39
805.645	50.38
805.955	50.52
806.265	51
806.575	51.22
806.885	51.1
807.195	50.32
807.505	50.09
807.815	49.85
808.125	50.19
808.435	49.84
808.745	49.88
809.055	50.06
809.365	50.74
809.674	50.36
809.984	50.87
810.294	51
810.603	50.88
810.913	51.68
811.222	51.63
811.532	51.09
811.841	50.93
812.151	51.26
812.46	50.72
812.769	49.93
813.079	49.92
813.388	49.96
813.697	51.31
814.006	51.47
814.315	51.41
814.624	51.93
814.933	52.91
815.242	53.04
815.551	52.64
815.86	52.92
816.169	52.61
816.478	52.4
816.786	52.19
817.095	51.54
817.404	51.37
817.712	52.02
818.021	51.98
818.33	50.78
818.638	50.11
818.947	50.56
819.255	50.73
819.563	50.44
819.872	50.01
820.18	49.87
820.488	50.04
820.796	49.94
821.105	49.63
821.413	49.38
821.721	49.06
822.029	49.18
822.337	49.07
822.645	49.28
822.953	49.34
823.26	49.22
823.568	49.28
823.876	49.09
824.184	48.98
824.491	49.07
824.799	49.26
825.107	49.45
825.414	49.29
825.722	49.15
826.029	49.13
826.337	49.39
826.644	49.26
826.951	49.44
827.259	49.5
827.566	49.44
827.873	49.6
828.18	49.99
828.488	50.06
828.795	49.73
829.102	49.61
829.409	49.49
829.716	49.58
830.023	49.65
830.329	49.59
830.636	49.53
830.943	49.6
831.25	49.89
831.557	50.05
831.863	50.2
832.17	50.3
832.476	50.61
832.783	50.31
833.089	50.09
833.396	49.65
833.702	50.59
834.009	50.89
834.315	50.49
834.621	50.34
834.928	49.91
835.234	51.03
835.54	50.72
835.846	50.92
836.152	50.69
836.458	50.37
836.764	50.72
837.07	50.86
837.376	50.57
837.682	50.34
837.988	49.81
838.293	50.11
838.599	49.55
838.905	49.39
839.211	49.43
839.516	49.71
839.822	49.55
840.127	48.31
840.433	48.07
840.738	48.24
841.044	48.42
841.349	49.71
841.654	48.72
841.959	49.69
842.265	49.65
842.57	50.09
842.875	50.48
843.18	50.59
843.485	51.4
843.79	51.63
844.095	51.11
844.4	52.4
844.705	51.43
845.01	52.17
845.315	52.28
845.619	51.52
845.924	51.85
846.229	52.6
846.533	51.92
846.838	52.71
847.142	51.95
847.447	50.63
847.751	49.43
848.056	49.08
848.36	48.61
848.664	50.12
848.969	47.49
849.273	46.78
849.577	45.94
849.881	44.3
850.185	44.3
850.489	45.68
850.794	43.95
851.097	46.58
851.401	46.28
851.705	46.78
852.009	48.24
852.313	47.24
852.617	45.35
852.92	46.84
853.224	47.61
853.528	49.92
853.831	50.97
854.135	50.53
854.438	49.83
854.742	49.85
855.045	49
855.349	51.63
855.652	53.56
855.955	54.9
856.259	54.09
856.562	53.43
856.865	53.24
857.168	53.96
857.471	53.66
857.774	56.04
858.077	53.59
858.38	54.54
858.683	56.31
858.986	56.31
859.289	56.03
859.592	53.92
859.894	53.25
860.197	53.11
860.5	52.05
860.802	52.18
861.105	53.12
861.407	52.57
861.71	52.86
862.012	51.1
862.315	50.62
862.617	49.48
862.919	52.13
863.222	52.65
863.524	52.55
863.826	49.8
864.128	50.7
864.43	52.18
864.732	51.23
865.034	48.8
865.336	49.11
865.638	46.93
865.94	45.73
866.242	45.75
866.544	43.26
866.846	44.74
867.147	47.7
867.449	47.98
867.751	45.88
868.052	47.01
868.354	49.94
868.655	51.33
868.957	53.08
869.258	49.06
869.56	46.85
869.861	45.98
870.162	46.3
870.463	44.43
870.765	42.68
871.066	41.23
871.367	44.08
871.668	46.38
871.969	49.54
872.27	50.63
872.571	52.29
872.872	55.35
873.173	57.14
873.473	52.24
873.774	49.85
874.075	50.79
874.376	50.34
874.676	48.71
874.977	47.35
875.277	48.84
875.578	52.39
875.878	52.97
876.179	53.5
876.479	55.46
876.78	54.96
877.08	56.88
877.38	58.26
877.68	56.55
877.981	55.3
878.281	52.68
878.581	54.17
