Data from BA57710_Reflection_00011.txt Node
Date: Mon Nov 18 15:32:01 EST 2019
User: vgr7
Spectrometer: USB2G7710
Scans to average: 3
Trigger mode: 4
Integration Time (sec): 2.000000E-2
Electric dark correction enabled: true
Boxcar width: 10
XAxis mode: Wavelengths
Number of Pixels in Spectrum: 2048
>>>>>Begin Spectral Data<<<<<
177.721	-19.45
178.105	-32.85
178.488	-21.86
178.871	-12.52
179.254	-266.46
179.636	78.09
180.019	-6.89
180.402	155.56
180.785	141.03
181.168	110.87
181.55	163.76
181.933	111.3
182.316	212.73
182.698	342.22
183.081	434.58
183.463	-946.69
183.846	-838.57
184.228	-320.42
184.611	-493.98
184.993	-169.96
185.376	-211.32
185.758	-278.2
186.14	-329.49
186.522	-356.63
186.904	-457.96
187.287	-878.22
187.669	-451.06
188.051	-483.41
188.433	-707.04
188.815	-262.19
189.197	-232.95
189.579	-135.54
189.961	-106.01
190.342	-130.45
190.724	-81.4
191.106	-98.05
191.488	-95.19
191.869	-102.23
192.251	-117.68
192.633	-121.69
193.014	-126.96
193.396	-142.5
193.777	-78.31
194.159	-116.17
194.54	-116.04
194.922	-104.74
195.303	-92.75
195.684	-90.41
196.065	-75.76
196.447	-85.08
196.828	-108.81
197.209	-104.59
197.59	-144.84
197.971	-155.44
198.352	-116.89
198.733	-185.48
199.114	-165.76
199.495	-164.17
199.876	-172.66
200.257	-124.04
200.638	-96.36
201.018	-112.57
201.399	-92.81
201.78	-86.93
202.16	-90.02
202.541	-93.54
202.922	-90.68
203.302	-105.31
203.683	-96.18
204.063	-107.62
204.444	-110.49
204.824	-126.18
205.204	-108.07
205.585	-96.7
205.965	-96.79
206.345	-94.07
206.725	-83.71
207.106	-96.59
207.486	-124
207.866	-108.06
208.246	-118.24
208.626	-180.75
209.006	-141.6
209.386	-200.24
209.766	-212.89
210.145	-135.16
210.525	-142.86
210.905	-107.27
211.285	-73.07
211.664	-63.07
212.044	-67.85
212.424	-35.89
212.803	-22.95
213.183	-25.4
213.562	-50.01
213.942	-51.35
214.321	-55.97
214.701	-49.5
215.08	-52.72
215.459	-24.03
215.838	-36.96
216.218	-52.09
216.597	-35.41
216.976	-25.6
217.355	-24.98
217.734	-22.68
218.113	-28.46
218.492	-27.34
218.871	-37.51
219.25	-44.78
219.629	-46.03
220.008	-38.6
220.387	-56.1
220.766	-59.77
221.144	-87.65
221.523	-88.62
221.902	-86.79
222.28	-85.65
222.659	-90.35
223.037	-72.77
223.416	-90.42
223.794	-75.55
224.173	-65.43
224.551	-44.24
224.929	-42.86
225.308	-38.42
225.686	-35.56
226.064	-30.61
226.442	-30.45
226.821	-22.57
227.199	-21.19
227.577	-24.83
227.955	-25.64
228.333	-20.69
228.711	-11.6
229.089	-6.54
229.467	-4.8
229.845	-5.2
230.222	-6.91
230.6	-6
230.978	-8.05
231.356	-6.11
231.733	-7.1
232.111	-4.66
232.488	-6.78
232.866	-7.03
233.243	-6.33
233.621	-6.39
233.998	-3.59
234.376	-4.4
234.753	-5.26
235.13	-4.76
235.508	-4.37
235.885	-4.64
236.262	-4.72
236.639	-6.51
237.016	-5.92
237.393	-4.61
237.77	-4.14
238.147	-2.22
238.524	-1.81
238.901	0.45
239.278	1.5
239.655	2.58
240.032	3.24
240.409	3.99
240.785	4.29
241.162	4.55
241.539	5.02
241.915	4.32
242.292	4.38
242.668	4.66
243.045	4.83
243.421	5.17
243.798	5.16
244.174	4.95
244.551	5.06
244.927	4.61
245.303	4.85
245.679	4.96
246.056	4.76
246.432	4.65
246.808	4.24
247.184	3.9
247.56	3.69
247.936	3.34
248.312	3.1
248.688	3.1
249.064	2.87
249.44	2.8
249.815	3.04
250.191	3.17
250.567	3.17
250.943	3.04
251.318	3.05
251.694	3.17
252.069	3.14
252.445	3.09
252.82	3.23
253.196	2.88
253.571	2.8
253.947	3.25
254.322	3.45
254.697	3.67
255.073	3.74
255.448	4.04
255.823	4.25
256.198	4.27
256.573	4.31
256.948	4.23
257.323	4.23
257.698	4.21
258.073	4.31
258.448	4.23
258.823	4.29
259.198	4.13
259.573	4
259.948	3.99
260.322	4.07
260.697	4.04
261.072	4.08
261.446	3.99
261.821	3.8
262.195	3.71
262.57	3.51
262.944	3.45
263.319	3.39
263.693	3.33
264.067	3.35
264.442	3.38
264.816	3.57
265.19	3.46
265.564	3.42
265.938	3.27
266.313	2.99
266.687	2.99
267.061	3.14
267.435	3.29
267.809	3.22
268.183	3.11
268.556	3.29
268.93	3.22
269.304	3.41
269.678	3.45
270.051	3.49
270.425	3.51
270.799	3.54
271.172	3.54
271.546	3.47
271.919	3.47
272.293	3.54
272.666	3.36
273.04	3.39
273.413	3.3
273.787	3.29
274.16	3.43
274.533	3.43
274.906	3.38
275.279	3.27
275.653	3.27
276.026	3.22
276.399	3.13
276.772	3.27
277.145	3.21
277.518	3.12
277.891	3.14
278.263	3.22
278.636	3.24
279.009	3.22
279.382	3.21
279.755	3.17
280.127	3.03
280.5	3.15
280.872	3.3
281.245	3.35
281.617	3.44
281.99	3.57
282.362	3.53
282.735	3.46
283.107	3.48
283.479	3.64
283.852	3.61
284.224	3.53
284.596	3.39
284.968	3.44
285.34	3.49
285.713	3.4
286.085	3.39
286.457	3.57
286.829	3.56
287.201	3.67
287.572	3.69
287.944	3.71
288.316	3.69
288.688	3.57
289.06	3.48
289.431	3.45
289.803	3.45
290.175	3.51
290.546	3.58
290.918	3.68
291.289	3.56
291.661	3.67
292.032	3.76
292.403	3.9
292.775	3.96
293.146	3.99
293.517	4
293.889	4.23
294.26	4.07
294.631	4.21
295.002	4.12
295.373	4.2
295.744	4.11
296.115	4.11
296.486	4.08
296.857	4.17
297.228	4.3
297.599	4.14
297.97	4.08
298.34	4.17
298.711	4.18
299.082	4.22
299.452	4.22
299.823	4.35
300.194	4.28
300.564	4.27
300.935	4.31
301.305	4.41
301.676	4.28
302.046	4.34
302.416	4.34
302.787	4.4
303.157	4.34
303.527	4.47
303.897	4.54
304.267	4.75
304.637	4.77
305.008	4.66
305.378	4.94
305.748	5
306.117	4.86
306.487	4.91
306.857	4.97
307.227	5.04
307.597	4.95
307.967	5.02
308.336	5.01
308.706	5.06
309.076	5.1
309.445	5.03
309.815	4.92
310.184	4.84
310.554	4.96
310.923	4.88
311.293	4.94
311.662	5.02
312.031	5
312.401	5.12
312.77	5.23
313.139	5.26
313.508	5.39
313.877	5.55
314.246	5.57
314.616	5.67
314.985	5.63
315.353	5.55
315.722	5.6
316.091	5.63
316.46	5.5
316.829	5.7
317.198	5.86
317.567	6.02
317.935	6.02
318.304	6.07
318.672	6.22
319.041	6.37
319.41	6.41
319.778	6.39
320.147	6.42
320.515	6.38
320.883	6.31
321.252	6.33
321.62	6.41
321.988	6.61
322.357	6.65
322.725	6.77
323.093	6.88
323.461	6.85
323.829	6.75
324.197	6.86
324.565	6.76
324.933	6.78
325.301	6.91
325.669	7.16
326.037	7.2
326.405	7.37
326.772	7.42
327.14	7.48
327.508	7.6
327.875	7.46
328.243	7.53
328.61	7.49
328.978	7.6
329.346	7.61
329.713	7.41
330.08	7.35
330.448	7.27
330.815	7.32
331.182	7.43
331.55	7.58
331.917	7.63
332.284	7.69
332.651	7.7
333.018	7.79
333.385	7.8
333.752	7.78
334.119	7.77
334.486	7.59
334.853	7.58
335.22	7.55
335.587	7.78
335.954	7.71
336.32	7.72
336.687	7.6
337.054	7.71
337.42	7.78
337.787	7.88
338.153	8.03
338.52	7.98
338.886	7.94
339.253	8.03
339.619	8.05
339.986	8.08
340.352	8.27
340.718	8.15
341.084	8.02
341.451	8.08
341.817	8.14
342.183	8.24
342.549	8.28
342.915	8.48
343.281	8.37
343.647	8.46
344.013	8.51
344.379	8.37
344.745	8.18
345.11	8.26
345.476	8.28
345.842	8.23
346.208	8.25
346.573	8.28
346.939	8.29
347.304	8.42
347.67	8.42
348.035	8.3
348.401	8.26
348.766	8.29
349.132	8.24
349.497	8.14
349.862	8.19
350.228	8.15
350.593	7.97
350.958	8.03
351.323	8.02
351.688	8.08
352.053	8.34
352.418	8.51
352.783	8.49
353.148	8.38
353.513	8.42
353.878	8.56
354.243	8.64
354.608	8.66
354.972	8.64
355.337	8.63
355.702	8.71
356.066	8.86
356.431	8.79
356.795	8.9
357.16	8.97
357.524	8.89
357.889	8.89
358.253	8.97
358.618	9.01
358.982	8.97
359.346	8.97
359.71	8.85
360.075	8.8
360.439	8.8
360.803	8.86
361.167	8.82
361.531	8.77
361.895	8.68
362.259	8.59
362.623	8.55
362.987	8.5
363.351	8.48
363.714	8.48
364.078	8.56
364.442	8.44
364.806	8.37
365.169	8.4
365.533	8.37
365.896	8.29
366.26	8.16
366.623	8.17
366.987	8.16
367.35	8.21
367.714	8.19
368.077	8.14
368.44	8.09
368.803	8.17
369.167	8.09
369.53	8
369.893	8.03
370.256	8.04
370.619	8.05
370.982	7.93
371.345	7.82
371.708	7.75
372.071	7.71
372.434	7.7
372.797	7.66
373.159	7.67
373.522	7.63
373.885	7.63
374.247	7.51
374.61	7.47
374.973	7.37
375.335	7.29
375.698	7.21
376.06	7.13
376.423	6.99
376.785	7
377.147	7.08
377.51	6.97
377.872	6.94
378.234	6.87
378.596	6.87
378.958	6.81
379.321	6.75
379.683	6.76
380.045	6.7
380.407	6.62
380.769	6.57
381.13	6.5
381.492	6.47
381.854	6.49
382.216	6.44
382.578	6.41
382.939	6.4
383.301	6.41
383.663	6.38
384.024	6.33
384.386	6.32
384.747	6.24
385.109	6.24
385.47	6.12
385.832	6.1
386.193	6.09
386.554	6.06
386.916	6.02
387.277	6.01
387.638	6.01
387.999	5.97
388.36	5.91
388.721	5.89
389.082	5.84
389.443	5.78
389.804	5.74
390.165	5.69
390.526	5.67
390.887	5.57
391.248	5.57
391.609	5.56
391.969	5.46
392.33	5.43
392.691	5.41
393.051	5.36
393.412	5.32
393.772	5.26
394.133	5.27
394.493	5.26
394.854	5.21
395.214	5.14
395.574	5.1
395.935	5.07
396.295	5.05
396.655	5.01
397.015	4.96
397.376	4.92
397.736	4.89
398.096	4.84
398.456	4.83
398.816	4.79
399.176	4.72
399.535	4.7
399.895	4.65
400.255	4.63
400.615	4.62
400.975	4.59
401.334	4.57
401.694	4.49
402.054	4.46
402.413	4.43
402.773	4.38
403.132	4.36
403.492	4.35
403.851	4.34
404.211	4.34
404.57	4.37
404.929	4.35
405.288	4.34
405.648	4.31
406.007	4.27
406.366	4.24
406.725	4.29
407.084	4.3
407.443	4.3
407.802	4.28
408.161	4.3
408.52	4.27
408.879	4.25
409.238	4.26
409.596	4.26
409.955	4.24
410.314	4.28
410.673	4.26
411.031	4.24
411.39	4.21
411.748	4.19
412.107	4.18
412.465	4.16
412.824	4.15
413.182	4.15
413.54	4.16
413.899	4.15
414.257	4.11
414.615	4.06
414.974	4.03
415.332	4.01
415.69	3.99
416.048	3.98
416.406	3.98
416.764	3.96
417.122	3.93
417.48	3.91
417.838	3.9
418.195	3.9
418.553	3.88
418.911	3.86
419.269	3.83
419.626	3.81
419.984	3.8
420.342	3.8
420.699	3.77
421.057	3.76
421.414	3.74
421.772	3.74
422.129	3.73
422.486	3.72
422.844	3.72
423.201	3.71
423.558	3.69
423.915	3.68
424.273	3.67
424.63	3.66
424.987	3.65
425.344	3.63
425.701	3.61
426.058	3.6
426.415	3.59
426.772	3.6
427.128	3.58
427.485	3.58
427.842	3.54
428.199	3.54
428.555	3.52
428.912	3.53
429.269	3.52
429.625	3.52
429.982	3.49
430.338	3.48
430.695	3.47
431.051	3.47
431.407	3.46
431.764	3.45
432.12	3.44
432.476	3.43
432.832	3.42
433.189	3.4
433.545	3.39
433.901	3.39
434.257	3.39
434.613	3.41
434.969	3.41
435.325	3.43
435.681	3.45
436.036	3.46
436.392	3.45
436.748	3.43
437.104	3.43
437.459	3.44
437.815	3.44
438.171	3.44
438.526	3.46
438.882	3.45
439.237	3.47
439.593	3.48
439.948	3.47
440.304	3.49
440.659	3.51
441.014	3.51
441.369	3.5
441.725	3.49
442.08	3.47
442.435	3.45
442.79	3.46
443.145	3.44
443.5	3.45
443.855	3.44
444.21	3.44
444.565	3.44
444.92	3.45
445.275	3.44
445.629	3.45
445.984	3.43
446.339	3.42
446.693	3.4
447.048	3.37
447.403	3.38
447.757	3.35
448.112	3.35
448.466	3.35
448.82	3.36
449.175	3.36
449.529	3.36
449.883	3.35
450.238	3.34
450.592	3.33
450.946	3.32
451.3	3.31
451.654	3.3
452.008	3.3
452.362	3.27
452.716	3.28
453.07	3.26
453.424	3.26
453.778	3.27
454.132	3.26
454.486	3.28
454.839	3.29
455.193	3.28
455.547	3.28
455.9	3.27
456.254	3.26
456.607	3.24
456.961	3.26
457.314	3.28
457.668	3.28
458.021	3.28
458.375	3.29
458.728	3.31
459.081	3.32
459.434	3.31
459.787	3.32
460.141	3.32
460.494	3.33
460.847	3.33
461.2	3.31
461.553	3.3
461.906	3.31
462.259	3.32
462.611	3.33
462.964	3.34
463.317	3.34
463.67	3.37
464.022	3.36
464.375	3.35
464.728	3.34
465.08	3.34
465.433	3.35
465.785	3.33
466.138	3.33
466.49	3.34
466.843	3.34
467.195	3.37
467.547	3.38
467.899	3.38
468.252	3.37
468.604	3.41
468.956	3.4
469.308	3.41
469.66	3.42
470.012	3.41
470.364	3.43
470.716	3.43
471.068	3.41
471.42	3.43
471.772	3.45
472.123	3.45
472.475	3.45
472.827	3.43
473.178	3.46
473.53	3.46
473.882	3.45
474.233	3.46
474.585	3.45
474.936	3.44
475.288	3.45
475.639	3.45
475.99	3.43
476.342	3.46
476.693	3.45
477.044	3.46
477.395	3.46
477.746	3.45
478.097	3.47
478.448	3.48
478.8	3.49
479.15	3.48
479.501	3.5
479.852	3.5
480.203	3.52
480.554	3.51
480.905	3.52
481.255	3.52
481.606	3.53
481.957	3.53
482.307	3.54
482.658	3.54
483.009	3.54
483.359	3.54
483.709	3.55
484.06	3.54
484.41	3.54
484.761	3.54
485.111	3.54
485.461	3.54
485.811	3.53
486.162	3.53
486.512	3.53
486.862	3.53
487.212	3.53
487.562	3.54
487.912	3.53
488.262	3.53
488.612	3.54
488.961	3.54
489.311	3.53
489.661	3.53
490.011	3.52
490.36	3.53
490.71	3.54
491.06	3.52
491.409	3.53
491.759	3.53
492.108	3.54
492.458	3.55
492.807	3.55
493.157	3.56
493.506	3.57
493.855	3.58
494.204	3.57
494.554	3.59
494.903	3.59
495.252	3.61
495.601	3.65
495.95	3.65
496.299	3.66
496.648	3.68
496.997	3.7
497.346	3.74
497.695	3.77
498.043	3.79
498.392	3.82
498.741	3.84
499.09	3.87
499.438	3.89
499.787	3.92
500.135	3.94
500.484	3.99
500.832	4.02
501.181	4.04
501.529	4.09
501.878	4.13
502.226	4.16
502.574	4.21
502.923	4.23
503.271	4.28
503.619	4.34
503.967	4.38
504.315	4.46
504.663	4.5
505.011	4.55
505.359	4.63
505.707	4.7
506.055	4.76
506.403	4.8
506.751	4.88
507.098	4.95
507.446	5.03
507.794	5.07
508.141	5.16
508.489	5.24
508.837	5.33
509.184	5.42
509.531	5.49
509.879	5.58
510.226	5.66
510.574	5.74
510.921	5.82
511.268	5.92
511.616	5.98
511.963	6.08
512.31	6.16
512.657	6.25
513.004	6.35
513.351	6.48
513.698	6.6
514.045	6.7
514.392	6.82
514.739	6.92
515.086	7.03
515.432	7.16
515.779	7.26
516.126	7.38
516.473	7.51
516.819	7.65
517.166	7.73
517.512	7.84
517.859	7.95
518.205	8.07
518.552	8.2
518.898	8.32
519.245	8.41
519.591	8.52
519.937	8.63
520.283	8.75
520.629	8.88
520.976	9.05
521.322	9.18
521.668	9.34
522.014	9.52
522.36	9.74
522.706	9.95
523.052	10.18
523.398	10.43
523.743	10.65
524.089	10.88
524.435	11.14
524.781	11.35
525.126	11.56
525.472	11.75
525.817	11.9
526.163	12.07
526.509	12.24
526.854	12.4
527.199	12.57
527.545	12.72
527.89	12.85
528.235	12.99
528.581	13.15
528.926	13.32
529.271	13.5
529.616	13.64
529.961	13.8
530.306	13.97
530.651	14.13
530.996	14.33
531.341	14.53
531.686	14.72
532.031	14.93
532.376	15.16
532.721	15.39
533.065	15.65
533.41	15.9
533.755	16.15
534.099	16.39
534.444	16.65
534.788	16.93
535.133	17.21
535.477	17.46
535.822	17.75
536.166	18.02
536.51	18.33
536.855	18.69
537.199	19.04
537.543	19.37
537.887	19.75
538.231	20.07
538.576	20.4
538.92	20.76
539.264	21.11
539.608	21.44
539.951	21.75
540.295	22.05
540.639	22.32
540.983	22.59
541.327	22.9
541.671	23.16
542.014	23.44
542.358	23.7
542.701	23.95
543.045	24.25
543.389	24.53
543.732	24.8
544.075	25.07
544.419	25.34
544.762	25.63
545.105	25.9
545.449	26.23
545.792	26.58
546.135	26.88
546.478	27.22
546.821	27.55
547.165	27.89
547.508	28.27
547.851	28.64
548.194	29.04
548.536	29.37
548.879	29.75
549.222	30.08
549.565	30.47
549.908	30.84
550.25	31.16
550.593	31.54
550.936	31.93
551.278	32.29
551.621	32.66
551.963	33.03
552.306	33.42
552.648	33.78
552.991	34.12
553.333	34.48
553.675	34.83
554.017	35.17
554.36	35.48
554.702	35.75
555.044	36.09
555.386	36.41
555.728	36.68
556.07	37.01
556.412	37.29
556.754	37.54
557.096	37.87
557.438	38.22
557.78	38.49
558.121	38.8
558.463	39.1
558.805	39.4
559.147	39.7
559.488	39.95
559.83	40.2
560.171	40.43
560.513	40.72
560.854	40.91
561.196	41.16
561.537	41.4
561.878	41.67
562.22	41.97
562.561	42.21
562.902	42.53
563.243	42.79
563.584	43.05
563.925	43.35
564.266	43.58
564.607	43.78
564.948	43.99
565.289	44.19
565.63	44.4
565.971	44.6
566.312	44.8
566.653	45.06
566.993	45.3
567.334	45.52
567.675	45.72
568.015	45.95
568.356	46.19
568.696	46.46
569.037	46.68
569.377	46.81
569.718	46.99
570.058	47.13
570.398	47.29
570.739	47.46
571.079	47.65
571.419	47.8
571.759	47.98
572.099	48.16
572.439	48.32
572.779	48.47
573.119	48.6
573.459	48.73
573.799	48.87
574.139	49
574.479	49.12
574.819	49.27
575.158	49.37
575.498	49.49
575.838	49.55
576.177	49.62
576.517	49.76
576.856	49.9
577.196	50.05
577.535	50.16
577.875	50.28
578.214	50.34
578.553	50.51
578.893	50.62
579.232	50.77
579.571	50.89
579.91	50.97
580.25	51.1
580.589	51.2
580.928	51.27
581.267	51.42
581.606	51.52
581.945	51.59
582.283	51.67
582.622	51.76
582.961	51.87
583.3	51.97
583.639	52.11
583.977	52.24
584.316	52.35
584.654	52.48
584.993	52.59
585.332	52.8
585.67	52.87
586.008	53.02
586.347	53.09
586.685	53.16
587.024	53.33
587.362	53.39
587.7	53.5
588.038	53.76
588.376	53.82
588.715	53.98
589.053	54.1
589.391	54.28
589.729	54.34
590.067	54.44
590.404	54.54
590.742	54.6
591.08	54.7
591.418	54.78
591.756	54.9
592.093	55.04
592.431	55.14
592.769	55.15
593.106	55.22
593.444	55.34
593.781	55.42
594.119	55.49
594.456	55.53
594.793	55.59
595.131	55.57
595.468	55.54
595.805	55.58
596.143	55.58
596.48	55.57
596.817	55.71
597.154	55.74
597.491	55.75
597.828	55.82
598.165	55.9
598.502	56.03
598.839	56.07
599.176	56.18
599.512	56.26
599.849	56.37
600.186	56.4
600.523	56.5
600.859	56.65
601.196	56.74
601.532	56.79
601.869	56.87
602.205	56.91
602.542	57.09
602.878	57.11
603.215	57.17
603.551	57.31
603.887	57.38
604.223	57.47
604.56	57.54
604.896	57.55
605.232	57.57
605.568	57.5
605.904	57.51
606.24	57.46
606.576	57.45
606.912	57.48
607.248	57.48
607.583	57.52
607.919	57.46
608.255	57.49
608.591	57.62
608.926	57.75
609.262	57.78
609.597	57.84
609.933	57.98
610.268	58.03
610.604	58.06
610.939	58.02
611.275	58.08
611.61	58.13
611.945	58.16
612.281	58.19
612.616	58.3
612.951	58.4
613.286	58.48
613.621	58.44
613.956	58.52
614.291	58.55
614.626	58.57
614.961	58.65
615.296	58.74
615.631	58.65
615.966	58.58
616.3	58.61
616.635	58.58
616.97	58.52
617.304	58.62
617.639	58.66
617.973	58.8
618.308	58.8
618.642	58.87
618.977	58.94
619.311	59
619.646	59.04
619.98	59.07
620.314	59.1
620.648	59.14
620.983	59.3
621.317	59.35
621.651	59.38
621.985	59.4
622.319	59.45
622.653	59.62
622.987	59.69
623.321	59.76
623.655	59.76
623.988	59.88
624.322	59.85
624.656	59.86
624.99	59.81
625.323	59.85
625.657	59.91
625.99	59.97
626.324	59.99
626.657	60.05
626.991	60.09
627.324	60.08
627.658	60.19
627.991	60.1
628.324	60.14
628.657	60.15
628.991	60.2
629.324	60.18
629.657	60.19
629.99	60.1
630.323	60.15
630.656	60.18
630.989	60.1
631.322	60.12
631.655	60.12
631.987	60.2
632.32	60.29
632.653	60.25
632.986	60.21
633.318	60.17
633.651	60.17
633.984	60.2
634.316	60.3
634.649	60.18
634.981	60.25
635.313	60.25
635.646	60.16
635.978	60.1
636.31	60.13
636.643	60.15
636.975	60.2
637.307	60.2
637.639	60.25
637.971	60.36
638.303	60.36
638.635	60.37
638.967	60.29
639.299	60.11
639.631	60.14
639.963	60.14
640.295	60.19
640.626	60.18
640.958	60.14
641.29	60.14
641.621	60.33
641.953	60.35
642.285	60.48
642.616	60.58
642.948	60.63
643.279	60.65
643.61	60.6
643.942	60.74
644.273	60.66
644.604	60.65
644.936	60.66
645.267	60.67
645.598	60.68
645.929	60.72
646.26	60.73
646.591	60.93
646.922	60.97
647.253	60.98
647.584	61.07
647.915	61.13
648.245	61.03
648.576	61.08
648.907	61.12
649.238	61.15
649.568	61.2
649.899	61.17
650.229	61.18
650.56	61.24
650.89	61.21
651.221	61.41
651.551	61.42
651.882	61.41
652.212	61.47
652.542	61.44
652.872	61.5
653.203	61.7
653.533	61.51
653.863	61.56
654.193	61.58
654.523	61.61
654.853	61.74
655.183	61.88
655.513	61.8
655.843	61.85
656.172	61.93
656.502	61.94
656.832	62.02
657.162	62.15
657.491	62.18
657.821	62.2
658.15	62.06
658.48	62.13
658.809	62.11
659.139	62.22
659.468	62.28
659.798	62.26
660.127	62.21
660.456	62.34
660.785	62.45
661.115	62.49
661.444	62.44
661.773	62.31
662.102	62.26
662.431	62.23
662.76	62.13
663.089	62.09
663.418	62.07
663.747	62.02
664.076	61.91
664.404	61.81
664.733	61.83
665.062	61.81
665.39	61.79
665.719	61.86
666.048	61.87
666.376	61.99
666.705	61.92
667.033	61.83
667.362	61.9
667.69	61.64
668.018	61.62
668.347	61.62
668.675	61.67
669.003	61.77
669.331	61.84
669.659	61.82
669.987	61.74
670.315	61.86
670.643	61.93
670.971	61.99
671.299	62.15
671.627	62.22
671.955	62.17
672.283	62.27
672.61	62.39
672.938	62.25
673.266	62.22
673.593	62.3
673.921	62.11
674.249	62.03
674.576	62.16
674.904	62.27
675.231	62.28
675.558	62.26
675.886	62.29
676.213	62.4
676.54	62.58
676.867	62.67
677.195	62.6
677.522	62.71
677.849	62.68
678.176	62.76
678.503	62.82
678.83	62.9
679.157	62.83
679.484	62.69
679.81	62.79
680.137	62.68
680.464	62.7
680.791	63.05
681.117	63.03
681.444	63.06
681.771	62.91
682.097	62.84
682.424	62.85
682.75	62.78
683.077	62.72
683.403	62.66
683.729	62.57
684.056	62.63
684.382	62.49
684.708	62.46
685.034	62.34
685.36	62.22
685.686	62.24
686.012	62.33
686.339	62.5
686.664	62.52
686.99	62.59
687.316	62.59
687.642	62.45
687.968	62.56
688.294	62.63
688.619	62.69
688.945	62.73
689.271	62.91
689.596	62.86
689.922	62.78
690.247	62.66
690.573	62.71
690.898	62.68
691.224	62.76
691.549	62.77
691.874	62.75
692.2	62.73
692.525	62.79
692.85	62.69
693.175	62.53
693.5	62.42
693.825	62.43
694.15	62.41
694.475	62.47
694.8	62.56
695.125	62.4
695.45	62.37
695.775	62.59
696.099	62.52
696.424	62.66
696.749	62.82
697.073	62.98
697.398	63.1
697.723	63.07
698.047	63.03
698.372	63.09
698.696	63.22
699.02	63.29
699.345	63.06
699.669	63.22
699.993	63.16
700.318	63.06
700.642	63.05
700.966	62.98
701.29	62.96
701.614	62.72
701.938	62.72
702.262	62.84
702.586	62.7
702.91	62.66
703.234	62.55
703.557	62.37
703.881	62.27
704.205	62.16
704.529	62.27
704.852	62.45
705.176	62.37
705.499	62.19
705.823	62.2
706.146	62.54
706.47	62.34
706.793	62.38
707.117	62.48
707.44	62.66
707.763	62.79
708.086	62.89
708.409	63.07
708.733	63.44
709.056	63.49
709.379	63.55
709.702	63.46
710.025	63.37
710.348	63.34
710.671	63.46
710.993	63.29
711.316	63.32
711.639	63.04
711.962	63.28
712.284	63.44
712.607	63.4
712.93	63.39
713.252	63.35
713.575	63.55
713.897	63.6
714.22	63.7
714.542	63.82
714.864	63.75
715.187	63.8
715.509	63.59
715.831	63.52
716.153	63.35
716.475	63.36
716.798	63.46
717.12	63.64
717.442	63.46
717.764	63.74
718.085	63.69
718.407	63.99
718.729	63.8
719.051	63.93
719.373	64.01
719.695	63.98
720.016	64.12
720.338	64.16
720.659	64.17
720.981	64.16
721.302	64.13
721.624	64.36
721.945	64.32
722.267	64.24
722.588	64.24
722.909	64.46
723.231	64.48
723.552	64.58
723.873	64.49
724.194	64.51
724.515	64.45
724.836	64.55
725.157	64.39
725.478	64.45
725.799	64.26
726.12	64.31
726.441	64.26
726.762	64.23
727.083	64.06
727.403	64.02
727.724	63.9
728.045	63.92
728.365	63.85
728.686	63.71
729.006	63.91
729.327	64.07
729.647	63.93
729.967	64.05
730.288	64.11
730.608	64.17
730.928	64.39
731.249	64.57
731.569	64.64
731.889	64.69
732.209	64.5
732.529	64.57
732.849	64.35
733.169	64.4
733.489	64.43
733.809	64.55
734.129	64.64
734.448	64.47
734.768	64.41
735.088	64.33
735.408	64.45
735.727	64.14
736.047	64.08
736.366	64.22
736.686	64.21
737.005	64.31
737.325	64.45
737.644	64.44
737.963	64.25
738.283	64.04
738.602	64.25
738.921	64.31
739.24	64.15
739.56	64.38
739.879	64.21
740.198	64.45
740.517	64.33
740.836	64.12
741.155	64.13
741.473	64.39
741.792	64.16
742.111	64.3
742.43	64.75
742.748	64.41
743.067	64.25
743.386	64.33
743.704	63.96
744.023	63.81
744.341	63.45
744.66	63.49
744.978	63.64
745.297	63.28
745.615	63.35
745.933	63.43
746.252	63.23
746.57	63.5
746.888	63.26
747.206	63.29
747.524	63.56
747.842	63.8
748.16	63.61
748.478	63.76
748.796	63.82
749.114	63.79
749.432	64.16
749.749	64.51
750.067	64.43
750.385	64.75
750.703	64.75
751.02	65.03
751.338	64.93
751.655	64.69
751.973	64.71
752.29	64.54
752.608	64.38
752.925	64.44
753.242	64.31
753.56	64.2
753.877	64.32
754.194	64.23
754.511	64.09
754.828	63.61
755.145	63.71
755.462	63.46
755.779	63.27
756.096	63.06
756.413	62.71
756.73	62.91
757.047	62.84
757.364	62.82
757.68	62.66
757.997	63.05
758.314	63.26
758.63	63.56
758.947	63.75
759.264	64.22
759.58	64.12
759.896	64.47
760.213	64.24
760.529	64.1
760.846	64.13
761.162	64.19
761.478	64.47
761.794	64.57
762.11	64.73
762.426	64.62
762.743	64.61
763.059	64.67
763.375	64.49
763.69	64.42
764.006	64.22
764.322	64.18
764.638	64.15
764.954	64.35
765.27	64.22
765.585	64.14
765.901	63.87
766.216	64.09
766.532	63.86
766.848	64.26
767.163	64.09
767.478	64.56
767.794	64.27
768.109	64.3
768.424	64.6
768.74	64.6
769.055	64.92
769.37	64.95
769.685	65.17
770	65.43
770.315	65.54
770.63	66
770.945	66.16
771.26	65.83
771.575	65.48
771.89	65.26
772.205	65.52
772.52	65.67
772.834	65.57
773.149	65.66
773.464	65.54
773.778	66.46
774.093	65.52
774.407	66.21
774.722	66.29
775.036	65.43
775.351	64.76
775.665	64.95
775.979	65.13
776.293	64.77
776.608	64.15
776.922	63.97
777.236	63.69
777.55	63.81
777.864	63.87
778.178	63.77
778.492	64.37
778.806	64.03
779.12	63.7
779.434	63.77
779.747	63.63
780.061	63.83
780.375	62.85
780.689	63.12
781.002	62.66
781.316	62.79
781.629	63.34
781.943	64.03
782.256	63.65
782.57	63.73
782.883	64.05
783.196	64.22
783.51	64.1
783.823	64.29
784.136	64.37
784.449	64.73
784.762	64.93
785.075	64.89
785.388	65.31
785.701	65.15
786.014	64.75
786.327	64.92
786.64	64.62
786.953	65.15
787.266	65.19
787.578	65.05
787.891	64.59
788.204	65.13
788.516	64.89
788.829	64.64
789.141	64.67
789.454	65.03
789.766	64.98
790.079	65.09
790.391	64.47
790.703	64.24
791.016	63.81
791.328	63.84
791.64	63.74
791.952	63.98
792.264	64.92
792.576	65.61
792.888	65.28
793.2	65.32
793.512	65.07
793.824	64.98
794.136	65.14
794.448	65.62
794.76	65.26
795.071	65.3
795.383	65.39
795.695	64.86
796.006	64.58
796.318	65.29
796.629	65.85
796.941	67.08
797.252	67.27
797.564	67.39
797.875	67.4
798.186	67.06
798.497	66.8
798.809	66.08
799.12	65.51
799.431	66.02
799.742	65.44
800.053	65.88
800.364	65.72
800.675	65.44
800.986	65.44
801.297	64.98
801.608	65.23
801.918	65.08
802.229	66.18
802.54	66.17
802.851	65.36
803.161	64.96
803.472	64.7
803.782	64.55
804.093	65.07
804.403	64.86
804.714	65.31
805.024	65.06
805.334	65.67
805.645	65.61
805.955	65.66
806.265	65.93
806.575	65.67
806.885	66.41
807.195	67.31
807.505	66.76
807.815	66.23
808.125	65.34
808.435	65.9
808.745	65.03
809.055	65.09
809.365	65.98
809.674	65.5
809.984	65.14
810.294	65.51
810.603	65.47
810.913	65.4
811.222	65.23
811.532	65.56
811.841	64.69
812.151	64.96
812.46	64.37
812.769	65.06
813.079	65.12
813.388	64.79
813.697	64.14
814.006	63.84
814.315	64.11
814.624	64.52
814.933	65.06
815.242	65.18
815.551	64.6
815.86	63.64
816.169	63.94
816.478	63.8
816.786	63.54
817.095	62.61
817.404	63.09
817.712	62.75
818.021	63.01
818.33	63.44
818.638	63.65
818.947	64.05
819.255	64.04
819.563	64.46
819.872	64.23
820.18	64.32
820.488	64.56
820.796	64.94
821.105	65.28
821.413	65.23
821.721	65.08
822.029	65.04
822.337	65.39
822.645	65.48
822.953	65.37
823.26	65.29
823.568	65.26
823.876	65.33
824.184	65.17
824.491	65.36
824.799	65.3
825.107	65.1
825.414	65.1
825.722	65.03
826.029	64.81
826.337	64.94
826.644	65.14
826.951	65.3
827.259	64.88
827.566	64.54
827.873	64.33
828.18	64.28
828.488	64.48
828.795	64.31
829.102	64.42
829.409	64.49
829.716	64.57
830.023	64.85
830.329	64.23
830.636	64.77
830.943	64.34
831.25	64.55
831.557	64.98
831.863	64.69
832.17	64.56
832.476	65.01
832.783	65.09
833.089	64.71
833.396	64.33
833.702	65.26
834.009	65.19
834.315	65.09
834.621	65.76
834.928	66.05
835.234	65.68
835.54	65.15
835.846	65.06
836.152	65.61
836.458	65.27
836.764	65.64
837.07	65.25
837.376	64.74
837.682	64.09
837.988	63.53
838.293	64.09
838.599	64.27
838.905	63.6
839.211	63.34
839.516	63.65
839.822	64.12
840.127	63.88
840.433	64.51
840.738	64.54
841.044	64.06
841.349	63.95
841.654	63.47
841.959	63.59
842.265	64.3
842.57	63.88
842.875	64.32
843.18	65.03
843.485	65.65
843.79	65.76
844.095	66.24
844.4	67.15
844.705	66.85
845.01	66.13
845.315	66.21
845.619	65
845.924	64.08
846.229	64.3
846.533	63.76
846.838	62.4
847.142	61.6
847.447	61.07
847.751	59.53
848.056	59.49
848.36	60.37
848.664	59.79
848.969	58.2
849.273	58.93
849.577	57.67
849.881	57.71
850.185	58.43
850.489	60.14
850.794	58.88
851.097	58.65
851.401	59.62
851.705	59.7
852.009	59.7
852.313	59.77
852.617	56.46
852.92	54.73
853.224	56.57
853.528	60.13
853.831	59.69
854.135	57.47
854.438	60.43
854.742	58.68
855.045	59.04
855.349	61.3
855.652	60.16
855.955	60.28
856.259	60.01
856.562	60.69
856.865	59.95
857.168	61.8
857.471	60.87
857.774	60.83
858.077	59.15
858.38	60.38
858.683	62.56
858.986	65.67
859.289	68.09
859.592	67.56
859.894	65.05
860.197	65.61
860.5	69.41
860.802	67.73
861.105	70.43
861.407	67.56
861.71	65.3
862.012	64.86
862.315	66.87
862.617	64.48
862.919	62.44
863.222	61.72
863.524	60.41
863.826	61.12
864.128	61.79
864.43	65.33
864.732	66.69
865.034	62.79
865.336	60.12
865.638	60.39
865.94	61.01
866.242	59.58
866.544	60.99
866.846	58.48
867.147	58.24
867.449	57.09
867.751	58
868.052	57.64
868.354	55.97
868.655	51.94
868.957	53.92
869.258	54.87
869.56	55.84
869.861	56.01
870.162	56.48
870.463	54.95
870.765	53.8
871.066	51.23
871.367	52.53
871.668	54.58
871.969	52.5
872.27	53.44
872.571	51.69
872.872	50.9
873.173	51.74
873.473	50.96
873.774	50.75
874.075	50.44
874.376	48.72
874.676	52.9
874.977	55.29
875.277	56.44
875.578	59.63
875.878	58.82
876.179	59.49
876.479	58.68
876.78	59.36
877.08	59.07
877.38	61.49
877.68	62.2
877.981	62.74
878.281	64.89
878.581	62.17
