Data from BA57712_Reflection_00009.txt Node
Date: Mon Nov 18 15:19:32 EST 2019
User: vgr7
Spectrometer: USB2G7710
Scans to average: 3
Trigger mode: 4
Integration Time (sec): 2.000000E-2
Electric dark correction enabled: true
Boxcar width: 10
XAxis mode: Wavelengths
Number of Pixels in Spectrum: 2048
>>>>>Begin Spectral Data<<<<<
177.721	-4.58
178.105	56.04
178.488	0.28
178.871	-7.14
179.254	80.3
179.636	-5.26
180.019	20.79
180.402	72.73
180.785	-112.39
181.168	600
181.55	126.49
181.933	62.62
182.316	54.72
182.698	67.79
183.081	40.74
183.463	-8.72
183.846	-11.59
184.228	-20.06
184.611	5.34
184.993	24.35
185.376	0.18
185.758	34.24
186.14	39.61
186.522	33.98
186.904	50.85
187.287	104.06
187.669	141.81
188.051	229.87
188.433	230.65
188.815	129.3
189.197	614.85
189.579	-380
189.961	-232.13
190.342	-301.61
190.724	-255.73
191.106	-271.52
191.488	-148.99
191.869	-172.6
192.251	-238.57
192.633	-181.54
193.014	-296.92
193.396	-369.53
193.777	-396.31
194.159	-502.82
194.54	-331.6
194.922	-233.84
195.303	-209.56
195.684	-278.56
196.065	-248.95
196.447	-192.33
196.828	-206
197.209	-180.57
197.59	-189.16
197.971	-136.27
198.352	-93.7
198.733	-124.15
199.114	-94.77
199.495	-105.91
199.876	-69.99
200.257	-55.45
200.638	-57.86
201.018	-48.97
201.399	-53.66
201.78	-43.62
202.16	-41.47
202.541	-42.03
202.922	-71.34
203.302	-85.75
203.683	-78.85
204.063	-72.75
204.444	-86.46
204.824	-102.87
205.204	-128.93
205.585	-110.21
205.965	-152.9
206.345	-155.37
206.725	-156.49
207.106	-362.46
207.486	-1140.31
207.866	418.58
208.246	228.06
208.626	307.67
209.006	404.76
209.386	471.93
209.766	567.43
210.145	278.05
210.525	396.3
210.905	651.72
211.285	441.82
211.664	349.16
212.044	1090.48
212.424	1015.89
212.803	800.85
213.183	-460.85
213.562	-676.86
213.942	-311.48
214.321	-414.29
214.701	-234.69
215.08	-94.39
215.459	-40.16
215.838	-12.62
216.218	-49.57
216.597	-23.93
216.976	-16.3
217.355	-10.04
217.734	-10.28
218.113	-10.76
218.492	-16.36
218.871	-11.51
219.25	-0.89
219.629	-1.24
220.008	-7.87
220.387	-9.61
220.766	-2.56
221.144	-21.21
221.523	-31.18
221.902	-47.55
222.28	-69.83
222.659	-49.4
223.037	-45.85
223.416	-47.08
223.794	-58.84
224.173	-44.22
224.551	-28.37
224.929	-33.41
225.308	-24.24
225.686	-19.04
226.064	-15.06
226.442	-12.37
226.821	-10.23
227.199	-12.7
227.577	-13.15
227.955	-12.75
228.333	-11.09
228.711	-11.93
229.089	-7.21
229.467	-7.69
229.845	-6.64
230.222	-5.39
230.6	-7.74
230.978	-7.76
231.356	-5.26
231.733	-4.77
232.111	-4.74
232.488	-6.29
232.866	-6.11
233.243	-5.11
233.621	-3.6
233.998	-2.37
234.376	-2.64
234.753	-3.8
235.13	-1.81
235.508	-0.9
235.885	-0.33
236.262	-0.79
236.639	-0.39
237.016	0.12
237.393	1.44
237.77	2.88
238.147	3.76
238.524	3.97
238.901	4.14
239.278	3.42
239.655	4.58
240.032	4.9
240.409	5.19
240.785	4.96
241.162	4.13
241.539	4.18
241.915	4
242.292	4.17
242.668	4.41
243.045	4.32
243.421	4.36
243.798	4.43
244.174	4.8
244.551	4.78
244.927	4.49
245.303	4.46
245.679	4.4
246.056	4.29
246.432	4.47
246.808	4.54
247.184	4.24
247.56	3.88
247.936	3.83
248.312	3.93
248.688	4.13
249.064	4.45
249.44	4.33
249.815	4.35
250.191	4.49
250.567	4.47
250.943	4.33
251.318	4.36
251.694	4.3
252.069	4.08
252.445	4.18
252.82	4.23
253.196	4.3
253.571	4.25
253.947	4.19
254.322	4.04
254.697	3.82
255.073	4.07
255.448	4.1
255.823	4.17
256.198	3.95
256.573	3.71
256.948	3.57
257.323	3.45
257.698	3.52
258.073	3.4
258.448	3.35
258.823	3.31
259.198	3.33
259.573	3.39
259.948	3.24
260.322	3.25
260.697	3.38
261.072	3.24
261.446	3.16
261.821	3.16
262.195	3.21
262.57	3.26
262.944	3.28
263.319	3.24
263.693	3.07
264.067	3.04
264.442	3.29
264.816	3.45
265.19	3.53
265.564	3.33
265.938	3.27
266.313	3.32
266.687	3.25
267.061	3.2
267.435	3.11
267.809	3.16
268.183	3.15
268.556	2.95
268.93	3.07
269.304	3.11
269.678	3.25
270.051	3.16
270.425	3.2
270.799	3.2
271.172	3.3
271.546	3.22
271.919	3.15
272.293	3.09
272.666	3.08
273.04	3.15
273.413	3.14
273.787	3.18
274.16	3.08
274.533	3.06
274.906	3.01
275.279	3.03
275.653	3.14
276.026	2.96
276.399	3.13
276.772	3.21
277.145	3.22
277.518	3.13
277.891	3.23
278.263	3.15
278.636	3.21
279.009	3.2
279.382	3.56
279.755	3.61
280.127	3.66
280.5	3.67
280.872	3.59
281.245	3.65
281.617	3.73
281.99	3.88
282.362	3.9
282.735	3.87
283.107	3.86
283.479	3.88
283.852	4.01
284.224	3.99
284.596	3.92
284.968	3.99
285.34	4.13
285.713	4.16
286.085	4.17
286.457	4.2
286.829	4.24
287.201	4.03
287.572	4
287.944	3.89
288.316	3.92
288.688	4.02
289.06	3.99
289.431	4.01
289.803	4.13
290.175	4.1
290.546	4.28
290.918	4.34
291.289	4.37
291.661	4.36
292.032	4.43
292.403	4.41
292.775	4.32
293.146	4.15
293.517	4.16
293.889	4.26
294.26	4.16
294.631	4.03
295.002	4.03
295.373	4.09
295.744	4.1
296.115	4.06
296.486	4
296.857	4.05
297.228	4.05
297.599	3.93
297.97	4.1
298.34	4.1
298.711	4.13
299.082	4.07
299.452	4.16
299.823	4.08
300.194	4.08
300.564	4.17
300.935	4.21
301.305	4.17
301.676	4.1
302.046	4.18
302.416	4.34
302.787	4.45
303.157	4.38
303.527	4.49
303.897	4.49
304.267	4.62
304.637	4.72
305.008	4.81
305.378	5.01
305.748	5.04
306.117	4.96
306.487	4.93
306.857	5.11
307.227	5.13
307.597	5.22
307.967	5.47
308.336	5.54
308.706	5.59
309.076	5.66
309.445	5.76
309.815	5.73
310.184	5.85
310.554	5.98
310.923	6.08
311.293	6.06
311.662	6.06
312.031	6.04
312.401	6.05
312.77	6.07
313.139	6.01
313.508	6.1
313.877	6.2
314.246	6.28
314.616	6.24
314.985	6.19
315.353	6.15
315.722	6.12
316.091	6.18
316.46	6.17
316.829	6.22
317.198	6.27
317.567	6.36
317.935	6.22
318.304	6.26
318.672	6.28
319.041	6.43
319.41	6.52
319.778	6.6
320.147	6.61
320.515	6.63
320.883	6.69
321.252	6.79
321.62	6.75
321.988	6.79
322.357	6.94
322.725	7.04
323.093	7.25
323.461	7.42
323.829	7.46
324.197	7.71
324.565	7.74
324.933	7.86
325.301	7.94
325.669	8.14
326.037	8.07
326.405	8.21
326.772	8.26
327.14	8.28
327.508	8.32
327.875	8.41
328.243	8.44
328.61	8.45
328.978	8.38
329.346	8.56
329.713	8.54
330.08	8.45
330.448	8.51
330.815	8.5
331.182	8.37
331.55	8.4
331.917	8.45
332.284	8.53
332.651	8.58
333.018	8.64
333.385	8.63
333.752	8.85
334.119	8.93
334.486	8.89
334.853	9.04
335.22	9.08
335.587	9.2
335.954	9.21
336.32	9.32
336.687	9.44
337.054	9.36
337.42	9.47
337.787	9.45
338.153	9.49
338.52	9.45
338.886	9.47
339.253	9.42
339.619	9.36
339.986	9.3
340.352	9.27
340.718	9.21
341.084	9.18
341.451	9.17
341.817	9.22
342.183	9.22
342.549	9.19
342.915	9.18
343.281	9.13
343.647	9.15
344.013	9.2
344.379	9.13
344.745	9.19
345.11	9.18
345.476	9.33
345.842	9.35
346.208	9.48
346.573	9.49
346.939	9.61
347.304	9.59
347.67	9.66
348.035	9.73
348.401	9.77
348.766	9.77
349.132	9.71
349.497	9.59
349.862	9.7
350.228	9.66
350.593	9.66
350.958	9.63
351.323	9.72
351.688	9.67
352.053	9.72
352.418	9.7
352.783	9.75
353.148	9.78
353.513	9.79
353.878	9.74
354.243	9.82
354.608	9.81
354.972	9.86
355.337	9.84
355.702	9.79
356.066	9.85
356.431	9.87
356.795	9.86
357.16	9.83
357.524	9.69
357.889	9.75
358.253	9.7
358.618	9.72
358.982	9.68
359.346	9.6
359.71	9.52
360.075	9.52
360.439	9.45
360.803	9.36
361.167	9.31
361.531	9.26
361.895	9.18
362.259	9.11
362.623	9.08
362.987	8.95
363.351	8.91
363.714	8.83
364.078	8.74
364.442	8.71
364.806	8.71
365.169	8.76
365.533	8.68
365.896	8.63
366.26	8.6
366.623	8.56
366.987	8.55
367.35	8.55
367.714	8.5
368.077	8.41
368.44	8.4
368.803	8.3
369.167	8.26
369.53	8.21
369.893	8.22
370.256	8.13
370.619	8.21
370.982	8.19
371.345	8.15
371.708	8.18
372.071	8.12
372.434	8.05
372.797	8
373.159	7.95
373.522	7.97
373.885	7.88
374.247	7.82
374.61	7.76
374.973	7.67
375.335	7.57
375.698	7.58
376.06	7.47
376.423	7.48
376.785	7.45
377.147	7.45
377.51	7.34
377.872	7.33
378.234	7.24
378.596	7.22
378.958	7.14
379.321	7.1
379.683	7.02
380.045	7.01
380.407	6.94
380.769	6.88
381.13	6.82
381.492	6.76
381.854	6.69
382.216	6.58
382.578	6.57
382.939	6.56
383.301	6.54
383.663	6.51
384.024	6.46
384.386	6.41
384.747	6.36
385.109	6.35
385.47	6.31
385.832	6.3
386.193	6.27
386.554	6.23
386.916	6.15
387.277	6.13
387.638	6.11
387.999	6.07
388.36	6.04
388.721	5.98
389.082	5.97
389.443	5.93
389.804	5.94
390.165	5.9
390.526	5.84
390.887	5.74
391.248	5.79
391.609	5.74
391.969	5.71
392.33	5.67
392.691	5.59
393.051	5.53
393.412	5.49
393.772	5.41
394.133	5.42
394.493	5.42
394.854	5.36
395.214	5.29
395.574	5.27
395.935	5.22
396.295	5.23
396.655	5.2
397.015	5.15
397.376	5.14
397.736	5.12
398.096	5.12
398.456	5.13
398.816	5.07
399.176	5.04
399.535	5
399.895	4.94
400.255	4.96
400.615	4.94
400.975	4.91
401.334	4.91
401.694	4.84
402.054	4.81
402.413	4.84
402.773	4.81
403.132	4.76
403.492	4.75
403.851	4.73
404.211	4.69
404.57	4.7
404.929	4.67
405.288	4.62
405.648	4.57
406.007	4.58
406.366	4.57
406.725	4.56
407.084	4.55
407.443	4.52
407.802	4.51
408.161	4.49
408.52	4.46
408.879	4.43
409.238	4.42
409.596	4.41
409.955	4.36
410.314	4.36
410.673	4.36
411.031	4.32
411.39	4.27
411.748	4.27
412.107	4.26
412.465	4.21
412.824	4.22
413.182	4.19
413.54	4.15
413.899	4.14
414.257	4.13
414.615	4.13
414.974	4.14
415.332	4.13
415.69	4.11
416.048	4.1
416.406	4.09
416.764	4.07
417.122	4.06
417.48	4.04
417.838	4.03
418.195	4.02
418.553	4.02
418.911	4.01
419.269	4
419.626	3.97
419.984	3.97
420.342	3.96
420.699	3.95
421.057	3.94
421.414	3.92
421.772	3.9
422.129	3.89
422.486	3.88
422.844	3.86
423.201	3.85
423.558	3.83
423.915	3.82
424.273	3.83
424.63	3.82
424.987	3.81
425.344	3.79
425.701	3.79
426.058	3.77
426.415	3.76
426.772	3.75
427.128	3.76
427.485	3.75
427.842	3.73
428.199	3.74
428.555	3.73
428.912	3.72
429.269	3.73
429.625	3.69
429.982	3.66
430.338	3.65
430.695	3.64
431.051	3.63
431.407	3.62
431.764	3.6
432.12	3.58
432.476	3.58
432.832	3.58
433.189	3.58
433.545	3.6
433.901	3.59
434.257	3.59
434.613	3.58
434.969	3.59
435.325	3.6
435.681	3.6
436.036	3.6
436.392	3.6
436.748	3.59
437.104	3.6
437.459	3.6
437.815	3.62
438.171	3.63
438.526	3.63
438.882	3.65
439.237	3.65
439.593	3.65
439.948	3.66
440.304	3.66
440.659	3.63
441.014	3.64
441.369	3.63
441.725	3.63
442.08	3.62
442.435	3.6
442.79	3.59
443.145	3.59
443.5	3.57
443.855	3.58
444.21	3.59
444.565	3.58
444.92	3.6
445.275	3.57
445.629	3.56
445.984	3.55
446.339	3.53
446.693	3.51
447.048	3.51
447.403	3.48
447.757	3.48
448.112	3.48
448.466	3.45
448.82	3.44
449.175	3.44
449.529	3.43
449.883	3.44
450.238	3.43
450.592	3.42
450.946	3.41
451.3	3.4
451.654	3.39
452.008	3.38
452.362	3.36
452.716	3.38
453.07	3.4
453.424	3.39
453.778	3.39
454.132	3.4
454.486	3.41
454.839	3.4
455.193	3.4
455.547	3.4
455.9	3.44
456.254	3.46
456.607	3.48
456.961	3.49
457.314	3.47
457.668	3.48
458.021	3.46
458.375	3.46
458.728	3.46
459.081	3.46
459.434	3.47
459.787	3.47
460.141	3.47
460.494	3.48
460.847	3.47
461.2	3.47
461.553	3.47
461.906	3.48
462.259	3.5
462.611	3.52
462.964	3.53
463.317	3.53
463.67	3.52
464.022	3.52
464.375	3.53
464.728	3.55
465.08	3.56
465.433	3.59
465.785	3.6
466.138	3.6
466.49	3.6
466.843	3.6
467.195	3.61
467.547	3.62
467.899	3.62
468.252	3.64
468.604	3.67
468.956	3.67
469.308	3.66
469.66	3.64
470.012	3.62
470.364	3.62
470.716	3.63
471.068	3.63
471.42	3.62
471.772	3.63
472.123	3.63
472.475	3.65
472.827	3.65
473.178	3.67
473.53	3.68
473.882	3.69
474.233	3.7
474.585	3.69
474.936	3.68
475.288	3.69
475.639	3.69
475.99	3.68
476.342	3.7
476.693	3.69
477.044	3.73
477.395	3.73
477.746	3.7
478.097	3.67
478.448	3.67
478.8	3.68
479.15	3.67
479.501	3.69
479.852	3.67
480.203	3.67
480.554	3.67
480.905	3.67
481.255	3.67
481.606	3.68
481.957	3.68
482.307	3.69
482.658	3.69
483.009	3.68
483.359	3.68
483.709	3.7
484.06	3.71
484.41	3.7
484.761	3.7
485.111	3.71
485.461	3.73
485.811	3.73
486.162	3.73
486.512	3.73
486.862	3.72
487.212	3.73
487.562	3.74
487.912	3.74
488.262	3.74
488.612	3.74
488.961	3.75
489.311	3.76
489.661	3.76
490.011	3.76
490.36	3.77
490.71	3.78
491.06	3.77
491.409	3.76
491.759	3.76
492.108	3.77
492.458	3.78
492.807	3.77
493.157	3.78
493.506	3.8
493.855	3.81
494.204	3.84
494.554	3.84
494.903	3.84
495.252	3.86
495.601	3.89
495.95	3.92
496.299	3.91
496.648	3.93
496.997	3.95
497.346	3.98
497.695	4
498.043	4.03
498.392	4.07
498.741	4.09
499.09	4.14
499.438	4.17
499.787	4.22
500.135	4.27
500.484	4.31
500.832	4.36
501.181	4.41
501.529	4.43
501.878	4.5
502.226	4.52
502.574	4.57
502.923	4.62
503.271	4.66
503.619	4.72
503.967	4.76
504.315	4.81
504.663	4.85
505.011	4.91
505.359	4.95
505.707	5.01
506.055	5.1
506.403	5.17
506.751	5.23
507.098	5.28
507.446	5.35
507.794	5.41
508.141	5.46
508.489	5.53
508.837	5.61
509.184	5.68
509.531	5.78
509.879	5.85
510.226	5.92
510.574	6
510.921	6.09
511.268	6.17
511.616	6.27
511.963	6.35
512.31	6.44
512.657	6.55
513.004	6.64
513.351	6.72
513.698	6.83
514.045	6.92
514.392	7.03
514.739	7.13
515.086	7.22
515.432	7.33
515.779	7.41
516.126	7.51
516.473	7.61
516.819	7.72
517.166	7.8
517.512	7.9
517.859	8
518.205	8.1
518.552	8.2
518.898	8.28
519.245	8.36
519.591	8.46
519.937	8.54
520.283	8.66
520.629	8.77
520.976	8.87
521.322	9
521.668	9.12
522.014	9.27
522.36	9.43
522.706	9.57
523.052	9.75
523.398	9.95
523.743	10.11
524.089	10.29
524.435	10.46
524.781	10.61
525.126	10.78
525.472	10.92
525.817	11.05
526.163	11.19
526.509	11.33
526.854	11.45
527.199	11.56
527.545	11.66
527.89	11.78
528.235	11.91
528.581	12.03
528.926	12.16
529.271	12.27
529.616	12.41
529.961	12.55
530.306	12.68
530.651	12.8
530.996	12.96
531.341	13.11
531.686	13.29
532.031	13.47
532.376	13.63
532.721	13.81
533.065	14
533.41	14.2
533.755	14.41
534.099	14.62
534.444	14.86
534.788	15.06
535.133	15.27
535.477	15.49
535.822	15.72
536.166	15.99
536.51	16.26
536.855	16.5
537.199	16.76
537.543	17.04
537.887	17.34
538.231	17.65
538.576	17.93
538.92	18.21
539.264	18.49
539.608	18.74
539.951	18.97
540.295	19.22
540.639	19.45
540.983	19.68
541.327	19.91
541.671	20.11
542.014	20.34
542.358	20.56
542.701	20.77
543.045	21
543.389	21.2
543.732	21.43
544.075	21.69
544.419	21.94
544.762	22.2
545.105	22.47
545.449	22.71
545.792	23
546.135	23.27
546.478	23.6
546.821	23.95
547.165	24.29
547.508	24.62
547.851	24.94
548.194	25.27
548.536	25.6
548.879	25.98
549.222	26.32
549.565	26.71
549.908	27.06
550.25	27.4
550.593	27.77
550.936	28.09
551.278	28.39
551.621	28.76
551.963	29.12
552.306	29.41
552.648	29.74
552.991	30.03
553.333	30.36
553.675	30.64
554.017	30.94
554.36	31.25
554.702	31.57
555.044	31.85
555.386	32.08
555.728	32.4
556.07	32.62
556.412	32.9
556.754	33.14
557.096	33.46
557.438	33.74
557.78	34.04
558.121	34.35
558.463	34.67
558.805	34.96
559.147	35.21
559.488	35.48
559.83	35.77
560.171	36.1
560.513	36.38
560.854	36.63
561.196	36.89
561.537	37.15
561.878	37.38
562.22	37.64
562.561	37.94
562.902	38.2
563.243	38.47
563.584	38.75
563.925	38.99
564.266	39.2
564.607	39.47
564.948	39.71
565.289	39.93
565.63	40.14
565.971	40.33
566.312	40.58
566.653	40.77
566.993	40.97
567.334	41.17
567.675	41.36
568.015	41.56
568.356	41.78
568.696	41.93
569.037	42.13
569.377	42.3
569.718	42.5
570.058	42.65
570.398	42.85
570.739	43.02
571.079	43.19
571.419	43.36
571.759	43.5
572.099	43.67
572.439	43.8
572.779	43.97
573.119	44.13
573.459	44.27
573.799	44.44
574.139	44.6
574.479	44.72
574.819	44.9
575.158	45.06
575.498	45.17
575.838	45.37
576.177	45.53
576.517	45.68
576.856	45.81
577.196	45.98
577.535	46.13
577.875	46.23
578.214	46.41
578.553	46.62
578.893	46.83
579.232	46.92
579.571	47.08
579.91	47.28
580.25	47.43
580.589	47.51
580.928	47.65
581.267	47.76
581.606	47.91
581.945	48
582.283	48.1
582.622	48.27
582.961	48.37
583.3	48.45
583.639	48.62
583.977	48.75
584.316	48.79
584.654	48.9
584.993	49.02
585.332	49.13
585.67	49.18
586.008	49.26
586.347	49.4
586.685	49.45
587.024	49.48
587.362	49.54
587.7	49.7
588.038	49.77
588.376	49.85
588.715	49.94
589.053	50.13
589.391	50.28
589.729	50.31
590.067	50.38
590.404	50.52
590.742	50.64
591.08	50.73
591.418	50.84
591.756	50.96
592.093	51.11
592.431	51.09
592.769	51.17
593.106	51.24
593.444	51.28
593.781	51.43
594.119	51.5
594.456	51.6
594.793	51.63
595.131	51.72
595.468	51.77
595.805	51.83
596.143	51.79
596.48	51.8
596.817	51.86
597.154	51.96
597.491	52.01
597.828	52.11
598.165	52.14
598.502	52.17
598.839	52.2
599.176	52.25
599.512	52.41
599.849	52.47
600.186	52.55
600.523	52.67
600.859	52.7
601.196	52.75
601.532	52.8
601.869	52.93
602.205	52.99
602.542	53.09
602.878	53.05
603.215	53.15
603.551	53.2
603.887	53.27
604.223	53.33
604.56	53.4
604.896	53.33
605.232	53.42
605.568	53.53
605.904	53.54
606.24	53.56
606.576	53.62
606.912	53.72
607.248	53.71
607.583	53.67
607.919	53.68
608.255	53.84
608.591	53.93
608.926	53.95
609.262	53.98
609.597	53.99
609.933	54.09
610.268	54.1
610.604	54.12
610.939	54.21
611.275	54.23
611.61	54.24
611.945	54.32
612.281	54.29
612.616	54.37
612.951	54.47
613.286	54.52
613.621	54.51
613.956	54.48
614.291	54.61
614.626	54.73
614.961	54.83
615.296	54.77
615.631	54.85
615.966	54.83
616.3	54.86
616.635	55
616.97	55.09
617.304	55.13
617.639	55.17
617.973	55.17
618.308	55.24
618.642	55.34
618.977	55.36
619.311	55.45
619.646	55.42
619.98	55.47
620.314	55.51
620.648	55.53
620.983	55.56
621.317	55.53
621.651	55.61
621.985	55.67
622.319	55.62
622.653	55.65
622.987	55.72
623.321	55.82
623.655	55.8
623.988	55.78
624.322	55.77
624.656	55.83
624.99	55.89
625.323	55.93
625.657	55.85
625.99	55.93
626.324	55.98
626.657	55.99
626.991	55.94
627.324	55.93
627.658	56
627.991	55.98
628.324	56.03
628.657	55.99
628.991	55.9
629.324	56
629.657	55.85
629.99	55.89
630.323	55.86
630.656	55.84
630.989	55.91
631.322	56.01
631.655	56.02
631.987	55.96
632.32	55.86
632.653	55.94
632.986	55.93
633.318	55.84
633.651	55.94
633.984	56.02
634.316	56.1
634.649	56.05
634.981	56.15
635.313	56.17
635.646	56.2
635.978	56.3
636.31	56.35
636.643	56.43
636.975	56.38
637.307	56.43
637.639	56.46
637.971	56.39
638.303	56.41
638.635	56.5
638.967	56.61
639.299	56.66
639.631	56.63
639.963	56.62
640.295	56.62
640.626	56.54
640.958	56.53
641.29	56.57
641.621	56.64
641.953	56.69
642.285	56.83
642.616	56.83
642.948	56.82
643.279	56.82
643.61	56.84
643.942	56.87
644.273	56.85
644.604	56.95
644.936	56.99
645.267	56.9
645.598	56.91
645.929	56.88
646.26	56.93
646.591	56.92
646.922	56.95
647.253	57.01
647.584	57.11
647.915	57.02
648.245	56.96
648.576	56.92
648.907	56.91
649.238	56.83
649.568	56.84
649.899	56.82
650.229	56.82
650.56	56.93
650.89	57.03
651.221	57.06
651.551	56.97
651.882	57.01
652.212	57.14
652.542	57
652.872	56.98
653.203	56.87
653.533	56.96
653.863	56.9
654.193	56.99
654.523	56.98
654.853	57.2
655.183	57.27
655.513	57.33
655.843	57.39
656.172	57.38
656.502	57.46
656.832	57.62
657.162	57.68
657.491	57.59
657.821	57.62
658.15	57.58
658.48	57.68
658.809	57.66
659.139	57.63
659.468	57.76
659.798	57.78
660.127	57.92
660.456	57.9
660.785	57.9
661.115	57.95
661.444	57.79
661.773	57.73
662.102	57.72
662.431	57.74
662.76	57.7
663.089	57.73
663.418	57.8
663.747	57.72
664.076	57.69
664.404	57.85
664.733	57.83
665.062	57.84
665.39	57.8
665.719	57.75
666.048	57.82
666.376	57.79
666.705	57.8
667.033	57.75
667.362	57.69
667.69	57.81
668.018	57.75
668.347	57.8
668.675	57.78
669.003	57.67
669.331	57.69
669.659	57.66
669.987	57.67
670.315	57.58
670.643	57.56
670.971	57.62
671.299	57.51
671.627	57.5
671.955	57.73
672.283	57.77
672.61	57.88
672.938	57.89
673.266	57.87
673.593	58.03
673.921	58.09
674.249	58.17
674.576	58.12
674.904	58.21
675.231	58.41
675.558	58.4
675.886	58.56
676.213	58.6
676.54	58.63
676.867	58.62
677.195	58.69
677.522	58.73
677.849	58.68
678.176	58.82
678.503	58.76
678.83	58.58
679.157	58.6
679.484	58.64
679.81	58.68
680.137	58.71
680.464	58.6
680.791	58.63
681.117	58.59
681.444	58.59
681.771	58.5
682.097	58.49
682.424	58.54
682.75	58.41
683.077	58.38
683.403	58.3
683.729	58.4
684.056	58.36
684.382	58.44
684.708	58.51
685.034	58.42
685.36	58.48
685.686	58.49
686.012	58.44
686.339	58.47
686.664	58.49
686.99	58.46
687.316	58.44
687.642	58.38
687.968	58.45
688.294	58.46
688.619	58.6
688.945	58.53
689.271	58.57
689.596	58.58
689.922	58.62
690.247	58.69
690.573	58.59
690.898	58.57
691.224	58.46
691.549	58.38
691.874	58.2
692.2	58.28
692.525	58.36
692.85	58.39
693.175	58.43
693.5	58.29
693.825	58.32
694.15	58.3
694.475	58.26
694.8	58.31
695.125	58.33
695.45	58.09
695.775	58.19
696.099	58.17
696.424	58.32
696.749	58.23
697.073	58.3
697.398	58.32
697.723	58.32
698.047	58.29
698.372	58.19
698.696	58.28
699.02	58.26
699.345	58.26
699.669	58.34
699.993	58.19
700.318	58.23
700.642	58.21
700.966	58.25
701.29	58.11
701.614	58.11
701.938	58.11
702.262	58.29
702.586	58.38
702.91	58.41
703.234	58.18
703.557	58.25
703.881	58.26
704.205	58.37
704.529	58.31
704.852	58.39
705.176	58.45
705.499	58.55
705.823	58.71
706.146	58.85
706.47	58.78
706.793	58.88
707.117	58.92
707.44	59.08
707.763	59.1
708.086	59.36
708.409	59.2
708.733	59.36
709.056	59.33
709.379	59.19
709.702	59.23
710.025	59.72
710.348	59.68
710.671	59.62
710.993	59.69
711.316	59.88
711.639	59.86
711.962	59.93
712.284	59.99
712.607	59.83
712.93	59.66
713.252	59.6
713.575	59.45
713.897	59.45
714.22	59.54
714.542	59.52
714.864	59.45
715.187	59.61
715.509	59.31
715.831	59.52
716.153	59.68
716.475	59.51
716.798	59.41
717.12	59.35
717.442	59.36
717.764	59.09
718.085	58.89
718.407	59.03
718.729	59.03
719.051	58.96
719.373	58.88
719.695	59.09
720.016	59.26
720.338	59.54
720.659	59.49
720.981	59.25
721.302	59.28
721.624	59.49
721.945	59.47
722.267	59.58
722.588	59.34
722.909	59.06
723.231	59.31
723.552	59.04
723.873	59.15
724.194	59.28
724.515	59.58
724.836	59.92
725.157	59.85
725.478	59.79
725.799	59.92
726.12	59.91
726.441	59.82
726.762	59.93
727.083	59.7
727.403	59.82
727.724	60
728.045	60.12
728.365	60
728.686	59.9
729.006	60.08
729.327	60.28
729.647	60.32
729.967	60.27
730.288	60.3
730.608	60.28
730.928	60.01
731.249	59.97
731.569	59.96
731.889	59.95
732.209	60.1
732.529	60.19
732.849	60.42
733.169	60.34
733.489	60.14
733.809	60.42
734.129	60.15
734.448	60.17
734.768	60.04
735.088	60.17
735.408	60.25
735.727	60.21
736.047	59.98
736.366	60.07
736.686	60
737.005	59.97
737.325	59.96
737.644	59.93
737.963	59.95
738.283	59.79
738.602	59.58
738.921	59.45
739.24	59.2
739.56	58.98
739.879	58.87
740.198	58.85
740.517	58.71
740.836	58.95
741.155	58.75
741.473	58.72
741.792	58.51
742.111	58.52
742.43	58.47
742.748	58.65
743.067	58.68
743.386	58.8
743.704	58.88
744.023	58.78
744.341	59.09
744.66	58.83
744.978	58.89
745.297	59.05
745.615	59.25
745.933	59.27
746.252	59.44
746.57	59.31
746.888	59.53
747.206	59.15
747.524	58.97
747.842	58.9
748.16	58.89
748.478	59.13
748.796	59.19
749.114	59.4
749.432	59.27
749.749	59.36
750.067	59
750.385	59.13
750.703	59.36
751.02	58.93
751.338	59.05
751.655	58.98
751.973	59.04
752.29	59.12
752.608	59.16
752.925	58.71
753.242	58.99
753.56	58.72
753.877	58.82
754.194	59.08
754.511	59.15
754.828	59.16
755.145	59
755.462	59.26
755.779	59
756.096	59.01
756.413	58.86
756.73	59.2
757.047	59.06
757.364	58.84
757.68	58.97
757.997	59
758.314	58.93
758.63	58.94
758.947	58.9
759.264	58.93
759.58	59.75
759.896	59.73
760.213	60.06
760.529	60.25
760.846	60.06
761.162	60.12
761.478	60.38
761.794	60.54
762.11	60.45
762.426	60.72
762.743	60.58
763.059	60.47
763.375	60.35
763.69	60.45
764.006	60.56
764.322	60.81
764.638	60.72
764.954	60.77
765.27	60.63
765.585	60.41
765.901	60.46
766.216	60.16
766.532	60.14
766.848	60.03
767.163	60.04
767.478	60.19
767.794	60.12
768.109	59.94
768.424	59.87
768.74	59.6
769.055	59.45
769.37	59.9
769.685	60.2
770	60.25
770.315	60.31
770.63	60.51
770.945	60.09
771.26	60.45
771.575	60.36
771.89	60.56
772.205	60.78
772.52	60.72
772.834	60.71
773.149	60.81
773.464	60.92
773.778	61.14
774.093	61
774.407	60.71
774.722	60.68
775.036	60.9
775.351	61.14
775.665	61.15
775.979	60.57
776.293	60.17
776.608	60.28
776.922	60.24
777.236	59.81
777.55	60.62
777.864	60.28
778.178	60.9
778.492	61.21
778.806	61.1
779.12	60.96
779.434	60.9
779.747	60.81
780.061	60.72
780.375	60.17
780.689	59.86
781.002	60.2
781.316	60.62
781.629	60.51
781.943	60.3
782.256	60.33
782.57	60.53
782.883	60.63
783.196	60.45
783.51	59.98
783.823	60.77
784.136	60.22
784.449	60.24
784.762	59.67
785.075	59.26
785.388	59.59
785.701	59.73
786.014	59.56
786.327	59.76
786.64	59.92
786.953	60.47
787.266	60.24
787.578	60.2
787.891	59.65
788.204	59.65
788.516	59.91
788.829	59.57
789.141	59.79
789.454	59.77
789.766	60.17
790.079	60.75
790.391	59.97
790.703	59.74
791.016	59.31
791.328	59.4
791.64	59.59
791.952	59.61
792.264	59.37
792.576	59.59
792.888	59.02
793.2	58.72
793.512	58.69
793.824	59.74
794.136	59.6
794.448	60.07
794.76	59.83
795.071	59.58
795.383	59.63
795.695	59.25
796.006	59.72
796.318	59.39
796.629	59.3
796.941	59.76
797.252	59.68
797.564	60.15
797.875	59.91
798.186	59.77
798.497	59.76
798.809	59.82
799.12	59.81
799.431	60.09
799.742	60.47
800.053	60.68
800.364	60.07
800.675	59.87
800.986	59.94
801.297	60.05
801.608	59.78
801.918	59.57
802.229	60
802.54	59.83
802.851	59.61
803.161	59.5
803.472	59.35
803.782	59.55
804.093	59.59
804.403	59.3
804.714	59.55
805.024	58.79
805.334	59.26
805.645	59.46
805.955	59.23
806.265	59.45
806.575	58.13
806.885	58.43
807.195	58.66
807.505	58.38
807.815	58.07
808.125	58.65
808.435	59.5
808.745	59.95
809.055	59.52
809.365	60.17
809.674	60.03
809.984	60.37
810.294	60.35
810.603	60.31
810.913	60.57
811.222	59.7
811.532	60.05
811.841	59.99
812.151	60.31
812.46	60.59
812.769	59.65
813.079	60.38
813.388	60.47
813.697	60.4
814.006	59.92
814.315	59.79
814.624	59.93
814.933	58.95
815.242	58.23
815.551	58.32
815.86	58.12
816.169	58.68
816.478	58.06
816.786	57.76
817.095	57.72
817.404	57.48
817.712	59.03
818.021	59.27
818.33	58.82
818.638	58.78
818.947	59.16
819.255	59.31
819.563	59.92
819.872	59.88
820.18	60.07
820.488	59.98
820.796	60.17
821.105	60.12
821.413	60.38
821.721	60.13
822.029	60.31
822.337	60.56
822.645	60.52
822.953	60.79
823.26	61.08
823.568	60.97
823.876	61.17
824.184	60.85
824.491	60.7
824.799	60.78
825.107	60.65
825.414	60.66
825.722	60.8
826.029	60.8
826.337	60.79
826.644	60.82
826.951	60.98
827.259	61.08
827.566	61.22
827.873	61.2
828.18	61.44
828.488	61.31
828.795	61.03
829.102	61.07
829.409	60.69
829.716	60.15
830.023	60.01
830.329	59.72
830.636	60.06
830.943	60
831.25	59.6
831.557	59.51
831.863	59.44
832.17	59.24
832.476	59.03
832.783	58.6
833.089	58.69
833.396	58.83
833.702	58.39
834.009	57.69
834.315	57.61
834.621	57.73
834.928	58.24
835.234	58.22
835.54	57.89
835.846	58.12
836.152	58.53
836.458	58.88
836.764	59.01
837.07	58.66
837.376	58.9
837.682	59.26
837.988	59.25
838.293	59.11
838.599	58.73
838.905	58.41
839.211	58.5
839.516	57.72
839.822	57.25
840.127	57.34
840.433	58.12
840.738	59.16
841.044	59.16
841.349	58.12
841.654	57.68
841.959	57.52
842.265	57.63
842.57	57.19
842.875	56.99
843.18	57.08
843.485	57.23
843.79	56.71
844.095	56.39
844.4	57.84
844.705	56.45
845.01	58.23
845.315	58.01
845.619	59.52
845.924	59.79
846.229	59.81
846.533	58.37
846.838	57.22
847.142	56.06
847.447	54.79
847.751	55.66
848.056	55.34
848.36	54.52
848.664	54.61
848.969	55.2
849.273	55.95
849.577	54.01
849.881	53.68
850.185	55.65
850.489	56.57
850.794	53.77
851.097	55.77
851.401	54.9
851.705	54.64
852.009	55.37
852.313	55.57
852.617	56.41
852.92	57.21
853.224	58.85
853.528	56.52
853.831	57.63
854.135	55.08
854.438	55.8
854.742	57.71
855.045	56.32
855.349	55.04
855.652	53.08
855.955	53.44
856.259	53.41
856.562	51.85
856.865	50.7
857.168	52.64
857.471	49.42
857.774	48.86
858.077	49.66
858.38	48.2
858.683	49.01
858.986	48.94
859.289	50.65
859.592	50.06
859.894	52.5
860.197	52.52
860.5	54.76
860.802	52.97
861.105	53.79
861.407	53.04
861.71	55.55
862.012	61.08
862.315	61.13
862.617	62.74
862.919	62.01
863.222	64.29
863.524	61.75
863.826	64.57
864.128	62.42
864.43	61.97
864.732	61.88
865.034	59.96
865.336	60.56
865.638	60.2
865.94	60.86
866.242	58.35
866.544	59.04
866.846	58.79
867.147	58.82
867.449	57.86
867.751	57.93
868.052	55.48
868.354	52
868.655	54.21
868.957	53.3
869.258	55.14
869.56	53.61
869.861	54.84
870.162	56.25
870.463	57.15
870.765	56.8
871.066	56.14
871.367	58.79
871.668	56.36
871.969	56.54
872.27	56.97
872.571	55.59
872.872	55.28
873.173	54.84
873.473	57.38
873.774	55.4
874.075	60.03
874.376	61.86
874.676	63.01
874.977	60.38
875.277	59.44
875.578	60.11
875.878	60.63
876.179	61.28
876.479	60.78
876.78	61.94
877.08	63.08
877.38	64.38
877.68	63.19
877.981	64.75
878.281	64.67
878.581	62.88
