Data from BA57748_Reflection_00004.txt Node
Date: Mon Nov 18 15:55:20 EST 2019
User: vgr7
Spectrometer: USB2G7710
Scans to average: 3
Trigger mode: 4
Integration Time (sec): 2.000000E-2
Electric dark correction enabled: true
Boxcar width: 10
XAxis mode: Wavelengths
Number of Pixels in Spectrum: 2048
>>>>>Begin Spectral Data<<<<<
177.721	145.85
178.105	-333.63
178.488	-166.59
178.871	-125.29
179.254	-110.45
179.636	-718.9
180.019	-194.03
180.402	127.27
180.785	98.75
181.168	262.58
181.55	79.76
181.933	103.19
182.316	71.43
182.698	44.42
183.081	58.17
183.463	42.55
183.846	106.27
184.228	82.39
184.611	125.33
184.993	174.55
185.376	59.75
185.758	-36.09
186.14	42.59
186.522	75.05
186.904	22.91
187.287	13.64
187.669	-13.29
188.051	-10.43
188.433	82.36
188.815	-8.46
189.197	-29.2
189.579	62.45
189.961	87.61
190.342	122.7
190.724	224.76
191.106	125.34
191.488	-2143.24
191.869	-466.88
192.251	2417.07
192.633	202.64
193.014	33.91
193.396	75.75
193.777	-0.97
194.159	-23.4
194.54	17.9
194.922	-40.27
195.303	219.27
195.684	-149.07
196.065	85.16
196.447	-4547.06
196.828	-254.84
197.209	712.9
197.59	489.83
197.971	29.73
198.352	1586.49
198.733	-163.76
199.114	-228.24
199.495	-94.95
199.876	-110.41
200.257	-374.86
200.638	247.66
201.018	26.95
201.399	5.36
201.78	-16.28
202.16	-54.96
202.541	-9185.71
202.922	289.49
203.302	161.91
203.683	1131.41
204.063	313.11
204.444	969.97
204.824	1175.31
205.204	1406.98
205.585	661.36
205.965	-1241.46
206.345	-1480.31
206.725	-2624.14
207.106	-16584.21
207.486	-2301.07
207.866	3070.8
208.246	-2076.47
208.626	-2873.51
209.006	-837.35
209.386	1252.73
209.766	1248.61
210.145	1345.35
210.525	2852.21
210.905	-726.09
211.285	-334.97
211.664	-254.84
212.044	-275.18
212.424	-178.23
212.803	-135.54
213.183	-48.87
213.562	-24.75
213.942	15.95
214.321	24.64
214.701	30.02
215.08	-8.5
215.459	25.33
215.838	44.31
216.218	22.29
216.597	34.64
216.976	36.29
217.355	39.78
217.734	35.19
218.113	24.36
218.492	14.45
218.871	32.08
219.25	-1.7
219.629	9.98
220.008	18.96
220.387	41.06
220.766	21.98
221.144	4.08
221.523	7.93
221.902	-3.26
222.28	-1.05
222.659	69.79
223.037	48.55
223.416	33.23
223.794	0.31
224.173	5.15
224.551	3.11
224.929	10.76
225.308	19.31
225.686	24.26
226.064	17.35
226.442	18.24
226.821	16.44
227.199	16.35
227.577	10.69
227.955	5.05
228.333	0.42
228.711	3.91
229.089	12.67
229.467	7.21
229.845	2.28
230.222	-3.71
230.6	-6.15
230.978	-2.85
231.356	3.95
231.733	3.24
232.111	6.63
232.488	6.01
232.866	5.04
233.243	4.55
233.621	3.84
233.998	6.47
234.376	6.14
234.753	5.38
235.13	6.66
235.508	5.94
235.885	6.8
236.262	6.48
236.639	4.1
237.016	1.64
237.393	4.72
237.77	7.05
238.147	8.65
238.524	8.76
238.901	9.01
239.278	7.54
239.655	8.72
240.032	7.56
240.409	7.65
240.785	7.15
241.162	7.72
241.539	8.21
241.915	7.87
242.292	7.1
242.668	7.73
243.045	7.41
243.421	7.38
243.798	7.43
244.174	7.49
244.551	8.03
244.927	8.15
245.303	7.94
245.679	8.08
246.056	8.19
246.432	8.01
246.808	8.11
247.184	8.2
247.56	8.27
247.936	8.19
248.312	8.15
248.688	8.47
249.064	8.15
249.44	7.94
249.815	7.93
250.191	8.25
250.567	8.04
250.943	7.85
251.318	8.04
251.694	8.2
252.069	8.16
252.445	8.03
252.82	8.11
253.196	7.69
253.571	7.13
253.947	6.84
254.322	7.31
254.697	7.15
255.073	7.03
255.448	6.56
255.823	6.76
256.198	6.92
256.573	6.75
256.948	7.12
257.323	7.23
257.698	7.26
258.073	7.19
258.448	7.37
258.823	7.53
259.198	7.46
259.573	7.42
259.948	7.43
260.322	7.47
260.697	7.39
261.072	7.53
261.446	7.56
261.821	7.54
262.195	7.47
262.57	7.39
262.944	7.4
263.319	7.53
263.693	7.43
264.067	7.5
264.442	7.57
264.816	7.45
265.19	7.26
265.564	7.22
265.938	7.25
266.313	7.15
266.687	7.07
267.061	7.09
267.435	6.89
267.809	6.9
268.183	6.82
268.556	6.91
268.93	6.96
269.304	6.8
269.678	7.09
270.051	7.02
270.425	6.84
270.799	6.88
271.172	7.07
271.546	7.16
271.919	6.98
272.293	6.92
272.666	6.82
273.04	6.99
273.413	6.82
273.787	6.67
274.16	6.42
274.533	6.61
274.906	6.49
275.279	6.64
275.653	6.64
276.026	6.62
276.399	6.43
276.772	6.64
277.145	6.84
277.518	6.81
277.891	6.88
278.263	6.88
278.636	6.79
279.009	6.47
279.382	6.62
279.755	6.56
280.127	6.7
280.5	6.76
280.872	6.74
281.245	6.94
281.617	7.26
281.99	7.52
282.362	7.48
282.735	7.48
283.107	7.43
283.479	7.42
283.852	7.47
284.224	7.7
284.596	7.62
284.968	7.56
285.34	7.43
285.713	7.47
286.085	7.56
286.457	7.59
286.829	7.79
287.201	7.71
287.572	7.74
287.944	7.56
288.316	7.53
288.688	7.75
289.06	7.71
289.431	7.81
289.803	7.99
290.175	7.99
290.546	8.16
290.918	8.23
291.289	8.29
291.661	8.34
292.032	8.33
292.403	8.36
292.775	8.42
293.146	8.35
293.517	8.23
293.889	8.36
294.26	8.42
294.631	8.44
295.002	8.4
295.373	8.47
295.744	8.57
296.115	8.62
296.486	8.27
296.857	8.4
297.228	8.22
297.599	8.08
297.97	8.28
298.34	8.23
298.711	8.31
299.082	8.35
299.452	8.38
299.823	8.45
300.194	8.42
300.564	8.63
300.935	8.84
301.305	8.9
301.676	8.94
302.046	9.02
302.416	8.89
302.787	9.06
303.157	9.05
303.527	9
303.897	9.01
304.267	9.37
304.637	9.18
305.008	9.24
305.378	9.43
305.748	9.36
306.117	9.38
306.487	9.3
306.857	9.29
307.227	9.38
307.597	9.3
307.967	9.21
308.336	9.03
308.706	9.06
309.076	9.1
309.445	9.04
309.815	8.98
310.184	9.04
310.554	8.94
310.923	8.95
311.293	9.07
311.662	9.06
312.031	8.87
312.401	8.94
312.77	9.05
313.139	8.94
313.508	8.78
313.877	8.74
314.246	8.72
314.616	8.64
314.985	8.5
315.353	8.43
315.722	8.48
316.091	8.62
316.46	8.44
316.829	8.36
317.198	8.36
317.567	8.34
317.935	8.18
318.304	8.21
318.672	8.1
319.041	8.17
319.41	8.2
319.778	8.29
320.147	8.42
320.515	8.25
320.883	8.32
321.252	8.45
321.62	8.42
321.988	8.51
322.357	8.62
322.725	8.6
323.093	8.74
323.461	8.8
323.829	8.74
324.197	8.88
324.565	9
324.933	9.1
325.301	9.01
325.669	9.17
326.037	9.16
326.405	9.18
326.772	9.12
327.14	9.18
327.508	9.18
327.875	8.97
328.243	9.04
328.61	8.94
328.978	8.91
329.346	9.08
329.713	8.87
330.08	8.8
330.448	8.68
330.815	8.45
331.182	8.39
331.55	8.34
331.917	8.24
332.284	8.31
332.651	8.23
333.018	8.32
333.385	8.26
333.752	8.32
334.119	8.45
334.486	8.38
334.853	8.44
335.22	8.5
335.587	8.56
335.954	8.62
336.32	8.47
336.687	8.48
337.054	8.32
337.42	8.43
337.787	8.5
338.153	8.65
338.52	8.84
338.886	8.79
339.253	8.82
339.619	8.88
339.986	8.78
340.352	8.8
340.718	8.78
341.084	8.76
341.451	8.83
341.817	8.79
342.183	8.78
342.549	8.64
342.915	8.6
343.281	8.69
343.647	8.53
344.013	8.62
344.379	8.64
344.745	8.59
345.11	8.51
345.476	8.44
345.842	8.35
346.208	8.44
346.573	8.41
346.939	8.44
347.304	8.38
347.67	8.23
348.035	8.28
348.401	8.29
348.766	8.31
349.132	8.19
349.497	8.14
349.862	8.25
350.228	8.33
350.593	8.32
350.958	8.29
351.323	8.33
351.688	8.39
352.053	8.42
352.418	8.5
352.783	8.56
353.148	8.64
353.513	8.77
353.878	8.63
354.243	8.71
354.608	8.67
354.972	8.66
355.337	8.74
355.702	8.75
356.066	8.78
356.431	8.7
356.795	8.78
357.16	8.88
357.524	8.74
357.889	8.61
358.253	8.61
358.618	8.61
358.982	8.6
359.346	8.46
359.71	8.41
360.075	8.39
360.439	8.41
360.803	8.28
361.167	8.2
361.531	8.25
361.895	8.19
362.259	8.16
362.623	8.16
362.987	8.2
363.351	8.13
363.714	8.1
364.078	8.14
364.442	8.09
364.806	8.04
365.169	8.1
365.533	8.14
365.896	8.15
366.26	8.11
366.623	8.12
366.987	8.18
367.35	8.19
367.714	8.21
368.077	8.16
368.44	8.21
368.803	8.2
369.167	8.06
369.53	8.03
369.893	8.06
370.256	8.07
370.619	7.98
370.982	7.95
371.345	7.92
371.708	7.93
372.071	7.91
372.434	7.88
372.797	7.84
373.159	7.81
373.522	7.8
373.885	7.8
374.247	7.78
374.61	7.79
374.973	7.76
375.335	7.73
375.698	7.74
376.06	7.75
376.423	7.8
376.785	7.88
377.147	7.93
377.51	7.91
377.872	7.9
378.234	7.93
378.596	7.95
378.958	7.98
379.321	7.97
379.683	7.95
380.045	7.95
380.407	7.94
380.769	7.95
381.13	7.99
381.492	7.99
381.854	8.02
382.216	7.99
382.578	7.98
382.939	7.99
383.301	8.04
383.663	8
384.024	8.02
384.386	8.05
384.747	8.07
385.109	8.06
385.47	8.08
385.832	8.06
386.193	8.06
386.554	8.03
386.916	8
387.277	8
387.638	8.01
387.999	8.02
388.36	8.05
388.721	8.01
389.082	7.99
389.443	7.96
389.804	7.94
390.165	7.97
390.526	7.99
390.887	7.95
391.248	8
391.609	7.96
391.969	7.92
392.33	7.84
392.691	7.83
393.051	7.81
393.412	7.81
393.772	7.8
394.133	7.8
394.493	7.81
394.854	7.79
395.214	7.77
395.574	7.79
395.935	7.77
396.295	7.77
396.655	7.77
397.015	7.78
397.376	7.82
397.736	7.77
398.096	7.73
398.456	7.71
398.816	7.66
399.176	7.64
399.535	7.64
399.895	7.68
400.255	7.69
400.615	7.7
400.975	7.72
401.334	7.71
401.694	7.69
402.054	7.69
402.413	7.7
402.773	7.67
403.132	7.63
403.492	7.64
403.851	7.59
404.211	7.57
404.57	7.54
404.929	7.52
405.288	7.53
405.648	7.56
406.007	7.56
406.366	7.56
406.725	7.57
407.084	7.53
407.443	7.5
407.802	7.5
408.161	7.47
408.52	7.46
408.879	7.45
409.238	7.49
409.596	7.46
409.955	7.47
410.314	7.47
410.673	7.46
411.031	7.43
411.39	7.45
411.748	7.47
412.107	7.49
412.465	7.45
412.824	7.51
413.182	7.47
413.54	7.45
413.899	7.47
414.257	7.46
414.615	7.46
414.974	7.49
415.332	7.45
415.69	7.47
416.048	7.43
416.406	7.43
416.764	7.39
417.122	7.41
417.48	7.38
417.838	7.41
418.195	7.42
418.553	7.42
418.911	7.4
419.269	7.41
419.626	7.41
419.984	7.43
420.342	7.39
420.699	7.4
421.057	7.42
421.414	7.4
421.772	7.39
422.129	7.4
422.486	7.4
422.844	7.4
423.201	7.38
423.558	7.37
423.915	7.36
424.273	7.36
424.63	7.36
424.987	7.35
425.344	7.32
425.701	7.31
426.058	7.3
426.415	7.3
426.772	7.28
427.128	7.26
427.485	7.25
427.842	7.24
428.199	7.23
428.555	7.2
428.912	7.21
429.269	7.2
429.625	7.21
429.982	7.16
430.338	7.16
430.695	7.16
431.051	7.16
431.407	7.16
431.764	7.17
432.12	7.14
432.476	7.13
432.832	7.12
433.189	7.11
433.545	7.1
433.901	7.11
434.257	7.09
434.613	7.11
434.969	7.08
435.325	7.1
435.681	7.1
436.036	7.08
436.392	7.07
436.748	7.06
437.104	7.04
437.459	7.04
437.815	7.04
438.171	7.05
438.526	7.07
438.882	7.06
439.237	7.06
439.593	7.06
439.948	7.09
440.304	7.1
440.659	7.12
441.014	7.14
441.369	7.14
441.725	7.14
442.08	7.14
442.435	7.13
442.79	7.13
443.145	7.11
443.5	7.12
443.855	7.13
444.21	7.13
444.565	7.13
444.92	7.13
445.275	7.12
445.629	7.11
445.984	7.1
446.339	7.08
446.693	7.06
447.048	7.05
447.403	7.03
447.757	7
448.112	6.98
448.466	6.95
448.82	6.94
449.175	6.92
449.529	6.9
449.883	6.9
450.238	6.88
450.592	6.89
450.946	6.86
451.3	6.83
451.654	6.81
452.008	6.8
452.362	6.8
452.716	6.8
453.07	6.78
453.424	6.78
453.778	6.79
454.132	6.79
454.486	6.79
454.839	6.8
455.193	6.81
455.547	6.82
455.9	6.83
456.254	6.86
456.607	6.86
456.961	6.85
457.314	6.83
457.668	6.86
458.021	6.85
458.375	6.86
458.728	6.88
459.081	6.89
459.434	6.89
459.787	6.88
460.141	6.88
460.494	6.89
460.847	6.9
461.2	6.91
461.553	6.93
461.906	6.94
462.259	6.95
462.611	6.98
462.964	6.99
463.317	6.99
463.67	6.97
464.022	6.99
464.375	7
464.728	7.03
465.08	7.03
465.433	7.04
465.785	7.05
466.138	7.05
466.49	7.05
466.843	7.05
467.195	7.07
467.547	7.08
467.899	7.08
468.252	7.1
468.604	7.1
468.956	7.1
469.308	7.09
469.66	7.06
470.012	7.08
470.364	7.1
470.716	7.1
471.068	7.11
471.42	7.11
471.772	7.12
472.123	7.13
472.475	7.13
472.827	7.17
473.178	7.15
473.53	7.14
473.882	7.15
474.233	7.16
474.585	7.15
474.936	7.16
475.288	7.16
475.639	7.18
475.99	7.19
476.342	7.19
476.693	7.21
477.044	7.23
477.395	7.2
477.746	7.19
478.097	7.18
478.448	7.19
478.8	7.18
479.15	7.16
479.501	7.17
479.852	7.19
480.203	7.2
480.554	7.23
480.905	7.25
481.255	7.26
481.606	7.28
481.957	7.29
482.307	7.3
482.658	7.3
483.009	7.29
483.359	7.28
483.709	7.28
484.06	7.28
484.41	7.27
484.761	7.27
485.111	7.28
485.461	7.28
485.811	7.28
486.162	7.29
486.512	7.31
486.862	7.32
487.212	7.31
487.562	7.29
487.912	7.29
488.262	7.28
488.612	7.28
488.961	7.26
489.311	7.26
489.661	7.24
490.011	7.24
490.36	7.25
490.71	7.26
491.06	7.25
491.409	7.26
491.759	7.26
492.108	7.26
492.458	7.25
492.807	7.24
493.157	7.24
493.506	7.25
493.855	7.24
494.204	7.23
494.554	7.25
494.903	7.27
495.252	7.28
495.601	7.29
495.95	7.29
496.299	7.29
496.648	7.29
496.997	7.3
497.346	7.31
497.695	7.32
498.043	7.3
498.392	7.32
498.741	7.33
499.09	7.32
499.438	7.34
499.787	7.35
500.135	7.38
500.484	7.37
500.832	7.38
501.181	7.42
501.529	7.43
501.878	7.42
502.226	7.43
502.574	7.43
502.923	7.44
503.271	7.46
503.619	7.47
503.967	7.48
504.315	7.5
504.663	7.5
505.011	7.52
505.359	7.54
505.707	7.55
506.055	7.56
506.403	7.59
506.751	7.62
507.098	7.62
507.446	7.66
507.794	7.66
508.141	7.68
508.489	7.69
508.837	7.68
509.184	7.7
509.531	7.7
509.879	7.72
510.226	7.74
510.574	7.74
510.921	7.77
511.268	7.78
511.616	7.79
511.963	7.8
512.31	7.8
512.657	7.81
513.004	7.83
513.351	7.82
513.698	7.84
514.045	7.85
514.392	7.87
514.739	7.88
515.086	7.92
515.432	7.92
515.779	7.92
516.126	7.95
516.473	7.96
516.819	7.97
517.166	7.98
517.512	7.98
517.859	7.98
518.205	7.99
518.552	8
518.898	8.01
519.245	8.03
519.591	8.03
519.937	8.04
520.283	8.05
520.629	8.06
520.976	8.06
521.322	8.08
521.668	8.08
522.014	8.08
522.36	8.08
522.706	8.11
523.052	8.12
523.398	8.13
523.743	8.14
524.089	8.16
524.435	8.16
524.781	8.17
525.126	8.18
525.472	8.2
525.817	8.21
526.163	8.23
526.509	8.23
526.854	8.25
527.199	8.26
527.545	8.25
527.89	8.26
528.235	8.26
528.581	8.26
528.926	8.26
529.271	8.27
529.616	8.27
529.961	8.27
530.306	8.27
530.651	8.28
530.996	8.28
531.341	8.26
531.686	8.27
532.031	8.28
532.376	8.31
532.721	8.31
533.065	8.32
533.41	8.3
533.755	8.3
534.099	8.29
534.444	8.29
534.788	8.31
535.133	8.3
535.477	8.31
535.822	8.31
536.166	8.3
536.51	8.3
536.855	8.31
537.199	8.33
537.543	8.34
537.887	8.33
538.231	8.35
538.576	8.38
538.92	8.38
539.264	8.37
539.608	8.36
539.951	8.36
540.295	8.36
540.639	8.37
540.983	8.37
541.327	8.39
541.671	8.4
542.014	8.41
542.358	8.42
542.701	8.43
543.045	8.45
543.389	8.45
543.732	8.45
544.075	8.46
544.419	8.43
544.762	8.43
545.105	8.43
545.449	8.42
545.792	8.42
546.135	8.43
546.478	8.44
546.821	8.41
547.165	8.41
547.508	8.42
547.851	8.43
548.194	8.43
548.536	8.43
548.879	8.44
549.222	8.42
549.565	8.43
549.908	8.42
550.25	8.44
550.593	8.48
550.936	8.49
551.278	8.49
551.621	8.5
551.963	8.51
552.306	8.53
552.648	8.52
552.991	8.54
553.333	8.55
553.675	8.54
554.017	8.58
554.36	8.57
554.702	8.56
555.044	8.58
555.386	8.57
555.728	8.55
556.07	8.54
556.412	8.54
556.754	8.52
557.096	8.52
557.438	8.5
557.78	8.49
558.121	8.51
558.463	8.47
558.805	8.48
559.147	8.47
559.488	8.44
559.83	8.43
560.171	8.41
560.513	8.39
560.854	8.39
561.196	8.38
561.537	8.41
561.878	8.4
562.22	8.38
562.561	8.41
562.902	8.46
563.243	8.45
563.584	8.5
563.925	8.55
564.266	8.54
564.607	8.53
564.948	8.52
565.289	8.54
565.63	8.55
565.971	8.53
566.312	8.56
566.653	8.59
566.993	8.6
567.334	8.61
567.675	8.64
568.015	8.68
568.356	8.67
568.696	8.68
569.037	8.71
569.377	8.71
569.718	8.71
570.058	8.68
570.398	8.7
570.739	8.66
571.079	8.66
571.419	8.65
571.759	8.64
572.099	8.66
572.439	8.64
572.779	8.66
573.119	8.67
573.459	8.68
573.799	8.71
574.139	8.7
574.479	8.69
574.819	8.65
575.158	8.64
575.498	8.63
575.838	8.61
576.177	8.57
576.517	8.58
576.856	8.58
577.196	8.57
577.535	8.55
577.875	8.55
578.214	8.53
578.553	8.55
578.893	8.57
579.232	8.53
579.571	8.54
579.91	8.52
580.25	8.51
580.589	8.49
580.928	8.44
581.267	8.44
581.606	8.41
581.945	8.42
582.283	8.41
582.622	8.43
582.961	8.47
583.3	8.53
583.639	8.54
583.977	8.55
584.316	8.58
584.654	8.61
584.993	8.63
585.332	8.64
585.67	8.66
586.008	8.65
586.347	8.67
586.685	8.66
587.024	8.68
587.362	8.7
587.7	8.72
588.038	8.77
588.376	8.83
588.715	8.86
589.053	8.9
589.391	8.91
589.729	8.94
590.067	8.91
590.404	8.9
590.742	8.89
591.08	8.87
591.418	8.87
591.756	8.86
592.093	8.89
592.431	8.88
592.769	8.85
593.106	8.85
593.444	8.87
593.781	8.89
594.119	8.89
594.456	8.88
594.793	8.85
595.131	8.82
595.468	8.78
595.805	8.79
596.143	8.75
596.48	8.77
596.817	8.73
597.154	8.75
597.491	8.73
597.828	8.72
598.165	8.7
598.502	8.67
598.839	8.66
599.176	8.62
599.512	8.63
599.849	8.64
600.186	8.65
600.523	8.64
600.859	8.66
601.196	8.7
601.532	8.71
601.869	8.71
602.205	8.7
602.542	8.73
602.878	8.7
603.215	8.69
603.551	8.68
603.887	8.72
604.223	8.71
604.56	8.74
604.896	8.75
605.232	8.79
605.568	8.81
605.904	8.85
606.24	8.87
606.576	8.88
606.912	8.89
607.248	8.92
607.583	8.92
607.919	8.88
608.255	8.84
608.591	8.86
608.926	8.88
609.262	8.91
609.597	8.94
609.933	8.95
610.268	8.97
610.604	8.96
610.939	8.96
611.275	8.97
611.61	8.94
611.945	8.96
612.281	8.92
612.616	8.94
612.951	8.91
613.286	8.91
613.621	8.92
613.956	8.92
614.291	8.87
614.626	8.82
614.961	8.86
615.296	8.88
615.631	8.87
615.966	8.85
616.3	8.81
616.635	8.72
616.97	8.78
617.304	8.79
617.639	8.81
617.973	8.74
618.308	8.67
618.642	8.69
618.977	8.69
619.311	8.72
619.646	8.69
619.98	8.66
620.314	8.69
620.648	8.65
620.983	8.65
621.317	8.65
621.651	8.76
621.985	8.72
622.319	8.71
622.653	8.7
622.987	8.72
623.321	8.75
623.655	8.8
623.988	8.79
624.322	8.81
624.656	8.84
624.99	8.89
625.323	8.9
625.657	8.99
625.99	8.99
626.324	8.95
626.657	8.99
626.991	9.03
627.324	9.02
627.658	9.03
627.991	9.05
628.324	9.03
628.657	9.04
628.991	9.07
629.324	9.07
629.657	9.08
629.99	9.15
630.323	9.16
630.656	9.14
630.989	9.17
631.322	9.15
631.655	9.11
631.987	9.12
632.32	9.14
632.653	9.06
632.986	9.05
633.318	9.09
633.651	9.06
633.984	9.05
634.316	9.09
634.649	9.1
634.981	9.09
635.313	9.1
635.646	9.01
635.978	9.04
636.31	9.06
636.643	9.05
636.975	9.02
637.307	9.04
637.639	9.03
637.971	9.02
638.303	9.04
638.635	8.99
638.967	9.04
639.299	9.06
639.631	9.07
639.963	9.07
640.295	9.1
640.626	9.15
640.958	9.24
641.29	9.16
641.621	9.14
641.953	9.13
642.285	9.2
642.616	9.25
642.948	9.23
643.279	9.21
643.61	9.21
643.942	9.16
644.273	9.14
644.604	9.17
644.936	9.13
645.267	9.13
645.598	9.24
645.929	9.27
646.26	9.35
646.591	9.29
646.922	9.3
647.253	9.22
647.584	9.19
647.915	9.1
648.245	9.1
648.576	9.07
648.907	9.13
649.238	9.06
649.568	9.04
649.899	9.08
650.229	9.13
650.56	9.2
650.89	9.19
651.221	9.18
651.551	9.18
651.882	9.17
652.212	9.23
652.542	9.14
652.872	9.03
653.203	8.94
653.533	8.99
653.863	8.97
654.193	9.08
654.523	9.11
654.853	9.1
655.183	9.2
655.513	9.27
655.843	9.28
656.172	9.34
656.502	9.42
656.832	9.33
657.162	9.31
657.491	9.26
657.821	9.32
658.15	9.37
658.48	9.44
658.809	9.44
659.139	9.4
659.468	9.41
659.798	9.5
660.127	9.53
660.456	9.55
660.785	9.55
661.115	9.48
661.444	9.49
661.773	9.53
662.102	9.51
662.431	9.55
662.76	9.53
663.089	9.49
663.418	9.44
663.747	9.5
664.076	9.54
664.404	9.55
664.733	9.63
665.062	9.62
665.39	9.61
665.719	9.66
666.048	9.66
666.376	9.7
666.705	9.73
667.033	9.6
667.362	9.62
667.69	9.62
668.018	9.66
668.347	9.6
668.675	9.64
669.003	9.66
669.331	9.65
669.659	9.66
669.987	9.66
670.315	9.57
670.643	9.56
670.971	9.51
671.299	9.46
671.627	9.42
671.955	9.41
672.283	9.42
672.61	9.4
672.938	9.44
673.266	9.48
673.593	9.47
673.921	9.64
674.249	9.55
674.576	9.59
674.904	9.61
675.231	9.64
675.558	9.59
675.886	9.54
676.213	9.53
676.54	9.55
676.867	9.66
677.195	9.75
677.522	9.76
677.849	9.8
678.176	9.82
678.503	9.69
678.83	9.73
679.157	9.68
679.484	9.65
679.81	9.56
680.137	9.5
680.464	9.41
680.791	9.38
681.117	9.45
681.444	9.48
681.771	9.47
682.097	9.48
682.424	9.47
682.75	9.48
683.077	9.46
683.403	9.51
683.729	9.42
684.056	9.45
684.382	9.56
684.708	9.52
685.034	9.54
685.36	9.66
685.686	9.53
686.012	9.51
686.339	9.54
686.664	9.65
686.99	9.69
687.316	9.69
687.642	9.76
687.968	9.69
688.294	9.68
688.619	9.7
688.945	9.64
689.271	9.64
689.596	9.62
689.922	9.61
690.247	9.52
690.573	9.48
690.898	9.56
691.224	9.53
691.549	9.61
691.874	9.49
692.2	9.53
692.525	9.63
692.85	9.74
693.175	9.75
693.5	9.72
693.825	9.74
694.15	9.8
694.475	9.81
694.8	9.93
695.125	9.87
695.45	9.83
695.775	9.94
696.099	9.97
696.424	9.97
696.749	10
697.073	9.96
697.398	10.01
697.723	9.92
698.047	9.86
698.372	9.83
698.696	9.86
699.02	9.78
699.345	9.78
699.669	9.79
699.993	9.76
700.318	9.8
700.642	9.8
700.966	9.86
701.29	9.85
701.614	9.85
701.938	9.89
702.262	9.99
702.586	10.02
702.91	9.91
703.234	10
703.557	9.98
703.881	10
704.205	10.03
704.529	10.03
704.852	10
705.176	9.96
705.499	10.14
705.823	10.12
706.146	9.99
706.47	9.97
706.793	9.93
707.117	9.75
707.44	9.7
707.763	9.59
708.086	9.41
708.409	9.3
708.733	9.33
709.056	9.16
709.379	9.19
709.702	9.29
710.025	9.2
710.348	9.18
710.671	9.22
710.993	9.25
711.316	9.38
711.639	9.63
711.962	9.67
712.284	9.61
712.607	9.52
712.93	9.59
713.252	9.6
713.575	9.68
713.897	9.73
714.22	9.75
714.542	9.84
714.864	10.07
715.187	10.17
715.509	10.19
715.831	10.21
716.153	10.18
716.475	10.31
716.798	10.36
717.12	10.48
717.442	10.5
717.764	10.53
718.085	10.33
718.407	10.09
718.729	10.12
719.051	10.2
719.373	10.22
719.695	10.34
720.016	10.4
720.338	10.55
720.659	10.68
720.981	10.73
721.302	10.75
721.624	10.67
721.945	10.59
722.267	10.46
722.588	10.53
722.909	10.53
723.231	10.36
723.552	10.23
723.873	10.32
724.194	10.24
724.515	10.18
724.836	10.47
725.157	10.59
725.478	10.49
725.799	10.41
726.12	10.55
726.441	10.44
726.762	10.38
727.083	10.3
727.403	10.26
727.724	10.31
728.045	10.23
728.365	10.15
728.686	10.22
729.006	10.27
729.327	10.28
729.647	10.22
729.967	10.34
730.288	10.3
730.608	9.99
730.928	10.06
731.249	10.18
731.569	10.01
731.889	9.98
732.209	10.15
732.529	10.3
732.849	10.39
733.169	10.52
733.489	10.47
733.809	10.43
734.129	10.49
734.448	10.53
734.768	10.62
735.088	10.75
735.408	10.65
735.727	10.76
736.047	10.84
736.366	10.8
736.686	10.77
737.005	11.01
737.325	11.19
737.644	11.35
737.963	11.24
738.283	11.17
738.602	11.18
738.921	11.08
739.24	11.18
739.56	11.07
739.879	11.03
740.198	11.15
740.517	11.13
740.836	11.03
741.155	10.94
741.473	10.95
741.792	10.93
742.111	11.1
742.43	11.11
742.748	11.05
743.067	11.09
743.386	11.04
743.704	10.87
744.023	10.93
744.341	10.8
744.66	10.94
744.978	11.1
745.297	11.1
745.615	11.27
745.933	11.07
746.252	11.11
746.57	11
746.888	10.92
747.206	10.8
747.524	10.91
747.842	10.84
748.16	10.53
748.478	10.66
748.796	10.72
749.114	10.92
749.432	10.8
749.749	10.98
750.067	11.02
750.385	11.11
750.703	11.09
751.02	11.17
751.338	11.06
751.655	11.1
751.973	11.15
752.29	11.15
752.608	10.77
752.925	11
753.242	11.16
753.56	10.98
753.877	11.25
754.194	11.05
754.511	11.14
754.828	11.28
755.145	11.12
755.462	10.95
755.779	10.71
756.096	10.87
756.413	10.98
756.73	11.09
757.047	10.95
757.364	10.93
757.68	10.79
757.997	10.71
758.314	10.66
758.63	10.58
758.947	10.49
759.264	10.81
759.58	10.69
759.896	10.67
760.213	10.88
760.529	10.85
760.846	11.06
761.162	11.09
761.478	11.13
761.794	10.98
762.11	11.03
762.426	10.99
762.743	11.03
763.059	11.07
763.375	11.18
763.69	11.29
764.006	11.4
764.322	11.46
764.638	11.44
764.954	11.59
765.27	11.63
765.585	11.75
765.901	11.77
766.216	11.83
766.532	11.63
766.848	11.56
767.163	11.61
767.478	11.41
767.794	11.49
768.109	11.43
768.424	11.5
768.74	11.53
769.055	11.73
769.37	11.65
769.685	11.26
770	10.93
770.315	10.95
770.63	10.84
770.945	10.84
771.26	10.89
771.575	10.68
771.89	10.79
772.205	10.56
772.52	10.49
772.834	10.31
773.149	10.37
773.464	10.24
773.778	10.31
774.093	10.38
774.407	10.54
774.722	10.65
775.036	10.96
775.351	11.2
775.665	10.88
775.979	10.76
776.293	10.91
776.608	11.02
776.922	11.14
777.236	11.04
777.55	11
777.864	11.11
778.178	10.78
778.492	10.7
778.806	10.66
779.12	10.96
779.434	11.17
779.747	11.35
780.061	11.52
780.375	11.32
780.689	11.36
781.002	10.81
781.316	10.91
781.629	11.07
781.943	10.77
782.256	11.1
782.57	11.24
782.883	11.34
783.196	11.19
783.51	11.26
783.823	11.41
784.136	11.54
784.449	11.81
784.762	12.28
785.075	12.11
785.388	12.38
785.701	12.03
786.014	11.57
786.327	11.41
786.64	11.88
786.953	12.09
787.266	12.24
787.578	12.57
787.891	12.65
788.204	12.41
788.516	12.18
788.829	12.06
789.141	12.38
789.454	12.58
789.766	12.97
790.079	12.66
790.391	12.5
790.703	12.64
791.016	12.23
791.328	12.24
791.64	12.54
791.952	12.18
792.264	12.16
792.576	12.45
792.888	12.64
793.2	12.59
793.512	12.54
793.824	12.74
794.136	12.86
794.448	13.05
794.76	12.84
795.071	13.32
795.383	13.07
795.695	12.83
796.006	12.39
796.318	12.32
796.629	12.74
796.941	12.73
797.252	12.57
797.564	12.85
797.875	12.69
798.186	12.33
798.497	12.69
798.809	13
799.12	13.34
799.431	13.47
799.742	13.15
800.053	13.33
800.364	13.45
800.675	13.12
800.986	13.05
801.297	12.68
801.608	12.3
801.918	12.66
802.229	12.45
802.54	12.77
802.851	12.26
803.161	12.21
803.472	12.5
803.782	12.52
804.093	12.54
804.403	12.41
804.714	12.99
805.024	12.93
805.334	13.01
805.645	12.75
805.955	13.02
806.265	13.31
806.575	13.17
806.885	13.26
807.195	13.52
807.505	13.4
807.815	13.97
808.125	14.46
808.435	14.43
808.745	14.84
809.055	15.43
809.365	15.93
809.674	15.3
809.984	15.7
810.294	16
810.603	16.33
810.913	17.02
811.222	16.75
811.532	17.06
811.841	17.4
812.151	17.57
812.46	17.03
812.769	16.66
813.079	16.42
813.388	15.86
813.697	15.79
814.006	15.32
814.315	15.85
814.624	15.92
814.933	16.05
815.242	16.41
815.551	16.04
815.86	15.66
816.169	16.47
816.478	16.23
816.786	15.47
817.095	15.47
817.404	15.44
817.712	15.15
818.021	15.18
818.33	14.61
818.638	14.58
818.947	15.27
819.255	15.09
819.563	15.02
819.872	14.93
820.18	14.81
820.488	14.75
820.796	14.4
821.105	14.15
821.413	14.18
821.721	13.92
822.029	14
822.337	14.08
822.645	13.87
822.953	13.68
823.26	13.74
823.568	13.48
823.876	13.35
824.184	13.38
824.491	13.32
824.799	13.25
825.107	13.31
825.414	13.21
825.722	13.34
826.029	13.29
826.337	13.32
826.644	13.43
826.951	13.35
827.259	13.38
827.566	13.43
827.873	13.16
828.18	13.12
828.488	12.84
828.795	12.88
829.102	12.99
829.409	13.06
829.716	12.94
830.023	13.16
830.329	13.08
830.636	13.37
830.943	13.38
831.25	13.58
831.557	13.21
831.863	13.37
832.17	13.07
832.476	13.11
832.783	13.15
833.089	12.92
833.396	13.35
833.702	13.84
834.009	13.94
834.315	14.22
834.621	14.45
834.928	14.76
835.234	14.64
835.54	14.52
835.846	14.76
836.152	15.05
836.458	14.85
836.764	15.02
837.07	14.42
837.376	14.02
837.682	14.2
837.988	14.21
838.293	13.99
838.599	13.81
838.905	14.1
839.211	14.42
839.516	14.5
839.822	14.42
840.127	13.46
840.433	13.57
840.738	13.73
841.044	13.57
841.349	13.43
841.654	13.62
841.959	13.25
842.265	13.39
842.57	13.76
842.875	14.53
843.18	15.17
843.485	16.79
843.79	18.13
844.095	17.62
844.4	19.46
844.705	18.65
845.01	19.55
845.315	18.86
845.619	17.91
845.924	17.49
846.229	17.73
846.533	19.42
846.838	18.9
847.142	18.42
847.447	17.12
847.751	16.77
848.056	17.54
848.36	18.84
848.664	18.23
848.969	18.89
849.273	18.64
849.577	17.74
849.881	15.89
850.185	15.53
850.489	15.17
850.794	14.74
851.097	16.27
851.401	16.35
851.705	18.44
852.009	18.84
852.313	18.62
852.617	19.3
852.92	19.81
853.224	20.43
853.528	22.51
853.831	24.49
854.135	25.11
854.438	24.54
854.742	24.14
855.045	24.3
855.349	25.83
855.652	23.65
855.955	23.72
856.259	23.51
856.562	22.24
856.865	23.26
857.168	21.9
857.471	21.13
857.774	22.08
858.077	20.22
858.38	20.9
858.683	22.35
858.986	23.71
859.289	21.12
859.592	20.95
859.894	20.17
860.197	20.2
860.5	19.38
860.802	19.66
861.105	21.23
861.407	20.21
861.71	17.44
862.012	20.41
862.315	20.87
862.617	23.23
862.919	25.33
863.222	26.27
863.524	23.7
863.826	24.7
864.128	23.05
864.43	25.89
864.732	25.69
865.034	23.59
865.336	19.2
865.638	19.28
865.94	18.9
866.242	20.05
866.544	20.31
866.846	22.34
867.147	23.55
867.449	22.8
867.751	23.56
868.052	25.57
868.354	24.23
868.655	25.92
868.957	23.31
869.258	20.53
869.56	18.55
869.861	21.38
870.162	19.89
870.463	20.02
870.765	17.5
871.066	18.74
871.367	21.16
871.668	23.63
871.969	23.39
872.27	21.93
872.571	20.85
872.872	21.1
873.173	18.27
873.473	16.65
873.774	17.21
874.075	18.48
874.376	15.34
874.676	16.44
874.977	13.2
875.277	14.12
875.578	16.62
875.878	17.55
876.179	17.35
876.479	17.9
876.78	18.13
877.08	18.73
877.38	16.95
877.68	16.4
877.981	15.94
878.281	17.35
878.581	20.82
