Data from BA57965_Reflection_00011.txt Node
Date: Mon Nov 18 15:16:23 EST 2019
User: vgr7
Spectrometer: USB2G7710
Scans to average: 3
Trigger mode: 4
Integration Time (sec): 2.000000E-2
Electric dark correction enabled: true
Boxcar width: 10
XAxis mode: Wavelengths
Number of Pixels in Spectrum: 2048
>>>>>Begin Spectral Data<<<<<
177.721	19.93
178.105	28.78
178.488	-4.44
178.871	13.67
179.254	50.1
179.636	85.58
180.019	20.03
180.402	81.58
180.785	95.81
181.168	130.61
181.55	306.9
181.933	122.09
182.316	131.79
182.698	476.57
183.081	525.81
183.463	-473.25
183.846	-171.25
184.228	-54.67
184.611	-56.52
184.993	0.08
185.376	6.2
185.758	-8.05
186.14	-6.94
186.522	-5.1
186.904	-2.43
187.287	-4.92
187.669	17.42
188.051	-5
188.433	-21.96
188.815	-1.99
189.197	-9.41
189.579	4.41
189.961	0.02
190.342	5.27
190.724	12.95
191.106	0.38
191.488	6.55
191.869	13.7
192.251	-4.56
192.633	-11.39
193.014	-18.48
193.396	-27.99
193.777	-25.89
194.159	-32.93
194.54	-26.87
194.922	-13.03
195.303	-4.45
195.684	-6.53
196.065	15.41
196.447	27.24
196.828	36.13
197.209	33.78
197.59	17.5
197.971	-0.74
198.352	8.36
198.733	-7.25
199.114	0.34
199.495	6.99
199.876	4.78
200.257	9.02
200.638	16.99
201.018	22.31
201.399	25.6
201.78	27.21
202.16	17.26
202.541	8.16
202.922	0.67
203.302	-8.86
203.683	-8.41
204.063	-16.44
204.444	-7.72
204.824	-6.41
205.204	-3.18
205.585	-1.9
205.965	12.43
206.345	8.9
206.725	22.58
207.106	14.69
207.486	-3.87
207.866	0.38
208.246	12.11
208.626	0.03
209.006	8.86
209.386	-12.46
209.766	-5.54
210.145	-11.81
210.525	-6.8
210.905	-6.76
211.285	2.02
211.664	6.91
212.044	4.03
212.424	3.6
212.803	-2.74
213.183	6.11
213.562	0.17
213.942	5.18
214.321	1.7
214.701	-2.57
215.08	-0.75
215.459	4.71
215.838	7.07
216.218	2.91
216.597	8.03
216.976	11.11
217.355	16.02
217.734	4.65
218.113	12.96
218.492	16.05
218.871	16.47
219.25	19.69
219.629	14.46
220.008	14.7
220.387	1.02
220.766	-8.07
221.144	-10.68
221.523	-9.36
221.902	-22.69
222.28	-16.06
222.659	-10.73
223.037	-4.62
223.416	-1.05
223.794	-2.59
224.173	-4.62
224.551	-3.44
224.929	-15.09
225.308	-13.25
225.686	-6.44
226.064	-1.59
226.442	0.34
226.821	-0.1
227.199	-2.16
227.577	-6.59
227.955	-5.1
228.333	-5.05
228.711	-0.69
229.089	0.72
229.467	0.77
229.845	1.1
230.222	-0.18
230.6	-0.9
230.978	-2.27
231.356	-3.64
231.733	-4.59
232.111	-1.82
232.488	-1
232.866	0.73
233.243	0.29
233.621	0.04
233.998	1.17
234.376	-1.38
234.753	1.72
235.13	1.24
235.508	4.27
235.885	4.96
236.262	5.52
236.639	4.44
237.016	4.23
237.393	4.83
237.77	5.14
238.147	5.5
238.524	5.18
238.901	5.72
239.278	5.55
239.655	6.11
240.032	5.65
240.409	5.2
240.785	4.95
241.162	5.09
241.539	5.06
241.915	4.9
242.292	5.25
242.668	4.98
243.045	5.21
243.421	5.54
243.798	5.34
244.174	5.55
244.551	5.66
244.927	5.39
245.303	5.38
245.679	5.23
246.056	5.12
246.432	5.12
246.808	5.15
247.184	5.05
247.56	4.89
247.936	4.85
248.312	4.66
248.688	4.86
249.064	4.9
249.44	4.96
249.815	4.68
250.191	4.75
250.567	4.54
250.943	4.23
251.318	3.92
251.694	3.78
252.069	3.72
252.445	3.71
252.82	3.71
253.196	3.71
253.571	3.75
253.947	3.75
254.322	4.14
254.697	4.02
255.073	3.97
255.448	3.72
255.823	3.81
256.198	4.08
256.573	4.01
256.948	4.09
257.323	4.07
257.698	4.24
258.073	4.02
258.448	4.13
258.823	4.28
259.198	3.96
259.573	3.98
259.948	4.02
260.322	3.9
260.697	3.92
261.072	3.79
261.446	3.83
261.821	3.73
262.195	3.73
262.57	3.54
262.944	3.63
263.319	3.82
263.693	3.8
264.067	3.93
264.442	4.04
264.816	3.92
265.19	3.89
265.564	3.83
265.938	3.99
266.313	3.86
266.687	3.84
267.061	4.2
267.435	4.29
267.809	4.32
268.183	4.26
268.556	4.32
268.93	4.42
269.304	4.34
269.678	4.44
270.051	4.32
270.425	4.35
270.799	4.41
271.172	4.42
271.546	4.21
271.919	4.05
272.293	3.91
272.666	3.99
273.04	4.14
273.413	4.04
273.787	4.05
274.16	4.11
274.533	4
274.906	3.94
275.279	3.83
275.653	3.72
276.026	3.86
276.399	3.77
276.772	3.9
277.145	3.89
277.518	3.98
277.891	3.92
278.263	4.05
278.636	3.8
279.009	3.82
279.382	3.98
279.755	3.9
280.127	4.1
280.5	4.09
280.872	4.02
281.245	4.13
281.617	4.22
281.99	4.32
282.362	4.39
282.735	4.2
283.107	4.23
283.479	4.21
283.852	4.19
284.224	4.24
284.596	4.14
284.968	4.21
285.34	4.14
285.713	4.21
286.085	4.22
286.457	4.34
286.829	4.36
287.201	4.34
287.572	4.36
287.944	4.2
288.316	4.27
288.688	4.21
289.06	4.28
289.431	4.22
289.803	4.21
290.175	4.33
290.546	4.56
290.918	4.51
291.289	4.51
291.661	4.59
292.032	4.53
292.403	4.59
292.775	4.57
293.146	4.54
293.517	4.62
293.889	4.68
294.26	4.68
294.631	4.66
295.002	4.67
295.373	4.67
295.744	4.7
296.115	4.79
296.486	4.7
296.857	4.75
297.228	4.77
297.599	4.76
297.97	4.73
298.34	4.78
298.711	4.99
299.082	5
299.452	4.95
299.823	5.15
300.194	5.13
300.564	5.17
300.935	5.31
301.305	5.17
301.676	5.2
302.046	5.31
302.416	5.37
302.787	5.33
303.157	5.5
303.527	5.57
303.897	5.54
304.267	5.78
304.637	5.74
305.008	5.72
305.378	5.77
305.748	5.84
306.117	5.72
306.487	5.72
306.857	5.8
307.227	5.82
307.597	5.68
307.967	5.87
308.336	5.98
308.706	6.01
309.076	6.07
309.445	6.14
309.815	6.11
310.184	6.09
310.554	6.26
310.923	6.19
311.293	6.23
311.662	6.14
312.031	6.02
312.401	6.01
312.77	6.18
313.139	6.3
313.508	6.33
313.877	6.46
314.246	6.42
314.616	6.46
314.985	6.45
315.353	6.47
315.722	6.45
316.091	6.37
316.46	6.34
316.829	6.42
317.198	6.52
317.567	6.62
317.935	6.73
318.304	6.86
318.672	6.99
319.041	7.19
319.41	7.44
319.778	7.56
320.147	7.66
320.515	7.62
320.883	7.59
321.252	7.64
321.62	7.75
321.988	7.76
322.357	7.79
322.725	7.98
323.093	8.13
323.461	8.06
323.829	8.17
324.197	8.27
324.565	8.37
324.933	8.39
325.301	8.42
325.669	8.53
326.037	8.31
326.405	8.26
326.772	8.37
327.14	8.49
327.508	8.71
327.875	8.79
328.243	8.9
328.61	8.92
328.978	9.04
329.346	9.03
329.713	9.08
330.08	9.14
330.448	9.16
330.815	9.14
331.182	9.4
331.55	9.32
331.917	9.43
332.284	9.52
332.651	9.46
333.018	9.49
333.385	9.45
333.752	9.7
334.119	9.86
334.486	9.67
334.853	9.55
335.22	9.51
335.587	9.49
335.954	9.4
336.32	9.4
336.687	9.39
337.054	9.49
337.42	9.61
337.787	9.73
338.153	9.69
338.52	9.82
338.886	9.61
339.253	9.67
339.619	9.58
339.986	9.61
340.352	9.73
340.718	9.6
341.084	9.59
341.451	9.64
341.817	9.66
342.183	9.75
342.549	9.8
342.915	9.78
343.281	9.85
343.647	9.93
344.013	9.98
344.379	10.05
344.745	9.94
345.11	9.9
345.476	9.8
345.842	9.87
346.208	9.85
346.573	9.98
346.939	10.13
347.304	10.18
347.67	10.15
348.035	10.12
348.401	10.24
348.766	10.33
349.132	10.32
349.497	10.28
349.862	10.26
350.228	10.24
350.593	10.27
350.958	10.19
351.323	10.08
351.688	10.06
352.053	10.08
352.418	10.16
352.783	10.13
353.148	10.11
353.513	10.07
353.878	9.9
354.243	9.95
354.608	9.91
354.972	9.88
355.337	9.93
355.702	9.94
356.066	9.96
356.431	9.9
356.795	9.77
357.16	9.7
357.524	9.64
357.889	9.59
358.253	9.53
358.618	9.57
358.982	9.6
359.346	9.48
359.71	9.33
360.075	9.3
360.439	9.27
360.803	9.34
361.167	9.27
361.531	9.3
361.895	9.23
362.259	9.22
362.623	9.19
362.987	9.06
363.351	9.04
363.714	9.01
364.078	8.95
364.442	8.97
364.806	8.97
365.169	8.91
365.533	8.89
365.896	8.86
366.26	8.83
366.623	8.77
366.987	8.81
367.35	8.83
367.714	8.73
368.077	8.7
368.44	8.54
368.803	8.5
369.167	8.46
369.53	8.36
369.893	8.29
370.256	8.21
370.619	8.22
370.982	8.06
371.345	7.97
371.708	7.98
372.071	7.86
372.434	7.75
372.797	7.72
373.159	7.6
373.522	7.54
373.885	7.44
374.247	7.38
374.61	7.32
374.973	7.22
375.335	7.26
375.698	7.23
376.06	7.23
376.423	7.23
376.785	7.21
377.147	7.23
377.51	7.21
377.872	7.18
378.234	7.11
378.596	7.1
378.958	7.02
379.321	6.94
379.683	6.95
380.045	6.96
380.407	6.96
380.769	6.93
381.13	6.89
381.492	6.87
381.854	6.83
382.216	6.77
382.578	6.74
382.939	6.64
383.301	6.58
383.663	6.47
384.024	6.4
384.386	6.34
384.747	6.29
385.109	6.22
385.47	6.16
385.832	6.11
386.193	6.1
386.554	6.05
386.916	6
387.277	5.93
387.638	5.86
387.999	5.78
388.36	5.76
388.721	5.67
389.082	5.64
389.443	5.59
389.804	5.54
390.165	5.46
390.526	5.38
390.887	5.32
391.248	5.36
391.609	5.3
391.969	5.28
392.33	5.2
392.691	5.16
393.051	5.15
393.412	5.15
393.772	5.07
394.133	5.05
394.493	5.01
394.854	4.98
395.214	4.96
395.574	4.9
395.935	4.88
396.295	4.88
396.655	4.83
397.015	4.8
397.376	4.79
397.736	4.79
398.096	4.78
398.456	4.74
398.816	4.69
399.176	4.66
399.535	4.61
399.895	4.61
400.255	4.57
400.615	4.52
400.975	4.47
401.334	4.44
401.694	4.43
402.054	4.42
402.413	4.42
402.773	4.37
403.132	4.37
403.492	4.37
403.851	4.35
404.211	4.35
404.57	4.34
404.929	4.34
405.288	4.32
405.648	4.33
406.007	4.35
406.366	4.32
406.725	4.34
407.084	4.33
407.443	4.33
407.802	4.35
408.161	4.32
408.52	4.3
408.879	4.32
409.238	4.32
409.596	4.29
409.955	4.26
410.314	4.27
410.673	4.25
411.031	4.19
411.39	4.17
411.748	4.14
412.107	4.13
412.465	4.1
412.824	4.09
413.182	4.04
413.54	3.99
413.899	3.99
414.257	3.95
414.615	3.92
414.974	3.89
415.332	3.85
415.69	3.85
416.048	3.81
416.406	3.79
416.764	3.77
417.122	3.77
417.48	3.75
417.838	3.73
418.195	3.72
418.553	3.72
418.911	3.71
419.269	3.71
419.626	3.69
419.984	3.69
420.342	3.67
420.699	3.66
421.057	3.65
421.414	3.63
421.772	3.63
422.129	3.62
422.486	3.61
422.844	3.6
423.201	3.58
423.558	3.59
423.915	3.58
424.273	3.57
424.63	3.54
424.987	3.55
425.344	3.55
425.701	3.54
426.058	3.54
426.415	3.52
426.772	3.49
427.128	3.47
427.485	3.47
427.842	3.46
428.199	3.45
428.555	3.48
428.912	3.47
429.269	3.48
429.625	3.48
429.982	3.48
430.338	3.48
430.695	3.48
431.051	3.46
431.407	3.44
431.764	3.44
432.12	3.43
432.476	3.42
432.832	3.41
433.189	3.41
433.545	3.39
433.901	3.39
434.257	3.4
434.613	3.41
434.969	3.41
435.325	3.43
435.681	3.41
436.036	3.4
436.392	3.4
436.748	3.38
437.104	3.36
437.459	3.35
437.815	3.34
438.171	3.36
438.526	3.37
438.882	3.38
439.237	3.38
439.593	3.4
439.948	3.39
440.304	3.38
440.659	3.38
441.014	3.38
441.369	3.38
441.725	3.39
442.08	3.38
442.435	3.37
442.79	3.36
443.145	3.36
443.5	3.34
443.855	3.34
444.21	3.34
444.565	3.35
444.92	3.35
445.275	3.33
445.629	3.32
445.984	3.31
446.339	3.3
446.693	3.28
447.048	3.26
447.403	3.26
447.757	3.27
448.112	3.26
448.466	3.27
448.82	3.26
449.175	3.25
449.529	3.24
449.883	3.24
450.238	3.22
450.592	3.23
450.946	3.21
451.3	3.2
451.654	3.19
452.008	3.18
452.362	3.17
452.716	3.18
453.07	3.19
453.424	3.19
453.778	3.18
454.132	3.18
454.486	3.18
454.839	3.17
455.193	3.16
455.547	3.17
455.9	3.17
456.254	3.18
456.607	3.19
456.961	3.2
457.314	3.19
457.668	3.2
458.021	3.2
458.375	3.21
458.728	3.2
459.081	3.21
459.434	3.18
459.787	3.19
460.141	3.18
460.494	3.18
460.847	3.18
461.2	3.18
461.553	3.2
461.906	3.2
462.259	3.21
462.611	3.22
462.964	3.23
463.317	3.23
463.67	3.23
464.022	3.22
464.375	3.23
464.728	3.23
465.08	3.23
465.433	3.23
465.785	3.25
466.138	3.27
466.49	3.27
466.843	3.3
467.195	3.31
467.547	3.31
467.899	3.3
468.252	3.32
468.604	3.34
468.956	3.33
469.308	3.34
469.66	3.36
470.012	3.38
470.364	3.37
470.716	3.38
471.068	3.37
471.42	3.39
471.772	3.38
472.123	3.41
472.475	3.42
472.827	3.44
473.178	3.43
473.53	3.42
473.882	3.43
474.233	3.43
474.585	3.42
474.936	3.42
475.288	3.4
475.639	3.41
475.99	3.41
476.342	3.4
476.693	3.4
477.044	3.39
477.395	3.37
477.746	3.36
478.097	3.33
478.448	3.33
478.8	3.33
479.15	3.32
479.501	3.3
479.852	3.3
480.203	3.29
480.554	3.3
480.905	3.32
481.255	3.33
481.606	3.32
481.957	3.33
482.307	3.33
482.658	3.34
483.009	3.33
483.359	3.34
483.709	3.35
484.06	3.35
484.41	3.36
484.761	3.36
485.111	3.37
485.461	3.38
485.811	3.38
486.162	3.39
486.512	3.4
486.862	3.4
487.212	3.41
487.562	3.41
487.912	3.42
488.262	3.42
488.612	3.42
488.961	3.44
489.311	3.45
489.661	3.46
490.011	3.47
490.36	3.48
490.71	3.48
491.06	3.5
491.409	3.5
491.759	3.51
492.108	3.52
492.458	3.54
492.807	3.55
493.157	3.57
493.506	3.59
493.855	3.6
494.204	3.63
494.554	3.63
494.903	3.66
495.252	3.68
495.601	3.7
495.95	3.72
496.299	3.75
496.648	3.77
496.997	3.8
497.346	3.83
497.695	3.87
498.043	3.89
498.392	3.9
498.741	3.94
499.09	3.96
499.438	3.97
499.787	4.01
500.135	4.06
500.484	4.11
500.832	4.14
501.181	4.18
501.529	4.21
501.878	4.26
502.226	4.31
502.574	4.35
502.923	4.37
503.271	4.41
503.619	4.46
503.967	4.52
504.315	4.56
504.663	4.61
505.011	4.65
505.359	4.7
505.707	4.76
506.055	4.79
506.403	4.85
506.751	4.92
507.098	4.98
507.446	5.01
507.794	5.06
508.141	5.1
508.489	5.14
508.837	5.2
509.184	5.27
509.531	5.33
509.879	5.4
510.226	5.48
510.574	5.53
510.921	5.59
511.268	5.63
511.616	5.69
511.963	5.78
512.31	5.83
512.657	5.9
513.004	5.98
513.351	6.07
513.698	6.14
514.045	6.2
514.392	6.3
514.739	6.36
515.086	6.46
515.432	6.55
515.779	6.64
516.126	6.73
516.473	6.81
516.819	6.89
517.166	6.96
517.512	7.05
517.859	7.14
518.205	7.23
518.552	7.33
518.898	7.4
519.245	7.47
519.591	7.57
519.937	7.64
520.283	7.72
520.629	7.82
520.976	7.93
521.322	8.03
521.668	8.13
522.014	8.26
522.36	8.38
522.706	8.5
523.052	8.65
523.398	8.8
523.743	8.94
524.089	9.11
524.435	9.25
524.781	9.4
525.126	9.55
525.472	9.67
525.817	9.79
526.163	9.91
526.509	10.02
526.854	10.12
527.199	10.23
527.545	10.35
527.89	10.45
528.235	10.57
528.581	10.69
528.926	10.81
529.271	10.93
529.616	11.04
529.961	11.16
530.306	11.29
530.651	11.42
530.996	11.57
531.341	11.71
531.686	11.86
532.031	12.01
532.376	12.16
532.721	12.34
533.065	12.52
533.41	12.72
533.755	12.9
534.099	13.1
534.444	13.31
534.788	13.51
535.133	13.71
535.477	13.91
535.822	14.15
536.166	14.38
536.51	14.67
536.855	14.93
537.199	15.22
537.543	15.49
537.887	15.78
538.231	16.1
538.576	16.41
538.92	16.72
539.264	17.02
539.608	17.3
539.951	17.55
540.295	17.78
540.639	18.03
540.983	18.28
541.327	18.55
541.671	18.78
542.014	19.01
542.358	19.27
542.701	19.5
543.045	19.72
543.389	19.95
543.732	20.19
544.075	20.48
544.419	20.72
544.762	20.99
545.105	21.31
545.449	21.59
545.792	21.88
546.135	22.21
546.478	22.55
546.821	22.9
547.165	23.26
547.508	23.67
547.851	24.04
548.194	24.42
548.536	24.76
548.879	25.15
549.222	25.52
549.565	25.92
549.908	26.33
550.25	26.72
550.593	27.11
550.936	27.46
551.278	27.84
551.621	28.25
551.963	28.64
552.306	28.95
552.648	29.26
552.991	29.59
553.333	29.93
553.675	30.25
554.017	30.59
554.36	30.91
554.702	31.24
555.044	31.53
555.386	31.83
555.728	32.14
556.07	32.48
556.412	32.83
556.754	33.1
557.096	33.43
557.438	33.82
557.78	34.15
558.121	34.5
558.463	34.82
558.805	35.15
559.147	35.49
559.488	35.88
559.83	36.21
560.171	36.54
560.513	36.8
560.854	37.07
561.196	37.38
561.537	37.7
561.878	37.99
562.22	38.26
562.561	38.61
562.902	38.91
563.243	39.18
563.584	39.49
563.925	39.8
564.266	40.01
564.607	40.23
564.948	40.52
565.289	40.74
565.63	41
565.971	41.26
566.312	41.55
566.653	41.78
566.993	42
567.334	42.25
567.675	42.52
568.015	42.83
568.356	43.07
568.696	43.34
569.037	43.61
569.377	43.86
569.718	44.04
570.058	44.3
570.398	44.57
570.739	44.79
571.079	44.99
571.419	45.26
571.759	45.47
572.099	45.67
572.439	45.96
572.779	46.13
573.119	46.34
573.459	46.5
573.799	46.68
574.139	46.89
574.479	47.1
574.819	47.31
575.158	47.46
575.498	47.65
575.838	47.84
576.177	47.93
576.517	48.12
576.856	48.37
577.196	48.5
577.535	48.64
577.875	48.78
578.214	49
578.553	49.19
578.893	49.36
579.232	49.55
579.571	49.67
579.91	49.86
580.25	50.05
580.589	50.22
580.928	50.43
581.267	50.63
581.606	50.76
581.945	50.87
582.283	51.02
582.622	51.13
582.961	51.25
583.3	51.47
583.639	51.69
583.977	51.88
584.316	52.01
584.654	52.19
584.993	52.35
585.332	52.48
585.67	52.55
586.008	52.69
586.347	52.82
586.685	52.89
587.024	53.02
587.362	53.11
587.7	53.27
588.038	53.34
588.376	53.46
588.715	53.51
589.053	53.64
589.391	53.77
589.729	53.88
590.067	53.89
590.404	54.02
590.742	54.08
591.08	54.11
591.418	54.25
591.756	54.36
592.093	54.4
592.431	54.5
592.769	54.62
593.106	54.83
593.444	54.88
593.781	54.99
594.119	55.11
594.456	55.18
594.793	55.25
595.131	55.41
595.468	55.41
595.805	55.6
596.143	55.74
596.48	55.85
596.817	55.91
597.154	56.05
597.491	56.17
597.828	56.27
598.165	56.39
598.502	56.48
598.839	56.44
599.176	56.62
599.512	56.69
599.849	56.76
600.186	56.83
600.523	57
600.859	57.13
601.196	57.21
601.532	57.3
601.869	57.37
602.205	57.4
602.542	57.49
602.878	57.54
603.215	57.55
603.551	57.55
603.887	57.62
604.223	57.71
604.56	57.78
604.896	57.88
605.232	57.98
605.568	58
605.904	58.17
606.24	58.24
606.576	58.29
606.912	58.39
607.248	58.32
607.583	58.33
607.919	58.43
608.255	58.51
608.591	58.57
608.926	58.69
609.262	58.71
609.597	58.84
609.933	58.89
610.268	59.03
610.604	59.11
610.939	59.2
611.275	59.24
611.61	59.28
611.945	59.25
612.281	59.25
612.616	59.33
612.951	59.41
613.286	59.41
613.621	59.61
613.956	59.7
614.291	59.86
614.626	59.96
614.961	59.95
615.296	60.05
615.631	60.13
615.966	60.07
616.3	60.18
616.635	60.18
616.97	60.25
617.304	60.23
617.639	60.33
617.973	60.36
618.308	60.43
618.642	60.42
618.977	60.51
619.311	60.6
619.646	60.58
619.98	60.61
620.314	60.78
620.648	60.72
620.983	60.8
621.317	60.87
621.651	60.96
621.985	61.03
622.319	61.01
622.653	61.03
622.987	61.07
623.321	61.11
623.655	61.22
623.988	61.21
624.322	61.18
624.656	61.23
624.99	61.32
625.323	61.25
625.657	61.29
625.99	61.34
626.324	61.31
626.657	61.43
626.991	61.5
627.324	61.51
627.658	61.6
627.991	61.59
628.324	61.5
628.657	61.46
628.991	61.47
629.324	61.54
629.657	61.61
629.99	61.7
630.323	61.78
630.656	61.86
630.989	61.92
631.322	61.97
631.655	61.97
631.987	61.98
632.32	62.01
632.653	62.03
632.986	62.04
633.318	62.05
633.651	62.08
633.984	62.04
634.316	62
634.649	61.96
634.981	61.93
635.313	62.1
635.646	62.15
635.978	62.2
636.31	62.25
636.643	62.21
636.975	62.21
637.307	62.24
637.639	62.27
637.971	62.36
638.303	62.35
638.635	62.28
638.967	62.34
639.299	62.53
639.631	62.64
639.963	62.75
640.295	62.75
640.626	62.75
640.958	62.78
641.29	62.85
641.621	62.88
641.953	62.89
642.285	62.88
642.616	62.98
642.948	63.01
643.279	63.02
643.61	63.16
643.942	63.11
644.273	63.04
644.604	63
644.936	62.89
645.267	63
645.598	63.12
645.929	63.12
646.26	62.99
646.591	63.09
646.922	63.04
647.253	63.13
647.584	63.18
647.915	63.29
648.245	63.36
648.576	63.4
648.907	63.59
649.238	63.6
649.568	63.57
649.899	63.52
650.229	63.53
650.56	63.55
650.89	63.72
651.221	63.82
651.551	63.74
651.882	63.87
652.212	63.89
652.542	63.95
652.872	63.81
653.203	63.93
653.533	63.91
653.863	64.02
654.193	64.04
654.523	64.07
654.853	64.02
655.183	63.95
655.513	64.01
655.843	63.94
656.172	63.87
656.502	63.83
656.832	63.95
657.162	63.87
657.491	63.9
657.821	63.9
658.15	63.88
658.48	63.94
658.809	63.95
659.139	63.98
659.468	63.96
659.798	64.15
660.127	64.15
660.456	64.16
660.785	64.1
661.115	64.17
661.444	64.13
661.773	64.23
662.102	64.17
662.431	64.12
662.76	64.18
663.089	64.25
663.418	64.26
663.747	64.18
664.076	64.19
664.404	64.24
664.733	64.23
665.062	64.1
665.39	64.23
665.719	64.25
666.048	64.25
666.376	64.26
666.705	64.25
667.033	64.17
667.362	64.1
667.69	64.07
668.018	64.09
668.347	64.15
668.675	64.19
669.003	64.27
669.331	64.22
669.659	64.23
669.987	64.33
670.315	64.36
670.643	64.36
670.971	64.41
671.299	64.31
671.627	64.23
671.955	64.37
672.283	64.26
672.61	64.2
672.938	64.31
673.266	64.34
673.593	64.17
673.921	64.35
674.249	64.41
674.576	64.45
674.904	64.32
675.231	64.28
675.558	64.25
675.886	64.3
676.213	64.52
676.54	64.5
676.867	64.51
677.195	64.71
677.522	64.76
677.849	64.76
678.176	64.72
678.503	64.73
678.83	64.79
679.157	64.77
679.484	64.77
679.81	64.65
680.137	64.56
680.464	64.66
680.791	64.54
681.117	64.5
681.444	64.52
681.771	64.59
682.097	64.63
682.424	64.63
682.75	64.65
683.077	64.52
683.403	64.54
683.729	64.45
684.056	64.31
684.382	64.19
684.708	64.34
685.034	64.37
685.36	64.33
685.686	64.38
686.012	64.47
686.339	64.49
686.664	64.51
686.99	64.7
687.316	64.74
687.642	64.78
687.968	64.73
688.294	64.8
688.619	64.89
688.945	64.8
689.271	64.67
689.596	64.55
689.922	64.62
690.247	64.55
690.573	64.68
690.898	64.69
691.224	64.87
691.549	64.72
691.874	64.79
692.2	65.04
692.525	65.04
692.85	64.99
693.175	65.12
693.5	65.17
693.825	65.01
694.15	64.83
694.475	65
694.8	65.15
695.125	65.04
695.45	64.97
695.775	64.99
696.099	65.19
696.424	65.39
696.749	65.32
697.073	65.42
697.398	65.38
697.723	65.52
698.047	65.58
698.372	65.53
698.696	65.54
699.02	65.52
699.345	65.46
699.669	65.57
699.993	65.54
700.318	65.5
700.642	65.57
700.966	65.7
701.29	65.58
701.614	65.55
701.938	65.68
702.262	65.96
702.586	65.87
702.91	65.78
703.234	65.74
703.557	65.72
703.881	65.59
704.205	65.6
704.529	65.52
704.852	65.37
705.176	65.48
705.499	65.62
705.823	65.56
706.146	65.56
706.47	65.55
706.793	65.54
707.117	65.66
707.44	65.7
707.763	65.78
708.086	65.81
708.409	65.91
708.733	65.84
709.056	65.46
709.379	65.78
709.702	65.75
710.025	65.52
710.348	65.48
710.671	65.65
710.993	65.57
711.316	65.58
711.639	65.63
711.962	65.78
712.284	65.86
712.607	66.02
712.93	65.86
713.252	66.03
713.575	65.96
713.897	65.9
714.22	65.98
714.542	66.03
714.864	66.09
715.187	65.99
715.509	66.04
715.831	66.13
716.153	66.1
716.475	66.36
716.798	66.64
717.12	66.73
717.442	66.59
717.764	66.78
718.085	66.54
718.407	66.46
718.729	66.22
719.051	65.97
719.373	65.77
719.695	65.89
720.016	65.77
720.338	65.67
720.659	65.72
720.981	65.71
721.302	65.76
721.624	65.63
721.945	65.69
722.267	65.6
722.588	65.39
722.909	65.48
723.231	65.21
723.552	65.02
723.873	65.06
724.194	65.31
724.515	65.25
724.836	65.43
725.157	65.56
725.478	65.74
725.799	65.74
726.12	65.72
726.441	65.61
726.762	65.52
727.083	65.96
727.403	66.1
727.724	66.14
728.045	66.02
728.365	66.06
728.686	65.81
729.006	65.93
729.327	66.28
729.647	66.07
729.967	66.13
730.288	66.29
730.608	66.28
730.928	66.2
731.249	66.06
731.569	66.16
731.889	66.18
732.209	66.09
732.529	66.03
732.849	65.98
733.169	66.13
733.489	66.03
733.809	65.87
734.129	65.73
734.448	65.92
734.768	65.98
735.088	66.03
735.408	66.11
735.727	66
736.047	66.04
736.366	66.18
736.686	66.03
737.005	65.72
737.325	65.41
737.644	65.37
737.963	65.44
738.283	65.31
738.602	65.34
738.921	65.53
739.24	65.57
739.56	65.81
739.879	65.56
740.198	65.8
740.517	65.68
740.836	65.67
741.155	65.17
741.473	65.42
741.792	65.34
742.111	65.43
742.43	65.3
742.748	64.77
743.067	64.91
743.386	65.06
743.704	65.35
744.023	65.46
744.341	65.65
744.66	65.6
744.978	65.97
745.297	66.2
745.615	66.08
745.933	66.21
746.252	65.91
746.57	66.3
746.888	65.96
747.206	66.06
747.524	66.04
747.842	66.27
748.16	65.79
748.478	65.97
748.796	66.13
749.114	66.38
749.432	66.69
749.749	66.51
750.067	66.62
750.385	66.65
750.703	66.95
751.02	66.52
751.338	66.51
751.655	66.14
751.973	66.08
752.29	65.84
752.608	65.65
752.925	65.54
753.242	65.58
753.56	65.62
753.877	65.34
754.194	65.17
754.511	65.21
754.828	65.4
755.145	65.04
755.462	65.27
755.779	65.29
756.096	65.07
756.413	65.16
756.73	65.27
757.047	65.11
757.364	64.74
757.68	64.95
757.997	65.02
758.314	64.84
758.63	65.02
758.947	65.47
759.264	65.13
759.58	65.39
759.896	65.35
760.213	65.51
760.529	65.96
760.846	66.06
761.162	65.92
761.478	65.93
761.794	66.04
762.11	65.81
762.426	65.62
762.743	66.05
763.059	65.98
763.375	66.08
763.69	66
764.006	66.35
764.322	66.55
764.638	66.66
764.954	66.96
765.27	66.48
765.585	66.23
765.901	66.66
766.216	66.59
766.532	66.4
766.848	66.53
767.163	66.19
767.478	66.06
767.794	66.04
768.109	66.23
768.424	66.4
768.74	66.29
769.055	66.51
769.37	66.15
769.685	66.07
770	65.72
770.315	66.15
770.63	66.24
770.945	66.3
771.26	66.1
771.575	66.22
771.89	66.64
772.205	66.81
772.52	66.28
772.834	66.05
773.149	66.3
773.464	65.98
773.778	66.08
774.093	66.02
774.407	66.41
774.722	65.72
775.036	65.69
775.351	66.07
775.665	66.08
775.979	66.28
776.293	66.33
776.608	66.31
776.922	65.91
777.236	65.46
777.55	64.74
777.864	65.21
778.178	64.77
778.492	65.01
778.806	64.68
779.12	65.14
779.434	65.56
779.747	65.41
780.061	65.4
780.375	65.36
780.689	65.79
781.002	65.47
781.316	66.02
781.629	66.03
781.943	66.07
782.256	66.32
782.57	66.58
782.883	66.72
783.196	66.71
783.51	66.73
783.823	66.81
784.136	67.03
784.449	66.64
784.762	67.07
785.075	66.86
785.388	67.58
785.701	67.9
786.014	67.67
786.327	67.8
786.64	68.05
786.953	68.12
787.266	68.36
787.578	68.76
787.891	68.34
788.204	68.62
788.516	68.19
788.829	68.01
789.141	67.42
789.454	67.24
789.766	67.37
790.079	67.62
790.391	67.94
790.703	68.08
791.016	67.76
791.328	67.47
791.64	66.94
791.952	66.27
792.264	66.26
792.576	66.21
792.888	66.4
793.2	66.41
793.512	66.94
793.824	66.75
794.136	65.92
794.448	66.29
794.76	65.86
795.071	66.3
795.383	65.88
795.695	66.3
796.006	66.53
796.318	66.27
796.629	66.44
796.941	66.31
797.252	66.33
797.564	66.61
797.875	66.7
798.186	67.09
798.497	67.25
798.809	67.32
799.12	67.16
799.431	67.12
799.742	67.02
800.053	66.67
800.364	66.62
800.675	67.6
800.986	67.51
801.297	68.42
801.608	68.25
801.918	68.73
802.229	68.57
802.54	68.9
802.851	68.95
803.161	68.49
803.472	68.44
803.782	68.5
804.093	68.44
804.403	68.63
804.714	69.11
805.024	69.03
805.334	68.98
805.645	69.7
805.955	69.73
806.265	70.03
806.575	70.25
806.885	70.6
807.195	70.24
807.505	70.46
807.815	69.37
808.125	69.44
808.435	69.13
808.745	69.29
809.055	68.78
809.365	69.04
809.674	69.14
809.984	69.12
810.294	68.76
810.603	68.82
810.913	68.91
811.222	68.57
811.532	69.23
811.841	68.6
812.151	68.22
812.46	67.87
812.769	67.42
813.079	67.28
813.388	66.99
813.697	66.25
814.006	66.25
814.315	66.24
814.624	65.88
814.933	65.44
815.242	65.52
815.551	65.47
815.86	65.99
816.169	66.07
816.478	67.27
816.786	67.9
817.095	68.27
817.404	67.4
817.712	67.29
818.021	66.3
818.33	66.64
818.638	66.56
818.947	67.9
819.255	67.9
819.563	67.3
819.872	67.43
820.18	68.06
820.488	67.82
820.796	67.81
821.105	68.03
821.413	68.45
821.721	68.42
822.029	68.57
822.337	68.41
822.645	68.48
822.953	67.84
823.26	67.81
823.568	67.71
823.876	67.92
824.184	67.91
824.491	68.12
824.799	68.03
825.107	68.12
825.414	67.81
825.722	67.82
826.029	68.16
826.337	68.08
826.644	68.08
826.951	68.17
827.259	68.12
827.566	68.05
827.873	67.69
828.18	67.65
828.488	67.37
828.795	67.05
829.102	67.04
829.409	67.52
829.716	67.43
830.023	67.52
830.329	67.29
830.636	67.45
830.943	67.29
831.25	67.56
831.557	67.22
831.863	67.09
832.17	67.11
832.476	66.87
832.783	66.83
833.089	66.3
833.396	66.26
833.702	66.67
834.009	66.58
834.315	67
834.621	67.43
834.928	67.67
835.234	68.1
835.54	67.47
835.846	67.39
836.152	67.38
836.458	67.13
836.764	67.5
837.07	67.15
837.376	67.46
837.682	67.22
837.988	67.73
838.293	67.57
838.599	67.79
838.905	67.95
839.211	67.95
839.516	68.39
839.822	68.1
840.127	67.95
840.433	68.19
840.738	68.54
841.044	67.22
841.349	67.1
841.654	67.32
841.959	68.47
842.265	68.23
842.57	69.39
842.875	69.89
843.18	70.27
843.485	70.74
843.79	70.25
844.095	70.2
844.4	70.81
844.705	70.47
845.01	70.26
845.315	69.5
845.619	69.24
845.924	68.8
846.229	69.98
846.533	69.38
846.838	69.38
847.142	69.13
847.447	70.13
847.751	70.3
848.056	70.23
848.36	70.95
848.664	71.54
848.969	71.11
849.273	70.87
849.577	68.15
849.881	65.95
850.185	67.15
850.489	67.7
850.794	65.98
851.097	69
851.401	68.75
851.705	68.45
852.009	70.5
852.313	70.63
852.617	70.76
852.92	71.15
853.224	71.02
853.528	71.55
853.831	71.45
854.135	71.26
854.438	70.86
854.742	69.11
855.045	68.66
855.349	68.59
855.652	69.89
855.955	71.88
856.259	73.67
856.562	72.14
856.865	71.14
857.168	71.96
857.471	70.79
857.774	69.47
858.077	69.31
858.38	69.06
858.683	70.12
858.986	70.26
859.289	70.65
859.592	69.92
859.894	68.05
860.197	67.24
860.5	67.51
860.802	65.67
861.105	65.88
861.407	65.92
861.71	63.24
862.012	62.42
862.315	61.32
862.617	60.59
862.919	60.27
863.222	61.07
863.524	59.19
863.826	57.49
864.128	60.01
864.43	61.41
864.732	59.91
865.034	60.09
865.336	59.06
865.638	55.88
865.94	55.26
866.242	56.78
866.544	57.14
866.846	57.08
867.147	59.9
867.449	60.04
867.751	60.84
868.052	63.52
868.354	62.49
868.655	64.36
868.957	63.57
869.258	66.2
869.56	65.72
869.861	66.33
870.162	65.27
870.463	63.22
870.765	62.69
871.066	62.65
871.367	61.12
871.668	62
871.969	61.54
872.27	59.74
872.571	58.97
872.872	57.2
873.173	56.55
873.473	52.5
873.774	54.43
874.075	53.67
874.376	51.97
874.676	52.73
874.977	52.73
875.277	55.21
875.578	53.49
875.878	53.42
876.179	53.95
876.479	55.35
876.78	55.36
877.08	54.45
877.38	53.86
877.68	53.48
877.981	51.67
878.281	55.87
878.581	60.23
