Data from BA57712_Reflection_00014.txt Node
Date: Mon Nov 18 15:19:49 EST 2019
User: vgr7
Spectrometer: USB2G7710
Scans to average: 3
Trigger mode: 4
Integration Time (sec): 2.000000E-2
Electric dark correction enabled: true
Boxcar width: 10
XAxis mode: Wavelengths
Number of Pixels in Spectrum: 2048
>>>>>Begin Spectral Data<<<<<
177.721	-268.92
178.105	-145.42
178.488	-29.89
178.871	-56.75
179.254	-14.94
179.636	-186.55
180.019	-16.61
180.402	106.82
180.785	-114.36
181.168	3405.56
181.55	117.66
181.933	82.55
182.316	48.01
182.698	83.41
183.081	59.51
183.463	7.29
183.846	3.67
184.228	9.43
184.611	9.41
184.993	-11.9
185.376	-31.85
185.758	-18.63
186.14	-23.15
186.522	18.39
186.904	14.3
187.287	89.18
187.669	95.35
188.051	215.44
188.433	294.3
188.815	109.77
189.197	185.81
189.579	-225.33
189.961	-119.01
190.342	-199.87
190.724	-155.6
191.106	-131.17
191.488	-47.05
191.869	-20.54
192.251	-40.78
192.633	-33.69
193.014	-70.84
193.396	-145.3
193.777	-152.25
194.159	-217.37
194.54	-97.82
194.922	-78.66
195.303	-22.03
195.684	-8.32
196.065	18.15
196.447	18.8
196.828	-3.63
197.209	1.33
197.59	-24.05
197.971	-20.9
198.352	-5.46
198.733	7.33
199.114	-6.62
199.495	-34.1
199.876	-25.35
200.257	-14.21
200.638	-15.53
201.018	-19.33
201.399	-15.94
201.78	-11.97
202.16	-24.74
202.541	-36
202.922	-49.45
203.302	-82.75
203.683	-86.3
204.063	-114.31
204.444	-122.44
204.824	-143.29
205.204	-167.51
205.585	-136.9
205.965	-174.41
206.345	-178.97
206.725	-243
207.106	-460.56
207.486	-1160.98
207.866	396.95
208.246	289.58
208.626	336.27
209.006	438.62
209.386	509.36
209.766	600.64
210.145	349.83
210.525	460.87
210.905	832.35
211.285	575.15
211.664	546.69
212.044	1325.4
212.424	1171.65
212.803	1028.77
213.183	-612.52
213.562	-765.01
213.942	-410.37
214.321	-801.59
214.701	-384.35
215.08	-166.67
215.459	-74.27
215.838	-67.54
216.218	-46.37
216.597	-45.54
216.976	-53.16
217.355	-56.04
217.734	-54.27
218.113	-30.06
218.492	-34.61
218.871	-27.71
219.25	-38.15
219.629	-48.27
220.008	-61.51
220.387	-60.97
220.766	-55.51
221.144	-77.67
221.523	-83.89
221.902	-78.56
222.28	-68.81
222.659	-55.51
223.037	-46.3
223.416	-74.79
223.794	-65.1
224.173	-78.56
224.551	-71.97
224.929	-66.57
225.308	-38.67
225.686	-24.46
226.064	-18.61
226.442	-19.2
226.821	-12.65
227.199	-5.38
227.577	-3.11
227.955	-2.7
228.333	-1.07
228.711	2.68
229.089	4.88
229.467	3.23
229.845	5.32
230.222	5.8
230.6	5.26
230.978	3.55
231.356	8.56
231.733	7.06
232.111	8.79
232.488	10.37
232.866	10.53
233.243	11.41
233.621	10.44
233.998	10.24
234.376	10.77
234.753	9.69
235.13	8.61
235.508	8.61
235.885	8.15
236.262	6.54
236.639	5.9
237.016	4.96
237.393	5.84
237.77	6.09
238.147	5.73
238.524	6.39
238.901	6.97
239.278	5.73
239.655	6.03
240.032	5.81
240.409	6.04
240.785	6.41
241.162	5.54
241.539	5.6
241.915	5.53
242.292	4.83
242.668	4.99
243.045	5.24
243.421	5.09
243.798	5.16
244.174	5.22
244.551	5.12
244.927	4.98
245.303	4.72
245.679	4.55
246.056	4.72
246.432	4.5
246.808	4.22
247.184	4.02
247.56	3.79
247.936	3.76
248.312	3.65
248.688	3.44
249.064	3.5
249.44	3.29
249.815	3.39
250.191	3.57
250.567	3.42
250.943	3
251.318	3.16
251.694	3.01
252.069	3.1
252.445	3.19
252.82	3.13
253.196	3.13
253.571	3.09
253.947	2.99
254.322	3.1
254.697	3.09
255.073	2.98
255.448	3.11
255.823	3.05
256.198	3.28
256.573	3.31
256.948	3.51
257.323	3.76
257.698	3.63
258.073	3.61
258.448	3.68
258.823	3.93
259.198	3.87
259.573	4
259.948	3.94
260.322	4.04
260.697	4
261.072	3.98
261.446	3.96
261.821	3.83
262.195	3.82
262.57	3.8
262.944	3.88
263.319	3.87
263.693	3.97
264.067	3.83
264.442	3.92
264.816	3.76
265.19	3.68
265.564	3.69
265.938	3.78
266.313	3.79
266.687	3.7
267.061	3.54
267.435	3.44
267.809	3.42
268.183	3.26
268.556	3.3
268.93	3.33
269.304	3.23
269.678	3.23
270.051	3.26
270.425	3.37
270.799	3.45
271.172	3.58
271.546	3.55
271.919	3.39
272.293	3.25
272.666	3.36
273.04	3.4
273.413	3.44
273.787	3.51
274.16	3.47
274.533	3.52
274.906	3.55
275.279	3.53
275.653	3.38
276.026	3.39
276.399	3.39
276.772	3.36
277.145	3.33
277.518	3.49
277.891	3.31
278.263	3.25
278.636	3.1
279.009	3.05
279.382	3.14
279.755	3.36
280.127	3.66
280.5	3.64
280.872	3.64
281.245	3.55
281.617	3.51
281.99	3.65
282.362	3.58
282.735	3.63
283.107	3.56
283.479	3.7
283.852	3.77
284.224	3.89
284.596	4.07
284.968	4.15
285.34	4.11
285.713	4.25
286.085	4.29
286.457	4.34
286.829	4.33
287.201	4.4
287.572	4.37
287.944	4.21
288.316	4.15
288.688	4.15
289.06	4.3
289.431	4.39
289.803	4.39
290.175	4.61
290.546	4.73
290.918	4.92
291.289	4.98
291.661	4.94
292.032	5.04
292.403	5.01
292.775	5.2
293.146	5.25
293.517	5.29
293.889	5.36
294.26	5.42
294.631	5.45
295.002	5.44
295.373	5.52
295.744	5.59
296.115	5.7
296.486	5.7
296.857	5.76
297.228	5.75
297.599	5.81
297.97	5.71
298.34	5.74
298.711	5.81
299.082	5.83
299.452	5.88
299.823	6.02
300.194	6.06
300.564	6.09
300.935	6.12
301.305	6.26
301.676	6.36
302.046	6.57
302.416	6.72
302.787	6.76
303.157	6.84
303.527	7
303.897	7.11
304.267	7.34
304.637	7.42
305.008	7.6
305.378	7.71
305.748	7.99
306.117	8.1
306.487	8.15
306.857	8.3
307.227	8.48
307.597	8.46
307.967	8.65
308.336	8.59
308.706	8.71
309.076	8.74
309.445	8.78
309.815	8.74
310.184	8.78
310.554	8.98
310.923	9.09
311.293	9.19
311.662	9.26
312.031	9.23
312.401	9.35
312.77	9.39
313.139	9.48
313.508	9.62
313.877	9.66
314.246	9.75
314.616	9.88
314.985	10.01
315.353	10.06
315.722	10.19
316.091	10.36
316.46	10.35
316.829	10.54
317.198	10.75
317.567	10.92
317.935	11.14
318.304	11.05
318.672	11.09
319.041	11.2
319.41	11.33
319.778	11.64
320.147	11.71
320.515	11.79
320.883	11.91
321.252	11.95
321.62	12.03
321.988	12.02
322.357	12.02
322.725	12.04
323.093	12.05
323.461	11.98
323.829	12.06
324.197	12.26
324.565	12.29
324.933	12.33
325.301	12.43
325.669	12.44
326.037	12.45
326.405	12.61
326.772	12.62
327.14	12.67
327.508	12.66
327.875	12.63
328.243	12.68
328.61	12.63
328.978	12.61
329.346	12.83
329.713	13
330.08	13.13
330.448	13.2
330.815	13.23
331.182	13.41
331.55	13.45
331.917	13.52
332.284	13.67
332.651	13.66
333.018	13.7
333.385	13.69
333.752	13.86
334.119	13.82
334.486	13.86
334.853	13.82
335.22	13.92
335.587	14.08
335.954	14.17
336.32	14.26
336.687	14.33
337.054	14.26
337.42	14.27
337.787	14.32
338.153	14.26
338.52	14.43
338.886	14.47
339.253	14.45
339.619	14.42
339.986	14.36
340.352	14.57
340.718	14.52
341.084	14.63
341.451	14.66
341.817	14.8
342.183	14.9
342.549	14.93
342.915	14.89
343.281	14.93
343.647	14.93
344.013	14.97
344.379	14.97
344.745	14.99
345.11	15.01
345.476	15.1
345.842	15.16
346.208	15.25
346.573	15.21
346.939	15.43
347.304	15.5
347.67	15.51
348.035	15.44
348.401	15.57
348.766	15.58
349.132	15.53
349.497	15.51
349.862	15.55
350.228	15.7
350.593	15.62
350.958	15.59
351.323	15.49
351.688	15.47
352.053	15.59
352.418	15.62
352.783	15.63
353.148	15.43
353.513	15.44
353.878	15.31
354.243	15.34
354.608	15.29
354.972	15.27
355.337	15.32
355.702	15.34
356.066	15.3
356.431	15.22
356.795	15.34
357.16	15.27
357.524	15.19
357.889	15.06
358.253	15.07
358.618	15.04
358.982	15.03
359.346	14.94
359.71	14.83
360.075	14.78
360.439	14.79
360.803	14.85
361.167	14.86
361.531	14.86
361.895	14.78
362.259	14.63
362.623	14.62
362.987	14.49
363.351	14.42
363.714	14.36
364.078	14.35
364.442	14.2
364.806	14.09
365.169	14.02
365.533	13.99
365.896	13.99
366.26	13.9
366.623	13.93
366.987	13.87
367.35	13.8
367.714	13.75
368.077	13.63
368.44	13.47
368.803	13.37
369.167	13.25
369.53	13.18
369.893	13.21
370.256	13.1
370.619	13.03
370.982	12.97
371.345	12.88
371.708	12.74
372.071	12.56
372.434	12.53
372.797	12.45
373.159	12.34
373.522	12.21
373.885	12.13
374.247	12.05
374.61	11.98
374.973	11.88
375.335	11.72
375.698	11.64
376.06	11.6
376.423	11.51
376.785	11.5
377.147	11.46
377.51	11.28
377.872	11.22
378.234	11.16
378.596	11.09
378.958	11.02
379.321	10.98
379.683	10.96
380.045	10.83
380.407	10.78
380.769	10.72
381.13	10.65
381.492	10.61
381.854	10.49
382.216	10.36
382.578	10.26
382.939	10.21
383.301	10.13
383.663	10.02
384.024	9.96
384.386	9.84
384.747	9.75
385.109	9.72
385.47	9.63
385.832	9.52
386.193	9.41
386.554	9.34
386.916	9.29
387.277	9.25
387.638	9.22
387.999	9.12
388.36	9.05
388.721	9.02
389.082	8.9
389.443	8.83
389.804	8.86
390.165	8.79
390.526	8.75
390.887	8.68
391.248	8.65
391.609	8.6
391.969	8.54
392.33	8.47
392.691	8.42
393.051	8.35
393.412	8.32
393.772	8.25
394.133	8.21
394.493	8.1
394.854	8.01
395.214	7.91
395.574	7.83
395.935	7.77
396.295	7.7
396.655	7.64
397.015	7.6
397.376	7.47
397.736	7.4
398.096	7.29
398.456	7.21
398.816	7.16
399.176	7.05
399.535	7.04
399.895	6.99
400.255	6.91
400.615	6.87
400.975	6.8
401.334	6.79
401.694	6.72
402.054	6.71
402.413	6.7
402.773	6.65
403.132	6.63
403.492	6.6
403.851	6.55
404.211	6.55
404.57	6.48
404.929	6.48
405.288	6.45
405.648	6.43
406.007	6.41
406.366	6.38
406.725	6.39
407.084	6.32
407.443	6.29
407.802	6.29
408.161	6.23
408.52	6.21
408.879	6.14
409.238	6.13
409.596	6.11
409.955	6.08
410.314	6.11
410.673	6.06
411.031	6
411.39	5.97
411.748	5.95
412.107	5.97
412.465	5.95
412.824	5.94
413.182	5.9
413.54	5.87
413.899	5.84
414.257	5.81
414.615	5.78
414.974	5.74
415.332	5.7
415.69	5.66
416.048	5.62
416.406	5.62
416.764	5.57
417.122	5.54
417.48	5.5
417.838	5.47
418.195	5.45
418.553	5.42
418.911	5.38
419.269	5.36
419.626	5.31
419.984	5.28
420.342	5.25
420.699	5.24
421.057	5.22
421.414	5.19
421.772	5.17
422.129	5.14
422.486	5.11
422.844	5.09
423.201	5.09
423.558	5.07
423.915	5.05
424.273	5.04
424.63	5.02
424.987	5.02
425.344	4.99
425.701	4.98
426.058	4.96
426.415	4.96
426.772	4.92
427.128	4.9
427.485	4.87
427.842	4.85
428.199	4.81
428.555	4.79
428.912	4.77
429.269	4.75
429.625	4.73
429.982	4.72
430.338	4.72
430.695	4.71
431.051	4.69
431.407	4.67
431.764	4.65
432.12	4.63
432.476	4.61
432.832	4.6
433.189	4.58
433.545	4.58
433.901	4.58
434.257	4.59
434.613	4.6
434.969	4.61
435.325	4.61
435.681	4.61
436.036	4.59
436.392	4.6
436.748	4.61
437.104	4.62
437.459	4.62
437.815	4.62
438.171	4.61
438.526	4.63
438.882	4.63
439.237	4.65
439.593	4.66
439.948	4.65
440.304	4.65
440.659	4.66
441.014	4.65
441.369	4.64
441.725	4.61
442.08	4.61
442.435	4.6
442.79	4.6
443.145	4.59
443.5	4.59
443.855	4.58
444.21	4.56
444.565	4.53
444.92	4.53
445.275	4.5
445.629	4.5
445.984	4.47
446.339	4.44
446.693	4.37
447.048	4.37
447.403	4.35
447.757	4.33
448.112	4.31
448.466	4.29
448.82	4.28
449.175	4.29
449.529	4.26
449.883	4.24
450.238	4.22
450.592	4.23
450.946	4.2
451.3	4.19
451.654	4.18
452.008	4.19
452.362	4.14
452.716	4.15
453.07	4.12
453.424	4.13
453.778	4.14
454.132	4.17
454.486	4.14
454.839	4.13
455.193	4.14
455.547	4.15
455.9	4.16
456.254	4.15
456.607	4.15
456.961	4.17
457.314	4.15
457.668	4.15
458.021	4.15
458.375	4.16
458.728	4.15
459.081	4.17
459.434	4.16
459.787	4.2
460.141	4.21
460.494	4.23
460.847	4.21
461.2	4.21
461.553	4.23
461.906	4.24
462.259	4.27
462.611	4.3
462.964	4.31
463.317	4.33
463.67	4.34
464.022	4.36
464.375	4.37
464.728	4.4
465.08	4.41
465.433	4.45
465.785	4.47
466.138	4.48
466.49	4.49
466.843	4.5
467.195	4.51
467.547	4.54
467.899	4.55
468.252	4.59
468.604	4.6
468.956	4.59
469.308	4.63
469.66	4.64
470.012	4.64
470.364	4.65
470.716	4.66
471.068	4.67
471.42	4.67
471.772	4.66
472.123	4.68
472.475	4.69
472.827	4.69
473.178	4.71
473.53	4.72
473.882	4.72
474.233	4.74
474.585	4.74
474.936	4.74
475.288	4.73
475.639	4.74
475.99	4.74
476.342	4.77
476.693	4.76
477.044	4.75
477.395	4.74
477.746	4.73
478.097	4.73
478.448	4.71
478.8	4.71
479.15	4.7
479.501	4.7
479.852	4.69
480.203	4.67
480.554	4.67
480.905	4.66
481.255	4.67
481.606	4.65
481.957	4.64
482.307	4.62
482.658	4.63
483.009	4.63
483.359	4.63
483.709	4.61
484.06	4.61
484.41	4.6
484.761	4.6
485.111	4.6
485.461	4.59
485.811	4.6
486.162	4.6
486.512	4.62
486.862	4.61
487.212	4.61
487.562	4.62
487.912	4.62
488.262	4.62
488.612	4.63
488.961	4.64
489.311	4.65
489.661	4.66
490.011	4.67
490.36	4.67
490.71	4.68
491.06	4.69
491.409	4.71
491.759	4.73
492.108	4.75
492.458	4.78
492.807	4.8
493.157	4.82
493.506	4.85
493.855	4.86
494.204	4.88
494.554	4.93
494.903	4.95
495.252	4.99
495.601	5.03
495.95	5.06
496.299	5.1
496.648	5.12
496.997	5.18
497.346	5.24
497.695	5.28
498.043	5.33
498.392	5.38
498.741	5.43
499.09	5.49
499.438	5.55
499.787	5.6
500.135	5.65
500.484	5.74
500.832	5.8
501.181	5.87
501.529	5.93
501.878	5.99
502.226	6.08
502.574	6.17
502.923	6.23
503.271	6.33
503.619	6.43
503.967	6.55
504.315	6.64
504.663	6.71
505.011	6.84
505.359	6.95
505.707	7.05
506.055	7.16
506.403	7.27
506.751	7.38
507.098	7.49
507.446	7.64
507.794	7.74
508.141	7.86
508.489	7.99
508.837	8.11
509.184	8.24
509.531	8.39
509.879	8.51
510.226	8.66
510.574	8.78
510.921	8.89
511.268	9.01
511.616	9.11
511.963	9.26
512.31	9.41
512.657	9.57
513.004	9.73
513.351	9.89
513.698	10.05
514.045	10.21
514.392	10.39
514.739	10.55
515.086	10.71
515.432	10.87
515.779	11.01
516.126	11.2
516.473	11.37
516.819	11.51
517.166	11.66
517.512	11.79
517.859	11.95
518.205	12.09
518.552	12.23
518.898	12.39
519.245	12.53
519.591	12.65
519.937	12.8
520.283	12.95
520.629	13.12
520.976	13.28
521.322	13.47
521.668	13.64
522.014	13.83
522.36	14.03
522.706	14.25
523.052	14.48
523.398	14.74
523.743	15
524.089	15.26
524.435	15.51
524.781	15.76
525.126	16.01
525.472	16.21
525.817	16.43
526.163	16.61
526.509	16.78
526.854	16.95
527.199	17.1
527.545	17.24
527.89	17.38
528.235	17.53
528.581	17.7
528.926	17.88
529.271	18.06
529.616	18.23
529.961	18.38
530.306	18.57
530.651	18.74
530.996	18.91
531.341	19.1
531.686	19.31
532.031	19.52
532.376	19.71
532.721	19.95
533.065	20.14
533.41	20.36
533.755	20.6
534.099	20.86
534.444	21.11
534.788	21.37
535.133	21.61
535.477	21.84
535.822	22.07
536.166	22.32
536.51	22.57
536.855	22.9
537.199	23.24
537.543	23.55
537.887	23.87
538.231	24.19
538.576	24.54
538.92	24.83
539.264	25.1
539.608	25.37
539.951	25.64
540.295	25.93
540.639	26.22
540.983	26.44
541.327	26.68
541.671	26.9
542.014	27.15
542.358	27.39
542.701	27.63
543.045	27.88
543.389	28.11
543.732	28.34
544.075	28.56
544.419	28.78
544.762	28.99
545.105	29.24
545.449	29.52
545.792	29.73
546.135	29.98
546.478	30.26
546.821	30.56
547.165	30.84
547.508	31.14
547.851	31.43
548.194	31.75
548.536	32.01
548.879	32.36
549.222	32.65
549.565	32.95
549.908	33.31
550.25	33.6
550.593	33.9
550.936	34.2
551.278	34.46
551.621	34.76
551.963	35.07
552.306	35.36
552.648	35.59
552.991	35.89
553.333	36.16
553.675	36.47
554.017	36.76
554.36	37
554.702	37.24
555.044	37.42
555.386	37.68
555.728	37.93
556.07	38.07
556.412	38.28
556.754	38.49
557.096	38.67
557.438	38.9
557.78	39.16
558.121	39.4
558.463	39.63
558.805	39.85
559.147	40.07
559.488	40.25
559.83	40.48
560.171	40.7
560.513	40.91
560.854	41.11
561.196	41.26
561.537	41.4
561.878	41.54
562.22	41.74
562.561	41.9
562.902	42.09
563.243	42.32
563.584	42.53
563.925	42.68
564.266	42.87
564.607	43.03
564.948	43.18
565.289	43.32
565.63	43.44
565.971	43.57
566.312	43.74
566.653	43.9
566.993	43.95
567.334	44.06
567.675	44.2
568.015	44.32
568.356	44.45
568.696	44.58
569.037	44.74
569.377	44.86
569.718	45.03
570.058	45.1
570.398	45.2
570.739	45.33
571.079	45.47
571.419	45.57
571.759	45.68
572.099	45.79
572.439	45.84
572.779	45.93
573.119	46.07
573.459	46.17
573.799	46.25
574.139	46.48
574.479	46.6
574.819	46.65
575.158	46.76
575.498	46.87
575.838	47.01
576.177	47.13
576.517	47.2
576.856	47.31
577.196	47.49
577.535	47.59
577.875	47.63
578.214	47.72
578.553	47.87
578.893	47.97
579.232	48.05
579.571	48.25
579.91	48.43
580.25	48.53
580.589	48.6
580.928	48.72
581.267	48.73
581.606	48.85
581.945	49.02
582.283	49.11
582.622	49.18
582.961	49.3
583.3	49.37
583.639	49.51
583.977	49.55
584.316	49.54
584.654	49.64
584.993	49.73
585.332	49.84
585.67	49.83
586.008	49.95
586.347	49.97
586.685	49.98
587.024	50.03
587.362	50.03
587.7	50.08
588.038	50.14
588.376	50.23
588.715	50.23
589.053	50.33
589.391	50.37
589.729	50.49
590.067	50.49
590.404	50.52
590.742	50.46
591.08	50.5
591.418	50.55
591.756	50.55
592.093	50.65
592.431	50.62
592.769	50.66
593.106	50.59
593.444	50.62
593.781	50.67
594.119	50.71
594.456	50.79
594.793	50.83
595.131	50.86
595.468	50.79
595.805	50.81
596.143	50.8
596.48	50.83
596.817	50.85
597.154	50.89
597.491	50.96
597.828	51.1
598.165	51.18
598.502	51.28
598.839	51.32
599.176	51.36
599.512	51.39
599.849	51.45
600.186	51.51
600.523	51.62
600.859	51.66
601.196	51.67
601.532	51.71
601.869	51.76
602.205	51.8
602.542	51.87
602.878	51.88
603.215	51.9
603.551	51.87
603.887	51.87
604.223	51.94
604.56	51.95
604.896	51.89
605.232	51.91
605.568	51.93
605.904	51.95
606.24	51.95
606.576	52.02
606.912	52.1
607.248	52.09
607.583	52.1
607.919	52.13
608.255	52.22
608.591	52.25
608.926	52.28
609.262	52.29
609.597	52.41
609.933	52.45
610.268	52.5
610.604	52.54
610.939	52.59
611.275	52.56
611.61	52.55
611.945	52.66
612.281	52.63
612.616	52.68
612.951	52.75
613.286	52.86
613.621	52.89
613.956	52.86
614.291	53.02
614.626	53.12
614.961	53.07
615.296	53.06
615.631	53.05
615.966	53.07
616.3	53.08
616.635	53.1
616.97	53.2
617.304	53.28
617.639	53.36
617.973	53.37
618.308	53.5
618.642	53.61
618.977	53.64
619.311	53.71
619.646	53.7
619.98	53.76
620.314	53.73
620.648	53.69
620.983	53.66
621.317	53.59
621.651	53.58
621.985	53.76
622.319	53.77
622.653	53.82
622.987	53.88
623.321	53.92
623.655	53.89
623.988	53.87
624.322	53.81
624.656	53.92
624.99	53.92
625.323	53.87
625.657	53.86
625.99	53.85
626.324	53.89
626.657	53.9
626.991	53.86
627.324	53.87
627.658	53.97
627.991	53.97
628.324	54.03
628.657	54.01
628.991	54
629.324	54.02
629.657	53.99
629.99	53.96
630.323	53.96
630.656	53.95
630.989	54.01
631.322	54
631.655	53.84
631.987	53.88
632.32	53.87
632.653	53.86
632.986	53.88
633.318	53.79
633.651	53.83
633.984	53.9
634.316	53.93
634.649	53.88
634.981	53.93
635.313	53.92
635.646	53.87
635.978	53.88
636.31	53.88
636.643	53.88
636.975	53.91
637.307	53.87
637.639	53.93
637.971	53.9
638.303	54.03
638.635	54.15
638.967	54.19
639.299	54.27
639.631	54.25
639.963	54.33
640.295	54.38
640.626	54.3
640.958	54.27
641.29	54.21
641.621	54.24
641.953	54.28
642.285	54.37
642.616	54.43
642.948	54.4
643.279	54.51
643.61	54.56
643.942	54.56
644.273	54.62
644.604	54.6
644.936	54.6
645.267	54.5
645.598	54.51
645.929	54.46
646.26	54.47
646.591	54.49
646.922	54.45
647.253	54.53
647.584	54.6
647.915	54.6
648.245	54.54
648.576	54.56
648.907	54.57
649.238	54.47
649.568	54.54
649.899	54.57
650.229	54.53
650.56	54.59
650.89	54.62
651.221	54.65
651.551	54.68
651.882	54.6
652.212	54.58
652.542	54.52
652.872	54.53
653.203	54.49
653.533	54.48
653.863	54.41
654.193	54.33
654.523	54.31
654.853	54.41
655.183	54.53
655.513	54.51
655.843	54.51
656.172	54.5
656.502	54.48
656.832	54.42
657.162	54.42
657.491	54.39
657.821	54.29
658.15	54.3
658.48	54.27
658.809	54.38
659.139	54.46
659.468	54.43
659.798	54.46
660.127	54.46
660.456	54.51
660.785	54.57
661.115	54.63
661.444	54.58
661.773	54.61
662.102	54.54
662.431	54.51
662.76	54.45
663.089	54.55
663.418	54.57
663.747	54.68
664.076	54.64
664.404	54.76
664.733	54.95
665.062	55.01
665.39	54.99
665.719	54.94
666.048	55.02
666.376	55.1
666.705	55.21
667.033	55.18
667.362	55.22
667.69	55.14
668.018	55.13
668.347	55.2
668.675	55.06
669.003	55.05
669.331	55.23
669.659	55.36
669.987	55.41
670.315	55.48
670.643	55.34
670.971	55.39
671.299	55.37
671.627	55.28
671.955	55.25
672.283	55.32
672.61	55.42
672.938	55.28
673.266	55.36
673.593	55.19
673.921	55.2
674.249	55.15
674.576	55.28
674.904	55.3
675.231	55.34
675.558	55.39
675.886	55.42
676.213	55.38
676.54	55.36
676.867	55.28
677.195	55.22
677.522	55.32
677.849	55.37
678.176	55.37
678.503	55.42
678.83	55.35
679.157	55.36
679.484	55.23
679.81	55.19
680.137	55.12
680.464	55.27
680.791	55.36
681.117	55.26
681.444	55.19
681.771	55.07
682.097	55.13
682.424	55.09
682.75	55.1
683.077	55.09
683.403	55.06
683.729	55.04
684.056	55.1
684.382	55.09
684.708	55.07
685.034	55
685.36	55.12
685.686	55.15
686.012	55.15
686.339	55.32
686.664	55.32
686.99	55.22
687.316	55.09
687.642	55.07
687.968	55.16
688.294	55.27
688.619	55.43
688.945	55.27
689.271	55.29
689.596	55.26
689.922	55.23
690.247	55.17
690.573	55.18
690.898	55.05
691.224	55.05
691.549	55.01
691.874	54.93
692.2	54.91
692.525	55.01
692.85	55.19
693.175	55.19
693.5	55.15
693.825	55.25
694.15	55.21
694.475	55.01
694.8	55.02
695.125	54.77
695.45	54.63
695.775	54.7
696.099	54.72
696.424	54.77
696.749	54.67
697.073	54.62
697.398	54.65
697.723	54.53
698.047	54.6
698.372	54.53
698.696	54.5
699.02	54.44
699.345	54.48
699.669	54.38
699.993	54.32
700.318	54.32
700.642	54.18
700.966	54.26
701.29	54.22
701.614	54.28
701.938	54.46
702.262	54.53
702.586	54.44
702.91	54.58
703.234	54.52
703.557	54.67
703.881	54.77
704.205	54.7
704.529	54.79
704.852	54.62
705.176	54.68
705.499	54.86
705.823	54.8
706.146	54.65
706.47	54.65
706.793	54.61
707.117	54.79
707.44	54.93
707.763	54.91
708.086	55.05
708.409	54.9
708.733	54.84
709.056	54.83
709.379	54.93
709.702	54.84
710.025	54.79
710.348	54.65
710.671	54.69
710.993	54.7
711.316	54.82
711.639	54.89
711.962	54.92
712.284	54.88
712.607	54.85
712.93	54.71
713.252	54.68
713.575	54.69
713.897	54.72
714.22	54.91
714.542	55.01
714.864	55.03
715.187	55
715.509	54.89
715.831	54.87
716.153	54.92
716.475	54.86
716.798	55.2
717.12	55.22
717.442	55.22
717.764	55.1
718.085	54.93
718.407	54.85
718.729	54.93
719.051	55.11
719.373	54.98
719.695	55.22
720.016	55.2
720.338	55.19
720.659	55.15
720.981	54.81
721.302	54.55
721.624	54.65
721.945	54.69
722.267	54.68
722.588	54.66
722.909	54.55
723.231	54.73
723.552	54.53
723.873	54.58
724.194	54.7
724.515	55.04
724.836	55.37
725.157	55.54
725.478	55.3
725.799	55
726.12	55.06
726.441	55.04
726.762	55.03
727.083	54.98
727.403	54.89
727.724	55
728.045	55.12
728.365	54.92
728.686	55.02
729.006	55.28
729.327	55.54
729.647	55.46
729.967	55.37
730.288	55.51
730.608	55.37
730.928	55.13
731.249	55
731.569	54.97
731.889	54.89
732.209	55.02
732.529	55.27
732.849	55.53
733.169	55.36
733.489	55.38
733.809	55.65
734.129	55.81
734.448	55.92
734.768	55.87
735.088	55.9
735.408	55.78
735.727	55.8
736.047	55.65
736.366	55.56
736.686	55.32
737.005	55.04
737.325	55.12
737.644	55.26
737.963	55.28
738.283	55.1
738.602	55.26
738.921	55.12
739.24	54.99
739.56	54.85
739.879	54.96
740.198	55.07
740.517	55.01
740.836	54.89
741.155	54.9
741.473	54.95
741.792	55.25
742.111	55.36
742.43	55.39
742.748	55.17
743.067	55.33
743.386	55.65
743.704	55.56
744.023	55.6
744.341	55.4
744.66	55.53
744.978	55.65
745.297	55.24
745.615	55.24
745.933	55.17
746.252	55.23
746.57	55.3
746.888	55.18
747.206	54.95
747.524	55.09
747.842	54.94
748.16	54.78
748.478	54.93
748.796	54.88
749.114	54.73
749.432	54.83
749.749	54.82
750.067	54.7
750.385	54.95
750.703	54.71
751.02	55.01
751.338	54.77
751.655	54.71
751.973	54.82
752.29	55.07
752.608	55.07
752.925	54.9
753.242	54.75
753.56	54.84
753.877	54.83
754.194	54.79
754.511	54.82
754.828	55.17
755.145	54.55
755.462	54.8
755.779	54.61
756.096	54.69
756.413	54.75
756.73	54.67
757.047	54.49
757.364	54.77
757.68	54.68
757.997	54.66
758.314	54.34
758.63	54.39
758.947	54.14
759.264	54.2
759.58	54.32
759.896	54.21
760.213	54.05
760.529	54.01
760.846	53.94
761.162	53.88
761.478	53.77
761.794	54.07
762.11	53.64
762.426	53.98
762.743	54.09
763.059	54.13
763.375	54.07
763.69	54.2
764.006	54.11
764.322	54.14
764.638	54.25
764.954	54.51
765.27	54.58
765.585	54.7
765.901	54.77
766.216	54.88
766.532	55.21
766.848	55.22
767.163	55.05
767.478	55.17
767.794	55.16
768.109	55.24
768.424	54.86
768.74	55.29
769.055	55.44
769.37	55.41
769.685	55.56
770	55.8
770.315	55.92
770.63	56.04
770.945	55.5
771.26	55.65
771.575	55.63
771.89	55.59
772.205	55.66
772.52	55.24
772.834	54.97
773.149	54.55
773.464	54.74
773.778	55.14
774.093	54.91
774.407	54.82
774.722	54.77
775.036	55.47
775.351	55.16
775.665	54.61
775.979	54.58
776.293	54.16
776.608	54.08
776.922	53.93
777.236	54.16
777.55	54.75
777.864	54.66
778.178	54.46
778.492	54.54
778.806	54.33
779.12	54.75
779.434	54.56
779.747	54.66
780.061	54.5
780.375	54.22
780.689	53.98
781.002	54.24
781.316	54.22
781.629	53.77
781.943	54.27
782.256	54.48
782.57	54.47
782.883	54.43
783.196	54.53
783.51	54.59
783.823	54.54
784.136	54.42
784.449	54.27
784.762	53.79
785.075	53.85
785.388	54.05
785.701	54.07
786.014	54.12
786.327	54.31
786.64	54.46
786.953	54.5
787.266	54.51
787.578	54.66
787.891	54.53
788.204	54.87
788.516	54.25
788.829	54.19
789.141	54.49
789.454	54.61
789.766	54.36
790.079	54.27
790.391	53.86
790.703	54.25
791.016	54.2
791.328	54.95
791.64	54.27
791.952	54.02
792.264	53.69
792.576	53.47
792.888	53.22
793.2	52.92
793.512	53.09
793.824	53.48
794.136	53.14
794.448	52.92
794.76	51.96
795.071	52.28
795.383	52.08
795.695	51.66
796.006	51.63
796.318	51.32
796.629	51.13
796.941	50.98
797.252	50.68
797.564	50.95
797.875	50.87
798.186	51.28
798.497	51.97
798.809	52.12
799.12	52.45
799.431	52.41
799.742	52.65
800.053	52.73
800.364	52.18
800.675	52.51
800.986	52.58
801.297	52.82
801.608	52.46
801.918	52.42
802.229	52.8
802.54	52.64
802.851	52.93
803.161	53.11
803.472	54.07
803.782	53.59
804.093	53.07
804.403	52.65
804.714	52.72
805.024	51.49
805.334	51.83
805.645	51.3
805.955	51.25
806.265	51.28
806.575	50.69
806.885	51.2
807.195	51.65
807.505	51.83
807.815	52.1
808.125	53.05
808.435	53.06
808.745	52.64
809.055	52.88
809.365	53.6
809.674	53.54
809.984	52.51
810.294	52.48
810.603	52.68
810.913	52.8
811.222	52.48
811.532	53.2
811.841	53.07
812.151	53.8
812.46	54.2
812.769	53.93
813.079	54.07
813.388	54.34
813.697	53.44
814.006	53.82
814.315	53.94
814.624	53.27
814.933	53.26
815.242	52.97
815.551	53.49
815.86	52.79
816.169	52.71
816.478	52.76
816.786	53
817.095	52.91
817.404	53.02
817.712	53.94
818.021	54.43
818.33	54.08
818.638	54.04
818.947	53.86
819.255	54.17
819.563	54.04
819.872	53.53
820.18	53.75
820.488	53.87
820.796	53.83
821.105	53.91
821.413	54.17
821.721	54.29
822.029	54.17
822.337	54.2
822.645	54.47
822.953	54.62
823.26	54.49
823.568	54.55
823.876	54.66
824.184	54.72
824.491	54.65
824.799	54.54
825.107	54.5
825.414	54.47
825.722	54.33
826.029	54.49
826.337	54.73
826.644	54.71
826.951	54.42
827.259	54.55
827.566	54.51
827.873	54.43
828.18	54.22
828.488	54.18
828.795	54.14
829.102	54.04
829.409	54
829.716	54.02
830.023	54.02
830.329	53.79
830.636	53.71
830.943	53.31
831.25	53.34
831.557	53.76
831.863	54.05
832.17	53.98
832.476	53.84
832.783	53.62
833.089	53.89
833.396	54.08
833.702	54.22
834.009	54.19
834.315	54.01
834.621	54.13
834.928	54.17
835.234	53.99
835.54	53.44
835.846	53.67
836.152	54.28
836.458	54.29
836.764	54.17
837.07	54
837.376	53.77
837.682	54.5
837.988	53.97
838.293	54.05
838.599	54.53
838.905	54.92
839.211	54.37
839.516	54.08
839.822	54.24
840.127	53.43
840.433	53.45
840.738	53.76
841.044	53.77
841.349	54.34
841.654	54.13
841.959	53.66
842.265	53.72
842.57	52.48
842.875	52.41
843.18	52.93
843.485	51.78
843.79	52.65
844.095	51.5
844.4	51.31
844.705	49.31
845.01	48.49
845.315	47.56
845.619	50.15
845.924	49.79
846.229	49.5
846.533	49.46
846.838	49.65
847.142	49.76
847.447	49.93
847.751	48.45
848.056	48.47
848.36	49.42
848.664	48.42
848.969	49.84
849.273	48.25
849.577	49.27
849.881	50.53
850.185	52.44
850.489	51.96
850.794	53.56
851.097	57.16
851.401	58.43
851.705	59.55
852.009	59.81
852.313	60.02
852.617	60.47
852.92	60.41
853.224	59.31
853.528	57.46
853.831	58.9
854.135	58.67
854.438	61.39
854.742	61.04
855.045	60
855.349	60.58
855.652	61.1
855.955	59.62
856.259	58.67
856.562	55.4
856.865	55.68
857.168	53.28
857.471	52.48
857.774	52.41
858.077	52.53
858.38	50.18
858.683	50.31
858.986	51.44
859.289	51.98
859.592	53.47
859.894	54.4
860.197	53.7
860.5	53.8
860.802	50.95
861.105	52.66
861.407	53.16
861.71	53.13
862.012	55.35
862.315	53.22
862.617	54.22
862.919	54.84
863.222	54.52
863.524	54.08
863.826	55.3
864.128	54.27
864.43	54.49
864.732	55.43
865.034	56.07
865.336	54.68
865.638	53.19
865.94	52.4
866.242	50.56
866.544	50.12
866.846	52.46
867.147	53.62
867.449	51.66
867.751	49.53
868.052	50.38
868.354	48.79
868.655	49.98
868.957	49.88
869.258	50.9
869.56	52.95
869.861	54.77
870.162	53.38
870.463	53.65
870.765	51.8
871.066	50.77
871.367	51.92
871.668	51.49
871.969	50.44
872.27	49.94
872.571	50.41
872.872	51.62
873.173	50.87
873.473	52.98
873.774	53.12
874.075	58.47
874.376	60.02
874.676	61.18
874.977	60.97
875.277	61.32
875.578	60.04
875.878	59.23
876.179	59.11
876.479	58.76
876.78	58.96
877.08	61.38
877.38	61.33
877.68	58.31
877.981	58.84
878.281	64.16
878.581	65.59
