Data from BA57965_Reflection_00007.txt Node
Date: Mon Nov 18 15:16:13 EST 2019
User: vgr7
Spectrometer: USB2G7710
Scans to average: 3
Trigger mode: 4
Integration Time (sec): 2.000000E-2
Electric dark correction enabled: true
Boxcar width: 10
XAxis mode: Wavelengths
Number of Pixels in Spectrum: 2048
>>>>>Begin Spectral Data<<<<<
177.721	207.69
178.105	189.02
178.488	150.53
178.871	116.19
179.254	37.63
179.636	75.27
180.019	17.53
180.402	65.79
180.785	-38.17
181.168	-4.96
181.55	70.44
181.933	144.17
182.316	163.58
182.698	652.3
183.081	525.81
183.463	176.43
183.846	110.85
184.228	164.45
184.611	196.89
184.993	159.05
185.376	123.45
185.758	124.01
186.14	81.4
186.522	64.97
186.904	63.96
187.287	56.45
187.669	64.61
188.051	49.72
188.433	62.21
188.815	50.35
189.197	58.97
189.579	58.67
189.961	65.76
190.342	75.22
190.724	76.26
191.106	60.39
191.488	48.79
191.869	37.13
192.251	25.52
192.633	19.24
193.014	1.49
193.396	0.45
193.777	12.61
194.159	30.8
194.54	47.56
194.922	45.87
195.303	38.66
195.684	32.81
196.065	38.99
196.447	25.89
196.828	20.85
197.209	9.11
197.59	13.31
197.971	9.46
198.352	20.11
198.733	14.66
199.114	17.49
199.495	18.62
199.876	22.63
200.257	16.6
200.638	12.38
201.018	20.3
201.399	17.45
201.78	11.89
202.16	0.71
202.541	-16.46
202.922	-39.28
203.302	-39.51
203.683	-43.46
204.063	-60.1
204.444	-55.98
204.824	-52.02
205.204	-36.2
205.585	-43.27
205.965	-38.57
206.345	-54.53
206.725	-68.19
207.106	-81.09
207.486	-96.38
207.866	-92.25
208.246	-77.6
208.626	-46.12
209.006	-39.47
209.386	-52.01
209.766	-39.59
210.145	-39.76
210.525	-19.69
210.905	-1.68
211.285	-7.19
211.664	-5.55
212.044	6.49
212.424	8.83
212.803	3.21
213.183	1.3
213.562	4.81
213.942	9.1
214.321	12.93
214.701	13.93
215.08	11.67
215.459	9.34
215.838	12.66
216.218	13.7
216.597	10.11
216.976	11.77
217.355	20.61
217.734	12.59
218.113	20.62
218.492	17.56
218.871	14.02
219.25	14.87
219.629	6.16
220.008	-5.53
220.387	2.86
220.766	1.92
221.144	-2.31
221.523	4.43
221.902	1.47
222.28	1.06
222.659	9.25
223.037	19.34
223.416	20.31
223.794	11.86
224.173	3.43
224.551	-0.3
224.929	-2.09
225.308	1.42
225.686	8.91
226.064	8.89
226.442	10.31
226.821	9.73
227.199	9.19
227.577	9.66
227.955	9.2
228.333	5.96
228.711	5.75
229.089	8.17
229.467	4.7
229.845	3.91
230.222	0.72
230.6	-0.26
230.978	-2.9
231.356	-0.57
231.733	-0.31
232.111	1.82
232.488	4.18
232.866	4.37
233.243	2.95
233.621	1.85
233.998	2.63
234.376	1.32
234.753	0.63
235.13	0.79
235.508	2.5
235.885	4.25
236.262	4.43
236.639	5.73
237.016	5.09
237.393	5.96
237.77	5.56
238.147	5.22
238.524	5.09
238.901	5.56
239.278	6.13
239.655	5.91
240.032	6.09
240.409	5.2
240.785	5.22
241.162	5.3
241.539	5.8
241.915	5.23
242.292	5.21
242.668	5.67
243.045	5.77
243.421	5.29
243.798	5.05
244.174	4.69
244.551	4.49
244.927	4.34
245.303	4.56
245.679	4.88
246.056	4.94
246.432	4.94
246.808	5.04
247.184	4.62
247.56	4.74
247.936	4.45
248.312	4.58
248.688	4.59
249.064	4.59
249.44	4.49
249.815	4.56
250.191	4.54
250.567	4.45
250.943	4.19
251.318	4.33
251.694	4.31
252.069	4.57
252.445	4.52
252.82	4.48
253.196	4.1
253.571	3.58
253.947	3.8
254.322	3.91
254.697	3.75
255.073	3.83
255.448	3.36
255.823	3.4
256.198	3.36
256.573	3.35
256.948	3.33
257.323	3.41
257.698	3.42
258.073	3.49
258.448	3.51
258.823	3.53
259.198	3.46
259.573	3.39
259.948	3.34
260.322	3.43
260.697	3.54
261.072	3.57
261.446	3.67
261.821	3.69
262.195	3.77
262.57	3.77
262.944	3.84
263.319	3.92
263.693	3.95
264.067	4.03
264.442	4.1
264.816	4.09
265.19	4
265.564	3.97
265.938	3.9
266.313	3.91
266.687	4.09
267.061	4.06
267.435	4.19
267.809	4.13
268.183	4.03
268.556	3.96
268.93	4.04
269.304	4.13
269.678	4.18
270.051	4.03
270.425	3.98
270.799	3.78
271.172	3.93
271.546	3.83
271.919	3.79
272.293	3.84
272.666	3.92
273.04	3.89
273.413	3.92
273.787	4.06
274.16	3.85
274.533	3.79
274.906	3.97
275.279	3.87
275.653	3.88
276.026	3.83
276.399	3.83
276.772	3.97
277.145	3.83
277.518	3.86
277.891	3.88
278.263	3.82
278.636	4.02
279.009	3.94
279.382	4.18
279.755	4.31
280.127	4.5
280.5	4.65
280.872	4.61
281.245	4.47
281.617	4.49
281.99	4.74
282.362	4.83
282.735	4.6
283.107	4.6
283.479	4.65
283.852	4.68
284.224	4.76
284.596	4.52
284.968	4.55
285.34	4.44
285.713	4.42
286.085	4.55
286.457	4.58
286.829	4.53
287.201	4.55
287.572	4.32
287.944	4.06
288.316	3.89
288.688	3.85
289.06	3.94
289.431	3.9
289.803	3.9
290.175	3.78
290.546	3.98
290.918	4.11
291.289	4.13
291.661	4.15
292.032	4.09
292.403	4.22
292.775	4.27
293.146	4.26
293.517	4.13
293.889	4.09
294.26	4.07
294.631	4.09
295.002	3.95
295.373	4.02
295.744	3.96
296.115	4
296.486	3.96
296.857	3.88
297.228	3.96
297.599	3.92
297.97	4.04
298.34	3.88
298.711	3.84
299.082	3.7
299.452	3.69
299.823	3.85
300.194	3.78
300.564	3.73
300.935	3.72
301.305	3.86
301.676	3.86
302.046	3.9
302.416	4.03
302.787	4.1
303.157	4.22
303.527	4.37
303.897	4.46
304.267	4.61
304.637	4.79
305.008	4.69
305.378	4.68
305.748	4.63
306.117	4.78
306.487	4.84
306.857	4.99
307.227	5.12
307.597	4.97
307.967	5.13
308.336	5.25
308.706	5.34
309.076	5.26
309.445	5.22
309.815	5.12
310.184	5.04
310.554	5.13
310.923	5.18
311.293	5.22
311.662	5.08
312.031	5.18
312.401	5.14
312.77	5.16
313.139	5.21
313.508	5.27
313.877	5.29
314.246	5.32
314.616	5.25
314.985	5.24
315.353	5.19
315.722	5.16
316.091	5.11
316.46	5.1
316.829	5.27
317.198	5.47
317.567	5.6
317.935	5.6
318.304	5.57
318.672	5.58
319.041	5.7
319.41	5.81
319.778	5.81
320.147	5.81
320.515	5.87
320.883	5.9
321.252	5.92
321.62	5.99
321.988	5.83
322.357	5.92
322.725	5.78
323.093	6
323.461	6.03
323.829	6.05
324.197	6.06
324.565	6.11
324.933	6.05
325.301	6.11
325.669	6.17
326.037	6.17
326.405	6.16
326.772	6.3
327.14	6.28
327.508	6.31
327.875	6.4
328.243	6.51
328.61	6.44
328.978	6.58
329.346	6.64
329.713	6.7
330.08	6.78
330.448	6.94
330.815	6.84
331.182	6.96
331.55	6.97
331.917	7.04
332.284	7
332.651	7.09
333.018	7.07
333.385	7.06
333.752	7.13
334.119	7.15
334.486	6.94
334.853	6.97
335.22	7.03
335.587	7.12
335.954	7.11
336.32	7.17
336.687	7.1
337.054	7.03
337.42	7.13
337.787	7.16
338.153	7.15
338.52	7.2
338.886	7.06
339.253	7.15
339.619	7.18
339.986	7.19
340.352	7.27
340.718	7.44
341.084	7.49
341.451	7.56
341.817	7.55
342.183	7.53
342.549	7.56
342.915	7.64
343.281	7.59
343.647	7.63
344.013	7.63
344.379	7.67
344.745	7.69
345.11	7.72
345.476	7.72
345.842	7.73
346.208	7.78
346.573	7.85
346.939	7.84
347.304	7.8
347.67	7.79
348.035	7.66
348.401	7.62
348.766	7.64
349.132	7.58
349.497	7.61
349.862	7.64
350.228	7.72
350.593	7.59
350.958	7.58
351.323	7.64
351.688	7.69
352.053	7.7
352.418	7.69
352.783	7.65
353.148	7.69
353.513	7.76
353.878	7.76
354.243	7.7
354.608	7.67
354.972	7.66
355.337	7.7
355.702	7.76
356.066	7.74
356.431	7.72
356.795	7.74
357.16	7.68
357.524	7.7
357.889	7.61
358.253	7.55
358.618	7.57
358.982	7.48
359.346	7.33
359.71	7.26
360.075	7.25
360.439	7.34
360.803	7.25
361.167	7.21
361.531	7.13
361.895	7.15
362.259	7.14
362.623	7.12
362.987	7.07
363.351	7.03
363.714	7.02
364.078	6.95
364.442	6.88
364.806	6.89
365.169	6.8
365.533	6.84
365.896	6.84
366.26	6.8
366.623	6.72
366.987	6.79
367.35	6.79
367.714	6.74
368.077	6.57
368.44	6.57
368.803	6.47
369.167	6.42
369.53	6.31
369.893	6.34
370.256	6.35
370.619	6.25
370.982	6.14
371.345	6.06
371.708	6.03
372.071	5.95
372.434	5.87
372.797	5.89
373.159	5.83
373.522	5.8
373.885	5.72
374.247	5.72
374.61	5.68
374.973	5.68
375.335	5.65
375.698	5.63
376.06	5.61
376.423	5.63
376.785	5.65
377.147	5.64
377.51	5.56
377.872	5.54
378.234	5.58
378.596	5.56
378.958	5.5
379.321	5.5
379.683	5.45
380.045	5.41
380.407	5.33
380.769	5.32
381.13	5.29
381.492	5.25
381.854	5.24
382.216	5.23
382.578	5.12
382.939	5.07
383.301	5.01
383.663	4.95
384.024	4.86
384.386	4.83
384.747	4.79
385.109	4.77
385.47	4.73
385.832	4.65
386.193	4.62
386.554	4.62
386.916	4.55
387.277	4.58
387.638	4.6
387.999	4.58
388.36	4.53
388.721	4.52
389.082	4.46
389.443	4.42
389.804	4.36
390.165	4.32
390.526	4.31
390.887	4.26
391.248	4.26
391.609	4.3
391.969	4.26
392.33	4.25
392.691	4.24
393.051	4.21
393.412	4.23
393.772	4.23
394.133	4.19
394.493	4.2
394.854	4.17
395.214	4.12
395.574	4.1
395.935	4.05
396.295	4.02
396.655	4.02
397.015	3.96
397.376	3.96
397.736	3.97
398.096	3.95
398.456	3.98
398.816	3.98
399.176	3.9
399.535	3.9
399.895	3.85
400.255	3.81
400.615	3.79
400.975	3.77
401.334	3.76
401.694	3.72
402.054	3.69
402.413	3.69
402.773	3.68
403.132	3.67
403.492	3.65
403.851	3.62
404.211	3.61
404.57	3.61
404.929	3.6
405.288	3.6
405.648	3.58
406.007	3.55
406.366	3.51
406.725	3.55
407.084	3.55
407.443	3.57
407.802	3.59
408.161	3.59
408.52	3.55
408.879	3.54
409.238	3.55
409.596	3.53
409.955	3.5
410.314	3.51
410.673	3.51
411.031	3.52
411.39	3.54
411.748	3.54
412.107	3.52
412.465	3.51
412.824	3.49
413.182	3.47
413.54	3.44
413.899	3.43
414.257	3.41
414.615	3.35
414.974	3.34
415.332	3.3
415.69	3.26
416.048	3.25
416.406	3.25
416.764	3.24
417.122	3.23
417.48	3.21
417.838	3.18
418.195	3.16
418.553	3.15
418.911	3.14
419.269	3.14
419.626	3.13
419.984	3.12
420.342	3.11
420.699	3.11
421.057	3.13
421.414	3.11
421.772	3.11
422.129	3.11
422.486	3.1
422.844	3.1
423.201	3.08
423.558	3.07
423.915	3.05
424.273	3.04
424.63	3.03
424.987	3.04
425.344	3.02
425.701	3.01
426.058	3.01
426.415	3
426.772	2.99
427.128	3
427.485	2.99
427.842	2.98
428.199	2.98
428.555	2.97
428.912	2.98
429.269	2.97
429.625	2.97
429.982	2.96
430.338	2.95
430.695	2.97
431.051	2.97
431.407	2.97
431.764	2.97
432.12	2.99
432.476	3
432.832	3.01
433.189	3.02
433.545	3.02
433.901	3.02
434.257	3.01
434.613	3.02
434.969	3.04
435.325	3.03
435.681	3.03
436.036	3.02
436.392	3
436.748	2.99
437.104	3
437.459	3.01
437.815	3.01
438.171	3
438.526	3
438.882	2.99
439.237	3.01
439.593	3
439.948	2.99
440.304	3
440.659	3
441.014	3.02
441.369	3
441.725	3.01
442.08	3
442.435	3
442.79	2.99
443.145	3
443.5	3
443.855	3
444.21	3
444.565	3
444.92	3
445.275	2.99
445.629	3
445.984	3.02
446.339	3.01
446.693	2.99
447.048	2.98
447.403	2.97
447.757	2.98
448.112	2.95
448.466	2.93
448.82	2.92
449.175	2.92
449.529	2.92
449.883	2.9
450.238	2.91
450.592	2.91
450.946	2.9
451.3	2.89
451.654	2.9
452.008	2.89
452.362	2.87
452.716	2.87
453.07	2.88
453.424	2.86
453.778	2.89
454.132	2.88
454.486	2.89
454.839	2.88
455.193	2.87
455.547	2.87
455.9	2.88
456.254	2.88
456.607	2.88
456.961	2.89
457.314	2.9
457.668	2.88
458.021	2.86
458.375	2.87
458.728	2.87
459.081	2.88
459.434	2.88
459.787	2.89
460.141	2.89
460.494	2.89
460.847	2.9
461.2	2.9
461.553	2.91
461.906	2.93
462.259	2.95
462.611	2.96
462.964	2.98
463.317	3
463.67	3.01
464.022	3.01
464.375	3
464.728	2.99
465.08	3.01
465.433	3.05
465.785	3.06
466.138	3.07
466.49	3.08
466.843	3.09
467.195	3.09
467.547	3.08
467.899	3.07
468.252	3.06
468.604	3.06
468.956	3.08
469.308	3.07
469.66	3.05
470.012	3.05
470.364	3.04
470.716	3.03
471.068	3.03
471.42	3.04
471.772	3.07
472.123	3.07
472.475	3.05
472.827	3.05
473.178	3.06
473.53	3.05
473.882	3.04
474.233	3.04
474.585	3.02
474.936	3.03
475.288	3.02
475.639	3.02
475.99	3.02
476.342	3
476.693	3.01
477.044	3.04
477.395	3.04
477.746	3.03
478.097	3.02
478.448	3.02
478.8	3
479.15	2.99
479.501	3.01
479.852	3.03
480.203	3.03
480.554	3.03
480.905	3.04
481.255	3.03
481.606	3.04
481.957	3.03
482.307	3.03
482.658	3.04
483.009	3.03
483.359	3.03
483.709	3.04
484.06	3.04
484.41	3.04
484.761	3.04
485.111	3.04
485.461	3.05
485.811	3.05
486.162	3.06
486.512	3.06
486.862	3.06
487.212	3.06
487.562	3.06
487.912	3.06
488.262	3.06
488.612	3.08
488.961	3.07
489.311	3.08
489.661	3.09
490.011	3.1
490.36	3.1
490.71	3.11
491.06	3.11
491.409	3.13
491.759	3.14
492.108	3.14
492.458	3.15
492.807	3.15
493.157	3.15
493.506	3.16
493.855	3.18
494.204	3.18
494.554	3.19
494.903	3.2
495.252	3.22
495.601	3.23
495.95	3.25
496.299	3.28
496.648	3.29
496.997	3.33
497.346	3.35
497.695	3.37
498.043	3.4
498.392	3.41
498.741	3.43
499.09	3.44
499.438	3.48
499.787	3.5
500.135	3.55
500.484	3.6
500.832	3.61
501.181	3.64
501.529	3.68
501.878	3.72
502.226	3.75
502.574	3.79
502.923	3.8
503.271	3.81
503.619	3.83
503.967	3.86
504.315	3.87
504.663	3.89
505.011	3.92
505.359	3.96
505.707	4.01
506.055	4.01
506.403	4.06
506.751	4.1
507.098	4.13
507.446	4.15
507.794	4.17
508.141	4.2
508.489	4.23
508.837	4.26
509.184	4.3
509.531	4.32
509.879	4.36
510.226	4.43
510.574	4.46
510.921	4.5
511.268	4.54
511.616	4.59
511.963	4.65
512.31	4.69
512.657	4.75
513.004	4.79
513.351	4.84
513.698	4.87
514.045	4.92
514.392	4.99
514.739	5.06
515.086	5.14
515.432	5.2
515.779	5.26
516.126	5.34
516.473	5.4
516.819	5.44
517.166	5.48
517.512	5.52
517.859	5.58
518.205	5.63
518.552	5.72
518.898	5.78
519.245	5.84
519.591	5.9
519.937	5.95
520.283	6.03
520.629	6.12
520.976	6.2
521.322	6.26
521.668	6.35
522.014	6.44
522.36	6.53
522.706	6.64
523.052	6.75
523.398	6.87
523.743	7
524.089	7.15
524.435	7.29
524.781	7.41
525.126	7.54
525.472	7.66
525.817	7.76
526.163	7.85
526.509	7.95
526.854	8.05
527.199	8.13
527.545	8.21
527.89	8.31
528.235	8.41
528.581	8.53
528.926	8.62
529.271	8.73
529.616	8.83
529.961	8.95
530.306	9.06
530.651	9.15
530.996	9.28
531.341	9.4
531.686	9.54
532.031	9.69
532.376	9.84
532.721	9.99
533.065	10.13
533.41	10.31
533.755	10.47
534.099	10.64
534.444	10.84
534.788	11.01
535.133	11.17
535.477	11.36
535.822	11.57
536.166	11.79
536.51	12.02
536.855	12.28
537.199	12.54
537.543	12.81
537.887	13.12
538.231	13.41
538.576	13.69
538.92	13.99
539.264	14.26
539.608	14.52
539.951	14.78
540.295	15.02
540.639	15.26
540.983	15.49
541.327	15.74
541.671	15.96
542.014	16.22
542.358	16.45
542.701	16.67
543.045	16.88
543.389	17.11
543.732	17.36
544.075	17.58
544.419	17.83
544.762	18.1
545.105	18.37
545.449	18.66
545.792	18.97
546.135	19.25
546.478	19.56
546.821	19.89
547.165	20.22
547.508	20.61
547.851	20.99
548.194	21.37
548.536	21.71
548.879	22.08
549.222	22.44
549.565	22.83
549.908	23.23
550.25	23.64
550.593	24.02
550.936	24.4
551.278	24.78
551.621	25.13
551.963	25.5
552.306	25.85
552.648	26.13
552.991	26.48
553.333	26.85
553.675	27.19
554.017	27.56
554.36	27.87
554.702	28.17
555.044	28.46
555.386	28.75
555.728	29.05
556.07	29.35
556.412	29.64
556.754	29.96
557.096	30.28
557.438	30.59
557.78	30.93
558.121	31.26
558.463	31.62
558.805	31.99
559.147	32.27
559.488	32.56
559.83	32.9
560.171	33.15
560.513	33.44
560.854	33.76
561.196	34.03
561.537	34.33
561.878	34.6
562.22	34.86
562.561	35.18
562.902	35.49
563.243	35.83
563.584	36.12
563.925	36.41
564.266	36.64
564.607	36.91
564.948	37.15
565.289	37.39
565.63	37.64
565.971	37.85
566.312	38.13
566.653	38.36
566.993	38.63
567.334	38.94
567.675	39.19
568.015	39.38
568.356	39.66
568.696	39.92
569.037	40.21
569.377	40.47
569.718	40.68
570.058	40.94
570.398	41.14
570.739	41.36
571.079	41.58
571.419	41.75
571.759	41.93
572.099	42.11
572.439	42.31
572.779	42.44
573.119	42.65
573.459	42.84
573.799	43.04
574.139	43.2
574.479	43.37
574.819	43.52
575.158	43.74
575.498	43.86
575.838	44.01
576.177	44.07
576.517	44.2
576.856	44.35
577.196	44.44
577.535	44.59
577.875	44.75
578.214	44.89
578.553	45.08
578.893	45.23
579.232	45.39
579.571	45.54
579.91	45.73
580.25	45.83
580.589	45.92
580.928	46.09
581.267	46.22
581.606	46.3
581.945	46.45
582.283	46.59
582.622	46.75
582.961	46.9
583.3	47.08
583.639	47.25
583.977	47.42
584.316	47.53
584.654	47.69
584.993	47.84
585.332	47.97
585.67	48.13
586.008	48.29
586.347	48.5
586.685	48.6
587.024	48.78
587.362	48.94
587.7	49.11
588.038	49.22
588.376	49.33
588.715	49.42
589.053	49.52
589.391	49.62
589.729	49.64
590.067	49.68
590.404	49.83
590.742	49.9
591.08	49.99
591.418	50.2
591.756	50.33
592.093	50.37
592.431	50.44
592.769	50.49
593.106	50.59
593.444	50.59
593.781	50.6
594.119	50.68
594.456	50.69
594.793	50.78
595.131	50.85
595.468	50.96
595.805	51.1
596.143	51.22
596.48	51.24
596.817	51.4
597.154	51.45
597.491	51.5
597.828	51.59
598.165	51.71
598.502	51.74
598.839	51.77
599.176	51.86
599.512	51.91
599.849	52.01
600.186	52.07
600.523	52.19
600.859	52.42
601.196	52.45
601.532	52.66
601.869	52.71
602.205	52.82
602.542	52.82
602.878	52.88
603.215	52.87
603.551	52.91
603.887	52.87
604.223	53.05
604.56	53.1
604.896	53.18
605.232	53.18
605.568	53.22
605.904	53.23
606.24	53.3
606.576	53.37
606.912	53.5
607.248	53.53
607.583	53.57
607.919	53.55
608.255	53.66
608.591	53.65
608.926	53.77
609.262	53.71
609.597	53.86
609.933	53.89
610.268	53.95
610.604	54.01
610.939	54.06
611.275	54.01
611.61	54.05
611.945	54.02
612.281	54.06
612.616	54.07
612.951	54.18
613.286	54.2
613.621	54.33
613.956	54.35
614.291	54.43
614.626	54.43
614.961	54.5
615.296	54.46
615.631	54.48
615.966	54.43
616.3	54.55
616.635	54.58
616.97	54.62
617.304	54.69
617.639	54.75
617.973	54.88
618.308	54.93
618.642	54.97
618.977	55.08
619.311	55.13
619.646	55.14
619.98	55.25
620.314	55.42
620.648	55.39
620.983	55.4
621.317	55.43
621.651	55.61
621.985	55.62
622.319	55.71
622.653	55.83
622.987	55.85
623.321	55.86
623.655	55.87
623.988	55.94
624.322	55.97
624.656	56.06
624.99	56.15
625.323	56.22
625.657	56.34
625.99	56.4
626.324	56.48
626.657	56.61
626.991	56.66
627.324	56.61
627.658	56.67
627.991	56.78
628.324	56.84
628.657	56.79
628.991	56.85
629.324	56.92
629.657	56.88
629.99	56.95
630.323	57.07
630.656	57.1
630.989	57.17
631.322	57.22
631.655	57.27
631.987	57.24
632.32	57.24
632.653	57.22
632.986	57.2
633.318	57.15
633.651	57.13
633.984	57.11
634.316	57.12
634.649	57.12
634.981	57.11
635.313	57.13
635.646	57.14
635.978	57.24
636.31	57.17
636.643	57.14
636.975	57.12
637.307	57.08
637.639	57.15
637.971	57.13
638.303	57.13
638.635	57
638.967	57.01
639.299	57.16
639.631	57.18
639.963	57.22
640.295	57.24
640.626	57.23
640.958	57.29
641.29	57.45
641.621	57.51
641.953	57.47
642.285	57.44
642.616	57.59
642.948	57.56
643.279	57.65
643.61	57.81
643.942	57.89
644.273	57.96
644.604	57.97
644.936	57.96
645.267	58.1
645.598	58.31
645.929	58.33
646.26	58.29
646.591	58.35
646.922	58.35
647.253	58.39
647.584	58.46
647.915	58.39
648.245	58.27
648.576	58.31
648.907	58.36
649.238	58.41
649.568	58.35
649.899	58.27
650.229	58.3
650.56	58.25
650.89	58.28
651.221	58.33
651.551	58.34
651.882	58.5
652.212	58.39
652.542	58.29
652.872	58.2
653.203	58.22
653.533	58.23
653.863	58.36
654.193	58.42
654.523	58.42
654.853	58.47
655.183	58.54
655.513	58.59
655.843	58.7
656.172	58.61
656.502	58.66
656.832	58.7
657.162	58.77
657.491	58.87
657.821	58.77
658.15	58.71
658.48	58.75
658.809	58.55
659.139	58.65
659.468	58.64
659.798	58.75
660.127	58.74
660.456	58.71
660.785	58.64
661.115	58.57
661.444	58.53
661.773	58.61
662.102	58.6
662.431	58.48
662.76	58.38
663.089	58.57
663.418	58.53
663.747	58.58
664.076	58.54
664.404	58.43
664.733	58.61
665.062	58.66
665.39	58.65
665.719	58.76
666.048	58.81
666.376	58.99
666.705	59
667.033	58.97
667.362	59.03
667.69	58.98
668.018	59.08
668.347	59.24
668.675	59.33
669.003	59.41
669.331	59.45
669.659	59.54
669.987	59.45
670.315	59.45
670.643	59.28
670.971	59.3
671.299	59.47
671.627	59.42
671.955	59.44
672.283	59.45
672.61	59.47
672.938	59.56
673.266	59.5
673.593	59.49
673.921	59.58
674.249	59.63
674.576	59.85
674.904	59.89
675.231	59.83
675.558	59.81
675.886	59.8
676.213	59.97
676.54	59.95
676.867	59.96
677.195	60.06
677.522	60.31
677.849	60.41
678.176	60.39
678.503	60.42
678.83	60.47
679.157	60.48
679.484	60.44
679.81	60.37
680.137	60.26
680.464	60.34
680.791	60.29
681.117	60.3
681.444	60.12
681.771	60.08
682.097	60.04
682.424	59.97
682.75	59.98
683.077	59.85
683.403	59.84
683.729	59.88
684.056	59.79
684.382	59.62
684.708	59.46
685.034	59.32
685.36	59.24
685.686	59.18
686.012	59.21
686.339	59.41
686.664	59.3
686.99	59.48
687.316	59.34
687.642	59.37
687.968	59.31
688.294	59.45
688.619	59.46
688.945	59.51
689.271	59.53
689.596	59.45
689.922	59.56
690.247	59.54
690.573	59.5
690.898	59.51
691.224	59.61
691.549	59.62
691.874	59.7
692.2	59.85
692.525	59.86
692.85	59.82
693.175	59.7
693.5	59.76
693.825	59.72
694.15	59.64
694.475	59.75
694.8	59.76
695.125	59.72
695.45	59.81
695.775	59.85
696.099	59.94
696.424	59.93
696.749	59.81
697.073	59.84
697.398	59.88
697.723	59.94
698.047	59.98
698.372	60.12
698.696	60.04
699.02	60.03
699.345	60.02
699.669	60.15
699.993	60.17
700.318	60.16
700.642	60.09
700.966	60.27
701.29	60.26
701.614	60.31
701.938	60.29
702.262	60.26
702.586	60.17
702.91	60.16
703.234	60.18
703.557	60.29
703.881	60.32
704.205	60.34
704.529	60.31
704.852	60.29
705.176	60.23
705.499	60.4
705.823	60.47
706.146	60.45
706.47	60.4
706.793	60.34
707.117	60.28
707.44	60.34
707.763	60.43
708.086	60.39
708.409	60.42
708.733	60.59
709.056	60.62
709.379	60.78
709.702	60.86
710.025	60.9
710.348	60.95
710.671	60.99
710.993	60.78
711.316	60.74
711.639	60.88
711.962	60.67
712.284	60.7
712.607	60.48
712.93	60.43
713.252	60.38
713.575	60.6
713.897	60.76
714.22	60.77
714.542	60.78
714.864	60.74
715.187	60.73
715.509	60.64
715.831	60.56
716.153	60.54
716.475	60.48
716.798	60.57
717.12	60.54
717.442	60.46
717.764	60.8
718.085	60.82
718.407	60.79
718.729	61.15
719.051	61.18
719.373	61.12
719.695	61.27
720.016	61.5
720.338	61.29
720.659	61.25
720.981	61.28
721.302	61.12
721.624	61.01
721.945	60.89
722.267	60.88
722.588	60.82
722.909	60.7
723.231	60.42
723.552	60.31
723.873	60.37
724.194	60.47
724.515	60.62
724.836	60.64
725.157	60.43
725.478	60.09
725.799	59.86
726.12	60.18
726.441	59.96
726.762	59.9
727.083	59.88
727.403	59.98
727.724	59.87
728.045	59.92
728.365	60.01
728.686	60.07
729.006	60.22
729.327	60.48
729.647	60.67
729.967	61
730.288	61.15
730.608	61.02
730.928	61.08
731.249	60.91
731.569	60.88
731.889	60.93
732.209	61.14
732.529	61.24
732.849	61.18
733.169	61.14
733.489	60.95
733.809	60.85
734.129	60.96
734.448	61.28
734.768	61.18
735.088	61
735.408	60.93
735.727	60.89
736.047	60.93
736.366	60.84
736.686	60.62
737.005	60.52
737.325	60.53
737.644	60.46
737.963	60.47
738.283	60.38
738.602	60.51
738.921	60.63
739.24	60.61
739.56	60.67
739.879	60.81
740.198	60.92
740.517	60.93
740.836	60.68
741.155	60.38
741.473	60.65
741.792	60.95
742.111	60.94
742.43	61.13
742.748	60.78
743.067	60.8
743.386	60.89
743.704	60.75
744.023	60.93
744.341	60.86
744.66	60.74
744.978	60.92
745.297	60.91
745.615	60.72
745.933	60.85
746.252	60.62
746.57	60.82
746.888	60.85
747.206	61.02
747.524	61.15
747.842	61.32
748.16	61.17
748.478	61.22
748.796	61.53
749.114	61.61
749.432	61.54
749.749	61.57
750.067	61.65
750.385	61.74
750.703	61.58
751.02	61.5
751.338	61.34
751.655	61.28
751.973	61.33
752.29	61.51
752.608	61.85
752.925	61.88
753.242	61.99
753.56	61.71
753.877	61.45
754.194	61.27
754.511	61.17
754.828	61.05
755.145	60.98
755.462	61.12
755.779	60.8
756.096	60.96
756.413	61.04
756.73	61.17
757.047	61.3
757.364	61.31
757.68	61.52
757.997	61.79
758.314	61.8
758.63	61.85
758.947	61.66
759.264	61.35
759.58	61.19
759.896	61.08
760.213	61.57
760.529	62.05
760.846	62.13
761.162	62.29
761.478	62.35
761.794	62.5
762.11	62.42
762.426	62.31
762.743	62.38
763.059	62.12
763.375	61.96
763.69	61.58
764.006	61.72
764.322	61.61
764.638	61.4
764.954	61.51
765.27	61.42
765.585	61.57
765.901	61.77
766.216	61.95
766.532	61.76
766.848	61.35
767.163	61.23
767.478	61.21
767.794	61.08
768.109	61.32
768.424	61.1
768.74	60.64
769.055	60.61
769.37	60.68
769.685	60.85
770	61.06
770.315	61.56
770.63	61.41
770.945	61.82
771.26	61.95
771.575	62.07
771.89	61.98
772.205	62.06
772.52	61.8
772.834	61.57
773.149	61.93
773.464	62.1
773.778	61.86
774.093	61.76
774.407	61.93
774.722	61.45
775.036	61.49
775.351	62.18
775.665	62.13
775.979	62.04
776.293	61.94
776.608	61.37
776.922	61.3
777.236	61.28
777.55	60.96
777.864	61.34
778.178	60.9
778.492	61
778.806	60.69
779.12	60.68
779.434	61.11
779.747	60.86
780.061	60.82
780.375	61.2
780.689	61.66
781.002	61.46
781.316	61.57
781.629	61.8
781.943	61.4
782.256	61.93
782.57	62.14
782.883	62.22
783.196	62.43
783.51	62.17
783.823	62.35
784.136	62.07
784.449	61.56
784.762	61.59
785.075	61.41
785.388	61.42
785.701	61.64
786.014	61.15
786.327	60.96
786.64	60.85
786.953	60.48
787.266	60.33
787.578	60.38
787.891	60.69
788.204	60.85
788.516	61.26
788.829	61.42
789.141	61.04
789.454	60.66
789.766	60.92
790.079	61.26
790.391	61.15
790.703	61.41
791.016	61.67
791.328	61.78
791.64	62.09
791.952	61.93
792.264	61.65
792.576	62.01
792.888	62.44
793.2	62.83
793.512	62.93
793.824	62.59
794.136	62.05
794.448	61.6
794.76	61.1
795.071	60.63
795.383	59.97
795.695	60
796.006	60.73
796.318	60.79
796.629	61
796.941	61.07
797.252	61.28
797.564	61.15
797.875	61.35
798.186	61.27
798.497	61.36
798.809	61.51
799.12	61.14
799.431	61.7
799.742	61.5
800.053	61.96
800.364	62.22
800.675	62.91
800.986	63.14
801.297	63.52
801.608	63.67
801.918	63.81
802.229	63.85
802.54	63.74
802.851	63.52
803.161	62.98
803.472	62.98
803.782	63.05
804.093	63.04
804.403	63.27
804.714	63.52
805.024	63.4
805.334	63.43
805.645	64.11
805.955	63.77
806.265	63.94
806.575	63.61
806.885	63.36
807.195	63.2
807.505	63.78
807.815	63.46
808.125	63.6
808.435	63.44
808.745	63.18
809.055	62.81
809.365	62.82
809.674	62.69
809.984	62.13
810.294	62.07
810.603	62.35
810.913	62.34
811.222	62.47
811.532	63.17
811.841	63.35
812.151	63.11
812.46	62.18
812.769	62.1
813.079	61.29
813.388	61.83
813.697	61.52
814.006	61.31
814.315	61.96
814.624	62.03
814.933	62.24
815.242	62.65
815.551	62.65
815.86	62.96
816.169	63.01
816.478	63.9
816.786	63.3
817.095	63.59
817.404	62.78
817.712	62.14
818.021	61.11
818.33	60.58
818.638	61.2
818.947	62.46
819.255	62.03
819.563	62.4
819.872	62.44
820.18	62.89
820.488	62.72
820.796	62.99
821.105	62.88
821.413	63.36
821.721	63.51
822.029	63.63
822.337	63.45
822.645	63.68
822.953	63.56
823.26	63.43
823.568	63.36
823.876	63.43
824.184	63.36
824.491	63.52
824.799	63.58
825.107	63.43
825.414	63.27
825.722	63.34
826.029	63.59
826.337	63.57
826.644	63.5
826.951	63.39
827.259	63.03
827.566	63.07
827.873	62.77
828.18	62.48
828.488	62.26
828.795	62.12
829.102	61.95
829.409	61.59
829.716	61.96
830.023	61.96
830.329	61.87
830.636	62.21
830.943	62.51
831.25	63.09
831.557	62.73
831.863	62.66
832.17	62.59
832.476	62.09
832.783	62.52
833.089	62.62
833.396	62.9
833.702	62.89
834.009	62.74
834.315	62.72
834.621	62.61
834.928	63.16
835.234	63.58
835.54	63.33
835.846	63.73
836.152	63.64
836.458	63.51
836.764	63.91
837.07	63.71
837.376	62.93
837.682	61.97
837.988	62.43
838.293	62.53
838.599	63.12
838.905	63.14
839.211	62.28
839.516	62.5
839.822	62.42
840.127	63.22
840.433	63.82
840.738	64.05
841.044	64.52
841.349	63.34
841.654	63.1
841.959	63.17
842.265	62.95
842.57	63.56
842.875	63.15
843.18	63.19
843.485	62.49
843.79	63.67
844.095	64.44
844.4	63.95
844.705	63.39
845.01	63.41
845.315	63.63
845.619	64.93
845.924	63.82
846.229	64.43
846.533	63.46
846.838	63.6
847.142	63.56
847.447	64.28
847.751	65.33
848.056	65.38
848.36	67.58
848.664	67.59
848.969	66.65
849.273	67.66
849.577	68
849.881	68.33
850.185	68.51
850.489	67.7
850.794	66.9
851.097	67.3
851.401	65.97
851.705	64.86
852.009	64.1
852.313	63.96
852.617	65.42
852.92	65.93
853.224	65.1
853.528	64.47
853.831	64.52
854.135	63.4
854.438	62.91
854.742	61.67
855.045	62.76
855.349	62.74
855.652	62.36
855.955	61.44
856.259	63.17
856.562	63.14
856.865	63.39
857.168	64.86
857.471	64.03
857.774	64.81
858.077	65.54
858.38	66.9
858.683	67.42
858.986	66.83
859.289	65.46
859.592	65.47
859.894	66.63
860.197	66.89
860.5	68.76
860.802	69.63
861.105	67.29
861.407	66.64
861.71	66.45
862.012	66.16
862.315	66.51
862.617	63.98
862.919	64.59
863.222	65.73
863.524	66.11
863.826	67.42
864.128	67.9
864.43	69.2
864.732	67.33
865.034	67.75
865.336	65.25
865.638	65.37
865.94	63.87
866.242	62.96
866.544	61.01
866.846	60.13
867.147	59.9
867.449	63.74
867.751	65.76
868.052	65.11
868.354	65.45
868.655	64.75
868.957	67.69
869.258	67.98
869.56	65.72
869.861	67.76
870.162	66.72
870.463	67.56
870.765	65.99
871.066	65.17
871.367	64.24
871.668	63.62
871.969	63.54
872.27	63.11
872.571	64.83
872.872	64.79
873.173	65.83
873.473	65.69
873.774	63.55
874.075	64.35
874.376	63.55
874.676	64.6
874.977	64.02
875.277	64.44
875.578	63.06
875.878	64.11
876.179	62.19
876.479	62.91
876.78	61.12
877.08	61.64
877.38	62.34
877.68	63.2
877.981	66.16
878.281	68.28
878.581	72.43
