Data from BA57730_Reflection_00005.txt Node
Date: Mon Nov 18 15:59:32 EST 2019
User: vgr7
Spectrometer: USB2G7710
Scans to average: 3
Trigger mode: 4
Integration Time (sec): 2.000000E-2
Electric dark correction enabled: true
Boxcar width: 10
XAxis mode: Wavelengths
Number of Pixels in Spectrum: 2048
>>>>>Begin Spectral Data<<<<<
177.721	-2820.63
178.105	263.4
178.488	506.04
178.871	302.99
179.254	146.64
179.636	126.94
180.019	112.61
180.402	60.47
180.785	-31.05
181.168	-53.26
181.55	-29.18
181.933	293.94
182.316	149.25
182.698	139.29
183.081	99.04
183.463	192
183.846	155.65
184.228	206.11
184.611	403.88
184.993	570.86
185.376	518.22
185.758	437.94
186.14	296.69
186.522	359.76
186.904	303.41
187.287	248.99
187.669	336
188.051	369.89
188.433	2236.75
188.815	337.48
189.197	241.23
189.579	231.22
189.961	196.81
190.342	173.67
190.724	394.78
191.106	-2740.58
191.488	-297.76
191.869	-148.26
192.251	-407.37
192.633	-283.48
193.014	-283.69
193.396	895.32
193.777	-292.16
194.159	-296.19
194.54	-183.14
194.922	-63.85
195.303	-60.11
195.684	-156.57
196.065	-79.79
196.447	-144.97
196.828	-194.76
197.209	-214.25
197.59	-222.12
197.971	-234.5
198.352	-102.74
198.733	-133.59
199.114	-90.48
199.495	-106.7
199.876	-27.42
200.257	-77.28
200.638	-95.17
201.018	-22.91
201.399	18.9
201.78	31.5
202.16	48.49
202.541	41.78
202.922	33.84
203.302	-50.11
203.683	1346.38
204.063	-11.54
204.444	-32.98
204.824	-13.66
205.204	112.7
205.585	141.15
205.965	243.59
206.345	68.68
206.725	114.81
207.106	167.24
207.486	185.97
207.866	254.13
208.246	211.41
208.626	167.82
209.006	340.52
209.386	324.15
209.766	887.88
210.145	-2963.06
210.525	-379.25
210.905	-148.29
211.285	-128.84
211.664	-162.17
212.044	-102.79
212.424	-77.48
212.803	-66.82
213.183	-40.06
213.562	-41.53
213.942	-19.89
214.321	-24.79
214.701	-21.53
215.08	-12.13
215.459	-15.63
215.838	-6.65
216.218	-17.3
216.597	-10.19
216.976	-18.36
217.355	-16.72
217.734	-25.13
218.113	-29.11
218.492	-37.84
218.871	-58.98
219.25	-51.72
219.629	-53.93
220.008	-53.5
220.387	-56.12
220.766	-28.14
221.144	-48.42
221.523	-68.76
221.902	-101.88
222.28	-109.74
222.659	-101.37
223.037	-109.93
223.416	-85
223.794	-97.35
224.173	-82.97
224.551	-73.76
224.929	-66.15
225.308	-37.57
225.686	-30.12
226.064	-21.19
226.442	-19.46
226.821	-7.45
227.199	-9.14
227.577	-8.9
227.955	-11.76
228.333	-12.02
228.711	-10.67
229.089	-6.46
229.467	-4.54
229.845	-1.92
230.222	-2.27
230.6	-1.44
230.978	0.05
231.356	1.35
231.733	1.08
232.111	1.84
232.488	2.54
232.866	3.38
233.243	0.8
233.621	-0.73
233.998	0.47
234.376	1.3
234.753	-1.34
235.13	1.21
235.508	2.94
235.885	2.29
236.262	2.13
236.639	0.39
237.016	0.66
237.393	2.11
237.77	2.89
238.147	4.24
238.524	5.21
238.901	5.4
239.278	5.81
239.655	6.78
240.032	7.05
240.409	6.82
240.785	6.21
241.162	6.85
241.539	7.21
241.915	6.91
242.292	6.52
242.668	6.57
243.045	5.93
243.421	5.85
243.798	6.03
244.174	6.11
244.551	6.32
244.927	6.18
245.303	6.29
245.679	6.11
246.056	5.75
246.432	5.69
246.808	5.75
247.184	5.45
247.56	5.17
247.936	4.85
248.312	4.87
248.688	5.04
249.064	4.88
249.44	4.69
249.815	4.68
250.191	4.79
250.567	4.89
250.943	4.96
251.318	4.53
251.694	4.46
252.069	4.23
252.445	4.08
252.82	3.81
253.196	3.32
253.571	3.23
253.947	3.28
254.322	3.15
254.697	2.75
255.073	2.89
255.448	2.75
255.823	2.98
256.198	3.23
256.573	3.38
256.948	3.71
257.323	4.02
257.698	4.09
258.073	4.25
258.448	4.33
258.823	4.13
259.198	4.17
259.573	4.29
259.948	4.4
260.322	4.22
260.697	4.37
261.072	4.48
261.446	4.6
261.821	4.53
262.195	4.63
262.57	4.71
262.944	4.6
263.319	4.81
263.693	4.73
264.067	4.73
264.442	4.76
264.816	4.53
265.19	4.32
265.564	4.28
265.938	4
266.313	3.9
266.687	4.16
267.061	4.25
267.435	4.14
267.809	3.98
268.183	4.08
268.556	3.88
268.93	3.97
269.304	3.8
269.678	3.88
270.051	3.57
270.425	3.6
270.799	3.56
271.172	3.49
271.546	3.43
271.919	3.18
272.293	3.12
272.666	3.29
273.04	3.39
273.413	3.35
273.787	3.56
274.16	3.47
274.533	3.37
274.906	3.38
275.279	3.34
275.653	3.45
276.026	3.43
276.399	3.48
276.772	3.44
277.145	3.46
277.518	3.57
277.891	3.9
278.263	3.85
278.636	3.89
279.009	3.94
279.382	4.21
279.755	4.26
280.127	4.48
280.5	4.64
280.872	4.69
281.245	4.67
281.617	4.67
281.99	4.68
282.362	4.81
282.735	4.76
283.107	4.82
283.479	4.87
283.852	4.95
284.224	4.99
284.596	4.84
284.968	4.89
285.34	4.92
285.713	4.82
286.085	4.86
286.457	5.05
286.829	5.1
287.201	4.91
287.572	4.77
287.944	4.61
288.316	4.38
288.688	4.3
289.06	4.32
289.431	4.33
289.803	4.46
290.175	4.33
290.546	4.47
290.918	4.4
291.289	4.33
291.661	4.39
292.032	4.46
292.403	4.59
292.775	4.65
293.146	4.64
293.517	4.62
293.889	4.73
294.26	4.63
294.631	4.55
295.002	4.61
295.373	4.87
295.744	4.93
296.115	5.07
296.486	5.02
296.857	5.03
297.228	5.07
297.599	4.98
297.97	5.02
298.34	5.01
298.711	5.07
299.082	5.07
299.452	5.07
299.823	5.18
300.194	5.16
300.564	5.09
300.935	5.02
301.305	4.95
301.676	4.81
302.046	4.81
302.416	4.81
302.787	4.83
303.157	4.73
303.527	4.69
303.897	4.58
304.267	4.69
304.637	4.67
305.008	4.62
305.378	4.75
305.748	4.88
306.117	4.78
306.487	4.67
306.857	4.61
307.227	4.52
307.597	4.22
307.967	4.25
308.336	4.11
308.706	4.09
309.076	4.13
309.445	4.22
309.815	4.18
310.184	4.29
310.554	4.31
310.923	4.35
311.293	4.41
311.662	4.53
312.031	4.51
312.401	4.51
312.77	4.55
313.139	4.57
313.508	4.49
313.877	4.43
314.246	4.54
314.616	4.49
314.985	4.43
315.353	4.59
315.722	4.67
316.091	4.78
316.46	4.72
316.829	4.74
317.198	4.77
317.567	4.81
317.935	4.73
318.304	4.77
318.672	4.67
319.041	4.56
319.41	4.49
319.778	4.41
320.147	4.43
320.515	4.32
320.883	4.22
321.252	4.17
321.62	4.28
321.988	4.28
322.357	4.24
322.725	4.24
323.093	4.2
323.461	4.11
323.829	4.11
324.197	4.11
324.565	4.16
324.933	4.08
325.301	4.13
325.669	4.29
326.037	4.19
326.405	4.26
326.772	4.16
327.14	4.1
327.508	4.1
327.875	3.99
328.243	3.99
328.61	3.88
328.978	3.97
329.346	3.93
329.713	3.88
330.08	3.96
330.448	4
330.815	4
331.182	3.95
331.55	3.98
331.917	4.13
332.284	4.25
332.651	4.35
333.018	4.21
333.385	4.04
333.752	4.11
334.119	4.14
334.486	4.18
334.853	4.16
335.22	4.17
335.587	4.23
335.954	4.21
336.32	4.26
336.687	4.24
337.054	4.24
337.42	4.35
337.787	4.28
338.153	4.35
338.52	4.41
338.886	4.4
339.253	4.29
339.619	4.22
339.986	4.14
340.352	4.05
340.718	4.17
341.084	4.14
341.451	4.17
341.817	4.2
342.183	4.15
342.549	4.17
342.915	4.25
343.281	4.3
343.647	4.28
344.013	4.31
344.379	4.23
344.745	4.16
345.11	4.18
345.476	4.28
345.842	4.31
346.208	4.28
346.573	4.28
346.939	4.4
347.304	4.36
347.67	4.3
348.035	4.27
348.401	4.21
348.766	4.22
349.132	4.18
349.497	4.08
349.862	4.13
350.228	4.09
350.593	4.1
350.958	4.12
351.323	4.24
351.688	4.22
352.053	4.31
352.418	4.27
352.783	4.21
353.148	4.15
353.513	4.06
353.878	4
354.243	4.07
354.608	4
354.972	4.09
355.337	4.15
355.702	4.23
356.066	4.32
356.431	4.35
356.795	4.32
357.16	4.34
357.524	4.35
357.889	4.35
358.253	4.31
358.618	4.26
358.982	4.15
359.346	4.05
359.71	3.97
360.075	4.05
360.439	4.06
360.803	4.09
361.167	4.16
361.531	4.19
361.895	4.2
362.259	4.18
362.623	4.16
362.987	4.12
363.351	4.09
363.714	4.06
364.078	3.97
364.442	3.94
364.806	3.92
365.169	3.87
365.533	3.87
365.896	3.84
366.26	3.84
366.623	3.88
366.987	3.96
367.35	4.09
367.714	4.06
368.077	4
368.44	4.02
368.803	3.91
369.167	3.93
369.53	3.92
369.893	3.99
370.256	3.99
370.619	3.98
370.982	3.99
371.345	3.99
371.708	4.06
372.071	4.14
372.434	4.14
372.797	4.18
373.159	4.18
373.522	4.21
373.885	4.27
374.247	4.26
374.61	4.29
374.973	4.2
375.335	4.25
375.698	4.31
376.06	4.28
376.423	4.38
376.785	4.34
377.147	4.36
377.51	4.31
377.872	4.34
378.234	4.38
378.596	4.34
378.958	4.32
379.321	4.32
379.683	4.33
380.045	4.31
380.407	4.29
380.769	4.31
381.13	4.3
381.492	4.25
381.854	4.29
382.216	4.29
382.578	4.34
382.939	4.32
383.301	4.28
383.663	4.28
384.024	4.2
384.386	4.27
384.747	4.23
385.109	4.26
385.47	4.22
385.832	4.23
386.193	4.25
386.554	4.23
386.916	4.2
387.277	4.18
387.638	4.22
387.999	4.24
388.36	4.25
388.721	4.24
389.082	4.22
389.443	4.19
389.804	4.16
390.165	4.12
390.526	4.09
390.887	4.12
391.248	4.13
391.609	4.16
391.969	4.11
392.33	4.12
392.691	4.08
393.051	4.11
393.412	4.13
393.772	4.1
394.133	4.14
394.493	4.14
394.854	4.12
395.214	4.11
395.574	4.12
395.935	4.1
396.295	4.11
396.655	4.14
397.015	4.11
397.376	4.12
397.736	4.12
398.096	4.19
398.456	4.2
398.816	4.17
399.176	4.15
399.535	4.12
399.895	4.14
400.255	4.19
400.615	4.19
400.975	4.16
401.334	4.2
401.694	4.17
402.054	4.17
402.413	4.17
402.773	4.16
403.132	4.17
403.492	4.16
403.851	4.18
404.211	4.16
404.57	4.21
404.929	4.21
405.288	4.2
405.648	4.14
406.007	4.1
406.366	4.1
406.725	4.11
407.084	4.12
407.443	4.11
407.802	4.11
408.161	4.08
408.52	4.06
408.879	4.01
409.238	4.04
409.596	4.05
409.955	4.05
410.314	4.06
410.673	4.04
411.031	4.03
411.39	4
411.748	3.98
412.107	3.98
412.465	3.95
412.824	3.97
413.182	3.98
413.54	4
413.899	4.02
414.257	4.02
414.615	4.03
414.974	4.04
415.332	4.03
415.69	4.01
416.048	4.02
416.406	4.06
416.764	4.04
417.122	4.06
417.48	4.02
417.838	4.04
418.195	4.05
418.553	4.04
418.911	4.05
419.269	4.08
419.626	4.09
419.984	4.11
420.342	4.09
420.699	4.08
421.057	4.08
421.414	4.05
421.772	4.05
422.129	4.06
422.486	4.05
422.844	4.06
423.201	4.05
423.558	4.05
423.915	4.05
424.273	4.05
424.63	4.02
424.987	4.04
425.344	4.02
425.701	4.01
426.058	4.02
426.415	4.01
426.772	3.98
427.128	3.96
427.485	3.96
427.842	3.96
428.199	3.97
428.555	3.97
428.912	3.99
429.269	3.99
429.625	3.97
429.982	3.96
430.338	3.97
430.695	4
431.051	3.99
431.407	3.99
431.764	3.99
432.12	3.99
432.476	3.98
432.832	3.99
433.189	3.98
433.545	3.98
433.901	4
434.257	3.99
434.613	4
434.969	4
435.325	4
435.681	4.01
436.036	4
436.392	3.99
436.748	3.98
437.104	3.99
437.459	3.99
437.815	3.98
438.171	3.96
438.526	3.99
438.882	3.99
439.237	3.99
439.593	4.01
439.948	4.02
440.304	4.01
440.659	4.03
441.014	4.04
441.369	4.02
441.725	4.02
442.08	4
442.435	4.01
442.79	3.99
443.145	3.98
443.5	3.97
443.855	3.99
444.21	3.99
444.565	3.99
444.92	4.01
445.275	4
445.629	4
445.984	3.98
446.339	3.98
446.693	3.96
447.048	3.94
447.403	3.95
447.757	3.96
448.112	3.95
448.466	3.94
448.82	3.93
449.175	3.93
449.529	3.92
449.883	3.92
450.238	3.93
450.592	3.93
450.946	3.93
451.3	3.93
451.654	3.93
452.008	3.91
452.362	3.88
452.716	3.88
453.07	3.87
453.424	3.88
453.778	3.85
454.132	3.85
454.486	3.86
454.839	3.85
455.193	3.84
455.547	3.83
455.9	3.84
456.254	3.85
456.607	3.86
456.961	3.88
457.314	3.87
457.668	3.86
458.021	3.86
458.375	3.86
458.728	3.86
459.081	3.87
459.434	3.87
459.787	3.87
460.141	3.88
460.494	3.89
460.847	3.89
461.2	3.9
461.553	3.9
461.906	3.9
462.259	3.91
462.611	3.92
462.964	3.93
463.317	3.93
463.67	3.93
464.022	3.93
464.375	3.9
464.728	3.92
465.08	3.93
465.433	3.93
465.785	3.94
466.138	3.94
466.49	3.94
466.843	3.94
467.195	3.95
467.547	3.94
467.899	3.95
468.252	3.94
468.604	3.94
468.956	3.95
469.308	3.95
469.66	3.94
470.012	3.94
470.364	3.94
470.716	3.95
471.068	3.95
471.42	3.95
471.772	3.98
472.123	3.97
472.475	3.98
472.827	3.99
473.178	3.98
473.53	3.98
473.882	3.97
474.233	4
474.585	3.97
474.936	3.98
475.288	3.99
475.639	4.01
475.99	4.01
476.342	4.01
476.693	4.02
477.044	4.05
477.395	4.05
477.746	4.05
478.097	4.04
478.448	4.03
478.8	4.03
479.15	4.01
479.501	4.03
479.852	4.03
480.203	4.02
480.554	4.03
480.905	4.04
481.255	4.05
481.606	4.05
481.957	4.06
482.307	4.06
482.658	4.07
483.009	4.07
483.359	4.07
483.709	4.08
484.06	4.07
484.41	4.07
484.761	4.09
485.111	4.09
485.461	4.1
485.811	4.1
486.162	4.1
486.512	4.12
486.862	4.12
487.212	4.12
487.562	4.13
487.912	4.12
488.262	4.13
488.612	4.12
488.961	4.12
489.311	4.12
489.661	4.13
490.011	4.12
490.36	4.11
490.71	4.11
491.06	4.12
491.409	4.13
491.759	4.13
492.108	4.1
492.458	4.09
492.807	4.09
493.157	4.1
493.506	4.1
493.855	4.09
494.204	4.09
494.554	4.08
494.903	4.08
495.252	4.08
495.601	4.09
495.95	4.08
496.299	4.07
496.648	4.06
496.997	4.05
497.346	4.08
497.695	4.08
498.043	4.06
498.392	4.06
498.741	4.07
499.09	4.06
499.438	4.09
499.787	4.1
500.135	4.11
500.484	4.1
500.832	4.12
501.181	4.13
501.529	4.15
501.878	4.17
502.226	4.18
502.574	4.18
502.923	4.18
503.271	4.19
503.619	4.2
503.967	4.21
504.315	4.22
504.663	4.2
505.011	4.21
505.359	4.23
505.707	4.22
506.055	4.19
506.403	4.18
506.751	4.2
507.098	4.2
507.446	4.22
507.794	4.22
508.141	4.22
508.489	4.22
508.837	4.21
509.184	4.21
509.531	4.21
509.879	4.22
510.226	4.24
510.574	4.24
510.921	4.26
511.268	4.27
511.616	4.27
511.963	4.28
512.31	4.29
512.657	4.3
513.004	4.32
513.351	4.36
513.698	4.37
514.045	4.35
514.392	4.34
514.739	4.33
515.086	4.32
515.432	4.32
515.779	4.33
516.126	4.36
516.473	4.35
516.819	4.35
517.166	4.34
517.512	4.33
517.859	4.33
518.205	4.33
518.552	4.35
518.898	4.34
519.245	4.34
519.591	4.33
519.937	4.29
520.283	4.28
520.629	4.29
520.976	4.3
521.322	4.31
521.668	4.31
522.014	4.31
522.36	4.35
522.706	4.35
523.052	4.36
523.398	4.36
523.743	4.38
524.089	4.4
524.435	4.42
524.781	4.41
525.126	4.43
525.472	4.43
525.817	4.43
526.163	4.43
526.509	4.46
526.854	4.48
527.199	4.5
527.545	4.51
527.89	4.5
528.235	4.5
528.581	4.52
528.926	4.53
529.271	4.52
529.616	4.51
529.961	4.51
530.306	4.5
530.651	4.51
530.996	4.52
531.341	4.5
531.686	4.5
532.031	4.51
532.376	4.5
532.721	4.5
533.065	4.51
533.41	4.51
533.755	4.49
534.099	4.49
534.444	4.48
534.788	4.48
535.133	4.48
535.477	4.48
535.822	4.45
536.166	4.45
536.51	4.46
536.855	4.46
537.199	4.45
537.543	4.46
537.887	4.44
538.231	4.43
538.576	4.45
538.92	4.45
539.264	4.44
539.608	4.45
539.951	4.46
540.295	4.47
540.639	4.47
540.983	4.48
541.327	4.48
541.671	4.48
542.014	4.49
542.358	4.49
542.701	4.49
543.045	4.51
543.389	4.5
543.732	4.5
544.075	4.5
544.419	4.51
544.762	4.5
545.105	4.51
545.449	4.51
545.792	4.47
546.135	4.48
546.478	4.49
546.821	4.48
547.165	4.46
547.508	4.46
547.851	4.47
548.194	4.44
548.536	4.43
548.879	4.43
549.222	4.42
549.565	4.42
549.908	4.43
550.25	4.4
550.593	4.41
550.936	4.41
551.278	4.42
551.621	4.42
551.963	4.44
552.306	4.44
552.648	4.44
552.991	4.5
553.333	4.52
553.675	4.51
554.017	4.53
554.36	4.54
554.702	4.54
555.044	4.54
555.386	4.54
555.728	4.54
556.07	4.53
556.412	4.54
556.754	4.52
557.096	4.52
557.438	4.55
557.78	4.56
558.121	4.6
558.463	4.63
558.805	4.64
559.147	4.63
559.488	4.62
559.83	4.62
560.171	4.62
560.513	4.63
560.854	4.65
561.196	4.63
561.537	4.66
561.878	4.64
562.22	4.64
562.561	4.65
562.902	4.67
563.243	4.69
563.584	4.71
563.925	4.73
564.266	4.7
564.607	4.68
564.948	4.7
565.289	4.67
565.63	4.67
565.971	4.66
566.312	4.65
566.653	4.68
566.993	4.68
567.334	4.66
567.675	4.66
568.015	4.65
568.356	4.65
568.696	4.66
569.037	4.64
569.377	4.65
569.718	4.66
570.058	4.69
570.398	4.65
570.739	4.64
571.079	4.63
571.419	4.65
571.759	4.66
572.099	4.66
572.439	4.65
572.779	4.64
573.119	4.65
573.459	4.67
573.799	4.68
574.139	4.65
574.479	4.64
574.819	4.61
575.158	4.57
575.498	4.56
575.838	4.54
576.177	4.54
576.517	4.53
576.856	4.53
577.196	4.49
577.535	4.5
577.875	4.48
578.214	4.49
578.553	4.48
578.893	4.46
579.232	4.44
579.571	4.41
579.91	4.39
580.25	4.37
580.589	4.35
580.928	4.35
581.267	4.38
581.606	4.4
581.945	4.41
582.283	4.43
582.622	4.48
582.961	4.46
583.3	4.48
583.639	4.49
583.977	4.48
584.316	4.5
584.654	4.52
584.993	4.52
585.332	4.51
585.67	4.56
586.008	4.56
586.347	4.6
586.685	4.62
587.024	4.65
587.362	4.63
587.7	4.61
588.038	4.6
588.376	4.59
588.715	4.61
589.053	4.61
589.391	4.63
589.729	4.64
590.067	4.61
590.404	4.61
590.742	4.64
591.08	4.6
591.418	4.6
591.756	4.57
592.093	4.63
592.431	4.63
592.769	4.61
593.106	4.58
593.444	4.52
593.781	4.51
594.119	4.49
594.456	4.49
594.793	4.52
595.131	4.49
595.468	4.51
595.805	4.49
596.143	4.5
596.48	4.49
596.817	4.43
597.154	4.46
597.491	4.43
597.828	4.38
598.165	4.41
598.502	4.39
598.839	4.41
599.176	4.38
599.512	4.38
599.849	4.37
600.186	4.42
600.523	4.47
600.859	4.53
601.196	4.56
601.532	4.55
601.869	4.49
602.205	4.52
602.542	4.52
602.878	4.54
603.215	4.53
603.551	4.55
603.887	4.56
604.223	4.56
604.56	4.6
604.896	4.64
605.232	4.68
605.568	4.73
605.904	4.73
606.24	4.74
606.576	4.75
606.912	4.77
607.248	4.7
607.583	4.67
607.919	4.63
608.255	4.63
608.591	4.67
608.926	4.69
609.262	4.68
609.597	4.68
609.933	4.63
610.268	4.64
610.604	4.66
610.939	4.7
611.275	4.66
611.61	4.65
611.945	4.66
612.281	4.65
612.616	4.63
612.951	4.6
613.286	4.58
613.621	4.58
613.956	4.53
614.291	4.57
614.626	4.59
614.961	4.59
615.296	4.56
615.631	4.59
615.966	4.62
616.3	4.64
616.635	4.63
616.97	4.67
617.304	4.64
617.639	4.65
617.973	4.61
618.308	4.66
618.642	4.68
618.977	4.65
619.311	4.64
619.646	4.61
619.98	4.66
620.314	4.62
620.648	4.67
620.983	4.73
621.317	4.78
621.651	4.78
621.985	4.79
622.319	4.8
622.653	4.78
622.987	4.81
623.321	4.79
623.655	4.79
623.988	4.81
624.322	4.82
624.656	4.78
624.99	4.81
625.323	4.79
625.657	4.79
625.99	4.8
626.324	4.78
626.657	4.82
626.991	4.82
627.324	4.84
627.658	4.85
627.991	4.85
628.324	4.83
628.657	4.86
628.991	4.86
629.324	4.88
629.657	4.9
629.99	4.93
630.323	4.97
630.656	4.99
630.989	5.02
631.322	5.03
631.655	5.04
631.987	5.09
632.32	5.11
632.653	5.12
632.986	5.11
633.318	5.13
633.651	5.12
633.984	5.09
634.316	5.1
634.649	5.08
634.981	5.08
635.313	5.07
635.646	5.05
635.978	5.03
636.31	5.04
636.643	5
636.975	4.97
637.307	4.98
637.639	4.99
637.971	4.92
638.303	4.93
638.635	4.91
638.967	4.86
639.299	4.86
639.631	4.83
639.963	4.79
640.295	4.77
640.626	4.78
640.958	4.87
641.29	4.83
641.621	4.84
641.953	4.84
642.285	4.9
642.616	4.92
642.948	4.92
643.279	4.91
643.61	4.91
643.942	4.9
644.273	4.85
644.604	4.85
644.936	4.83
645.267	4.84
645.598	4.85
645.929	4.84
646.26	4.87
646.591	4.87
646.922	4.84
647.253	4.84
647.584	4.81
647.915	4.69
648.245	4.68
648.576	4.68
648.907	4.7
649.238	4.56
649.568	4.56
649.899	4.54
650.229	4.55
650.56	4.57
650.89	4.61
651.221	4.6
651.551	4.57
651.882	4.67
652.212	4.71
652.542	4.62
652.872	4.63
653.203	4.59
653.533	4.68
653.863	4.73
654.193	4.78
654.523	4.78
654.853	4.85
655.183	4.87
655.513	4.75
655.843	4.7
656.172	4.79
656.502	4.79
656.832	4.81
657.162	4.83
657.491	4.82
657.821	4.79
658.15	4.8
658.48	4.79
658.809	4.71
659.139	4.68
659.468	4.66
659.798	4.7
660.127	4.74
660.456	4.7
660.785	4.72
661.115	4.69
661.444	4.68
661.773	4.68
662.102	4.7
662.431	4.78
662.76	4.8
663.089	4.72
663.418	4.7
663.747	4.66
664.076	4.62
664.404	4.6
664.733	4.59
665.062	4.62
665.39	4.65
665.719	4.64
666.048	4.67
666.376	4.74
666.705	4.71
667.033	4.69
667.362	4.67
667.69	4.66
668.018	4.68
668.347	4.67
668.675	4.68
669.003	4.64
669.331	4.66
669.659	4.65
669.987	4.66
670.315	4.71
670.643	4.75
670.971	4.82
671.299	4.94
671.627	4.95
671.955	4.92
672.283	4.92
672.61	4.92
672.938	4.93
673.266	5
673.593	5.08
673.921	5.06
674.249	5.01
674.576	4.98
674.904	4.91
675.231	4.92
675.558	4.94
675.886	4.99
676.213	4.97
676.54	5.03
676.867	5.16
677.195	5.12
677.522	5.12
677.849	5.05
678.176	4.93
678.503	4.85
678.83	4.86
679.157	4.85
679.484	4.89
679.81	4.87
680.137	4.86
680.464	4.77
680.791	4.72
681.117	4.76
681.444	4.82
681.771	4.85
682.097	4.86
682.424	4.81
682.75	4.78
683.077	4.79
683.403	4.82
683.729	4.68
684.056	4.7
684.382	4.68
684.708	4.71
685.034	4.77
685.36	4.88
685.686	4.8
686.012	4.78
686.339	4.87
686.664	4.85
686.99	4.86
687.316	4.86
687.642	4.98
687.968	5.06
688.294	5.08
688.619	5.12
688.945	5.11
689.271	5.11
689.596	5.05
689.922	5.1
690.247	5.05
690.573	5.06
690.898	5.06
691.224	5.22
691.549	5.18
691.874	5.12
692.2	5.08
692.525	5.14
692.85	5.2
693.175	5.1
693.5	5.09
693.825	5.15
694.15	5.21
694.475	5.15
694.8	5.02
695.125	4.89
695.45	4.85
695.775	4.83
696.099	4.9
696.424	4.92
696.749	4.82
697.073	4.79
697.398	4.94
697.723	4.94
698.047	4.82
698.372	4.82
698.696	4.84
699.02	4.81
699.345	4.78
699.669	4.88
699.993	4.82
700.318	4.81
700.642	4.72
700.966	4.73
701.29	4.73
701.614	4.82
701.938	4.93
702.262	5
702.586	5.01
702.91	5.1
703.234	5.15
703.557	5.23
703.881	5.17
704.205	5.09
704.529	5.04
704.852	5.16
705.176	5.27
705.499	5.39
705.823	5.41
706.146	5.43
706.47	5.39
706.793	5.39
707.117	5.44
707.44	5.56
707.763	5.48
708.086	5.49
708.409	5.49
708.733	5.42
709.056	5.41
709.379	5.51
709.702	5.33
710.025	5.29
710.348	5.24
710.671	5.29
710.993	5.47
711.316	5.46
711.639	5.4
711.962	5.24
712.284	5.15
712.607	5.25
712.93	5.37
713.252	5.37
713.575	5.55
713.897	5.52
714.22	5.41
714.542	5.39
714.864	5.41
715.187	5.44
715.509	5.52
715.831	5.51
716.153	5.39
716.475	5.44
716.798	5.67
717.12	5.7
717.442	5.73
717.764	5.57
718.085	5.55
718.407	5.51
718.729	5.54
719.051	5.59
719.373	5.5
719.695	5.36
720.016	5.33
720.338	5.24
720.659	5.28
720.981	5.21
721.302	5.22
721.624	5.17
721.945	5.09
722.267	5.02
722.588	4.93
722.909	5.04
723.231	5.05
723.552	4.78
723.873	4.96
724.194	4.82
724.515	4.8
724.836	4.81
725.157	4.92
725.478	4.99
725.799	4.91
726.12	4.94
726.441	5.03
726.762	5.02
727.083	5.01
727.403	5.11
727.724	5.26
728.045	5.18
728.365	5.19
728.686	5.09
729.006	5.18
729.327	5.23
729.647	5.25
729.967	5.23
730.288	5.38
730.608	5.23
730.928	5.52
731.249	5.48
731.569	5.74
731.889	5.71
732.209	5.65
732.529	5.63
732.849	5.6
733.169	5.63
733.489	5.56
733.809	5.56
734.129	5.44
734.448	5.54
734.768	5.59
735.088	5.77
735.408	5.84
735.727	5.8
736.047	5.87
736.366	5.85
736.686	5.95
737.005	5.91
737.325	5.91
737.644	5.78
737.963	5.83
738.283	5.68
738.602	5.79
738.921	5.83
739.24	6.05
739.56	6.05
739.879	6.15
740.198	6.28
740.517	6.34
740.836	6.29
741.155	6.19
741.473	6.27
741.792	6.13
742.111	6.16
742.43	6.1
742.748	5.81
743.067	5.86
743.386	5.84
743.704	5.84
744.023	5.92
744.341	5.7
744.66	5.91
744.978	5.73
745.297	5.6
745.615	5.74
745.933	5.62
746.252	5.71
746.57	5.45
746.888	5.24
747.206	5.16
747.524	5.27
747.842	5.34
748.16	5.46
748.478	5.52
748.796	5.52
749.114	5.67
749.432	5.81
749.749	5.65
750.067	5.6
750.385	5.49
750.703	5.48
751.02	5.69
751.338	5.5
751.655	5.36
751.973	5.5
752.29	5.58
752.608	5.59
752.925	5.6
753.242	5.8
753.56	5.88
753.877	6.09
754.194	5.83
754.511	5.67
754.828	5.48
755.145	5.46
755.462	5.57
755.779	5.65
756.096	5.69
756.413	5.99
756.73	6.17
757.047	6.26
757.364	6.15
757.68	6.34
757.997	6.36
758.314	6.69
758.63	6.45
758.947	6.35
759.264	6.25
759.58	6.02
759.896	5.88
760.213	6.03
760.529	5.76
760.846	5.95
761.162	5.9
761.478	5.84
761.794	5.64
762.11	5.65
762.426	5.56
762.743	5.76
763.059	5.57
763.375	5.44
763.69	5.6
764.006	5.69
764.322	5.58
764.638	5.5
764.954	5.6
765.27	5.66
765.585	5.61
765.901	5.73
766.216	6.03
766.532	6.11
766.848	6.07
767.163	6.22
767.478	6.26
767.794	6.32
768.109	6.55
768.424	6.59
768.74	6.6
769.055	6.67
769.37	6.54
769.685	6.57
770	6.73
770.315	6.6
770.63	6.48
770.945	6.63
771.26	6.79
771.575	6.59
771.89	6.75
772.205	6.65
772.52	6.63
772.834	6.59
773.149	6.66
773.464	6.71
773.778	6.87
774.093	6.49
774.407	6.62
774.722	6.44
775.036	6.61
775.351	6.65
775.665	6.6
775.979	6.37
776.293	6.35
776.608	6.22
776.922	6.09
777.236	6.08
777.55	5.59
777.864	5.68
778.178	5.79
778.492	5.78
778.806	6.01
779.12	5.83
779.434	5.44
779.747	5.6
780.061	5.35
780.375	5.09
780.689	5.54
781.002	5.79
781.316	5.97
781.629	6.03
781.943	6.03
782.256	5.82
782.57	6.1
782.883	6.1
783.196	6.03
783.51	5.94
783.823	6.06
784.136	6.18
784.449	5.98
784.762	5.96
785.075	5.86
785.388	5.94
785.701	5.86
786.014	6.23
786.327	5.7
786.64	6.38
786.953	6.55
787.266	6.44
787.578	6.38
787.891	6.38
788.204	6.23
788.516	6.28
788.829	6.38
789.141	6.58
789.454	6.58
789.766	6.88
790.079	7.28
790.391	7.43
790.703	7.67
791.016	7.89
791.328	7.99
791.64	7.75
791.952	7.91
792.264	7.81
792.576	7.85
792.888	8.38
793.2	8.08
793.512	7.98
793.824	8.38
794.136	8.05
794.448	8.2
794.76	8.26
795.071	8.12
795.383	8.06
795.695	7.58
796.006	7.37
796.318	7.28
796.629	7.61
796.941	7.47
797.252	7.74
797.564	7.3
797.875	6.97
798.186	6.97
798.497	6.53
798.809	6.83
799.12	6.55
799.431	6.36
799.742	6.26
800.053	6.31
800.364	6.26
800.675	6.28
800.986	5.93
801.297	5.78
801.608	5.35
801.918	5.41
802.229	5.6
802.54	5.7
802.851	5.44
803.161	5.21
803.472	5.17
803.782	4.85
804.093	5.06
804.403	5.73
804.714	6.08
805.024	5.96
805.334	5.95
805.645	5.95
805.955	5.22
806.265	5.32
806.575	5.49
806.885	4.92
807.195	5.28
807.505	5.72
807.815	6.12
808.125	6.52
808.435	6.44
808.745	6.44
809.055	6.6
809.365	6.66
809.674	5.93
809.984	5.83
810.294	6.11
810.603	6.06
810.913	5.94
811.222	5.85
811.532	6.28
811.841	6.94
812.151	7.79
812.46	8.17
812.769	7.94
813.079	7.26
813.388	7.38
813.697	7.6
814.006	7.52
814.315	7.37
814.624	7.19
814.933	7.49
815.242	7.64
815.551	8.29
815.86	8.62
816.169	8.91
816.478	9.01
816.786	8.87
817.095	9.15
817.404	8.75
817.712	8.69
818.021	8.94
818.33	8.81
818.638	8.53
818.947	8.95
819.255	8.98
819.563	9.1
819.872	9.33
820.18	9
820.488	8.91
820.796	9.06
821.105	8.97
821.413	8.99
821.721	8.86
822.029	8.56
822.337	8.59
822.645	8.74
822.953	8.66
823.26	8.77
823.568	8.68
823.876	8.62
824.184	8.67
824.491	8.55
824.799	8.36
825.107	8.11
825.414	8.01
825.722	8.12
826.029	8.09
826.337	8.03
826.644	8.16
826.951	8.11
827.259	7.99
827.566	8.09
827.873	8.07
828.18	8.36
828.488	8.33
828.795	8.2
829.102	7.96
829.409	8.05
829.716	7.91
830.023	8.3
830.329	8.27
830.636	8.34
830.943	8.23
831.25	8.16
831.557	8.57
831.863	8.77
832.17	8.24
832.476	8.5
832.783	8.56
833.089	8.26
833.396	8.49
833.702	8.53
834.009	8.45
834.315	8.49
834.621	8.39
834.928	8.67
835.234	8.56
835.54	8.41
835.846	8.41
836.152	8.16
836.458	7.61
836.764	7.52
837.07	7.08
837.376	7.01
837.682	7.47
837.988	7.13
838.293	7.31
838.599	7.73
838.905	7.25
839.211	6.79
839.516	7.36
839.822	6.77
840.127	6.69
840.433	6.58
840.738	6.84
841.044	6.08
841.349	6.26
841.654	6.22
841.959	6.37
842.265	5.65
842.57	6.21
842.875	6.1
843.18	6.49
843.485	6.71
843.79	7.02
844.095	6.66
844.4	7.73
844.705	6.56
845.01	6.56
845.315	7.53
845.619	7.66
845.924	5.31
846.229	6.83
846.533	7.26
846.838	6.74
847.142	5.38
847.447	4.06
847.751	4.06
848.056	4.16
848.36	5
848.664	5.57
848.969	4.99
849.273	4.74
849.577	5.23
849.881	5.41
850.185	6.73
850.489	5.91
850.794	5.88
851.097	4.85
851.401	3.96
851.705	2.87
852.009	2.73
852.313	3.97
852.617	2.06
852.92	3.14
853.224	3.18
853.528	4.52
853.831	5.71
854.135	5.35
854.438	4.74
854.742	4.43
855.045	4.48
855.349	3.18
855.652	2.57
855.955	2.05
856.259	3.97
856.562	4.12
856.865	3.29
857.168	1.25
857.471	2.59
857.774	5.1
858.077	5.17
858.38	6.64
858.683	6.6
858.986	7.02
859.289	6.68
859.592	7.74
859.894	8.27
860.197	8.58
860.5	7.92
860.802	7.47
861.105	6.33
861.407	7.59
861.71	8.44
862.012	10.72
862.315	10.83
862.617	9.2
862.919	6.56
863.222	7.42
863.524	9.61
863.826	10.24
864.128	10.25
864.43	9.88
864.732	9.7
865.034	10.35
865.336	7.55
865.638	6.15
865.94	4.36
866.242	2.88
866.544	2.4
866.846	3.22
867.147	3.98
867.449	5.19
867.751	3.57
868.052	5.9
868.354	3.5
868.655	3.91
868.957	3.64
869.258	5.29
869.56	6.75
869.861	4.15
870.162	4.72
870.463	2.61
870.765	2.48
871.066	3.02
871.367	3.45
871.668	5.32
871.969	4.43
872.27	5.88
872.571	7.04
872.872	8.2
873.173	5.99
873.473	7.58
873.774	11.07
874.075	11.71
874.376	7.61
874.676	11.3
874.977	9.17
875.277	9.03
875.578	9.47
875.878	8.81
876.179	10.83
876.479	10.15
876.78	10.19
877.08	11.17
877.38	9.75
877.68	9.4
877.981	10.89
878.281	12.28
878.581	12.89
