Data from BA57965_Reflection_00005.txt Node
Date: Mon Nov 18 15:16:04 EST 2019
User: vgr7
Spectrometer: USB2G7710
Scans to average: 3
Trigger mode: 4
Integration Time (sec): 2.000000E-2
Electric dark correction enabled: true
Boxcar width: 10
XAxis mode: Wavelengths
Number of Pixels in Spectrum: 2048
>>>>>Begin Spectral Data<<<<<
177.721	131.75
178.105	91.1
178.488	142.11
178.871	46.04
179.254	81.29
179.636	67.03
180.019	31.28
180.402	110.53
180.785	-23.52
181.168	-0.58
181.55	85.22
181.933	103.68
182.316	151.66
182.698	539.33
183.081	738.71
183.463	-492.36
183.846	-144.12
184.228	-161.01
184.611	-194.41
184.993	-88.49
185.376	-71.47
185.758	-93.6
186.14	-89.46
186.522	-83.34
186.904	-83.05
187.287	-89.05
187.669	-68.84
188.051	-79.69
188.433	-91.53
188.815	-80.5
189.197	-88.06
189.579	-84.07
189.961	-93.79
190.342	-107.68
190.724	-97.19
191.106	-96.24
191.488	-99.06
191.869	-78.14
192.251	-89.78
192.633	-78.93
193.014	-83.05
193.396	-94.12
193.777	-97.73
194.159	-112.14
194.54	-88.61
194.922	-71.13
195.303	-84.86
195.684	-81.1
196.065	-60.16
196.447	-66.4
196.828	-61.77
197.209	-52.56
197.59	-58.7
197.971	-51.12
198.352	-34.52
198.733	-32.04
199.114	-9.84
199.495	-14.67
199.876	-15.56
200.257	-8.51
200.638	-2.84
201.018	-7.45
201.399	1.65
201.78	9.5
202.16	-2.34
202.541	-12.2
202.922	-30.11
203.302	-23.13
203.683	-24.29
204.063	-31.55
204.444	-20.63
204.824	-28.05
205.204	-22.27
205.585	-21.57
205.965	-19.81
206.345	-27.43
206.725	-34.15
207.106	-53.4
207.486	-69.6
207.866	-86.13
208.246	-109.64
208.626	-94.57
209.006	-74.68
209.386	-76.11
209.766	-62.85
210.145	-61.8
210.525	-47.77
210.905	-36.85
211.285	-31.89
211.664	-16.78
212.044	-18.52
212.424	-16.95
212.803	-12.05
213.183	-10.34
213.562	-2.54
213.942	6.36
214.321	1.35
214.701	2.09
215.08	3.74
215.459	7.69
215.838	8.12
216.218	14.71
216.597	10.45
216.976	15.45
217.355	13.72
217.734	7.63
218.113	16.79
218.492	14.16
218.871	12.79
219.25	8.85
219.629	-9.2
220.008	-5.97
220.387	-18.68
220.766	-20.33
221.144	-23.24
221.523	-33.71
221.902	-39.59
222.28	-29.86
222.659	-27.79
223.037	-25.78
223.416	-27.76
223.794	-23.9
224.173	-25.74
224.551	-13.15
224.929	-16.63
225.308	-5.33
225.686	-3.11
226.064	-0.9
226.442	-1.94
226.821	2.26
227.199	0.67
227.577	2.63
227.955	4.09
228.333	9.49
228.711	10.72
229.089	11.02
229.467	8.99
229.845	4.49
230.222	5.08
230.6	5.46
230.978	5.49
231.356	8.16
231.733	8.88
232.111	11.73
232.488	10.87
232.866	11.73
233.243	9.69
233.621	8.7
233.998	7.41
234.376	7.1
234.753	6.32
235.13	7.98
235.508	9.19
235.885	9.16
236.262	7.36
236.639	6.84
237.016	6.64
237.393	8.05
237.77	9.65
238.147	10.06
238.524	9.74
238.901	9.16
239.278	8.44
239.655	8.7
240.032	8.01
240.409	7.75
240.785	7.34
241.162	7.62
241.539	8.04
241.915	8.17
242.292	7.96
242.668	8
243.045	7.75
243.421	7.54
243.798	7.19
244.174	7.21
244.551	7.05
244.927	6.98
245.303	7.26
245.679	7.21
246.056	6.86
246.432	6.79
246.808	6.89
247.184	6.87
247.56	6.74
247.936	6.7
248.312	6.55
248.688	6.53
249.064	6.56
249.44	6.35
249.815	6.3
250.191	6.41
250.567	6.56
250.943	6.45
251.318	6.35
251.694	6.19
252.069	6.02
252.445	5.98
252.82	5.7
253.196	5.63
253.571	5.31
253.947	5.52
254.322	5.69
254.697	5.48
255.073	5.54
255.448	5.4
255.823	5.51
256.198	5.57
256.573	5.67
256.948	5.69
257.323	5.92
257.698	6.14
258.073	6.42
258.448	6.37
258.823	6.4
259.198	6.38
259.573	6.66
259.948	6.69
260.322	6.86
260.697	6.81
261.072	6.68
261.446	6.82
261.821	6.75
262.195	6.83
262.57	6.92
262.944	6.84
263.319	6.76
263.693	6.71
264.067	6.84
264.442	6.9
264.816	6.9
265.19	6.89
265.564	6.8
265.938	6.57
266.313	6.35
266.687	6.4
267.061	6.48
267.435	6.41
267.809	6.47
268.183	6.4
268.556	6.74
268.93	6.77
269.304	6.74
269.678	6.56
270.051	6.47
270.425	6.35
270.799	6.36
271.172	6.28
271.546	6.28
271.919	6.11
272.293	6.11
272.666	5.98
273.04	6
273.413	5.95
273.787	5.88
274.16	5.85
274.533	5.87
274.906	5.94
275.279	5.86
275.653	5.75
276.026	5.64
276.399	5.54
276.772	5.44
277.145	5.33
277.518	5.61
277.891	5.62
278.263	5.64
278.636	5.72
279.009	6.07
279.382	6.25
279.755	6.19
280.127	6.38
280.5	6.55
280.872	6.56
281.245	6.55
281.617	6.69
281.99	6.98
282.362	7
282.735	6.75
283.107	6.81
283.479	6.93
283.852	6.98
284.224	6.86
284.596	6.82
284.968	6.92
285.34	6.87
285.713	6.8
286.085	6.94
286.457	7
286.829	6.99
287.201	6.93
287.572	6.94
287.944	6.84
288.316	6.74
288.688	6.71
289.06	6.88
289.431	6.98
289.803	6.89
290.175	6.87
290.546	7
290.918	7.06
291.289	7.17
291.661	7.22
292.032	7.29
292.403	7.46
292.775	7.6
293.146	7.69
293.517	7.79
293.889	7.89
294.26	7.79
294.631	7.84
295.002	7.81
295.373	7.98
295.744	8.05
296.115	8.21
296.486	8.17
296.857	8.14
297.228	8.2
297.599	8.23
297.97	8.28
298.34	8.35
298.711	8.43
299.082	8.4
299.452	8.46
299.823	8.69
300.194	8.62
300.564	8.55
300.935	8.59
301.305	8.63
301.676	8.61
302.046	8.75
302.416	8.89
302.787	8.92
303.157	8.98
303.527	8.95
303.897	8.98
304.267	9.16
304.637	9.19
305.008	9.15
305.378	9.26
305.748	9.45
306.117	9.57
306.487	9.63
306.857	9.75
307.227	9.83
307.597	9.79
307.967	9.91
308.336	9.94
308.706	9.93
309.076	10
309.445	9.97
309.815	9.99
310.184	9.76
310.554	9.94
310.923	10.05
311.293	10.08
311.662	10.04
312.031	10.04
312.401	10.15
312.77	10.11
313.139	10.07
313.508	10.12
313.877	10.08
314.246	10.02
314.616	9.93
314.985	9.84
315.353	9.84
315.722	9.95
316.091	10.05
316.46	10.11
316.829	10.16
317.198	10.31
317.567	10.35
317.935	10.51
318.304	10.46
318.672	10.35
319.041	10.53
319.41	10.56
319.778	10.64
320.147	10.64
320.515	10.75
320.883	10.85
321.252	10.8
321.62	10.79
321.988	10.91
322.357	10.84
322.725	10.82
323.093	10.91
323.461	10.93
323.829	10.88
324.197	10.93
324.565	11.01
324.933	11.02
325.301	10.98
325.669	11.02
326.037	11.13
326.405	11.15
326.772	11.14
327.14	11.25
327.508	11.24
327.875	11.18
328.243	11.25
328.61	11.24
328.978	11.32
329.346	11.39
329.713	11.35
330.08	11.57
330.448	11.7
330.815	11.62
331.182	11.77
331.55	11.8
331.917	11.85
332.284	11.75
332.651	11.66
333.018	11.72
333.385	11.84
333.752	11.71
334.119	11.89
334.486	11.78
334.853	11.81
335.22	11.73
335.587	11.8
335.954	11.75
336.32	11.83
336.687	11.8
337.054	11.87
337.42	11.89
337.787	11.85
338.153	11.85
338.52	11.82
338.886	11.67
339.253	11.57
339.619	11.44
339.986	11.48
340.352	11.53
340.718	11.54
341.084	11.44
341.451	11.48
341.817	11.43
342.183	11.48
342.549	11.48
342.915	11.58
343.281	11.64
343.647	11.72
344.013	11.68
344.379	11.69
344.745	11.74
345.11	11.71
345.476	11.76
345.842	11.83
346.208	11.84
346.573	11.86
346.939	12.03
347.304	12.05
347.67	12.03
348.035	12.03
348.401	12.05
348.766	12.13
349.132	12.09
349.497	12.06
349.862	12.12
350.228	12.13
350.593	12.12
350.958	12.08
351.323	12.13
351.688	12.04
352.053	12.02
352.418	11.98
352.783	12
353.148	11.95
353.513	11.96
353.878	12.04
354.243	12.08
354.608	12
354.972	12.08
355.337	12.17
355.702	12.17
356.066	12.19
356.431	12.2
356.795	12.27
357.16	12.23
357.524	12.18
357.889	12.13
358.253	12.21
358.618	12.2
358.982	12.1
359.346	12.13
359.71	12.17
360.075	12.18
360.439	12.23
360.803	12.3
361.167	12.24
361.531	12.26
361.895	12.26
362.259	12.29
362.623	12.26
362.987	12.23
363.351	12.25
363.714	12.27
364.078	12.26
364.442	12.28
364.806	12.3
365.169	12.33
365.533	12.37
365.896	12.29
366.26	12.31
366.623	12.34
366.987	12.32
367.35	12.25
367.714	12.31
368.077	12.25
368.44	12.19
368.803	12.22
369.167	12.18
369.53	12.16
369.893	12.19
370.256	12.25
370.619	12.27
370.982	12.24
371.345	12.19
371.708	12.22
372.071	12.14
372.434	12.14
372.797	12.1
373.159	12.03
373.522	12.05
373.885	12.09
374.247	12.12
374.61	12.14
374.973	12.13
375.335	12.07
375.698	12.09
376.06	12.06
376.423	12.1
376.785	12.14
377.147	12.13
377.51	12.14
377.872	12.1
378.234	12.08
378.596	12.14
378.958	12.13
379.321	12.13
379.683	12.21
380.045	12.22
380.407	12.24
380.769	12.27
381.13	12.23
381.492	12.22
381.854	12.2
382.216	12.19
382.578	12.22
382.939	12.19
383.301	12.2
383.663	12.18
384.024	12.18
384.386	12.18
384.747	12.24
385.109	12.24
385.47	12.21
385.832	12.19
386.193	12.16
386.554	12.19
386.916	12.15
387.277	12.11
387.638	12.13
387.999	12.15
388.36	12.17
388.721	12.2
389.082	12.19
389.443	12.17
389.804	12.15
390.165	12.11
390.526	12.12
390.887	12.13
391.248	12.22
391.609	12.17
391.969	12.17
392.33	12.1
392.691	12.06
393.051	12.09
393.412	12.11
393.772	12.07
394.133	12.04
394.493	12.04
394.854	12.04
395.214	11.99
395.574	11.97
395.935	11.93
396.295	11.95
396.655	11.93
397.015	11.98
397.376	12.04
397.736	12.05
398.096	12.06
398.456	12.01
398.816	11.91
399.176	11.91
399.535	11.9
399.895	11.9
400.255	11.88
400.615	11.89
400.975	11.88
401.334	11.88
401.694	11.88
402.054	11.89
402.413	11.88
402.773	11.87
403.132	11.87
403.492	11.89
403.851	11.86
404.211	11.87
404.57	11.82
404.929	11.79
405.288	11.8
405.648	11.77
406.007	11.79
406.366	11.81
406.725	11.84
407.084	11.83
407.443	11.82
407.802	11.84
408.161	11.8
408.52	11.77
408.879	11.77
409.238	11.76
409.596	11.77
409.955	11.77
410.314	11.8
410.673	11.79
411.031	11.78
411.39	11.78
411.748	11.75
412.107	11.75
412.465	11.73
412.824	11.73
413.182	11.76
413.54	11.73
413.899	11.72
414.257	11.71
414.615	11.69
414.974	11.71
415.332	11.69
415.69	11.68
416.048	11.68
416.406	11.69
416.764	11.67
417.122	11.61
417.48	11.6
417.838	11.59
418.195	11.57
418.553	11.56
418.911	11.54
419.269	11.55
419.626	11.53
419.984	11.53
420.342	11.53
420.699	11.51
421.057	11.51
421.414	11.49
421.772	11.47
422.129	11.47
422.486	11.46
422.844	11.46
423.201	11.44
423.558	11.42
423.915	11.41
424.273	11.42
424.63	11.41
424.987	11.41
425.344	11.39
425.701	11.4
426.058	11.39
426.415	11.41
426.772	11.39
427.128	11.39
427.485	11.38
427.842	11.34
428.199	11.32
428.555	11.31
428.912	11.33
429.269	11.33
429.625	11.32
429.982	11.3
430.338	11.31
430.695	11.35
431.051	11.34
431.407	11.33
431.764	11.33
432.12	11.34
432.476	11.33
432.832	11.31
433.189	11.32
433.545	11.29
433.901	11.29
434.257	11.3
434.613	11.3
434.969	11.27
435.325	11.27
435.681	11.27
436.036	11.26
436.392	11.26
436.748	11.26
437.104	11.25
437.459	11.25
437.815	11.24
438.171	11.24
438.526	11.26
438.882	11.28
439.237	11.3
439.593	11.29
439.948	11.28
440.304	11.3
440.659	11.29
441.014	11.28
441.369	11.24
441.725	11.21
442.08	11.2
442.435	11.22
442.79	11.21
443.145	11.21
443.5	11.21
443.855	11.22
444.21	11.2
444.565	11.2
444.92	11.19
445.275	11.16
445.629	11.13
445.984	11.11
446.339	11.07
446.693	11.02
447.048	11.01
447.403	11
447.757	10.98
448.112	10.95
448.466	10.96
448.82	10.97
449.175	10.97
449.529	10.96
449.883	10.91
450.238	10.93
450.592	10.92
450.946	10.88
451.3	10.84
451.654	10.85
452.008	10.84
452.362	10.83
452.716	10.82
453.07	10.81
453.424	10.8
453.778	10.81
454.132	10.82
454.486	10.81
454.839	10.8
455.193	10.78
455.547	10.82
455.9	10.8
456.254	10.81
456.607	10.8
456.961	10.81
457.314	10.84
457.668	10.83
458.021	10.82
458.375	10.86
458.728	10.85
459.081	10.84
459.434	10.84
459.787	10.84
460.141	10.85
460.494	10.85
460.847	10.86
461.2	10.85
461.553	10.87
461.906	10.89
462.259	10.91
462.611	10.92
462.964	10.92
463.317	10.92
463.67	10.94
464.022	10.98
464.375	10.97
464.728	10.98
465.08	11.01
465.433	11.04
465.785	11.06
466.138	11.09
466.49	11.12
466.843	11.12
467.195	11.14
467.547	11.2
467.899	11.2
468.252	11.2
468.604	11.27
468.956	11.28
469.308	11.31
469.66	11.32
470.012	11.35
470.364	11.38
470.716	11.37
471.068	11.37
471.42	11.38
471.772	11.41
472.123	11.41
472.475	11.39
472.827	11.4
473.178	11.35
473.53	11.34
473.882	11.35
474.233	11.35
474.585	11.34
474.936	11.31
475.288	11.3
475.639	11.33
475.99	11.31
476.342	11.3
476.693	11.29
477.044	11.3
477.395	11.29
477.746	11.27
478.097	11.28
478.448	11.28
478.8	11.3
479.15	11.3
479.501	11.34
479.852	11.34
480.203	11.35
480.554	11.38
480.905	11.41
481.255	11.41
481.606	11.42
481.957	11.44
482.307	11.46
482.658	11.47
483.009	11.46
483.359	11.46
483.709	11.48
484.06	11.48
484.41	11.48
484.761	11.49
485.111	11.5
485.461	11.51
485.811	11.51
486.162	11.51
486.512	11.53
486.862	11.52
487.212	11.52
487.562	11.54
487.912	11.55
488.262	11.55
488.612	11.56
488.961	11.57
489.311	11.58
489.661	11.59
490.011	11.59
490.36	11.59
490.71	11.6
491.06	11.61
491.409	11.62
491.759	11.62
492.108	11.63
492.458	11.64
492.807	11.65
493.157	11.67
493.506	11.68
493.855	11.67
494.204	11.68
494.554	11.72
494.903	11.73
495.252	11.74
495.601	11.76
495.95	11.78
496.299	11.79
496.648	11.8
496.997	11.83
497.346	11.88
497.695	11.93
498.043	11.96
498.392	11.98
498.741	12.04
499.09	12.05
499.438	12.08
499.787	12.1
500.135	12.16
500.484	12.2
500.832	12.22
501.181	12.25
501.529	12.27
501.878	12.28
502.226	12.29
502.574	12.32
502.923	12.35
503.271	12.37
503.619	12.44
503.967	12.5
504.315	12.5
504.663	12.51
505.011	12.54
505.359	12.56
505.707	12.59
506.055	12.58
506.403	12.64
506.751	12.66
507.098	12.72
507.446	12.73
507.794	12.73
508.141	12.77
508.489	12.81
508.837	12.84
509.184	12.87
509.531	12.91
509.879	12.93
510.226	12.94
510.574	12.96
510.921	12.95
511.268	12.93
511.616	12.96
511.963	12.95
512.31	12.97
512.657	13
513.004	13.02
513.351	13.06
513.698	13.07
514.045	13.1
514.392	13.12
514.739	13.14
515.086	13.18
515.432	13.17
515.779	13.19
516.126	13.21
516.473	13.24
516.819	13.24
517.166	13.24
517.512	13.27
517.859	13.28
518.205	13.31
518.552	13.33
518.898	13.33
519.245	13.36
519.591	13.35
519.937	13.33
520.283	13.35
520.629	13.36
520.976	13.39
521.322	13.39
521.668	13.39
522.014	13.42
522.36	13.42
522.706	13.46
523.052	13.46
523.398	13.53
523.743	13.54
524.089	13.56
524.435	13.59
524.781	13.61
525.126	13.66
525.472	13.68
525.817	13.72
526.163	13.74
526.509	13.77
526.854	13.81
527.199	13.85
527.545	13.85
527.89	13.84
528.235	13.84
528.581	13.84
528.926	13.85
529.271	13.85
529.616	13.86
529.961	13.88
530.306	13.91
530.651	13.9
530.996	13.9
531.341	13.91
531.686	13.91
532.031	13.92
532.376	13.91
532.721	13.91
533.065	13.91
533.41	13.91
533.755	13.91
534.099	13.9
534.444	13.89
534.788	13.89
535.133	13.92
535.477	13.94
535.822	13.98
536.166	13.97
536.51	13.97
536.855	13.99
537.199	13.99
537.543	14
537.887	14.01
538.231	14.06
538.576	14.08
538.92	14.12
539.264	14.11
539.608	14.13
539.951	14.14
540.295	14.14
540.639	14.16
540.983	14.15
541.327	14.16
541.671	14.16
542.014	14.16
542.358	14.15
542.701	14.15
543.045	14.15
543.389	14.18
543.732	14.19
544.075	14.17
544.419	14.17
544.762	14.17
545.105	14.19
545.449	14.18
545.792	14.17
546.135	14.15
546.478	14.17
546.821	14.17
547.165	14.16
547.508	14.19
547.851	14.2
548.194	14.21
548.536	14.22
548.879	14.25
549.222	14.25
549.565	14.26
549.908	14.25
550.25	14.25
550.593	14.26
550.936	14.25
551.278	14.29
551.621	14.32
551.963	14.31
552.306	14.28
552.648	14.27
552.991	14.3
553.333	14.33
553.675	14.34
554.017	14.34
554.36	14.33
554.702	14.31
555.044	14.33
555.386	14.33
555.728	14.32
556.07	14.32
556.412	14.33
556.754	14.35
557.096	14.37
557.438	14.38
557.78	14.41
558.121	14.43
558.463	14.46
558.805	14.44
559.147	14.45
559.488	14.48
559.83	14.49
560.171	14.46
560.513	14.48
560.854	14.49
561.196	14.52
561.537	14.56
561.878	14.6
562.22	14.58
562.561	14.61
562.902	14.64
563.243	14.65
563.584	14.65
563.925	14.66
564.266	14.66
564.607	14.68
564.948	14.64
565.289	14.63
565.63	14.61
565.971	14.63
566.312	14.68
566.653	14.67
566.993	14.68
567.334	14.7
567.675	14.73
568.015	14.74
568.356	14.76
568.696	14.8
569.037	14.79
569.377	14.79
569.718	14.81
570.058	14.81
570.398	14.82
570.739	14.83
571.079	14.84
571.419	14.86
571.759	14.86
572.099	14.91
572.439	14.92
572.779	14.93
573.119	14.92
573.459	14.91
573.799	14.92
574.139	14.92
574.479	14.92
574.819	14.87
575.158	14.86
575.498	14.85
575.838	14.78
576.177	14.76
576.517	14.78
576.856	14.77
577.196	14.77
577.535	14.75
577.875	14.78
578.214	14.78
578.553	14.82
578.893	14.81
579.232	14.8
579.571	14.8
579.91	14.78
580.25	14.79
580.589	14.79
580.928	14.81
581.267	14.83
581.606	14.82
581.945	14.86
582.283	14.84
582.622	14.83
582.961	14.85
583.3	14.87
583.639	14.89
583.977	14.89
584.316	14.9
584.654	14.91
584.993	14.91
585.332	14.94
585.67	14.9
586.008	14.88
586.347	14.89
586.685	14.92
587.024	14.94
587.362	14.96
587.7	14.95
588.038	14.97
588.376	14.97
588.715	14.97
589.053	14.95
589.391	14.97
589.729	15.01
590.067	15.01
590.404	15.02
590.742	15.03
591.08	15.04
591.418	15.07
591.756	15.12
592.093	15.11
592.431	15.11
592.769	15.1
593.106	15.18
593.444	15.16
593.781	15.18
594.119	15.2
594.456	15.22
594.793	15.22
595.131	15.2
595.468	15.17
595.805	15.21
596.143	15.25
596.48	15.24
596.817	15.19
597.154	15.21
597.491	15.25
597.828	15.24
598.165	15.22
598.502	15.2
598.839	15.16
599.176	15.2
599.512	15.17
599.849	15.17
600.186	15.17
600.523	15.19
600.859	15.22
601.196	15.26
601.532	15.25
601.869	15.29
602.205	15.3
602.542	15.39
602.878	15.42
603.215	15.42
603.551	15.41
603.887	15.46
604.223	15.49
604.56	15.48
604.896	15.51
605.232	15.52
605.568	15.55
605.904	15.54
606.24	15.59
606.576	15.66
606.912	15.68
607.248	15.69
607.583	15.71
607.919	15.71
608.255	15.7
608.591	15.72
608.926	15.7
609.262	15.71
609.597	15.65
609.933	15.6
610.268	15.62
610.604	15.65
610.939	15.65
611.275	15.62
611.61	15.62
611.945	15.58
612.281	15.61
612.616	15.57
612.951	15.61
613.286	15.51
613.621	15.48
613.956	15.45
614.291	15.45
614.626	15.46
614.961	15.45
615.296	15.43
615.631	15.42
615.966	15.43
616.3	15.41
616.635	15.46
616.97	15.52
617.304	15.5
617.639	15.5
617.973	15.48
618.308	15.51
618.642	15.52
618.977	15.56
619.311	15.57
619.646	15.62
619.98	15.6
620.314	15.69
620.648	15.74
620.983	15.82
621.317	15.82
621.651	15.82
621.985	15.82
622.319	15.81
622.653	15.8
622.987	15.82
623.321	15.85
623.655	15.8
623.988	15.82
624.322	15.83
624.656	15.88
624.99	15.91
625.323	15.96
625.657	16.01
625.99	16.02
626.324	16
626.657	16.04
626.991	16.04
627.324	16.05
627.658	16.03
627.991	15.98
628.324	15.96
628.657	15.96
628.991	15.98
629.324	16.04
629.657	16.03
629.99	16.06
630.323	16.03
630.656	16.04
630.989	16.04
631.322	16.03
631.655	15.99
631.987	16
632.32	15.94
632.653	15.89
632.986	15.91
633.318	15.96
633.651	15.94
633.984	15.91
634.316	15.87
634.649	15.87
634.981	15.9
635.313	15.91
635.646	15.94
635.978	15.89
636.31	15.87
636.643	15.94
636.975	15.91
637.307	15.96
637.639	15.95
637.971	15.95
638.303	15.95
638.635	15.97
638.967	16.02
639.299	16.1
639.631	16.08
639.963	16.07
640.295	16.04
640.626	16.12
640.958	16.19
641.29	16.21
641.621	16.19
641.953	16.22
642.285	16.23
642.616	16.28
642.948	16.3
643.279	16.32
643.61	16.29
643.942	16.28
644.273	16.29
644.604	16.41
644.936	16.41
645.267	16.45
645.598	16.48
645.929	16.45
646.26	16.38
646.591	16.45
646.922	16.38
647.253	16.32
647.584	16.28
647.915	16.29
648.245	16.32
648.576	16.36
648.907	16.33
649.238	16.28
649.568	16.29
649.899	16.28
650.229	16.24
650.56	16.26
650.89	16.32
651.221	16.34
651.551	16.22
651.882	16.25
652.212	16.18
652.542	16.22
652.872	16.22
653.203	16.23
653.533	16.29
653.863	16.34
654.193	16.41
654.523	16.35
654.853	16.37
655.183	16.4
655.513	16.44
655.843	16.45
656.172	16.56
656.502	16.46
656.832	16.46
657.162	16.5
657.491	16.46
657.821	16.44
658.15	16.47
658.48	16.51
658.809	16.5
659.139	16.53
659.468	16.45
659.798	16.45
660.127	16.46
660.456	16.41
660.785	16.39
661.115	16.37
661.444	16.46
661.773	16.51
662.102	16.45
662.431	16.48
662.76	16.44
663.089	16.33
663.418	16.35
663.747	16.32
664.076	16.39
664.404	16.41
664.733	16.46
665.062	16.45
665.39	16.42
665.719	16.34
666.048	16.48
666.376	16.54
666.705	16.56
667.033	16.52
667.362	16.61
667.69	16.65
668.018	16.61
668.347	16.54
668.675	16.46
669.003	16.49
669.331	16.38
669.659	16.41
669.987	16.4
670.315	16.44
670.643	16.51
670.971	16.52
671.299	16.52
671.627	16.52
671.955	16.49
672.283	16.51
672.61	16.55
672.938	16.52
673.266	16.55
673.593	16.58
673.921	16.64
674.249	16.55
674.576	16.57
674.904	16.63
675.231	16.67
675.558	16.71
675.886	16.71
676.213	16.8
676.54	16.81
676.867	16.91
677.195	16.98
677.522	16.99
677.849	16.89
678.176	16.97
678.503	16.95
678.83	16.99
679.157	17.03
679.484	17.06
679.81	17.08
680.137	17.04
680.464	17.04
680.791	17.04
681.117	17.09
681.444	17.12
681.771	17.18
682.097	17.2
682.424	17.26
682.75	17.34
683.077	17.39
683.403	17.48
683.729	17.5
684.056	17.52
684.382	17.54
684.708	17.65
685.034	17.58
685.36	17.58
685.686	17.62
686.012	17.61
686.339	17.7
686.664	17.62
686.99	17.65
687.316	17.66
687.642	17.74
687.968	17.69
688.294	17.64
688.619	17.63
688.945	17.57
689.271	17.52
689.596	17.36
689.922	17.34
690.247	17.35
690.573	17.39
690.898	17.32
691.224	17.37
691.549	17.35
691.874	17.33
692.2	17.42
692.525	17.29
692.85	17.41
693.175	17.34
693.5	17.35
693.825	17.35
694.15	17.26
694.475	17.26
694.8	17.36
695.125	17.45
695.45	17.48
695.775	17.6
696.099	17.59
696.424	17.69
696.749	17.67
697.073	17.66
697.398	17.72
697.723	17.81
698.047	17.83
698.372	17.77
698.696	17.82
699.02	17.8
699.345	17.85
699.669	17.85
699.993	17.81
700.318	17.88
700.642	17.87
700.966	17.99
701.29	17.96
701.614	17.91
701.938	17.82
702.262	17.91
702.586	17.77
702.91	17.77
703.234	17.81
703.557	17.87
703.881	17.82
704.205	17.67
704.529	17.6
704.852	17.6
705.176	17.55
705.499	17.56
705.823	17.7
706.146	17.69
706.47	17.6
706.793	17.8
707.117	17.94
707.44	17.95
707.763	17.86
708.086	17.85
708.409	17.87
708.733	17.95
709.056	17.94
709.379	18.12
709.702	18.22
710.025	18.26
710.348	18.15
710.671	18.19
710.993	18.33
711.316	18.31
711.639	18.37
711.962	18.49
712.284	18.48
712.607	18.26
712.93	18.34
713.252	18.4
713.575	18.37
713.897	18.14
714.22	18.17
714.542	18.21
714.864	18.11
715.187	18.15
715.509	18.13
715.831	18.07
716.153	17.97
716.475	17.88
716.798	17.82
717.12	17.86
717.442	17.89
717.764	17.75
718.085	17.74
718.407	17.69
718.729	17.72
719.051	17.71
719.373	17.87
719.695	17.93
720.016	17.96
720.338	17.89
720.659	17.85
720.981	17.97
721.302	17.93
721.624	17.91
721.945	17.97
722.267	18.08
722.588	18.08
722.909	18.09
723.231	18.13
723.552	18.3
723.873	18.34
724.194	18.35
724.515	18.45
724.836	18.5
725.157	18.56
725.478	18.54
725.799	18.55
726.12	18.46
726.441	18.36
726.762	18.41
727.083	18.53
727.403	18.82
727.724	18.73
728.045	18.84
728.365	18.98
728.686	19.07
729.006	18.98
729.327	18.9
729.647	19.13
729.967	19.03
730.288	18.91
730.608	18.86
730.928	18.81
731.249	18.83
731.569	18.76
731.889	18.76
732.209	18.79
732.529	18.97
732.849	18.98
733.169	18.98
733.489	18.94
733.809	18.94
734.129	18.82
734.448	18.86
734.768	18.86
735.088	19
735.408	18.97
735.727	19.01
736.047	19.3
736.366	19.12
736.686	19.25
737.005	19.44
737.325	19.51
737.644	19.5
737.963	19.37
738.283	19.45
738.602	19.59
738.921	19.64
739.24	19.49
739.56	19.46
739.879	19.52
740.198	19.35
740.517	19.26
740.836	19.25
741.155	19.19
741.473	19.16
741.792	19.11
742.111	19.01
742.43	19.08
742.748	18.78
743.067	18.62
743.386	18.68
743.704	18.35
744.023	18.28
744.341	18.55
744.66	18.7
744.978	18.67
745.297	18.49
745.615	18.44
745.933	18.4
746.252	18.63
746.57	18.73
746.888	18.94
747.206	19.03
747.524	18.99
747.842	19.17
748.16	19.33
748.478	19.33
748.796	19.22
749.114	19.27
749.432	19.08
749.749	19.58
750.067	19.57
750.385	19.46
750.703	19.39
751.02	19.23
751.338	19.34
751.655	19.41
751.973	19.41
752.29	19.35
752.608	19.31
752.925	19.27
753.242	19.17
753.56	19.14
753.877	19.2
754.194	19.44
754.511	19.6
754.828	19.65
755.145	19.69
755.462	20.05
755.779	20
756.096	20.15
756.413	19.86
756.73	19.87
757.047	20.17
757.364	20.12
757.68	20.01
757.997	19.75
758.314	19.63
758.63	19.65
758.947	19.7
759.264	19.59
759.58	19.57
759.896	19.56
760.213	19.45
760.529	19.13
760.846	19.21
761.162	19.09
761.478	18.99
761.794	18.9
762.11	18.78
762.426	18.76
762.743	18.95
763.059	19
763.375	18.99
763.69	18.79
764.006	19.14
764.322	19.27
764.638	19.33
764.954	19.56
765.27	19.36
765.585	19.34
765.901	19.56
766.216	19.43
766.532	19.25
766.848	19.47
767.163	19.87
767.478	19.65
767.794	19.73
768.109	19.79
768.424	19.8
768.74	19.82
769.055	19.75
769.37	19.71
769.685	19.55
770	19.77
770.315	19.95
770.63	19.64
770.945	19.4
771.26	19.57
771.575	19.39
771.89	19.78
772.205	19.92
772.52	19.94
772.834	19.98
773.149	20.41
773.464	20.01
773.778	19.92
774.093	20.02
774.407	19.84
774.722	19.84
775.036	19.72
775.351	20.03
775.665	20.01
775.979	20.13
776.293	20.48
776.608	20.16
776.922	20.51
777.236	20.82
777.55	20.84
777.864	21.15
778.178	21.63
778.492	21.79
778.806	21.5
779.12	21.64
779.434	21.75
779.747	21.88
780.061	22.03
780.375	21.71
780.689	21.53
781.002	21.79
781.316	21.87
781.629	22.12
781.943	21.8
782.256	22.18
782.57	22.07
782.883	22.1
783.196	22.28
783.51	22.34
783.823	22.12
784.136	22.6
784.449	21.94
784.762	21.71
785.075	21.49
785.388	21.61
785.701	21.8
786.014	21.96
786.327	21.61
786.64	21.97
786.953	22.43
787.266	22.81
787.578	22.51
787.891	22.77
788.204	22.85
788.516	23.33
788.829	23.08
789.141	22.78
789.454	23.08
789.766	23.48
790.079	23.29
790.391	23.33
790.703	23.21
791.016	23.88
791.328	24.14
791.64	24.49
791.952	24.41
792.264	23.85
792.576	24
792.888	24.2
793.2	23.78
793.512	23.61
793.824	23.46
794.136	23.46
794.448	23.34
794.76	23.68
795.071	23.35
795.383	23.46
795.695	23.81
796.006	23.71
796.318	23.55
796.629	23.49
796.941	23.46
797.252	23.11
797.564	22.77
797.875	22.23
798.186	22.03
798.497	22.57
798.809	22.95
799.12	22.92
799.431	23.14
799.742	23.43
800.053	23.48
800.364	23.09
800.675	23.07
800.986	23.15
801.297	22.77
801.608	22.3
801.918	22.36
802.229	22.55
802.54	22.42
802.851	21.99
803.161	22.16
803.472	22.27
803.782	22.98
804.093	22.98
804.403	23.18
804.714	23.05
805.024	22.91
805.334	22.72
805.645	23.19
805.955	23.11
806.265	23.57
806.575	23.34
806.885	24.15
807.195	24.63
807.505	24.32
807.815	24.6
808.125	24.81
808.435	25.07
808.745	24.39
809.055	23.85
809.365	24.06
809.674	23.78
809.984	23.8
810.294	23.32
810.603	23.71
810.913	23.48
811.222	23.84
811.532	23.69
811.841	23.88
812.151	23.63
812.46	23.13
812.769	22.36
813.079	22.28
813.388	21.84
813.697	21.9
814.006	22.25
814.315	22.19
814.624	22.1
814.933	22.2
815.242	22.91
815.551	23.82
815.86	24.04
816.169	24.48
816.478	24.7
816.786	24.97
817.095	24.7
817.404	25.16
817.712	24.73
818.021	24.59
818.33	24.85
818.638	24.44
818.947	24.93
819.255	25.23
819.563	25.39
819.872	25.34
820.18	25.24
820.488	25.14
820.796	25.19
821.105	25.29
821.413	25.14
821.721	25.07
822.029	25.04
822.337	24.98
822.645	24.92
822.953	24.89
823.26	24.86
823.568	24.71
823.876	24.68
824.184	24.59
824.491	24.64
824.799	24.64
825.107	24.77
825.414	24.85
825.722	24.92
826.029	24.86
826.337	24.76
826.644	24.77
826.951	24.64
827.259	24.55
827.566	24.54
827.873	24.64
828.18	24.57
828.488	24.3
828.795	24.47
829.102	24.29
829.409	24.29
829.716	24.2
830.023	24.48
830.329	24.23
830.636	24.43
830.943	24.23
831.25	23.92
831.557	23.89
831.863	23.31
832.17	22.99
832.476	23.23
832.783	23.71
833.089	23.67
833.396	23.94
833.702	24.06
834.009	23.93
834.315	23.61
834.621	23.81
834.928	24.28
835.234	24.34
835.54	24.52
835.846	24.46
836.152	24.4
836.458	24.26
836.764	24.46
837.07	24.6
837.376	24.67
837.682	24.78
837.988	24.34
838.293	24.34
838.599	24.59
838.905	24.5
839.211	24.17
839.516	24.07
839.822	24.4
840.127	24.29
840.433	24.74
840.738	25.88
841.044	25.75
841.349	25.4
841.654	24.78
841.959	24.57
842.265	24.39
842.57	25.32
842.875	25.47
843.18	25.9
843.485	25.3
843.79	25.26
844.095	24.02
844.4	24.18
844.705	23.53
845.01	22.89
845.315	22.07
845.619	22.68
845.924	21.18
846.229	19.52
846.533	19.57
846.838	19.14
847.142	18.46
847.447	17.44
847.751	17.13
848.056	16.02
848.36	18.11
848.664	19.19
848.969	19.29
849.273	18.21
849.577	16.32
849.881	16.22
850.185	18.56
850.489	21.87
850.794	22.34
851.097	25.37
851.401	26.75
851.705	26.82
852.009	26.09
852.313	27.68
852.617	28.18
852.92	27.7
853.224	27.64
853.528	26.89
853.831	28.14
854.135	25.89
854.438	25.07
854.742	23.26
855.045	21.06
855.349	21.05
855.652	21.63
855.955	24.65
856.259	24.36
856.562	23.25
856.865	21.07
857.168	19.7
857.471	16.57
857.774	16.95
858.077	16.28
858.38	16.98
858.683	18.54
858.986	19.51
859.289	18.47
859.592	17.68
859.894	16.03
860.197	15.27
860.5	17.51
860.802	19.39
861.105	17.96
861.407	19.45
861.71	17.28
862.012	17.81
862.315	15.56
862.617	15.57
862.919	15.43
863.222	15.41
863.524	14.92
863.826	16.81
864.128	16.07
864.43	16.36
864.732	15.14
865.034	13.14
865.336	11.12
865.638	10.91
865.94	10.24
866.242	10.96
866.544	11.1
866.846	9.87
867.147	9.92
867.449	10.24
867.751	10.18
868.052	9.79
868.354	8.3
868.655	9.62
868.957	11.19
869.258	10.76
869.56	11.6
869.861	13.04
870.162	13.28
870.463	13.31
870.765	14.14
871.066	14.92
871.367	15.08
871.668	18.03
871.969	18.17
872.27	18.98
872.571	19.21
872.872	21.31
873.173	20.5
873.473	19.45
873.774	21.18
874.075	21.74
874.376	20.93
874.676	23.26
874.977	22.01
875.277	24.36
875.578	24.1
875.878	24.35
876.179	24.55
876.479	24.48
876.78	23.47
877.08	24.36
877.38	24.02
877.68	24.89
877.981	23.58
878.281	25.53
878.581	27.19
