Data from BA57750_Reflection_00007.txt Node
Date: Mon Nov 18 15:46:39 EST 2019
User: vgr7
Spectrometer: USB2G7710
Scans to average: 3
Trigger mode: 4
Integration Time (sec): 2.000000E-2
Electric dark correction enabled: true
Boxcar width: 10
XAxis mode: Wavelengths
Number of Pixels in Spectrum: 2048
>>>>>Begin Spectral Data<<<<<
177.721	55.72
178.105	-76.66
178.488	-3408.2
178.871	51.92
179.254	32.48
179.636	-23.16
180.019	-9.43
180.402	-25
180.785	-81.82
181.168	16.17
181.55	26.03
181.933	98.03
182.316	104.46
182.698	66
183.081	56.2
183.463	66.1
183.846	192.95
184.228	160.31
184.611	203.5
184.993	137.25
185.376	230.51
185.758	166.57
186.14	404.11
186.522	253.85
186.904	154.53
187.287	100.99
187.669	176.12
188.051	101.3
188.433	161.74
188.815	432.7
189.197	15484.62
189.579	1786.96
189.961	8415.79
190.342	3634.88
190.724	-320.9
191.106	-309.34
191.488	-427.51
191.869	-456.75
192.251	-251.49
192.633	-101.71
193.014	-73.97
193.396	-125.71
193.777	-134.52
194.159	-125.1
194.54	-182.03
194.922	-73.78
195.303	-35.71
195.684	-7.03
196.065	-6.36
196.447	-8.92
196.828	22.17
197.209	26.16
197.59	28.06
197.971	8.04
198.352	9.52
198.733	19.01
199.114	31.2
199.495	20.4
199.876	3.96
200.257	-5.18
200.638	-11.61
201.018	-12.08
201.399	-15.65
201.78	-10.99
202.16	-16.81
202.541	-29.36
202.922	-61.35
203.302	-95.47
203.683	-104.83
204.063	-110.13
204.444	-77.68
204.824	-87.86
205.204	-94.81
205.585	-113.07
205.965	-63.1
206.345	-68.63
206.725	-87.07
207.106	-105.76
207.486	-156.21
207.866	-136.52
208.246	-108.32
208.626	-82.52
209.006	-79.97
209.386	-98.28
209.766	-109.01
210.145	-125.13
210.525	-76.5
210.905	-52.8
211.285	-69.98
211.664	-88.69
212.044	-135.83
212.424	-134.01
212.803	-105.92
213.183	-97.28
213.562	-83.87
213.942	-67.78
214.321	-53.56
214.701	-34.72
215.08	-36.67
215.459	-34.32
215.838	-29.45
216.218	-37.81
216.597	-30.44
216.976	-28.53
217.355	-19.58
217.734	-17.77
218.113	-9.92
218.492	-15.11
218.871	-10.07
219.25	-6.67
219.629	-7.43
220.008	-7.14
220.387	0.42
220.766	3.6
221.144	-16.99
221.523	-31.93
221.902	-57.02
222.28	-82.11
222.659	-86.8
223.037	-81.22
223.416	-72.5
223.794	-79.97
224.173	-55.4
224.551	-41.12
224.929	-31.87
225.308	-20.78
225.686	-14.25
226.064	-13.1
226.442	-12.52
226.821	-12.1
227.199	-16.64
227.577	-13.59
227.955	-12.55
228.333	-15.57
228.711	-14.57
229.089	-8.26
229.467	-7
229.845	-5.81
230.222	-3.51
230.6	-5.64
230.978	-3.48
231.356	-2.05
231.733	-3.25
232.111	-3.61
232.488	-4.11
232.866	-4.68
233.243	-4.24
233.621	-5.67
233.998	-4.13
234.376	-4.22
234.753	-4.17
235.13	-2.02
235.508	-0.28
235.885	-0.65
236.262	-0.85
236.639	-0.98
237.016	-0.08
237.393	0.52
237.77	1.04
238.147	1.24
238.524	1.82
238.901	1.96
239.278	1.93
239.655	3.2
240.032	3.28
240.409	3.36
240.785	3.58
241.162	3.98
241.539	4.4
241.915	4.24
242.292	4.13
242.668	4.26
243.045	4.46
243.421	4.24
243.798	4.28
244.174	4.53
244.551	4.67
244.927	4.21
245.303	4.36
245.679	4.7
246.056	4.5
246.432	4.6
246.808	4.73
247.184	4.52
247.56	4.27
247.936	4.2
248.312	3.95
248.688	3.8
249.064	3.68
249.44	3.46
249.815	3.73
250.191	3.98
250.567	3.96
250.943	3.75
251.318	3.84
251.694	3.86
252.069	3.6
252.445	3.44
252.82	3.4
253.196	3.42
253.571	3.36
253.947	3.86
254.322	3.81
254.697	3.44
255.073	3.33
255.448	3.22
255.823	3.16
256.198	3.39
256.573	3.38
256.948	3.31
257.323	3.57
257.698	3.16
258.073	3.11
258.448	3.2
258.823	3.39
259.198	3.31
259.573	3.27
259.948	3.44
260.322	3.42
260.697	3.43
261.072	3.29
261.446	3.18
261.821	3.07
262.195	3.26
262.57	3.29
262.944	3.4
263.319	3.41
263.693	3.39
264.067	3.52
264.442	3.68
264.816	3.68
265.19	3.55
265.564	3.75
265.938	3.67
266.313	3.52
266.687	3.39
267.061	3.5
267.435	3.54
267.809	3.5
268.183	3.66
268.556	3.92
268.93	3.97
269.304	3.88
269.678	3.86
270.051	3.61
270.425	3.61
270.799	3.73
271.172	3.83
271.546	3.88
271.919	3.77
272.293	3.66
272.666	3.74
273.04	3.99
273.413	3.92
273.787	3.92
274.16	3.87
274.533	3.81
274.906	3.63
275.279	3.63
275.653	3.67
276.026	3.7
276.399	3.63
276.772	3.64
277.145	3.66
277.518	3.8
277.891	3.93
278.263	3.82
278.636	3.67
279.009	3.55
279.382	3.72
279.755	3.79
280.127	3.95
280.5	3.95
280.872	3.74
281.245	3.79
281.617	3.73
281.99	3.88
282.362	4
282.735	4.02
283.107	3.97
283.479	3.97
283.852	3.89
284.224	3.77
284.596	3.73
284.968	3.86
285.34	3.75
285.713	3.6
286.085	3.8
286.457	3.98
286.829	4
287.201	3.9
287.572	3.76
287.944	3.65
288.316	3.66
288.688	3.73
289.06	3.59
289.431	3.65
289.803	3.7
290.175	3.72
290.546	3.84
290.918	3.84
291.289	3.85
291.661	3.86
292.032	3.95
292.403	4.07
292.775	4.01
293.146	4.05
293.517	4.12
293.889	4.11
294.26	4.08
294.631	4.1
295.002	4.1
295.373	4.23
295.744	4.3
296.115	4.29
296.486	4.33
296.857	4.42
297.228	4.45
297.599	4.25
297.97	4.31
298.34	4.36
298.711	4.53
299.082	4.61
299.452	4.7
299.823	4.79
300.194	4.88
300.564	4.88
300.935	4.92
301.305	5.09
301.676	5.22
302.046	5.24
302.416	5.5
302.787	5.55
303.157	5.65
303.527	5.75
303.897	5.81
304.267	5.88
304.637	5.95
305.008	6.12
305.378	6.36
305.748	6.34
306.117	6.22
306.487	6.28
306.857	6.27
307.227	6.35
307.597	6.39
307.967	6.47
308.336	6.55
308.706	6.58
309.076	6.65
309.445	6.63
309.815	6.76
310.184	6.69
310.554	6.93
310.923	6.85
311.293	6.89
311.662	6.94
312.031	6.91
312.401	6.96
312.77	7.1
313.139	7.24
313.508	7.28
313.877	7.4
314.246	7.46
314.616	7.42
314.985	7.48
315.353	7.46
315.722	7.56
316.091	7.68
316.46	7.75
316.829	7.81
317.198	7.88
317.567	7.83
317.935	7.84
318.304	7.77
318.672	7.92
319.041	7.95
319.41	7.96
319.778	8.02
320.147	8.17
320.515	8.12
320.883	8.17
321.252	8.3
321.62	8.47
321.988	8.39
322.357	8.52
322.725	8.62
323.093	8.74
323.461	8.77
323.829	8.87
324.197	9.08
324.565	8.99
324.933	9.1
325.301	9.28
325.669	9.23
326.037	9.2
326.405	9.23
326.772	9.3
327.14	9.38
327.508	9.58
327.875	9.52
328.243	9.59
328.61	9.62
328.978	9.67
329.346	9.72
329.713	9.91
330.08	10.1
330.448	10.11
330.815	10.14
331.182	10.15
331.55	10.12
331.917	10.1
332.284	10.39
332.651	10.32
333.018	10.36
333.385	10.56
333.752	10.84
334.119	10.96
334.486	10.94
334.853	11
335.22	10.98
335.587	11.03
335.954	11.15
336.32	11.24
336.687	11.28
337.054	11.36
337.42	11.34
337.787	11.3
338.153	11.44
338.52	11.71
338.886	11.79
339.253	11.79
339.619	11.88
339.986	11.83
340.352	11.98
340.718	12.03
341.084	12.12
341.451	12.04
341.817	12.13
342.183	12.15
342.549	12.09
342.915	12.16
343.281	12.32
343.647	12.25
344.013	12.27
344.379	12.32
344.745	12.34
345.11	12.42
345.476	12.38
345.842	12.34
346.208	12.25
346.573	12.25
346.939	12.41
347.304	12.31
347.67	12.31
348.035	12.34
348.401	12.26
348.766	12.25
349.132	12.27
349.497	12.2
349.862	12.31
350.228	12.28
350.593	12.27
350.958	12.23
351.323	12.25
351.688	12.33
352.053	12.46
352.418	12.48
352.783	12.47
353.148	12.46
353.513	12.47
353.878	12.46
354.243	12.43
354.608	12.39
354.972	12.43
355.337	12.46
355.702	12.52
356.066	12.61
356.431	12.58
356.795	12.6
357.16	12.63
357.524	12.57
357.889	12.61
358.253	12.59
358.618	12.59
358.982	12.59
359.346	12.57
359.71	12.41
360.075	12.36
360.439	12.38
360.803	12.43
361.167	12.4
361.531	12.37
361.895	12.38
362.259	12.39
362.623	12.4
362.987	12.34
363.351	12.29
363.714	12.29
364.078	12.35
364.442	12.3
364.806	12.2
365.169	12.2
365.533	12.22
365.896	12.2
366.26	12.13
366.623	12.05
366.987	11.97
367.35	12.04
367.714	12.1
368.077	12.1
368.44	12.04
368.803	12.02
369.167	11.98
369.53	11.92
369.893	11.94
370.256	11.92
370.619	11.91
370.982	11.84
371.345	11.74
371.708	11.65
372.071	11.64
372.434	11.66
372.797	11.61
373.159	11.54
373.522	11.56
373.885	11.65
374.247	11.67
374.61	11.62
374.973	11.46
375.335	11.37
375.698	11.26
376.06	11.22
376.423	11.16
376.785	11.14
377.147	11.11
377.51	10.99
377.872	10.95
378.234	10.92
378.596	10.93
378.958	10.88
379.321	10.84
379.683	10.78
380.045	10.7
380.407	10.71
380.769	10.65
381.13	10.53
381.492	10.42
381.854	10.34
382.216	10.34
382.578	10.34
382.939	10.29
383.301	10.22
383.663	10.16
384.024	10.1
384.386	10.07
384.747	10.07
385.109	10.04
385.47	9.99
385.832	9.91
386.193	9.83
386.554	9.75
386.916	9.71
387.277	9.68
387.638	9.66
387.999	9.58
388.36	9.52
388.721	9.49
389.082	9.4
389.443	9.34
389.804	9.25
390.165	9.2
390.526	9.13
390.887	9.07
391.248	9.05
391.609	9.03
391.969	8.94
392.33	8.83
392.691	8.77
393.051	8.68
393.412	8.65
393.772	8.61
394.133	8.57
394.493	8.52
394.854	8.43
395.214	8.37
395.574	8.29
395.935	8.22
396.295	8.19
396.655	8.15
397.015	8.1
397.376	8.05
397.736	7.99
398.096	7.95
398.456	7.89
398.816	7.83
399.176	7.78
399.535	7.73
399.895	7.71
400.255	7.67
400.615	7.6
400.975	7.56
401.334	7.46
401.694	7.4
402.054	7.31
402.413	7.26
402.773	7.18
403.132	7.15
403.492	7.12
403.851	7.08
404.211	7.04
404.57	6.97
404.929	6.93
405.288	6.89
405.648	6.85
406.007	6.84
406.366	6.76
406.725	6.72
407.084	6.68
407.443	6.65
407.802	6.61
408.161	6.57
408.52	6.49
408.879	6.46
409.238	6.49
409.596	6.47
409.955	6.44
410.314	6.47
410.673	6.48
411.031	6.47
411.39	6.41
411.748	6.37
412.107	6.36
412.465	6.33
412.824	6.32
413.182	6.29
413.54	6.25
413.899	6.26
414.257	6.22
414.615	6.17
414.974	6.15
415.332	6.1
415.69	6.08
416.048	6.05
416.406	6.03
416.764	5.97
417.122	5.94
417.48	5.9
417.838	5.85
418.195	5.79
418.553	5.74
418.911	5.72
419.269	5.68
419.626	5.65
419.984	5.62
420.342	5.59
420.699	5.54
421.057	5.51
421.414	5.47
421.772	5.43
422.129	5.41
422.486	5.36
422.844	5.35
423.201	5.31
423.558	5.29
423.915	5.27
424.273	5.24
424.63	5.21
424.987	5.19
425.344	5.16
425.701	5.14
426.058	5.13
426.415	5.09
426.772	5.08
427.128	5.05
427.485	5.03
427.842	5
428.199	4.99
428.555	4.98
428.912	4.97
429.269	4.95
429.625	4.91
429.982	4.9
430.338	4.88
430.695	4.88
431.051	4.85
431.407	4.84
431.764	4.81
432.12	4.8
432.476	4.78
432.832	4.75
433.189	4.74
433.545	4.73
433.901	4.74
434.257	4.72
434.613	4.73
434.969	4.71
435.325	4.69
435.681	4.68
436.036	4.65
436.392	4.65
436.748	4.64
437.104	4.63
437.459	4.63
437.815	4.62
438.171	4.62
438.526	4.62
438.882	4.62
439.237	4.63
439.593	4.63
439.948	4.63
440.304	4.63
440.659	4.63
441.014	4.64
441.369	4.62
441.725	4.61
442.08	4.59
442.435	4.6
442.79	4.6
443.145	4.59
443.5	4.59
443.855	4.57
444.21	4.58
444.565	4.58
444.92	4.56
445.275	4.54
445.629	4.54
445.984	4.53
446.339	4.51
446.693	4.49
447.048	4.49
447.403	4.46
447.757	4.46
448.112	4.43
448.466	4.41
448.82	4.39
449.175	4.39
449.529	4.39
449.883	4.37
450.238	4.36
450.592	4.34
450.946	4.31
451.3	4.31
451.654	4.28
452.008	4.25
452.362	4.23
452.716	4.23
453.07	4.23
453.424	4.21
453.778	4.18
454.132	4.17
454.486	4.15
454.839	4.17
455.193	4.14
455.547	4.14
455.9	4.13
456.254	4.13
456.607	4.11
456.961	4.09
457.314	4.1
457.668	4.11
458.021	4.12
458.375	4.13
458.728	4.12
459.081	4.11
459.434	4.12
459.787	4.13
460.141	4.13
460.494	4.13
460.847	4.13
461.2	4.15
461.553	4.17
461.906	4.19
462.259	4.2
462.611	4.23
462.964	4.23
463.317	4.24
463.67	4.25
464.022	4.27
464.375	4.27
464.728	4.27
465.08	4.29
465.433	4.31
465.785	4.31
466.138	4.33
466.49	4.37
466.843	4.39
467.195	4.43
467.547	4.47
467.899	4.49
468.252	4.5
468.604	4.5
468.956	4.48
469.308	4.5
469.66	4.5
470.012	4.52
470.364	4.54
470.716	4.58
471.068	4.6
471.42	4.6
471.772	4.64
472.123	4.64
472.475	4.66
472.827	4.68
473.178	4.68
473.53	4.68
473.882	4.67
474.233	4.69
474.585	4.63
474.936	4.61
475.288	4.6
475.639	4.62
475.99	4.62
476.342	4.65
476.693	4.63
477.044	4.65
477.395	4.63
477.746	4.63
478.097	4.62
478.448	4.61
478.8	4.61
479.15	4.6
479.501	4.61
479.852	4.6
480.203	4.61
480.554	4.62
480.905	4.63
481.255	4.64
481.606	4.65
481.957	4.67
482.307	4.67
482.658	4.67
483.009	4.67
483.359	4.68
483.709	4.68
484.06	4.68
484.41	4.68
484.761	4.68
485.111	4.68
485.461	4.69
485.811	4.7
486.162	4.71
486.512	4.72
486.862	4.73
487.212	4.74
487.562	4.74
487.912	4.74
488.262	4.74
488.612	4.75
488.961	4.74
489.311	4.74
489.661	4.74
490.011	4.75
490.36	4.76
490.71	4.75
491.06	4.76
491.409	4.78
491.759	4.79
492.108	4.81
492.458	4.83
492.807	4.82
493.157	4.83
493.506	4.85
493.855	4.85
494.204	4.86
494.554	4.86
494.903	4.87
495.252	4.9
495.601	4.94
495.95	4.98
496.299	5
496.648	5.05
496.997	5.08
497.346	5.12
497.695	5.16
498.043	5.21
498.392	5.24
498.741	5.28
499.09	5.31
499.438	5.34
499.787	5.37
500.135	5.46
500.484	5.52
500.832	5.57
501.181	5.64
501.529	5.71
501.878	5.79
502.226	5.85
502.574	5.92
502.923	5.98
503.271	6.03
503.619	6.14
503.967	6.23
504.315	6.33
504.663	6.4
505.011	6.51
505.359	6.6
505.707	6.7
506.055	6.8
506.403	6.9
506.751	7
507.098	7.12
507.446	7.2
507.794	7.29
508.141	7.39
508.489	7.48
508.837	7.56
509.184	7.67
509.531	7.77
509.879	7.87
510.226	7.99
510.574	8.09
510.921	8.19
511.268	8.29
511.616	8.4
511.963	8.54
512.31	8.63
512.657	8.76
513.004	8.87
513.351	9.01
513.698	9.15
514.045	9.28
514.392	9.45
514.739	9.58
515.086	9.74
515.432	9.87
515.779	10.01
516.126	10.14
516.473	10.3
516.819	10.46
517.166	10.6
517.512	10.73
517.859	10.86
518.205	10.96
518.552	11.1
518.898	11.24
519.245	11.37
519.591	11.5
519.937	11.63
520.283	11.79
520.629	11.97
520.976	12.1
521.322	12.29
521.668	12.44
522.014	12.65
522.36	12.87
522.706	13.11
523.052	13.36
523.398	13.62
523.743	13.87
524.089	14.13
524.435	14.39
524.781	14.65
525.126	14.89
525.472	15.12
525.817	15.33
526.163	15.5
526.509	15.69
526.854	15.86
527.199	16.04
527.545	16.2
527.89	16.37
528.235	16.56
528.581	16.74
528.926	16.92
529.271	17.1
529.616	17.27
529.961	17.44
530.306	17.62
530.651	17.83
530.996	18.05
531.341	18.27
531.686	18.49
532.031	18.72
532.376	18.96
532.721	19.21
533.065	19.46
533.41	19.76
533.755	20.03
534.099	20.3
534.444	20.57
534.788	20.85
535.133	21.13
535.477	21.4
535.822	21.7
536.166	22.01
536.51	22.35
536.855	22.7
537.199	23.1
537.543	23.48
537.887	23.87
538.231	24.25
538.576	24.64
538.92	25.06
539.264	25.45
539.608	25.8
539.951	26.14
540.295	26.44
540.639	26.72
540.983	27.01
541.327	27.35
541.671	27.66
542.014	27.98
542.358	28.28
542.701	28.56
543.045	28.85
543.389	29.14
543.732	29.45
544.075	29.79
544.419	30.08
544.762	30.4
545.105	30.71
545.449	31.05
545.792	31.39
546.135	31.7
546.478	32.05
546.821	32.46
547.165	32.87
547.508	33.3
547.851	33.7
548.194	34.12
548.536	34.52
548.879	34.92
549.222	35.31
549.565	35.68
549.908	36.14
550.25	36.52
550.593	36.95
550.936	37.38
551.278	37.71
551.621	38.11
551.963	38.5
552.306	38.9
552.648	39.23
552.991	39.63
553.333	39.98
553.675	40.35
554.017	40.63
554.36	40.89
554.702	41.23
555.044	41.55
555.386	41.88
555.728	42.16
556.07	42.52
556.412	42.75
556.754	43.04
557.096	43.35
557.438	43.63
557.78	43.95
558.121	44.21
558.463	44.55
558.805	44.83
559.147	45.07
559.488	45.37
559.83	45.7
560.171	45.97
560.513	46.28
560.854	46.52
561.196	46.84
561.537	47.14
561.878	47.35
562.22	47.64
562.561	47.79
562.902	48.02
563.243	48.24
563.584	48.58
563.925	48.85
564.266	48.98
564.607	49.22
564.948	49.47
565.289	49.63
565.63	49.75
565.971	49.96
566.312	50.2
566.653	50.45
566.993	50.62
567.334	50.76
567.675	50.89
568.015	51.09
568.356	51.26
568.696	51.42
569.037	51.63
569.377	51.79
569.718	52.08
570.058	52.23
570.398	52.38
570.739	52.55
571.079	52.69
571.419	52.93
571.759	53.06
572.099	53.19
572.439	53.38
572.779	53.62
573.119	53.83
573.459	53.97
573.799	54.04
574.139	54.17
574.479	54.34
574.819	54.49
575.158	54.58
575.498	54.72
575.838	54.82
576.177	54.96
576.517	55.1
576.856	55.18
577.196	55.33
577.535	55.48
577.875	55.59
578.214	55.71
578.553	55.85
578.893	56.01
579.232	56.03
579.571	56.14
579.91	56.16
580.25	56.22
580.589	56.25
580.928	56.29
581.267	56.43
581.606	56.54
581.945	56.69
582.283	56.79
582.622	56.92
582.961	57.14
583.3	57.19
583.639	57.32
583.977	57.4
584.316	57.47
584.654	57.54
584.993	57.59
585.332	57.67
585.67	57.64
586.008	57.69
586.347	57.83
586.685	57.92
587.024	58.03
587.362	58.04
587.7	58.25
588.038	58.46
588.376	58.58
588.715	58.58
589.053	58.66
589.391	58.77
589.729	58.89
590.067	58.9
590.404	58.97
590.742	58.98
591.08	59.08
591.418	59.17
591.756	59.26
592.093	59.32
592.431	59.39
592.769	59.44
593.106	59.54
593.444	59.63
593.781	59.7
594.119	59.74
594.456	59.85
594.793	59.92
595.131	59.97
595.468	60.03
595.805	60.19
596.143	60.22
596.48	60.23
596.817	60.26
597.154	60.24
597.491	60.29
597.828	60.3
598.165	60.26
598.502	60.34
598.839	60.38
599.176	60.43
599.512	60.51
599.849	60.68
600.186	60.71
600.523	60.76
600.859	60.75
601.196	60.8
601.532	60.76
601.869	60.71
602.205	60.73
602.542	60.71
602.878	60.67
603.215	60.67
603.551	60.73
603.887	60.73
604.223	60.79
604.56	60.84
604.896	60.98
605.232	61.06
605.568	61.08
605.904	61.07
606.24	61.14
606.576	61.18
606.912	61.18
607.248	61.2
607.583	61.23
607.919	61.26
608.255	61.3
608.591	61.43
608.926	61.42
609.262	61.42
609.597	61.41
609.933	61.42
610.268	61.51
610.604	61.58
610.939	61.6
611.275	61.7
611.61	61.71
611.945	61.69
612.281	61.71
612.616	61.66
612.951	61.76
613.286	61.76
613.621	61.72
613.956	61.75
614.291	61.8
614.626	61.87
614.961	61.99
615.296	62.02
615.631	62.11
615.966	62.32
616.3	62.44
616.635	62.55
616.97	62.69
617.304	62.74
617.639	62.73
617.973	62.74
618.308	62.79
618.642	62.87
618.977	62.88
619.311	62.96
619.646	63.06
619.98	63.03
620.314	62.98
620.648	63.01
620.983	62.99
621.317	63
621.651	63
621.985	62.93
622.319	62.97
622.653	62.94
622.987	62.84
623.321	62.8
623.655	62.79
623.988	62.82
624.322	62.8
624.656	62.7
624.99	62.78
625.323	62.7
625.657	62.75
625.99	62.81
626.324	62.82
626.657	62.81
626.991	62.94
627.324	63
627.658	62.97
627.991	63.08
628.324	63.1
628.657	63.12
628.991	63.23
629.324	63.23
629.657	63.14
629.99	63.14
630.323	63.21
630.656	63.29
630.989	63.18
631.322	63.31
631.655	63.44
631.987	63.41
632.32	63.49
632.653	63.4
632.986	63.31
633.318	63.33
633.651	63.37
633.984	63.25
634.316	63.26
634.649	63.25
634.981	63.21
635.313	63.17
635.646	63.13
635.978	63.05
636.31	63.14
636.643	63.17
636.975	63.24
637.307	63.19
637.639	63.2
637.971	63.27
638.303	63.14
638.635	63.07
638.967	63.07
639.299	63.01
639.631	62.98
639.963	63.09
640.295	63.15
640.626	63.13
640.958	63.22
641.29	63.17
641.621	63.29
641.953	63.26
642.285	63.29
642.616	63.37
642.948	63.41
643.279	63.41
643.61	63.43
643.942	63.41
644.273	63.42
644.604	63.42
644.936	63.38
645.267	63.37
645.598	63.36
645.929	63.29
646.26	63.47
646.591	63.6
646.922	63.56
647.253	63.46
647.584	63.45
647.915	63.4
648.245	63.45
648.576	63.46
648.907	63.54
649.238	63.52
649.568	63.47
649.899	63.53
650.229	63.41
650.56	63.44
650.89	63.43
651.221	63.39
651.551	63.26
651.882	63.21
652.212	63.27
652.542	63.36
652.872	63.38
653.203	63.31
653.533	63.32
653.863	63.41
654.193	63.45
654.523	63.53
654.853	63.61
655.183	63.6
655.513	63.58
655.843	63.56
656.172	63.72
656.502	63.79
656.832	63.83
657.162	63.93
657.491	63.94
657.821	63.95
658.15	63.96
658.48	64.03
658.809	64.23
659.139	64.26
659.468	64.27
659.798	64.32
660.127	64.26
660.456	64.3
660.785	64.17
661.115	64.2
661.444	64.16
661.773	64.08
662.102	64.13
662.431	64.13
662.76	64.13
663.089	63.98
663.418	63.96
663.747	63.84
664.076	63.9
664.404	63.94
664.733	63.93
665.062	63.92
665.39	63.8
665.719	63.63
666.048	63.69
666.376	63.8
666.705	63.85
667.033	63.86
667.362	63.83
667.69	63.89
668.018	63.8
668.347	63.71
668.675	63.63
669.003	63.65
669.331	63.59
669.659	63.6
669.987	63.61
670.315	63.6
670.643	63.69
670.971	63.67
671.299	63.66
671.627	63.67
671.955	63.53
672.283	63.68
672.61	63.72
672.938	63.61
673.266	63.48
673.593	63.44
673.921	63.4
674.249	63.44
674.576	63.42
674.904	63.41
675.231	63.53
675.558	63.57
675.886	63.54
676.213	63.55
676.54	63.7
676.867	63.83
677.195	63.93
677.522	63.86
677.849	63.86
678.176	63.99
678.503	63.9
678.83	64.06
679.157	64.01
679.484	64.04
679.81	64.06
680.137	64.02
680.464	64.11
680.791	64.13
681.117	64.08
681.444	64.01
681.771	63.99
682.097	64.11
682.424	64.21
682.75	64.32
683.077	64.46
683.403	64.36
683.729	64.42
684.056	64.39
684.382	64.38
684.708	64.3
685.034	64.22
685.36	64.21
685.686	64.35
686.012	64.48
686.339	64.47
686.664	64.55
686.99	64.69
687.316	64.52
687.642	64.68
687.968	64.72
688.294	64.89
688.619	64.99
688.945	64.84
689.271	64.75
689.596	64.59
689.922	64.48
690.247	64.52
690.573	64.48
690.898	64.35
691.224	64.42
691.549	64.49
691.874	64.41
692.2	64.58
692.525	64.5
692.85	64.41
693.175	64.41
693.5	64.25
693.825	64.22
694.15	64.33
694.475	64.17
694.8	64.14
695.125	64.07
695.45	64.1
695.775	64.13
696.099	64.08
696.424	64.06
696.749	64.07
697.073	64.22
697.398	64.17
697.723	64.29
698.047	64.29
698.372	64.24
698.696	64.31
699.02	64.3
699.345	64.31
699.669	64.34
699.993	64.27
700.318	64.34
700.642	64.41
700.966	64.34
701.29	64.38
701.614	64.35
701.938	64.42
702.262	64.47
702.586	64.43
702.91	64.55
703.234	64.68
703.557	64.69
703.881	64.52
704.205	64.4
704.529	64.36
704.852	64.35
705.176	64.41
705.499	64.4
705.823	64.46
706.146	64.4
706.47	64.29
706.793	64.42
707.117	64.52
707.44	64.43
707.763	64.48
708.086	64.53
708.409	64.51
708.733	64.47
709.056	64.26
709.379	64.52
709.702	64.54
710.025	64.65
710.348	64.68
710.671	64.48
710.993	64.64
711.316	64.51
711.639	64.53
711.962	64.71
712.284	64.63
712.607	64.73
712.93	64.57
713.252	64.6
713.575	64.72
713.897	64.89
714.22	64.95
714.542	64.84
714.864	64.91
715.187	64.96
715.509	65.08
715.831	65.24
716.153	64.99
716.475	65.13
716.798	65.18
717.12	65.11
717.442	65.31
717.764	65.29
718.085	65.39
718.407	65.39
718.729	65.39
719.051	65.37
719.373	65.37
719.695	65.5
720.016	65.66
720.338	65.58
720.659	65.32
720.981	65.15
721.302	65.33
721.624	65.16
721.945	65.12
722.267	64.97
722.588	64.77
722.909	64.84
723.231	64.66
723.552	64.45
723.873	64.42
724.194	64.3
724.515	64.39
724.836	64.61
725.157	64.73
725.478	64.43
725.799	64.61
726.12	64.43
726.441	64.52
726.762	64.33
727.083	64.39
727.403	64.31
727.724	64.08
728.045	64.05
728.365	64.27
728.686	64.21
729.006	64.16
729.327	64.31
729.647	64.42
729.967	64.37
730.288	64.33
730.608	64.52
730.928	64.81
731.249	64.61
731.569	64.48
731.889	64.29
732.209	64.45
732.529	64.24
732.849	64.38
733.169	64.33
733.489	64.39
733.809	64.09
734.129	64.21
734.448	64.55
734.768	64.63
735.088	64.49
735.408	64.44
735.727	64.48
736.047	64.57
736.366	64.41
736.686	64.62
737.005	64.73
737.325	64.77
737.644	64.49
737.963	64.72
738.283	64.73
738.602	64.63
738.921	64.35
739.24	64.66
739.56	64.46
739.879	64.29
740.198	64.35
740.517	64.64
740.836	64.71
741.155	64.83
741.473	64.69
741.792	64.69
742.111	64.98
742.43	65.02
742.748	64.75
743.067	64.81
743.386	64.64
743.704	64.49
744.023	64.29
744.341	64.33
744.66	64.08
744.978	63.96
745.297	64.23
745.615	64.26
745.933	64.33
746.252	64.35
746.57	64.49
746.888	64.36
747.206	64.37
747.524	64.01
747.842	63.59
748.16	63.71
748.478	63.6
748.796	63.34
749.114	63.31
749.432	63.25
749.749	63.05
750.067	62.99
750.385	62.84
750.703	63.02
751.02	63.06
751.338	63.41
751.655	63.5
751.973	63.29
752.29	63.44
752.608	63.24
752.925	63.24
753.242	63.43
753.56	63.43
753.877	63.16
754.194	63.37
754.511	63.41
754.828	63.27
755.145	63.41
755.462	63.57
755.779	63.43
756.096	63.93
756.413	64.03
756.73	63.98
757.047	63.89
757.364	63.94
757.68	63.78
757.997	63.72
758.314	63.73
758.63	63.85
758.947	63.83
759.264	63.84
759.58	63.96
759.896	64.1
760.213	64.23
760.529	64.21
760.846	64
761.162	64.23
761.478	64.34
761.794	64.34
762.11	64.77
762.426	65.04
762.743	65.01
763.059	64.96
763.375	65.08
763.69	65.31
764.006	65.25
764.322	65.42
764.638	65.19
764.954	65.16
765.27	65.46
765.585	65.59
765.901	65.44
766.216	65.41
766.532	65.39
766.848	65.15
767.163	65.5
767.478	65.99
767.794	66.12
768.109	66.06
768.424	65.97
768.74	65.44
769.055	65.48
769.37	65.31
769.685	65.54
770	65.66
770.315	65.82
770.63	65.57
770.945	65.6
771.26	65.87
771.575	65.97
771.89	65.57
772.205	65.53
772.52	65.75
772.834	65.76
773.149	65.57
773.464	65.84
773.778	65.89
774.093	65.15
774.407	64.97
774.722	65.22
775.036	65.36
775.351	65.35
775.665	64.99
775.979	64.68
776.293	65.05
776.608	64.74
776.922	64.66
777.236	65.13
777.55	64.66
777.864	64.61
778.178	64.75
778.492	64.49
778.806	64.61
779.12	64.13
779.434	64.74
779.747	64.71
780.061	64.99
780.375	64.55
780.689	64.83
781.002	65
781.316	64.93
781.629	64.94
781.943	65.24
782.256	65.68
782.57	66.12
782.883	65.41
783.196	65.07
783.51	65.32
783.823	65.14
784.136	65.68
784.449	65.51
784.762	65.22
785.075	65.66
785.388	65.4
785.701	65.82
786.014	65.16
786.327	65.14
786.64	64.97
786.953	65.32
787.266	65.25
787.578	65.41
787.891	65.86
788.204	65.82
788.516	65.96
788.829	65.68
789.141	65.66
789.454	66.16
789.766	66.71
790.079	66.3
790.391	66.5
790.703	66.77
791.016	67.21
791.328	67.59
791.64	67.21
791.952	67.19
792.264	66.71
792.576	66.93
792.888	66.93
793.2	67.33
793.512	67.07
793.824	67.63
794.136	67.52
794.448	66.78
794.76	66.82
795.071	66.18
795.383	66.39
795.695	66.48
796.006	66.12
796.318	65.55
796.629	65.78
796.941	65.24
797.252	64.92
797.564	64.41
797.875	64.35
798.186	64.94
798.497	65.03
798.809	65.47
799.12	65.14
799.431	65.32
799.742	65.37
800.053	65.53
800.364	65.16
800.675	65.11
800.986	65.19
801.297	64.7
801.608	64.78
801.918	64.73
802.229	64.6
802.54	64.98
802.851	65.3
803.161	65.44
803.472	65.88
803.782	65.89
804.093	66.39
804.403	66.5
804.714	66.59
805.024	66.87
805.334	67.85
805.645	68.3
805.955	67.99
806.265	67.13
806.575	66.77
806.885	66.74
807.195	66.4
807.505	66.33
807.815	66.81
808.125	66.68
808.435	66.24
808.745	66.53
809.055	66.03
809.365	66.06
809.674	66.21
809.984	65.54
810.294	65.06
810.603	64.91
810.913	64.69
811.222	64.63
811.532	64.24
811.841	63.81
812.151	63.8
812.46	63.58
812.769	63.62
813.079	64.42
813.388	64.39
813.697	64.65
814.006	64.28
814.315	64.62
814.624	64.54
814.933	65.3
815.242	64.65
815.551	64.5
815.86	64.78
816.169	64
816.478	64.64
816.786	64.71
817.095	65.05
817.404	64.64
817.712	64.33
818.021	64.2
818.33	63.68
818.638	62.99
818.947	63.21
819.255	63.11
819.563	62.79
819.872	62.79
820.18	63.17
820.488	63.49
820.796	63.51
821.105	63.66
821.413	63.69
821.721	63.74
822.029	63.97
822.337	64.02
822.645	64.37
822.953	64.17
823.26	64.32
823.568	64.03
823.876	64.05
824.184	64.2
824.491	64.42
824.799	64.55
825.107	64.69
825.414	64.88
825.722	65.09
826.029	65.17
826.337	65.39
826.644	65.17
826.951	65.23
827.259	65.04
827.566	65.23
827.873	65.17
828.18	65.36
828.488	65.45
828.795	65.29
829.102	65
829.409	65.56
829.716	65.31
830.023	65.37
830.329	65.52
830.636	65.23
830.943	65.31
831.25	65.35
831.557	65.41
831.863	65.48
832.17	65.79
832.476	65.63
832.783	65.42
833.089	65.69
833.396	65.83
833.702	66.37
834.009	66.07
834.315	65.81
834.621	65.7
834.928	65.34
835.234	65.75
835.54	65.65
835.846	65
836.152	65.27
836.458	65.69
836.764	65.62
837.07	65.68
837.376	64.54
837.682	64.36
837.988	63.95
838.293	63.2
838.599	62.42
838.905	62.42
839.211	61.95
839.516	61.34
839.822	61.62
840.127	60.48
840.433	60.21
840.738	60.58
841.044	59.88
841.349	59.64
841.654	58.73
841.959	58.86
842.265	59.44
842.57	59.65
842.875	59.05
843.18	58.36
843.485	57.19
843.79	58.49
844.095	57.5
844.4	57.85
844.705	56.44
845.01	55.96
845.315	55.92
845.619	56.2
845.924	56.75
846.229	54.13
846.533	55.04
846.838	55.51
847.142	55.66
847.447	55.93
847.751	55.86
848.056	56.26
848.36	56.52
848.664	55.76
848.969	54.89
849.273	54.45
849.577	55.2
849.881	56.48
850.185	57.94
850.489	58.56
850.794	58.09
851.097	61.57
851.401	60.88
851.705	60.07
852.009	60.13
852.313	60.66
852.617	63.58
852.92	63.24
853.224	62.11
853.528	64.16
853.831	65.46
854.135	66.14
854.438	67.56
854.742	65.57
855.045	65.22
855.349	66.44
855.652	67.28
855.955	68.39
856.259	70.28
856.562	70.82
856.865	71.83
857.168	72.47
857.471	71.6
857.774	72.16
858.077	73.56
858.38	75.11
858.683	74.44
858.986	71.04
859.289	71.84
859.592	72.74
859.894	69.52
860.197	69.72
860.5	69.77
860.802	68.7
861.105	72.22
861.407	70.87
861.71	69.24
862.012	68.36
862.315	67
862.617	65.33
862.919	65.95
863.222	66.54
863.524	68.98
863.826	69.15
864.128	70.66
864.43	69.44
864.732	68.15
865.034	67.3
865.336	67.14
865.638	68.06
865.94	68.27
866.242	68.94
866.544	67.48
866.846	68.52
867.147	68.31
867.449	65.34
867.751	68.46
868.052	67.58
868.354	68.73
868.655	70.82
868.957	73.83
869.258	69.52
869.56	67.31
869.861	63.24
870.162	62.67
870.463	64.3
870.765	61.97
871.066	62.05
871.367	63.2
871.668	65.92
871.969	65.9
872.27	62.58
872.571	61.17
872.872	59.99
873.173	56.64
873.473	57.2
873.774	57.25
874.075	56.41
874.376	57.77
874.676	57.84
874.977	54.7
875.277	51.97
875.578	54.51
875.878	54.82
876.179	56.2
876.479	55.8
876.78	52.8
877.08	55.98
877.38	56.4
877.68	55.06
877.981	54.12
878.281	52.01
878.581	55.73
