Data from BA57758_Reflection_00013.txt Node
Date: Mon Nov 18 15:11:59 EST 2019
User: vgr7
Spectrometer: USB2G7710
Scans to average: 3
Trigger mode: 4
Integration Time (sec): 2.000000E-2
Electric dark correction enabled: true
Boxcar width: 10
XAxis mode: Wavelengths
Number of Pixels in Spectrum: 2048
>>>>>Begin Spectral Data<<<<<
177.721	116.19
178.105	-3.14
178.488	-9.36
178.871	-76.4
179.254	-111.08
179.636	261.02
180.019	-771.29
180.402	-580
180.785	22.92
181.168	121.74
181.55	187.95
181.933	107.6
182.316	87.14
182.698	103.64
183.081	103.35
183.463	184.37
183.846	137.47
184.228	38.55
184.611	3.91
184.993	12.16
185.376	32.09
185.758	37.1
186.14	12.79
186.522	-13.38
186.904	-38.99
187.287	-25.18
187.669	-27.8
188.051	54.51
188.433	25.02
188.815	52.9
189.197	27.32
189.579	4.9
189.961	6.42
190.342	241.34
190.724	573.93
191.106	354.14
191.488	1223.29
191.869	-373.87
192.251	-158.85
192.633	-249.85
193.014	-335.46
193.396	-475.1
193.777	-691.29
194.159	-626.96
194.54	-404.47
194.922	-298.76
195.303	-258.91
195.684	-208.01
196.065	-110.45
196.447	-107.66
196.828	-119.5
197.209	-104.21
197.59	-104.49
197.971	-99.17
198.352	-105.87
198.733	-90.62
199.114	-94.92
199.495	-87.95
199.876	-103.51
200.257	-69.33
200.638	-41.1
201.018	-32.56
201.399	-17.91
201.78	-2.26
202.16	-16.82
202.541	-16.67
202.922	-35.16
203.302	-40.14
203.683	-54.98
204.063	-141.46
204.444	-134.16
204.824	-78.81
205.204	-95.28
205.585	-70.8
205.965	-95.68
206.345	-66.82
206.725	-136.52
207.106	-249.61
207.486	-262.66
207.866	-210.29
208.246	-405.84
208.626	-596.83
209.006	-178.62
209.386	5060
209.766	-371.09
210.145	-278.66
210.525	-461.51
210.905	-108.62
211.285	-48.8
211.664	-24.89
212.044	-8.53
212.424	-3.19
212.803	-19.85
213.183	-16.88
213.562	-13.5
213.942	-17.27
214.321	-22.38
214.701	-22.92
215.08	-18.63
215.459	-25.53
215.838	-25.9
216.218	-47.25
216.597	-35.79
216.976	-38.88
217.355	-33.56
217.734	-39.41
218.113	-45.43
218.492	-37.73
218.871	-45.22
219.25	-53.85
219.629	-80.54
220.008	-78.66
220.387	-96.71
220.766	-118.28
221.144	-151.44
221.523	-162.55
221.902	-178.43
222.28	-156.05
222.659	-145.3
223.037	-128.18
223.416	-103.37
223.794	-83.59
224.173	-70.88
224.551	-55.74
224.929	-46.53
225.308	-39.45
225.686	-26.97
226.064	-14.48
226.442	-14.42
226.821	-6.85
227.199	-7.93
227.577	-7.94
227.955	-10.49
228.333	-7.94
228.711	-2.94
229.089	2.27
229.467	2.26
229.845	-2.15
230.222	-2.92
230.6	-3.55
230.978	-3.12
231.356	-2.6
231.733	-2.88
232.111	-2.01
232.488	-2.1
232.866	-1.51
233.243	-0.81
233.621	-2.02
233.998	-2.66
234.376	-3.2
234.753	-2.12
235.13	-2.91
235.508	-1.01
235.885	-0.53
236.262	-1.71
236.639	-2.59
237.016	-2.45
237.393	-0.69
237.77	2.42
238.147	3.24
238.524	3.59
238.901	3.93
239.278	3.58
239.655	4.52
240.032	4.29
240.409	3.61
240.785	3.45
241.162	3.6
241.539	3.42
241.915	3.14
242.292	3.25
242.668	2.93
243.045	3.22
243.421	2.86
243.798	3.08
244.174	3.29
244.551	3.68
244.927	3.21
245.303	3.21
245.679	3.41
246.056	3.28
246.432	3.19
246.808	3.09
247.184	3.33
247.56	2.91
247.936	3.24
248.312	3.19
248.688	3.49
249.064	3.57
249.44	3.89
249.815	4.07
250.191	4.04
250.567	3.89
250.943	3.79
251.318	4.18
251.694	4.18
252.069	4.2
252.445	4.19
252.82	4.41
253.196	3.96
253.571	3.66
253.947	3.62
254.322	3.95
254.697	3.9
255.073	3.63
255.448	3.96
255.823	3.46
256.198	3.6
256.573	3.39
256.948	3.33
257.323	3
257.698	2.91
258.073	2.67
258.448	2.68
258.823	2.78
259.198	2.46
259.573	2.37
259.948	2.42
260.322	2.4
260.697	2.45
261.072	2.68
261.446	2.68
261.821	2.65
262.195	2.73
262.57	2.69
262.944	2.67
263.319	2.51
263.693	2.55
264.067	2.62
264.442	2.44
264.816	2.27
265.19	2.37
265.564	2.35
265.938	2.43
266.313	2.58
266.687	2.5
267.061	2.78
267.435	2.86
267.809	2.84
268.183	2.68
268.556	2.63
268.93	2.63
269.304	2.62
269.678	2.8
270.051	2.69
270.425	2.82
270.799	2.7
271.172	2.82
271.546	2.68
271.919	2.66
272.293	2.73
272.666	2.87
273.04	2.94
273.413	2.86
273.787	2.95
274.16	2.82
274.533	2.94
274.906	2.82
275.279	2.76
275.653	2.69
276.026	2.69
276.399	2.81
276.772	2.86
277.145	2.8
277.518	2.73
277.891	2.61
278.263	2.43
278.636	2.7
279.009	2.67
279.382	2.9
279.755	2.78
280.127	2.91
280.5	2.77
280.872	2.71
281.245	2.89
281.617	2.83
281.99	2.94
282.362	2.93
282.735	2.93
283.107	2.93
283.479	3.07
283.852	2.97
284.224	2.9
284.596	2.87
284.968	2.88
285.34	2.97
285.713	2.97
286.085	3
286.457	2.95
286.829	3
287.201	2.92
287.572	2.9
287.944	2.81
288.316	2.85
288.688	2.78
289.06	2.7
289.431	2.81
289.803	2.78
290.175	2.91
290.546	3.04
290.918	3.18
291.289	3.08
291.661	3.3
292.032	3.34
292.403	3.23
292.775	3.32
293.146	3.22
293.517	3.34
293.889	3.44
294.26	3.51
294.631	3.47
295.002	3.56
295.373	3.64
295.744	3.8
296.115	3.77
296.486	3.78
296.857	3.85
297.228	3.79
297.599	3.82
297.97	3.85
298.34	3.83
298.711	3.82
299.082	3.8
299.452	3.88
299.823	3.99
300.194	4.08
300.564	4.06
300.935	4.19
301.305	4.19
301.676	4.31
302.046	4.33
302.416	4.49
302.787	4.58
303.157	4.61
303.527	4.48
303.897	4.63
304.267	4.84
304.637	4.8
305.008	4.87
305.378	5.12
305.748	5.03
306.117	5.04
306.487	4.9
306.857	4.92
307.227	4.88
307.597	4.71
307.967	4.65
308.336	4.68
308.706	4.64
309.076	4.69
309.445	4.62
309.815	4.62
310.184	4.53
310.554	4.48
310.923	4.6
311.293	4.69
311.662	4.73
312.031	4.65
312.401	4.76
312.77	4.88
313.139	4.85
313.508	4.79
313.877	4.85
314.246	4.99
314.616	5.05
314.985	5.04
315.353	5.16
315.722	5.34
316.091	5.36
316.46	5.33
316.829	5.31
317.198	5.38
317.567	5.22
317.935	5.24
318.304	5.3
318.672	5.32
319.041	5.38
319.41	5.38
319.778	5.36
320.147	5.31
320.515	5.24
320.883	5.12
321.252	5.23
321.62	5.14
321.988	5.24
322.357	5.26
322.725	5.29
323.093	5.39
323.461	5.42
323.829	5.5
324.197	5.62
324.565	5.81
324.933	5.8
325.301	5.96
325.669	6.01
326.037	6.03
326.405	6.03
326.772	6.1
327.14	6.12
327.508	6.25
327.875	6.13
328.243	6.13
328.61	6.2
328.978	6.23
329.346	6.49
329.713	6.42
330.08	6.53
330.448	6.52
330.815	6.44
331.182	6.47
331.55	6.42
331.917	6.52
332.284	6.55
332.651	6.55
333.018	6.59
333.385	6.66
333.752	6.74
334.119	6.84
334.486	6.73
334.853	6.75
335.22	6.88
335.587	7.07
335.954	7.16
336.32	7.41
336.687	7.32
337.054	7.24
337.42	7.25
337.787	7.31
338.153	7.39
338.52	7.52
338.886	7.4
339.253	7.47
339.619	7.41
339.986	7.35
340.352	7.35
340.718	7.35
341.084	7.38
341.451	7.4
341.817	7.33
342.183	7.44
342.549	7.49
342.915	7.41
343.281	7.41
343.647	7.38
344.013	7.22
344.379	7.25
344.745	7.3
345.11	7.33
345.476	7.36
345.842	7.38
346.208	7.31
346.573	7.42
346.939	7.51
347.304	7.48
347.67	7.52
348.035	7.49
348.401	7.52
348.766	7.44
349.132	7.43
349.497	7.46
349.862	7.5
350.228	7.41
350.593	7.34
350.958	7.39
351.323	7.39
351.688	7.4
352.053	7.48
352.418	7.46
352.783	7.52
353.148	7.41
353.513	7.41
353.878	7.44
354.243	7.42
354.608	7.41
354.972	7.43
355.337	7.41
355.702	7.44
356.066	7.45
356.431	7.49
356.795	7.48
357.16	7.51
357.524	7.39
357.889	7.46
358.253	7.45
358.618	7.45
358.982	7.47
359.346	7.42
359.71	7.35
360.075	7.3
360.439	7.27
360.803	7.32
361.167	7.24
361.531	7.22
361.895	7.21
362.259	7.08
362.623	7.07
362.987	6.97
363.351	6.93
363.714	6.92
364.078	6.84
364.442	6.76
364.806	6.67
365.169	6.65
365.533	6.53
365.896	6.5
366.26	6.43
366.623	6.34
366.987	6.24
367.35	6.23
367.714	6.14
368.077	6.06
368.44	6.01
368.803	5.99
369.167	5.91
369.53	5.85
369.893	5.87
370.256	5.75
370.619	5.76
370.982	5.7
371.345	5.57
371.708	5.56
372.071	5.53
372.434	5.47
372.797	5.46
373.159	5.46
373.522	5.44
373.885	5.38
374.247	5.39
374.61	5.35
374.973	5.29
375.335	5.3
375.698	5.22
376.06	5.1
376.423	5.05
376.785	5
377.147	4.95
377.51	4.91
377.872	4.97
378.234	4.93
378.596	4.91
378.958	4.9
379.321	4.89
379.683	4.88
380.045	4.85
380.407	4.78
380.769	4.72
381.13	4.64
381.492	4.55
381.854	4.5
382.216	4.56
382.578	4.55
382.939	4.48
383.301	4.45
383.663	4.48
384.024	4.45
384.386	4.5
384.747	4.51
385.109	4.48
385.47	4.38
385.832	4.34
386.193	4.32
386.554	4.25
386.916	4.16
387.277	4.11
387.638	4.11
387.999	4.07
388.36	4.03
388.721	4.03
389.082	4.04
389.443	3.98
389.804	3.93
390.165	3.86
390.526	3.87
390.887	3.81
391.248	3.81
391.609	3.79
391.969	3.73
392.33	3.69
392.691	3.69
393.051	3.65
393.412	3.64
393.772	3.61
394.133	3.62
394.493	3.63
394.854	3.6
395.214	3.56
395.574	3.53
395.935	3.48
396.295	3.47
396.655	3.4
397.015	3.38
397.376	3.36
397.736	3.34
398.096	3.34
398.456	3.36
398.816	3.34
399.176	3.29
399.535	3.28
399.895	3.24
400.255	3.17
400.615	3.17
400.975	3.17
401.334	3.15
401.694	3.13
402.054	3.1
402.413	3.06
402.773	3.05
403.132	3.03
403.492	3.05
403.851	3.02
404.211	3.03
404.57	3.03
404.929	3
405.288	2.98
405.648	2.94
406.007	2.94
406.366	2.89
406.725	2.88
407.084	2.86
407.443	2.88
407.802	2.89
408.161	2.88
408.52	2.83
408.879	2.85
409.238	2.82
409.596	2.82
409.955	2.82
410.314	2.82
410.673	2.84
411.031	2.81
411.39	2.8
411.748	2.8
412.107	2.79
412.465	2.79
412.824	2.8
413.182	2.77
413.54	2.74
413.899	2.73
414.257	2.77
414.615	2.75
414.974	2.75
415.332	2.71
415.69	2.71
416.048	2.7
416.406	2.69
416.764	2.69
417.122	2.68
417.48	2.68
417.838	2.67
418.195	2.66
418.553	2.67
418.911	2.67
419.269	2.64
419.626	2.62
419.984	2.61
420.342	2.59
420.699	2.6
421.057	2.61
421.414	2.59
421.772	2.56
422.129	2.56
422.486	2.53
422.844	2.55
423.201	2.54
423.558	2.54
423.915	2.53
424.273	2.52
424.63	2.5
424.987	2.5
425.344	2.48
425.701	2.47
426.058	2.46
426.415	2.46
426.772	2.48
427.128	2.48
427.485	2.47
427.842	2.47
428.199	2.47
428.555	2.46
428.912	2.48
429.269	2.48
429.625	2.47
429.982	2.48
430.338	2.44
430.695	2.45
431.051	2.43
431.407	2.42
431.764	2.4
432.12	2.4
432.476	2.38
432.832	2.37
433.189	2.37
433.545	2.36
433.901	2.35
434.257	2.35
434.613	2.36
434.969	2.38
435.325	2.39
435.681	2.39
436.036	2.39
436.392	2.39
436.748	2.38
437.104	2.37
437.459	2.38
437.815	2.4
438.171	2.4
438.526	2.42
438.882	2.44
439.237	2.45
439.593	2.46
439.948	2.45
440.304	2.48
440.659	2.47
441.014	2.47
441.369	2.46
441.725	2.44
442.08	2.42
442.435	2.41
442.79	2.41
443.145	2.4
443.5	2.41
443.855	2.39
444.21	2.38
444.565	2.39
444.92	2.39
445.275	2.37
445.629	2.37
445.984	2.36
446.339	2.33
446.693	2.31
447.048	2.31
447.403	2.32
447.757	2.28
448.112	2.27
448.466	2.27
448.82	2.27
449.175	2.28
449.529	2.29
449.883	2.28
450.238	2.27
450.592	2.27
450.946	2.24
451.3	2.24
451.654	2.25
452.008	2.22
452.362	2.22
452.716	2.23
453.07	2.22
453.424	2.23
453.778	2.25
454.132	2.25
454.486	2.23
454.839	2.21
455.193	2.23
455.547	2.22
455.9	2.23
456.254	2.23
456.607	2.23
456.961	2.22
457.314	2.22
457.668	2.22
458.021	2.2
458.375	2.22
458.728	2.23
459.081	2.22
459.434	2.23
459.787	2.23
460.141	2.24
460.494	2.24
460.847	2.23
461.2	2.23
461.553	2.25
461.906	2.27
462.259	2.3
462.611	2.32
462.964	2.33
463.317	2.33
463.67	2.34
464.022	2.33
464.375	2.34
464.728	2.36
465.08	2.35
465.433	2.37
465.785	2.35
466.138	2.35
466.49	2.37
466.843	2.39
467.195	2.39
467.547	2.38
467.899	2.37
468.252	2.39
468.604	2.4
468.956	2.38
469.308	2.39
469.66	2.38
470.012	2.38
470.364	2.41
470.716	2.4
471.068	2.4
471.42	2.39
471.772	2.41
472.123	2.4
472.475	2.42
472.827	2.42
473.178	2.44
473.53	2.44
473.882	2.44
474.233	2.44
474.585	2.43
474.936	2.43
475.288	2.43
475.639	2.42
475.99	2.41
476.342	2.42
476.693	2.41
477.044	2.4
477.395	2.38
477.746	2.35
478.097	2.33
478.448	2.35
478.8	2.35
479.15	2.34
479.501	2.35
479.852	2.36
480.203	2.37
480.554	2.37
480.905	2.38
481.255	2.37
481.606	2.37
481.957	2.38
482.307	2.39
482.658	2.39
483.009	2.39
483.359	2.4
483.709	2.4
484.06	2.39
484.41	2.4
484.761	2.4
485.111	2.41
485.461	2.42
485.811	2.42
486.162	2.42
486.512	2.43
486.862	2.42
487.212	2.42
487.562	2.42
487.912	2.42
488.262	2.42
488.612	2.42
488.961	2.42
489.311	2.42
489.661	2.42
490.011	2.43
490.36	2.44
490.71	2.44
491.06	2.43
491.409	2.44
491.759	2.45
492.108	2.45
492.458	2.46
492.807	2.45
493.157	2.47
493.506	2.47
493.855	2.49
494.204	2.5
494.554	2.5
494.903	2.5
495.252	2.53
495.601	2.54
495.95	2.56
496.299	2.57
496.648	2.57
496.997	2.58
497.346	2.6
497.695	2.63
498.043	2.64
498.392	2.68
498.741	2.7
499.09	2.71
499.438	2.77
499.787	2.8
500.135	2.85
500.484	2.89
500.832	2.91
501.181	2.93
501.529	2.96
501.878	3.01
502.226	3.05
502.574	3.08
502.923	3.1
503.271	3.14
503.619	3.21
503.967	3.28
504.315	3.32
504.663	3.35
505.011	3.38
505.359	3.44
505.707	3.49
506.055	3.51
506.403	3.57
506.751	3.6
507.098	3.65
507.446	3.7
507.794	3.72
508.141	3.79
508.489	3.85
508.837	3.91
509.184	3.96
509.531	4.02
509.879	4.09
510.226	4.19
510.574	4.26
510.921	4.31
511.268	4.36
511.616	4.45
511.963	4.5
512.31	4.59
512.657	4.66
513.004	4.75
513.351	4.87
513.698	4.97
514.045	5.05
514.392	5.14
514.739	5.23
515.086	5.36
515.432	5.46
515.779	5.56
516.126	5.68
516.473	5.78
516.819	5.87
517.166	5.97
517.512	6.05
517.859	6.13
518.205	6.23
518.552	6.33
518.898	6.42
519.245	6.52
519.591	6.64
519.937	6.75
520.283	6.88
520.629	6.98
520.976	7.1
521.322	7.25
521.668	7.39
522.014	7.55
522.36	7.69
522.706	7.87
523.052	8.03
523.398	8.2
523.743	8.4
524.089	8.61
524.435	8.8
524.781	8.99
525.126	9.18
525.472	9.33
525.817	9.49
526.163	9.64
526.509	9.78
526.854	9.91
527.199	10.05
527.545	10.15
527.89	10.28
528.235	10.41
528.581	10.54
528.926	10.69
529.271	10.82
529.616	10.96
529.961	11.1
530.306	11.25
530.651	11.42
530.996	11.58
531.341	11.75
531.686	11.91
532.031	12.09
532.376	12.27
532.721	12.47
533.065	12.67
533.41	12.89
533.755	13.11
534.099	13.34
534.444	13.56
534.788	13.79
535.133	14.01
535.477	14.24
535.822	14.46
536.166	14.72
536.51	15.01
536.855	15.31
537.199	15.6
537.543	15.9
537.887	16.2
538.231	16.5
538.576	16.83
538.92	17.17
539.264	17.46
539.608	17.73
539.951	18.01
540.295	18.28
540.639	18.53
540.983	18.76
541.327	18.97
541.671	19.19
542.014	19.43
542.358	19.67
542.701	19.89
543.045	20.14
543.389	20.35
543.732	20.6
544.075	20.84
544.419	21.1
544.762	21.32
545.105	21.59
545.449	21.9
545.792	22.16
546.135	22.43
546.478	22.74
546.821	23.09
547.165	23.42
547.508	23.74
547.851	24.04
548.194	24.37
548.536	24.76
548.879	25.11
549.222	25.48
549.565	25.84
549.908	26.18
550.25	26.56
550.593	26.91
550.936	27.24
551.278	27.59
551.621	27.97
551.963	28.32
552.306	28.65
552.648	28.93
552.991	29.26
553.333	29.57
553.675	29.89
554.017	30.18
554.36	30.47
554.702	30.75
555.044	31.1
555.386	31.43
555.728	31.71
556.07	32.04
556.412	32.33
556.754	32.6
557.096	32.9
557.438	33.13
557.78	33.45
558.121	33.74
558.463	34.04
558.805	34.27
559.147	34.65
559.488	34.94
559.83	35.26
560.171	35.54
560.513	35.84
560.854	36.16
561.196	36.43
561.537	36.69
561.878	36.97
562.22	37.22
562.561	37.51
562.902	37.73
563.243	37.92
563.584	38.15
563.925	38.39
564.266	38.65
564.607	38.87
564.948	39.09
565.289	39.33
565.63	39.52
565.971	39.71
566.312	39.91
566.653	40.1
566.993	40.28
567.334	40.48
567.675	40.69
568.015	40.85
568.356	41.05
568.696	41.27
569.037	41.42
569.377	41.56
569.718	41.73
570.058	41.93
570.398	42.2
570.739	42.36
571.079	42.57
571.419	42.73
571.759	42.94
572.099	43.09
572.439	43.21
572.779	43.32
573.119	43.47
573.459	43.59
573.799	43.75
574.139	43.91
574.479	44.05
574.819	44.16
575.158	44.3
575.498	44.41
575.838	44.51
576.177	44.69
576.517	44.89
576.856	44.98
577.196	45.13
577.535	45.22
577.875	45.38
578.214	45.49
578.553	45.66
578.893	45.82
579.232	45.98
579.571	46.16
579.91	46.38
580.25	46.53
580.589	46.71
580.928	46.86
581.267	47
581.606	47.13
581.945	47.21
582.283	47.36
582.622	47.52
582.961	47.68
583.3	47.81
583.639	47.92
583.977	48.08
584.316	48.17
584.654	48.3
584.993	48.42
585.332	48.51
585.67	48.59
586.008	48.72
586.347	48.77
586.685	48.83
587.024	48.93
587.362	49.01
587.7	49.03
588.038	49.07
588.376	49.17
588.715	49.28
589.053	49.4
589.391	49.45
589.729	49.55
590.067	49.58
590.404	49.63
590.742	49.7
591.08	49.74
591.418	49.83
591.756	49.98
592.093	50.03
592.431	50.11
592.769	50.23
593.106	50.22
593.444	50.31
593.781	50.35
594.119	50.37
594.456	50.49
594.793	50.58
595.131	50.65
595.468	50.68
595.805	50.75
596.143	50.84
596.48	50.92
596.817	50.86
597.154	50.93
597.491	50.98
597.828	51.09
598.165	51.19
598.502	51.21
598.839	51.21
599.176	51.23
599.512	51.29
599.849	51.26
600.186	51.35
600.523	51.42
600.859	51.54
601.196	51.66
601.532	51.7
601.869	51.8
602.205	51.86
602.542	51.91
602.878	51.94
603.215	52
603.551	52.04
603.887	52.18
604.223	52.25
604.56	52.29
604.896	52.25
605.232	52.23
605.568	52.28
605.904	52.26
606.24	52.39
606.576	52.42
606.912	52.54
607.248	52.64
607.583	52.7
607.919	52.71
608.255	52.7
608.591	52.77
608.926	52.75
609.262	52.76
609.597	52.84
609.933	52.86
610.268	52.86
610.604	52.84
610.939	52.89
611.275	52.96
611.61	52.94
611.945	53.04
612.281	53.12
612.616	53.22
612.951	53.37
613.286	53.31
613.621	53.38
613.956	53.42
614.291	53.41
614.626	53.47
614.961	53.53
615.296	53.54
615.631	53.62
615.966	53.69
616.3	53.82
616.635	53.84
616.97	53.88
617.304	54.01
617.639	54.11
617.973	54.14
618.308	54.15
618.642	54.28
618.977	54.27
619.311	54.36
619.646	54.42
619.98	54.47
620.314	54.56
620.648	54.66
620.983	54.63
621.317	54.56
621.651	54.59
621.985	54.66
622.319	54.74
622.653	54.69
622.987	54.83
623.321	54.8
623.655	54.84
623.988	54.91
624.322	54.87
624.656	54.86
624.99	54.77
625.323	54.7
625.657	54.73
625.99	54.79
626.324	54.78
626.657	54.72
626.991	54.67
627.324	54.7
627.658	54.66
627.991	54.7
628.324	54.83
628.657	54.78
628.991	54.8
629.324	54.81
629.657	54.84
629.99	54.82
630.323	54.8
630.656	54.81
630.989	54.81
631.322	54.84
631.655	54.83
631.987	54.93
632.32	55.01
632.653	55.08
632.986	55.02
633.318	54.97
633.651	55.04
633.984	55.06
634.316	55.03
634.649	54.98
634.981	55.07
635.313	55.02
635.646	55.15
635.978	55.12
636.31	55.22
636.643	55.17
636.975	55.17
637.307	55.31
637.639	55.25
637.971	55.25
638.303	55.32
638.635	55.31
638.967	55.29
639.299	55.32
639.631	55.29
639.963	55.3
640.295	55.43
640.626	55.35
640.958	55.35
641.29	55.42
641.621	55.46
641.953	55.45
642.285	55.51
642.616	55.46
642.948	55.5
643.279	55.44
643.61	55.52
643.942	55.5
644.273	55.45
644.604	55.48
644.936	55.38
645.267	55.38
645.598	55.38
645.929	55.47
646.26	55.42
646.591	55.39
646.922	55.44
647.253	55.37
647.584	55.43
647.915	55.57
648.245	55.54
648.576	55.66
648.907	55.71
649.238	55.7
649.568	55.72
649.899	55.74
650.229	55.78
650.56	55.77
650.89	55.73
651.221	55.73
651.551	55.77
651.882	55.89
652.212	55.87
652.542	56
652.872	56
653.203	56.12
653.533	56.22
653.863	56.28
654.193	56.39
654.523	56.4
654.853	56.46
655.183	56.52
655.513	56.47
655.843	56.43
656.172	56.43
656.502	56.53
656.832	56.55
657.162	56.57
657.491	56.57
657.821	56.65
658.15	56.51
658.48	56.56
658.809	56.54
659.139	56.62
659.468	56.56
659.798	56.61
660.127	56.66
660.456	56.69
660.785	56.66
661.115	56.64
661.444	56.68
661.773	56.6
662.102	56.63
662.431	56.63
662.76	56.71
663.089	56.73
663.418	56.65
663.747	56.68
664.076	56.79
664.404	56.7
664.733	56.67
665.062	56.84
665.39	56.76
665.719	56.77
666.048	56.67
666.376	56.75
666.705	56.65
667.033	56.57
667.362	56.46
667.69	56.39
668.018	56.27
668.347	56.23
668.675	56.18
669.003	56.14
669.331	56.18
669.659	56.02
669.987	56.14
670.315	56.2
670.643	56.09
670.971	56.04
671.299	56.16
671.627	56.17
671.955	56.15
672.283	56.17
672.61	56.19
672.938	56.3
673.266	56.32
673.593	56.38
673.921	56.35
674.249	56.35
674.576	56.54
674.904	56.66
675.231	56.69
675.558	56.69
675.886	56.78
676.213	56.83
676.54	56.87
676.867	56.83
677.195	56.79
677.522	56.97
677.849	56.91
678.176	57.05
678.503	57
678.83	56.98
679.157	56.96
679.484	56.94
679.81	56.88
680.137	56.81
680.464	56.78
680.791	56.74
681.117	56.8
681.444	56.73
681.771	56.73
682.097	56.72
682.424	56.69
682.75	56.64
683.077	56.55
683.403	56.58
683.729	56.44
684.056	56.46
684.382	56.41
684.708	56.34
685.034	56.13
685.36	56.21
685.686	56.24
686.012	56.23
686.339	56.18
686.664	56.13
686.99	56.14
687.316	56.12
687.642	56.2
687.968	56.11
688.294	56.18
688.619	56.19
688.945	56.26
689.271	56.28
689.596	56.3
689.922	56.3
690.247	56.26
690.573	56.25
690.898	56.25
691.224	56.26
691.549	56.4
691.874	56.42
692.2	56.47
692.525	56.51
692.85	56.71
693.175	56.77
693.5	56.79
693.825	56.84
694.15	56.84
694.475	56.84
694.8	56.79
695.125	56.73
695.45	56.55
695.775	56.59
696.099	56.69
696.424	56.72
696.749	56.63
697.073	56.63
697.398	56.73
697.723	56.64
698.047	56.57
698.372	56.6
698.696	56.75
699.02	56.63
699.345	56.63
699.669	56.68
699.993	56.73
700.318	56.79
700.642	56.86
700.966	56.83
701.29	56.89
701.614	56.97
701.938	56.9
702.262	57.13
702.586	57.03
702.91	57
703.234	56.99
703.557	57.22
703.881	57.25
704.205	57.22
704.529	57.39
704.852	57.34
705.176	57.17
705.499	57
705.823	57.14
706.146	57.12
706.47	56.95
706.793	56.99
707.117	57.05
707.44	57.06
707.763	57.22
708.086	57.28
708.409	57.29
708.733	57.21
709.056	57.21
709.379	57.4
709.702	57.46
710.025	57.37
710.348	57.19
710.671	57.19
710.993	57.27
711.316	57.25
711.639	57.37
711.962	57.43
712.284	57.58
712.607	57.54
712.93	57.71
713.252	57.76
713.575	57.66
713.897	57.46
714.22	57.3
714.542	57.28
714.864	57.18
715.187	57.13
715.509	57.34
715.831	57.31
716.153	57.07
716.475	56.97
716.798	57.01
717.12	57.21
717.442	57.21
717.764	57.3
718.085	57.14
718.407	57.11
718.729	57.08
719.051	57.05
719.373	56.97
719.695	56.81
720.016	56.83
720.338	56.93
720.659	57.22
720.981	57.35
721.302	57.54
721.624	57.5
721.945	57.68
722.267	57.78
722.588	57.76
722.909	57.96
723.231	58.01
723.552	58.06
723.873	57.71
724.194	57.57
724.515	57.47
724.836	57.72
725.157	57.56
725.478	57.38
725.799	57.39
726.12	57.49
726.441	57.55
726.762	57.56
727.083	57.23
727.403	57.14
727.724	57.01
728.045	56.87
728.365	56.85
728.686	56.83
729.006	56.61
729.327	56.55
729.647	56.7
729.967	56.49
730.288	56.47
730.608	56.69
730.928	56.93
731.249	57.11
731.569	57.04
731.889	57.29
732.209	57.46
732.529	57.45
732.849	57.35
733.169	57.23
733.489	57.24
733.809	57.6
734.129	57.67
734.448	57.91
734.768	57.97
735.088	57.97
735.408	57.91
735.727	58.02
736.047	58.19
736.366	58.18
736.686	58.24
737.005	58.46
737.325	58.33
737.644	58.27
737.963	57.98
738.283	57.97
738.602	57.81
738.921	57.99
739.24	57.9
739.56	58.02
739.879	58.13
740.198	58.11
740.517	57.93
740.836	57.88
741.155	57.61
741.473	57.5
741.792	57.69
742.111	57.78
742.43	57.63
742.748	57.58
743.067	57.21
743.386	57.49
743.704	57.38
744.023	57.39
744.341	57.43
744.66	57.87
744.978	57.95
745.297	57.81
745.615	57.78
745.933	57.97
746.252	57.75
746.57	57.81
746.888	57.55
747.206	57.46
747.524	57.34
747.842	57.32
748.16	57.17
748.478	56.89
748.796	56.69
749.114	56.99
749.432	56.77
749.749	57.04
750.067	56.85
750.385	56.82
750.703	57
751.02	57.06
751.338	56.77
751.655	56.84
751.973	57.05
752.29	56.87
752.608	56.59
752.925	56.98
753.242	56.95
753.56	57.05
753.877	57.3
754.194	57.37
754.511	57.56
754.828	57.64
755.145	57.97
755.462	57.71
755.779	57.9
756.096	58.07
756.413	58.41
756.73	58.35
757.047	58.3
757.364	58.15
757.68	58.04
757.997	57.66
758.314	57.55
758.63	57.45
758.947	57.41
759.264	57.29
759.58	57.18
759.896	56.99
760.213	57.21
760.529	57.14
760.846	56.98
761.162	57.02
761.478	57
761.794	56.74
762.11	57.05
762.426	56.7
762.743	56.89
763.059	56.37
763.375	56.37
763.69	56.58
764.006	56.7
764.322	56.79
764.638	57.02
764.954	57.03
765.27	57.03
765.585	57.06
765.901	57.3
766.216	57.3
766.532	57.34
766.848	57.12
767.163	57.34
767.478	57.59
767.794	57.55
768.109	57.86
768.424	58.04
768.74	58.1
769.055	58.34
769.37	58.06
769.685	58.16
770	58.53
770.315	58.07
770.63	57.71
770.945	57.36
771.26	57.67
771.575	57.35
771.89	57.76
772.205	57.79
772.52	57.81
772.834	57.84
773.149	58.18
773.464	58.18
773.778	58.07
774.093	57.62
774.407	57.62
774.722	57.25
775.036	57.03
775.351	56.82
775.665	56.07
775.979	56.16
776.293	56.63
776.608	56.45
776.922	56.51
777.236	56.87
777.55	56.98
777.864	56.59
778.178	57.51
778.492	57.3
778.806	57.59
779.12	57.43
779.434	57.2
779.747	56.48
780.061	56.79
780.375	56.29
780.689	56.63
781.002	56.53
781.316	56.6
781.629	56.81
781.943	57.07
782.256	57.58
782.57	57.54
782.883	57
783.196	57.1
783.51	57.19
783.823	56.8
784.136	57.06
784.449	56.83
784.762	56.28
785.075	56.15
785.388	55.58
785.701	55.26
786.014	55.43
786.327	56.02
786.64	56.06
786.953	56.73
787.266	56.86
787.578	56.91
787.891	57.22
788.204	56.91
788.516	56.5
788.829	56.86
789.141	56.71
789.454	56.67
789.766	56.6
790.079	56.68
790.391	56.88
790.703	56.73
791.016	57.74
791.328	58.04
791.64	58.1
791.952	58.55
792.264	59.31
792.576	59.01
792.888	58.91
793.2	58.52
793.512	58.01
793.824	58
794.136	58.25
794.448	57.96
794.76	58.69
795.071	58.87
795.383	58.67
795.695	59.13
796.006	59.02
796.318	58.95
796.629	59.55
796.941	59.72
797.252	59.72
797.564	59.05
797.875	58.53
798.186	58.55
798.497	58.84
798.809	58.42
799.12	58.41
799.431	58.5
799.742	58.92
800.053	59.33
800.364	59.18
800.675	58.8
800.986	59.28
801.297	59.14
801.608	59.09
801.918	59.26
802.229	58.74
802.54	58.89
802.851	59.21
803.161	58.6
803.472	58.47
803.782	58.45
804.093	58.57
804.403	58.96
804.714	58.9
805.024	58.65
805.334	58.17
805.645	58.95
805.955	58.89
806.265	58.32
806.575	57.42
806.885	57.65
807.195	57.78
807.505	56.68
807.815	56.41
808.125	56.74
808.435	56.77
808.745	56.95
809.055	57.64
809.365	57.62
809.674	57.2
809.984	57.76
810.294	57.91
810.603	57.9
810.913	57.69
811.222	57.56
811.532	57.72
811.841	58.44
812.151	58.35
812.46	57.5
812.769	57.6
813.079	58.22
813.388	58.01
813.697	58.21
814.006	59.28
814.315	59.33
814.624	58.99
814.933	58.95
815.242	58.97
815.551	58.36
815.86	57.83
816.169	57.98
816.478	58.01
816.786	57.62
817.095	56.73
817.404	57.16
817.712	57.17
818.021	57.25
818.33	56.39
818.638	56.87
818.947	57.38
819.255	57.8
819.563	57.39
819.872	57.54
820.18	57.37
820.488	57.22
820.796	57.54
821.105	57.74
821.413	57.8
821.721	57.71
822.029	57.92
822.337	58.13
822.645	58.16
822.953	58.11
823.26	58.06
823.568	58.04
823.876	57.97
824.184	57.96
824.491	57.83
824.799	58.06
825.107	57.85
825.414	57.95
825.722	57.97
826.029	58.1
826.337	58.08
826.644	58.36
826.951	58.35
827.259	58.17
827.566	57.9
827.873	57.71
828.18	57.93
828.488	57.8
828.795	57.7
829.102	57.77
829.409	57.79
829.716	58.19
830.023	58.34
830.329	57.93
830.636	58.2
830.943	58.52
831.25	58.56
831.557	58.7
831.863	58.82
832.17	58.26
832.476	58.26
832.783	58.33
833.089	58.1
833.396	58
833.702	57.46
834.009	57.76
834.315	57.81
834.621	57.52
834.928	57.47
835.234	57.11
835.54	56.87
835.846	56.39
836.152	56.22
836.458	56.27
836.764	57.1
837.07	56.97
837.376	56.63
837.682	56.35
837.988	56.03
838.293	55.55
838.599	56.18
838.905	56
839.211	55.72
839.516	55.53
839.822	55.44
840.127	56.36
840.433	56.37
840.738	56.53
841.044	56.75
841.349	56.94
841.654	57
841.959	57.35
842.265	58.42
842.57	58.3
842.875	58.39
843.18	57.27
843.485	57.04
843.79	57.33
844.095	57.06
844.4	56.89
844.705	56.79
845.01	56.62
845.315	56.73
845.619	56.27
845.924	56.79
846.229	56.71
846.533	56.51
846.838	57.47
847.142	57.94
847.447	56.47
847.751	57.23
848.056	58.61
848.36	58.45
848.664	57.91
848.969	57.43
849.273	57.55
849.577	59.71
849.881	58.75
850.185	57.63
850.489	59.41
850.794	59.45
851.097	60.38
851.401	60.7
851.705	59.91
852.009	60.01
852.313	58.37
852.617	58.61
852.92	59.93
853.224	57.63
853.528	58.33
853.831	58.93
854.135	59.01
854.438	57.69
854.742	58.53
855.045	58.12
855.349	58.17
855.652	60.44
855.955	58.99
856.259	60.88
856.562	59.67
856.865	57.12
857.168	56.69
857.471	58.13
857.774	57.61
858.077	58.8
858.38	59.96
858.683	59.89
858.986	58.19
859.289	56.73
859.592	58.04
859.894	55.8
860.197	56.27
860.5	53.34
860.802	54.94
861.105	54.99
861.407	54.35
861.71	56.61
862.012	53.21
862.315	53.75
862.617	51.9
862.919	54.52
863.222	57.74
863.524	58.84
863.826	57.42
864.128	55.12
864.43	55.5
864.732	54.72
865.034	55.23
865.336	57.51
865.638	56.85
865.94	56.37
866.242	56.57
866.544	59.92
866.846	62.64
867.147	63.39
867.449	62.12
867.751	62.32
868.052	61.27
868.354	63.05
868.655	62.13
868.957	61.69
869.258	60.77
869.56	60.84
869.861	60.71
870.162	59.61
870.463	62.7
870.765	64.1
871.066	65.34
871.367	66.86
871.668	65.04
871.969	66.51
872.27	67.96
872.571	70.91
872.872	67.21
873.173	65.8
873.473	62.27
873.774	63.26
874.075	64.75
874.376	63.24
874.676	63.72
874.977	64.25
875.277	66.07
875.578	67.27
875.878	65.95
876.179	66.99
876.479	68.45
876.78	68.19
877.08	66.94
877.38	66.28
877.68	64.18
877.981	67.2
878.281	66.76
878.581	66.08
