Data from BA57730_Reflection_00011.txt Node
Date: Mon Nov 18 15:59:52 EST 2019
User: vgr7
Spectrometer: USB2G7710
Scans to average: 3
Trigger mode: 4
Integration Time (sec): 2.000000E-2
Electric dark correction enabled: true
Boxcar width: 10
XAxis mode: Wavelengths
Number of Pixels in Spectrum: 2048
>>>>>Begin Spectral Data<<<<<
177.721	-2788.89
178.105	132.68
178.488	105.49
178.871	57.26
179.254	53.36
179.636	-22.9
180.019	35.38
180.402	53.49
180.785	1.51
181.168	-11.11
181.55	-40.72
181.933	269.7
182.316	162.46
182.698	119.64
183.081	115.35
183.463	139.63
183.846	71.06
184.228	144.04
184.611	317.05
184.993	426.34
185.376	228.36
185.758	232.1
186.14	159.18
186.522	139.96
186.904	97.03
187.287	91.3
187.669	55.21
188.051	95.97
188.433	988.89
188.815	197.28
189.197	151.92
189.579	127.51
189.961	148.4
190.342	58.67
190.724	186.17
191.106	-1407.25
191.488	-157.7
191.869	-86.89
192.251	-224.48
192.633	-259.88
193.014	-278.9
193.396	1304.68
193.777	-320.68
194.159	-258.1
194.54	-134.23
194.922	-66.35
195.303	-79.43
195.684	-135.54
196.065	-20.92
196.447	3.76
196.828	38.67
197.209	50.62
197.59	30.68
197.971	69.59
198.352	16.52
198.733	11.34
199.114	33.92
199.495	-16.45
199.876	77.25
200.257	75.03
200.638	121.26
201.018	46.56
201.399	80.92
201.78	58.41
202.16	67.62
202.541	-16.45
202.922	120.36
203.302	38.19
203.683	-1755.07
204.063	250.45
204.444	148.99
204.824	172.94
205.204	582.54
205.585	725.51
205.965	725.64
206.345	171.59
206.725	111.85
207.106	78.87
207.486	77.29
207.866	152
208.246	150.31
208.626	195.95
209.006	228.1
209.386	194.69
209.766	403.03
210.145	-1161.26
210.525	-63.32
210.905	-1.8
211.285	-14.42
211.664	21.88
212.044	29.74
212.424	23.85
212.803	21.04
213.183	29.97
213.562	37.88
213.942	21.24
214.321	15.54
214.701	18.25
215.08	4.18
215.459	8.83
215.838	19.19
216.218	25.36
216.597	41.04
216.976	41.47
217.355	46
217.734	32.36
218.113	27.53
218.492	19.55
218.871	21.29
219.25	33.18
219.629	30.76
220.008	13.73
220.387	3.05
220.766	2.57
221.144	-12.85
221.523	-19.59
221.902	0.03
222.28	-25.3
222.659	-25.71
223.037	-7.64
223.416	-12.63
223.794	-17.45
224.173	-32.42
224.551	-34.03
224.929	-25.96
225.308	-11.87
225.686	-0.95
226.064	-3.6
226.442	-6.3
226.821	-7.27
227.199	-10.47
227.577	-8.75
227.955	-8.82
228.333	-4.69
228.711	0.72
229.089	3.56
229.467	2.19
229.845	-1.5
230.222	0.81
230.6	1.81
230.978	0.14
231.356	1.96
231.733	-1.49
232.111	2.58
232.488	3.27
232.866	3.87
233.243	2.73
233.621	0.75
233.998	2.48
234.376	4.56
234.753	4.04
235.13	4.86
235.508	5.36
235.885	6.94
236.262	6.25
236.639	3.53
237.016	1.94
237.393	3.7
237.77	4.21
238.147	4.51
238.524	4.19
238.901	5.06
239.278	4.13
239.655	5.71
240.032	5.39
240.409	4.63
240.785	5.19
241.162	5.34
241.539	5.11
241.915	5.25
242.292	4.82
242.668	5.05
243.045	4.96
243.421	4.72
243.798	4.32
244.174	4.31
244.551	4.68
244.927	4.85
245.303	4.89
245.679	5.12
246.056	5.03
246.432	5.02
246.808	5.24
247.184	5.26
247.56	4.93
247.936	4.76
248.312	4.92
248.688	4.93
249.064	4.72
249.44	4.84
249.815	4.81
250.191	4.96
250.567	4.8
250.943	4.56
251.318	4.88
251.694	5.12
252.069	5.1
252.445	5
252.82	5.14
253.196	4.97
253.571	4.71
253.947	4.83
254.322	5.25
254.697	4.85
255.073	4.53
255.448	4.6
255.823	4.51
256.198	4.58
256.573	4.61
256.948	4.72
257.323	4.74
257.698	4.64
258.073	4.59
258.448	4.56
258.823	4.53
259.198	4.2
259.573	4.12
259.948	4
260.322	4.02
260.697	3.96
261.072	3.94
261.446	3.97
261.821	3.95
262.195	3.66
262.57	3.6
262.944	3.78
263.319	3.75
263.693	3.73
264.067	3.57
264.442	3.57
264.816	3.61
265.19	3.49
265.564	3.49
265.938	3.47
266.313	3.51
266.687	3.62
267.061	3.83
267.435	3.81
267.809	3.74
268.183	3.73
268.556	3.74
268.93	3.69
269.304	3.65
269.678	3.75
270.051	3.98
270.425	4.1
270.799	4
271.172	4.02
271.546	4.02
271.919	3.97
272.293	3.9
272.666	3.81
273.04	3.89
273.413	3.94
273.787	3.88
274.16	3.86
274.533	3.9
274.906	3.83
275.279	3.93
275.653	4
276.026	3.87
276.399	3.83
276.772	3.92
277.145	3.92
277.518	3.86
277.891	3.74
278.263	3.73
278.636	3.78
279.009	3.69
279.382	3.84
279.755	3.9
280.127	3.94
280.5	4.1
280.872	4.34
281.245	4.17
281.617	4.41
281.99	4.49
282.362	4.5
282.735	4.5
283.107	4.28
283.479	4.28
283.852	4.35
284.224	4.38
284.596	4.44
284.968	4.39
285.34	4.36
285.713	4.26
286.085	4.26
286.457	4.41
286.829	4.54
287.201	4.53
287.572	4.49
287.944	4.35
288.316	4.36
288.688	4.21
289.06	4.26
289.431	4.11
289.803	4.04
290.175	3.9
290.546	4.03
290.918	4.01
291.289	4.09
291.661	4.25
292.032	4.26
292.403	4.16
292.775	4.2
293.146	4.16
293.517	4.29
293.889	4.26
294.26	4.19
294.631	4.23
295.002	4.21
295.373	4.23
295.744	4.27
296.115	4.16
296.486	4.12
296.857	4.18
297.228	4.14
297.599	4.13
297.97	4.3
298.34	4.13
298.711	4.39
299.082	4.27
299.452	4.2
299.823	4.29
300.194	4.32
300.564	4.33
300.935	4.38
301.305	4.38
301.676	4.46
302.046	4.4
302.416	4.38
302.787	4.32
303.157	4.4
303.527	4.38
303.897	4.29
304.267	4.49
304.637	4.6
305.008	4.69
305.378	4.8
305.748	4.81
306.117	4.82
306.487	4.66
306.857	4.99
307.227	4.91
307.597	4.84
307.967	4.84
308.336	4.95
308.706	4.89
309.076	4.95
309.445	4.89
309.815	5.02
310.184	5
310.554	5.03
310.923	5
311.293	4.99
311.662	5
312.031	4.78
312.401	4.76
312.77	4.79
313.139	4.93
313.508	4.83
313.877	4.86
314.246	4.93
314.616	4.85
314.985	5
315.353	5.05
315.722	5.38
316.091	5.21
316.46	5.31
316.829	5.22
317.198	5.38
317.567	5.28
317.935	5.47
318.304	5.7
318.672	5.71
319.041	5.84
319.41	6.03
319.778	6.11
320.147	6.18
320.515	6.19
320.883	6.08
321.252	6.33
321.62	6.51
321.988	6.66
322.357	6.71
322.725	6.66
323.093	6.61
323.461	6.41
323.829	6.56
324.197	6.62
324.565	6.73
324.933	6.68
325.301	6.76
325.669	6.68
326.037	6.55
326.405	6.75
326.772	6.91
327.14	7.03
327.508	7.12
327.875	7.11
328.243	7.2
328.61	7.29
328.978	7.34
329.346	7.45
329.713	7.34
330.08	7.45
330.448	7.5
330.815	7.63
331.182	7.62
331.55	7.73
331.917	7.88
332.284	8.09
332.651	8.21
333.018	8.31
333.385	8.35
333.752	8.53
334.119	8.54
334.486	8.52
334.853	8.51
335.22	8.59
335.587	8.67
335.954	8.69
336.32	8.52
336.687	8.52
337.054	8.47
337.42	8.66
337.787	8.62
338.153	8.57
338.52	8.58
338.886	8.55
339.253	8.6
339.619	8.53
339.986	8.37
340.352	8.28
340.718	8.34
341.084	8.35
341.451	8.33
341.817	8.4
342.183	8.41
342.549	8.37
342.915	8.39
343.281	8.44
343.647	8.53
344.013	8.69
344.379	8.65
344.745	8.66
345.11	8.63
345.476	8.63
345.842	8.78
346.208	8.82
346.573	8.98
346.939	9.06
347.304	9.03
347.67	9.14
348.035	9.29
348.401	9.24
348.766	9.25
349.132	9.24
349.497	9.26
349.862	9.32
350.228	9.4
350.593	9.43
350.958	9.45
351.323	9.41
351.688	9.43
352.053	9.5
352.418	9.6
352.783	9.54
353.148	9.56
353.513	9.47
353.878	9.45
354.243	9.45
354.608	9.41
354.972	9.45
355.337	9.44
355.702	9.46
356.066	9.51
356.431	9.59
356.795	9.59
357.16	9.55
357.524	9.48
357.889	9.52
358.253	9.44
358.618	9.4
358.982	9.32
359.346	9.3
359.71	9.35
360.075	9.25
360.439	9.28
360.803	9.29
361.167	9.31
361.531	9.26
361.895	9.21
362.259	9.19
362.623	9.18
362.987	9.17
363.351	9.06
363.714	9.03
364.078	8.97
364.442	8.94
364.806	8.94
365.169	8.87
365.533	8.76
365.896	8.78
366.26	8.74
366.623	8.69
366.987	8.66
367.35	8.54
367.714	8.54
368.077	8.4
368.44	8.3
368.803	8.27
369.167	8.27
369.53	8.24
369.893	8.23
370.256	8.21
370.619	8.17
370.982	8.15
371.345	8.04
371.708	7.99
372.071	7.96
372.434	7.83
372.797	7.81
373.159	7.75
373.522	7.68
373.885	7.62
374.247	7.65
374.61	7.66
374.973	7.59
375.335	7.57
375.698	7.61
376.06	7.58
376.423	7.56
376.785	7.48
377.147	7.48
377.51	7.38
377.872	7.33
378.234	7.25
378.596	7.18
378.958	7.16
379.321	7.18
379.683	7.14
380.045	7.1
380.407	7.01
380.769	7
381.13	6.97
381.492	6.9
381.854	6.84
382.216	6.72
382.578	6.69
382.939	6.66
383.301	6.55
383.663	6.5
384.024	6.43
384.386	6.43
384.747	6.33
385.109	6.35
385.47	6.29
385.832	6.26
386.193	6.27
386.554	6.25
386.916	6.14
387.277	6.1
387.638	6.09
387.999	6.06
388.36	6.02
388.721	6.03
389.082	6.02
389.443	5.98
389.804	5.98
390.165	5.94
390.526	5.87
390.887	5.86
391.248	5.88
391.609	5.86
391.969	5.86
392.33	5.82
392.691	5.74
393.051	5.67
393.412	5.65
393.772	5.6
394.133	5.53
394.493	5.55
394.854	5.53
395.214	5.47
395.574	5.47
395.935	5.41
396.295	5.34
396.655	5.33
397.015	5.29
397.376	5.24
397.736	5.23
398.096	5.18
398.456	5.15
398.816	5.08
399.176	4.99
399.535	4.92
399.895	4.9
400.255	4.89
400.615	4.88
400.975	4.81
401.334	4.79
401.694	4.77
402.054	4.67
402.413	4.62
402.773	4.58
403.132	4.56
403.492	4.54
403.851	4.51
404.211	4.51
404.57	4.5
404.929	4.48
405.288	4.44
405.648	4.43
406.007	4.4
406.366	4.38
406.725	4.39
407.084	4.37
407.443	4.34
407.802	4.34
408.161	4.34
408.52	4.31
408.879	4.28
409.238	4.27
409.596	4.29
409.955	4.26
410.314	4.3
410.673	4.29
411.031	4.29
411.39	4.29
411.748	4.22
412.107	4.22
412.465	4.19
412.824	4.15
413.182	4.15
413.54	4.14
413.899	4.13
414.257	4.12
414.615	4.08
414.974	4.07
415.332	4.03
415.69	3.99
416.048	3.96
416.406	3.97
416.764	3.95
417.122	3.94
417.48	3.91
417.838	3.89
418.195	3.87
418.553	3.84
418.911	3.82
419.269	3.8
419.626	3.76
419.984	3.76
420.342	3.76
420.699	3.73
421.057	3.71
421.414	3.7
421.772	3.67
422.129	3.67
422.486	3.66
422.844	3.63
423.201	3.62
423.558	3.62
423.915	3.61
424.273	3.59
424.63	3.57
424.987	3.56
425.344	3.55
425.701	3.52
426.058	3.52
426.415	3.51
426.772	3.51
427.128	3.51
427.485	3.5
427.842	3.5
428.199	3.51
428.555	3.49
428.912	3.5
429.269	3.5
429.625	3.49
429.982	3.47
430.338	3.47
430.695	3.45
431.051	3.44
431.407	3.42
431.764	3.42
432.12	3.42
432.476	3.44
432.832	3.44
433.189	3.46
433.545	3.44
433.901	3.42
434.257	3.42
434.613	3.44
434.969	3.43
435.325	3.4
435.681	3.4
436.036	3.41
436.392	3.4
436.748	3.4
437.104	3.38
437.459	3.38
437.815	3.39
438.171	3.38
438.526	3.4
438.882	3.39
439.237	3.4
439.593	3.39
439.948	3.37
440.304	3.35
440.659	3.34
441.014	3.35
441.369	3.34
441.725	3.32
442.08	3.31
442.435	3.31
442.79	3.32
443.145	3.3
443.5	3.29
443.855	3.27
444.21	3.28
444.565	3.28
444.92	3.28
445.275	3.26
445.629	3.27
445.984	3.26
446.339	3.26
446.693	3.24
447.048	3.24
447.403	3.23
447.757	3.24
448.112	3.22
448.466	3.21
448.82	3.22
449.175	3.23
449.529	3.23
449.883	3.21
450.238	3.22
450.592	3.22
450.946	3.2
451.3	3.2
451.654	3.19
452.008	3.17
452.362	3.14
452.716	3.16
453.07	3.15
453.424	3.16
453.778	3.15
454.132	3.16
454.486	3.14
454.839	3.15
455.193	3.14
455.547	3.13
455.9	3.13
456.254	3.15
456.607	3.15
456.961	3.13
457.314	3.11
457.668	3.1
458.021	3.09
458.375	3.11
458.728	3.1
459.081	3.09
459.434	3.11
459.787	3.13
460.141	3.11
460.494	3.11
460.847	3.11
461.2	3.09
461.553	3.09
461.906	3.09
462.259	3.09
462.611	3.12
462.964	3.13
463.317	3.13
463.67	3.12
464.022	3.12
464.375	3.14
464.728	3.14
465.08	3.16
465.433	3.16
465.785	3.15
466.138	3.17
466.49	3.2
466.843	3.19
467.195	3.2
467.547	3.22
467.899	3.23
468.252	3.21
468.604	3.24
468.956	3.23
469.308	3.23
469.66	3.23
470.012	3.24
470.364	3.23
470.716	3.24
471.068	3.24
471.42	3.25
471.772	3.26
472.123	3.29
472.475	3.31
472.827	3.34
473.178	3.36
473.53	3.35
473.882	3.33
474.233	3.34
474.585	3.33
474.936	3.34
475.288	3.35
475.639	3.37
475.99	3.37
476.342	3.37
476.693	3.4
477.044	3.43
477.395	3.39
477.746	3.41
478.097	3.41
478.448	3.42
478.8	3.39
479.15	3.38
479.501	3.36
479.852	3.36
480.203	3.34
480.554	3.34
480.905	3.35
481.255	3.35
481.606	3.35
481.957	3.36
482.307	3.37
482.658	3.37
483.009	3.37
483.359	3.37
483.709	3.38
484.06	3.36
484.41	3.36
484.761	3.36
485.111	3.36
485.461	3.36
485.811	3.36
486.162	3.37
486.512	3.38
486.862	3.38
487.212	3.36
487.562	3.37
487.912	3.37
488.262	3.36
488.612	3.37
488.961	3.37
489.311	3.37
489.661	3.35
490.011	3.35
490.36	3.35
490.71	3.35
491.06	3.35
491.409	3.37
491.759	3.36
492.108	3.36
492.458	3.36
492.807	3.35
493.157	3.36
493.506	3.36
493.855	3.38
494.204	3.39
494.554	3.43
494.903	3.42
495.252	3.43
495.601	3.45
495.95	3.46
496.299	3.49
496.648	3.49
496.997	3.51
497.346	3.55
497.695	3.58
498.043	3.61
498.392	3.61
498.741	3.62
499.09	3.66
499.438	3.71
499.787	3.72
500.135	3.78
500.484	3.81
500.832	3.84
501.181	3.86
501.529	3.92
501.878	3.93
502.226	3.98
502.574	4.02
502.923	4.06
503.271	4.1
503.619	4.16
503.967	4.19
504.315	4.24
504.663	4.27
505.011	4.31
505.359	4.33
505.707	4.4
506.055	4.46
506.403	4.51
506.751	4.55
507.098	4.6
507.446	4.62
507.794	4.67
508.141	4.72
508.489	4.75
508.837	4.78
509.184	4.83
509.531	4.87
509.879	4.94
510.226	5
510.574	5.04
510.921	5.06
511.268	5.09
511.616	5.13
511.963	5.18
512.31	5.22
512.657	5.31
513.004	5.38
513.351	5.42
513.698	5.48
514.045	5.52
514.392	5.6
514.739	5.68
515.086	5.75
515.432	5.8
515.779	5.87
516.126	5.96
516.473	6.02
516.819	6.1
517.166	6.14
517.512	6.17
517.859	6.25
518.205	6.31
518.552	6.4
518.898	6.47
519.245	6.55
519.591	6.63
519.937	6.67
520.283	6.7
520.629	6.79
520.976	6.87
521.322	6.96
521.668	7.04
522.014	7.13
522.36	7.21
522.706	7.32
523.052	7.44
523.398	7.56
523.743	7.68
524.089	7.8
524.435	7.95
524.781	8.08
525.126	8.19
525.472	8.3
525.817	8.4
526.163	8.49
526.509	8.59
526.854	8.67
527.199	8.77
527.545	8.87
527.89	8.97
528.235	9.07
528.581	9.18
528.926	9.28
529.271	9.36
529.616	9.47
529.961	9.56
530.306	9.66
530.651	9.78
530.996	9.91
531.341	10.04
531.686	10.16
532.031	10.3
532.376	10.46
532.721	10.62
533.065	10.78
533.41	10.96
533.755	11.13
534.099	11.33
534.444	11.51
534.788	11.68
535.133	11.88
535.477	12.08
535.822	12.29
536.166	12.51
536.51	12.78
536.855	13.06
537.199	13.35
537.543	13.64
537.887	13.92
538.231	14.21
538.576	14.49
538.92	14.79
539.264	15.07
539.608	15.33
539.951	15.58
540.295	15.84
540.639	16.12
540.983	16.36
541.327	16.59
541.671	16.85
542.014	17.11
542.358	17.33
542.701	17.57
543.045	17.8
543.389	18.04
543.732	18.28
544.075	18.53
544.419	18.82
544.762	19.11
545.105	19.41
545.449	19.72
545.792	20.04
546.135	20.42
546.478	20.75
546.821	21.14
547.165	21.52
547.508	21.88
547.851	22.26
548.194	22.64
548.536	23.02
548.879	23.45
549.222	23.85
549.565	24.25
549.908	24.68
550.25	25.09
550.593	25.49
550.936	25.94
551.278	26.33
551.621	26.7
551.963	27.11
552.306	27.51
552.648	27.89
552.991	28.33
553.333	28.67
553.675	29.06
554.017	29.46
554.36	29.8
554.702	30.21
555.044	30.54
555.386	30.92
555.728	31.3
556.07	31.65
556.412	32.02
556.754	32.44
557.096	32.82
557.438	33.25
557.78	33.67
558.121	34.05
558.463	34.54
558.805	34.98
559.147	35.39
559.488	35.75
559.83	36.21
560.171	36.59
560.513	37.03
560.854	37.39
561.196	37.75
561.537	38.17
561.878	38.47
562.22	38.78
562.561	39.1
562.902	39.48
563.243	39.79
563.584	40.1
563.925	40.39
564.266	40.6
564.607	40.88
564.948	41.24
565.289	41.52
565.63	41.78
565.971	42
566.312	42.24
566.653	42.51
566.993	42.7
567.334	42.97
567.675	43.17
568.015	43.42
568.356	43.69
568.696	43.96
569.037	44.25
569.377	44.57
569.718	44.77
570.058	44.95
570.398	45.23
570.739	45.45
571.079	45.67
571.419	45.94
571.759	46.19
572.099	46.36
572.439	46.56
572.779	46.76
573.119	47
573.459	47.18
573.799	47.38
574.139	47.57
574.479	47.74
574.819	47.94
575.158	48.14
575.498	48.28
575.838	48.44
576.177	48.61
576.517	48.72
576.856	49
577.196	49.23
577.535	49.36
577.875	49.58
578.214	49.8
578.553	49.97
578.893	50.11
579.232	50.34
579.571	50.55
579.91	50.7
580.25	50.82
580.589	51.1
580.928	51.34
581.267	51.55
581.606	51.72
581.945	51.85
582.283	52
582.622	52.2
582.961	52.34
583.3	52.5
583.639	52.74
583.977	52.83
584.316	52.99
584.654	53.21
584.993	53.33
585.332	53.49
585.67	53.68
586.008	53.88
586.347	53.95
586.685	54.02
587.024	54.17
587.362	54.35
587.7	54.38
588.038	54.44
588.376	54.57
588.715	54.69
589.053	54.84
589.391	54.95
589.729	55.08
590.067	55.16
590.404	55.27
590.742	55.32
591.08	55.46
591.418	55.58
591.756	55.62
592.093	55.67
592.431	55.76
592.769	55.85
593.106	55.89
593.444	55.96
593.781	56.05
594.119	56.11
594.456	56.19
594.793	56.3
595.131	56.34
595.468	56.4
595.805	56.5
596.143	56.6
596.48	56.69
596.817	56.64
597.154	56.72
597.491	56.74
597.828	56.84
598.165	56.9
598.502	56.87
598.839	56.96
599.176	57.07
599.512	57.14
599.849	57.22
600.186	57.32
600.523	57.37
600.859	57.42
601.196	57.5
601.532	57.55
601.869	57.62
602.205	57.67
602.542	57.68
602.878	57.68
603.215	57.66
603.551	57.66
603.887	57.74
604.223	57.84
604.56	57.97
604.896	57.96
605.232	58.06
605.568	58.2
605.904	58.26
606.24	58.33
606.576	58.43
606.912	58.48
607.248	58.49
607.583	58.59
607.919	58.72
608.255	58.77
608.591	58.87
608.926	58.9
609.262	58.96
609.597	59.09
609.933	59.18
610.268	59.29
610.604	59.41
610.939	59.51
611.275	59.6
611.61	59.59
611.945	59.73
612.281	59.68
612.616	59.72
612.951	59.74
613.286	59.71
613.621	59.67
613.956	59.7
614.291	59.8
614.626	59.86
614.961	59.87
615.296	59.92
615.631	59.94
615.966	60.03
616.3	60.19
616.635	60.18
616.97	60.21
617.304	60.2
617.639	60.28
617.973	60.42
618.308	60.4
618.642	60.44
618.977	60.43
619.311	60.52
619.646	60.52
619.98	60.65
620.314	60.73
620.648	60.81
620.983	60.87
621.317	60.98
621.651	61.06
621.985	61.15
622.319	61.13
622.653	61.13
622.987	61.12
623.321	61.17
623.655	61.2
623.988	61.26
624.322	61.32
624.656	61.28
624.99	61.18
625.323	61.27
625.657	61.25
625.99	61.27
626.324	61.36
626.657	61.4
626.991	61.41
627.324	61.47
627.658	61.5
627.991	61.58
628.324	61.54
628.657	61.56
628.991	61.48
629.324	61.5
629.657	61.55
629.99	61.6
630.323	61.59
630.656	61.64
630.989	61.66
631.322	61.71
631.655	61.72
631.987	61.75
632.32	61.83
632.653	61.92
632.986	61.92
633.318	61.85
633.651	61.83
633.984	61.82
634.316	61.78
634.649	61.85
634.981	61.88
635.313	61.86
635.646	61.77
635.978	61.83
636.31	61.9
636.643	61.87
636.975	61.95
637.307	61.97
637.639	62.01
637.971	61.95
638.303	62.1
638.635	62.08
638.967	62.1
639.299	62.04
639.631	62.02
639.963	62.08
640.295	62.21
640.626	62.26
640.958	62.34
641.29	62.45
641.621	62.4
641.953	62.31
642.285	62.48
642.616	62.61
642.948	62.69
643.279	62.8
643.61	62.88
643.942	62.86
644.273	63
644.604	63.03
644.936	63.14
645.267	62.98
645.598	63.1
645.929	63.2
646.26	63.13
646.591	63.16
646.922	63.06
647.253	63.1
647.584	63.12
647.915	63.16
648.245	63.13
648.576	63.32
648.907	63.33
649.238	63.32
649.568	63.22
649.899	63.17
650.229	63.15
650.56	63.15
650.89	63.24
651.221	63.03
651.551	62.99
651.882	62.98
652.212	62.98
652.542	62.98
652.872	62.89
653.203	62.94
653.533	62.96
653.863	63.17
654.193	63.11
654.523	63.17
654.853	63.13
655.183	63.14
655.513	62.92
655.843	62.93
656.172	62.89
656.502	62.95
656.832	63.12
657.162	63.07
657.491	63.05
657.821	63.08
658.15	63.2
658.48	63.2
658.809	63.32
659.139	63.32
659.468	63.37
659.798	63.49
660.127	63.58
660.456	63.51
660.785	63.44
661.115	63.5
661.444	63.43
661.773	63.48
662.102	63.51
662.431	63.61
662.76	63.66
663.089	63.69
663.418	63.7
663.747	63.52
664.076	63.49
664.404	63.54
664.733	63.47
665.062	63.41
665.39	63.45
665.719	63.38
666.048	63.42
666.376	63.35
666.705	63.27
667.033	63.25
667.362	63.29
667.69	63.25
668.018	63.28
668.347	63.38
668.675	63.4
669.003	63.41
669.331	63.59
669.659	63.56
669.987	63.57
670.315	63.75
670.643	63.77
670.971	63.89
671.299	63.91
671.627	64.02
671.955	64.06
672.283	64.2
672.61	64.01
672.938	64.07
673.266	64.2
673.593	64.34
673.921	64.18
674.249	64.32
674.576	64.45
674.904	64.52
675.231	64.55
675.558	64.54
675.886	64.6
676.213	64.3
676.54	64.39
676.867	64.32
677.195	64.23
677.522	64.38
677.849	64.33
678.176	64.3
678.503	64.29
678.83	64.41
679.157	64.28
679.484	64.53
679.81	64.58
680.137	64.49
680.464	64.42
680.791	64.56
681.117	64.53
681.444	64.43
681.771	64.36
682.097	64.38
682.424	64.42
682.75	64.29
683.077	64.41
683.403	64.39
683.729	64.45
684.056	64.33
684.382	64.3
684.708	64.34
685.034	64.51
685.36	64.67
685.686	64.63
686.012	64.7
686.339	64.61
686.664	64.53
686.99	64.61
687.316	64.59
687.642	64.52
687.968	64.57
688.294	64.63
688.619	64.71
688.945	64.65
689.271	64.52
689.596	64.75
689.922	64.81
690.247	64.88
690.573	64.85
690.898	65.04
691.224	64.97
691.549	65
691.874	64.76
692.2	64.52
692.525	64.43
692.85	64.51
693.175	64.35
693.5	64.25
693.825	64.14
694.15	64.23
694.475	64.4
694.8	64.25
695.125	64.11
695.45	63.99
695.775	64.01
696.099	64.13
696.424	64.05
696.749	63.97
697.073	63.83
697.398	63.85
697.723	63.79
698.047	63.85
698.372	63.77
698.696	63.9
699.02	63.79
699.345	63.82
699.669	63.75
699.993	63.81
700.318	63.91
700.642	64.05
700.966	64.07
701.29	63.97
701.614	64.07
701.938	64.25
702.262	64.35
702.586	64.36
702.91	64.27
703.234	64.33
703.557	64.39
703.881	64.37
704.205	64.43
704.529	64.52
704.852	64.44
705.176	64.69
705.499	64.58
705.823	64.81
706.146	64.7
706.47	64.73
706.793	64.84
707.117	64.87
707.44	64.79
707.763	64.81
708.086	64.78
708.409	64.75
708.733	64.8
709.056	64.59
709.379	64.56
709.702	64.65
710.025	64.56
710.348	64.55
710.671	64.72
710.993	64.77
711.316	64.64
711.639	64.85
711.962	64.63
712.284	64.78
712.607	64.74
712.93	64.95
713.252	64.92
713.575	65
713.897	65.02
714.22	65.11
714.542	65.08
714.864	65.22
715.187	65.21
715.509	65.07
715.831	65.22
716.153	65.33
716.475	65.27
716.798	65.25
717.12	65.24
717.442	65.3
717.764	65.29
718.085	65.45
718.407	65.28
718.729	65.44
719.051	65.41
719.373	65.52
719.695	65.41
720.016	65.35
720.338	65.13
720.659	65.2
720.981	65.09
721.302	64.95
721.624	65.04
721.945	65.15
722.267	65.37
722.588	65.38
722.909	65.23
723.231	65.36
723.552	65.65
723.873	65.68
724.194	65.6
724.515	65.42
724.836	65.36
725.157	65.17
725.478	64.99
725.799	64.86
726.12	64.5
726.441	64.54
726.762	64.55
727.083	64.66
727.403	64.71
727.724	64.63
728.045	64.58
728.365	64.54
728.686	64.56
729.006	64.37
729.327	64.33
729.647	64.48
729.967	64.54
730.288	64.32
730.608	64.3
730.928	64.21
731.249	64.18
731.569	64.42
731.889	64.6
732.209	64.77
732.529	65.08
732.849	65.36
733.169	65.39
733.489	65.47
733.809	65.6
734.129	65.66
734.448	65.77
734.768	66.03
735.088	65.85
735.408	65.86
735.727	65.9
736.047	65.98
736.366	65.86
736.686	65.81
737.005	65.89
737.325	66.14
737.644	66.34
737.963	66.75
738.283	66.51
738.602	66.84
738.921	66.81
739.24	66.54
739.56	66.35
739.879	66.37
740.198	66.55
740.517	66.65
740.836	66.44
741.155	66.39
741.473	66.09
741.792	66.23
742.111	66.31
742.43	66.15
742.748	66.1
743.067	66.43
743.386	66.57
743.704	66.61
744.023	66.49
744.341	66.2
744.66	66.14
744.978	66.11
745.297	65.71
745.615	65.73
745.933	65.77
746.252	65.8
746.57	65.78
746.888	65.65
747.206	65.55
747.524	65.61
747.842	65.42
748.16	65.75
748.478	65.82
748.796	65.65
749.114	65.82
749.432	65.85
749.749	65.62
750.067	65.57
750.385	65.41
750.703	65.23
751.02	65.57
751.338	65.35
751.655	65.31
751.973	65.29
752.29	65.14
752.608	65.33
752.925	65.46
753.242	65.5
753.56	65.16
753.877	65.18
754.194	64.99
754.511	65
754.828	64.56
755.145	64.46
755.462	64.56
755.779	64.57
756.096	64.73
756.413	64.7
756.73	64.55
757.047	64.56
757.364	64.77
757.68	64.59
757.997	64.73
758.314	64.98
758.63	65.03
758.947	65.29
759.264	65.46
759.58	65.36
759.896	65.2
760.213	65.58
760.529	65.33
760.846	65.19
761.162	65.48
761.478	65.77
761.794	65.83
762.11	65.99
762.426	66.05
762.743	66.06
763.059	66.11
763.375	66.17
763.69	65.89
764.006	65.8
764.322	66
764.638	65.9
764.954	65.62
765.27	65.93
765.585	65.84
765.901	65.67
766.216	65.75
766.532	66
766.848	65.89
767.163	65.92
767.478	66.37
767.794	66.48
768.109	66.45
768.424	66.41
768.74	66.47
769.055	66.44
769.37	66.2
769.685	65.98
770	66.21
770.315	66.77
770.63	67.05
770.945	66.84
771.26	67.07
771.575	67.38
771.89	66.91
772.205	67.34
772.52	67.02
772.834	67.34
773.149	67.21
773.464	67.48
773.778	67.79
774.093	67.4
774.407	67.28
774.722	67.3
775.036	67.74
775.351	67.24
775.665	67.41
775.979	67.36
776.293	67.4
776.608	67.07
776.922	66.87
777.236	66.78
777.55	66.52
777.864	66.01
778.178	65.73
778.492	66.08
778.806	65.72
779.12	65.96
779.434	65.19
779.747	65.41
780.061	65.2
780.375	64.93
780.689	65.08
781.002	65.3
781.316	65.19
781.629	64.85
781.943	64.64
782.256	64.53
782.57	64.84
782.883	65.05
783.196	65.21
783.51	65.53
783.823	65.58
784.136	65.91
784.449	66.45
784.762	66.53
785.075	66.26
785.388	66.13
785.701	65.84
786.014	66.56
786.327	65.99
786.64	65.96
786.953	66.19
787.266	65.96
787.578	65.62
787.891	65.35
788.204	65.28
788.516	65.71
788.829	65.71
789.141	65.22
789.454	65.47
789.766	65.51
790.079	65.64
790.391	65.19
790.703	64.81
791.016	64.96
791.328	65.27
791.64	65.48
791.952	65.51
792.264	65.73
792.576	65.39
792.888	65.58
793.2	65.88
793.512	66.18
793.824	66.85
794.136	66.87
794.448	67.47
794.76	67.26
795.071	67.57
795.383	67.58
795.695	67.61
796.006	66.82
796.318	67.02
796.629	66.86
796.941	67.32
797.252	68.1
797.564	68.24
797.875	67.96
798.186	67.8
798.497	67.71
798.809	67.33
799.12	67.37
799.431	67.57
799.742	67.52
800.053	67.35
800.364	66.48
800.675	66.26
800.986	65.91
801.297	66.28
801.608	65.62
801.918	65.56
802.229	66
802.54	66.56
802.851	66.41
803.161	66.1
803.472	66.08
803.782	66.14
804.093	65.68
804.403	65.9
804.714	66.03
805.024	65.98
805.334	66.95
805.645	66.64
805.955	66.43
806.265	65.62
806.575	65.93
806.885	66.17
807.195	66.86
807.505	66.63
807.815	66.71
808.125	67.15
808.435	67.2
808.745	67.08
809.055	66.77
809.365	66.47
809.674	66.91
809.984	66.72
810.294	66.33
810.603	65.92
810.913	66.06
811.222	66.77
811.532	66.13
811.841	65.56
812.151	66.41
812.46	66.31
812.769	67.59
813.079	66.1
813.388	66.49
813.697	66.26
814.006	66.19
814.315	66.07
814.624	66
814.933	66.23
815.242	66.05
815.551	65.85
815.86	65.81
816.169	64.87
816.478	64.43
816.786	64.65
817.095	64.75
817.404	64.39
817.712	64.16
818.021	65.03
818.33	65.72
818.638	65.92
818.947	65.88
819.255	65.36
819.563	65.81
819.872	65.88
820.18	66.03
820.488	65.94
820.796	66.18
821.105	66.16
821.413	65.91
821.721	65.92
822.029	65.98
822.337	66.22
822.645	66.32
822.953	66.3
823.26	66.26
823.568	66.27
823.876	66.28
824.184	66.19
824.491	66.11
824.799	66.02
825.107	65.8
825.414	65.9
825.722	65.85
826.029	65.97
826.337	65.9
826.644	65.69
826.951	66.08
827.259	65.77
827.566	65.8
827.873	65.94
828.18	65.92
828.488	66.08
828.795	65.72
829.102	65.58
829.409	65.75
829.716	65.6
830.023	65.71
830.329	65.88
830.636	65.68
830.943	65.79
831.25	65.79
831.557	66.22
831.863	66.19
832.17	66.59
832.476	66.78
832.783	67.23
833.089	67.5
833.396	66.84
833.702	67.37
834.009	66.8
834.315	67.28
834.621	67.49
834.928	67.44
835.234	67.23
835.54	67.51
835.846	67.69
836.152	68.11
836.458	68.45
836.764	68.59
837.07	68.61
837.376	68.7
837.682	68.34
837.988	67.66
838.293	67.34
838.599	67.32
838.905	67.09
839.211	66.5
839.516	66.45
839.822	66.61
840.127	66.06
840.433	67.24
840.738	65.86
841.044	64.89
841.349	65.09
841.654	65.87
841.959	65.52
842.265	65.42
842.57	64.71
842.875	64.63
843.18	63.65
843.485	63.9
843.79	63.49
844.095	64.38
844.4	64.32
844.705	63.74
845.01	63.33
845.315	62.48
845.619	62.51
845.924	62.66
846.229	63.94
846.533	64.54
846.838	64.46
847.142	65.36
847.447	67.37
847.751	65.91
848.056	66.24
848.36	66.9
848.664	67.15
848.969	67.11
849.273	65.46
849.577	65.42
849.881	66
850.185	66.19
850.489	66.64
850.794	68.45
851.097	70.12
851.401	70.93
851.705	71.19
852.009	71.67
852.313	71.62
852.617	71.53
852.92	72.93
853.224	72.6
853.528	72.13
853.831	71.54
854.135	73.33
854.438	74.41
854.742	75.85
855.045	74.73
855.349	74.91
855.652	77.17
855.955	77.97
856.259	79.89
856.562	81.57
856.865	79.67
857.168	78.98
857.471	81.39
857.774	81.66
858.077	80.82
858.38	81.18
858.683	79.95
858.986	78.44
859.289	75.94
859.592	75.61
859.894	78.38
860.197	78.42
860.5	76.85
860.802	75.23
861.105	74.82
861.407	72.72
861.71	72.56
862.012	72.4
862.315	71.68
862.617	70.36
862.919	68.96
863.222	69.12
863.524	69.19
863.826	66.59
864.128	64.64
864.43	65.01
864.732	66.15
865.034	68.91
865.336	68.38
865.638	68.89
865.94	68.16
866.242	66.15
866.544	65.48
866.846	66.47
867.147	65.56
867.449	66.26
867.751	71.39
868.052	72.18
868.354	71.44
868.655	72.63
868.957	69.09
869.258	68.87
869.56	70.9
869.861	72.14
870.162	72.24
870.463	73.17
870.765	73.67
871.066	72.35
871.367	69
871.668	68.69
871.969	67.64
872.27	67.96
872.571	68.14
872.872	70.09
873.173	70.31
873.473	68.52
873.774	69.25
874.075	64.59
874.376	64.16
874.676	65.93
874.977	64.71
875.277	67.83
875.578	67.99
875.878	66.15
876.179	64.55
876.479	64.66
876.78	64.31
877.08	63.38
877.38	62.52
877.68	64.14
877.981	66.16
878.281	66.98
878.581	68.41
